# # comment:                                                     FEFF 9.9.1  
# # Source:
# # Structure
# # Reduced
# # space
# # abc:
# # angles:
# # sites:
# # POT  SCF 100  7.0000   0, screened core-hole, AFOLP (folp(0)= 1.150)
# # Abs   Z=29 Rmt= 1.202 Rnm= 1.284 K  shell
# # Pot 1 Z=56 Rmt= 1.995 Rnm= 2.024
# # Pot 2 Z=57 Rmt= 1.769 Rnm= 1.848
# # Pot 3 Z=29 Rmt= 1.202 Rnm= 1.284
# # Pot 4 Z= 8 Rmt= 1.053 Rnm= 1.107
# # Gam_ch=1.729E+00 H-L exch Vi= 0.000E+00 Vr= 0.000E+00
# # Mu=-7.850E+00eV kf=2.059E+00 Vint=-1.771E+01eV Rs_int= 1.762
# FMS rfms= 9.0000
# # PATH  Rmax=-1.000,  Keep_limit= 0.00, Heap_limit 0.00  Pwcrit= 2.50%
#  S02=0.950  Temp=   0.00  Debye_temp=   0.00  Global_sig2= 0.00000
#  Energy zero shift, vr, vi    0.00000E+00   0.00000E+00
#  Curved wave amplitude ratio filter   4.000%
#     file         sig2 tot  cw amp ratio   deg  nlegs   reff  inp sig2
#     0/   0 paths used
#  xsedge+ 50, used to normalize mu           2.4408E-04
#  -----------------------------------------------------------------------
#  omega    e    k    mu    mu0     chi     @#
    8985.105    -11.660  -1.000  4.04583E-02  5.88713E-02 -1.84130E-02
    8985.403    -11.361  -0.960  4.26316E-02  6.33010E-02 -2.06694E-02
    8985.690    -11.075  -0.920  4.49853E-02  6.82363E-02 -2.32511E-02
    8985.964    -10.800  -0.880  4.75429E-02  7.37528E-02 -2.62099E-02
    8986.226    -10.538  -0.840  5.03322E-02  7.99386E-02 -2.96064E-02
    8986.476    -10.288  -0.800  5.33854E-02  8.68957E-02 -3.35103E-02
    8986.714    -10.050  -0.760  5.67399E-02  9.47416E-02 -3.80017E-02
    8986.939     -9.825  -0.720  6.04382E-02  1.03609E-01 -4.31709E-02
    8987.153     -9.611  -0.680  6.45275E-02  1.13645E-01 -4.91171E-02
    8987.354     -9.410  -0.640  6.90577E-02  1.25003E-01 -5.59453E-02
    8987.543     -9.221  -0.600  7.40778E-02  1.37836E-01 -6.37586E-02
    8987.720     -9.045  -0.560  7.96291E-02  1.52276E-01 -7.26464E-02
    8987.884     -8.880  -0.520  8.57340E-02  1.68399E-01 -8.26647E-02
    8988.037     -8.728  -0.480  9.23813E-02  1.86191E-01 -9.38092E-02
    8988.177     -8.587  -0.440  9.95092E-02  2.05494E-01 -1.05985E-01
    8988.305     -8.459  -0.400  1.06991E-01  2.25971E-01 -1.18980E-01
    8988.421     -8.344  -0.360  1.14630E-01  2.47087E-01 -1.32456E-01
    8988.524     -8.240  -0.320  1.22180E-01  2.68148E-01 -1.45968E-01
    8988.616     -8.148  -0.280  1.29369E-01  2.88384E-01 -1.59015E-01
    8988.695     -8.069  -0.240  1.35947E-01  3.07057E-01 -1.71110E-01
    8988.762     -8.002  -0.200  1.41711E-01  3.23551E-01 -1.81839E-01
    8988.817     -7.947  -0.160  1.46525E-01  3.37416E-01 -1.90892E-01
    8988.860     -7.905  -0.120  1.50305E-01  3.48369E-01 -1.98065E-01
    8988.890     -7.874  -0.080  1.53012E-01  3.56255E-01 -2.03243E-01
    8988.915     -7.850   0.000  1.55169E-01  3.62587E-01 -2.07418E-01
    8988.969     -7.795   0.120  1.60110E-01  3.76863E-01 -2.16753E-01
    8989.012     -7.752   0.160  1.63900E-01  3.87932E-01 -2.24032E-01
    8989.067     -7.697   0.200  1.68708E-01  4.02056E-01 -2.33348E-01
    8989.134     -7.630   0.240  1.74443E-01  4.19025E-01 -2.44583E-01
    8989.213     -7.551   0.280  1.80974E-01  4.38459E-01 -2.57485E-01
    8989.305     -7.460   0.320  1.88086E-01  4.59814E-01 -2.71728E-01
    8989.408     -7.356   0.360  1.95652E-01  4.82485E-01 -2.86834E-01
    8989.524     -7.240   0.400  2.03430E-01  5.05724E-01 -3.02293E-01
    8989.652     -7.112   0.440  2.11231E-01  5.28923E-01 -3.17691E-01
    8989.792     -6.972   0.480  2.18793E-01  5.51578E-01 -3.32785E-01
    8989.945     -6.820   0.520  2.25716E-01  5.73360E-01 -3.47645E-01
    8990.109     -6.655   0.560  2.31626E-01  5.94125E-01 -3.62499E-01
    8990.286     -6.478   0.600  2.36341E-01  6.13817E-01 -3.77476E-01
    8990.475     -6.289   0.640  2.40327E-01  6.32524E-01 -3.92198E-01
    8990.676     -6.088   0.680  2.44539E-01  6.50319E-01 -4.05780E-01
    8990.890     -5.875   0.720  2.50359E-01  6.67328E-01 -4.16969E-01
    8991.115     -5.649   0.760  2.59033E-01  6.83640E-01 -4.24607E-01
    8991.353     -5.411   0.800  2.71294E-01  6.99350E-01 -4.28056E-01
    8991.603     -5.161   0.840  2.87105E-01  7.14562E-01 -4.27457E-01
    8991.865     -4.899   0.880  3.05821E-01  7.29342E-01 -4.23521E-01
    8992.139     -4.625   0.920  3.26968E-01  7.43699E-01 -4.16731E-01
    8992.426     -4.338   0.960  3.50938E-01  7.57733E-01 -4.06795E-01
    8992.725     -4.040   1.000  3.77856E-01  7.71405E-01 -3.93550E-01
    8993.035     -3.729   1.040  4.07065E-01  7.84773E-01 -3.77707E-01
    8993.359     -3.406   1.080  4.37894E-01  7.97819E-01 -3.59925E-01
    8993.694     -3.070   1.120  4.70868E-01  8.10565E-01 -3.39697E-01
    8994.041     -2.723   1.160  5.07656E-01  8.22963E-01 -3.15308E-01
    8994.401     -2.363   1.200  5.49127E-01  8.35042E-01 -2.85915E-01
    8994.773     -1.992   1.240  5.92622E-01  8.46769E-01 -2.54146E-01
    8995.157     -1.607   1.280  6.35821E-01  8.58144E-01 -2.22323E-01
    8995.553     -1.211   1.320  6.83926E-01  8.69150E-01 -1.85225E-01
    8995.962     -0.803   1.360  7.46170E-01  8.79767E-01 -1.33597E-01
    8996.382     -0.382   1.400  8.26439E-01  8.89974E-01 -6.35354E-02
    8996.815      0.051   1.440  9.26180E-01  8.99769E-01  2.64106E-02
    8997.260      0.496   1.480  1.04262E+00  9.09130E-01  1.33493E-01
    8997.717      0.953   1.520  1.14715E+00  9.18057E-01  2.29096E-01
    8998.187      1.422   1.560  1.19907E+00  9.26531E-01  2.72542E-01
    8998.668      1.904   1.600  1.21046E+00  9.34569E-01  2.75887E-01
    8999.162      2.398   1.640  1.23577E+00  9.42154E-01  2.93620E-01
    8999.668      2.904   1.680  1.30459E+00  9.49266E-01  3.55326E-01
    9000.186      3.422   1.720  1.39933E+00  9.55951E-01  4.43375E-01
    9000.716      3.952   1.760  1.47774E+00  9.62147E-01  5.15590E-01
    9001.259      4.495   1.800  1.49360E+00  9.67922E-01  5.25676E-01
    9001.814      5.049   1.840  1.43885E+00  9.73260E-01  4.65591E-01
    9002.381      5.616   1.880  1.36464E+00  9.78168E-01  3.86468E-01
    9002.960      6.195   1.920  1.30765E+00  9.82630E-01  3.25017E-01
    9003.551      6.787   1.960  1.26846E+00  9.86715E-01  2.81748E-01
    9004.155      7.390   2.000  1.23773E+00  9.90390E-01  2.47336E-01
    9004.770      8.006   2.040  1.20845E+00  9.93703E-01  2.14742E-01
    9005.398      8.634   2.080  1.17126E+00  9.96623E-01  1.74633E-01
    9006.038      9.274   2.120  1.12900E+00  9.99220E-01  1.29775E-01
    9006.690      9.926   2.160  1.08786E+00  1.00148E+00  8.63753E-02
    9007.355     10.591   2.200  1.05309E+00  1.00344E+00  4.96520E-02
    9008.032     11.267   2.240  1.02868E+00  1.00508E+00  2.36010E-02
    9008.720     11.956   2.280  1.01674E+00  1.00646E+00  1.02798E-02
    9009.421     12.657   2.320  1.01832E+00  1.00760E+00  1.07177E-02
    9010.135     13.370   2.360  1.03377E+00  1.00847E+00  2.52938E-02
    9010.860     14.096   2.400  1.05999E+00  1.00913E+00  5.08597E-02
    9011.598     14.833   2.440  1.09347E+00  1.00960E+00  8.38689E-02
    9012.348     15.583   2.480  1.12779E+00  1.00987E+00  1.17921E-01
    9013.110     16.345   2.520  1.14611E+00  1.00997E+00  1.36140E-01
    9013.884     17.119   2.560  1.14356E+00  1.00991E+00  1.33645E-01
    9014.670     17.906   2.600  1.12440E+00  1.00972E+00  1.14677E-01
    9015.469     18.704   2.640  1.09685E+00  1.00942E+00  8.74300E-02
    9016.279     19.515   2.680  1.06772E+00  1.00899E+00  5.87304E-02
    9017.102     20.338   2.720  1.04035E+00  1.00848E+00  3.18629E-02
    9017.938     21.173   2.760  1.01454E+00  1.00790E+00  6.64190E-03
    9018.785     22.021   2.800  9.88337E-01  1.00726E+00 -1.89230E-02
    9019.644     22.880   2.840  9.60571E-01  1.00655E+00 -4.59803E-02
    9020.516     23.752   2.880  9.32120E-01  1.00580E+00 -7.36790E-02
    9021.400     24.636   2.920  9.04757E-01  1.00503E+00 -1.00271E-01
    9022.296     25.532   2.960  8.80824E-01  1.00423E+00 -1.23401E-01
    9023.204     26.440   3.000  8.62419E-01  1.00341E+00 -1.40995E-01
    9024.125     27.361   3.040  8.50283E-01  1.00260E+00 -1.52317E-01
    9025.058     28.293   3.080  8.43955E-01  1.00179E+00 -1.57833E-01
    9026.003     29.238   3.120  8.42552E-01  1.00098E+00 -1.58428E-01
    9026.960     30.195   3.160  8.44669E-01  1.00020E+00 -1.55531E-01
    9027.929     31.165   3.200  8.49426E-01  9.99455E-01 -1.50029E-01
    9028.910     32.146   3.240  8.56489E-01  9.98745E-01 -1.42256E-01
    9029.904     33.140   3.280  8.65572E-01  9.98052E-01 -1.32480E-01
    9030.910     34.145   3.320  8.76383E-01  9.97420E-01 -1.21037E-01
    9031.928     35.163   3.360  8.88389E-01  9.96830E-01 -1.08441E-01
    9032.958     36.194   3.400  9.01129E-01  9.96284E-01 -9.51545E-02
    9034.000     37.236   3.440  9.14005E-01  9.95782E-01 -8.17767E-02
    9035.055     38.291   3.480  9.26980E-01  9.95346E-01 -6.83666E-02
    9036.122     39.357   3.520  9.40196E-01  9.94959E-01 -5.47630E-02
    9037.201     40.436   3.560  9.53661E-01  9.94619E-01 -4.09576E-02
    9038.292     41.528   3.600  9.67178E-01  9.94350E-01 -2.71715E-02
    9039.395     42.631   3.640  9.80246E-01  9.94153E-01 -1.39066E-02
    9040.511     43.747   3.680  9.92120E-01  9.94006E-01 -1.88554E-03
    9041.639     44.874   3.720  1.00217E+00  9.93929E-01  8.24409E-03
    9042.779     46.014   3.760  1.01008E+00  9.93901E-01  1.61755E-02
    9043.931     47.166   3.800  1.01585E+00  9.93922E-01  2.19311E-02
    9045.095     48.331   3.840  1.01972E+00  9.94036E-01  2.56844E-02
    9046.272     49.507   3.880  1.02197E+00  9.94175E-01  2.77957E-02
    9047.460     50.696   3.920  1.02310E+00  9.94382E-01  2.87201E-02
    9048.661     51.897   3.960  1.02347E+00  9.94638E-01  2.88359E-02
    9049.874     53.110   4.000  1.02338E+00  9.94961E-01  2.84231E-02
    9051.100     54.335   4.040  1.02298E+00  9.95328E-01  2.76502E-02
    9052.337     55.573   4.080  1.02235E+00  9.95738E-01  2.66103E-02
    9053.587     56.822   4.120  1.02157E+00  9.96188E-01  2.53810E-02
    9054.849     58.084   4.160  1.02092E+00  9.96679E-01  2.42451E-02
    9056.123     59.358   4.200  1.02093E+00  9.97209E-01  2.37250E-02
    9057.409     60.645   4.240  1.02231E+00  9.97776E-01  2.45323E-02
    9058.707     61.943   4.280  1.02575E+00  9.98379E-01  2.73664E-02
    9060.018     63.254   4.320  1.03162E+00  9.98995E-01  3.26213E-02
    9061.341     64.577   4.360  1.03977E+00  9.99644E-01  4.01232E-02
    9062.676     65.912   4.400  1.04941E+00  1.00032E+00  4.90888E-02
    9064.023     67.259   4.440  1.05949E+00  1.00101E+00  5.84788E-02
    9065.382     68.618   4.480  1.06893E+00  1.00173E+00  6.72057E-02
    9066.754     69.990   4.520  1.07673E+00  1.00242E+00  7.43109E-02
    9068.138     71.374   4.560  1.08209E+00  1.00314E+00  7.89491E-02
    9069.534     72.770   4.600  1.08431E+00  1.00386E+00  8.04509E-02
    9070.942     74.178   4.640  1.08310E+00  1.00456E+00  7.85478E-02
    9072.362     75.598   4.680  1.07889E+00  1.00527E+00  7.36219E-02
    9073.795     77.031   4.720  1.07254E+00  1.00598E+00  6.65581E-02
    9075.240     78.475   4.760  1.06496E+00  1.00666E+00  5.83050E-02
    9076.697     79.932   4.800  1.05678E+00  1.00731E+00  4.94758E-02
    9078.166     81.401   4.840  1.04806E+00  1.00794E+00  4.01151E-02
    9079.647     82.883   4.880  1.03844E+00  1.00857E+00  2.98643E-02
    9081.141     84.376   4.920  1.02751E+00  1.00916E+00  1.83414E-02
    9082.646     85.882   4.960  1.01520E+00  1.00972E+00  5.47989E-03
    9084.164     87.400   5.000  1.00201E+00  1.01026E+00 -8.25015E-03
    9085.694     88.930   5.040  9.88921E-01  1.01074E+00 -2.18168E-02
    9087.237     90.472   5.080  9.77315E-01  1.01120E+00 -3.38823E-02
    9088.791     92.027   5.120  9.68380E-01  1.01159E+00 -4.32132E-02
    9090.358     93.593   5.160  9.62833E-01  1.01197E+00 -4.91374E-02
    9091.937     95.172   5.200  9.60685E-01  1.01230E+00 -5.16192E-02
    9093.528     96.763   5.240  9.61443E-01  1.01257E+00 -5.11276E-02
    9095.131     98.367   5.280  9.64457E-01  1.01279E+00 -4.83349E-02
    9096.746     99.982   5.320  9.69015E-01  1.01297E+00 -4.39551E-02
    9098.374    101.610   5.360  9.74460E-01  1.01310E+00 -3.86441E-02
    9100.014    103.249   5.400  9.79959E-01  1.01319E+00 -3.32358E-02
    9101.666    104.901   5.440  9.84492E-01  1.01324E+00 -2.87477E-02
    9103.330    106.566   5.480  9.87081E-01  1.01321E+00 -2.61337E-02
    9105.006    108.242   5.520  9.87280E-01  1.01314E+00 -2.58646E-02
    9106.695    109.931   5.560  9.85308E-01  1.01303E+00 -2.77200E-02
    9108.396    111.631   5.600  9.81872E-01  1.01285E+00 -3.09736E-02
    9110.109    113.344   5.640  9.78011E-01  1.01264E+00 -3.46304E-02
    9111.834    115.069   5.680  9.74595E-01  1.01237E+00 -3.77785E-02
    9113.571    116.807   5.720  9.72496E-01  1.01209E+00 -3.95897E-02
    9115.321    118.556   5.760  9.72265E-01  1.01173E+00 -3.94698E-02
    9117.082    120.318   5.800  9.74067E-01  1.01134E+00 -3.72735E-02
    9118.856    122.092   5.840  9.77584E-01  1.01091E+00 -3.33230E-02
    9120.643    123.878   5.880  9.82133E-01  1.01044E+00 -2.83049E-02
    9122.441    125.676   5.920  9.86780E-01  1.00994E+00 -2.31562E-02
    9124.251    127.487   5.960  9.90664E-01  1.00943E+00 -1.87637E-02
    9126.074    129.310   6.000  9.93241E-01  1.00883E+00 -1.55905E-02
