# # comment:                                                     FEFF 9.9.1  
# # Source:
# # Structure
# # Reduced
# # space
# # abc:
# # angles:145.551540
# # sites:
# # POT  SCF 100  7.0000   0, screened core-hole, AFOLP (folp(0)= 1.150)
# # Abs   Z=29 Rmt= 1.183 Rnm= 1.264 K  shell
# # Pot 1 Z=58 Rmt= 1.655 Rnm= 1.733
# # Pot 2 Z=29 Rmt= 1.183 Rnm= 1.264
# # Pot 3 Z= 7 Rmt= 1.087 Rnm= 1.136
# # Pot 4 Z= 8 Rmt= 1.050 Rnm= 1.107
# # Gam_ch=1.729E+00 H-L exch Vi= 0.000E+00 Vr= 0.000E+00
# # Mu=-1.043E+01eV kf=2.103E+00 Vint=-1.968E+01eV Rs_int= 1.724
# FMS rfms= 9.0000
# # PATH  Rmax=-1.000,  Keep_limit= 0.00, Heap_limit 0.00  Pwcrit= 2.50%
#  S02=0.950  Temp=   0.00  Debye_temp=   0.00  Global_sig2= 0.00000
#  Energy zero shift, vr, vi    0.00000E+00   0.00000E+00
#  Curved wave amplitude ratio filter   4.000%
#     file         sig2 tot  cw amp ratio   deg  nlegs   reff  inp sig2
#     0/   0 paths used
#  xsedge+ 50, used to normalize mu           2.4660E-04
#  -----------------------------------------------------------------------
#  omega    e    k    mu    mu0     chi     @#
    8985.450    -14.236  -1.000  3.89105E-02  5.46319E-02 -1.57214E-02
    8985.749    -13.938  -0.960  4.13565E-02  5.86279E-02 -1.72714E-02
    8986.035    -13.651  -0.920  4.40740E-02  6.30707E-02 -1.89968E-02
    8986.310    -13.377  -0.880  4.71073E-02  6.80265E-02 -2.09192E-02
    8986.572    -13.115  -0.840  5.05089E-02  7.35721E-02 -2.30632E-02
    8986.822    -12.865  -0.800  5.43404E-02  7.97965E-02 -2.54561E-02
    8987.060    -12.627  -0.760  5.86737E-02  8.68022E-02 -2.81285E-02
    8987.285    -12.401  -0.720  6.35912E-02  9.47046E-02 -3.11134E-02
    8987.498    -12.188  -0.680  6.91851E-02  1.03631E-01 -3.44461E-02
    8987.700    -11.987  -0.640  7.55544E-02  1.13716E-01 -3.81621E-02
    8987.889    -11.798  -0.600  8.27982E-02  1.25092E-01 -4.22943E-02
    8988.065    -11.621  -0.560  9.10046E-02  1.37872E-01 -4.68675E-02
    8988.230    -11.456  -0.520  1.00232E-01  1.52123E-01 -5.18910E-02
    8988.382    -11.304  -0.480  1.10482E-01  1.67830E-01 -5.73473E-02
    8988.523    -11.164  -0.440  1.21674E-01  1.84855E-01 -6.31803E-02
    8988.651    -11.036  -0.400  1.33615E-01  2.02901E-01 -6.92859E-02
    8988.766    -10.920  -0.360  1.45992E-01  2.21502E-01 -7.55097E-02
    8988.870    -10.816  -0.320  1.58392E-01  2.40051E-01 -8.16585E-02
    8988.961    -10.725  -0.280  1.70350E-01  2.57873E-01 -8.75233E-02
    8989.041    -10.646  -0.240  1.81415E-01  2.74323E-01 -9.29080E-02
    8989.108    -10.579  -0.200  1.91207E-01  2.88858E-01 -9.76513E-02
    8989.163    -10.524  -0.160  1.99447E-01  3.01082E-01 -1.01635E-01
    8989.205    -10.481  -0.120  2.05961E-01  3.10744E-01 -1.04782E-01
    8989.236    -10.451  -0.080  2.10656E-01  3.17703E-01 -1.07047E-01
    8989.260    -10.426   0.000  2.14435E-01  3.23293E-01 -1.08858E-01
    8989.315    -10.371   0.120  2.22807E-01  3.35910E-01 -1.13103E-01
    8989.358    -10.329   0.160  2.29275E-01  3.45688E-01 -1.16413E-01
    8989.413    -10.274   0.200  2.37480E-01  3.58187E-01 -1.20708E-01
    8989.480    -10.207   0.240  2.47185E-01  3.73215E-01 -1.26030E-01
    8989.559    -10.128   0.280  2.58036E-01  3.90465E-01 -1.32429E-01
    8989.650    -10.036   0.320  2.69457E-01  4.09494E-01 -1.40037E-01
    8989.754     -9.932   0.360  2.80615E-01  4.29708E-01 -1.49094E-01
    8989.870     -9.817   0.400  2.90584E-01  4.50562E-01 -1.59978E-01
    8989.998     -9.689   0.440  2.98317E-01  4.71477E-01 -1.73160E-01
    8990.138     -9.548   0.480  3.03032E-01  4.92041E-01 -1.89009E-01
    8990.290     -9.396   0.520  3.04383E-01  5.11989E-01 -2.07606E-01
    8990.455     -9.231   0.560  3.02651E-01  5.31180E-01 -2.28529E-01
    8990.632     -9.055   0.600  2.98737E-01  5.49581E-01 -2.50844E-01
    8990.821     -8.866   0.640  2.94018E-01  5.67252E-01 -2.73234E-01
    8991.022     -8.664   0.680  2.89960E-01  5.84268E-01 -2.94308E-01
    8991.235     -8.451   0.720  2.87580E-01  6.00721E-01 -3.13141E-01
    8991.461     -8.226   0.760  2.86927E-01  6.16699E-01 -3.29773E-01
    8991.699     -7.988   0.800  2.86891E-01  6.32305E-01 -3.45414E-01
    8991.949     -7.738   0.840  2.85624E-01  6.47604E-01 -3.61980E-01
    8992.211     -7.476   0.880  2.81764E-01  6.62627E-01 -3.80863E-01
    8992.485     -7.201   0.920  2.75524E-01  6.77434E-01 -4.01910E-01
    8992.771     -6.915   0.960  2.68595E-01  6.92054E-01 -4.23459E-01
    8993.070     -6.616   1.000  2.62924E-01  7.06500E-01 -4.43576E-01
    8993.381     -6.305   1.040  2.59930E-01  7.20759E-01 -4.60829E-01
    8993.704     -5.982   1.080  2.60685E-01  7.34833E-01 -4.74148E-01
    8994.039     -5.647   1.120  2.66377E-01  7.48731E-01 -4.82354E-01
    8994.387     -5.300   1.160  2.79030E-01  7.62441E-01 -4.83412E-01
    8994.747     -4.940   1.200  3.01818E-01  7.75928E-01 -4.74109E-01
    8995.118     -4.568   1.240  3.38265E-01  7.89190E-01 -4.50925E-01
    8995.502     -4.184   1.280  3.89018E-01  8.02185E-01 -4.13166E-01
    8995.899     -3.788   1.320  4.45065E-01  8.14889E-01 -3.69824E-01
    8996.307     -3.379   1.360  4.86656E-01  8.27297E-01 -3.40641E-01
    8996.728     -2.959   1.400  5.04774E-01  8.39382E-01 -3.34608E-01
    8997.161     -2.526   1.440  5.12016E-01  8.51117E-01 -3.39101E-01
    8997.606     -2.081   1.480  5.24418E-01  8.62496E-01 -3.38078E-01
    8998.063     -1.624   1.520  5.55308E-01  8.73472E-01 -3.18164E-01
    8998.532     -1.154   1.560  6.16910E-01  8.84038E-01 -2.67129E-01
    8999.014     -0.673   1.600  7.13748E-01  8.94172E-01 -1.80423E-01
    8999.508     -0.179   1.640  8.27032E-01  9.03887E-01 -7.68544E-02
    9000.013      0.327   1.680  9.18761E-01  9.13159E-01  5.60204E-03
    9000.532      0.845   1.720  9.76469E-01  9.21945E-01  5.45242E-02
    9001.062      1.376   1.760  1.02382E+00  9.30305E-01  9.35197E-02
    9001.605      1.918   1.800  1.09161E+00  9.38179E-01  1.53434E-01
    9002.159      2.473   1.840  1.19080E+00  9.45587E-01  2.45213E-01
    9002.726      3.040   1.880  1.30213E+00  9.52550E-01  3.49576E-01
    9003.305      3.619   1.920  1.39339E+00  9.59032E-01  4.34356E-01
    9003.897      4.210   1.960  1.45167E+00  9.65076E-01  4.86599E-01
    9004.500      4.814   2.000  1.47668E+00  9.70665E-01  5.06015E-01
    9005.116      5.429   2.040  1.47809E+00  9.75805E-01  5.02282E-01
    9005.744      6.057   2.080  1.44712E+00  9.80524E-01  4.66600E-01
    9006.384      6.697   2.120  1.37177E+00  9.84848E-01  3.86921E-01
    9007.036      7.350   2.160  1.29144E+00  9.88742E-01  3.02699E-01
    9007.701      8.014   2.200  1.24776E+00  9.92256E-01  2.55502E-01
    9008.377      8.691   2.240  1.22770E+00  9.95418E-01  2.32282E-01
    9009.066      9.380   2.280  1.17986E+00  9.98197E-01  1.81666E-01
    9009.767     10.081   2.320  1.09270E+00  1.00066E+00  9.20366E-02
    9010.480     10.794   2.360  9.94727E-01  1.00280E+00 -8.07018E-03
    9011.206     11.519   2.400  9.15995E-01  1.00462E+00 -8.86241E-02
    9011.943     12.257   2.440  8.73979E-01  1.00617E+00 -1.32192E-01
    9012.693     13.007   2.480  8.78723E-01  1.00745E+00 -1.28723E-01
    9013.455     13.769   2.520  9.38207E-01  1.00847E+00 -7.02660E-02
    9014.229     14.543   2.560  1.02058E+00  1.00928E+00  1.13012E-02
    9015.016     15.329   2.600  1.09254E+00  1.00985E+00  8.26835E-02
    9015.814     16.128   2.640  1.14010E+00  1.01025E+00  1.29854E-01
    9016.625     16.939   2.680  1.16102E+00  1.01045E+00  1.50578E-01
    9017.448     17.762   2.720  1.16155E+00  1.01048E+00  1.51073E-01
    9018.283     18.597   2.760  1.14991E+00  1.01037E+00  1.39533E-01
    9019.130     19.444   2.800  1.13145E+00  1.01012E+00  1.21330E-01
    9019.990     20.304   2.840  1.10910E+00  1.00976E+00  9.93361E-02
    9020.862     21.175   2.880  1.08431E+00  1.00929E+00  7.50162E-02
    9021.746     22.059   2.920  1.05778E+00  1.00873E+00  4.90544E-02
    9022.642     22.955   2.960  1.02919E+00  1.00806E+00  2.11318E-02
    9023.550     23.864   3.000  9.98556E-01  1.00736E+00 -8.80742E-03
    9024.471     24.784   3.040  9.67204E-01  1.00659E+00 -3.93888E-02
    9025.403     25.717   3.080  9.36832E-01  1.00576E+00 -6.89247E-02
    9026.348     26.662   3.120  9.09058E-01  1.00490E+00 -9.58443E-02
    9027.305     27.619   3.160  8.85056E-01  1.00403E+00 -1.18978E-01
    9028.274     28.588   3.200  8.65125E-01  1.00314E+00 -1.38010E-01
    9029.256     29.569   3.240  8.49610E-01  1.00223E+00 -1.52620E-01
    9030.250     30.563   3.280  8.38512E-01  1.00130E+00 -1.62789E-01
    9031.255     31.569   3.320  8.31868E-01  1.00039E+00 -1.68524E-01
    9032.273     32.587   3.360  8.29742E-01  9.99512E-01 -1.69770E-01
    9033.304     33.617   3.400  8.31987E-01  9.98618E-01 -1.66632E-01
    9034.346     34.660   3.440  8.38279E-01  9.97776E-01 -1.59497E-01
    9035.401     35.714   3.480  8.48231E-01  9.96947E-01 -1.48716E-01
    9036.467     36.781   3.520  8.61487E-01  9.96152E-01 -1.34665E-01
    9037.546     37.860   3.560  8.77720E-01  9.95396E-01 -1.17675E-01
    9038.638     38.951   3.600  8.96194E-01  9.94678E-01 -9.84846E-02
    9039.741     40.055   3.640  9.15531E-01  9.94000E-01 -7.84697E-02
    9040.857     41.170   3.680  9.34060E-01  9.93364E-01 -5.93035E-02
    9041.984     42.298   3.720  9.50285E-01  9.92770E-01 -4.24852E-02
    9043.124     43.438   3.760  9.63798E-01  9.92240E-01 -2.84425E-02
    9044.276     44.590   3.800  9.75518E-01  9.91734E-01 -1.62161E-02
    9045.441     45.754   3.840  9.87162E-01  9.91316E-01 -4.15380E-03
    9046.617     46.931   3.880  1.00013E+00  9.90923E-01  9.20833E-03
    9047.806     48.120   3.920  1.01492E+00  9.90594E-01  2.43300E-02
    9049.007     49.320   3.960  1.03075E+00  9.90311E-01  4.04431E-02
    9050.220     50.534   4.000  1.04605E+00  9.90073E-01  5.59816E-02
    9051.445     51.759   4.040  1.05929E+00  9.89899E-01  6.93961E-02
    9052.683     52.996   4.080  1.06974E+00  9.89749E-01  7.99869E-02
    9053.932     54.246   4.120  1.07733E+00  9.89687E-01  8.76456E-02
    9055.194     55.508   4.160  1.08200E+00  9.89647E-01  9.23574E-02
    9056.468     56.782   4.200  1.08332E+00  9.89648E-01  9.36687E-02
    9057.755     58.068   4.240  1.08034E+00  9.89714E-01  9.06213E-02
    9059.053     59.367   4.280  1.07232E+00  9.89821E-01  8.24963E-02
    9060.364     60.677   4.320  1.05952E+00  9.89945E-01  6.95701E-02
    9061.686     62.000   4.360  1.04359E+00  9.90131E-01  5.34631E-02
    9063.021     63.335   4.400  1.02683E+00  9.90354E-01  3.64800E-02
    9064.369     64.682   4.440  1.01140E+00  9.90592E-01  2.08097E-02
    9065.728     66.042   4.480  9.98601E-01  9.90865E-01  7.73585E-03
    9067.100     67.413   4.520  9.89034E-01  9.91173E-01 -2.13936E-03
    9068.483     68.797   4.560  9.83047E-01  9.91515E-01 -8.46803E-03
    9069.879     70.193   4.600  9.80936E-01  9.91867E-01 -1.09311E-02
    9071.288     71.601   4.640  9.83020E-01  9.92248E-01 -9.22841E-03
    9072.708     73.022   4.680  9.89407E-01  9.92636E-01 -3.22954E-03
    9074.141     74.454   4.720  9.99684E-01  9.93030E-01  6.65342E-03
    9075.585     75.899   4.760  1.01267E+00  9.93449E-01  1.92220E-02
    9077.042     77.356   4.800  1.02631E+00  9.93871E-01  3.24414E-02
    9078.511     78.825   4.840  1.03817E+00  9.94294E-01  4.38725E-02
    9079.993     80.306   4.880  1.04617E+00  9.94716E-01  5.14553E-02
    9081.486     81.800   4.920  1.04942E+00  9.95113E-01  5.43055E-02
    9082.992     83.305   4.960  1.04842E+00  9.95531E-01  5.28879E-02
    9084.510     84.823   5.000  1.04448E+00  9.95949E-01  4.85284E-02
    9086.040     86.353   5.040  1.03915E+00  9.96361E-01  4.27876E-02
    9087.582     87.896   5.080  1.03365E+00  9.96744E-01  3.69043E-02
    9089.137     89.450   5.120  1.02852E+00  9.97118E-01  3.13997E-02
    9090.703     91.017   5.160  1.02351E+00  9.97462E-01  2.60520E-02
    9092.282     92.596   5.200  1.01784E+00  9.97795E-01  2.00421E-02
    9093.873     94.187   5.240  1.01042E+00  9.98096E-01  1.23211E-02
    9095.476     95.790   5.280  1.00042E+00  9.98384E-01  2.03489E-03
    9097.092     97.405   5.320  9.87580E-01  9.98639E-01 -1.10587E-02
    9098.719     99.033   5.360  9.72592E-01  9.98858E-01 -2.62663E-02
    9100.359    100.673   5.400  9.56929E-01  9.99064E-01 -4.21351E-02
    9102.011    102.325   5.440  9.42096E-01  9.99234E-01 -5.71383E-02
    9103.676    103.989   5.480  9.29217E-01  9.99366E-01 -7.01486E-02
    9105.352    105.666   5.520  9.19153E-01  9.99461E-01 -8.03074E-02
    9107.041    107.354   5.560  9.12751E-01  9.99540E-01 -8.67887E-02
    9108.741    109.055   5.600  9.10687E-01  9.99560E-01 -8.88726E-02
    9110.454    110.768   5.640  9.13361E-01  9.99562E-01 -8.62008E-02
    9112.179    112.493   5.680  9.20522E-01  9.99527E-01 -7.90046E-02
    9113.917    114.230   5.720  9.31076E-01  9.99454E-01 -6.83781E-02
    9115.666    115.980   5.760  9.43104E-01  9.99342E-01 -5.62376E-02
    9117.428    117.742   5.800  9.54585E-01  9.99191E-01 -4.46056E-02
    9119.202    119.516   5.840  9.64384E-01  9.99004E-01 -3.46200E-02
    9120.988    121.302   5.880  9.72632E-01  9.98805E-01 -2.61721E-02
    9122.786    123.100   5.920  9.80097E-01  9.98546E-01 -1.84487E-02
    9124.597    124.910   5.960  9.87636E-01  9.98276E-01 -1.06397E-02
    9126.420    126.733   6.000  9.95809E-01  9.97948E-01 -2.13890E-03
