# # comment:                                                     FEFF 9.9.1  
# # Source:
# # Structure
# # Reduced
# # space
# # abc:
# # angles:108.626928
# # sites:
# # POT  SCF 100  7.0000   0, screened core-hole, AFOLP (folp(0)= 1.150)
# # Abs   Z=29 Rmt= 1.166 Rnm= 1.334 K  shell
# # Pot 1 Z=25 Rmt= 1.304 Rnm= 1.418
# # Pot 2 Z=29 Rmt= 1.166 Rnm= 1.334
# # Pot 3 Z= 8 Rmt= 0.980 Rnm= 1.085
# # Gam_ch=1.729E+00 H-L exch Vi= 0.000E+00 Vr= 0.000E+00
# # Mu=-9.667E+00eV kf=2.140E+00 Vint=-1.776E+01eV Rs_int= 1.695
# FMS rfms= 9.0000
# # PATH  Rmax=-1.000,  Keep_limit= 0.00, Heap_limit 0.00  Pwcrit= 2.50%
#  S02=0.950  Temp=   0.00  Debye_temp=   0.00  Global_sig2= 0.00000
#  Energy zero shift, vr, vi    0.00000E+00   0.00000E+00
#  Curved wave amplitude ratio filter   4.000%
#     file         sig2 tot  cw amp ratio   deg  nlegs   reff  inp sig2
#     0/   0 paths used
#  xsedge+ 50, used to normalize mu           2.4938E-04
#  -----------------------------------------------------------------------
#  omega    e    k    mu    mu0     chi     @#
    8984.054    -13.477  -1.000  4.40151E-02  4.95680E-02 -5.55287E-03
    8984.353    -13.178  -0.960  4.70487E-02  5.30411E-02 -5.99248E-03
    8984.639    -12.891  -0.920  5.04215E-02  5.68900E-02 -6.46851E-03
    8984.914    -12.617  -0.880  5.41846E-02  6.11690E-02 -6.98442E-03
    8985.176    -12.355  -0.840  5.83971E-02  6.59415E-02 -7.54435E-03
    8985.426    -12.105  -0.800  6.31273E-02  7.12806E-02 -8.15331E-03
    8985.664    -11.867  -0.760  6.84529E-02  7.72704E-02 -8.81746E-03
    8985.889    -11.642  -0.720  7.44612E-02  8.40054E-02 -9.54426E-03
    8986.102    -11.428  -0.680  8.12474E-02  9.15899E-02 -1.03425E-02
    8986.304    -11.227  -0.640  8.89117E-02  1.00134E-01 -1.12219E-02
    8986.493    -11.038  -0.600  9.75521E-02  1.09744E-01 -1.21918E-02
    8986.669    -10.862  -0.560  1.07254E-01  1.20512E-01 -1.32589E-02
    8986.834    -10.697  -0.520  1.18071E-01  1.32493E-01 -1.44221E-02
    8986.986    -10.545  -0.480  1.30004E-01  1.45671E-01 -1.56669E-02
    8987.127    -10.404  -0.440  1.42975E-01  1.59932E-01 -1.69578E-02
    8987.255    -10.276  -0.400  1.56797E-01  1.75031E-01 -1.82341E-02
    8987.370    -10.160  -0.360  1.71167E-01  1.90580E-01 -1.94136E-02
    8987.474    -10.057  -0.320  1.85674E-01  2.06081E-01 -2.04065E-02
    8987.566     -9.965  -0.280  1.99835E-01  2.20975E-01 -2.11397E-02
    8987.645     -9.886  -0.240  2.13147E-01  2.34726E-01 -2.15791E-02
    8987.712     -9.819  -0.200  2.25145E-01  2.46885E-01 -2.17408E-02
    8987.767     -9.764  -0.160  2.35434E-01  2.57120E-01 -2.16852E-02
    8987.809     -9.722  -0.120  2.43718E-01  2.65215E-01 -2.14966E-02
    8987.840     -9.691  -0.080  2.49788E-01  2.71051E-01 -2.12629E-02
    8987.864     -9.667   0.000  2.54769E-01  2.75743E-01 -2.09748E-02
    8987.919     -9.612   0.120  2.65796E-01  2.86329E-01 -2.05334E-02
    8987.962     -9.569   0.160  2.74520E-01  2.94548E-01 -2.00275E-02
    8988.017     -9.514   0.200  2.85889E-01  3.05079E-01 -1.91896E-02
    8988.084     -9.447   0.240  2.99908E-01  3.17772E-01 -1.78638E-02
    8988.163     -9.368   0.280  3.16456E-01  3.32371E-01 -1.59154E-02
    8988.254     -9.277   0.320  3.35287E-01  3.48545E-01 -1.32576E-02
    8988.358     -9.173   0.360  3.55934E-01  3.65839E-01 -9.90513E-03
    8988.474     -9.057   0.400  3.77744E-01  3.83789E-01 -6.04508E-03
    8988.602     -8.929   0.440  3.99918E-01  4.01988E-01 -2.07006E-03
    8988.742     -8.789   0.480  4.21387E-01  4.20048E-01  1.33848E-03
    8988.894     -8.636   0.520  4.40784E-01  4.37801E-01  2.98308E-03
    8989.059     -8.472   0.560  4.56014E-01  4.55130E-01  8.84056E-04
    8989.236     -8.295   0.600  4.64504E-01  4.71989E-01 -7.48461E-03
    8989.425     -8.106   0.640  4.64547E-01  4.88465E-01 -2.39183E-02
    8989.626     -7.905   0.680  4.56640E-01  5.04596E-01 -4.79565E-02
    8989.839     -7.692   0.720  4.43326E-01  5.20452E-01 -7.71259E-02
    8990.065     -7.466   0.760  4.27057E-01  5.36140E-01 -1.09082E-01
    8990.303     -7.228   0.800  4.08699E-01  5.51677E-01 -1.42978E-01
    8990.553     -6.978   0.840  3.89008E-01  5.67153E-01 -1.78145E-01
    8990.815     -6.716   0.880  3.70836E-01  5.82584E-01 -2.11748E-01
    8991.089     -6.442   0.920  3.59066E-01  5.98013E-01 -2.38947E-01
    8991.376     -6.155   0.960  3.57498E-01  6.13435E-01 -2.55937E-01
    8991.674     -5.857   1.000  3.66432E-01  6.28875E-01 -2.62443E-01
    8991.985     -5.546   1.040  3.82435E-01  6.44309E-01 -2.61874E-01
    8992.308     -5.223   1.080  3.99894E-01  6.59749E-01 -2.59855E-01
    8992.643     -4.887   1.120  4.14091E-01  6.75158E-01 -2.61067E-01
    8992.991     -4.540   1.160  4.24133E-01  6.90537E-01 -2.66405E-01
    8993.351     -4.180   1.200  4.32217E-01  7.05842E-01 -2.73625E-01
    8993.722     -3.808   1.240  4.42144E-01  7.21027E-01 -2.78883E-01
    8994.107     -3.424   1.280  4.58015E-01  7.36101E-01 -2.78086E-01
    8994.503     -3.028   1.320  4.81607E-01  7.50994E-01 -2.69387E-01
    8994.911     -2.620   1.360  5.12896E-01  7.65695E-01 -2.52799E-01
    8995.332     -2.199   1.400  5.54840E-01  7.80150E-01 -2.25310E-01
    8995.765     -1.766   1.440  6.12014E-01  7.94345E-01 -1.82331E-01
    8996.210     -1.321   1.480  6.81069E-01  8.08228E-01 -1.27159E-01
    8996.667     -0.864   1.520  7.48150E-01  8.21804E-01 -7.36547E-02
    8997.136     -0.395   1.560  8.00884E-01  8.35003E-01 -3.41191E-02
    8997.618      0.087   1.600  8.44347E-01  8.47791E-01 -3.44327E-03
    8998.112      0.581   1.640  8.91008E-01  8.60196E-01  3.08119E-02
    8998.618      1.087   1.680  9.37628E-01  8.72150E-01  6.54778E-02
    8999.136      1.605   1.720  9.66954E-01  8.83643E-01  8.33112E-02
    8999.666      2.135   1.760  9.69293E-01  8.94648E-01  7.46452E-02
    9000.209      2.678   1.800  9.50235E-01  9.05178E-01  4.50579E-02
    9000.763      3.232   1.840  9.28289E-01  9.15206E-01  1.30823E-02
    9001.330      3.799   1.880  9.21132E-01  9.24712E-01 -3.57924E-03
    9001.909      4.378   1.920  9.37344E-01  9.33692E-01  3.65256E-03
    9002.501      4.970   1.960  9.81305E-01  9.42165E-01  3.91404E-02
    9003.104      5.573   2.000  1.05063E+00  9.50111E-01  1.00520E-01
    9003.720      6.189   2.040  1.12875E+00  9.57552E-01  1.71194E-01
    9004.348      6.817   2.080  1.19134E+00  9.64451E-01  2.26892E-01
    9004.988      7.457   2.120  1.22314E+00  9.70873E-01  2.52265E-01
    9005.640      8.109   2.160  1.22050E+00  9.76780E-01  2.43717E-01
    9006.305      8.774   2.200  1.18693E+00  9.82197E-01  2.04731E-01
    9006.981      9.450   2.240  1.13306E+00  9.87133E-01  1.45931E-01
    9007.670     10.139   2.280  1.07398E+00  9.91616E-01  8.23652E-02
    9008.371     10.840   2.320  1.02221E+00  9.95674E-01  2.65325E-02
    9009.084     11.553   2.360  9.82561E-01  9.99272E-01 -1.67107E-02
    9009.810     12.279   2.400  9.55526E-01  1.00246E+00 -4.69330E-02
    9010.547     13.016   2.440  9.45563E-01  1.00527E+00 -5.97054E-02
    9011.297     13.766   2.480  9.57949E-01  1.00769E+00 -4.97388E-02
    9012.059     14.528   2.520  9.90683E-01  1.00976E+00 -1.90824E-02
    9012.833     15.302   2.560  1.03339E+00  1.01149E+00  2.19035E-02
    9013.620     16.089   2.600  1.07149E+00  1.01292E+00  5.85732E-02
    9014.418     16.887   2.640  1.10034E+00  1.01403E+00  8.63133E-02
    9015.229     17.698   2.680  1.11802E+00  1.01486E+00  1.03156E-01
    9016.052     18.521   2.720  1.12735E+00  1.01544E+00  1.11903E-01
    9016.887     19.356   2.760  1.13352E+00  1.01578E+00  1.17739E-01
    9017.735     20.204   2.800  1.13944E+00  1.01588E+00  1.23561E-01
    9018.594     21.063   2.840  1.14446E+00  1.01580E+00  1.28658E-01
    9019.466     21.935   2.880  1.14572E+00  1.01553E+00  1.30193E-01
    9020.350     22.819   2.920  1.13943E+00  1.01507E+00  1.24363E-01
    9021.246     23.715   2.960  1.12265E+00  1.01447E+00  1.08186E-01
    9022.154     24.623   3.000  1.09616E+00  1.01374E+00  8.24191E-02
    9023.075     25.544   3.040  1.06362E+00  1.01286E+00  5.07542E-02
    9024.007     26.476   3.080  1.03008E+00  1.01190E+00  1.81823E-02
    9024.952     27.421   3.120  9.99148E-01  1.01084E+00 -1.16913E-02
    9025.909     28.378   3.160  9.72411E-01  1.00968E+00 -3.72683E-02
    9026.878     29.348   3.200  9.50042E-01  1.00847E+00 -5.84232E-02
    9027.860     30.329   3.240  9.31838E-01  1.00720E+00 -7.53644E-02
    9028.854     31.323   3.280  9.17193E-01  1.00587E+00 -8.86820E-02
    9029.859     32.328   3.320  9.05711E-01  1.00453E+00 -9.88181E-02
    9030.877     33.346   3.360  8.97282E-01  1.00315E+00 -1.05869E-01
    9031.908     34.377   3.400  8.92014E-01  1.00177E+00 -1.09753E-01
    9032.950     35.419   3.440  8.89892E-01  1.00038E+00 -1.10485E-01
    9034.005     36.474   3.480  8.90776E-01  9.98987E-01 -1.08211E-01
    9035.071     37.541   3.520  8.94417E-01  9.97601E-01 -1.03184E-01
    9036.150     38.619   3.560  9.00339E-01  9.96241E-01 -9.59020E-02
    9037.242     39.711   3.600  9.08057E-01  9.94889E-01 -8.68323E-02
    9038.345     40.814   3.640  9.17291E-01  9.93551E-01 -7.62599E-02
    9039.461     41.930   3.680  9.27865E-01  9.92269E-01 -6.44043E-02
    9040.588     43.057   3.720  9.39242E-01  9.91027E-01 -5.17855E-02
    9041.728     44.197   3.760  9.50600E-01  9.89824E-01 -3.92232E-02
    9042.880     45.349   3.800  9.60965E-01  9.88641E-01 -2.76760E-02
    9044.045     46.514   3.840  9.69675E-01  9.87544E-01 -1.78688E-02
    9045.221     47.690   3.880  9.76412E-01  9.86471E-01 -1.00593E-02
    9046.410     48.879   3.920  9.81305E-01  9.85465E-01 -4.15945E-03
    9047.611     50.080   3.960  9.84447E-01  9.84508E-01 -6.07946E-05
    9048.824     51.293   4.000  9.85921E-01  9.83620E-01  2.30097E-03
    9050.049     52.518   4.040  9.85840E-01  9.82802E-01  3.03815E-03
    9051.287     53.756   4.080  9.84466E-01  9.82033E-01  2.43256E-03
    9052.536     55.005   4.120  9.82251E-01  9.81315E-01  9.36756E-04
    9053.798     56.267   4.160  9.79758E-01  9.80666E-01 -9.07574E-04
    9055.072     57.541   4.200  9.77487E-01  9.80088E-01 -2.60087E-03
    9056.359     58.828   4.240  9.75742E-01  9.79561E-01 -3.81927E-03
    9057.657     60.126   4.280  9.74710E-01  9.79104E-01 -4.39372E-03
    9058.968     61.437   4.320  9.74465E-01  9.78696E-01 -4.23100E-03
    9060.291     62.760   4.360  9.75214E-01  9.78357E-01 -3.14321E-03
    9061.626     64.095   4.400  9.77361E-01  9.78068E-01 -7.07563E-04
    9062.973     65.442   4.440  9.81376E-01  9.77848E-01  3.52810E-03
    9064.332     66.801   4.480  9.87282E-01  9.77676E-01  9.60531E-03
    9065.704     68.173   4.520  9.94622E-01  9.77572E-01  1.70495E-02
    9067.088     69.557   4.560  1.00275E+00  9.77513E-01  2.52378E-02
    9068.483     70.953   4.600  1.01112E+00  9.77499E-01  3.36190E-02
    9069.892     72.361   4.640  1.01921E+00  9.77548E-01  4.16619E-02
    9071.312     73.781   4.680  1.02639E+00  9.77618E-01  4.87690E-02
    9072.745     75.214   4.720  1.03209E+00  9.77749E-01  5.43386E-02
    9074.189     76.658   4.760  1.03568E+00  9.77900E-01  5.77775E-02
    9075.646     78.115   4.800  1.03660E+00  9.78110E-01  5.84911E-02
    9077.115     79.584   4.840  1.03444E+00  9.78360E-01  5.60843E-02
    9078.597     81.066   4.880  1.02929E+00  9.78622E-01  5.06711E-02
    9080.090     82.559   4.920  1.02193E+00  9.78918E-01  4.30135E-02
    9081.596     84.065   4.960  1.01353E+00  9.79247E-01  3.42817E-02
    9083.114     85.583   5.000  1.00532E+00  9.79587E-01  2.57368E-02
    9084.644     87.113   5.040  9.98450E-01  9.79955E-01  1.84956E-02
    9086.186     88.655   5.080  9.93483E-01  9.80330E-01  1.31533E-02
    9087.741     90.210   5.120  9.90433E-01  9.80709E-01  9.72379E-03
    9089.307     91.776   5.160  9.89105E-01  9.81116E-01  7.98903E-03
    9090.886     93.355   5.200  9.89390E-01  9.81525E-01  7.86442E-03
    9092.477     94.946   5.240  9.91004E-01  9.81936E-01  9.06815E-03
    9094.080     96.550   5.280  9.92816E-01  9.82346E-01  1.04700E-02
    9095.696     98.165   5.320  9.93101E-01  9.82752E-01  1.03491E-02
    9097.324     99.793   5.360  9.90623E-01  9.83133E-01  7.49020E-03
    9098.963    101.432   5.400  9.85598E-01  9.83533E-01  2.06503E-03
    9100.615    103.084   5.440  9.79329E-01  9.83907E-01 -4.57786E-03
    9102.280    104.749   5.480  9.73462E-01  9.84273E-01 -1.08113E-02
    9103.956    106.425   5.520  9.69060E-01  9.84633E-01 -1.55729E-02
    9105.645    108.114   5.560  9.66370E-01  9.84961E-01 -1.85905E-02
    9107.345    109.814   5.600  9.65244E-01  9.85255E-01 -2.00106E-02
    9109.058    111.527   5.640  9.65318E-01  9.85537E-01 -2.02188E-02
    9110.783    113.253   5.680  9.65838E-01  9.85788E-01 -1.99496E-02
    9112.521    114.990   5.720  9.65819E-01  9.86028E-01 -2.02089E-02
    9114.270    116.739   5.760  9.64502E-01  9.86232E-01 -2.17293E-02
    9116.032    118.501   5.800  9.61956E-01  9.86397E-01 -2.44411E-02
    9117.806    120.275   5.840  9.59228E-01  9.86525E-01 -2.72969E-02
    9119.592    122.061   5.880  9.58016E-01  9.86615E-01 -2.85992E-02
    9121.390    123.860   5.920  9.59915E-01  9.86690E-01 -2.67745E-02
    9123.201    125.670   5.960  9.65376E-01  9.86698E-01 -2.13224E-02
    9125.024    127.493   6.000  9.73389E-01  9.86674E-01 -1.32853E-02
