# # comment:                                                     FEFF 9.9.1  
# # Source:
# # Structure
# # Reduced
# # space
# # abc:
# # angles:
# # sites:
# # POT  SCF 100  7.0000   0, screened core-hole, AFOLP (folp(0)= 1.150)
# # Abs   Z=29 Rmt= 1.220 Rnm= 1.288 K  shell
# # Pot 1 Z=56 Rmt= 1.927 Rnm= 1.977
# # Pot 2 Z=60 Rmt= 1.708 Rnm= 1.781
# # Pot 3 Z=29 Rmt= 1.232 Rnm= 1.301
# # Pot 4 Z= 8 Rmt= 1.053 Rnm= 1.105
# # Gam_ch=1.729E+00 H-L exch Vi= 0.000E+00 Vr= 0.000E+00
# # Mu=-8.288E+00eV kf=2.042E+00 Vint=-1.767E+01eV Rs_int= 1.776
# FMS rfms= 9.0000
# # PATH  Rmax=-1.000,  Keep_limit= 0.00, Heap_limit 0.00  Pwcrit= 2.50%
#  S02=0.950  Temp=   0.00  Debye_temp=   0.00  Global_sig2= 0.00000
#  Energy zero shift, vr, vi    0.00000E+00   0.00000E+00
#  Curved wave amplitude ratio filter   4.000%
#     file         sig2 tot  cw amp ratio   deg  nlegs   reff  inp sig2
#     0/   0 paths used
#  xsedge+ 50, used to normalize mu           2.4426E-04
#  -----------------------------------------------------------------------
#  omega    e    k    mu    mu0     chi     @#
    8984.996    -12.098  -1.000  3.89452E-02  5.81850E-02 -1.92398E-02
    8985.294    -11.800  -0.960  4.09996E-02  6.25321E-02 -2.15325E-02
    8985.581    -11.513  -0.920  4.32276E-02  6.73723E-02 -2.41447E-02
    8985.855    -11.239  -0.880  4.56536E-02  7.27788E-02 -2.71253E-02
    8986.117    -10.977  -0.840  4.83061E-02  7.88372E-02 -3.05311E-02
    8986.367    -10.727  -0.800  5.12191E-02  8.56465E-02 -3.44274E-02
    8986.605    -10.489  -0.760  5.44320E-02  9.33205E-02 -3.88885E-02
    8986.831    -10.263  -0.720  5.79902E-02  1.01988E-01 -4.39977E-02
    8987.044    -10.050  -0.680  6.19446E-02  1.11791E-01 -4.98459E-02
    8987.245     -9.849  -0.640  6.63497E-02  1.22878E-01 -5.65286E-02
    8987.434     -9.660  -0.600  7.12594E-02  1.35399E-01 -6.41392E-02
    8987.611     -9.483  -0.560  7.67199E-02  1.49477E-01 -7.27576E-02
    8987.776     -9.319  -0.520  8.27575E-02  1.65190E-01 -8.24330E-02
    8987.928     -9.166  -0.480  8.93623E-02  1.82522E-01 -9.31600E-02
    8988.068     -9.026  -0.440  9.64693E-02  2.01320E-01 -1.04851E-01
    8988.196     -8.898  -0.400  1.03943E-01  2.21255E-01 -1.17312E-01
    8988.312     -8.782  -0.360  1.11576E-01  2.41809E-01 -1.30234E-01
    8988.416     -8.679  -0.320  1.19103E-01  2.62309E-01 -1.43206E-01
    8988.507     -8.587  -0.280  1.26242E-01  2.82007E-01 -1.55765E-01
    8988.586     -8.508  -0.240  1.32737E-01  3.00186E-01 -1.67449E-01
    8988.653     -8.441  -0.200  1.38390E-01  3.16247E-01 -1.77857E-01
    8988.708     -8.386  -0.160  1.43076E-01  3.29752E-01 -1.86676E-01
    8988.751     -8.343  -0.120  1.46730E-01  3.40423E-01 -1.93693E-01
    8988.781     -8.313  -0.080  1.49329E-01  3.48109E-01 -1.98779E-01
    8988.806     -8.288   0.000  1.51374E-01  3.54282E-01 -2.02908E-01
    8988.861     -8.234   0.120  1.55979E-01  3.68185E-01 -2.12206E-01
    8988.903     -8.191   0.160  1.59528E-01  3.78983E-01 -2.19455E-01
    8988.958     -8.136   0.200  1.63998E-01  3.92767E-01 -2.28768E-01
    8989.025     -8.069   0.240  1.69262E-01  4.09320E-01 -2.40058E-01
    8989.104     -7.990   0.280  1.75158E-01  4.28319E-01 -2.53161E-01
    8989.196     -7.898   0.320  1.81398E-01  4.49221E-01 -2.67823E-01
    8989.300     -7.795   0.360  1.87689E-01  4.71407E-01 -2.83718E-01
    8989.415     -7.679   0.400  1.93756E-01  4.94238E-01 -3.00482E-01
    8989.543     -7.551   0.440  1.99242E-01  5.17049E-01 -3.17807E-01
    8989.684     -7.411   0.480  2.03966E-01  5.39418E-01 -3.35452E-01
    8989.836     -7.258   0.520  2.07860E-01  5.61005E-01 -3.53145E-01
    8990.001     -7.094   0.560  2.11093E-01  5.81653E-01 -3.70560E-01
    8990.177     -6.917   0.600  2.14053E-01  6.01345E-01 -3.87292E-01
    8990.366     -6.728   0.640  2.17164E-01  6.20105E-01 -4.02941E-01
    8990.567     -6.527   0.680  2.20900E-01  6.38061E-01 -4.17161E-01
    8990.781     -6.313   0.720  2.25833E-01  6.55294E-01 -4.29460E-01
    8991.006     -6.088   0.760  2.32602E-01  6.71884E-01 -4.39282E-01
    8991.244     -5.850   0.800  2.41829E-01  6.87963E-01 -4.46134E-01
    8991.494     -5.600   0.840  2.53620E-01  7.03588E-01 -4.49969E-01
    8991.756     -5.338   0.880  2.67815E-01  7.18819E-01 -4.51005E-01
    8992.031     -5.064   0.920  2.84021E-01  7.33702E-01 -4.49680E-01
    8992.317     -4.777   0.960  3.01781E-01  7.48267E-01 -4.46486E-01
    8992.616     -4.478   1.000  3.20453E-01  7.62515E-01 -4.42062E-01
    8992.927     -4.168   1.040  3.39262E-01  7.76456E-01 -4.37195E-01
    8993.250     -3.844   1.080  3.57969E-01  7.90116E-01 -4.32146E-01
    8993.585     -3.509   1.120  3.77806E-01  8.03466E-01 -4.25660E-01
    8993.932     -3.162   1.160  4.01411E-01  8.16519E-01 -4.15108E-01
    8994.292     -2.802   1.200  4.31219E-01  8.29219E-01 -3.98000E-01
    8994.664     -2.430   1.240  4.68437E-01  8.41589E-01 -3.73152E-01
    8995.048     -2.046   1.280  5.14055E-01  8.53591E-01 -3.39536E-01
    8995.444     -1.650   1.320  5.70350E-01  8.65222E-01 -2.94872E-01
    8995.853     -1.241   1.360  6.40015E-01  8.76440E-01 -2.36425E-01
    8996.273     -0.821   1.400  7.23574E-01  8.87242E-01 -1.63668E-01
    8996.706     -0.388   1.440  8.19937E-01  8.97605E-01 -7.76684E-02
    8997.151      0.057   1.480  9.29730E-01  9.07506E-01  2.22238E-02
    8997.608      0.514   1.520  1.05476E+00  9.16963E-01  1.37794E-01
    8998.078      0.984   1.560  1.18607E+00  9.25954E-01  2.60118E-01
    8998.559      1.465   1.600  1.29057E+00  9.34459E-01  3.56111E-01
    8999.053      1.959   1.640  1.36293E+00  9.42496E-01  4.20432E-01
    8999.559      2.465   1.680  1.44866E+00  9.50027E-01  4.98630E-01
    9000.077      2.983   1.720  1.57977E+00  9.57075E-01  6.22696E-01
    9000.608      3.513   1.760  1.70753E+00  9.63642E-01  7.43893E-01
    9001.150      4.056   1.800  1.70892E+00  9.69753E-01  7.39168E-01
    9001.705      4.611   1.840  1.57723E+00  9.75371E-01  6.01862E-01
    9002.272      5.178   1.880  1.43301E+00  9.80544E-01  4.52462E-01
    9002.851      5.757   1.920  1.32729E+00  9.85258E-01  3.42028E-01
    9003.442      6.348   1.960  1.25066E+00  9.89541E-01  2.61116E-01
    9004.046      6.952   2.000  1.19723E+00  9.93399E-01  2.03833E-01
    9004.661      7.567   2.040  1.17180E+00  9.96843E-01  1.74953E-01
    9005.289      8.195   2.080  1.17420E+00  9.99900E-01  1.74300E-01
    9005.929      8.835   2.120  1.18607E+00  1.00260E+00  1.83465E-01
    9006.582      9.487   2.160  1.18137E+00  1.00494E+00  1.76426E-01
    9007.246     10.152   2.200  1.14044E+00  1.00694E+00  1.33500E-01
    9007.923     10.829   2.240  1.07876E+00  1.00863E+00  7.01285E-02
    9008.612     11.517   2.280  1.02866E+00  1.01001E+00  1.86491E-02
    9009.313     12.218   2.320  1.00456E+00  1.01113E+00 -6.56518E-03
    9010.026     12.932   2.360  1.00639E+00  1.01201E+00 -5.61820E-03
    9010.751     13.657   2.400  1.02687E+00  1.01262E+00  1.42501E-02
    9011.489     14.395   2.440  1.05806E+00  1.01302E+00  4.50396E-02
    9012.239     15.145   2.480  1.09029E+00  1.01324E+00  7.70473E-02
    9013.001     15.907   2.520  1.10906E+00  1.01326E+00  9.57966E-02
    9013.775     16.681   2.560  1.11285E+00  1.01314E+00  9.97088E-02
    9014.561     17.467   2.600  1.10098E+00  1.01286E+00  8.81217E-02
    9015.360     18.266   2.640  1.07670E+00  1.01245E+00  6.42457E-02
    9016.171     19.076   2.680  1.04563E+00  1.01194E+00  3.36932E-02
    9016.994     19.899   2.720  1.01336E+00  1.01132E+00  2.04094E-03
    9017.829     20.735   2.760  9.83459E-01  1.01061E+00 -2.71545E-02
    9018.676     21.582   2.800  9.56762E-01  1.00983E+00 -5.30662E-02
    9019.536     22.441   2.840  9.32714E-01  1.00899E+00 -7.62787E-02
    9020.407     23.313   2.880  9.10240E-01  1.00813E+00 -9.78935E-02
    9021.291     24.197   2.920  8.88755E-01  1.00722E+00 -1.18461E-01
    9022.187     25.093   2.960  8.68851E-01  1.00628E+00 -1.37434E-01
    9023.096     26.001   3.000  8.51748E-01  1.00535E+00 -1.53599E-01
    9024.016     26.922   3.040  8.38363E-01  1.00440E+00 -1.66042E-01
    9024.949     27.855   3.080  8.29349E-01  1.00346E+00 -1.74116E-01
    9025.894     28.800   3.120  8.25138E-01  1.00253E+00 -1.77391E-01
    9026.851     29.757   3.160  8.25248E-01  1.00162E+00 -1.76374E-01
    9027.820     30.726   3.200  8.29032E-01  1.00073E+00 -1.71696E-01
    9028.801     31.707   3.240  8.35838E-01  9.99890E-01 -1.64052E-01
    9029.795     32.701   3.280  8.44833E-01  9.99072E-01 -1.54239E-01
    9030.801     33.707   3.320  8.55318E-01  9.98315E-01 -1.42997E-01
    9031.819     34.725   3.360  8.66828E-01  9.97602E-01 -1.30773E-01
    9032.849     35.755   3.400  8.79460E-01  9.96933E-01 -1.17473E-01
    9033.892     36.797   3.440  8.93413E-01  9.96310E-01 -1.02897E-01
    9034.946     37.852   3.480  9.09200E-01  9.95757E-01 -8.65573E-02
    9036.013     38.919   3.520  9.27078E-01  9.95276E-01 -6.81978E-02
    9037.092     39.998   3.560  9.46779E-01  9.94843E-01 -4.80640E-02
    9038.183     41.089   3.600  9.67624E-01  9.94461E-01 -2.68369E-02
    9039.287     42.192   3.640  9.88719E-01  9.94173E-01 -5.45467E-03
    9040.402     43.308   3.680  1.00907E+00  9.93916E-01  1.51564E-02
    9041.530     44.436   3.720  1.02804E+00  9.93752E-01  3.42888E-02
    9042.670     45.576   3.760  1.04523E+00  9.93639E-01  5.15929E-02
    9043.822     46.728   3.800  1.06037E+00  9.93578E-01  6.67958E-02
    9044.986     47.892   3.840  1.07284E+00  9.93609E-01  7.92260E-02
    9046.163     49.069   3.880  1.08187E+00  9.93669E-01  8.81987E-02
    9047.351     50.257   3.920  1.08701E+00  9.93821E-01  9.31928E-02
    9048.552     51.458   3.960  1.08814E+00  9.94001E-01  9.41350E-02
    9049.765     52.671   4.000  1.08572E+00  9.94249E-01  9.14747E-02
    9050.991     53.897   4.040  1.08047E+00  9.94564E-01  8.59096E-02
    9052.228     55.134   4.080  1.07295E+00  9.94903E-01  7.80423E-02
    9053.478     56.384   4.120  1.06360E+00  9.95307E-01  6.82903E-02
    9054.740     57.646   4.160  1.05295E+00  9.95755E-01  5.71976E-02
    9056.014     58.920   4.200  1.04177E+00  9.96245E-01  4.55209E-02
    9057.300     60.206   4.240  1.03123E+00  9.96794E-01  3.44344E-02
    9058.599     61.504   4.280  1.02277E+00  9.97338E-01  2.54340E-02
    9059.909     62.815   4.320  1.01784E+00  9.97940E-01  1.98962E-02
    9061.232     64.138   4.360  1.01710E+00  9.98577E-01  1.85202E-02
    9062.567     65.473   4.400  1.02031E+00  9.99225E-01  2.10852E-02
    9063.914     66.820   4.440  1.02648E+00  9.99881E-01  2.66028E-02
    9065.274     68.180   4.480  1.03421E+00  1.00059E+00  3.36191E-02
    9066.645     69.551   4.520  1.04200E+00  1.00128E+00  4.07260E-02
    9068.029     70.935   4.560  1.04894E+00  1.00197E+00  4.69677E-02
    9069.425     72.331   4.600  1.05445E+00  1.00269E+00  5.17684E-02
    9070.833     73.739   4.640  1.05802E+00  1.00340E+00  5.46196E-02
    9072.254     75.159   4.680  1.05898E+00  1.00412E+00  5.48619E-02
    9073.686     76.592   4.720  1.05666E+00  1.00481E+00  5.18528E-02
    9075.131     78.037   4.760  1.05089E+00  1.00551E+00  4.53765E-02
    9076.588     79.494   4.800  1.04205E+00  1.00617E+00  3.58864E-02
    9078.057     80.963   4.840  1.03117E+00  1.00683E+00  2.43348E-02
    9079.538     82.444   4.880  1.01929E+00  1.00747E+00  1.18289E-02
    9081.032     83.938   4.920  1.00734E+00  1.00807E+00 -7.21374E-04
    9082.537     85.443   4.960  9.95883E-01  1.00865E+00 -1.27683E-02
    9084.055     86.961   5.000  9.85301E-01  1.00920E+00 -2.39007E-02
    9085.585     88.491   5.040  9.76100E-01  1.00971E+00 -3.36131E-02
    9087.128     90.034   5.080  9.68900E-01  1.01021E+00 -4.13078E-02
    9088.682     91.588   5.120  9.64137E-01  1.01064E+00 -4.65033E-02
    9090.249     93.155   5.160  9.61971E-01  1.01103E+00 -4.90594E-02
    9091.828     94.734   5.200  9.62180E-01  1.01140E+00 -4.92204E-02
    9093.419     96.325   5.240  9.63974E-01  1.01171E+00 -4.77312E-02
    9095.022     97.928   5.280  9.66171E-01  1.01196E+00 -4.57927E-02
    9096.637     99.543   5.320  9.67436E-01  1.01218E+00 -4.47417E-02
    9098.265    101.171   5.360  9.66970E-01  1.01232E+00 -4.53549E-02
    9099.905    102.811   5.400  9.65049E-01  1.01245E+00 -4.73995E-02
    9101.557    104.463   5.440  9.62716E-01  1.01251E+00 -4.97893E-02
    9103.221    106.127   5.480  9.61343E-01  1.01252E+00 -5.11733E-02
    9104.897    107.803   5.520  9.61986E-01  1.01248E+00 -5.04952E-02
    9106.586    109.492   5.560  9.64988E-01  1.01238E+00 -4.73922E-02
    9108.287    111.193   5.600  9.70080E-01  1.01226E+00 -4.21764E-02
    9110.000    112.906   5.640  9.76292E-01  1.01207E+00 -3.57747E-02
    9111.725    114.631   5.680  9.82760E-01  1.01183E+00 -2.90731E-02
    9113.462    116.368   5.720  9.88795E-01  1.01156E+00 -2.27606E-02
    9115.212    118.118   5.760  9.94109E-01  1.01124E+00 -1.71265E-02
    9116.974    119.879   5.800  9.98655E-01  1.01085E+00 -1.21986E-02
    9118.748    121.653   5.840  1.00259E+00  1.01045E+00 -7.86191E-03
    9120.534    123.440   5.880  1.00618E+00  1.01002E+00 -3.84157E-03
    9122.332    125.238   5.920  1.00979E+00  1.00952E+00  2.64112E-04
    9124.142    127.048   5.960  1.01381E+00  1.00902E+00  4.79149E-03
    9125.965    128.871   6.000  1.01811E+00  1.00845E+00  9.65634E-03
