# # comment:                                                     FEFF 9.9.1  
# # Source:
# # Structure
# # Reduced
# # space
# # abc:
# # angles:
# # sites:
# # POT  SCF 100  7.0000   0, screened core-hole, AFOLP (folp(0)= 1.150)
# # Abs   Z=29 Rmt= 1.284 Rnm= 1.370 K  shell
# # Pot 1 Z=29 Rmt= 1.284 Rnm= 1.370
# # Pot 2 Z=75 Rmt= 1.144 Rnm= 1.364
# # Pot 3 Z= 8 Rmt= 0.916 Rnm= 1.059
# # Gam_ch=1.729E+00 H-L exch Vi= 0.000E+00 Vr= 0.000E+00
# # Mu=-4.809E+00eV kf=2.355E+00 Vint=-1.573E+01eV Rs_int= 1.540
# FMS rfms= 9.0000
# # PATH  Rmax=-1.000,  Keep_limit= 0.00, Heap_limit 0.00  Pwcrit= 2.50%
#  S02=0.950  Temp=   0.00  Debye_temp=   0.00  Global_sig2= 0.00000
#  Energy zero shift, vr, vi    0.00000E+00   0.00000E+00
#  Curved wave amplitude ratio filter   4.000%
#     file         sig2 tot  cw amp ratio   deg  nlegs   reff  inp sig2
#     0/   0 paths used
#  xsedge+ 50, used to normalize mu           2.4657E-04
#  -----------------------------------------------------------------------
#  omega    e    k    mu    mu0     chi     @#
    8983.262     -8.619  -1.000  5.06633E-02  5.86496E-02 -7.98632E-03
    8983.561     -8.320  -0.960  5.40206E-02  6.30745E-02 -9.05392E-03
    8983.848     -8.034  -0.920  5.77213E-02  6.80068E-02 -1.02854E-02
    8984.122     -7.760  -0.880  6.18139E-02  7.35224E-02 -1.17086E-02
    8984.384     -7.497  -0.840  6.63545E-02  7.97103E-02 -1.33558E-02
    8984.634     -7.247  -0.800  7.14083E-02  8.66733E-02 -1.52650E-02
    8984.872     -7.010  -0.760  7.70498E-02  9.45301E-02 -1.74803E-02
    8985.097     -6.784  -0.720  8.33629E-02  1.03415E-01 -2.00516E-02
    8985.311     -6.571  -0.680  9.04399E-02  1.13475E-01 -2.30347E-02
    8985.512     -6.370  -0.640  9.83778E-02  1.24867E-01 -2.64891E-02
    8985.701     -6.181  -0.600  1.07271E-01  1.37745E-01 -3.04740E-02
    8985.878     -6.004  -0.560  1.17201E-01  1.52242E-01 -3.50414E-02
    8986.042     -5.839  -0.520  1.28212E-01  1.68437E-01 -4.02245E-02
    8986.195     -5.687  -0.480  1.40292E-01  1.86315E-01 -4.60223E-02
    8986.335     -5.547  -0.440  1.53336E-01  2.05717E-01 -5.23812E-02
    8986.463     -5.419  -0.400  1.67124E-01  2.26304E-01 -5.91800E-02
    8986.579     -5.303  -0.360  1.81309E-01  2.47534E-01 -6.62251E-02
    8986.682     -5.199  -0.320  1.95446E-01  2.68710E-01 -7.32643E-02
    8986.774     -5.108  -0.280  2.09036E-01  2.89055E-01 -8.00196E-02
    8986.853     -5.029  -0.240  2.21597E-01  3.07825E-01 -8.62283E-02
    8986.920     -4.961  -0.200  2.32721E-01  3.24400E-01 -9.16789E-02
    8986.975     -4.907  -0.160  2.42102E-01  3.38330E-01 -9.62273E-02
    8987.018     -4.864  -0.120  2.49536E-01  3.49331E-01 -9.97945E-02
    8987.048     -4.833  -0.080  2.54900E-01  3.57249E-01 -1.02349E-01
    8987.072     -4.809   0.000  2.59205E-01  3.63605E-01 -1.04401E-01
    8987.127     -4.754   0.120  2.69012E-01  3.77934E-01 -1.08922E-01
    8987.170     -4.712   0.160  2.76651E-01  3.89047E-01 -1.12395E-01
    8987.225     -4.657   0.200  2.86458E-01  4.03205E-01 -1.16746E-01
    8987.292     -4.590   0.240  2.98333E-01  4.20192E-01 -1.21860E-01
    8987.371     -4.510   0.280  3.12096E-01  4.39638E-01 -1.27542E-01
    8987.463     -4.419   0.320  3.27466E-01  4.61006E-01 -1.33541E-01
    8987.566     -4.315   0.360  3.44044E-01  4.83614E-01 -1.39570E-01
    8987.682     -4.199   0.400  3.61365E-01  5.06758E-01 -1.45393E-01
    8987.810     -4.071   0.440  3.78907E-01  5.29781E-01 -1.50874E-01
    8987.950     -3.931   0.480  3.96208E-01  5.52189E-01 -1.55981E-01
    8988.103     -3.779   0.520  4.12845E-01  5.73648E-01 -1.60803E-01
    8988.267     -3.614   0.560  4.28528E-01  5.94012E-01 -1.65483E-01
    8988.444     -3.437   0.600  4.43122E-01  6.13248E-01 -1.70126E-01
    8988.633     -3.249   0.640  4.56670E-01  6.31427E-01 -1.74756E-01
    8988.834     -3.047   0.680  4.69395E-01  6.48645E-01 -1.79250E-01
    8989.047     -2.834   0.720  4.81634E-01  6.64997E-01 -1.83363E-01
    8989.273     -2.608   0.760  4.93972E-01  6.80637E-01 -1.86666E-01
    8989.511     -2.371   0.800  5.07171E-01  6.95669E-01 -1.88498E-01
    8989.761     -2.121   0.840  5.21816E-01  7.10161E-01 -1.88345E-01
    8990.023     -1.859   0.880  5.37834E-01  7.24184E-01 -1.86350E-01
    8990.297     -1.584   0.920  5.54567E-01  7.37836E-01 -1.83268E-01
    8990.584     -1.298   0.960  5.71573E-01  7.51140E-01 -1.79567E-01
    8990.882     -0.999   1.000  5.89159E-01  7.64103E-01 -1.74944E-01
    8991.193     -0.688   1.040  6.08229E-01  7.76788E-01 -1.68559E-01
    8991.516     -0.365   1.080  6.29965E-01  7.89204E-01 -1.59239E-01
    8991.852     -0.030   1.120  6.55848E-01  8.01335E-01 -1.45487E-01
    8992.199      0.318   1.160  6.87440E-01  8.13178E-01 -1.25738E-01
    8992.559      0.677   1.200  7.25396E-01  8.24744E-01 -9.93478E-02
    8992.931      1.049   1.240  7.67863E-01  8.36023E-01 -6.81595E-02
    8993.315      1.433   1.280  8.10046E-01  8.47020E-01 -3.69742E-02
    8993.711      1.829   1.320  8.47464E-01  8.57680E-01 -1.02157E-02
    8994.119      2.238   1.360  8.78616E-01  8.68043E-01  1.05731E-02
    8994.540      2.658   1.400  9.02110E-01  8.78048E-01  2.40628E-02
    8994.973      3.091   1.440  9.16171E-01  8.87717E-01  2.84536E-02
    8995.418      3.536   1.480  9.23831E-01  8.97028E-01  2.68029E-02
    8995.875      3.993   1.520  9.31706E-01  9.05979E-01  2.57269E-02
    8996.344      4.463   1.560  9.44495E-01  9.14550E-01  2.99450E-02
    8996.826      4.944   1.600  9.65824E-01  9.22721E-01  4.31035E-02
    8997.320      5.438   1.640  9.97989E-01  9.30509E-01  6.74794E-02
    8997.826      5.944   1.680  1.04127E+00  9.37897E-01  1.03371E-01
    8998.344      6.462   1.720  1.09541E+00  9.44883E-01  1.50528E-01
    8998.874      6.993   1.760  1.15950E+00  9.51490E-01  2.08006E-01
    8999.417      7.535   1.800  1.22760E+00  9.57680E-01  2.69920E-01
    8999.971      8.090   1.840  1.28808E+00  9.63453E-01  3.24627E-01
    9000.538      8.657   1.880  1.33069E+00  9.68856E-01  3.61839E-01
    9001.118      9.236   1.920  1.35213E+00  9.73872E-01  3.78255E-01
    9001.709      9.827   1.960  1.35678E+00  9.78483E-01  3.78298E-01
    9002.312     10.431   2.000  1.35164E+00  9.82738E-01  3.68902E-01
    9002.928     11.047   2.040  1.33941E+00  9.86640E-01  3.52766E-01
    9003.556     11.674   2.080  1.31891E+00  9.90176E-01  3.28736E-01
    9004.196     12.314   2.120  1.29074E+00  9.93374E-01  2.97361E-01
    9004.848     12.967   2.160  1.26033E+00  9.96238E-01  2.64089E-01
    9005.513     13.631   2.200  1.23575E+00  9.98796E-01  2.36955E-01
    9006.189     14.308   2.240  1.21915E+00  1.00106E+00  2.18096E-01
    9006.878     14.997   2.280  1.20444E+00  1.00301E+00  2.01431E-01
    9007.579     15.698   2.320  1.18056E+00  1.00472E+00  1.75842E-01
    9008.292     16.411   2.360  1.13729E+00  1.00615E+00  1.31132E-01
    9009.018     17.136   2.400  1.07894E+00  1.00736E+00  7.15796E-02
    9009.756     17.874   2.440  1.02180E+00  1.00833E+00  1.34682E-02
    9010.505     18.624   2.480  9.74836E-01  1.00910E+00 -3.42592E-02
    9011.267     19.386   2.520  9.39438E-01  1.00965E+00 -7.02146E-02
    9012.041     20.160   2.560  9.15710E-01  1.01004E+00 -9.43262E-02
    9012.828     20.946   2.600  9.03405E-01  1.01025E+00 -1.06846E-01
    9013.626     21.745   2.640  9.00701E-01  1.01033E+00 -1.09627E-01
    9014.437     22.556   2.680  9.01913E-01  1.01025E+00 -1.08339E-01
    9015.260     23.379   2.720  9.00966E-01  1.01005E+00 -1.09084E-01
    9016.095     24.214   2.760  8.98147E-01  1.00975E+00 -1.11604E-01
    9016.943     25.061   2.800  8.95365E-01  1.00934E+00 -1.13973E-01
    9017.802     25.921   2.840  8.94840E-01  1.00884E+00 -1.14000E-01
    9018.674     26.792   2.880  8.96773E-01  1.00828E+00 -1.11508E-01
    9019.558     27.676   2.920  8.99753E-01  1.00765E+00 -1.07894E-01
    9020.454     28.572   2.960  9.02676E-01  1.00694E+00 -1.04268E-01
    9021.362     29.481   3.000  9.04786E-01  1.00622E+00 -1.01431E-01
    9022.283     30.401   3.040  9.06044E-01  1.00545E+00 -9.94083E-02
    9023.215     31.334   3.080  9.06867E-01  1.00465E+00 -9.77833E-02
    9024.160     32.279   3.120  9.07684E-01  1.00384E+00 -9.61543E-02
    9025.117     33.236   3.160  9.08784E-01  1.00302E+00 -9.42350E-02
    9026.087     34.205   3.200  9.10449E-01  1.00218E+00 -9.17276E-02
    9027.068     35.187   3.240  9.13114E-01  1.00135E+00 -8.82409E-02
    9028.062     36.180   3.280  9.16869E-01  1.00054E+00 -8.36685E-02
    9029.068     37.186   3.320  9.21959E-01  9.99747E-01 -7.77887E-02
    9030.086     38.204   3.360  9.28471E-01  9.98967E-01 -7.04962E-02
    9031.116     39.234   3.400  9.36346E-01  9.98218E-01 -6.18716E-02
    9032.158     40.277   3.440  9.45293E-01  9.97481E-01 -5.21878E-02
    9033.213     41.331   3.480  9.55007E-01  9.96800E-01 -4.17923E-02
    9034.280     42.398   3.520  9.65100E-01  9.96135E-01 -3.10344E-02
    9035.359     43.477   3.560  9.75286E-01  9.95510E-01 -2.02235E-02
    9036.450     44.568   3.600  9.85507E-01  9.94945E-01 -9.43809E-03
    9037.553     45.672   3.640  9.95693E-01  9.94401E-01  1.29203E-03
    9038.669     46.787   3.680  1.00572E+00  9.93920E-01  1.18010E-02
    9039.796     47.915   3.720  1.01537E+00  9.93481E-01  2.18900E-02
    9040.936     49.055   3.760  1.02446E+00  9.93085E-01  3.13802E-02
    9042.089     50.207   3.800  1.03284E+00  9.92730E-01  4.01116E-02
    9043.253     51.371   3.840  1.04030E+00  9.92419E-01  4.78828E-02
    9044.429     52.548   3.880  1.04664E+00  9.92174E-01  5.44624E-02
    9045.618     53.737   3.920  1.05153E+00  9.91972E-01  5.95550E-02
    9046.819     54.938   3.960  1.05465E+00  9.91813E-01  6.28415E-02
    9048.032     56.151   4.000  1.05575E+00  9.91698E-01  6.40559E-02
    9049.257     57.376   4.040  1.05468E+00  9.91646E-01  6.30330E-02
    9050.495     58.613   4.080  1.05144E+00  9.91638E-01  5.98001E-02
    9051.745     59.863   4.120  1.04631E+00  9.91648E-01  5.46582E-02
    9053.006     61.125   4.160  1.04000E+00  9.91719E-01  4.82783E-02
    9054.280     62.399   4.200  1.03325E+00  9.91831E-01  4.14203E-02
    9055.567     63.685   4.240  1.02681E+00  9.91982E-01  3.48249E-02
    9056.865     64.984   4.280  1.02130E+00  9.92148E-01  2.91483E-02
    9058.176     66.294   4.320  1.01728E+00  9.92371E-01  2.49081E-02
    9059.499     67.617   4.360  1.01501E+00  9.92609E-01  2.24043E-02
    9060.834     68.952   4.400  1.01456E+00  9.92882E-01  2.16747E-02
    9062.181     70.299   4.440  1.01569E+00  9.93188E-01  2.25003E-02
    9063.540     71.659   4.480  1.01796E+00  9.93504E-01  2.44564E-02
    9064.912     73.030   4.520  1.02084E+00  9.93850E-01  2.69901E-02
    9066.296     74.414   4.560  1.02368E+00  9.94204E-01  2.94715E-02
    9067.692     75.810   4.600  1.02582E+00  9.94587E-01  3.12337E-02
    9069.100     77.218   4.640  1.02663E+00  9.94976E-01  3.16518E-02
    9070.520     78.639   4.680  1.02567E+00  9.95367E-01  3.03072E-02
    9071.953     80.071   4.720  1.02285E+00  9.95783E-01  2.70697E-02
    9073.397     81.516   4.760  1.01825E+00  9.96178E-01  2.20690E-02
    9074.854     82.973   4.800  1.01224E+00  9.96592E-01  1.56499E-02
    9076.324     84.442   4.840  1.00520E+00  9.96981E-01  8.21855E-03
    9077.805     85.923   4.880  9.97493E-01  9.97368E-01  1.25532E-04
    9079.298     87.417   4.920  9.89397E-01  9.97751E-01 -8.35401E-03
    9080.804     88.923   4.960  9.81146E-01  9.98129E-01 -1.69828E-02
    9082.322     90.441   5.000  9.73089E-01  9.98502E-01 -2.54127E-02
    9083.852     91.971   5.040  9.65685E-01  9.98843E-01 -3.31578E-02
    9085.394     93.513   5.080  9.59485E-01  9.99153E-01 -3.96681E-02
    9086.949     95.067   5.120  9.55011E-01  9.99474E-01 -4.44635E-02
    9088.515     96.634   5.160  9.52407E-01  9.99741E-01 -4.73343E-02
    9090.094     98.213   5.200  9.51597E-01  9.99994E-01 -4.83974E-02
    9091.685     99.804   5.240  9.52174E-01  1.00021E+00 -4.80401E-02
    9093.289    101.407   5.280  9.53694E-01  1.00042E+00 -4.67272E-02
    9094.904    103.023   5.320  9.55767E-01  1.00059E+00 -4.48267E-02
    9096.532    104.650   5.360  9.58177E-01  1.00073E+00 -4.25516E-02
    9098.172    106.290   5.400  9.60897E-01  1.00085E+00 -3.99520E-02
    9099.824    107.942   5.440  9.63957E-01  1.00091E+00 -3.69532E-02
    9101.488    109.606   5.480  9.67532E-01  1.00095E+00 -3.34224E-02
    9103.164    111.283   5.520  9.71707E-01  1.00096E+00 -2.92531E-02
    9104.853    112.971   5.560  9.76519E-01  1.00093E+00 -2.44088E-02
    9106.553    114.672   5.600  9.81907E-01  1.00086E+00 -1.89494E-02
    9108.266    116.385   5.640  9.87679E-01  1.00075E+00 -1.30668E-02
    9109.992    118.110   5.680  9.93546E-01  1.00060E+00 -7.04959E-03
    9111.729    119.847   5.720  9.99211E-01  1.00043E+00 -1.22036E-03
    9113.479    121.597   5.760  1.00435E+00  1.00021E+00  4.13882E-03
    9115.240    123.359   5.800  1.00881E+00  9.99970E-01  8.83870E-03
    9117.014    125.133   5.840  1.01252E+00  9.99697E-01  1.28248E-02
    9118.800    126.919   5.880  1.01555E+00  9.99388E-01  1.61652E-02
    9120.599    128.717   5.920  1.01802E+00  9.99045E-01  1.89712E-02
    9122.409    130.528   5.960  1.01990E+00  9.98668E-01  2.12359E-02
    9124.232    132.350   6.000  1.02096E+00  9.98262E-01  2.26936E-02
