# # comment:                                                     FEFF 9.9.1  
# # Source:
# # Structure
# # Reduced
# # space
# # abc:
# # angles:
# # sites:
# # POT  SCF 100  7.0000   0, screened core-hole, AFOLP (folp(0)= 1.150)
# # Abs   Z=29 Rmt= 1.208 Rnm= 1.362 K  shell
# # Pot 1 Z=29 Rmt= 1.167 Rnm= 1.343
# # Pot 2 Z=74 Rmt= 1.243 Rnm= 1.433
# # Pot 3 Z= 8 Rmt= 0.951 Rnm= 1.098
# # Gam_ch=1.729E+00 H-L exch Vi= 0.000E+00 Vr= 0.000E+00
# # Mu=-6.096E+00eV kf=2.193E+00 Vint=-1.510E+01eV Rs_int= 1.654
# FMS rfms= 9.0000
# # PATH  Rmax=-1.000,  Keep_limit= 0.00, Heap_limit 0.00  Pwcrit= 2.50%
#  S02=0.950  Temp=   0.00  Debye_temp=   0.00  Global_sig2= 0.00000
#  Energy zero shift, vr, vi    0.00000E+00   0.00000E+00
#  Curved wave amplitude ratio filter   4.000%
#     file         sig2 tot  cw amp ratio   deg  nlegs   reff  inp sig2
#     0/   0 paths used
#  xsedge+ 50, used to normalize mu           2.4394E-04
#  -----------------------------------------------------------------------
#  omega    e    k    mu    mu0     chi     @#
    8983.643     -9.906  -1.000  5.29826E-02  5.95251E-02 -6.54251E-03
    8983.942     -9.607  -0.960  5.67929E-02  6.39886E-02 -7.19568E-03
    8984.229     -9.321  -0.920  6.10359E-02  6.89585E-02 -7.92259E-03
    8984.503     -9.047  -0.880  6.57780E-02  7.45100E-02 -8.73207E-03
    8984.765     -8.784  -0.840  7.10969E-02  8.07309E-02 -9.63396E-03
    8985.015     -8.534  -0.800  7.70835E-02  8.77227E-02 -1.06392E-02
    8985.253     -8.297  -0.760  8.38424E-02  9.56020E-02 -1.17596E-02
    8985.478     -8.071  -0.720  9.14928E-02  1.04501E-01 -1.30081E-02
    8985.692     -7.858  -0.680  1.00167E-01  1.14565E-01 -1.43982E-02
    8985.893     -7.657  -0.640  1.10004E-01  1.25947E-01 -1.59431E-02
    8986.082     -7.468  -0.600  1.21144E-01  1.38799E-01 -1.76548E-02
    8986.259     -7.291  -0.560  1.33706E-01  1.53249E-01 -1.95422E-02
    8986.423     -7.126  -0.520  1.47767E-01  1.69375E-01 -2.16079E-02
    8986.576     -6.974  -0.480  1.63316E-01  1.87161E-01 -2.38443E-02
    8986.716     -6.834  -0.440  1.80220E-01  2.06450E-01 -2.62297E-02
    8986.844     -6.706  -0.400  1.98181E-01  2.26906E-01 -2.87243E-02
    8986.960     -6.590  -0.360  2.16726E-01  2.47996E-01 -3.12702E-02
    8987.063     -6.486  -0.320  2.35237E-01  2.69031E-01 -3.37945E-02
    8987.155     -6.395  -0.280  2.53027E-01  2.89245E-01 -3.62180E-02
    8987.234     -6.316  -0.240  2.69438E-01  3.07902E-01 -3.84641E-02
    8987.301     -6.248  -0.200  2.83920E-01  3.24386E-01 -4.04665E-02
    8987.356     -6.194  -0.160  2.96077E-01  3.38248E-01 -4.21714E-02
    8987.398     -6.151  -0.120  3.05665E-01  3.49203E-01 -4.35380E-02
    8987.429     -6.120  -0.080  3.12553E-01  3.57092E-01 -4.45388E-02
    8987.453     -6.096   0.000  3.18054E-01  3.63429E-01 -4.53749E-02
    8987.508     -6.041   0.120  3.30293E-01  3.77715E-01 -4.74219E-02
    8987.551     -5.999   0.160  3.39831E-01  3.88801E-01 -4.89699E-02
    8987.606     -5.944   0.200  3.51993E-01  4.02976E-01 -5.09822E-02
    8987.673     -5.877   0.240  3.66496E-01  4.19977E-01 -5.34814E-02
    8987.752     -5.797   0.280  3.83001E-01  4.39498E-01 -5.64972E-02
    8987.843     -5.706   0.320  4.00917E-01  4.61007E-01 -6.00906E-02
    8987.947     -5.602   0.360  4.19528E-01  4.83854E-01 -6.43258E-02
    8988.063     -5.486   0.400  4.38085E-01  5.07364E-01 -6.92789E-02
    8988.191     -5.358   0.440  4.55904E-01  5.30903E-01 -7.49993E-02
    8988.331     -5.218   0.480  4.72498E-01  5.53976E-01 -8.14780E-02
    8988.484     -5.066   0.520  4.87659E-01  5.76299E-01 -8.86401E-02
    8988.648     -4.901   0.560  5.01302E-01  5.97668E-01 -9.63662E-02
    8988.825     -4.724   0.600  5.13463E-01  6.18087E-01 -1.04624E-01
    8989.014     -4.536   0.640  5.24002E-01  6.37578E-01 -1.13577E-01
    8989.215     -4.334   0.680  5.32617E-01  6.56229E-01 -1.23612E-01
    8989.428     -4.121   0.720  5.39132E-01  6.74142E-01 -1.35010E-01
    8989.654     -3.895   0.760  5.44051E-01  6.91437E-01 -1.47386E-01
    8989.892     -3.658   0.800  5.48611E-01  7.08165E-01 -1.59554E-01
    8990.142     -3.408   0.840  5.54213E-01  7.24421E-01 -1.70208E-01
    8990.404     -3.146   0.880  5.61532E-01  7.40265E-01 -1.78733E-01
    8990.678     -2.871   0.920  5.70644E-01  7.55721E-01 -1.85076E-01
    8990.965     -2.585   0.960  5.82178E-01  7.70797E-01 -1.88620E-01
    8991.263     -2.286   1.000  5.97554E-01  7.85556E-01 -1.88002E-01
    8991.574     -1.975   1.040  6.16527E-01  7.99964E-01 -1.83437E-01
    8991.897     -1.652   1.080  6.35250E-01  8.14021E-01 -1.78771E-01
    8992.233     -1.317   1.120  6.48454E-01  8.27721E-01 -1.79267E-01
    8992.580     -0.969   1.160  6.54616E-01  8.41073E-01 -1.86457E-01
    8992.940     -0.610   1.200  6.57061E-01  8.54021E-01 -1.96960E-01
    8993.312     -0.238   1.240  6.59967E-01  8.66546E-01 -2.06579E-01
    8993.696      0.146   1.280  6.65880E-01  8.78670E-01 -2.12790E-01
    8994.092      0.542   1.320  6.76584E-01  8.90328E-01 -2.13744E-01
    8994.500      0.951   1.360  6.94114E-01  9.01518E-01 -2.07405E-01
    8994.921      1.371   1.400  7.20616E-01  9.12219E-01 -1.91603E-01
    8995.354      1.804   1.440  7.57254E-01  9.22426E-01 -1.65172E-01
    8995.799      2.249   1.480  8.02079E-01  9.32139E-01 -1.30060E-01
    8996.256      2.707   1.520  8.49798E-01  9.41314E-01 -9.15158E-02
    8996.725      3.176   1.560  8.94774E-01  9.49953E-01 -5.51784E-02
    8997.207      3.657   1.600  9.34131E-01  9.58055E-01 -2.39238E-02
    8997.701      4.151   1.640  9.69054E-01  9.65623E-01  3.43191E-03
    8998.207      4.657   1.680  1.00345E+00  9.72658E-01  3.07943E-02
    8998.725      5.175   1.720  1.04077E+00  9.79166E-01  6.16027E-02
    8999.255      5.706   1.760  1.08232E+00  9.85154E-01  9.71652E-02
    8999.798      6.248   1.800  1.12705E+00  9.90624E-01  1.36427E-01
    9000.352      6.803   1.840  1.16966E+00  9.95586E-01  1.74069E-01
    9000.919      7.370   1.880  1.20168E+00  1.00007E+00  2.01614E-01
    9001.498      7.949   1.920  1.21878E+00  1.00408E+00  2.14697E-01
    9002.090      8.540   1.960  1.22086E+00  1.00763E+00  2.13237E-01
    9002.693      9.144   2.000  1.20832E+00  1.01075E+00  1.97579E-01
    9003.309      9.760   2.040  1.18625E+00  1.01345E+00  1.72804E-01
    9003.937     10.387   2.080  1.16420E+00  1.01576E+00  1.48440E-01
    9004.577     11.028   2.120  1.14760E+00  1.01769E+00  1.29909E-01
    9005.229     11.680   2.160  1.13749E+00  1.01928E+00  1.18213E-01
    9005.894     12.344   2.200  1.13537E+00  1.02053E+00  1.14844E-01
    9006.570     13.021   2.240  1.14268E+00  1.02146E+00  1.21216E-01
    9007.259     13.710   2.280  1.15896E+00  1.02212E+00  1.36834E-01
    9007.960     14.411   2.320  1.18012E+00  1.02253E+00  1.57596E-01
    9008.673     15.124   2.360  1.19680E+00  1.02269E+00  1.74114E-01
    9009.399     15.849   2.400  1.19915E+00  1.02263E+00  1.76519E-01
    9010.136     16.587   2.440  1.18558E+00  1.02236E+00  1.63212E-01
    9010.886     17.337   2.480  1.16185E+00  1.02193E+00  1.39925E-01
    9011.648     18.099   2.520  1.13291E+00  1.02133E+00  1.11582E-01
    9012.422     18.873   2.560  1.09911E+00  1.02059E+00  7.85207E-02
    9013.209     19.659   2.600  1.06058E+00  1.01973E+00  4.08445E-02
    9014.007     20.458   2.640  1.02877E+00  1.01878E+00  9.99612E-03
    9014.818     21.269   2.680  1.00885E+00  1.01774E+00 -8.88715E-03
    9015.641     22.092   2.720  9.97083E-01  1.01662E+00 -1.95348E-02
    9016.476     22.927   2.760  9.89869E-01  1.01542E+00 -2.55551E-02
    9017.324     23.774   2.800  9.84933E-01  1.01421E+00 -2.92748E-02
    9018.183     24.634   2.840  9.81395E-01  1.01295E+00 -3.15577E-02
    9019.055     25.505   2.880  9.78726E-01  1.01169E+00 -3.29608E-02
    9019.939     26.389   2.920  9.76304E-01  1.01039E+00 -3.40908E-02
    9020.835     27.285   2.960  9.73447E-01  1.00912E+00 -3.56760E-02
    9021.743     28.194   3.000  9.69195E-01  1.00785E+00 -3.86596E-02
    9022.664     29.114   3.040  9.62854E-01  1.00659E+00 -4.37413E-02
    9023.596     30.047   3.080  9.54603E-01  1.00537E+00 -5.07657E-02
    9024.541     30.992   3.120  9.45432E-01  1.00420E+00 -5.87680E-02
    9025.498     31.949   3.160  9.36388E-01  1.00305E+00 -6.66642E-02
    9026.468     32.918   3.200  9.28416E-01  1.00195E+00 -7.35311E-02
    9027.449     33.900   3.240  9.22220E-01  1.00091E+00 -7.86899E-02
    9028.443     34.893   3.280  9.18004E-01  9.99943E-01 -8.19392E-02
    9029.449     35.899   3.320  9.15742E-01  9.99027E-01 -8.32854E-02
    9030.467     36.917   3.360  9.15418E-01  9.98163E-01 -8.27452E-02
    9031.497     37.947   3.400  9.17016E-01  9.97393E-01 -8.03777E-02
    9032.539     38.990   3.440  9.20446E-01  9.96679E-01 -7.62329E-02
    9033.594     40.044   3.480  9.25746E-01  9.96041E-01 -7.02955E-02
    9034.661     41.111   3.520  9.32775E-01  9.95482E-01 -6.27066E-02
    9035.740     42.190   3.560  9.41042E-01  9.94979E-01 -5.39377E-02
    9036.831     43.281   3.600  9.49962E-01  9.94576E-01 -4.46142E-02
    9037.934     44.385   3.640  9.58852E-01  9.94253E-01 -3.54009E-02
    9039.050     45.500   3.680  9.67036E-01  9.93988E-01 -2.69518E-02
    9040.177     46.628   3.720  9.74041E-01  9.93821E-01 -1.97799E-02
    9041.317     47.768   3.760  9.79551E-01  9.93710E-01 -1.41594E-02
    9042.470     48.920   3.800  9.83540E-01  9.93679E-01 -1.01384E-02
    9043.634     50.084   3.840  9.86246E-01  9.93722E-01 -7.47606E-03
    9044.810     51.261   3.880  9.88143E-01  9.93819E-01 -5.67636E-03
    9045.999     52.450   3.920  9.89884E-01  9.94013E-01 -4.12881E-03
    9047.200     53.651   3.960  9.91947E-01  9.94258E-01 -2.31194E-03
    9048.413     54.864   4.000  9.94648E-01  9.94554E-01  9.42062E-05
    9049.638     56.089   4.040  9.98109E-01  9.94920E-01  3.18913E-03
    9050.876     57.326   4.080  1.00220E+00  9.95334E-01  6.87106E-03
    9052.126     58.576   4.120  1.00678E+00  9.95816E-01  1.09619E-02
    9053.387     59.838   4.160  1.01169E+00  9.96344E-01  1.53422E-02
    9054.661     61.112   4.200  1.01687E+00  9.96914E-01  1.99588E-02
    9055.948     62.398   4.240  1.02230E+00  9.97522E-01  2.47805E-02
    9057.246     63.697   4.280  1.02791E+00  9.98172E-01  2.97412E-02
    9058.557     65.007   4.320  1.03353E+00  9.98859E-01  3.46664E-02
    9059.880     66.330   4.360  1.03887E+00  9.99581E-01  3.92905E-02
    9061.215     67.665   4.400  1.04369E+00  1.00031E+00  4.33767E-02
    9062.562     69.012   4.440  1.04791E+00  1.00107E+00  4.68390E-02
    9063.921     70.372   4.480  1.05152E+00  1.00184E+00  4.96731E-02
    9065.293     71.743   4.520  1.05445E+00  1.00262E+00  5.18382E-02
    9066.677     73.127   4.560  1.05661E+00  1.00342E+00  5.31976E-02
    9068.073     74.523   4.600  1.05774E+00  1.00421E+00  5.35213E-02
    9069.481     75.931   4.640  1.05753E+00  1.00499E+00  5.25388E-02
    9070.901     77.352   4.680  1.05581E+00  1.00578E+00  5.00254E-02
    9072.334     78.784   4.720  1.05239E+00  1.00655E+00  4.58368E-02
    9073.778     80.229   4.760  1.04731E+00  1.00731E+00  4.00047E-02
    9075.235     81.686   4.800  1.04087E+00  1.00806E+00  3.28135E-02
    9076.705     83.155   4.840  1.03353E+00  1.00878E+00  2.47541E-02
    9078.186     84.636   4.880  1.02585E+00  1.00946E+00  1.63844E-02
    9079.679     86.130   4.920  1.01835E+00  1.01013E+00  8.22410E-03
    9081.185     87.636   4.960  1.01141E+00  1.01076E+00  6.46184E-04
    9082.703     89.154   5.000  1.00520E+00  1.01135E+00 -6.15374E-03
    9084.233     90.684   5.040  9.99734E-01  1.01190E+00 -1.21655E-02
    9085.775     92.226   5.080  9.94831E-01  1.01238E+00 -1.75503E-02
    9087.330     93.780   5.120  9.90326E-01  1.01284E+00 -2.25185E-02
    9088.896     95.347   5.160  9.86116E-01  1.01327E+00 -2.71504E-02
    9090.475     96.926   5.200  9.82362E-01  1.01364E+00 -3.12792E-02
    9092.066     98.517   5.240  9.79420E-01  1.01395E+00 -3.45281E-02
    9093.670    100.120   5.280  9.77749E-01  1.01421E+00 -3.64578E-02
    9095.285    101.736   5.320  9.77716E-01  1.01442E+00 -3.67043E-02
    9096.913    103.363   5.360  9.79523E-01  1.01456E+00 -3.50401E-02
    9098.552    105.003   5.400  9.83222E-01  1.01466E+00 -3.14358E-02
    9100.204    106.655   5.440  9.88564E-01  1.01471E+00 -2.61431E-02
    9101.869    108.319   5.480  9.94928E-01  1.01471E+00 -1.97819E-02
    9103.545    109.996   5.520  1.00135E+00  1.01464E+00 -1.32940E-02
    9105.234    111.684   5.560  1.00684E+00  1.01453E+00 -7.68420E-03
    9106.934    113.385   5.600  1.01076E+00  1.01434E+00 -3.58014E-03
    9108.647    115.098   5.640  1.01311E+00  1.01411E+00 -9.96996E-04
    9110.373    116.823   5.680  1.01442E+00  1.01383E+00  5.91617E-04
    9112.110    118.560   5.720  1.01537E+00  1.01351E+00  1.86306E-03
    9113.859    120.310   5.760  1.01638E+00  1.01312E+00  3.26271E-03
    9115.621    122.072   5.800  1.01751E+00  1.01271E+00  4.79452E-03
    9117.395    123.846   5.840  1.01832E+00  1.01225E+00  6.07691E-03
    9119.181    125.632   5.880  1.01829E+00  1.01174E+00  6.54608E-03
    9120.980    127.430   5.920  1.01694E+00  1.01123E+00  5.71117E-03
    9122.790    129.241   5.960  1.01404E+00  1.01065E+00  3.39135E-03
    9124.613    131.063   6.000  1.00984E+00  1.01004E+00 -1.96010E-04
