# # comment:                                                     FEFF 9.9.1  
# # Source:
# # Structure
# # Reduced
# # space
# # abc:
# # angles:
# # sites:
# # POT  SCF 100  7.0000   0, screened core-hole, AFOLP (folp(0)= 1.150)
# # Abs   Z=29 Rmt= 1.301 Rnm= 1.368 K  shell
# # Pot 1 Z= 3 Rmt= 1.602 Rnm= 1.640
# # Pot 2 Z=29 Rmt= 1.301 Rnm= 1.368
# # Pot 3 Z=15 Rmt= 0.936 Rnm= 1.154
# # Pot 4 Z= 8 Rmt= 0.876 Rnm= 1.043
# # Gam_ch=1.729E+00 H-L exch Vi= 0.000E+00 Vr= 0.000E+00
# # Mu=-5.358E+00eV kf=2.515E+00 Vint=-1.726E+01eV Rs_int= 1.442
# FMS rfms= 9.0000
# # PATH  Rmax=-1.000,  Keep_limit= 0.00, Heap_limit 0.00  Pwcrit= 2.50%
#  S02=0.950  Temp=   0.00  Debye_temp=   0.00  Global_sig2= 0.00000
#  Energy zero shift, vr, vi    0.00000E+00   0.00000E+00
#  Curved wave amplitude ratio filter   4.000%
#     file         sig2 tot  cw amp ratio   deg  nlegs   reff  inp sig2
#     0/   0 paths used
#  xsedge+ 50, used to normalize mu           2.4838E-04
#  -----------------------------------------------------------------------
#  omega    e    k    mu    mu0     chi     @#
    8983.317     -9.168  -1.000  5.38630E-02  5.67393E-02 -2.87634E-03
    8983.616     -8.869  -0.960  5.75063E-02  6.09798E-02 -3.47351E-03
    8983.902     -8.583  -0.920  6.15147E-02  6.57043E-02 -4.18961E-03
    8984.176     -8.309  -0.880  6.59370E-02  7.09854E-02 -5.04838E-03
    8984.438     -8.047  -0.840  7.08296E-02  7.69078E-02 -6.07824E-03
    8984.688     -7.797  -0.800  7.62568E-02  8.35697E-02 -7.31296E-03
    8984.926     -7.559  -0.760  8.22919E-02  9.10842E-02 -8.79228E-03
    8985.152     -7.333  -0.720  8.90169E-02  9.95791E-02 -1.05622E-02
    8985.365     -7.120  -0.680  9.65208E-02  1.09195E-01 -1.26747E-02
    8985.566     -6.919  -0.640  1.04897E-01  1.20083E-01 -1.51861E-02
    8985.755     -6.730  -0.600  1.14234E-01  1.32388E-01 -1.81538E-02
    8985.932     -6.553  -0.560  1.24607E-01  1.46237E-01 -2.16295E-02
    8986.097     -6.388  -0.520  1.36056E-01  1.61706E-01 -2.56494E-02
    8986.249     -6.236  -0.480  1.48561E-01  1.78780E-01 -3.02193E-02
    8986.389     -6.096  -0.440  1.62010E-01  1.97309E-01 -3.52985E-02
    8986.517     -5.968  -0.400  1.76181E-01  2.16966E-01 -4.07850E-02
    8986.633     -5.852  -0.360  1.90725E-01  2.37237E-01 -4.65122E-02
    8986.737     -5.748  -0.320  2.05193E-01  2.57454E-01 -5.22609E-02
    8986.828     -5.657  -0.280  2.19086E-01  2.76876E-01 -5.77895E-02
    8986.907     -5.578  -0.240  2.31921E-01  2.94793E-01 -6.28714E-02
    8986.974     -5.511  -0.200  2.43287E-01  3.10612E-01 -6.73258E-02
    8987.029     -5.456  -0.160  2.52875E-01  3.23906E-01 -7.10314E-02
    8987.072     -5.413  -0.120  2.60481E-01  3.34404E-01 -7.39233E-02
    8987.102     -5.383  -0.080  2.65979E-01  3.41960E-01 -7.59806E-02
    8987.127     -5.358   0.000  2.70404E-01  3.48024E-01 -7.76205E-02
    8987.182     -5.303   0.120  2.80198E-01  3.61705E-01 -8.15068E-02
    8987.224     -5.261   0.160  2.87874E-01  3.72292E-01 -8.44176E-02
    8987.279     -5.206   0.200  2.97789E-01  3.85807E-01 -8.80181E-02
    8987.346     -5.139   0.240  3.09848E-01  4.02021E-01 -9.21733E-02
    8987.426     -5.059   0.280  3.23925E-01  4.20555E-01 -9.66308E-02
    8987.517     -4.968   0.320  3.39861E-01  4.40938E-01 -1.01077E-01
    8987.621     -4.864   0.360  3.57353E-01  4.62473E-01 -1.05120E-01
    8987.736     -4.749   0.400  3.76205E-01  4.84529E-01 -1.08324E-01
    8987.864     -4.621   0.440  3.96190E-01  5.06452E-01 -1.10263E-01
    8988.005     -4.480   0.480  4.17198E-01  5.27793E-01 -1.10595E-01
    8988.157     -4.328   0.520  4.39152E-01  5.48231E-01 -1.09079E-01
    8988.322     -4.163   0.560  4.62060E-01  5.67609E-01 -1.05548E-01
    8988.498     -3.987   0.600  4.86083E-01  5.85917E-01 -9.98336E-02
    8988.687     -3.798   0.640  5.11610E-01  6.03224E-01 -9.16142E-02
    8988.889     -3.596   0.680  5.39208E-01  6.19627E-01 -8.04192E-02
    8989.102     -3.383   0.720  5.69554E-01  6.35258E-01 -6.57038E-02
    8989.327     -3.158   0.760  6.03213E-01  6.50226E-01 -4.70131E-02
    8989.565     -2.920   0.800  6.40077E-01  6.64633E-01 -2.45562E-02
    8989.815     -2.670   0.840  6.77892E-01  6.78568E-01 -6.75194E-04
    8990.077     -2.408   0.880  7.11717E-01  6.92141E-01  1.95758E-02
    8990.352     -2.133   0.920  7.36551E-01  7.05389E-01  3.11619E-02
    8990.638     -1.847   0.960  7.50817E-01  7.18355E-01  3.24614E-02
    8990.937     -1.548   1.000  7.55963E-01  7.31109E-01  2.48531E-02
    8991.248     -1.237   1.040  7.54267E-01  7.43633E-01  1.06340E-02
    8991.571     -0.914   1.080  7.49627E-01  7.55978E-01 -6.35157E-03
    8991.906     -0.579   1.120  7.48977E-01  7.68128E-01 -1.91509E-02
    8992.254     -0.231   1.160  7.59187E-01  7.80101E-01 -2.09138E-02
    8992.613      0.128   1.200  7.81312E-01  7.91890E-01 -1.05778E-02
    8992.985      0.500   1.240  8.10774E-01  8.03485E-01  7.28894E-03
    8993.369      0.884   1.280  8.43029E-01  8.14890E-01  2.81391E-02
    8993.765      1.280   1.320  8.76718E-01  8.26089E-01  5.06284E-02
    8994.174      1.689   1.360  9.11691E-01  8.37063E-01  7.46288E-02
    8994.594      2.109   1.400  9.46090E-01  8.47789E-01  9.83006E-02
    8995.027      2.542   1.440  9.73488E-01  8.58247E-01  1.15241E-01
    8995.472      2.987   1.480  9.85996E-01  8.68455E-01  1.17542E-01
    8995.929      3.444   1.520  9.87313E-01  8.78387E-01  1.08926E-01
    8996.399      3.914   1.560  9.89917E-01  8.88001E-01  1.01916E-01
    8996.880      4.395   1.600  1.00604E+00  8.97311E-01  1.08729E-01
    8997.374      4.889   1.640  1.04205E+00  9.06295E-01  1.35754E-01
    8997.880      5.395   1.680  1.09111E+00  9.14928E-01  1.76186E-01
    8998.398      5.913   1.720  1.14216E+00  9.23228E-01  2.18930E-01
    8998.929      6.444   1.760  1.19476E+00  9.31172E-01  2.63583E-01
    8999.471      6.986   1.800  1.25012E+00  9.38737E-01  3.11380E-01
    9000.026      7.541   1.840  1.29954E+00  9.45940E-01  3.53601E-01
    9000.593      8.108   1.880  1.33021E+00  9.52761E-01  3.77453E-01
    9001.172      8.687   1.920  1.33405E+00  9.59181E-01  3.74873E-01
    9001.763      9.278   1.960  1.31389E+00  9.65240E-01  3.48648E-01
    9002.367      9.882   2.000  1.28007E+00  9.70918E-01  3.09149E-01
    9002.982     10.497   2.040  1.24330E+00  9.76217E-01  2.67082E-01
    9003.610     11.125   2.080  1.21089E+00  9.81139E-01  2.29754E-01
    9004.250     11.765   2.120  1.18514E+00  9.85688E-01  1.99450E-01
    9004.903     12.418   2.160  1.16196E+00  9.89888E-01  1.72071E-01
    9005.567     13.082   2.200  1.13585E+00  9.93701E-01  1.42146E-01
    9006.244     13.759   2.240  1.10558E+00  9.97192E-01  1.08386E-01
    9006.933     14.448   2.280  1.07276E+00  1.00033E+00  7.24309E-02
    9007.634     15.149   2.320  1.04161E+00  1.00313E+00  3.84790E-02
    9008.347     15.862   2.360  1.01612E+00  1.00561E+00  1.05137E-02
    9009.072     16.587   2.400  9.95922E-01  1.00779E+00 -1.18633E-02
    9009.810     17.325   2.440  9.78719E-01  1.00967E+00 -3.09529E-02
    9010.560     18.075   2.480  9.64496E-01  1.01125E+00 -4.67564E-02
    9011.322     18.837   2.520  9.54551E-01  1.01260E+00 -5.80444E-02
    9012.096     19.611   2.560  9.47586E-01  1.01367E+00 -6.60801E-02
    9012.882     20.397   2.600  9.42041E-01  1.01449E+00 -7.24511E-02
    9013.681     21.196   2.640  9.36638E-01  1.01510E+00 -7.84645E-02
    9014.492     22.007   2.680  9.28711E-01  1.01550E+00 -8.67921E-02
    9015.315     22.830   2.720  9.17469E-01  1.01570E+00 -9.82320E-02
    9016.150     23.665   2.760  9.05625E-01  1.01570E+00 -1.10078E-01
    9016.997     24.512   2.800  8.96547E-01  1.01554E+00 -1.18991E-01
    9017.857     25.372   2.840  8.93155E-01  1.01523E+00 -1.22075E-01
    9018.728     26.243   2.880  8.96993E-01  1.01477E+00 -1.17775E-01
    9019.612     27.127   2.920  9.06070E-01  1.01416E+00 -1.08087E-01
    9020.508     28.023   2.960  9.13166E-01  1.01345E+00 -1.00281E-01
    9021.417     28.932   3.000  9.17630E-01  1.01264E+00 -9.50134E-02
    9022.337     29.852   3.040  9.19225E-01  1.01173E+00 -9.25050E-02
    9023.270     30.785   3.080  9.18925E-01  1.01073E+00 -9.18098E-02
    9024.215     31.730   3.120  9.18271E-01  1.00968E+00 -9.14118E-02
    9025.172     32.687   3.160  9.18423E-01  1.00856E+00 -9.01364E-02
    9026.141     33.656   3.200  9.19955E-01  1.00739E+00 -8.74352E-02
    9027.122     34.638   3.240  9.23173E-01  1.00618E+00 -8.30068E-02
    9028.116     35.631   3.280  9.28279E-01  1.00495E+00 -7.66759E-02
    9029.122     36.637   3.320  9.34867E-01  1.00370E+00 -6.88314E-02
    9030.140     37.655   3.360  9.42600E-01  1.00243E+00 -5.98341E-02
    9031.170     38.685   3.400  9.51218E-01  1.00117E+00 -4.99480E-02
    9032.213     39.728   3.440  9.60550E-01  9.99877E-01 -3.93268E-02
    9033.267     40.782   3.480  9.70644E-01  9.98633E-01 -2.79891E-02
    9034.334     41.849   3.520  9.81525E-01  9.97378E-01 -1.58525E-02
    9035.413     42.928   3.560  9.93054E-01  9.96172E-01 -3.11757E-03
    9036.504     44.019   3.600  1.00464E+00  9.94977E-01  9.65895E-03
    9037.608     45.123   3.640  1.01565E+00  9.93797E-01  2.18537E-02
    9038.723     46.238   3.680  1.02542E+00  9.92677E-01  3.27467E-02
    9039.851     47.366   3.720  1.03326E+00  9.91598E-01  4.16622E-02
    9040.991     48.506   3.760  1.03878E+00  9.90561E-01  4.82180E-02
    9042.143     49.658   3.800  1.04197E+00  9.89588E-01  5.23866E-02
    9043.307     50.822   3.840  1.04309E+00  9.88639E-01  5.44489E-02
    9044.484     51.999   3.880  1.04282E+00  9.87757E-01  5.50635E-02
    9045.673     53.188   3.920  1.04192E+00  9.86943E-01  5.49795E-02
    9046.873     54.388   3.960  1.04096E+00  9.86178E-01  5.47832E-02
    9048.087     55.602   4.000  1.04020E+00  9.85461E-01  5.47367E-02
    9049.312     56.827   4.040  1.03965E+00  9.84814E-01  5.48334E-02
    9050.549     58.064   4.080  1.03902E+00  9.84239E-01  5.47841E-02
    9051.799     59.314   4.120  1.03785E+00  9.83714E-01  5.41403E-02
    9053.061     60.576   4.160  1.03575E+00  9.83259E-01  5.24950E-02
    9054.335     61.850   4.200  1.03252E+00  9.82854E-01  4.96654E-02
    9055.621     63.136   4.240  1.02834E+00  9.82519E-01  4.58167E-02
    9056.920     64.435   4.280  1.02368E+00  9.82235E-01  4.14498E-02
    9058.230     65.745   4.320  1.01921E+00  9.82021E-01  3.71868E-02
    9059.553     67.068   4.360  1.01533E+00  9.81878E-01  3.34472E-02
    9060.888     68.403   4.400  1.01216E+00  9.81782E-01  3.03823E-02
    9062.235     69.750   4.440  1.00966E+00  9.81730E-01  2.79328E-02
    9063.595     71.110   4.480  1.00762E+00  9.81724E-01  2.58925E-02
    9064.966     72.481   4.520  1.00574E+00  9.81785E-01  2.39547E-02
    9066.350     73.865   4.560  1.00368E+00  9.81891E-01  2.17861E-02
    9067.746     75.261   4.600  1.00117E+00  9.82062E-01  1.91094E-02
    9069.154     76.669   4.640  9.98008E-01  9.82250E-01  1.57584E-02
    9070.575     78.090   4.680  9.94175E-01  9.82479E-01  1.16962E-02
    9072.007     79.522   4.720  9.89727E-01  9.82769E-01  6.95799E-03
    9073.452     80.967   4.760  9.84692E-01  9.83074E-01  1.61722E-03
    9074.909     82.424   4.800  9.79221E-01  9.83414E-01 -4.19386E-03
    9076.378     83.893   4.840  9.73410E-01  9.83788E-01 -1.03777E-02
    9077.859     85.374   4.880  9.67347E-01  9.84173E-01 -1.68264E-02
    9079.353     86.868   4.920  9.61265E-01  9.84589E-01 -2.33242E-02
    9080.859     88.374   4.960  9.55487E-01  9.85013E-01 -2.95251E-02
    9082.376     89.891   5.000  9.50476E-01  9.85464E-01 -3.49882E-02
    9083.906     91.422   5.040  9.46552E-01  9.85920E-01 -3.93682E-02
    9085.449     92.964   5.080  9.43872E-01  9.86378E-01 -4.25063E-02
    9087.003     94.518   5.120  9.42432E-01  9.86839E-01 -4.44069E-02
    9088.570     96.085   5.160  9.42116E-01  9.87322E-01 -4.52055E-02
    9090.149     97.664   5.200  9.42699E-01  9.87781E-01 -4.50826E-02
    9091.740     99.255   5.240  9.44012E-01  9.88236E-01 -4.42235E-02
    9093.343    100.858   5.280  9.45993E-01  9.88684E-01 -4.26915E-02
    9094.958    102.474   5.320  9.48653E-01  9.89104E-01 -4.04514E-02
    9096.586    104.101   5.360  9.52014E-01  9.89517E-01 -3.75021E-02
    9098.226    105.741   5.400  9.55925E-01  9.89921E-01 -3.39962E-02
    9099.878    107.393   5.440  9.60060E-01  9.90292E-01 -3.02314E-02
    9101.542    109.057   5.480  9.64110E-01  9.90629E-01 -2.65188E-02
    9103.219    110.734   5.520  9.67889E-01  9.90953E-01 -2.30639E-02
    9104.907    112.422   5.560  9.71355E-01  9.91241E-01 -1.98859E-02
    9106.608    114.123   5.600  9.74689E-01  9.91491E-01 -1.68021E-02
    9108.321    115.836   5.640  9.78180E-01  9.91702E-01 -1.35228E-02
    9110.046    117.561   5.680  9.82062E-01  9.91876E-01 -9.81382E-03
    9111.783    119.298   5.720  9.86372E-01  9.92033E-01 -5.66129E-03
    9113.533    121.048   5.760  9.90815E-01  9.92128E-01 -1.31227E-03
    9115.295    122.810   5.800  9.95027E-01  9.92182E-01  2.84504E-03
    9117.069    124.584   5.840  9.98724E-01  9.92220E-01  6.50356E-03
    9118.855    126.370   5.880  1.00178E+00  9.92193E-01  9.58298E-03
    9120.653    128.168   5.920  1.00435E+00  9.92125E-01  1.22253E-02
    9122.464    129.979   5.960  1.00666E+00  9.92012E-01  1.46448E-02
    9124.286    131.801   6.000  1.00888E+00  9.91831E-01  1.70510E-02
