# # comment:                                                     FEFF 9.9.1  
# # Source:
# # Structure
# # Reduced
# # space
# # abc:
# # angles:133.929925
# # sites:
# # POT  SCF 100  7.0000   0, screened core-hole, AFOLP (folp(0)= 1.150)
# # Abs   Z=29 Rmt= 1.295 Rnm= 1.349 K  shell
# # Pot 1 Z= 3 Rmt= 1.265 Rnm= 1.313
# # Pot 2 Z=40 Rmt= 1.411 Rnm= 1.535
# # Pot 3 Z=29 Rmt= 1.295 Rnm= 1.349
# # Pot 4 Z= 8 Rmt= 1.067 Rnm= 1.120
# # Gam_ch=1.729E+00 H-L exch Vi= 0.000E+00 Vr= 0.000E+00
# # Mu=-8.463E+00eV kf=2.050E+00 Vint=-1.719E+01eV Rs_int= 1.769
# FMS rfms= 9.0000
# # PATH  Rmax=-1.000,  Keep_limit= 0.00, Heap_limit 0.00  Pwcrit= 2.50%
#  S02=0.950  Temp=   0.00  Debye_temp=   0.00  Global_sig2= 0.00000
#  Energy zero shift, vr, vi    0.00000E+00   0.00000E+00
#  Curved wave amplitude ratio filter   4.000%
#     file         sig2 tot  cw amp ratio   deg  nlegs   reff  inp sig2
#     0/   0 paths used
#  xsedge+ 50, used to normalize mu           2.4559E-04
#  -----------------------------------------------------------------------
#  omega    e    k    mu    mu0     chi     @#
    8984.612    -12.273  -1.000  3.67843E-02  5.34130E-02 -1.66287E-02
    8984.911    -11.974  -0.960  3.84326E-02  5.72908E-02 -1.88582E-02
    8985.197    -11.688  -0.920  4.01635E-02  6.15998E-02 -2.14362E-02
    8985.472    -11.413  -0.880  4.19810E-02  6.64033E-02 -2.44223E-02
    8985.734    -11.151  -0.840  4.38889E-02  7.17754E-02 -2.78865E-02
    8985.984    -10.901  -0.800  4.58912E-02  7.78015E-02 -3.19103E-02
    8986.221    -10.664  -0.760  4.79918E-02  8.45799E-02 -3.65881E-02
    8986.447    -10.438  -0.720  5.01943E-02  9.22215E-02 -4.20272E-02
    8986.660    -10.225  -0.680  5.25018E-02  1.00848E-01 -4.83466E-02
    8986.861    -10.024  -0.640  5.49167E-02  1.10590E-01 -5.56730E-02
    8987.050     -9.835  -0.600  5.74391E-02  1.21572E-01 -6.41326E-02
    8987.227     -9.658  -0.560  6.00666E-02  1.33903E-01 -7.38360E-02
    8987.392     -9.493  -0.520  6.27917E-02  1.47647E-01 -8.48551E-02
    8987.544     -9.341  -0.480  6.55994E-02  1.62790E-01 -9.71901E-02
    8987.684     -9.201  -0.440  6.84653E-02  1.79198E-01 -1.10733E-01
    8987.812     -9.073  -0.400  7.13524E-02  1.96587E-01 -1.25235E-01
    8987.928     -8.957  -0.360  7.42116E-02  2.14508E-01 -1.40296E-01
    8988.032     -8.853  -0.320  7.69830E-02  2.32377E-01 -1.55394E-01
    8988.123     -8.762  -0.280  7.96019E-02  2.49548E-01 -1.69946E-01
    8988.203     -8.682  -0.240  8.20046E-02  2.65398E-01 -1.83393E-01
    8988.270     -8.615  -0.200  8.41341E-02  2.79405E-01 -1.95271E-01
    8988.325     -8.560  -0.160  8.59423E-02  2.91189E-01 -2.05246E-01
    8988.367     -8.518  -0.120  8.73903E-02  3.00504E-01 -2.13113E-01
    8988.398     -8.487  -0.080  8.84482E-02  3.07214E-01 -2.18766E-01
    8988.422     -8.463   0.000  8.93182E-02  3.12606E-01 -2.23288E-01
    8988.477     -8.408   0.120  9.14223E-02  3.24764E-01 -2.33342E-01
    8988.520     -8.365   0.160  9.30270E-02  3.34214E-01 -2.41187E-01
    8988.574     -8.311   0.200  9.50862E-02  3.46268E-01 -2.51181E-01
    8988.642     -8.243   0.240  9.76318E-02  3.60783E-01 -2.63151E-01
    8988.721     -8.164   0.280  1.00678E-01  3.77471E-01 -2.76792E-01
    8988.812     -8.073   0.320  1.04221E-01  3.95870E-01 -2.91649E-01
    8988.916     -7.969   0.360  1.08316E-01  4.15475E-01 -3.07159E-01
    8989.032     -7.853   0.400  1.13014E-01  4.35710E-01 -3.22696E-01
    8989.160     -7.725   0.440  1.18399E-01  4.56062E-01 -3.37663E-01
    8989.300     -7.585   0.480  1.24582E-01  4.76116E-01 -3.51534E-01
    8989.452     -7.433   0.520  1.31729E-01  4.95623E-01 -3.63895E-01
    8989.617     -7.268   0.560  1.40079E-01  5.14466E-01 -3.74386E-01
    8989.794     -7.091   0.600  1.49932E-01  5.32590E-01 -3.82657E-01
    8989.983     -6.902   0.640  1.61753E-01  5.50053E-01 -3.88300E-01
    8990.184     -6.701   0.680  1.76092E-01  5.66947E-01 -3.90854E-01
    8990.397     -6.488   0.720  1.93540E-01  5.83333E-01 -3.89793E-01
    8990.623     -6.262   0.760  2.14719E-01  5.99295E-01 -3.84576E-01
    8990.860     -6.025   0.800  2.40416E-01  6.14926E-01 -3.74511E-01
    8991.110     -5.775   0.840  2.71477E-01  6.30287E-01 -3.58810E-01
    8991.373     -5.512   0.880  3.08512E-01  6.45426E-01 -3.36915E-01
    8991.647     -5.238   0.920  3.51324E-01  6.60356E-01 -3.09033E-01
    8991.933     -4.952   0.960  3.98266E-01  6.75120E-01 -2.76854E-01
    8992.232     -4.653   1.000  4.46105E-01  6.89729E-01 -2.43624E-01
    8992.543     -4.342   1.040  4.91685E-01  7.04168E-01 -2.12483E-01
    8992.866     -4.019   1.080  5.31400E-01  7.18451E-01 -1.87051E-01
    8993.201     -3.684   1.120  5.61754E-01  7.32548E-01 -1.70795E-01
    8993.549     -3.336   1.160  5.86711E-01  7.46444E-01 -1.59733E-01
    8993.908     -2.977   1.200  6.14404E-01  7.60141E-01 -1.45737E-01
    8994.280     -2.605   1.240  6.46162E-01  7.73576E-01 -1.27413E-01
    8994.664     -2.221   1.280  6.78610E-01  7.86765E-01 -1.08154E-01
    8995.061     -1.824   1.320  7.11488E-01  7.99662E-01 -8.81744E-02
    8995.469     -1.416   1.360  7.51985E-01  8.12263E-01 -6.02783E-02
    8995.890     -0.995   1.400  8.04345E-01  8.24518E-01 -2.01729E-02
    8996.322     -0.563   1.440  8.66346E-01  8.36399E-01  2.99465E-02
    8996.767     -0.118   1.480  9.39818E-01  8.47921E-01  9.18973E-02
    8997.225      0.340   1.520  1.02167E+00  8.59037E-01  1.62628E-01
    8997.694      0.809   1.560  1.10436E+00  8.69742E-01  2.34621E-01
    8998.176      1.291   1.600  1.19632E+00  8.80007E-01  3.16316E-01
    8998.669      1.784   1.640  1.32560E+00  8.89830E-01  4.35765E-01
    8999.175      2.290   1.680  1.49964E+00  8.99209E-01  6.00427E-01
    8999.694      2.809   1.720  1.68197E+00  9.08119E-01  7.73850E-01
    9000.224      3.339   1.760  1.79145E+00  9.16561E-01  8.74886E-01
    9000.766      3.881   1.800  1.78471E+00  9.24535E-01  8.60170E-01
    9001.321      4.436   1.840  1.69065E+00  9.32042E-01  7.58605E-01
    9001.888      5.003   1.880  1.55390E+00  9.39104E-01  6.14795E-01
    9002.467      5.582   1.920  1.40950E+00  9.45685E-01  4.63812E-01
    9003.059      6.173   1.960  1.28038E+00  9.51829E-01  3.28552E-01
    9003.662      6.777   2.000  1.17931E+00  9.57520E-01  2.21785E-01
    9004.278      7.393   2.040  1.10423E+00  9.62765E-01  1.41462E-01
    9004.906      8.021   2.080  1.04155E+00  9.67613E-01  7.39423E-02
    9005.546      8.661   2.120  9.78185E-01  9.72049E-01  6.13524E-03
    9006.198      9.313   2.160  9.14113E-01  9.76102E-01 -6.19893E-02
    9006.862      9.977   2.200  8.59291E-01  9.79758E-01 -1.20466E-01
    9007.539     10.654   2.240  8.21883E-01  9.83068E-01 -1.61185E-01
    9008.228     11.343   2.280  8.01250E-01  9.86042E-01 -1.84791E-01
    9008.929     12.044   2.320  7.92225E-01  9.88686E-01 -1.96461E-01
    9009.642     12.757   2.360  7.96164E-01  9.91010E-01 -1.94846E-01
    9010.368     13.483   2.400  8.18252E-01  9.93064E-01 -1.74812E-01
    9011.105     14.220   2.440  8.55949E-01  9.94839E-01 -1.38890E-01
    9011.855     14.970   2.480  9.00754E-01  9.96362E-01 -9.56080E-02
    9012.617     15.732   2.520  9.30920E-01  9.97643E-01 -6.67233E-02
    9013.391     16.506   2.560  9.46630E-01  9.98712E-01 -5.20818E-02
    9014.178     17.293   2.600  9.50138E-01  9.99597E-01 -4.94587E-02
    9014.976     18.091   2.640  9.43085E-01  1.00029E+00 -5.72019E-02
    9015.787     18.902   2.680  9.28043E-01  1.00081E+00 -7.27666E-02
    9016.610     19.725   2.720  9.09959E-01  1.00117E+00 -9.12132E-02
    9017.445     20.560   2.760  8.93150E-01  1.00140E+00 -1.08253E-01
    9018.292     21.407   2.800  8.79042E-01  1.00151E+00 -1.22468E-01
    9019.152     22.267   2.840  8.68647E-01  1.00150E+00 -1.32854E-01
    9020.024     23.139   2.880  8.62472E-01  1.00142E+00 -1.38952E-01
    9020.908     24.023   2.920  8.60570E-01  1.00124E+00 -1.40671E-01
    9021.804     24.919   2.960  8.62530E-01  1.00100E+00 -1.38471E-01
    9022.712     25.827   3.000  8.66881E-01  1.00069E+00 -1.33810E-01
    9023.632     26.747   3.040  8.72675E-01  1.00033E+00 -1.27657E-01
    9024.565     27.680   3.080  8.79939E-01  9.99934E-01 -1.19995E-01
    9025.510     28.625   3.120  8.88874E-01  9.99521E-01 -1.10647E-01
    9026.467     29.582   3.160  8.99417E-01  9.99075E-01 -9.96579E-02
    9027.436     30.551   3.200  9.11148E-01  9.98621E-01 -8.74721E-02
    9028.418     31.533   3.240  9.23599E-01  9.98163E-01 -7.45641E-02
    9029.411     32.526   3.280  9.36601E-01  9.97682E-01 -6.10813E-02
    9030.417     33.532   3.320  9.50652E-01  9.97225E-01 -4.65734E-02
    9031.435     34.550   3.360  9.66315E-01  9.96795E-01 -3.04802E-02
    9032.465     35.580   3.400  9.83365E-01  9.96372E-01 -1.30071E-02
    9033.508     36.623   3.440  1.00109E+00  9.95957E-01  5.12937E-03
    9034.562     37.677   3.480  1.01895E+00  9.95575E-01  2.33711E-02
    9035.629     38.744   3.520  1.03696E+00  9.95228E-01  4.17323E-02
    9036.708     39.823   3.560  1.05563E+00  9.94916E-01  6.07107E-02
    9037.799     40.914   3.600  1.07533E+00  9.94620E-01  8.07147E-02
    9038.903     42.018   3.640  1.09588E+00  9.94381E-01  1.01501E-01
    9040.018     43.133   3.680  1.11611E+00  9.94161E-01  1.21952E-01
    9041.146     44.261   3.720  1.13453E+00  9.94001E-01  1.40533E-01
    9042.286     45.401   3.760  1.14878E+00  9.93860E-01  1.54916E-01
    9043.438     46.553   3.800  1.15629E+00  9.93779E-01  1.62515E-01
    9044.603     47.718   3.840  1.15566E+00  9.93717E-01  1.61938E-01
    9045.779     48.894   3.880  1.14778E+00  9.93718E-01  1.54062E-01
    9046.968     50.083   3.920  1.13506E+00  9.93758E-01  1.41306E-01
    9048.169     51.284   3.960  1.11966E+00  9.93815E-01  1.25845E-01
    9049.382     52.497   4.000  1.10269E+00  9.93934E-01  1.08758E-01
    9050.607     53.722   4.040  1.08395E+00  9.94092E-01  8.98532E-02
    9051.845     54.960   4.080  1.06260E+00  9.94267E-01  6.83325E-02
    9053.094     56.209   4.120  1.03832E+00  9.94498E-01  4.38198E-02
    9054.356     57.471   4.160  1.01190E+00  9.94744E-01  1.71576E-02
    9055.630     58.745   4.200  9.85395E-01  9.95024E-01 -9.62933E-03
    9056.916     60.031   4.240  9.61335E-01  9.95317E-01 -3.39822E-02
    9058.215     61.330   4.280  9.42054E-01  9.95665E-01 -5.36109E-02
    9059.526     62.641   4.320  9.28792E-01  9.96024E-01 -6.72322E-02
    9060.848     63.963   4.360  9.21875E-01  9.96392E-01 -7.45167E-02
    9062.183     65.298   4.400  9.20821E-01  9.96789E-01 -7.59684E-02
    9063.531     66.646   4.440  9.24574E-01  9.97215E-01 -7.26404E-02
    9064.890     68.005   4.480  9.31885E-01  9.97624E-01 -6.57389E-02
    9066.262     69.377   4.520  9.41767E-01  9.98060E-01 -5.62921E-02
    9067.645     70.760   4.560  9.53291E-01  9.98520E-01 -4.52297E-02
    9069.041     72.156   4.600  9.65419E-01  9.98961E-01 -3.35414E-02
    9070.449     73.564   4.640  9.76968E-01  9.99400E-01 -2.24317E-02
    9071.870     74.985   4.680  9.86592E-01  9.99860E-01 -1.32679E-02
    9073.302     76.417   4.720  9.92999E-01  1.00030E+00 -7.29666E-03
    9074.747     77.862   4.760  9.95483E-01  1.00073E+00 -5.24395E-03
    9076.204     79.319   4.800  9.94140E-01  1.00115E+00 -7.01266E-03
    9077.673     80.788   4.840  9.89968E-01  1.00155E+00 -1.15824E-02
    9079.155     82.270   4.880  9.84641E-01  1.00196E+00 -1.73203E-02
    9080.648     83.763   4.920  9.79719E-01  1.00232E+00 -2.26047E-02
    9082.154     85.269   4.960  9.76279E-01  1.00270E+00 -2.64178E-02
    9083.672     86.787   5.000  9.74384E-01  1.00304E+00 -2.86547E-02
    9085.202     88.317   5.040  9.73404E-01  1.00335E+00 -2.99425E-02
    9086.744     89.859   5.080  9.72485E-01  1.00364E+00 -3.11557E-02
    9088.299     91.414   5.120  9.70965E-01  1.00390E+00 -3.29344E-02
    9089.865     92.980   5.160  9.68749E-01  1.00412E+00 -3.53746E-02
    9091.444     94.559   5.200  9.66302E-01  1.00433E+00 -3.80285E-02
    9093.035     96.150   5.240  9.64259E-01  1.00448E+00 -4.02206E-02
    9094.638     97.753   5.280  9.63296E-01  1.00461E+00 -4.13175E-02
    9096.254     99.369   5.320  9.64045E-01  1.00473E+00 -4.06879E-02
    9097.881    100.996   5.360  9.67190E-01  1.00479E+00 -3.76020E-02
    9099.521    102.636   5.400  9.73312E-01  1.00481E+00 -3.14988E-02
    9101.173    104.288   5.440  9.82506E-01  1.00481E+00 -2.23076E-02
    9102.837    105.952   5.480  9.94338E-01  1.00478E+00 -1.04420E-02
    9104.514    107.629   5.520  1.00823E+00  1.00471E+00  3.52435E-03
    9106.202    109.317   5.560  1.02356E+00  1.00459E+00  1.89642E-02
    9107.903    111.018   5.600  1.03950E+00  1.00444E+00  3.50590E-02
    9109.616    112.731   5.640  1.05498E+00  1.00425E+00  5.07260E-02
    9111.341    114.456   5.680  1.06873E+00  1.00405E+00  6.46844E-02
    9113.079    116.194   5.720  1.07944E+00  1.00378E+00  7.56553E-02
    9114.828    117.943   5.760  1.08612E+00  1.00350E+00  8.26125E-02
    9116.590    119.705   5.800  1.08819E+00  1.00319E+00  8.49990E-02
    9118.364    121.479   5.840  1.08559E+00  1.00284E+00  8.27504E-02
    9120.150    123.265   5.880  1.07873E+00  1.00249E+00  7.62401E-02
    9121.948    125.063   5.920  1.06820E+00  1.00210E+00  6.60921E-02
    9123.759    126.874   5.960  1.05474E+00  1.00169E+00  5.30539E-02
    9125.581    128.696   6.000  1.03870E+00  1.00125E+00  3.74474E-02
