# # comment:                                                     FEFF 9.9.1  
# # Source:
# # Structure
# # Reduced
# # space
# # abc:
# # angles:
# # sites:
# # POT  SCF 100  7.0000   0, screened core-hole, AFOLP (folp(0)= 1.150)
# # Abs   Z=29 Rmt= 1.242 Rnm= 1.314 K  shell
# # Pot 1 Z=67 Rmt= 1.608 Rnm= 1.693
# # Pot 2 Z=29 Rmt= 1.242 Rnm= 1.314
# # Pot 3 Z=32 Rmt= 1.167 Rnm= 1.319
# # Pot 4 Z= 8 Rmt= 1.009 Rnm= 1.080
# # Gam_ch=1.729E+00 H-L exch Vi= 0.000E+00 Vr= 0.000E+00
# # Mu=-7.373E+00eV kf=2.191E+00 Vint=-1.785E+01eV Rs_int= 1.655
# FMS rfms= 9.0000
# # PATH  Rmax=-1.000,  Keep_limit= 0.00, Heap_limit 0.00  Pwcrit= 2.50%
#  S02=0.950  Temp=   0.00  Debye_temp=   0.00  Global_sig2= 0.00000
#  Energy zero shift, vr, vi    0.00000E+00   0.00000E+00
#  Curved wave amplitude ratio filter   4.000%
#     file         sig2 tot  cw amp ratio   deg  nlegs   reff  inp sig2
#     0/   0 paths used
#  xsedge+ 50, used to normalize mu           2.4771E-04
#  -----------------------------------------------------------------------
#  omega    e    k    mu    mu0     chi     @#
    8983.937    -11.183  -1.000  4.11676E-02  5.37478E-02 -1.25802E-02
    8984.236    -10.884  -0.960  4.34663E-02  5.76821E-02 -1.42158E-02
    8984.522    -10.597  -0.920  4.59535E-02  6.20586E-02 -1.61052E-02
    8984.797    -10.323  -0.880  4.86510E-02  6.69429E-02 -1.82920E-02
    8985.059    -10.061  -0.840  5.15837E-02  7.24115E-02 -2.08278E-02
    8985.309     -9.811  -0.800  5.47799E-02  7.85532E-02 -2.37732E-02
    8985.547     -9.573  -0.760  5.82716E-02  8.54699E-02 -2.71983E-02
    8985.772     -9.348  -0.720  6.20937E-02  9.32770E-02 -3.11832E-02
    8985.985     -9.134  -0.680  6.62843E-02  1.02102E-01 -3.58173E-02
    8986.187     -8.933  -0.640  7.08821E-02  1.12078E-01 -4.11959E-02
    8986.376     -8.744  -0.600  7.59240E-02  1.23338E-01 -4.74144E-02
    8986.552     -8.567  -0.560  8.14395E-02  1.35996E-01 -5.45563E-02
    8986.717     -8.403  -0.520  8.74428E-02  1.50118E-01 -6.26750E-02
    8986.869     -8.250  -0.480  9.39222E-02  1.65691E-01 -7.17684E-02
    8987.010     -8.110  -0.440  1.00827E-01  1.82577E-01 -8.17496E-02
    8987.138     -7.982  -0.400  1.08058E-01  2.00481E-01 -9.24229E-02
    8987.253     -7.866  -0.360  1.15461E-01  2.18938E-01 -1.03477E-01
    8987.357     -7.763  -0.320  1.22833E-01  2.37342E-01 -1.14509E-01
    8987.449     -7.671  -0.280  1.29946E-01  2.55024E-01 -1.25079E-01
    8987.528     -7.592  -0.240  1.36565E-01  2.71340E-01 -1.34775E-01
    8987.595     -7.525  -0.200  1.42481E-01  2.85752E-01 -1.43271E-01
    8987.650     -7.470  -0.160  1.47522E-01  2.97868E-01 -1.50346E-01
    8987.692     -7.428  -0.120  1.51563E-01  3.07440E-01 -1.55878E-01
    8987.723     -7.397  -0.080  1.54514E-01  3.14333E-01 -1.59818E-01
    8987.747     -7.373   0.000  1.56934E-01  3.19867E-01 -1.62933E-01
    8987.802     -7.318   0.120  1.62287E-01  3.32341E-01 -1.70054E-01
    8987.845     -7.275   0.160  1.66501E-01  3.42037E-01 -1.75536E-01
    8987.900     -7.220   0.200  1.71923E-01  3.54377E-01 -1.82454E-01
    8987.967     -7.153   0.240  1.78578E-01  3.69222E-01 -1.90644E-01
    8988.046     -7.074   0.280  1.86416E-01  3.86239E-01 -1.99823E-01
    8988.137     -6.983   0.320  1.95284E-01  4.04953E-01 -2.09670E-01
    8988.241     -6.879   0.360  2.05014E-01  4.24827E-01 -2.19813E-01
    8988.357     -6.763   0.400  2.15317E-01  4.45262E-01 -2.29944E-01
    8988.485     -6.635   0.440  2.25863E-01  4.65676E-01 -2.39813E-01
    8988.625     -6.495   0.480  2.36400E-01  4.85653E-01 -2.49252E-01
    8988.777     -6.342   0.520  2.46913E-01  5.04945E-01 -2.58032E-01
    8988.942     -6.178   0.560  2.57694E-01  5.23392E-01 -2.65698E-01
    8989.119     -6.001   0.600  2.69499E-01  5.41003E-01 -2.71504E-01
    8989.308     -5.812   0.640  2.83383E-01  5.57821E-01 -2.74438E-01
    8989.509     -5.611   0.680  3.00474E-01  5.73906E-01 -2.73432E-01
    8989.722     -5.398   0.720  3.21608E-01  5.89414E-01 -2.67806E-01
    8989.948     -5.172   0.760  3.46648E-01  6.04401E-01 -2.57754E-01
    8990.186     -4.934   0.800  3.74287E-01  6.18992E-01 -2.44705E-01
    8990.436     -4.684   0.840  4.02125E-01  6.33241E-01 -2.31115E-01
    8990.698     -4.422   0.880  4.27569E-01  6.47245E-01 -2.19676E-01
    8990.972     -4.148   0.920  4.49356E-01  6.61008E-01 -2.11651E-01
    8991.259     -3.861   0.960  4.68882E-01  6.74605E-01 -2.05723E-01
    8991.557     -3.563   1.000  4.88871E-01  6.88039E-01 -1.99167E-01
    8991.868     -3.252   1.040  5.10699E-01  7.01359E-01 -1.90660E-01
    8992.191     -2.929   1.080  5.33059E-01  7.14531E-01 -1.81472E-01
    8992.526     -2.593   1.120  5.55062E-01  7.27574E-01 -1.72512E-01
    8992.874     -2.246   1.160  5.80623E-01  7.40498E-01 -1.59874E-01
    8993.234     -1.886   1.200  6.15829E-01  7.53271E-01 -1.37442E-01
    8993.605     -1.514   1.240  6.59587E-01  7.65877E-01 -1.06290E-01
    8993.990     -1.130   1.280  7.01780E-01  7.78340E-01 -7.65602E-02
    8994.386     -0.734   1.320  7.33609E-01  7.90595E-01 -5.69867E-02
    8994.794     -0.326   1.360  7.57991E-01  8.02642E-01 -4.46513E-02
    8995.215      0.095   1.400  7.86474E-01  8.14476E-01 -2.80013E-02
    8995.648      0.528   1.440  8.27965E-01  8.26049E-01  1.91578E-03
    8996.093      0.973   1.480  8.80690E-01  8.37359E-01  4.33317E-02
    8996.550      1.430   1.520  9.28824E-01  8.48396E-01  8.04281E-02
    8997.019      1.899   1.560  9.60883E-01  8.59116E-01  1.01767E-01
    8997.501      2.381   1.600  9.89719E-01  8.69513E-01  1.20206E-01
    8997.995      2.875   1.640  1.03512E+00  8.79580E-01  1.55536E-01
    8998.501      3.381   1.680  1.10195E+00  8.89291E-01  2.12663E-01
    8999.019      3.899   1.720  1.17695E+00  8.98622E-01  2.78326E-01
    8999.549      4.429   1.760  1.23863E+00  9.07588E-01  3.31039E-01
    9000.092      4.972   1.800  1.27447E+00  9.16145E-01  3.58329E-01
    9000.646      5.526   1.840  1.29191E+00  9.24331E-01  3.67580E-01
    9001.213      6.093   1.880  1.29589E+00  9.32106E-01  3.63781E-01
    9001.792      6.672   1.920  1.28131E+00  9.39466E-01  3.41843E-01
    9002.384      7.264   1.960  1.25073E+00  9.46432E-01  3.04295E-01
    9002.987      7.867   2.000  1.21108E+00  9.52984E-01  2.58100E-01
    9003.603      8.483   2.040  1.17288E+00  9.59123E-01  2.13757E-01
    9004.231      9.111   2.080  1.14270E+00  9.64850E-01  1.77848E-01
    9004.871      9.751   2.120  1.11800E+00  9.70191E-01  1.47814E-01
    9005.523     10.403   2.160  1.09894E+00  9.75127E-01  1.23817E-01
    9006.188     11.068   2.200  1.08389E+00  9.79685E-01  1.04203E-01
    9006.864     11.744   2.240  1.06549E+00  9.83867E-01  8.16267E-02
    9007.553     12.433   2.280  1.04056E+00  9.87679E-01  5.28797E-02
    9008.254     13.134   2.320  1.01419E+00  9.91129E-01  2.30604E-02
    9008.967     13.847   2.360  9.95075E-01  9.94239E-01  8.35286E-04
    9009.693     14.573   2.400  9.89174E-01  9.97018E-01 -7.84405E-03
    9010.430     15.310   2.440  9.96871E-01  9.99474E-01 -2.60268E-03
    9011.180     16.060   2.480  1.01400E+00  1.00163E+00  1.23697E-02
    9011.942     16.822   2.520  1.03250E+00  1.00348E+00  2.90193E-02
    9012.716     17.596   2.560  1.04443E+00  1.00507E+00  3.93676E-02
    9013.503     18.383   2.600  1.04623E+00  1.00640E+00  3.98252E-02
    9014.301     19.181   2.640  1.03981E+00  1.00747E+00  3.23407E-02
    9015.112     19.992   2.680  1.02897E+00  1.00831E+00  2.06524E-02
    9015.935     20.815   2.720  1.01575E+00  1.00895E+00  6.79780E-03
    9016.770     21.650   2.760  1.00162E+00  1.00938E+00 -7.76472E-03
    9017.617     22.498   2.800  9.87537E-01  1.00962E+00 -2.20830E-02
    9018.477     23.357   2.840  9.73523E-01  1.00971E+00 -3.61862E-02
    9019.349     24.229   2.880  9.59367E-01  1.00962E+00 -5.02490E-02
    9020.233     25.113   2.920  9.45370E-01  1.00939E+00 -6.40179E-02
    9021.129     26.009   2.960  9.32213E-01  1.00901E+00 -7.67990E-02
    9022.037     26.917   3.000  9.21022E-01  1.00854E+00 -8.75147E-02
    9022.958     27.838   3.040  9.12300E-01  1.00797E+00 -9.56674E-02
    9023.890     28.770   3.080  9.06333E-01  1.00729E+00 -1.00957E-01
    9024.835     29.715   3.120  9.03183E-01  1.00653E+00 -1.03347E-01
    9025.792     30.672   3.160  9.02406E-01  1.00571E+00 -1.03308E-01
    9026.761     31.642   3.200  9.03431E-01  1.00483E+00 -1.01396E-01
    9027.743     32.623   3.240  9.05854E-01  1.00389E+00 -9.80393E-02
    9028.737     33.617   3.280  9.09352E-01  1.00292E+00 -9.35675E-02
    9029.742     34.622   3.320  9.13458E-01  1.00193E+00 -8.84730E-02
    9030.760     35.641   3.360  9.17815E-01  1.00091E+00 -8.30937E-02
    9031.791     36.671   3.400  9.22234E-01  9.99859E-01 -7.76245E-02
    9032.833     37.713   3.440  9.26672E-01  9.98827E-01 -7.21558E-02
    9033.888     38.768   3.480  9.31173E-01  9.97796E-01 -6.66225E-02
    9034.954     39.835   3.520  9.35873E-01  9.96768E-01 -6.08950E-02
    9036.033     40.914   3.560  9.40865E-01  9.95768E-01 -5.49027E-02
    9037.125     42.005   3.600  9.46117E-01  9.94774E-01 -4.86574E-02
    9038.228     43.108   3.640  9.51809E-01  9.93792E-01 -4.19828E-02
    9039.344     44.224   3.680  9.58237E-01  9.92866E-01 -3.46295E-02
    9040.471     45.351   3.720  9.65547E-01  9.91957E-01 -2.64104E-02
    9041.611     46.491   3.760  9.73861E-01  9.91106E-01 -1.72448E-02
    9042.763     47.643   3.800  9.83090E-01  9.90276E-01 -7.18555E-03
    9043.928     48.808   3.840  9.93073E-01  9.89508E-01  3.56553E-03
    9045.104     49.984   3.880  1.00350E+00  9.88783E-01  1.47156E-02
    9046.293     51.173   3.920  1.01403E+00  9.88101E-01  2.59245E-02
    9047.494     52.374   3.960  1.02420E+00  9.87465E-01  3.67341E-02
    9048.707     53.587   4.000  1.03349E+00  9.86895E-01  4.65953E-02
    9049.932     54.812   4.040  1.04150E+00  9.86373E-01  5.51268E-02
    9051.170     56.050   4.080  1.04805E+00  9.85920E-01  6.21344E-02
    9052.419     57.300   4.120  1.05308E+00  9.85513E-01  6.75720E-02
    9053.681     58.561   4.160  1.05665E+00  9.85174E-01  7.14761E-02
    9054.955     59.835   4.200  1.05877E+00  9.84862E-01  7.39129E-02
    9056.242     61.122   4.240  1.05957E+00  9.84637E-01  7.49312E-02
    9057.540     62.420   4.280  1.05892E+00  9.84438E-01  7.44847E-02
    9058.851     63.731   4.320  1.05688E+00  9.84307E-01  7.25748E-02
    9060.173     65.054   4.360  1.05335E+00  9.84242E-01  6.91062E-02
    9061.509     66.389   4.400  1.04821E+00  9.84201E-01  6.40126E-02
    9062.856     67.736   4.440  1.04159E+00  9.84225E-01  5.73607E-02
    9064.215     69.095   4.480  1.03368E+00  9.84292E-01  4.93926E-02
    9065.587     70.467   4.520  1.02500E+00  9.84403E-01  4.05996E-02
    9066.971     71.851   4.560  1.01633E+00  9.84577E-01  3.17544E-02
    9068.366     73.247   4.600  1.00850E+00  9.84769E-01  2.37312E-02
    9069.775     74.655   4.640  1.00221E+00  9.85000E-01  1.72069E-02
    9071.195     76.075   4.680  9.97770E-01  9.85291E-01  1.24792E-02
    9072.628     77.508   4.720  9.94979E-01  9.85598E-01  9.38166E-03
    9074.072     78.952   4.760  9.93304E-01  9.85937E-01  7.36677E-03
    9075.529     80.409   4.800  9.92022E-01  9.86290E-01  5.73194E-03
    9076.998     81.878   4.840  9.90477E-01  9.86696E-01  3.78152E-03
    9078.480     83.360   4.880  9.88063E-01  9.87090E-01  9.73373E-04
    9079.973     84.853   4.920  9.84554E-01  9.87513E-01 -2.95833E-03
    9081.479     86.359   4.960  9.80075E-01  9.87965E-01 -7.88989E-03
    9082.997     87.877   5.000  9.75139E-01  9.88422E-01 -1.32827E-02
    9084.527     89.407   5.040  9.70499E-01  9.88881E-01 -1.83815E-02
    9086.069     90.949   5.080  9.66778E-01  9.89341E-01 -2.25630E-02
    9087.624     92.504   5.120  9.64192E-01  9.89800E-01 -2.56079E-02
    9089.190     94.070   5.160  9.62470E-01  9.90259E-01 -2.77891E-02
    9090.769     95.649   5.200  9.61081E-01  9.90716E-01 -2.96347E-02
    9092.360     97.240   5.240  9.59605E-01  9.91169E-01 -3.15646E-02
    9093.963     98.844   5.280  9.57988E-01  9.91618E-01 -3.36293E-02
    9095.579    100.459   5.320  9.56465E-01  9.92036E-01 -3.55711E-02
    9097.207    102.087   5.360  9.55416E-01  9.92444E-01 -3.70284E-02
    9098.846    103.726   5.400  9.55179E-01  9.92821E-01 -3.76418E-02
    9100.498    105.378   5.440  9.56047E-01  9.93165E-01 -3.71176E-02
    9102.163    107.043   5.480  9.58181E-01  9.93520E-01 -3.53388E-02
    9103.839    108.719   5.520  9.61333E-01  9.93819E-01 -3.24857E-02
    9105.528    110.408   5.560  9.65140E-01  9.94101E-01 -2.89605E-02
    9107.228    112.108   5.600  9.69071E-01  9.94323E-01 -2.52523E-02
    9108.941    113.821   5.640  9.72675E-01  9.94531E-01 -2.18564E-02
    9110.666    115.547   5.680  9.75538E-01  9.94703E-01 -1.91650E-02
    9112.404    117.284   5.720  9.77539E-01  9.94859E-01 -1.73204E-02
    9114.153    119.033   5.760  9.78802E-01  9.94952E-01 -1.61500E-02
    9115.915    120.795   5.800  9.79721E-01  9.95003E-01 -1.52821E-02
    9117.689    122.569   5.840  9.80656E-01  9.95014E-01 -1.43579E-02
    9119.475    124.355   5.880  9.81791E-01  9.94986E-01 -1.31946E-02
    9121.273    126.154   5.920  9.83154E-01  9.94919E-01 -1.17646E-02
    9123.084    127.964   5.960  9.84796E-01  9.94834E-01 -1.00384E-02
    9124.907    129.787   6.000  9.86920E-01  9.94658E-01 -7.73839E-03
