# # comment:                                                     FEFF 9.9.1  
# # Source:
# # Structure
# # Reduced
# # space
# # abc:
# # angles:
# # sites:
# # POT  SCF 100  7.0000   0, screened core-hole, AFOLP (folp(0)= 1.150)
# # Abs   Z=29 Rmt= 1.309 Rnm= 1.446 K  shell
# # Pot 1 Z=29 Rmt= 1.300 Rnm= 1.440
# # Pot 2 Z=53 Rmt= 1.689 Rnm= 1.881
# # Pot 3 Z= 7 Rmt= 0.683 Rnm= 0.960
# # Pot 4 Z= 8 Rmt= 0.657 Rnm= 0.950
# # Gam_ch=1.729E+00 H-L exch Vi= 0.000E+00 Vr= 0.000E+00
# # Mu=-4.978E+00eV kf=1.943E+00 Vint=-1.347E+01eV Rs_int= 1.867
# FMS rfms= 9.0000
# # PATH  Rmax=-1.000,  Keep_limit= 0.00, Heap_limit 0.00  Pwcrit= 2.50%
#  S02=0.950  Temp=   0.00  Debye_temp=   0.00  Global_sig2= 0.00000
#  Energy zero shift, vr, vi    0.00000E+00   0.00000E+00
#  Curved wave amplitude ratio filter   4.000%
#     file         sig2 tot  cw amp ratio   deg  nlegs   reff  inp sig2
#     0/   0 paths used
#  xsedge+ 50, used to normalize mu           2.4437E-04
#  -----------------------------------------------------------------------
#  omega    e    k    mu    mu0     chi     @#
    8983.491     -8.788  -1.000  6.01540E-02  6.55525E-02 -5.39850E-03
    8983.790     -8.489  -0.960  6.43742E-02  7.06938E-02 -6.31966E-03
    8984.076     -8.203  -0.920  6.90175E-02  7.64375E-02 -7.42003E-03
    8984.351     -7.929  -0.880  7.41384E-02  8.28746E-02 -8.73616E-03
    8984.613     -7.666  -0.840  7.97993E-02  9.01113E-02 -1.03120E-02
    8984.863     -7.417  -0.800  8.60708E-02  9.82710E-02 -1.22001E-02
    8985.100     -7.179  -0.760  9.30327E-02  1.07495E-01 -1.44627E-02
    8985.326     -6.953  -0.720  1.00773E-01  1.17945E-01 -1.71718E-02
    8985.539     -6.740  -0.680  1.09387E-01  1.29797E-01 -2.04097E-02
    8985.740     -6.539  -0.640  1.18972E-01  1.43238E-01 -2.42656E-02
    8985.929     -6.350  -0.600  1.29623E-01  1.58453E-01 -2.88305E-02
    8986.106     -6.173  -0.560  1.41415E-01  1.75601E-01 -3.41865E-02
    8986.271     -6.008  -0.520  1.54388E-01  1.94778E-01 -4.03900E-02
    8986.423     -5.856  -0.480  1.68520E-01  2.15967E-01 -4.74472E-02
    8986.563     -5.716  -0.440  1.83694E-01  2.38981E-01 -5.52872E-02
    8986.691     -5.588  -0.400  1.99675E-01  2.63413E-01 -6.37386E-02
    8986.807     -5.472  -0.360  2.16099E-01  2.88624E-01 -7.25250E-02
    8986.911     -5.368  -0.320  2.32489E-01  3.13778E-01 -8.12887E-02
    8987.002     -5.277  -0.280  2.48308E-01  3.37952E-01 -8.96439E-02
    8987.082     -5.198  -0.240  2.63018E-01  3.60259E-01 -9.72406E-02
    8987.149     -5.131  -0.200  2.76144E-01  3.79960E-01 -1.03816E-01
    8987.203     -5.076  -0.160  2.87306E-01  3.96519E-01 -1.09213E-01
    8987.246     -5.033  -0.120  2.96230E-01  4.09596E-01 -1.13367E-01
    8987.277     -5.002  -0.080  3.02734E-01  4.19010E-01 -1.16276E-01
    8987.301     -4.978   0.000  3.08050E-01  4.26565E-01 -1.18515E-01
    8987.356     -4.923   0.120  3.19872E-01  4.43579E-01 -1.23707E-01
    8987.398     -4.881   0.160  3.29156E-01  4.56794E-01 -1.27639E-01
    8987.453     -4.826   0.200  3.41157E-01  4.73628E-01 -1.32471E-01
    8987.520     -4.759   0.240  3.55881E-01  4.93830E-01 -1.37949E-01
    8987.600     -4.679   0.280  3.73249E-01  5.16940E-01 -1.43691E-01
    8987.691     -4.588   0.320  3.93123E-01  5.42325E-01 -1.49203E-01
    8987.795     -4.484   0.360  4.15220E-01  5.69159E-01 -1.53939E-01
    8987.911     -4.369   0.400  4.39259E-01  5.96587E-01 -1.57328E-01
    8988.039     -4.240   0.440  4.64932E-01  6.23846E-01 -1.58914E-01
    8988.179     -4.100   0.480  4.91989E-01  6.50323E-01 -1.58334E-01
    8988.331     -3.948   0.520  5.20240E-01  6.75576E-01 -1.55336E-01
    8988.496     -3.783   0.560  5.49690E-01  6.99423E-01 -1.49733E-01
    8988.673     -3.607   0.600  5.80526E-01  7.21815E-01 -1.41289E-01
    8988.862     -3.418   0.640  6.12995E-01  7.42763E-01 -1.29768E-01
    8989.063     -3.216   0.680  6.47297E-01  7.62371E-01 -1.15074E-01
    8989.276     -3.003   0.720  6.83181E-01  7.80766E-01 -9.75848E-02
    8989.502     -2.777   0.760  7.19588E-01  7.98053E-01 -7.84648E-02
    8989.739     -2.540   0.800  7.54788E-01  8.14344E-01 -5.95564E-02
    8989.989     -2.290   0.840  7.87287E-01  8.29716E-01 -4.24286E-02
    8990.251     -2.028   0.880  8.17193E-01  8.44227E-01 -2.70349E-02
    8990.526     -1.753   0.920  8.46857E-01  8.57940E-01 -1.10833E-02
    8990.812     -1.467   0.960  8.79661E-01  8.70921E-01  8.74006E-03
    8991.111     -1.168   1.000  9.17519E-01  8.83142E-01  3.43769E-02
    8991.422     -0.857   1.040  9.59500E-01  8.94670E-01  6.48307E-02
    8991.745     -0.534   1.080  1.00214E+00  9.05520E-01  9.66173E-02
    8992.080     -0.199   1.120  1.04118E+00  9.15679E-01  1.25497E-01
    8992.428      0.149   1.160  1.07314E+00  9.25174E-01  1.47962E-01
    8992.787      0.508   1.200  1.09576E+00  9.33984E-01  1.61780E-01
    8993.159      0.880   1.240  1.10857E+00  9.42149E-01  1.66421E-01
    8993.543      1.264   1.280  1.11343E+00  9.49687E-01  1.63745E-01
    8993.939      1.660   1.320  1.11394E+00  9.56573E-01  1.57363E-01
    8994.348      2.069   1.360  1.11317E+00  9.62841E-01  1.50325E-01
    8994.769      2.489   1.400  1.11256E+00  9.68531E-01  1.44025E-01
    8995.201      2.922   1.440  1.11329E+00  9.73616E-01  1.39674E-01
    8995.646      3.367   1.480  1.11739E+00  9.78134E-01  1.39259E-01
    8996.104      3.824   1.520  1.12571E+00  9.82119E-01  1.43593E-01
    8996.573      4.294   1.560  1.13619E+00  9.85590E-01  1.50604E-01
    8997.055      4.775   1.600  1.14491E+00  9.88563E-01  1.56350E-01
    8997.548      5.269   1.640  1.14822E+00  9.91075E-01  1.57143E-01
    8998.054      5.775   1.680  1.14377E+00  9.93164E-01  1.50603E-01
    8998.572      6.293   1.720  1.13086E+00  9.94850E-01  1.36015E-01
    8999.103      6.824   1.760  1.11104E+00  9.96166E-01  1.14878E-01
    8999.645      7.366   1.800  1.08767E+00  9.97129E-01  9.05396E-02
    9000.200      7.921   1.840  1.06393E+00  9.97780E-01  6.61487E-02
    9000.767      8.488   1.880  1.04061E+00  9.98133E-01  4.24781E-02
    9001.346      9.067   1.920  1.01586E+00  9.98245E-01  1.76200E-02
    9001.937      9.658   1.960  9.86669E-01  9.98152E-01 -1.14832E-02
    9002.541     10.262   2.000  9.53572E-01  9.97828E-01 -4.42556E-02
    9003.157     10.878   2.040  9.21994E-01  9.97347E-01 -7.53532E-02
    9003.784     11.505   2.080  8.96985E-01  9.96724E-01 -9.97392E-02
    9004.425     12.145   2.120  8.80902E-01  9.95972E-01 -1.15070E-01
    9005.077     12.798   2.160  8.76199E-01  9.95120E-01 -1.18921E-01
    9005.741     13.462   2.200  8.82330E-01  9.94182E-01 -1.11852E-01
    9006.418     14.139   2.240  8.98563E-01  9.93189E-01 -9.46254E-02
    9007.107     14.828   2.280  9.22612E-01  9.92150E-01 -6.95374E-02
    9007.808     15.529   2.320  9.53340E-01  9.91094E-01 -3.77542E-02
    9008.521     16.242   2.360  9.85997E-01  9.90030E-01 -4.03296E-03
    9009.246     16.967   2.400  1.01246E+00  9.88967E-01  2.34947E-02
    9009.984     17.705   2.440  1.03445E+00  9.87931E-01  4.65165E-02
    9010.734     18.455   2.480  1.05393E+00  9.86928E-01  6.70068E-02
    9011.496     19.217   2.520  1.07199E+00  9.85964E-01  8.60296E-02
    9012.270     19.991   2.560  1.08780E+00  9.85045E-01  1.02758E-01
    9013.056     20.777   2.600  1.09911E+00  9.84217E-01  1.14890E-01
    9013.855     21.576   2.640  1.10452E+00  9.83442E-01  1.21082E-01
    9014.666     22.387   2.680  1.10415E+00  9.82744E-01  1.21404E-01
    9015.489     23.210   2.720  1.09930E+00  9.82125E-01  1.17176E-01
    9016.324     24.045   2.760  1.09086E+00  9.81588E-01  1.09271E-01
    9017.171     24.892   2.800  1.07888E+00  9.81157E-01  9.77199E-02
    9018.031     25.752   2.840  1.06330E+00  9.80814E-01  8.24838E-02
    9018.902     26.623   2.880  1.04433E+00  9.80579E-01  6.37487E-02
    9019.786     27.507   2.920  1.02274E+00  9.80431E-01  4.23131E-02
    9020.683     28.403   2.960  1.00069E+00  9.80372E-01  2.03207E-02
    9021.591     29.312   3.000  9.80081E-01  9.80424E-01 -3.42929E-04
    9022.511     30.232   3.040  9.61837E-01  9.80585E-01 -1.87480E-02
    9023.444     31.165   3.080  9.46020E-01  9.80835E-01 -3.48153E-02
    9024.389     32.110   3.120  9.32226E-01  9.81173E-01 -4.89471E-02
    9025.346     33.067   3.160  9.20253E-01  9.81618E-01 -6.13650E-02
    9026.315     34.036   3.200  9.10272E-01  9.82147E-01 -7.18753E-02
    9027.297     35.018   3.240  9.02687E-01  9.82763E-01 -8.00757E-02
    9028.290     36.011   3.280  8.97982E-01  9.83482E-01 -8.54999E-02
    9029.296     37.017   3.320  8.96390E-01  9.84259E-01 -8.78689E-02
    9030.314     38.035   3.360  8.97909E-01  9.85134E-01 -8.72256E-02
    9031.344     39.065   3.400  9.02216E-01  9.86065E-01 -8.38487E-02
    9032.387     40.108   3.440  9.08973E-01  9.87047E-01 -7.80743E-02
    9033.441     41.162   3.480  9.17636E-01  9.88119E-01 -7.04830E-02
    9034.508     42.229   3.520  9.27590E-01  9.89218E-01 -6.16284E-02
    9035.587     43.308   3.560  9.38367E-01  9.90382E-01 -5.20151E-02
    9036.678     44.399   3.600  9.49497E-01  9.91588E-01 -4.20912E-02
    9037.782     45.503   3.640  9.60642E-01  9.92832E-01 -3.21901E-02
    9038.897     46.618   3.680  9.71600E-01  9.94112E-01 -2.25117E-02
    9040.025     47.746   3.720  9.82234E-01  9.95401E-01 -1.31677E-02
    9041.165     48.886   3.760  9.92515E-01  9.96718E-01 -4.20296E-03
    9042.317     50.038   3.800  1.00237E+00  9.98040E-01  4.32971E-03
    9043.481     51.202   3.840  1.01174E+00  9.99361E-01  1.23812E-02
    9044.658     52.379   3.880  1.02060E+00  1.00068E+00  1.99208E-02
    9045.847     53.568   3.920  1.02887E+00  1.00199E+00  2.68762E-02
    9047.048     54.769   3.960  1.03636E+00  1.00328E+00  3.30830E-02
    9048.261     55.982   4.000  1.04289E+00  1.00455E+00  3.83379E-02
    9049.486     57.207   4.040  1.04828E+00  1.00581E+00  4.24754E-02
    9050.723     58.444   4.080  1.05236E+00  1.00701E+00  4.53491E-02
    9051.973     59.694   4.120  1.05502E+00  1.00818E+00  4.68414E-02
    9053.235     60.956   4.160  1.05617E+00  1.00929E+00  4.68766E-02
    9054.509     62.230   4.200  1.05580E+00  1.01036E+00  4.54466E-02
    9055.795     63.516   4.240  1.05403E+00  1.01137E+00  4.26520E-02
    9057.094     64.815   4.280  1.05102E+00  1.01232E+00  3.86983E-02
    9058.404     66.125   4.320  1.04702E+00  1.01321E+00  3.38121E-02
    9059.727     67.448   4.360  1.04220E+00  1.01405E+00  2.81541E-02
    9061.062     68.783   4.400  1.03660E+00  1.01479E+00  2.18163E-02
    9062.409     70.130   4.440  1.03037E+00  1.01547E+00  1.48993E-02
    9063.769     71.490   4.480  1.02367E+00  1.01607E+00  7.60457E-03
    9065.140     72.861   4.520  1.01686E+00  1.01659E+00  2.71992E-04
    9066.524     74.245   4.560  1.01032E+00  1.01703E+00 -6.71060E-03
    9067.920     75.641   4.600  1.00443E+00  1.01741E+00 -1.29808E-02
    9069.328     77.049   4.640  9.99407E-01  1.01769E+00 -1.82825E-02
    9070.749     78.470   4.680  9.95395E-01  1.01788E+00 -2.24887E-02
    9072.181     79.902   4.720  9.92423E-01  1.01802E+00 -2.55938E-02
    9073.626     81.347   4.760  9.90371E-01  1.01805E+00 -2.76788E-02
    9075.083     82.804   4.800  9.89132E-01  1.01802E+00 -2.88910E-02
    9076.552     84.273   4.840  9.88546E-01  1.01792E+00 -2.93716E-02
    9078.033     85.754   4.880  9.88500E-01  1.01774E+00 -2.92354E-02
    9079.527     87.248   4.920  9.88929E-01  1.01750E+00 -2.85705E-02
    9081.033     88.754   4.960  9.89730E-01  1.01719E+00 -2.74561E-02
    9082.551     90.271   5.000  9.90853E-01  1.01680E+00 -2.59431E-02
    9084.081     91.802   5.040  9.92336E-01  1.01636E+00 -2.40208E-02
    9085.623     93.344   5.080  9.94244E-01  1.01585E+00 -2.16026E-02
    9087.177     94.898   5.120  9.96718E-01  1.01531E+00 -1.85949E-02
    9088.744     96.465   5.160  9.99777E-01  1.01471E+00 -1.49350E-02
    9090.323     98.044   5.200  1.00341E+00  1.01407E+00 -1.06534E-02
    9091.914     99.635   5.240  1.00747E+00  1.01338E+00 -5.90932E-03
    9093.517    101.238   5.280  1.01165E+00  1.01265E+00 -1.00130E-03
    9095.133    102.854   5.320  1.01557E+00  1.01189E+00  3.68448E-03
    9096.760    104.481   5.360  1.01891E+00  1.01111E+00  7.79105E-03
    9098.400    106.121   5.400  1.02141E+00  1.01033E+00  1.10818E-02
    9100.052    107.773   5.440  1.02300E+00  1.00952E+00  1.34817E-02
    9101.716    109.437   5.480  1.02371E+00  1.00867E+00  1.50329E-02
    9103.393    111.114   5.520  1.02372E+00  1.00785E+00  1.58659E-02
    9105.081    112.802   5.560  1.02323E+00  1.00700E+00  1.62243E-02
    9106.782    114.503   5.600  1.02260E+00  1.00618E+00  1.64212E-02
    9108.495    116.216   5.640  1.02204E+00  1.00533E+00  1.67144E-02
    9110.220    117.941   5.680  1.02168E+00  1.00451E+00  1.71760E-02
    9111.958    119.678   5.720  1.02135E+00  1.00370E+00  1.76555E-02
    9113.707    121.428   5.760  1.02076E+00  1.00289E+00  1.78661E-02
    9115.469    123.190   5.800  1.01963E+00  1.00212E+00  1.75134E-02
    9117.243    124.964   5.840  1.01776E+00  1.00138E+00  1.63743E-02
    9119.029    126.750   5.880  1.01501E+00  1.00066E+00  1.43509E-02
    9120.827    128.548   5.920  1.01149E+00  9.99963E-01  1.15252E-02
    9122.638    130.359   5.960  1.00756E+00  9.99349E-01  8.20892E-03
    9124.460    132.181   6.000  1.00357E+00  9.98771E-01  4.79969E-03
