# # comment:                                                     FEFF 9.9.1  
# # Source:
# # Structure
# # Reduced
# # space
# # abc:
# # angles:107.586138
# # sites:
# # POT  SCF 100  7.0000   0, screened core-hole, AFOLP (folp(0)= 1.150)
# # Abs   Z=29 Rmt= 1.115 Rnm= 1.255 K  shell
# # Pot 1 Z=56 Rmt= 1.930 Rnm= 1.994
# # Pot 2 Z=38 Rmt= 1.814 Rnm= 1.882
# # Pot 3 Z=29 Rmt= 1.114 Rnm= 1.254
# # Pot 4 Z= 8 Rmt= 1.088 Rnm= 1.145
# # Gam_ch=1.729E+00 H-L exch Vi= 0.000E+00 Vr= 0.000E+00
# # Mu=-9.548E+00eV kf=1.987E+00 Vint=-1.649E+01eV Rs_int= 1.825
# FMS rfms= 9.0000
# # PATH  Rmax=-1.000,  Keep_limit= 0.00, Heap_limit 0.00  Pwcrit= 2.50%
#  S02=0.950  Temp=   0.00  Debye_temp=   0.00  Global_sig2= 0.00000
#  Energy zero shift, vr, vi    0.00000E+00   0.00000E+00
#  Curved wave amplitude ratio filter   4.000%
#     file         sig2 tot  cw amp ratio   deg  nlegs   reff  inp sig2
#     0/   0 paths used
#  xsedge+ 50, used to normalize mu           2.4557E-04
#  -----------------------------------------------------------------------
#  omega    e    k    mu    mu0     chi     @#
    8984.702    -13.358  -1.000  2.89538E-02  5.18865E-02 -2.29327E-02
    8985.001    -13.060  -0.960  3.01363E-02  5.55013E-02 -2.53650E-02
    8985.287    -12.773  -0.920  3.13908E-02  5.95015E-02 -2.81108E-02
    8985.561    -12.499  -0.880  3.27252E-02  6.39423E-02 -3.12171E-02
    8985.824    -12.237  -0.840  3.41488E-02  6.88875E-02 -3.47386E-02
    8986.073    -11.987  -0.800  3.56727E-02  7.44108E-02 -3.87381E-02
    8986.311    -11.749  -0.760  3.73095E-02  8.05970E-02 -4.32875E-02
    8986.537    -11.523  -0.720  3.90733E-02  8.75410E-02 -4.84677E-02
    8986.750    -11.310  -0.680  4.09801E-02  9.53474E-02 -5.43672E-02
    8986.951    -11.109  -0.640  4.30463E-02  1.04126E-01 -6.10797E-02
    8987.140    -10.920  -0.600  4.52878E-02  1.13984E-01 -6.86965E-02
    8987.317    -10.743  -0.560  4.77167E-02  1.25013E-01 -7.72964E-02
    8987.482    -10.578  -0.520  5.03378E-02  1.37266E-01 -8.69277E-02
    8987.634    -10.426  -0.480  5.31419E-02  1.50726E-01 -9.75844E-02
    8987.774    -10.286  -0.440  5.60997E-02  1.65278E-01 -1.09178E-01
    8987.902    -10.158  -0.400  5.91569E-02  1.80672E-01 -1.21515E-01
    8988.018    -10.042  -0.360  6.22335E-02  1.96520E-01 -1.34287E-01
    8988.122     -9.938  -0.320  6.52314E-02  2.12316E-01 -1.47084E-01
    8988.213     -9.847  -0.280  6.80488E-02  2.27497E-01 -1.59448E-01
    8988.292     -9.768  -0.240  7.05964E-02  2.41520E-01 -1.70924E-01
    8988.359     -9.701  -0.200  7.28074E-02  2.53927E-01 -1.81120E-01
    8988.414     -9.646  -0.160  7.46381E-02  2.64378E-01 -1.89740E-01
    8988.457     -9.603  -0.120  7.60585E-02  2.72650E-01 -1.96592E-01
    8988.487     -9.573  -0.080  7.70512E-02  2.78617E-01 -2.01566E-01
    8988.512     -9.548   0.000  7.77927E-02  2.83416E-01 -2.05623E-01
    8988.567     -9.493   0.120  8.01955E-02  2.94249E-01 -2.14054E-01
    8988.609     -9.451   0.160  8.19637E-02  3.02696E-01 -2.20732E-01
    8988.664     -9.396   0.200  8.41780E-02  3.13506E-01 -2.29328E-01
    8988.731     -9.329   0.240  8.67774E-02  3.26559E-01 -2.39781E-01
    8988.811     -9.250   0.280  8.97324E-02  3.41630E-01 -2.51898E-01
    8988.902     -9.158   0.320  9.29345E-02  3.58366E-01 -2.65431E-01
    8989.006     -9.054   0.360  9.63922E-02  3.76364E-01 -2.79971E-01
    8989.121     -8.939   0.400  1.00058E-01  3.95152E-01 -2.95094E-01
    8989.249     -8.811   0.440  1.03959E-01  4.14339E-01 -3.10380E-01
    8989.390     -8.670   0.480  1.08012E-01  4.33541E-01 -3.25530E-01
    8989.542     -8.518   0.520  1.12138E-01  4.52597E-01 -3.40459E-01
    8989.707     -8.353   0.560  1.16140E-01  4.71392E-01 -3.55252E-01
    8989.883     -8.177   0.600  1.19844E-01  4.89896E-01 -3.70052E-01
    8990.072     -7.988   0.640  1.23097E-01  5.08133E-01 -3.85037E-01
    8990.274     -7.786   0.680  1.26047E-01  5.26178E-01 -4.00131E-01
    8990.487     -7.573   0.720  1.29053E-01  5.44071E-01 -4.15017E-01
    8990.713     -7.348   0.760  1.32823E-01  5.61913E-01 -4.29090E-01
    8990.950     -7.110   0.800  1.38085E-01  5.79734E-01 -4.41649E-01
    8991.200     -6.860   0.840  1.45470E-01  5.97554E-01 -4.52084E-01
    8991.462     -6.598   0.880  1.55487E-01  6.15440E-01 -4.59953E-01
    8991.737     -6.323   0.920  1.68197E-01  6.33345E-01 -4.65148E-01
    8992.023     -6.037   0.960  1.83284E-01  6.51315E-01 -4.68031E-01
    8992.322     -5.738   1.000  2.00026E-01  6.69324E-01 -4.69298E-01
    8992.633     -5.427   1.040  2.17785E-01  6.87337E-01 -4.69552E-01
    8992.956     -5.104   1.080  2.36535E-01  7.05314E-01 -4.68779E-01
    8993.291     -4.769   1.120  2.56996E-01  7.23248E-01 -4.66252E-01
    8993.639     -4.422   1.160  2.79791E-01  7.41070E-01 -4.61279E-01
    8993.998     -4.062   1.200  3.04408E-01  7.58765E-01 -4.54357E-01
    8994.370     -3.690   1.240  3.30294E-01  7.76254E-01 -4.45960E-01
    8994.754     -3.306   1.280  3.58993E-01  7.93501E-01 -4.34507E-01
    8995.150     -2.910   1.320  3.92787E-01  8.10442E-01 -4.17655E-01
    8995.559     -2.501   1.360  4.31540E-01  8.27060E-01 -3.95520E-01
    8995.979     -2.081   1.400  4.70478E-01  8.43271E-01 -3.72793E-01
    8996.412     -1.648   1.440  5.03246E-01  8.59035E-01 -3.55789E-01
    8996.857     -1.203   1.480  5.28474E-01  8.74333E-01 -3.45860E-01
    8997.314     -0.746   1.520  5.52873E-01  8.89086E-01 -3.36213E-01
    8997.784     -0.276   1.560  5.84564E-01  9.03300E-01 -3.18735E-01
    8998.265      0.205   1.600  6.21823E-01  9.16896E-01 -2.95073E-01
    8998.759      0.699   1.640  6.66573E-01  9.29883E-01 -2.63310E-01
    8999.265      1.205   1.680  7.27683E-01  9.42209E-01 -2.14526E-01
    8999.783      1.723   1.720  8.04295E-01  9.53886E-01 -1.49591E-01
    9000.314      2.254   1.760  8.79034E-01  9.64868E-01 -8.58332E-02
    9000.856      2.796   1.800  9.45474E-01  9.75148E-01 -2.96740E-02
    9001.411      3.351   1.840  1.02733E+00  9.84748E-01  4.25843E-02
    9001.978      3.918   1.880  1.14546E+00  9.93646E-01  1.51811E-01
    9002.557      4.497   1.920  1.27876E+00  1.00184E+00  2.76915E-01
    9003.148      5.088   1.960  1.36128E+00  1.00937E+00  3.51915E-01
    9003.752      5.692   2.000  1.35788E+00  1.01620E+00  3.41685E-01
    9004.367      6.307   2.040  1.29558E+00  1.02237E+00  2.73208E-01
    9004.995      6.935   2.080  1.22443E+00  1.02788E+00  1.96547E-01
    9005.635      7.575   2.120  1.17756E+00  1.03277E+00  1.44791E-01
    9006.288      8.228   2.160  1.16398E+00  1.03705E+00  1.26932E-01
    9006.952      8.892   2.200  1.17964E+00  1.04075E+00  1.38890E-01
    9007.629      9.569   2.240  1.21507E+00  1.04390E+00  1.71171E-01
    9008.318     10.258   2.280  1.26123E+00  1.04650E+00  2.14732E-01
    9009.019     10.959   2.320  1.30957E+00  1.04862E+00  2.60943E-01
    9009.732     11.672   2.360  1.35163E+00  1.05026E+00  3.01372E-01
    9010.457     12.397   2.400  1.37744E+00  1.05144E+00  3.26001E-01
    9011.195     13.135   2.440  1.38017E+00  1.05219E+00  3.27982E-01
    9011.945     13.885   2.480  1.36525E+00  1.05258E+00  3.12674E-01
    9012.707     14.647   2.520  1.33401E+00  1.05258E+00  2.81435E-01
    9013.481     15.421   2.560  1.29092E+00  1.05227E+00  2.38652E-01
    9014.267     16.207   2.600  1.24378E+00  1.05162E+00  1.92156E-01
    9015.066     17.006   2.640  1.19902E+00  1.05073E+00  1.48287E-01
    9015.877     17.817   2.680  1.16018E+00  1.04957E+00  1.10615E-01
    9016.700     18.640   2.720  1.12877E+00  1.04816E+00  8.06003E-02
    9017.535     19.475   2.760  1.10419E+00  1.04658E+00  5.76078E-02
    9018.382     20.322   2.800  1.08524E+00  1.04480E+00  4.04407E-02
    9019.242     21.182   2.840  1.07105E+00  1.04285E+00  2.81971E-02
    9020.113     22.053   2.880  1.06098E+00  1.04078E+00  2.01957E-02
    9020.997     22.937   2.920  1.05379E+00  1.03858E+00  1.52095E-02
    9021.893     23.833   2.960  1.04762E+00  1.03630E+00  1.13205E-02
    9022.802     24.742   3.000  1.04036E+00  1.03393E+00  6.42489E-03
    9023.722     25.662   3.040  1.03012E+00  1.03151E+00 -1.38873E-03
    9024.655     26.595   3.080  1.01624E+00  1.02903E+00 -1.27936E-02
    9025.600     27.540   3.120  9.99232E-01  1.02653E+00 -2.72953E-02
    9026.557     28.497   3.160  9.80087E-01  1.02399E+00 -4.39076E-02
    9027.526     29.466   3.200  9.59804E-01  1.02146E+00 -6.16542E-02
    9028.508     30.447   3.240  9.39454E-01  1.01895E+00 -7.94945E-02
    9029.501     31.441   3.280  9.19825E-01  1.01644E+00 -9.66134E-02
    9030.507     32.447   3.320  9.01637E-01  1.01395E+00 -1.12308E-01
    9031.525     33.465   3.360  8.85648E-01  1.01152E+00 -1.25873E-01
    9032.555     34.495   3.400  8.72216E-01  1.00914E+00 -1.36921E-01
    9033.598     35.538   3.440  8.61505E-01  1.00683E+00 -1.45320E-01
    9034.652     36.592   3.480  8.53636E-01  1.00456E+00 -1.50922E-01
    9035.719     37.659   3.520  8.48906E-01  1.00236E+00 -1.53456E-01
    9036.798     38.738   3.560  8.47274E-01  1.00023E+00 -1.52952E-01
    9037.889     39.829   3.600  8.48779E-01  9.98194E-01 -1.49416E-01
    9038.993     40.933   3.640  8.53442E-01  9.96245E-01 -1.42803E-01
    9040.108     42.048   3.680  8.61210E-01  9.94405E-01 -1.33194E-01
    9041.236     43.176   3.720  8.71585E-01  9.92630E-01 -1.21045E-01
    9042.376     44.316   3.760  8.83885E-01  9.90963E-01 -1.07078E-01
    9043.528     45.468   3.800  8.97100E-01  9.89410E-01 -9.23097E-02
    9044.692     46.632   3.840  9.10115E-01  9.87947E-01 -7.78314E-02
    9045.869     47.809   3.880  9.22268E-01  9.86597E-01 -6.43290E-02
    9047.058     48.998   3.920  9.33496E-01  9.85338E-01 -5.18419E-02
    9048.259     50.198   3.960  9.44145E-01  9.84194E-01 -4.00487E-02
    9049.472     51.412   4.000  9.54565E-01  9.83165E-01 -2.85994E-02
    9050.697     52.637   4.040  9.64925E-01  9.82229E-01 -1.73031E-02
    9051.934     53.874   4.080  9.75085E-01  9.81407E-01 -6.32146E-03
    9053.184     55.124   4.120  9.84590E-01  9.80700E-01  3.88978E-03
    9054.446     56.386   4.160  9.92916E-01  9.80087E-01  1.28293E-02
    9055.720     57.660   4.200  9.99765E-01  9.79587E-01  2.01787E-02
    9057.006     58.946   4.240  1.00511E+00  9.79200E-01  2.59060E-02
    9058.305     60.245   4.280  1.00930E+00  9.78903E-01  3.03994E-02
    9059.615     61.555   4.320  1.01293E+00  9.78694E-01  3.42323E-02
    9060.938     62.878   4.360  1.01645E+00  9.78594E-01  3.78572E-02
    9062.273     64.213   4.400  1.02000E+00  9.78582E-01  4.14164E-02
    9063.620     65.560   4.440  1.02351E+00  9.78678E-01  4.48323E-02
    9064.980     66.920   4.480  1.02685E+00  9.78837E-01  4.80166E-02
    9066.351     68.291   4.520  1.03008E+00  9.79099E-01  5.09803E-02
    9067.735     69.675   4.560  1.03339E+00  9.79443E-01  5.39444E-02
    9069.131     71.071   4.600  1.03697E+00  9.79867E-01  5.70999E-02
    9070.539     72.479   4.640  1.04091E+00  9.80345E-01  6.05609E-02
    9071.960     73.900   4.680  1.04525E+00  9.80898E-01  6.43531E-02
    9073.392     75.332   4.720  1.04988E+00  9.81526E-01  6.83504E-02
    9074.837     76.777   4.760  1.05439E+00  9.82228E-01  7.21600E-02
    9076.294     78.234   4.800  1.05814E+00  9.82977E-01  7.51681E-02
    9077.763     79.703   4.840  1.06038E+00  9.83769E-01  7.66098E-02
    9079.244     81.184   4.880  1.06042E+00  9.84603E-01  7.58213E-02
    9080.738     82.678   4.920  1.05804E+00  9.85477E-01  7.25617E-02
    9082.244     84.183   4.960  1.05354E+00  9.86391E-01  6.71481E-02
    9083.761     85.701   5.000  1.04763E+00  9.87342E-01  6.02842E-02
    9085.292     87.231   5.040  1.04107E+00  9.88326E-01  5.27413E-02
    9086.834     88.774   5.080  1.03440E+00  9.89322E-01  4.50820E-02
    9088.388     90.328   5.120  1.02802E+00  9.90347E-01  3.76698E-02
    9089.955     91.895   5.160  1.02203E+00  9.91376E-01  3.06520E-02
    9091.534     93.474   5.200  1.01637E+00  9.92405E-01  2.39673E-02
    9093.125     95.065   5.240  1.01085E+00  9.93433E-01  1.74186E-02
    9094.728     96.668   5.280  1.00525E+00  9.94435E-01  1.08132E-02
    9096.344     98.283   5.320  9.99586E-01  9.95455E-01  4.13070E-03
    9097.971     99.911   5.360  9.93988E-01  9.96447E-01 -2.45942E-03
    9099.611    101.551   5.400  9.88802E-01  9.97430E-01 -8.62873E-03
    9101.263    103.203   5.440  9.84353E-01  9.98380E-01 -1.40270E-02
    9102.927    104.867   5.480  9.80821E-01  9.99315E-01 -1.84948E-02
    9104.604    106.544   5.520  9.77958E-01  1.00019E+00 -2.22335E-02
    9106.292    108.232   5.560  9.75295E-01  1.00105E+00 -2.57542E-02
    9107.993    109.933   5.600  9.72261E-01  1.00187E+00 -2.96050E-02
    9109.706    111.646   5.640  9.68500E-01  1.00262E+00 -3.41175E-02
    9111.431    113.371   5.680  9.64040E-01  1.00335E+00 -3.93061E-02
    9113.168    115.108   5.720  9.59232E-01  1.00401E+00 -4.47738E-02
    9114.918    116.858   5.760  9.54588E-01  1.00459E+00 -5.00046E-02
    9116.680    118.620   5.800  9.50583E-01  1.00515E+00 -5.45704E-02
    9118.454    120.394   5.840  9.47564E-01  1.00562E+00 -5.80532E-02
    9120.240    122.180   5.880  9.46123E-01  1.00603E+00 -5.99033E-02
    9122.038    123.978   5.920  9.46869E-01  1.00638E+00 -5.95129E-02
    9123.849    125.789   5.960  9.50087E-01  1.00664E+00 -5.65565E-02
    9125.671    127.611   6.000  9.55704E-01  1.00678E+00 -5.10776E-02
