# # comment:                                                     FEFF 9.9.1  
# # Source:
# # Structure
# # Reduced
# # space
# # abc:
# # angles:108.127772
# # sites:
# # POT  SCF 100  7.0000   0, screened core-hole, AFOLP (folp(0)= 1.150)
# # Abs   Z=29 Rmt= 1.270 Rnm= 1.340 K  shell
# # Pot 1 Z=19 Rmt= 1.897 Rnm= 1.944
# # Pot 2 Z=29 Rmt= 1.281 Rnm= 1.351
# # Pot 3 Z=15 Rmt= 0.937 Rnm= 1.154
# # Pot 4 Z= 8 Rmt= 0.888 Rnm= 1.044
# # Gam_ch=1.729E+00 H-L exch Vi= 0.000E+00 Vr= 0.000E+00
# # Mu=-6.419E+00eV kf=2.437E+00 Vint=-1.681E+01eV Rs_int= 1.488
# FMS rfms= 9.0000
# # PATH  Rmax=-1.000,  Keep_limit= 0.00, Heap_limit 0.00  Pwcrit= 2.50%
#  S02=0.950  Temp=   0.00  Debye_temp=   0.00  Global_sig2= 0.00000
#  Energy zero shift, vr, vi    0.00000E+00   0.00000E+00
#  Curved wave amplitude ratio filter   4.000%
#     file         sig2 tot  cw amp ratio   deg  nlegs   reff  inp sig2
#     0/   0 paths used
#  xsedge+ 50, used to normalize mu           2.4787E-04
#  -----------------------------------------------------------------------
#  omega    e    k    mu    mu0     chi     @#
    8983.377    -10.229  -1.000  4.17441E-02  5.26952E-02 -1.09511E-02
    8983.675     -9.931  -0.960  4.41449E-02  5.65306E-02 -1.23857E-02
    8983.962     -9.644  -0.920  4.67473E-02  6.07956E-02 -1.40483E-02
    8984.236     -9.370  -0.880  4.95736E-02  6.55539E-02 -1.59802E-02
    8984.498     -9.108  -0.840  5.26491E-02  7.08796E-02 -1.82305E-02
    8984.748     -8.858  -0.800  5.60017E-02  7.68589E-02 -2.08572E-02
    8984.986     -8.620  -0.760  5.96620E-02  8.35907E-02 -2.39287E-02
    8985.212     -8.394  -0.720  6.36627E-02  9.11867E-02 -2.75240E-02
    8985.425     -8.181  -0.680  6.80382E-02  9.97702E-02 -3.17320E-02
    8985.626     -7.980  -0.640  7.28223E-02  1.09472E-01 -3.66492E-02
    8985.815     -7.791  -0.600  7.80456E-02  1.20419E-01 -4.23731E-02
    8985.992     -7.614  -0.560  8.37307E-02  1.32721E-01 -4.89905E-02
    8986.156     -7.450  -0.520  8.98857E-02  1.46444E-01 -5.65587E-02
    8986.309     -7.297  -0.480  9.64956E-02  1.61575E-01 -6.50792E-02
    8986.449     -7.157  -0.440  1.03512E-01  1.77979E-01 -7.44671E-02
    8986.577     -7.029  -0.400  1.10844E-01  1.95370E-01 -8.45259E-02
    8986.693     -6.913  -0.360  1.18355E-01  2.13297E-01 -9.49413E-02
    8986.797     -6.809  -0.320  1.25865E-01  2.31172E-01 -1.05307E-01
    8986.888     -6.718  -0.280  1.33160E-01  2.48345E-01 -1.15185E-01
    8986.967     -6.639  -0.240  1.40019E-01  2.64192E-01 -1.24172E-01
    8987.034     -6.572  -0.200  1.46225E-01  2.78189E-01 -1.31964E-01
    8987.089     -6.517  -0.160  1.51584E-01  2.89958E-01 -1.38374E-01
    8987.132     -6.474  -0.120  1.55935E-01  2.99257E-01 -1.43322E-01
    8987.162     -6.444  -0.080  1.59153E-01  3.05953E-01 -1.46800E-01
    8987.187     -6.419   0.000  1.61836E-01  3.11330E-01 -1.49495E-01
    8987.242     -6.364   0.120  1.67873E-01  3.23465E-01 -1.55591E-01
    8987.284     -6.322   0.160  1.72642E-01  3.32877E-01 -1.60235E-01
    8987.339     -6.267   0.200  1.78909E-01  3.44883E-01 -1.65974E-01
    8987.406     -6.200   0.240  1.86811E-01  3.59309E-01 -1.72497E-01
    8987.485     -6.121   0.280  1.96425E-01  3.75830E-01 -1.79405E-01
    8987.577     -6.029   0.320  2.07941E-01  3.94051E-01 -1.86110E-01
    8987.680     -5.926   0.360  2.21364E-01  4.13369E-01 -1.92005E-01
    8987.796     -5.810   0.400  2.36794E-01  4.33246E-01 -1.96452E-01
    8987.924     -5.682   0.440  2.54225E-01  4.53138E-01 -1.98913E-01
    8988.064     -5.541   0.480  2.73647E-01  4.72621E-01 -1.98975E-01
    8988.217     -5.389   0.520  2.95068E-01  4.91459E-01 -1.96390E-01
    8988.381     -5.224   0.560  3.18267E-01  5.09490E-01 -1.91223E-01
    8988.558     -5.048   0.600  3.42573E-01  5.26709E-01 -1.84136E-01
    8988.747     -4.859   0.640  3.66347E-01  5.43175E-01 -1.76829E-01
    8988.948     -4.658   0.680  3.87078E-01  5.58987E-01 -1.71908E-01
    8989.162     -4.444   0.720  4.02355E-01  5.74215E-01 -1.71861E-01
    8989.387     -4.219   0.760  4.11455E-01  5.88974E-01 -1.77519E-01
    8989.625     -3.981   0.800  4.15983E-01  6.03365E-01 -1.87382E-01
    8989.875     -3.731   0.840  4.18948E-01  6.17458E-01 -1.98509E-01
    8990.137     -3.469   0.880  4.23140E-01  6.31308E-01 -2.08169E-01
    8990.411     -3.195   0.920  4.30106E-01  6.44960E-01 -2.14854E-01
    8990.698     -2.908   0.960  4.40886E-01  6.58464E-01 -2.17578E-01
    8990.997     -2.609   1.000  4.56692E-01  6.71843E-01 -2.15150E-01
    8991.308     -2.298   1.040  4.78202E-01  6.85105E-01 -2.06903E-01
    8991.631     -1.975   1.080  5.04056E-01  6.98275E-01 -1.94218E-01
    8991.966     -1.640   1.120  5.31510E-01  7.11330E-01 -1.79820E-01
    8992.313     -1.293   1.160  5.59217E-01  7.24262E-01 -1.65045E-01
    8992.673     -0.933   1.200  5.87878E-01  7.37098E-01 -1.49221E-01
    8993.045     -0.561   1.240  6.18403E-01  7.49783E-01 -1.31380E-01
    8993.429     -0.177   1.280  6.50175E-01  7.62336E-01 -1.12161E-01
    8993.825      0.219   1.320  6.80972E-01  7.74716E-01 -9.37446E-02
    8994.234      0.628   1.360  7.09128E-01  7.86921E-01 -7.77934E-02
    8994.654      1.048   1.400  7.34353E-01  7.98925E-01 -6.45720E-02
    8995.087      1.481   1.440  7.60590E-01  8.10681E-01 -5.00913E-02
    8995.532      1.926   1.480  7.99129E-01  8.22205E-01 -2.30760E-02
    8995.989      2.383   1.520  8.60911E-01  8.33470E-01  2.74417E-02
    8996.459      2.853   1.560  9.39504E-01  8.44447E-01  9.50572E-02
    8996.940      3.334   1.600  1.01797E+00  8.55111E-01  1.62862E-01
    8997.434      3.828   1.640  1.09370E+00  8.65477E-01  2.28219E-01
    8997.940      4.334   1.680  1.16331E+00  8.75496E-01  2.87812E-01
    8998.458      4.852   1.720  1.21223E+00  8.85142E-01  3.27085E-01
    8998.988      5.383   1.760  1.23722E+00  8.94452E-01  3.42764E-01
    8999.531      5.925   1.800  1.24125E+00  9.03361E-01  3.37884E-01
    9000.086      6.480   1.840  1.21712E+00  9.11905E-01  3.05216E-01
    9000.653      7.047   1.880  1.16499E+00  9.20063E-01  2.44931E-01
    9001.232      7.626   1.920  1.10696E+00  9.27812E-01  1.79143E-01
    9001.823      8.217   1.960  1.07102E+00  9.35150E-01  1.35874E-01
    9002.427      8.821   2.000  1.06857E+00  9.42098E-01  1.26469E-01
    9003.042      9.436   2.040  1.08926E+00  9.48636E-01  1.40620E-01
    9003.670     10.064   2.080  1.11205E+00  9.54786E-01  1.57265E-01
    9004.310     10.704   2.120  1.12460E+00  9.60529E-01  1.64069E-01
    9004.963     11.357   2.160  1.12936E+00  9.65868E-01  1.63487E-01
    9005.627     12.021   2.200  1.13260E+00  9.70827E-01  1.61778E-01
    9006.304     12.698   2.240  1.13541E+00  9.75410E-01  1.59997E-01
    9006.992     13.387   2.280  1.13160E+00  9.79622E-01  1.51973E-01
    9007.694     14.088   2.320  1.11886E+00  9.83470E-01  1.35387E-01
    9008.407     14.801   2.360  1.10415E+00  9.86976E-01  1.17176E-01
    9009.132     15.526   2.400  1.09323E+00  9.90128E-01  1.03102E-01
    9009.870     16.264   2.440  1.08718E+00  9.92973E-01  9.42104E-02
    9010.620     17.014   2.480  1.08615E+00  9.95476E-01  9.06763E-02
    9011.382     17.776   2.520  1.08893E+00  9.97707E-01  9.12233E-02
    9012.156     18.550   2.560  1.08884E+00  9.99650E-01  8.91932E-02
    9012.942     19.336   2.600  1.07842E+00  1.00131E+00  7.71053E-02
    9013.741     20.135   2.640  1.05822E+00  1.00271E+00  5.55126E-02
    9014.551     20.946   2.680  1.03479E+00  1.00387E+00  3.09113E-02
    9015.374     21.768   2.720  1.01448E+00  1.00483E+00  9.65556E-03
    9016.210     22.604   2.760  9.99974E-01  1.00555E+00 -5.57382E-03
    9017.057     23.451   2.800  9.88295E-01  1.00607E+00 -1.77732E-02
    9017.916     24.311   2.840  9.74605E-01  1.00641E+00 -3.18091E-02
    9018.788     25.182   2.880  9.57503E-01  1.00659E+00 -4.90894E-02
    9019.672     26.066   2.920  9.39014E-01  1.00661E+00 -6.75972E-02
    9020.568     26.962   2.960  9.21085E-01  1.00648E+00 -8.53909E-02
    9021.477     27.871   3.000  9.04885E-01  1.00624E+00 -1.01351E-01
    9022.397     28.791   3.040  8.91104E-01  1.00588E+00 -1.14773E-01
    9023.330     29.724   3.080  8.80054E-01  1.00540E+00 -1.25348E-01
    9024.275     30.669   3.120  8.71952E-01  1.00484E+00 -1.32888E-01
    9025.232     31.626   3.160  8.66855E-01  1.00419E+00 -1.37339E-01
    9026.201     32.595   3.200  8.64527E-01  1.00347E+00 -1.38946E-01
    9027.182     33.576   3.240  8.64623E-01  1.00270E+00 -1.38079E-01
    9028.176     34.570   3.280  8.66947E-01  1.00189E+00 -1.34939E-01
    9029.182     35.576   3.320  8.70982E-01  1.00103E+00 -1.30046E-01
    9030.200     36.594   3.360  8.76688E-01  1.00013E+00 -1.23446E-01
    9031.230     37.624   3.400  8.84239E-01  9.99229E-01 -1.14989E-01
    9032.272     38.667   3.440  8.93700E-01  9.98316E-01 -1.04615E-01
    9033.327     39.721   3.480  9.04997E-01  9.97377E-01 -9.23799E-02
    9034.394     40.788   3.520  9.17971E-01  9.96438E-01 -7.84670E-02
    9035.473     41.867   3.560  9.32267E-01  9.95522E-01 -6.32549E-02
    9036.564     42.958   3.600  9.47154E-01  9.94613E-01 -4.74590E-02
    9037.667     44.061   3.640  9.62118E-01  9.93733E-01 -3.16153E-02
    9038.783     45.177   3.680  9.76609E-01  9.92862E-01 -1.62539E-02
    9039.911     46.305   3.720  9.90115E-01  9.92025E-01 -1.90944E-03
    9041.051     47.445   3.760  1.00220E+00  9.91223E-01  1.09757E-02
    9042.203     48.597   3.800  1.01258E+00  9.90437E-01  2.21446E-02
    9043.367     49.761   3.840  1.02118E+00  9.89712E-01  3.14659E-02
    9044.544     50.938   3.880  1.02807E+00  9.89027E-01  3.90445E-02
    9045.732     52.126   3.920  1.03354E+00  9.88385E-01  4.51583E-02
    9046.933     53.327   3.960  1.03790E+00  9.87783E-01  5.01135E-02
    9048.146     54.540   4.000  1.04142E+00  9.87225E-01  5.41902E-02
    9049.372     55.766   4.040  1.04444E+00  9.86735E-01  5.77015E-02
    9050.609     57.003   4.080  1.04711E+00  9.86289E-01  6.08245E-02
    9051.859     58.253   4.120  1.04942E+00  9.85887E-01  6.35303E-02
    9053.121     59.515   4.160  1.05116E+00  9.85553E-01  6.56086E-02
    9054.395     60.789   4.200  1.05195E+00  9.85265E-01  6.66838E-02
    9055.681     62.075   4.240  1.05136E+00  9.85022E-01  6.63428E-02
    9056.979     63.374   4.280  1.04916E+00  9.84845E-01  6.43154E-02
    9058.290     64.684   4.320  1.04539E+00  9.84713E-01  6.06757E-02
    9059.613     66.007   4.360  1.04042E+00  9.84624E-01  5.57939E-02
    9060.948     67.342   4.400  1.03488E+00  9.84579E-01  5.03002E-02
    9062.295     68.689   4.440  1.02955E+00  9.84599E-01  4.49480E-02
    9063.655     70.049   4.480  1.02501E+00  9.84660E-01  4.03449E-02
    9065.026     71.420   4.520  1.02150E+00  9.84740E-01  3.67640E-02
    9066.410     72.804   4.560  1.01899E+00  9.84882E-01  3.41078E-02
    9067.806     74.200   4.600  1.01705E+00  9.85065E-01  3.19895E-02
    9069.214     75.608   4.640  1.01518E+00  9.85288E-01  2.98926E-02
    9070.634     77.028   4.680  1.01289E+00  9.85546E-01  2.73416E-02
    9072.067     78.461   4.720  1.00982E+00  9.85818E-01  2.40046E-02
    9073.512     79.906   4.760  1.00588E+00  9.86124E-01  1.97595E-02
    9074.969     81.363   4.800  1.00126E+00  9.86465E-01  1.47920E-02
    9076.438     82.832   4.840  9.96330E-01  9.86837E-01  9.49257E-03
    9077.919     84.313   4.880  9.91455E-01  9.87218E-01  4.23707E-03
    9079.413     85.807   4.920  9.86804E-01  9.87606E-01 -8.02395E-04
    9080.918     87.312   4.960  9.82281E-01  9.88021E-01 -5.73969E-03
    9082.436     88.830   5.000  9.77593E-01  9.88439E-01 -1.08461E-02
    9083.966     90.360   5.040  9.72489E-01  9.88860E-01 -1.63714E-02
    9085.509     91.903   5.080  9.66954E-01  9.89284E-01 -2.23302E-02
    9087.063     93.457   5.120  9.61348E-01  9.89729E-01 -2.83809E-02
    9088.630     95.024   5.160  9.56216E-01  9.90150E-01 -3.39344E-02
    9090.209     96.603   5.200  9.52180E-01  9.90568E-01 -3.83879E-02
    9091.800     98.194   5.240  9.49584E-01  9.90980E-01 -4.13967E-02
    9093.403     99.797   5.280  9.48461E-01  9.91366E-01 -4.29055E-02
    9095.018    101.412   5.320  9.48698E-01  9.91768E-01 -4.30698E-02
    9096.646    103.040   5.360  9.49969E-01  9.92139E-01 -4.21705E-02
    9098.286    104.680   5.400  9.51901E-01  9.92478E-01 -4.05772E-02
    9099.938    106.332   5.440  9.54159E-01  9.92805E-01 -3.86458E-02
    9101.602    107.996   5.480  9.56544E-01  9.93098E-01 -3.65541E-02
    9103.278    109.672   5.520  9.59116E-01  9.93356E-01 -3.42399E-02
    9104.967    111.361   5.560  9.62068E-01  9.93601E-01 -3.15329E-02
    9106.668    113.062   5.600  9.65386E-01  9.93809E-01 -2.84223E-02
    9108.381    114.775   5.640  9.68820E-01  9.93979E-01 -2.51591E-02
    9110.106    116.500   5.680  9.71940E-01  9.94110E-01 -2.21706E-02
    9111.843    118.237   5.720  9.74358E-01  9.94204E-01 -1.98462E-02
    9113.593    119.987   5.760  9.75912E-01  9.94282E-01 -1.83700E-02
    9115.355    121.749   5.800  9.76593E-01  9.94298E-01 -1.77043E-02
    9117.128    123.522   5.840  9.76649E-01  9.94274E-01 -1.76247E-02
    9118.915    125.309   5.880  9.76517E-01  9.94234E-01 -1.77169E-02
    9120.713    127.107   5.920  9.76635E-01  9.94133E-01 -1.74976E-02
    9122.523    128.917   5.960  9.77574E-01  9.94013E-01 -1.64394E-02
    9124.346    130.740   6.000  9.79856E-01  9.93803E-01 -1.39467E-02
