# # comment:                                                     FEFF 9.9.1  
# # Source:
# # Structure
# # Reduced
# # space
# # abc:
# # angles:
# # sites:
# # POT  SCF 100  7.0000   0, screened core-hole, AFOLP (folp(0)= 1.150)
# # Abs   Z=29 Rmt= 1.285 Rnm= 1.349 K  shell
# # Pot 1 Z=38 Rmt= 1.831 Rnm= 1.896
# # Pot 2 Z=29 Rmt= 1.273 Rnm= 1.344
# # Pot 3 Z=15 Rmt= 0.939 Rnm= 1.154
# # Pot 4 Z= 8 Rmt= 0.941 Rnm= 1.046
# # Gam_ch=1.729E+00 H-L exch Vi= 0.000E+00 Vr= 0.000E+00
# # Mu=-6.742E+00eV kf=2.386E+00 Vint=-1.803E+01eV Rs_int= 1.520
# FMS rfms= 9.0000
# # PATH  Rmax=-1.000,  Keep_limit= 0.00, Heap_limit 0.00  Pwcrit= 2.50%
#  S02=0.950  Temp=   0.00  Debye_temp=   0.00  Global_sig2= 0.00000
#  Energy zero shift, vr, vi    0.00000E+00   0.00000E+00
#  Curved wave amplitude ratio filter   4.000%
#     file         sig2 tot  cw amp ratio   deg  nlegs   reff  inp sig2
#     0/   0 paths used
#  xsedge+ 50, used to normalize mu           2.4883E-04
#  -----------------------------------------------------------------------
#  omega    e    k    mu    mu0     chi     @#
    8983.698    -10.552  -1.000  4.53256E-02  5.39430E-02 -8.61740E-03
    8983.996    -10.253  -0.960  4.80529E-02  5.79024E-02 -9.84948E-03
    8984.283     -9.966  -0.920  5.10227E-02  6.23081E-02 -1.12854E-02
    8984.557     -9.692  -0.880  5.42647E-02  6.72268E-02 -1.29621E-02
    8984.819     -9.430  -0.840  5.78126E-02  7.27359E-02 -1.49233E-02
    8985.069     -9.180  -0.800  6.17050E-02  7.89254E-02 -1.72204E-02
    8985.307     -8.942  -0.760  6.59849E-02  8.58987E-02 -1.99137E-02
    8985.533     -8.717  -0.720  7.07002E-02  9.37726E-02 -2.30724E-02
    8985.746     -8.503  -0.680  7.59022E-02  1.02676E-01 -2.67739E-02
    8985.947     -8.302  -0.640  8.16437E-02  1.12746E-01 -3.11020E-02
    8986.136     -8.113  -0.600  8.79746E-02  1.24115E-01 -3.61408E-02
    8986.313     -7.936  -0.560  9.49345E-02  1.36900E-01 -4.19655E-02
    8986.478     -7.772  -0.520  1.02542E-01  1.51169E-01 -4.86264E-02
    8986.630     -7.619  -0.480  1.10780E-01  1.66907E-01 -5.61274E-02
    8986.770     -7.479  -0.440  1.19576E-01  1.83977E-01 -6.44006E-02
    8986.898     -7.351  -0.400  1.28793E-01  2.02078E-01 -7.32850E-02
    8987.014     -7.235  -0.360  1.38219E-01  2.20740E-01 -8.25204E-02
    8987.118     -7.132  -0.320  1.47584E-01  2.39349E-01 -9.17656E-02
    8987.209     -7.040  -0.280  1.56582E-01  2.57227E-01 -1.00644E-01
    8987.288     -6.961  -0.240  1.64918E-01  2.73721E-01 -1.08802E-01
    8987.355     -6.894  -0.200  1.72333E-01  2.88287E-01 -1.15954E-01
    8987.410     -6.839  -0.160  1.78623E-01  3.00532E-01 -1.21909E-01
    8987.453     -6.796  -0.120  1.83642E-01  3.10204E-01 -1.26562E-01
    8987.483     -6.766  -0.080  1.87292E-01  3.17167E-01 -1.29875E-01
    8987.508     -6.742   0.000  1.90258E-01  3.22759E-01 -1.32501E-01
    8987.563     -6.687   0.120  1.96919E-01  3.35371E-01 -1.38452E-01
    8987.605     -6.644   0.160  2.02142E-01  3.45138E-01 -1.42996E-01
    8987.660     -6.589   0.200  2.08928E-01  3.57625E-01 -1.48697E-01
    8987.727     -6.522   0.240  2.17270E-01  3.72587E-01 -1.55318E-01
    8987.806     -6.443   0.280  2.27172E-01  3.89724E-01 -1.62552E-01
    8987.898     -6.351   0.320  2.38635E-01  4.08592E-01 -1.69957E-01
    8988.002     -6.248   0.360  2.51594E-01  4.28575E-01 -1.76980E-01
    8988.117     -6.132   0.400  2.66081E-01  4.49085E-01 -1.83004E-01
    8988.245     -6.004   0.440  2.82128E-01  4.69550E-01 -1.87422E-01
    8988.386     -5.864   0.480  2.99873E-01  4.89562E-01 -1.89689E-01
    8988.538     -5.711   0.520  3.19367E-01  5.08788E-01 -1.89421E-01
    8988.703     -5.547   0.560  3.40616E-01  5.27147E-01 -1.86531E-01
    8988.879     -5.370   0.600  3.63098E-01  5.44611E-01 -1.81512E-01
    8989.068     -5.181   0.640  3.85637E-01  5.61222E-01 -1.75585E-01
    8989.270     -4.980   0.680  4.06727E-01  5.77106E-01 -1.70378E-01
    8989.483     -4.766   0.720  4.25218E-01  5.92322E-01 -1.67103E-01
    8989.708     -4.541   0.760  4.40999E-01  6.07030E-01 -1.66031E-01
    8989.946     -4.303   0.800  4.54474E-01  6.21280E-01 -1.66805E-01
    8990.196     -4.053   0.840  4.66396E-01  6.35207E-01 -1.68811E-01
    8990.458     -3.791   0.880  4.78116E-01  6.48837E-01 -1.70721E-01
    8990.733     -3.517   0.920  4.91786E-01  6.62256E-01 -1.70470E-01
    8991.019     -3.230   0.960  5.09074E-01  6.75502E-01 -1.66429E-01
    8991.318     -2.932   1.000  5.30426E-01  6.88600E-01 -1.58174E-01
    8991.629     -2.621   1.040  5.55777E-01  7.01564E-01 -1.45788E-01
    8991.952     -2.298   1.080  5.85302E-01  7.14403E-01 -1.29102E-01
    8992.287     -1.962   1.120  6.18460E-01  7.27138E-01 -1.08678E-01
    8992.634     -1.615   1.160  6.52368E-01  7.39760E-01 -8.73920E-02
    8992.994     -1.255   1.200  6.83500E-01  7.52283E-01 -6.87825E-02
    8993.366     -0.883   1.240  7.13053E-01  7.64652E-01 -5.15991E-02
    8993.750     -0.499   1.280  7.48293E-01  7.76910E-01 -2.86163E-02
    8994.146     -0.103   1.320  7.95180E-01  7.88995E-01  6.18547E-03
    8994.555      0.305   1.360  8.52096E-01  8.00907E-01  5.11897E-02
    8994.975      0.726   1.400  9.11553E-01  8.12643E-01  9.89101E-02
    8995.408      1.159   1.440  9.67460E-01  8.24158E-01  1.43302E-01
    8995.853      1.604   1.480  1.01456E+00  8.35447E-01  1.79110E-01
    8996.310      2.061   1.520  1.04735E+00  8.46503E-01  2.00850E-01
    8996.780      2.530   1.560  1.07255E+00  8.57279E-01  2.15273E-01
    8997.261      3.012   1.600  1.09944E+00  8.67770E-01  2.31666E-01
    8997.755      3.506   1.640  1.11571E+00  8.77948E-01  2.37761E-01
    8998.261      4.012   1.680  1.11036E+00  8.87828E-01  2.22527E-01
    8998.779      4.530   1.720  1.09855E+00  8.97343E-01  2.01207E-01
    8999.310      5.060   1.760  1.09712E+00  9.06529E-01  1.90589E-01
    8999.852      5.603   1.800  1.10935E+00  9.15360E-01  1.93988E-01
    9000.407      6.158   1.840  1.13387E+00  9.23792E-01  2.10076E-01
    9000.974      6.724   1.880  1.16423E+00  9.31863E-01  2.32364E-01
    9001.553      7.304   1.920  1.18864E+00  9.39547E-01  2.49094E-01
    9002.144      7.895   1.960  1.20154E+00  9.46824E-01  2.54712E-01
    9002.748      8.498   2.000  1.20293E+00  9.53712E-01  2.49213E-01
    9003.363      9.114   2.040  1.19613E+00  9.60171E-01  2.35961E-01
    9003.991      9.742   2.080  1.18733E+00  9.66261E-01  2.21069E-01
    9004.631     10.382   2.120  1.18407E+00  9.71924E-01  2.12144E-01
    9005.284     11.034   2.160  1.18880E+00  9.77201E-01  2.11594E-01
    9005.948     11.699   2.200  1.19503E+00  9.82096E-01  2.12938E-01
    9006.625     12.375   2.240  1.19306E+00  9.86590E-01  2.06467E-01
    9007.314     13.064   2.280  1.17752E+00  9.90688E-01  1.86827E-01
    9008.015     13.765   2.320  1.14954E+00  9.94436E-01  1.55100E-01
    9008.728     14.479   2.360  1.11455E+00  9.97816E-01  1.16736E-01
    9009.453     15.204   2.400  1.07958E+00  1.00084E+00  7.87418E-02
    9010.191     15.942   2.440  1.04814E+00  1.00352E+00  4.46220E-02
    9010.941     16.691   2.480  1.01947E+00  1.00588E+00  1.35929E-02
    9011.703     17.453   2.520  9.93468E-01  1.00791E+00 -1.44422E-02
    9012.477     18.228   2.560  9.71924E-01  1.00963E+00 -3.77040E-02
    9013.263     19.014   2.600  9.55612E-01  1.01108E+00 -5.54675E-02
    9014.062     19.813   2.640  9.42971E-01  1.01225E+00 -6.92802E-02
    9014.873     20.623   2.680  9.31988E-01  1.01317E+00 -8.11808E-02
    9015.696     21.446   2.720  9.22967E-01  1.01382E+00 -9.08540E-02
    9016.531     22.281   2.760  9.17324E-01  1.01426E+00 -9.69325E-02
    9017.378     23.129   2.800  9.13617E-01  1.01448E+00 -1.00867E-01
    9018.238     23.988   2.840  9.05508E-01  1.01451E+00 -1.09000E-01
    9019.109     24.860   2.880  8.93644E-01  1.01436E+00 -1.20714E-01
    9019.993     25.744   2.920  8.80769E-01  1.01402E+00 -1.33251E-01
    9020.889     26.640   2.960  8.69296E-01  1.01352E+00 -1.44225E-01
    9021.798     27.548   3.000  8.61021E-01  1.01289E+00 -1.51868E-01
    9022.718     28.469   3.040  8.56771E-01  1.01213E+00 -1.55362E-01
    9023.651     29.401   3.080  8.56484E-01  1.01128E+00 -1.54795E-01
    9024.596     30.346   3.120  8.59848E-01  1.01029E+00 -1.50444E-01
    9025.553     31.303   3.160  8.66755E-01  1.00924E+00 -1.42485E-01
    9026.522     32.273   3.200  8.76625E-01  1.00811E+00 -1.31483E-01
    9027.503     33.254   3.240  8.89118E-01  1.00690E+00 -1.17782E-01
    9028.497     34.248   3.280  9.03697E-01  1.00565E+00 -1.01948E-01
    9029.503     35.254   3.320  9.19434E-01  1.00435E+00 -8.49132E-02
    9030.521     36.272   3.360  9.35405E-01  1.00301E+00 -6.76065E-02
    9031.551     37.302   3.400  9.51096E-01  1.00166E+00 -5.05692E-02
    9032.594     38.344   3.440  9.66124E-01  1.00029E+00 -3.41659E-02
    9033.648     39.399   3.480  9.80339E-01  9.98931E-01 -1.85918E-02
    9034.715     40.466   3.520  9.93657E-01  9.97551E-01 -3.89396E-03
    9035.794     41.545   3.560  1.00598E+00  9.96196E-01  9.78429E-03
    9036.885     42.636   3.600  1.01709E+00  9.94850E-01  2.22399E-02
    9037.989     43.739   3.640  1.02679E+00  9.93535E-01  3.32557E-02
    9039.104     44.855   3.680  1.03486E+00  9.92253E-01  4.26057E-02
    9040.232     45.983   3.720  1.04105E+00  9.90988E-01  5.00664E-02
    9041.372     47.122   3.760  1.04549E+00  9.89785E-01  5.57052E-02
    9042.524     48.275   3.800  1.04853E+00  9.88624E-01  5.99095E-02
    9043.688     49.439   3.840  1.05068E+00  9.87507E-01  6.31780E-02
    9044.865     50.615   3.880  1.05249E+00  9.86456E-01  6.60358E-02
    9046.054     51.804   3.920  1.05426E+00  9.85451E-01  6.88067E-02
    9047.254     53.005   3.960  1.05604E+00  9.84495E-01  7.15412E-02
    9048.468     54.218   4.000  1.05764E+00  9.83609E-01  7.40320E-02
    9049.693     55.443   4.040  1.05877E+00  9.82797E-01  7.59764E-02
    9050.930     56.681   4.080  1.05899E+00  9.82036E-01  7.69555E-02
    9052.180     57.931   4.120  1.05784E+00  9.81348E-01  7.64935E-02
    9053.442     59.193   4.160  1.05491E+00  9.80735E-01  7.41747E-02
    9054.716     60.467   4.200  1.04994E+00  9.80197E-01  6.97389E-02
    9056.002     61.753   4.240  1.04283E+00  9.79711E-01  6.31163E-02
    9057.301     63.051   4.280  1.03384E+00  9.79299E-01  5.45391E-02
    9058.611     64.362   4.320  1.02353E+00  9.78960E-01  4.45687E-02
    9059.934     65.685   4.360  1.01257E+00  9.78674E-01  3.38959E-02
    9061.269     67.020   4.400  1.00167E+00  9.78460E-01  2.32078E-02
    9062.616     68.367   4.440  9.91379E-01  9.78319E-01  1.30594E-02
    9063.976     69.726   4.480  9.82078E-01  9.78228E-01  3.84942E-03
    9065.347     71.098   4.520  9.74088E-01  9.78208E-01 -4.12043E-03
    9066.731     72.482   4.560  9.67628E-01  9.78237E-01 -1.06091E-02
    9068.127     73.878   4.600  9.62831E-01  9.78335E-01 -1.55039E-02
    9069.535     75.286   4.640  9.59615E-01  9.78480E-01 -1.88645E-02
    9070.956     76.706   4.680  9.57778E-01  9.78691E-01 -2.09122E-02
    9072.388     78.139   4.720  9.56901E-01  9.78923E-01 -2.20225E-02
    9073.833     79.584   4.760  9.56613E-01  9.79219E-01 -2.26066E-02
    9075.290     81.040   4.800  9.56561E-01  9.79558E-01 -2.29966E-02
    9076.759     82.510   4.840  9.56533E-01  9.79935E-01 -2.34023E-02
    9078.240     83.991   4.880  9.56480E-01  9.80348E-01 -2.38679E-02
    9079.734     85.484   4.920  9.56506E-01  9.80775E-01 -2.42689E-02
    9081.239     86.990   4.960  9.56872E-01  9.81235E-01 -2.43630E-02
    9082.757     88.508   5.000  9.57846E-01  9.81729E-01 -2.38827E-02
    9084.287     90.038   5.040  9.59539E-01  9.82254E-01 -2.27153E-02
    9085.830     91.580   5.080  9.61757E-01  9.82766E-01 -2.10091E-02
    9087.384     93.135   5.120  9.64203E-01  9.83325E-01 -1.91211E-02
    9088.951     94.702   5.160  9.66424E-01  9.83865E-01 -1.74410E-02
    9090.530     96.280   5.200  9.68248E-01  9.84406E-01 -1.61586E-02
    9092.121     97.871   5.240  9.69648E-01  9.84969E-01 -1.53208E-02
    9093.724     99.475   5.280  9.70525E-01  9.85507E-01 -1.49818E-02
    9095.339    101.090   5.320  9.70768E-01  9.86040E-01 -1.52726E-02
    9096.967    102.718   5.360  9.70283E-01  9.86569E-01 -1.62863E-02
    9098.607    104.358   5.400  9.69153E-01  9.87069E-01 -1.79156E-02
    9100.259    106.010   5.440  9.67721E-01  9.87559E-01 -1.98378E-02
    9101.923    107.674   5.480  9.66392E-01  9.88041E-01 -2.16497E-02
    9103.600    109.350   5.520  9.65460E-01  9.88490E-01 -2.30300E-02
    9105.288    111.039   5.560  9.65108E-01  9.88901E-01 -2.37926E-02
    9106.989    112.740   5.600  9.65420E-01  9.89273E-01 -2.38528E-02
    9108.702    114.453   5.640  9.66406E-01  9.89608E-01 -2.32020E-02
    9110.427    116.178   5.680  9.68064E-01  9.89927E-01 -2.18632E-02
    9112.164    117.915   5.720  9.70340E-01  9.90185E-01 -1.98444E-02
    9113.914    119.665   5.760  9.73307E-01  9.90423E-01 -1.71159E-02
    9115.676    121.426   5.800  9.76911E-01  9.90597E-01 -1.36861E-02
    9117.450    123.200   5.840  9.80993E-01  9.90727E-01 -9.73473E-03
    9119.236    124.986   5.880  9.85242E-01  9.90816E-01 -5.57449E-03
    9121.034    126.785   5.920  9.89405E-01  9.90862E-01 -1.45712E-03
    9122.844    128.595   5.960  9.93331E-01  9.90858E-01  2.47282E-03
    9124.667    130.418   6.000  9.97202E-01  9.90753E-01  6.44837E-03
