# # comment:                                                     FEFF 9.9.1  
# # Source:
# # Structure
# # Reduced
# # space
# # abc:
# # angles:
# # sites:
# # POT  SCF 100  7.0000   0, screened core-hole, AFOLP (folp(0)= 1.150)
# # Abs   Z=29 Rmt= 1.208 Rnm= 1.306 K  shell
# # Pot 1 Z= 3 Rmt= 1.318 Rnm= 1.373
# # Pot 2 Z=29 Rmt= 1.190 Rnm= 1.292
# # Pot 3 Z= 8 Rmt= 1.033 Rnm= 1.107
# # Gam_ch=1.729E+00 H-L exch Vi= 0.000E+00 Vr= 0.000E+00
# # Mu=-7.363E+00eV kf=2.129E+00 Vint=-1.574E+01eV Rs_int= 1.703
# FMS rfms= 9.0000
# # PATH  Rmax=-1.000,  Keep_limit= 0.00, Heap_limit 0.00  Pwcrit= 2.50%
#  S02=0.950  Temp=   0.00  Debye_temp=   0.00  Global_sig2= 0.00000
#  Energy zero shift, vr, vi    0.00000E+00   0.00000E+00
#  Curved wave amplitude ratio filter   4.000%
#     file         sig2 tot  cw amp ratio   deg  nlegs   reff  inp sig2
#     0/   0 paths used
#  xsedge+ 50, used to normalize mu           2.4374E-04
#  -----------------------------------------------------------------------
#  omega    e    k    mu    mu0     chi     @#
    8983.959    -11.173  -1.000  3.98483E-02  5.82883E-02 -1.84400E-02
    8984.258    -10.874  -0.960  4.19195E-02  6.26097E-02 -2.06902E-02
    8984.544    -10.588  -0.920  4.41384E-02  6.74165E-02 -2.32781E-02
    8984.819    -10.314  -0.880  4.65192E-02  7.27802E-02 -2.62610E-02
    8985.081    -10.051  -0.840  4.90776E-02  7.87843E-02 -2.97067E-02
    8985.331     -9.801  -0.800  5.18312E-02  8.55252E-02 -3.36939E-02
    8985.568     -9.564  -0.760  5.47996E-02  9.31137E-02 -3.83141E-02
    8985.794     -9.338  -0.720  5.80042E-02  1.01675E-01 -4.36710E-02
    8986.007     -9.125  -0.680  6.14676E-02  1.11347E-01 -4.98797E-02
    8986.208     -8.924  -0.640  6.52127E-02  1.22276E-01 -5.70629E-02
    8986.397     -8.735  -0.600  6.92599E-02  1.34603E-01 -6.53431E-02
    8986.574     -8.558  -0.560  7.36231E-02  1.48452E-01 -7.48285E-02
    8986.739     -8.393  -0.520  7.83027E-02  1.63894E-01 -8.55911E-02
    8986.891     -8.241  -0.480  8.32767E-02  1.80914E-01 -9.76372E-02
    8987.031     -8.101  -0.440  8.84906E-02  1.99362E-01 -1.10872E-01
    8987.159     -7.973  -0.400  9.38490E-02  2.18918E-01 -1.25069E-01
    8987.275     -7.857  -0.360  9.92163E-02  2.39076E-01 -1.39859E-01
    8987.379     -7.753  -0.320  1.04428E-01  2.59179E-01 -1.54751E-01
    8987.470     -7.662  -0.280  1.09313E-01  2.78499E-01 -1.69186E-01
    8987.550     -7.583  -0.240  1.13721E-01  2.96335E-01 -1.82614E-01
    8987.617     -7.515  -0.200  1.17539E-01  3.12098E-01 -1.94559E-01
    8987.671     -7.461  -0.160  1.20698E-01  3.25359E-01 -2.04662E-01
    8987.714     -7.418  -0.120  1.23162E-01  3.35843E-01 -2.12680E-01
    8987.745     -7.387  -0.080  1.24921E-01  3.43396E-01 -2.18475E-01
    8987.769     -7.363   0.000  1.26321E-01  3.49464E-01 -2.23143E-01
    8987.824     -7.308   0.120  1.29562E-01  3.63133E-01 -2.33571E-01
    8987.867     -7.266   0.160  1.32000E-01  3.73763E-01 -2.41763E-01
    8987.921     -7.211   0.200  1.35112E-01  3.87362E-01 -2.52250E-01
    8987.988     -7.144   0.240  1.38753E-01  4.03685E-01 -2.64932E-01
    8988.068     -7.064   0.280  1.42911E-01  4.22449E-01 -2.79538E-01
    8988.159     -6.973   0.320  1.47521E-01  4.43161E-01 -2.95641E-01
    8988.263     -6.869   0.360  1.52581E-01  4.65231E-01 -3.12650E-01
    8988.379     -6.753   0.400  1.58169E-01  4.87988E-01 -3.29819E-01
    8988.507     -6.625   0.440  1.64577E-01  5.10879E-01 -3.46302E-01
    8988.647     -6.485   0.480  1.72197E-01  5.33418E-01 -3.61221E-01
    8988.799     -6.333   0.520  1.81678E-01  5.55339E-01 -3.73661E-01
    8988.964     -6.168   0.560  1.93794E-01  5.76449E-01 -3.82655E-01
    8989.141     -5.991   0.600  2.09630E-01  5.96750E-01 -3.87120E-01
    8989.330     -5.802   0.640  2.30565E-01  6.16281E-01 -3.85715E-01
    8989.531     -5.601   0.680  2.58539E-01  6.35079E-01 -3.76539E-01
    8989.744     -5.388   0.720  2.96240E-01  6.53277E-01 -3.57038E-01
    8989.970     -5.162   0.760  3.46992E-01  6.70947E-01 -3.23955E-01
    8990.207     -4.925   0.800  4.13851E-01  6.88168E-01 -2.74317E-01
    8990.457     -4.675   0.840  4.96098E-01  7.05006E-01 -2.08908E-01
    8990.719     -4.413   0.880  5.82296E-01  7.21472E-01 -1.39175E-01
    8990.994     -4.138   0.920  6.47391E-01  7.37643E-01 -9.02513E-02
    8991.280     -3.852   0.960  6.70269E-01  7.53500E-01 -8.32310E-02
    8991.579     -3.553   1.000  6.57651E-01  7.69077E-01 -1.11426E-01
    8991.890     -3.242   1.040  6.32002E-01  7.84334E-01 -1.52332E-01
    8992.213     -2.919   1.080  6.06169E-01  7.99268E-01 -1.93099E-01
    8992.548     -2.584   1.120  5.82668E-01  8.13885E-01 -2.31216E-01
    8992.896     -2.236   1.160  5.60212E-01  8.28148E-01 -2.67936E-01
    8993.255     -1.877   1.200  5.37172E-01  8.42019E-01 -3.04847E-01
    8993.627     -1.505   1.240  5.16162E-01  8.55474E-01 -3.39312E-01
    8994.011     -1.121   1.280  5.03064E-01  8.68508E-01 -3.65445E-01
    8994.408     -0.725   1.320  5.03440E-01  8.81097E-01 -3.77657E-01
    8994.816     -0.316   1.360  5.20848E-01  8.93172E-01 -3.72324E-01
    8995.237      0.105   1.400  5.55900E-01  9.04751E-01 -3.48850E-01
    8995.669      0.537   1.440  6.07818E-01  9.15805E-01 -3.07986E-01
    8996.114      0.982   1.480  6.70357E-01  9.26310E-01 -2.55954E-01
    8996.572      1.440   1.520  7.31561E-01  9.36264E-01 -2.04703E-01
    8997.041      1.909   1.560  7.90356E-01  9.45645E-01 -1.55289E-01
    8997.523      2.391   1.600  8.51705E-01  9.54472E-01 -1.02767E-01
    8998.016      2.884   1.640  9.09640E-01  9.62704E-01 -5.30636E-02
    8998.522      3.390   1.680  9.63324E-01  9.70343E-01 -7.01881E-03
    8999.040      3.908   1.720  1.03070E+00  9.77435E-01  5.32664E-02
    8999.571      4.439   1.760  1.12343E+00  9.83943E-01  1.39487E-01
    9000.113      4.981   1.800  1.23824E+00  9.89892E-01  2.48344E-01
    9000.668      5.536   1.840  1.36430E+00  9.95314E-01  3.68982E-01
    9001.235      6.103   1.880  1.48321E+00  1.00020E+00  4.83013E-01
    9001.814      6.682   1.920  1.57431E+00  1.00456E+00  5.69746E-01
    9002.405      7.273   1.960  1.62893E+00  1.00845E+00  6.20475E-01
    9003.009      7.877   2.000  1.64090E+00  1.01185E+00  6.29052E-01
    9003.625      8.493   2.040  1.59417E+00  1.01479E+00  5.79383E-01
    9004.253      9.120   2.080  1.49095E+00  1.01730E+00  4.73648E-01
    9004.893      9.761   2.120  1.35679E+00  1.01943E+00  3.37370E-01
    9005.545     10.413   2.160  1.22074E+00  1.02117E+00  1.99575E-01
    9006.209     11.077   2.200  1.11131E+00  1.02254E+00  8.87712E-02
    9006.886     11.754   2.240  1.04610E+00  1.02358E+00  2.25211E-02
    9007.575     12.443   2.280  1.02257E+00  1.02431E+00 -1.73963E-03
    9008.276     13.144   2.320  1.02579E+00  1.02476E+00  1.03567E-03
    9008.989     13.857   2.360  1.03780E+00  1.02495E+00  1.28481E-02
    9009.715     14.582   2.400  1.04755E+00  1.02489E+00  2.26544E-02
    9010.452     15.320   2.440  1.05663E+00  1.02462E+00  3.20082E-02
    9011.202     16.070   2.480  1.07267E+00  1.02417E+00  4.84985E-02
    9011.964     16.832   2.520  1.10199E+00  1.02356E+00  7.84375E-02
    9012.738     17.606   2.560  1.13086E+00  1.02278E+00  1.08086E-01
    9013.524     18.392   2.600  1.14119E+00  1.02187E+00  1.19319E-01
    9014.323     19.191   2.640  1.13595E+00  1.02084E+00  1.15111E-01
    9015.134     20.002   2.680  1.12068E+00  1.01972E+00  1.00963E-01
    9015.957     20.825   2.720  1.09903E+00  1.01851E+00  8.05166E-02
    9016.792     21.660   2.760  1.07318E+00  1.01726E+00  5.59288E-02
    9017.639     22.507   2.800  1.04492E+00  1.01593E+00  2.89912E-02
    9018.499     23.367   2.840  1.01603E+00  1.01459E+00  1.44174E-03
    9019.371     24.238   2.880  9.87792E-01  1.01323E+00 -2.54421E-02
    9020.254     25.122   2.920  9.60506E-01  1.01185E+00 -5.13455E-02
    9021.151     26.019   2.960  9.34627E-01  1.01047E+00 -7.58406E-02
    9022.059     26.927   3.000  9.10844E-01  1.00911E+00 -9.82653E-02
    9022.979     27.847   3.040  8.90038E-01  1.00776E+00 -1.17721E-01
    9023.912     28.780   3.080  8.73199E-01  1.00644E+00 -1.33246E-01
    9024.857     29.725   3.120  8.60800E-01  1.00517E+00 -1.44369E-01
    9025.814     30.682   3.160  8.52331E-01  1.00393E+00 -1.51603E-01
    9026.783     31.651   3.200  8.47150E-01  1.00276E+00 -1.55615E-01
    9027.765     32.633   3.240  8.44783E-01  1.00164E+00 -1.56861E-01
    9028.758     33.626   3.280  8.44716E-01  1.00057E+00 -1.55856E-01
    9029.764     34.632   3.320  8.46569E-01  9.99572E-01 -1.53003E-01
    9030.782     35.650   3.360  8.50029E-01  9.98647E-01 -1.48617E-01
    9031.812     36.680   3.400  8.54826E-01  9.97778E-01 -1.42952E-01
    9032.855     37.723   3.440  8.60694E-01  9.97008E-01 -1.36314E-01
    9033.909     38.777   3.480  8.67738E-01  9.96297E-01 -1.28559E-01
    9034.976     39.844   3.520  8.76507E-01  9.95688E-01 -1.19181E-01
    9036.055     40.923   3.560  8.87600E-01  9.95137E-01 -1.07537E-01
    9037.146     42.014   3.600  9.01661E-01  9.94688E-01 -9.30266E-02
    9038.250     43.118   3.640  9.18783E-01  9.94298E-01 -7.55146E-02
    9039.365     44.233   3.680  9.38443E-01  9.93988E-01 -5.55452E-02
    9040.493     45.361   3.720  9.59492E-01  9.93781E-01 -3.42895E-02
    9041.633     46.501   3.760  9.80721E-01  9.93633E-01 -1.29123E-02
    9042.785     47.653   3.800  1.00103E+00  9.93586E-01  7.44851E-03
    9043.949     48.817   3.840  1.01935E+00  9.93597E-01  2.57544E-02
    9045.126     49.994   3.880  1.03509E+00  9.93684E-01  4.14026E-02
    9046.315     51.183   3.920  1.04813E+00  9.93848E-01  5.42798E-02
    9047.516     52.384   3.960  1.05868E+00  9.94065E-01  6.46130E-02
    9048.729     53.597   4.000  1.06713E+00  9.94378E-01  7.27485E-02
    9049.954     54.822   4.040  1.07351E+00  9.94722E-01  7.87891E-02
    9051.192     56.059   4.080  1.07759E+00  9.95157E-01  8.24291E-02
    9052.441     57.309   4.120  1.07887E+00  9.95620E-01  8.32506E-02
    9053.703     58.571   4.160  1.07758E+00  9.96172E-01  8.14110E-02
    9054.977     59.845   4.200  1.07427E+00  9.96747E-01  7.75223E-02
    9056.263     61.131   4.240  1.06970E+00  9.97363E-01  7.23410E-02
    9057.562     62.430   4.280  1.06442E+00  9.98042E-01  6.63785E-02
    9058.872     63.740   4.320  1.05857E+00  9.98737E-01  5.98307E-02
    9060.195     65.063   4.360  1.05230E+00  9.99467E-01  5.28302E-02
    9061.530     66.398   4.400  1.04587E+00  1.00023E+00  4.56425E-02
    9062.877     67.745   4.440  1.03976E+00  1.00101E+00  3.87545E-02
    9064.237     69.105   4.480  1.03454E+00  1.00181E+00  3.27286E-02
    9065.608     70.476   4.520  1.03084E+00  1.00262E+00  2.82138E-02
    9066.992     71.860   4.560  1.02924E+00  1.00346E+00  2.57829E-02
    9068.388     73.256   4.600  1.03000E+00  1.00428E+00  2.57224E-02
    9069.796     74.664   4.640  1.03303E+00  1.00512E+00  2.79157E-02
    9071.217     76.085   4.680  1.03792E+00  1.00595E+00  3.19694E-02
    9072.649     77.517   4.720  1.04413E+00  1.00676E+00  3.73647E-02
    9074.094     78.962   4.760  1.05100E+00  1.00756E+00  4.34360E-02
    9075.551     80.419   4.800  1.05750E+00  1.00833E+00  4.91709E-02
    9077.020     81.888   4.840  1.06212E+00  1.00909E+00  5.30336E-02
    9078.501     83.369   4.880  1.06305E+00  1.00984E+00  5.32135E-02
    9079.995     84.863   4.920  1.05890E+00  1.01056E+00  4.83446E-02
    9081.501     86.369   4.960  1.04950E+00  1.01123E+00  3.82655E-02
    9083.019     87.887   5.000  1.03616E+00  1.01186E+00  2.42943E-02
    9084.549     89.417   5.040  1.02110E+00  1.01246E+00  8.64618E-03
    9086.091     90.959   5.080  1.00638E+00  1.01301E+00 -6.62373E-03
    9087.645     92.513   5.120  9.93157E-01  1.01351E+00 -2.03548E-02
    9089.212     94.080   5.160  9.81684E-01  1.01395E+00 -3.22665E-02
    9090.791     95.659   5.200  9.72030E-01  1.01437E+00 -4.23350E-02
    9092.382     97.250   5.240  9.64316E-01  1.01471E+00 -5.03969E-02
    9093.985     98.853   5.280  9.58744E-01  1.01501E+00 -5.62709E-02
    9095.601    100.469   5.320  9.55305E-01  1.01527E+00 -5.99652E-02
    9097.228    102.096   5.360  9.53882E-01  1.01548E+00 -6.15973E-02
    9098.868    103.736   5.400  9.54291E-01  1.01561E+00 -6.13229E-02
    9100.520    105.388   5.440  9.56376E-01  1.01568E+00 -5.92997E-02
    9102.184    107.052   5.480  9.59994E-01  1.01569E+00 -5.56956E-02
    9103.861    108.729   5.520  9.64992E-01  1.01566E+00 -5.06659E-02
    9105.549    110.417   5.560  9.71122E-01  1.01558E+00 -4.44569E-02
    9107.250    112.118   5.600  9.77923E-01  1.01543E+00 -3.75062E-02
    9108.963    113.831   5.640  9.84759E-01  1.01523E+00 -3.04727E-02
    9110.688    115.556   5.680  9.90852E-01  1.01496E+00 -2.41104E-02
    9112.426    117.294   5.720  9.95495E-01  1.01465E+00 -1.91539E-02
    9114.175    119.043   5.760  9.98164E-01  1.01429E+00 -1.61284E-02
    9115.937    120.805   5.800  9.98718E-01  1.01390E+00 -1.51774E-02
    9117.711    122.579   5.840  9.97455E-01  1.01346E+00 -1.60019E-02
    9119.497    124.365   5.880  9.94961E-01  1.01296E+00 -1.79955E-02
    9121.295    126.163   5.920  9.92011E-01  1.01244E+00 -2.04339E-02
    9123.106    127.974   5.960  9.89537E-01  1.01190E+00 -2.23627E-02
    9124.928    129.796   6.000  9.88989E-01  1.01126E+00 -2.22693E-02
