# # comment:                                                     FEFF 9.9.1  
# # Source:
# # Structure
# # Reduced
# # space
# # abc:
# # angles:
# # sites:
# # POT  SCF 100  7.0000   0, screened core-hole, AFOLP (folp(0)= 1.150)
# # Abs   Z=29 Rmt= 1.244 Rnm= 1.331 K  shell
# # Pot 1 Z=57 Rmt= 1.749 Rnm= 1.832
# # Pot 2 Z=29 Rmt= 1.224 Rnm= 1.314
# # Pot 3 Z= 8 Rmt= 1.062 Rnm= 1.122
# # Gam_ch=1.729E+00 H-L exch Vi= 0.000E+00 Vr= 0.000E+00
# # Mu=-7.942E+00eV kf=2.008E+00 Vint=-1.682E+01eV Rs_int= 1.806
# FMS rfms= 9.0000
# # PATH  Rmax=-1.000,  Keep_limit= 0.00, Heap_limit 0.00  Pwcrit= 2.50%
#  S02=0.950  Temp=   0.00  Debye_temp=   0.00  Global_sig2= 0.00000
#  Energy zero shift, vr, vi    0.00000E+00   0.00000E+00
#  Curved wave amplitude ratio filter   4.000%
#     file         sig2 tot  cw amp ratio   deg  nlegs   reff  inp sig2
#     0/   0 paths used
#  xsedge+ 50, used to normalize mu           2.4583E-04
#  -----------------------------------------------------------------------
#  omega    e    k    mu    mu0     chi     @#
    8984.310    -11.752  -1.000  4.23490E-02  5.47051E-02 -1.23560E-02
    8984.609    -11.453  -0.960  4.49537E-02  5.87045E-02 -1.37508E-02
    8984.895    -11.167  -0.920  4.78210E-02  6.31507E-02 -1.53296E-02
    8985.170    -10.893  -0.880  5.09906E-02  6.81094E-02 -1.71187E-02
    8985.432    -10.630  -0.840  5.45090E-02  7.36573E-02 -1.91483E-02
    8985.682    -10.381  -0.800  5.84309E-02  7.98834E-02 -2.14525E-02
    8985.919    -10.143  -0.760  6.28201E-02  8.68897E-02 -2.40696E-02
    8986.145     -9.917  -0.720  6.77495E-02  9.47913E-02 -2.70418E-02
    8986.358     -9.704  -0.680  7.33010E-02  1.03715E-01 -3.04144E-02
    8986.559     -9.503  -0.640  7.95619E-02  1.13796E-01 -3.42339E-02
    8986.748     -9.314  -0.600  8.66193E-02  1.25164E-01 -3.85450E-02
    8986.925     -9.137  -0.560  9.45484E-02  1.37933E-01 -4.33847E-02
    8987.090     -8.972  -0.520  1.03394E-01  1.52169E-01 -4.87749E-02
    8987.242     -8.820  -0.480  1.13147E-01  1.67858E-01 -5.47109E-02
    8987.382     -8.680  -0.440  1.23712E-01  1.84862E-01 -6.11495E-02
    8987.510     -8.552  -0.400  1.34886E-01  2.02884E-01 -6.79981E-02
    8987.626     -8.436  -0.360  1.46350E-01  2.21459E-01 -7.51091E-02
    8987.730     -8.332  -0.320  1.57696E-01  2.39982E-01 -8.22861E-02
    8987.821     -8.241  -0.280  1.68482E-01  2.57781E-01 -8.92995E-02
    8987.901     -8.162  -0.240  1.78300E-01  2.74210E-01 -9.59100E-02
    8987.968     -8.095  -0.200  1.86838E-01  2.88728E-01 -1.01891E-01
    8988.022     -8.040  -0.160  1.93897E-01  3.00940E-01 -1.07043E-01
    8988.065     -7.997  -0.120  1.99390E-01  3.10593E-01 -1.11203E-01
    8988.096     -7.966  -0.080  2.03297E-01  3.17547E-01 -1.14250E-01
    8988.120     -7.942   0.000  2.06403E-01  3.23134E-01 -1.16732E-01
    8988.175     -7.887   0.120  2.13009E-01  3.35732E-01 -1.22723E-01
    8988.218     -7.845   0.160  2.18047E-01  3.45506E-01 -1.27459E-01
    8988.272     -7.790   0.200  2.24331E-01  3.58011E-01 -1.33680E-01
    8988.339     -7.723   0.240  2.31590E-01  3.73038E-01 -1.41449E-01
    8988.419     -7.643   0.280  2.39524E-01  3.90305E-01 -1.50781E-01
    8988.510     -7.552   0.320  2.47725E-01  4.09330E-01 -1.61606E-01
    8988.614     -7.448   0.360  2.55924E-01  4.29608E-01 -1.73684E-01
    8988.730     -7.333   0.400  2.63904E-01  4.50495E-01 -1.86591E-01
    8988.858     -7.204   0.440  2.71866E-01  4.71501E-01 -1.99635E-01
    8988.998     -7.064   0.480  2.80201E-01  4.92173E-01 -2.11972E-01
    8989.150     -6.912   0.520  2.89476E-01  5.12248E-01 -2.22773E-01
    8989.315     -6.747   0.560  3.00061E-01  5.31607E-01 -2.31547E-01
    8989.492     -6.571   0.600  3.11738E-01  5.50194E-01 -2.38456E-01
    8989.681     -6.382   0.640  3.23764E-01  5.68047E-01 -2.44283E-01
    8989.882     -6.180   0.680  3.35036E-01  5.85283E-01 -2.50246E-01
    8990.095     -5.967   0.720  3.44490E-01  6.01987E-01 -2.57497E-01
    8990.321     -5.741   0.760  3.51632E-01  6.18209E-01 -2.66576E-01
    8990.558     -5.504   0.800  3.57049E-01  6.34085E-01 -2.77036E-01
    8990.808     -5.254   0.840  3.62107E-01  6.49618E-01 -2.87511E-01
    8991.070     -4.992   0.880  3.68535E-01  6.64900E-01 -2.96365E-01
    8991.345     -4.717   0.920  3.77895E-01  6.79968E-01 -3.02073E-01
    8991.631     -4.431   0.960  3.91502E-01  6.94825E-01 -3.03323E-01
    8991.930     -4.132   1.000  4.09977E-01  7.09485E-01 -2.99508E-01
    8992.241     -3.821   1.040  4.32840E-01  7.23953E-01 -2.91113E-01
    8992.564     -3.498   1.080  4.59290E-01  7.38226E-01 -2.78935E-01
    8992.899     -3.163   1.120  4.88075E-01  7.52293E-01 -2.64218E-01
    8993.247     -2.815   1.160  5.16414E-01  7.66143E-01 -2.49729E-01
    8993.606     -2.456   1.200  5.41552E-01  7.79756E-01 -2.38204E-01
    8993.978     -2.084   1.240  5.62836E-01  7.93090E-01 -2.30254E-01
    8994.362     -1.700   1.280  5.79918E-01  8.06142E-01 -2.26224E-01
    8994.759     -1.304   1.320  5.92786E-01  8.18889E-01 -2.26103E-01
    8995.167     -0.895   1.360  6.07319E-01  8.31282E-01 -2.23962E-01
    8995.588     -0.475   1.400  6.34904E-01  8.43316E-01 -2.08412E-01
    8996.020     -0.042   1.440  6.79614E-01  8.54985E-01 -1.75371E-01
    8996.465      0.403   1.480  7.29282E-01  8.66241E-01 -1.36959E-01
    8996.923      0.860   1.520  7.71413E-01  8.77079E-01 -1.05666E-01
    8997.392      1.330   1.560  8.13026E-01  8.87494E-01 -7.44677E-02
    8997.874      1.811   1.600  8.70512E-01  8.97440E-01 -2.69283E-02
    8998.367      2.305   1.640  9.53675E-01  9.06934E-01  4.67413E-02
    8998.873      2.811   1.680  1.05960E+00  9.15953E-01  1.43648E-01
    8999.391      3.329   1.720  1.17240E+00  9.24497E-01  2.47901E-01
    8999.922      3.860   1.760  1.27257E+00  9.32565E-01  3.40007E-01
    9000.464      4.402   1.800  1.35426E+00  9.40138E-01  4.14122E-01
    9001.019      4.957   1.840  1.41904E+00  9.47259E-01  4.71777E-01
    9001.586      5.524   1.880  1.45628E+00  9.53889E-01  5.02387E-01
    9002.165      6.103   1.920  1.45485E+00  9.60054E-01  4.94793E-01
    9002.756      6.694   1.960  1.42425E+00  9.65758E-01  4.58488E-01
    9003.360      7.298   2.000  1.38312E+00  9.71007E-01  4.12111E-01
    9003.976      7.914   2.040  1.34050E+00  9.75829E-01  3.64674E-01
    9004.604      8.541   2.080  1.29391E+00  9.80231E-01  3.13675E-01
    9005.244      9.181   2.120  1.23736E+00  9.84242E-01  2.53120E-01
    9005.896      9.834   2.160  1.17327E+00  9.87849E-01  1.85417E-01
    9006.560     10.498   2.200  1.11362E+00  9.91059E-01  1.22560E-01
    9007.237     11.175   2.240  1.06699E+00  9.93944E-01  7.30421E-02
    9007.926     11.864   2.280  1.03378E+00  9.96473E-01  3.73060E-02
    9008.627     12.565   2.320  1.01583E+00  9.98674E-01  1.71556E-02
    9009.340     13.278   2.360  1.01570E+00  1.00058E+00  1.51175E-02
    9010.066     14.003   2.400  1.02916E+00  1.00220E+00  2.69681E-02
    9010.803     14.741   2.440  1.04531E+00  1.00356E+00  4.17505E-02
    9011.553     15.491   2.480  1.05261E+00  1.00467E+00  4.79419E-02
    9012.315     16.253   2.520  1.05171E+00  1.00556E+00  4.61481E-02
    9013.089     17.027   2.560  1.04419E+00  1.00623E+00  3.79647E-02
    9013.876     17.813   2.600  1.03172E+00  1.00672E+00  2.50008E-02
    9014.674     18.612   2.640  1.01603E+00  1.00703E+00  9.00045E-03
    9015.485     19.423   2.680  9.98165E-01  1.00718E+00 -9.01814E-03
    9016.308     20.246   2.720  9.79364E-01  1.00718E+00 -2.78146E-02
    9017.143     21.081   2.760  9.60737E-01  1.00705E+00 -4.63104E-02
    9017.990     21.928   2.800  9.43033E-01  1.00682E+00 -6.37844E-02
    9018.850     22.788   2.840  9.26985E-01  1.00648E+00 -7.94900E-02
    9019.722     23.659   2.880  9.12721E-01  1.00607E+00 -9.33494E-02
    9020.605     24.543   2.920  9.00056E-01  1.00556E+00 -1.05508E-01
    9021.502     25.439   2.960  8.89245E-01  1.00501E+00 -1.15760E-01
    9022.410     26.348   3.000  8.80473E-01  1.00440E+00 -1.23926E-01
    9023.330     27.268   3.040  8.74096E-01  1.00375E+00 -1.29655E-01
    9024.263     28.201   3.080  8.70485E-01  1.00307E+00 -1.32582E-01
    9025.208     29.146   3.120  8.69528E-01  1.00237E+00 -1.32844E-01
    9026.165     30.103   3.160  8.70578E-01  1.00167E+00 -1.31091E-01
    9027.134     31.072   3.200  8.73073E-01  1.00094E+00 -1.27869E-01
    9028.116     32.054   3.240  8.76772E-01  1.00024E+00 -1.23464E-01
    9029.109     33.047   3.280  8.81455E-01  9.99532E-01 -1.18077E-01
    9030.115     34.053   3.320  8.87184E-01  9.98835E-01 -1.11651E-01
    9031.133     35.071   3.360  8.94125E-01  9.98169E-01 -1.04044E-01
    9032.163     36.101   3.400  9.02381E-01  9.97535E-01 -9.51544E-02
    9033.206     37.144   3.440  9.11845E-01  9.96913E-01 -8.50672E-02
    9034.260     38.198   3.480  9.22529E-01  9.96327E-01 -7.37977E-02
    9035.327     39.265   3.520  9.34337E-01  9.95781E-01 -6.14441E-02
    9036.406     40.344   3.560  9.47084E-01  9.95295E-01 -4.82107E-02
    9037.497     41.435   3.600  9.60528E-01  9.94827E-01 -3.42993E-02
    9038.601     42.539   3.640  9.74526E-01  9.94402E-01 -1.98764E-02
    9039.716     43.654   3.680  9.88929E-01  9.94040E-01 -5.11155E-03
    9040.844     44.782   3.720  1.00355E+00  9.93721E-01  9.82714E-03
    9041.984     45.922   3.760  1.01813E+00  9.93423E-01  2.47028E-02
    9043.136     47.074   3.800  1.03221E+00  9.93210E-01  3.89966E-02
    9044.301     48.238   3.840  1.04495E+00  9.93021E-01  5.19309E-02
    9045.477     49.415   3.880  1.05567E+00  9.92895E-01  6.27703E-02
    9046.666     50.604   3.920  1.06380E+00  9.92792E-01  7.10110E-02
    9047.867     51.805   3.960  1.06930E+00  9.92754E-01  7.65416E-02
    9049.080     53.018   4.000  1.07249E+00  9.92780E-01  7.97114E-02
    9050.305     54.243   4.040  1.07395E+00  9.92827E-01  8.11193E-02
    9051.543     55.480   4.080  1.07422E+00  9.92914E-01  8.13038E-02
    9052.792     56.730   4.120  1.07356E+00  9.93063E-01  8.04965E-02
    9054.054     57.992   4.160  1.07195E+00  9.93232E-01  7.87211E-02
    9055.328     59.266   4.200  1.06926E+00  9.93458E-01  7.58018E-02
    9056.614     60.552   4.240  1.06535E+00  9.93701E-01  7.16478E-02
    9057.913     61.851   4.280  1.06037E+00  9.93981E-01  6.63908E-02
    9059.223     63.161   4.320  1.05461E+00  9.94294E-01  6.03110E-02
    9060.546     64.484   4.360  1.04829E+00  9.94620E-01  5.36677E-02
    9061.881     65.819   4.400  1.04163E+00  9.95000E-01  4.66252E-02
    9063.229     67.166   4.440  1.03471E+00  9.95369E-01  3.93438E-02
    9064.588     68.526   4.480  1.02778E+00  9.95788E-01  3.19894E-02
    9065.960     69.897   4.520  1.02101E+00  9.96193E-01  2.48149E-02
    9067.343     71.281   4.560  1.01473E+00  9.96624E-01  1.81091E-02
    9068.739     72.677   4.600  1.00914E+00  9.97060E-01  1.20827E-02
    9070.147     74.085   4.640  1.00434E+00  9.97521E-01  6.81815E-03
    9071.568     75.506   4.680  1.00023E+00  9.97963E-01  2.26955E-03
    9073.000     76.938   4.720  9.96722E-01  9.98426E-01 -1.70421E-03
    9074.445     78.383   4.760  9.93618E-01  9.98886E-01 -5.26878E-03
    9075.902     79.840   4.800  9.90761E-01  9.99322E-01 -8.56103E-03
    9077.371     81.309   4.840  9.88064E-01  9.99753E-01 -1.16891E-02
    9078.853     82.790   4.880  9.85449E-01  1.00018E+00 -1.47301E-02
    9080.346     84.284   4.920  9.82826E-01  1.00060E+00 -1.77737E-02
    9081.852     85.790   4.960  9.80122E-01  1.00101E+00 -2.08904E-02
    9083.370     87.307   5.000  9.77356E-01  1.00137E+00 -2.40158E-02
    9084.900     88.838   5.040  9.74858E-01  1.00174E+00 -2.68860E-02
    9086.442     90.380   5.080  9.72967E-01  1.00208E+00 -2.91168E-02
    9087.996     91.934   5.120  9.71977E-01  1.00239E+00 -3.04112E-02
    9089.563     93.501   5.160  9.71912E-01  1.00268E+00 -3.07679E-02
    9091.142     95.080   5.200  9.72469E-01  1.00294E+00 -3.04659E-02
    9092.733     96.671   5.240  9.73205E-01  1.00315E+00 -2.99495E-02
    9094.336     98.274   5.280  9.73715E-01  1.00334E+00 -2.96217E-02
    9095.952     99.890   5.320  9.73774E-01  1.00350E+00 -2.97297E-02
    9097.579    101.517   5.360  9.73389E-01  1.00364E+00 -3.02462E-02
    9099.219    103.157   5.400  9.72800E-01  1.00373E+00 -3.09277E-02
    9100.871    104.809   5.440  9.72390E-01  1.00378E+00 -3.13924E-02
    9102.535    106.473   5.480  9.72629E-01  1.00382E+00 -3.11896E-02
    9104.212    108.150   5.520  9.73918E-01  1.00379E+00 -2.98770E-02
    9105.900    109.838   5.560  9.76542E-01  1.00373E+00 -2.71883E-02
    9107.601    111.539   5.600  9.80532E-01  1.00365E+00 -2.31198E-02
    9109.314    113.252   5.640  9.85568E-01  1.00354E+00 -1.79670E-02
    9111.039    114.977   5.680  9.91102E-01  1.00338E+00 -1.22784E-02
    9112.777    116.714   5.720  9.96434E-01  1.00319E+00 -6.75286E-03
    9114.526    118.464   5.760  1.00092E+00  1.00295E+00 -2.03588E-03
    9116.288    120.226   5.800  1.00412E+00  1.00268E+00  1.43153E-03
    9118.062    122.000   5.840  1.00587E+00  1.00240E+00  3.46834E-03
    9119.848    123.786   5.880  1.00617E+00  1.00206E+00  4.10629E-03
    9121.646    125.584   5.920  1.00528E+00  1.00172E+00  3.56266E-03
    9123.457    127.395   5.960  1.00365E+00  1.00137E+00  2.28146E-03
    9125.279    129.217   6.000  1.00178E+00  1.00094E+00  8.47767E-04
