# # comment:                                                     FEFF 9.9.1  
# # Source:
# # Structure
# # Reduced
# # space
# # abc:
# # angles:109.471221
# # sites:
# # POT  SCF 100  7.0000   0, screened core-hole, AFOLP (folp(0)= 1.150)
# # Abs   Z=29 Rmt= 1.186 Rnm= 1.285 K  shell
# # Pot 1 Z=58 Rmt= 1.733 Rnm= 1.787
# # Pot 2 Z=26 Rmt= 1.301 Rnm= 1.401
# # Pot 3 Z=29 Rmt= 1.186 Rnm= 1.285
# # Pot 4 Z= 8 Rmt= 1.036 Rnm= 1.102
# # Gam_ch=1.729E+00 H-L exch Vi= 0.000E+00 Vr= 0.000E+00
# # Mu=-1.041E+01eV kf=2.160E+00 Vint=-1.785E+01eV Rs_int= 1.679
# FMS rfms= 9.0000
# # PATH  Rmax=-1.000,  Keep_limit= 0.00, Heap_limit 0.00  Pwcrit= 2.50%
#  S02=0.950  Temp=   0.00  Debye_temp=   0.00  Global_sig2= 0.00000
#  Energy zero shift, vr, vi    0.00000E+00   0.00000E+00
#  Curved wave amplitude ratio filter   4.000%
#     file         sig2 tot  cw amp ratio   deg  nlegs   reff  inp sig2
#     0/   0 paths used
#  xsedge+ 50, used to normalize mu           2.4780E-04
#  -----------------------------------------------------------------------
#  omega    e    k    mu    mu0     chi     @#
    8984.424    -14.216  -1.000  3.30499E-02  5.04149E-02 -1.73650E-02
    8984.723    -13.918  -0.960  3.45833E-02  5.39434E-02 -1.93601E-02
    8985.010    -13.631  -0.920  3.62122E-02  5.78516E-02 -2.16394E-02
    8985.284    -13.357  -0.880  3.79445E-02  6.21942E-02 -2.42497E-02
    8985.546    -13.095  -0.840  3.97889E-02  6.70348E-02 -2.72460E-02
    8985.796    -12.845  -0.800  4.17546E-02  7.24468E-02 -3.06922E-02
    8986.034    -12.607  -0.760  4.38519E-02  7.85144E-02 -3.46625E-02
    8986.259    -12.381  -0.720  4.60914E-02  8.53325E-02 -3.92411E-02
    8986.473    -12.168  -0.680  4.84837E-02  9.30053E-02 -4.45215E-02
    8986.674    -11.967  -0.640  5.10391E-02  1.01642E-01 -5.06033E-02
    8986.863    -11.778  -0.600  5.37660E-02  1.11352E-01 -5.75856E-02
    8987.039    -11.601  -0.560  5.66692E-02  1.22224E-01 -6.55546E-02
    8987.204    -11.437  -0.520  5.97474E-02  1.34312E-01 -7.45651E-02
    8987.356    -11.284  -0.480  6.29897E-02  1.47603E-01 -8.46136E-02
    8987.497    -11.144  -0.440  6.63716E-02  1.61980E-01 -9.56085E-02
    8987.625    -11.016  -0.400  6.98520E-02  1.77196E-01 -1.07344E-01
    8987.741    -10.900  -0.360  7.33711E-02  1.92865E-01 -1.19494E-01
    8987.844    -10.797  -0.320  7.68523E-02  2.08483E-01 -1.31631E-01
    8987.936    -10.705  -0.280  8.02075E-02  2.23492E-01 -1.43285E-01
    8988.015    -10.626  -0.240  8.33440E-02  2.37354E-01 -1.54010E-01
    8988.082    -10.559  -0.200  8.61724E-02  2.49613E-01 -1.63441E-01
    8988.137    -10.504  -0.160  8.86116E-02  2.59936E-01 -1.71324E-01
    8988.179    -10.461  -0.120  9.05912E-02  2.68103E-01 -1.77512E-01
    8988.210    -10.431  -0.080  9.20542E-02  2.73993E-01 -1.81939E-01
    8988.234    -10.406   0.000  9.32709E-02  2.78729E-01 -1.85459E-01
    8988.289    -10.352   0.120  9.61685E-02  2.89422E-01 -1.93254E-01
    8988.332    -10.309   0.160  9.84186E-02  2.97741E-01 -1.99323E-01
    8988.387    -10.254   0.200  1.01390E-01  3.08395E-01 -2.07005E-01
    8988.454    -10.187   0.240  1.05100E-01  3.21215E-01 -2.16116E-01
    8988.533    -10.108   0.280  1.09632E-01  3.36014E-01 -2.26382E-01
    8988.624    -10.016   0.320  1.15076E-01  3.52448E-01 -2.37372E-01
    8988.728     -9.913   0.360  1.21418E-01  3.70029E-01 -2.48611E-01
    8988.844     -9.797   0.400  1.28768E-01  3.88357E-01 -2.59590E-01
    8988.972     -9.669   0.440  1.36975E-01  4.06954E-01 -2.69978E-01
    8989.112     -9.529   0.480  1.45896E-01  4.25534E-01 -2.79638E-01
    8989.265     -9.376   0.520  1.55051E-01  4.43850E-01 -2.88799E-01
    8989.429     -9.212   0.560  1.63813E-01  4.61788E-01 -2.97974E-01
    8989.606     -9.035   0.600  1.71640E-01  4.79378E-01 -3.07738E-01
    8989.795     -8.846   0.640  1.78020E-01  4.96606E-01 -3.18587E-01
    8989.996     -8.645   0.680  1.82891E-01  5.13547E-01 -3.30656E-01
    8990.209     -8.431   0.720  1.86637E-01  5.30267E-01 -3.43629E-01
    8990.435     -8.206   0.760  1.90231E-01  5.46847E-01 -3.56617E-01
    8990.673     -7.968   0.800  1.95396E-01  5.63343E-01 -3.67947E-01
    8990.923     -7.718   0.840  2.04646E-01  5.79778E-01 -3.75131E-01
    8991.185     -7.456   0.880  2.20913E-01  5.96202E-01 -3.75289E-01
    8991.459     -7.182   0.920  2.47398E-01  6.12615E-01 -3.65217E-01
    8991.746     -6.895   0.960  2.88332E-01  6.29046E-01 -3.40714E-01
    8992.044     -6.596   1.000  3.49265E-01  6.45475E-01 -2.96211E-01
    8992.355     -6.286   1.040  4.34302E-01  6.61874E-01 -2.27572E-01
    8992.678     -5.962   1.080  5.35127E-01  6.78267E-01 -1.43139E-01
    8993.014     -5.627   1.120  6.20097E-01  6.94573E-01 -7.44767E-02
    8993.361     -5.280   1.160  6.64751E-01  7.10809E-01 -4.60589E-02
    8993.721     -4.920   1.200  6.92556E-01  7.26906E-01 -3.43505E-02
    8994.093     -4.548   1.240  7.32153E-01  7.42853E-01 -1.06993E-02
    8994.477     -4.164   1.280  7.56927E-01  7.58576E-01 -1.64889E-03
    8994.873     -3.768   1.320  7.16176E-01  7.74082E-01 -5.79062E-02
    8995.281     -3.359   1.360  6.23417E-01  7.89294E-01 -1.65876E-01
    8995.702     -2.939   1.400  5.39318E-01  8.04177E-01 -2.64858E-01
    8996.135     -2.506   1.440  4.96707E-01  8.18715E-01 -3.22009E-01
    8996.580     -2.061   1.480  4.88432E-01  8.32854E-01 -3.44422E-01
    8997.037     -1.604   1.520  4.96061E-01  8.46558E-01 -3.50497E-01
    8997.506     -1.134   1.560  5.16123E-01  8.59816E-01 -3.43693E-01
    8997.988     -0.653   1.600  5.56548E-01  8.72574E-01 -3.16026E-01
    8998.482     -0.159   1.640  6.18523E-01  8.84842E-01 -2.66319E-01
    8998.988      0.347   1.680  6.96006E-01  8.96550E-01 -2.00544E-01
    8999.506      0.865   1.720  7.80199E-01  9.07731E-01 -1.27532E-01
    9000.036      1.395   1.760  8.50611E-01  9.18340E-01 -6.77286E-02
    9000.579      1.938   1.800  8.90544E-01  9.28373E-01 -3.78288E-02
    9001.133      2.493   1.840  9.12962E-01  9.37848E-01 -2.48865E-02
    9001.700      3.060   1.880  9.32199E-01  9.46723E-01 -1.45245E-02
    9002.279      3.639   1.920  9.55645E-01  9.55039E-01  6.05939E-04
    9002.871      4.230   1.960  1.00412E+00  9.62760E-01  4.13631E-02
    9003.474      4.834   2.000  1.08603E+00  9.69908E-01  1.16123E-01
    9004.090      5.449   2.040  1.16993E+00  9.76508E-01  1.93421E-01
    9004.718      6.077   2.080  1.22682E+00  9.82569E-01  2.44253E-01
    9005.358      6.717   2.120  1.25811E+00  9.88075E-01  2.70030E-01
    9006.010      7.369   2.160  1.27869E+00  9.93076E-01  2.85616E-01
    9006.675      8.034   2.200  1.31627E+00  9.97560E-01  3.18707E-01
    9007.351      8.711   2.240  1.38955E+00  1.00158E+00  3.87972E-01
    9008.040      9.399   2.280  1.47111E+00  1.00512E+00  4.65993E-01
    9008.741     10.100   2.320  1.50651E+00  1.00824E+00  4.98276E-01
    9009.454     10.814   2.360  1.47756E+00  1.01092E+00  4.66646E-01
    9010.180     11.539   2.400  1.40803E+00  1.01320E+00  3.94830E-01
    9010.917     12.277   2.440  1.32814E+00  1.01513E+00  3.13009E-01
    9011.667     13.027   2.480  1.25620E+00  1.01669E+00  2.39510E-01
    9012.429     13.789   2.520  1.20160E+00  1.01791E+00  1.83681E-01
    9013.203     14.563   2.560  1.16125E+00  1.01884E+00  1.42413E-01
    9013.990     15.349   2.600  1.12402E+00  1.01950E+00  1.04523E-01
    9014.788     16.148   2.640  1.08432E+00  1.01989E+00  6.44324E-02
    9015.599     16.958   2.680  1.04535E+00  1.02003E+00  2.53212E-02
    9016.422     17.781   2.720  1.01501E+00  1.01993E+00 -4.92533E-03
    9017.257     18.617   2.760  9.94794E-01  1.01966E+00 -2.48655E-02
    9018.105     19.464   2.800  9.82676E-01  1.01919E+00 -3.65167E-02
    9018.964     20.323   2.840  9.75284E-01  1.01856E+00 -4.32794E-02
    9019.836     21.195   2.880  9.68599E-01  1.01780E+00 -4.92008E-02
    9020.720     22.079   2.920  9.59571E-01  1.01691E+00 -5.73415E-02
    9021.616     22.975   2.960  9.46683E-01  1.01591E+00 -6.92239E-02
    9022.524     23.883   3.000  9.29923E-01  1.01481E+00 -8.48902E-02
    9023.445     24.804   3.040  9.11039E-01  1.01364E+00 -1.02598E-01
    9024.377     25.737   3.080  8.93483E-01  1.01239E+00 -1.18902E-01
    9025.322     26.682   3.120  8.80357E-01  1.01109E+00 -1.30729E-01
    9026.279     27.639   3.160  8.72761E-01  1.00975E+00 -1.36985E-01
    9027.249     28.608   3.200  8.70251E-01  1.00839E+00 -1.38138E-01
    9028.230     29.589   3.240  8.71429E-01  1.00698E+00 -1.35552E-01
    9029.224     30.583   3.280  8.74611E-01  1.00559E+00 -1.30975E-01
    9030.229     31.589   3.320  8.78608E-01  1.00419E+00 -1.25583E-01
    9031.248     32.607   3.360  8.82836E-01  1.00280E+00 -1.19965E-01
    9032.278     33.637   3.400  8.86718E-01  1.00141E+00 -1.14697E-01
    9033.320     34.679   3.440  8.89765E-01  1.00006E+00 -1.10295E-01
    9034.375     35.734   3.480  8.91784E-01  9.98741E-01 -1.06957E-01
    9035.442     36.801   3.520  8.93064E-01  9.97460E-01 -1.04395E-01
    9036.521     37.880   3.560  8.94393E-01  9.96217E-01 -1.01824E-01
    9037.612     38.971   3.600  8.97027E-01  9.95017E-01 -9.79900E-02
    9038.715     40.074   3.640  9.02052E-01  9.93858E-01 -9.18064E-02
    9039.831     41.190   3.680  9.10045E-01  9.92746E-01 -8.27007E-02
    9040.958     42.318   3.720  9.21041E-01  9.91701E-01 -7.06605E-02
    9042.098     43.458   3.760  9.34684E-01  9.90727E-01 -5.60427E-02
    9043.250     44.610   3.800  9.50015E-01  9.89802E-01 -3.97863E-02
    9044.415     45.774   3.840  9.65558E-01  9.88925E-01 -2.33670E-02
    9045.591     46.951   3.880  9.79680E-01  9.88122E-01 -8.44177E-03
    9046.780     48.139   3.920  9.90879E-01  9.87393E-01  3.48652E-03
    9047.981     49.340   3.960  9.98316E-01  9.86737E-01  1.15789E-02
    9049.194     50.553   4.000  1.00231E+00  9.86133E-01  1.61802E-02
    9050.419     51.779   4.040  1.00451E+00  9.85599E-01  1.89105E-02
    9051.657     53.016   4.080  1.00709E+00  9.85118E-01  2.19718E-02
    9052.907     54.266   4.120  1.01187E+00  9.84709E-01  2.71652E-02
    9054.168     55.528   4.160  1.01942E+00  9.84374E-01  3.50498E-02
    9055.442     56.802   4.200  1.02874E+00  9.84090E-01  4.46463E-02
    9056.729     58.088   4.240  1.03800E+00  9.83876E-01  5.41244E-02
    9058.027     59.386   4.280  1.04570E+00  9.83732E-01  6.19671E-02
    9059.338     60.697   4.320  1.05125E+00  9.83616E-01  6.76323E-02
    9060.661     62.020   4.360  1.05488E+00  9.83589E-01  7.12905E-02
    9061.996     63.355   4.400  1.05665E+00  9.83586E-01  7.30660E-02
    9063.343     64.702   4.440  1.05612E+00  9.83650E-01  7.24692E-02
    9064.702     66.062   4.480  1.05248E+00  9.83760E-01  6.87168E-02
    9066.074     67.433   4.520  1.04590E+00  9.83932E-01  6.19630E-02
    9067.458     68.817   4.560  1.03803E+00  9.84124E-01  5.39035E-02
    9068.854     70.213   4.600  1.03136E+00  9.84355E-01  4.70037E-02
    9070.262     71.621   4.640  1.02787E+00  9.84647E-01  4.32184E-02
    9071.682     73.041   4.680  1.02819E+00  9.84953E-01  4.32404E-02
    9073.115     74.474   4.720  1.03179E+00  9.85294E-01  4.64920E-02
    9074.559     75.919   4.760  1.03739E+00  9.85648E-01  5.17440E-02
    9076.016     77.376   4.800  1.04366E+00  9.86054E-01  5.76042E-02
    9077.485     78.845   4.840  1.04903E+00  9.86449E-01  6.25782E-02
    9078.967     80.326   4.880  1.05195E+00  9.86895E-01  6.50579E-02
    9080.460     81.820   4.920  1.05105E+00  9.87326E-01  6.37222E-02
    9081.966     83.325   4.960  1.04605E+00  9.87780E-01  5.82649E-02
    9083.484     84.843   5.000  1.03792E+00  9.88239E-01  4.96839E-02
    9085.014     86.373   5.040  1.02825E+00  9.88697E-01  3.95560E-02
    9086.556     87.916   5.080  1.01820E+00  9.89156E-01  2.90442E-02
    9088.111     89.470   5.120  1.00798E+00  9.89614E-01  1.83616E-02
    9089.677     91.037   5.160  9.97020E-01  9.90068E-01  6.95185E-03
    9091.256     92.616   5.200  9.84636E-01  9.90517E-01 -5.88106E-03
    9092.847     94.207   5.240  9.70519E-01  9.90939E-01 -2.04199E-02
    9094.451     95.810   5.280  9.55028E-01  9.91353E-01 -3.63245E-02
    9096.066     97.425   5.320  9.39058E-01  9.91759E-01 -5.27005E-02
    9097.694     99.053   5.360  9.23844E-01  9.92132E-01 -6.82876E-02
    9099.333    100.693   5.400  9.10839E-01  9.92472E-01 -8.16326E-02
    9100.985    102.345   5.440  9.01477E-01  9.92800E-01 -9.13227E-02
    9102.650    104.009   5.480  8.96744E-01  9.93094E-01 -9.63495E-02
    9104.326    105.685   5.520  8.96999E-01  9.93374E-01 -9.63748E-02
    9106.015    107.374   5.560  9.01920E-01  9.93595E-01 -9.16747E-02
    9107.715    109.075   5.600  9.11090E-01  9.93800E-01 -8.27103E-02
    9109.428    110.788   5.640  9.24098E-01  9.93968E-01 -6.98706E-02
    9111.154    112.513   5.680  9.40598E-01  9.94098E-01 -5.35000E-02
    9112.891    114.250   5.720  9.59872E-01  9.94191E-01 -3.43190E-02
    9114.640    116.000   5.760  9.80542E-01  9.94267E-01 -1.37247E-02
    9116.402    117.761   5.800  1.00053E+00  9.94281E-01  6.24733E-03
    9118.176    119.535   5.840  1.01762E+00  9.94256E-01  2.33671E-02
    9119.962    121.322   5.880  1.02987E+00  9.94215E-01  3.56585E-02
    9121.761    123.120   5.920  1.03598E+00  9.94113E-01  4.18640E-02
    9123.571    124.930   5.960  1.03568E+00  9.93993E-01  4.16836E-02
    9125.394    126.753   6.000  1.02928E+00  9.93783E-01  3.54967E-02
