# # comment:                                                     FEFF 9.9.1  
# # Source:
# # Structure
# # Reduced
# # space
# # abc:
# # angles:
# # sites:
# # POT  SCF 100  7.0000   0, screened core-hole, AFOLP (folp(0)= 1.150)
# # Abs   Z=29 Rmt= 1.221 Rnm= 1.300 K  shell
# # Pot 1 Z=56 Rmt= 1.881 Rnm= 1.967
# # Pot 2 Z=20 Rmt= 1.674 Rnm= 1.732
# # Pot 3 Z=29 Rmt= 1.224 Rnm= 1.303
# # Pot 4 Z= 8 Rmt= 1.067 Rnm= 1.116
# # Gam_ch=1.729E+00 H-L exch Vi= 0.000E+00 Vr= 0.000E+00
# # Mu=-9.769E+00eV kf=1.983E+00 Vint=-1.872E+01eV Rs_int= 1.829
# FMS rfms= 9.0000
# # PATH  Rmax=-1.000,  Keep_limit= 0.00, Heap_limit 0.00  Pwcrit= 2.50%
#  S02=0.950  Temp=   0.00  Debye_temp=   0.00  Global_sig2= 0.00000
#  Energy zero shift, vr, vi    0.00000E+00   0.00000E+00
#  Curved wave amplitude ratio filter   4.000%
#     file         sig2 tot  cw amp ratio   deg  nlegs   reff  inp sig2
#     0/   0 paths used
#  xsedge+ 50, used to normalize mu           2.4424E-04
#  -----------------------------------------------------------------------
#  omega    e    k    mu    mu0     chi     @#
    8986.144    -13.579  -1.000  4.37810E-02  5.78754E-02 -1.40944E-02
    8986.443    -13.280  -0.960  4.65438E-02  6.21761E-02 -1.56323E-02
    8986.729    -12.994  -0.920  4.95999E-02  6.69620E-02 -1.73621E-02
    8987.004    -12.719  -0.880  5.29947E-02  7.23048E-02 -1.93100E-02
    8987.266    -12.457  -0.840  5.67820E-02  7.82883E-02 -2.15062E-02
    8987.516    -12.207  -0.800  6.10244E-02  8.50094E-02 -2.39850E-02
    8987.753    -11.970  -0.760  6.57944E-02  9.25796E-02 -2.67852E-02
    8987.979    -11.744  -0.720  7.11747E-02  1.01125E-01 -2.99501E-02
    8988.192    -11.531  -0.680  7.72568E-02  1.10784E-01 -3.35268E-02
    8988.394    -11.330  -0.640  8.41386E-02  1.21703E-01 -3.75640E-02
    8988.582    -11.141  -0.600  9.19171E-02  1.34026E-01 -4.21085E-02
    8988.759    -10.964  -0.560  1.00678E-01  1.47876E-01 -4.71978E-02
    8988.924    -10.799  -0.520  1.10477E-01  1.63327E-01 -5.28496E-02
    8989.076    -10.647  -0.480  1.21316E-01  1.80362E-01 -5.90462E-02
    8989.216    -10.507  -0.440  1.33116E-01  1.98834E-01 -6.57176E-02
    8989.344    -10.379  -0.400  1.45689E-01  2.18418E-01 -7.27283E-02
    8989.460    -10.263  -0.360  1.58732E-01  2.38607E-01 -7.98749E-02
    8989.564    -10.159  -0.320  1.71838E-01  2.58742E-01 -8.69038E-02
    8989.655    -10.068  -0.280  1.84544E-01  2.78091E-01 -9.35465E-02
    8989.735     -9.988  -0.240  1.96388E-01  2.95950E-01 -9.95621E-02
    8989.802     -9.921  -0.200  2.06961E-01  3.11730E-01 -1.04769E-01
    8989.857     -9.867  -0.160  2.15943E-01  3.25002E-01 -1.09058E-01
    8989.899     -9.824  -0.120  2.23110E-01  3.35490E-01 -1.12380E-01
    8989.930     -9.793  -0.080  2.28317E-01  3.43045E-01 -1.14728E-01
    8989.954     -9.769   0.000  2.32537E-01  3.49113E-01 -1.16575E-01
    8990.009     -9.714   0.120  2.41938E-01  3.62785E-01 -1.20848E-01
    8990.052     -9.671   0.160  2.49357E-01  3.73427E-01 -1.24070E-01
    8990.106     -9.617   0.200  2.58881E-01  3.86976E-01 -1.28094E-01
    8990.174     -9.550   0.240  2.70495E-01  4.03303E-01 -1.32808E-01
    8990.253     -9.470   0.280  2.83939E-01  4.22017E-01 -1.38077E-01
    8990.344     -9.379   0.320  2.98857E-01  4.42632E-01 -1.43775E-01
    8990.448     -9.275   0.360  3.14658E-01  4.64569E-01 -1.49911E-01
    8990.564     -9.159   0.400  3.30394E-01  4.87168E-01 -1.56774E-01
    8990.692     -9.031   0.440  3.44709E-01  5.09803E-01 -1.65094E-01
    8990.832     -8.891   0.480  3.55924E-01  5.32065E-01 -1.76140E-01
    8990.984     -8.739   0.520  3.62026E-01  5.53602E-01 -1.91576E-01
    8991.149     -8.574   0.560  3.61431E-01  5.74301E-01 -2.12870E-01
    8991.326     -8.397   0.600  3.53730E-01  5.94106E-01 -2.40376E-01
    8991.515     -8.208   0.640  3.40387E-01  6.13078E-01 -2.72691E-01
    8991.716     -8.007   0.680  3.24344E-01  6.31278E-01 -3.06934E-01
    8991.929     -7.794   0.720  3.08855E-01  6.48825E-01 -3.39970E-01
    8992.155     -7.568   0.760  2.96332E-01  6.65814E-01 -3.69482E-01
    8992.392     -7.331   0.800  2.88121E-01  6.82310E-01 -3.94189E-01
    8992.642     -7.081   0.840  2.84961E-01  6.98405E-01 -4.13443E-01
    8992.905     -6.819   0.880  2.87389E-01  7.14134E-01 -4.26745E-01
    8993.179     -6.544   0.920  2.95437E-01  7.29539E-01 -4.34102E-01
    8993.465     -6.258   0.960  3.07620E-01  7.44648E-01 -4.37028E-01
    8993.764     -5.959   1.000  3.21208E-01  7.59476E-01 -4.38269E-01
    8994.075     -5.648   1.040  3.35123E-01  7.74011E-01 -4.38888E-01
    8994.398     -5.325   1.080  3.51467E-01  7.88272E-01 -4.36805E-01
    8994.733     -4.990   1.120  3.70188E-01  8.02231E-01 -4.32043E-01
    8995.081     -4.642   1.160  3.88366E-01  8.15854E-01 -4.27488E-01
    8995.440     -4.283   1.200  4.07239E-01  8.29165E-01 -4.21926E-01
    8995.812     -3.911   1.240  4.32386E-01  8.42105E-01 -4.09719E-01
    8996.196     -3.527   1.280  4.67536E-01  8.54671E-01 -3.87134E-01
    8996.593     -3.131   1.320  5.12847E-01  8.66839E-01 -3.53991E-01
    8997.001     -2.722   1.360  5.69235E-01  8.78585E-01 -3.09350E-01
    8997.422     -2.301   1.400  6.41221E-01  8.89884E-01 -2.48663E-01
    8997.854     -1.869   1.440  7.35314E-01  9.00712E-01 -1.65398E-01
    8998.299     -1.424   1.480  8.51934E-01  9.11086E-01 -5.91516E-02
    8998.757     -0.966   1.520  9.79734E-01  9.20939E-01  5.87944E-02
    8999.226     -0.497   1.560  1.09770E+00  9.30311E-01  1.67390E-01
    8999.708     -0.015   1.600  1.18042E+00  9.39161E-01  2.41263E-01
    9000.201      0.478   1.640  1.23860E+00  9.47487E-01  2.91113E-01
    9000.707      0.984   1.680  1.32594E+00  9.55311E-01  3.70627E-01
    9001.226      1.502   1.720  1.48351E+00  9.62614E-01  5.20899E-01
    9001.756      2.033   1.760  1.69254E+00  9.69377E-01  7.23159E-01
    9002.298      2.575   1.800  1.82705E+00  9.75648E-01  8.51404E-01
    9002.853      3.130   1.840  1.78999E+00  9.81411E-01  8.08578E-01
    9003.420      3.697   1.880  1.63777E+00  9.86693E-01  6.51072E-01
    9003.999      4.276   1.920  1.44701E+00  9.91479E-01  4.55532E-01
    9004.591      4.867   1.960  1.28124E+00  9.95799E-01  2.85437E-01
    9005.194      5.471   2.000  1.17608E+00  9.99683E-01  1.76398E-01
    9005.810      6.087   2.040  1.10309E+00  1.00312E+00  9.99716E-02
    9006.438      6.714   2.080  1.03723E+00  1.00616E+00  3.10752E-02
    9007.078      7.355   2.120  9.83796E-01  1.00879E+00 -2.49920E-02
    9007.730      8.007   2.160  9.50616E-01  1.01106E+00 -6.04477E-02
    9008.394      8.671   2.200  9.35540E-01  1.01297E+00 -7.74343E-02
    9009.071      9.348   2.240  9.33381E-01  1.01455E+00 -8.11684E-02
    9009.760     10.037   2.280  9.43305E-01  1.01582E+00 -7.25167E-02
    9010.461     10.738   2.320  9.69133E-01  1.01680E+00 -4.76701E-02
    9011.174     11.451   2.360  1.01572E+00  1.01750E+00 -1.78133E-03
    9011.900     12.176   2.400  1.08432E+00  1.01797E+00  6.63529E-02
    9012.637     12.914   2.440  1.15418E+00  1.01820E+00  1.35974E-01
    9013.387     13.664   2.480  1.20239E+00  1.01825E+00  1.84139E-01
    9014.149     14.426   2.520  1.22548E+00  1.01809E+00  2.07384E-01
    9014.923     15.200   2.560  1.22717E+00  1.01777E+00  2.09402E-01
    9015.710     15.986   2.600  1.21178E+00  1.01729E+00  1.94496E-01
    9016.508     16.785   2.640  1.18181E+00  1.01667E+00  1.65135E-01
    9017.319     17.596   2.680  1.13850E+00  1.01596E+00  1.22541E-01
    9018.142     18.419   2.720  1.08555E+00  1.01513E+00  7.04160E-02
    9018.977     19.254   2.760  1.03010E+00  1.01422E+00  1.58856E-02
    9019.824     20.101   2.800  9.77792E-01  1.01325E+00 -3.54562E-02
    9020.684     20.961   2.840  9.31842E-01  1.01221E+00 -8.03670E-02
    9021.556     21.833   2.880  8.93239E-01  1.01115E+00 -1.17906E-01
    9022.440     22.716   2.920  8.61611E-01  1.01002E+00 -1.48413E-01
    9023.336     23.613   2.960  8.36545E-01  1.00891E+00 -1.72368E-01
    9024.244     24.521   3.000  8.17430E-01  1.00777E+00 -1.90345E-01
    9025.164     25.441   3.040  8.03409E-01  1.00663E+00 -2.03225E-01
    9026.097     26.374   3.080  7.93883E-01  1.00550E+00 -2.11613E-01
    9027.042     27.319   3.120  7.88713E-01  1.00439E+00 -2.15673E-01
    9027.999     28.276   3.160  7.87900E-01  1.00331E+00 -2.15409E-01
    9028.968     29.245   3.200  7.91440E-01  1.00225E+00 -2.10807E-01
    9029.950     30.227   3.240  7.99563E-01  1.00124E+00 -2.01682E-01
    9030.943     31.220   3.280  8.11797E-01  1.00028E+00 -1.88486E-01
    9031.949     32.226   3.320  8.27025E-01  9.99344E-01 -1.72319E-01
    9032.967     33.244   3.360  8.43979E-01  9.98471E-01 -1.54491E-01
    9033.997     34.274   3.400  8.61791E-01  9.97668E-01 -1.35878E-01
    9035.040     35.317   3.440  8.80463E-01  9.96915E-01 -1.16452E-01
    9036.095     36.371   3.480  9.01122E-01  9.96233E-01 -9.51109E-02
    9037.161     37.438   3.520  9.24747E-01  9.95603E-01 -7.08555E-02
    9038.240     38.517   3.560  9.51306E-01  9.95046E-01 -4.37403E-02
    9039.331     39.608   3.600  9.79824E-01  9.94565E-01 -1.47406E-02
    9040.435     40.712   3.640  1.00936E+00  9.94138E-01  1.52248E-02
    9041.550     41.827   3.680  1.03967E+00  9.93808E-01  4.58587E-02
    9042.678     42.955   3.720  1.07057E+00  9.93531E-01  7.70354E-02
    9043.818     44.095   3.760  1.10120E+00  9.93308E-01  1.07896E-01
    9044.970     45.247   3.800  1.12912E+00  9.93181E-01  1.35941E-01
    9046.135     46.411   3.840  1.15029E+00  9.93107E-01  1.57179E-01
    9047.311     47.588   3.880  1.16090E+00  9.93108E-01  1.67788E-01
    9048.500     48.777   3.920  1.15912E+00  9.93161E-01  1.65957E-01
    9049.701     49.978   3.960  1.14547E+00  9.93285E-01  1.52185E-01
    9050.914     51.191   4.000  1.12220E+00  9.93482E-01  1.28722E-01
    9052.139     52.416   4.040  1.09256E+00  9.93728E-01  9.88282E-02
    9053.377     53.653   4.080  1.06012E+00  9.94020E-01  6.60976E-02
    9054.626     54.903   4.120  1.02836E+00  9.94379E-01  3.39767E-02
    9055.888     56.165   4.160  9.99992E-01  9.94784E-01  5.20743E-03
    9057.162     57.439   4.200  9.76743E-01  9.95232E-01 -1.84892E-02
    9058.448     58.725   4.240  9.59212E-01  9.95720E-01 -3.65081E-02
    9059.747     60.024   4.280  9.47154E-01  9.96250E-01 -4.90956E-02
    9061.058     61.334   4.320  9.39977E-01  9.96841E-01 -5.68639E-02
    9062.380     62.657   4.360  9.37062E-01  9.97447E-01 -6.03844E-02
    9063.715     63.992   4.400  9.38176E-01  9.98065E-01 -5.98884E-02
    9065.063     65.339   4.440  9.43803E-01  9.98736E-01 -5.49336E-02
    9066.422     66.699   4.480  9.54949E-01  9.99417E-01 -4.44687E-02
    9067.794     68.070   4.520  9.72685E-01  1.00011E+00 -2.74212E-02
    9069.177     69.454   4.560  9.97193E-01  1.00082E+00 -3.62747E-03
    9070.573     70.850   4.600  1.02701E+00  1.00152E+00  2.54913E-02
    9071.982     72.258   4.640  1.05893E+00  1.00223E+00  5.66950E-02
    9073.402     73.679   4.680  1.08847E+00  1.00295E+00  8.55150E-02
    9074.834     75.111   4.720  1.11126E+00  1.00367E+00  1.07584E-01
    9076.279     76.556   4.760  1.12463E+00  1.00439E+00  1.20239E-01
    9077.736     78.013   4.800  1.12845E+00  1.00510E+00  1.23358E-01
    9079.205     79.482   4.840  1.12443E+00  1.00577E+00  1.18659E-01
    9080.687     80.963   4.880  1.11507E+00  1.00642E+00  1.08655E-01
    9082.180     82.457   4.920  1.10277E+00  1.00705E+00  9.57161E-02
    9083.686     83.963   4.960  1.08917E+00  1.00768E+00  8.14904E-02
    9085.204     85.481   5.000  1.07495E+00  1.00827E+00  6.66882E-02
    9086.734     87.011   5.040  1.05989E+00  1.00881E+00  5.10721E-02
    9088.276     88.553   5.080  1.04326E+00  1.00932E+00  3.39325E-02
    9089.831     90.107   5.120  1.02445E+00  1.00980E+00  1.46556E-02
    9091.397     91.674   5.160  1.00330E+00  1.01025E+00 -6.94546E-03
    9092.976     93.253   5.200  9.80252E-01  1.01064E+00 -3.03842E-02
    9094.567     94.844   5.240  9.56171E-01  1.01098E+00 -5.48092E-02
    9096.170     96.447   5.280  9.31856E-01  1.01128E+00 -7.94259E-02
    9097.786     98.063   5.320  9.08234E-01  1.01154E+00 -1.03305E-01
    9099.413     99.690   5.360  8.86996E-01  1.01175E+00 -1.24756E-01
    9101.053    101.330   5.400  8.70262E-01  1.01192E+00 -1.41659E-01
    9102.705    102.982   5.440  8.59524E-01  1.01202E+00 -1.52497E-01
    9104.369    104.646   5.480  8.55218E-01  1.01207E+00 -1.56856E-01
    9106.046    106.323   5.520  8.57034E-01  1.01208E+00 -1.55050E-01
    9107.734    108.011   5.560  8.64468E-01  1.01205E+00 -1.47578E-01
    9109.435    109.712   5.600  8.77198E-01  1.01194E+00 -1.34743E-01
    9111.148    111.425   5.640  8.95363E-01  1.01179E+00 -1.16428E-01
    9112.873    113.150   5.680  9.19328E-01  1.01160E+00 -9.22691E-02
    9114.611    114.888   5.720  9.48637E-01  1.01136E+00 -6.27248E-02
    9116.360    116.637   5.760  9.81071E-01  1.01108E+00 -3.00133E-02
    9118.122    118.399   5.800  1.01245E+00  1.01076E+00  1.68457E-03
    9119.896    120.173   5.840  1.03801E+00  1.01038E+00  2.76278E-02
    9121.682    121.959   5.880  1.05533E+00  1.00998E+00  4.53464E-02
    9123.480    123.757   5.920  1.06564E+00  1.00953E+00  5.61172E-02
    9125.291    125.568   5.960  1.07221E+00  1.00906E+00  6.31458E-02
    9127.113    127.390   6.000  1.07788E+00  1.00853E+00  6.93522E-02
