# # comment:                                                     FEFF 9.9.1  
# # Source:
# # Structure
# # Reduced
# # space
# # abc:
# # angles:
# # sites:
# # POT  SCF 100  7.0000   0, screened core-hole, AFOLP (folp(0)= 1.150)
# # Abs   Z=29 Rmt= 1.176 Rnm= 1.307 K  shell
# # Pot 1 Z= 3 Rmt= 1.356 Rnm= 1.414
# # Pot 2 Z=29 Rmt= 1.176 Rnm= 1.307
# # Pot 3 Z= 6 Rmt= 0.678 Rnm= 0.925
# # Pot 4 Z= 8 Rmt= 0.928 Rnm= 1.108
# # Gam_ch=1.729E+00 H-L exch Vi= 0.000E+00 Vr= 0.000E+00
# # Mu=-7.582E+00eV kf=2.347E+00 Vint=-1.524E+01eV Rs_int= 1.545
# FMS rfms= 9.0000
# # PATH  Rmax=-1.000,  Keep_limit= 0.00, Heap_limit 0.00  Pwcrit= 2.50%
#  S02=0.950  Temp=   0.00  Debye_temp=   0.00  Global_sig2= 0.00000
#  Energy zero shift, vr, vi    0.00000E+00   0.00000E+00
#  Curved wave amplitude ratio filter   4.000%
#     file         sig2 tot  cw amp ratio   deg  nlegs   reff  inp sig2
#     0/   0 paths used
#  xsedge+ 50, used to normalize mu           2.4564E-04
#  -----------------------------------------------------------------------
#  omega    e    k    mu    mu0     chi     @#
    8983.388    -11.392  -1.000  2.93567E-02  4.93888E-02 -2.00320E-02
    8983.686    -11.093  -0.960  3.05277E-02  5.28398E-02 -2.23122E-02
    8983.973    -10.806  -0.920  3.17528E-02  5.66630E-02 -2.49102E-02
    8984.247    -10.532  -0.880  3.30349E-02  6.09121E-02 -2.78772E-02
    8984.509    -10.270  -0.840  3.43766E-02  6.56494E-02 -3.12729E-02
    8984.759    -10.020  -0.800  3.57808E-02  7.09473E-02 -3.51665E-02
    8984.997     -9.782  -0.760  3.72507E-02  7.68885E-02 -3.96379E-02
    8985.222     -9.557  -0.720  3.87889E-02  8.35664E-02 -4.47775E-02
    8985.436     -9.343  -0.680  4.03984E-02  9.10836E-02 -5.06851E-02
    8985.637     -9.142  -0.640  4.20812E-02  9.95481E-02 -5.74669E-02
    8985.826     -8.953  -0.600  4.38383E-02  1.09066E-01 -6.52275E-02
    8986.003     -8.776  -0.560  4.56685E-02  1.19727E-01 -7.40580E-02
    8986.167     -8.612  -0.520  4.75673E-02  1.31583E-01 -8.40158E-02
    8986.320     -8.459  -0.480  4.95248E-02  1.44621E-01 -9.50967E-02
    8986.460     -8.319  -0.440  5.15238E-02  1.58728E-01 -1.07204E-01
    8986.588     -8.191  -0.400  5.35382E-02  1.73660E-01 -1.20122E-01
    8986.704     -8.075  -0.360  5.55327E-02  1.89037E-01 -1.33504E-01
    8986.807     -7.972  -0.320  5.74645E-02  2.04365E-01 -1.46900E-01
    8986.899     -7.880  -0.280  5.92875E-02  2.19094E-01 -1.59807E-01
    8986.978     -7.801  -0.240  6.09575E-02  2.32696E-01 -1.71738E-01
    8987.045     -7.734  -0.200  6.24356E-02  2.44724E-01 -1.82288E-01
    8987.100     -7.679  -0.160  6.36891E-02  2.54850E-01 -1.91160E-01
    8987.143     -7.636  -0.120  6.46898E-02  2.62861E-01 -1.98171E-01
    8987.173     -7.606  -0.080  6.54158E-02  2.68636E-01 -2.03220E-01
    8987.198     -7.582   0.000  6.60064E-02  2.73280E-01 -2.07274E-01
    8987.252     -7.527   0.120  6.77149E-02  2.83744E-01 -2.16029E-01
    8987.295     -7.484   0.160  6.89765E-02  2.91917E-01 -2.22940E-01
    8987.350     -7.429   0.200  7.05418E-02  3.02337E-01 -2.31795E-01
    8987.417     -7.362   0.240  7.24359E-02  3.14918E-01 -2.42483E-01
    8987.496     -7.283   0.280  7.46222E-02  3.29390E-01 -2.54768E-01
    8987.588     -7.191   0.320  7.70993E-02  3.45455E-01 -2.68356E-01
    8987.691     -7.088   0.360  7.98548E-02  3.62646E-01 -2.82791E-01
    8987.807     -6.972   0.400  8.29078E-02  3.80528E-01 -2.97620E-01
    8987.935     -6.844   0.440  8.63089E-02  3.98666E-01 -3.12357E-01
    8988.075     -6.704   0.480  9.01613E-02  4.16740E-01 -3.26579E-01
    8988.228     -6.551   0.520  9.45827E-02  4.34523E-01 -3.39940E-01
    8988.392     -6.387   0.560  9.98077E-02  4.51920E-01 -3.52112E-01
    8988.569     -6.210   0.600  1.06080E-01  4.68926E-01 -3.62846E-01
    8988.758     -6.021   0.640  1.13762E-01  4.85544E-01 -3.71782E-01
    8988.959     -5.820   0.680  1.23276E-01  5.01871E-01 -3.78594E-01
    8989.173     -5.606   0.720  1.35053E-01  5.17950E-01 -3.82897E-01
    8989.398     -5.381   0.760  1.49467E-01  5.33887E-01 -3.84420E-01
    8989.636     -5.143   0.800  1.66400E-01  5.49695E-01 -3.83295E-01
    8989.886     -4.893   0.840  1.85273E-01  5.65437E-01 -3.80164E-01
    8990.148     -4.631   0.880  2.05031E-01  5.81167E-01 -3.76136E-01
    8990.422     -4.357   0.920  2.24830E-01  5.96886E-01 -3.72056E-01
    8990.709     -4.070   0.960  2.45350E-01  6.12605E-01 -3.67255E-01
    8991.008     -3.772   1.000  2.68521E-01  6.28323E-01 -3.59802E-01
    8991.318     -3.461   1.040  2.94608E-01  6.44035E-01 -3.49426E-01
    8991.642     -3.138   1.080  3.20546E-01  6.59728E-01 -3.39182E-01
    8991.977     -2.802   1.120  3.44423E-01  6.75385E-01 -3.30962E-01
    8992.324     -2.455   1.160  3.72187E-01  6.90963E-01 -3.18776E-01
    8992.684     -2.095   1.200  4.13871E-01  7.06454E-01 -2.92583E-01
    8993.056     -1.723   1.240  4.72885E-01  7.21790E-01 -2.48905E-01
    8993.440     -1.339   1.280  5.39972E-01  7.36981E-01 -1.97009E-01
    8993.836     -0.943   1.320  5.95426E-01  7.51953E-01 -1.56527E-01
    8994.245     -0.535   1.360  6.24019E-01  7.66691E-01 -1.42672E-01
    8994.665     -0.114   1.400  6.29773E-01  7.81164E-01 -1.51392E-01
    8995.098      0.319   1.440  6.29314E-01  7.95317E-01 -1.66003E-01
    8995.543      0.764   1.480  6.33151E-01  8.09134E-01 -1.75983E-01
    8996.000      1.221   1.520  6.44465E-01  8.22563E-01 -1.78098E-01
    8996.470      1.690   1.560  6.65899E-01  8.35591E-01 -1.69692E-01
    8996.951      2.172   1.600  6.95244E-01  8.48208E-01 -1.52963E-01
    8997.445      2.666   1.640  7.28305E-01  8.60361E-01 -1.32056E-01
    8997.951      3.172   1.680  7.61664E-01  8.72044E-01 -1.10380E-01
    8998.469      3.690   1.720  7.93434E-01  8.83225E-01 -8.97911E-02
    8998.999      4.220   1.760  8.27612E-01  8.93922E-01 -6.63097E-02
    8999.542      4.763   1.800  8.69463E-01  9.04088E-01 -3.46253E-02
    9000.097      5.318   1.840  9.23184E-01  9.13739E-01  9.44481E-03
    9000.664      5.884   1.880  9.88156E-01  9.22854E-01  6.53021E-02
    9001.243      6.464   1.920  1.05451E+00  9.31434E-01  1.23078E-01
    9001.834      7.055   1.960  1.11163E+00  9.39477E-01  1.72154E-01
    9002.437      7.658   2.000  1.15039E+00  9.47008E-01  2.03378E-01
    9003.053      8.274   2.040  1.16006E+00  9.54029E-01  2.06029E-01
    9003.681      8.902   2.080  1.14740E+00  9.60507E-01  1.86892E-01
    9004.321      9.542   2.120  1.13737E+00  9.66506E-01  1.70863E-01
    9004.973     10.194   2.160  1.14530E+00  9.72012E-01  1.73292E-01
    9005.638     10.859   2.200  1.16963E+00  9.77055E-01  1.92571E-01
    9006.315     11.535   2.240  1.19199E+00  9.81620E-01  2.10365E-01
    9007.003     12.224   2.280  1.19610E+00  9.85758E-01  2.10338E-01
    9007.704     12.925   2.320  1.19308E+00  9.89457E-01  2.03618E-01
    9008.418     13.639   2.360  1.20524E+00  9.92768E-01  2.12475E-01
    9009.143     14.364   2.400  1.23662E+00  9.95679E-01  2.40940E-01
    9009.881     15.102   2.440  1.27271E+00  9.98223E-01  2.74484E-01
    9010.630     15.851   2.480  1.29834E+00  1.00043E+00  2.97909E-01
    9011.392     16.613   2.520  1.30600E+00  1.00231E+00  3.03694E-01
    9012.167     17.388   2.560  1.28784E+00  1.00389E+00  2.83951E-01
    9012.953     18.174   2.600  1.23334E+00  1.00519E+00  2.28154E-01
    9013.752     18.973   2.640  1.15673E+00  1.00623E+00  1.50501E-01
    9014.562     19.783   2.680  1.09525E+00  1.00701E+00  8.82442E-02
    9015.385     20.606   2.720  1.06012E+00  1.00759E+00  5.25305E-02
    9016.220     21.441   2.760  1.03523E+00  1.00794E+00  2.72931E-02
    9017.068     22.289   2.800  1.00977E+00  1.00812E+00  1.65707E-03
    9017.927     23.148   2.840  9.86186E-01  1.00811E+00 -2.19200E-02
    9018.799     24.020   2.880  9.66081E-01  1.00796E+00 -4.18759E-02
    9019.683     24.904   2.920  9.48669E-01  1.00768E+00 -5.90091E-02
    9020.579     25.800   2.960  9.32964E-01  1.00728E+00 -7.43121E-02
    9021.487     26.708   3.000  9.18246E-01  1.00676E+00 -8.85127E-02
    9022.408     27.629   3.040  9.04320E-01  1.00615E+00 -1.01834E-01
    9023.341     28.562   3.080  8.91975E-01  1.00549E+00 -1.13516E-01
    9024.285     29.506   3.120  8.81744E-01  1.00473E+00 -1.22989E-01
    9025.243     30.463   3.160  8.74119E-01  1.00395E+00 -1.29829E-01
    9026.212     31.433   3.200  8.69455E-01  1.00312E+00 -1.33667E-01
    9027.193     32.414   3.240  8.67778E-01  1.00226E+00 -1.34480E-01
    9028.187     33.408   3.280  8.68888E-01  1.00136E+00 -1.32476E-01
    9029.193     34.414   3.320  8.72436E-01  1.00048E+00 -1.28047E-01
    9030.211     35.432   3.360  8.78037E-01  9.99578E-01 -1.21542E-01
    9031.241     36.462   3.400  8.85117E-01  9.98677E-01 -1.13560E-01
    9032.283     37.504   3.440  8.93454E-01  9.97802E-01 -1.04347E-01
    9033.338     38.559   3.480  9.02993E-01  9.96957E-01 -9.39639E-02
    9034.405     39.626   3.520  9.13739E-01  9.96125E-01 -8.23861E-02
    9035.484     40.705   3.560  9.25743E-01  9.95328E-01 -6.95858E-02
    9036.575     41.796   3.600  9.38894E-01  9.94568E-01 -5.56745E-02
    9037.678     42.899   3.640  9.52770E-01  9.93848E-01 -4.10783E-02
    9038.794     44.015   3.680  9.66592E-01  9.93170E-01 -2.65785E-02
    9039.922     45.143   3.720  9.79654E-01  9.92535E-01 -1.28811E-02
    9041.062     46.283   3.760  9.91424E-01  9.91966E-01 -5.41613E-04
    9042.214     47.435   3.800  1.00141E+00  9.91422E-01  9.98561E-03
    9043.378     48.599   3.840  1.00937E+00  9.90968E-01  1.84057E-02
    9044.555     49.776   3.880  1.01515E+00  9.90563E-01  2.45884E-02
    9045.743     50.964   3.920  1.01871E+00  9.90206E-01  2.85067E-02
    9046.944     52.165   3.960  1.02023E+00  9.89919E-01  3.03136E-02
    9048.157     53.378   4.000  1.01997E+00  9.89682E-01  3.02843E-02
    9049.383     54.604   4.040  1.01825E+00  9.89514E-01  2.87391E-02
    9050.620     55.841   4.080  1.01545E+00  9.89396E-01  2.60504E-02
    9051.870     57.091   4.120  1.01205E+00  9.89349E-01  2.27002E-02
    9053.132     58.353   4.160  1.00854E+00  9.89350E-01  1.91941E-02
    9054.406     59.627   4.200  1.00547E+00  9.89421E-01  1.60447E-02
    9055.692     60.913   4.240  1.00325E+00  9.89541E-01  1.37106E-02
    9056.990     62.211   4.280  1.00225E+00  9.89728E-01  1.25184E-02
    9058.301     63.522   4.320  1.00256E+00  9.89940E-01  1.26187E-02
    9059.624     64.845   4.360  1.00421E+00  9.90239E-01  1.39726E-02
    9060.959     66.180   4.400  1.00696E+00  9.90561E-01  1.63987E-02
    9062.306     67.527   4.440  1.01053E+00  9.90923E-01  1.96103E-02
    9063.665     68.886   4.480  1.01461E+00  9.91349E-01  2.32644E-02
    9065.037     70.258   4.520  1.01883E+00  9.91794E-01  2.70326E-02
    9066.421     71.642   4.560  1.02295E+00  9.92298E-01  3.06499E-02
    9067.817     73.038   4.600  1.02672E+00  9.92817E-01  3.39048E-02
    9069.225     74.446   4.640  1.02999E+00  9.93371E-01  3.66195E-02
    9070.645     75.866   4.680  1.03262E+00  9.93960E-01  3.86557E-02
    9072.078     77.299   4.720  1.03441E+00  9.94559E-01  3.98533E-02
    9073.523     78.744   4.760  1.03523E+00  9.95187E-01  4.00448E-02
    9074.980     80.201   4.800  1.03491E+00  9.95821E-01  3.90914E-02
    9076.449     81.670   4.840  1.03331E+00  9.96461E-01  3.68523E-02
    9077.930     83.151   4.880  1.03031E+00  9.97127E-01  3.31828E-02
    9079.424     84.644   4.920  1.02579E+00  9.97796E-01  2.79984E-02
    9080.929     86.150   4.960  1.01985E+00  9.98465E-01  2.13893E-02
    9082.447     87.668   5.000  1.01291E+00  9.99132E-01  1.37826E-02
    9083.977     89.198   5.040  1.00569E+00  9.99795E-01  5.89753E-03
    9085.520     90.740   5.080  9.98997E-01  1.00043E+00 -1.43319E-03
    9087.074     92.295   5.120  9.93538E-01  1.00106E+00 -7.51996E-03
    9088.641     93.862   5.160  9.89692E-01  1.00168E+00 -1.19862E-02
    9090.220     95.440   5.200  9.87395E-01  1.00227E+00 -1.48718E-02
    9091.811     97.031   5.240  9.86148E-01  1.00284E+00 -1.66941E-02
    9093.414     98.635   5.280  9.85017E-01  1.00336E+00 -1.83441E-02
    9095.029    100.250   5.320  9.83088E-01  1.00389E+00 -2.08008E-02
    9096.657    101.878   5.360  9.79674E-01  1.00436E+00 -2.46829E-02
    9098.297    103.518   5.400  9.74870E-01  1.00481E+00 -2.99374E-02
    9099.949    105.170   5.440  9.69396E-01  1.00520E+00 -3.58003E-02
    9101.613    106.834   5.480  9.64484E-01  1.00557E+00 -4.10810E-02
    9103.289    108.510   5.520  9.61326E-01  1.00587E+00 -4.45454E-02
    9104.978    110.199   5.560  9.60854E-01  1.00616E+00 -4.53022E-02
    9106.679    111.900   5.600  9.63441E-01  1.00638E+00 -4.29349E-02
    9108.392    113.613   5.640  9.69092E-01  1.00655E+00 -3.74596E-02
    9110.117    115.338   5.680  9.77451E-01  1.00668E+00 -2.92322E-02
    9111.854    117.075   5.720  9.87805E-01  1.00677E+00 -1.89662E-02
    9113.604    118.825   5.760  9.98969E-01  1.00679E+00 -7.82283E-03
    9115.365    120.586   5.800  1.00942E+00  1.00679E+00  2.62788E-03
    9117.139    122.360   5.840  1.01747E+00  1.00670E+00  1.07749E-02
    9118.925    124.146   5.880  1.02212E+00  1.00659E+00  1.55383E-02
    9120.724    125.945   5.920  1.02323E+00  1.00643E+00  1.67935E-02
    9122.534    127.755   5.960  1.02147E+00  1.00620E+00  1.52686E-02
    9124.357    129.578   6.000  1.01795E+00  1.00590E+00  1.20528E-02
