# # comment:                                                     FEFF 9.9.1  
# # Source:
# # Structure
# # Reduced
# # space
# # abc:
# # angles:
# # sites:
# # POT  SCF 100  7.0000   0, screened core-hole, AFOLP (folp(0)= 1.150)
# # Abs   Z=29 Rmt= 1.236 Rnm= 1.349 K  shell
# # Pot 1 Z=29 Rmt= 1.260 Rnm= 1.363
# # Pot 2 Z= 1 Rmt= 0.724 Rnm= 0.855
# # Pot 3 Z=16 Rmt= 0.853 Rnm= 1.109
# # Pot 4 Z= 8 Rmt= 0.995 Rnm= 1.126
# # Gam_ch=1.729E+00 H-L exch Vi= 0.000E+00 Vr= 0.000E+00
# # Mu=-6.989E+00eV kf=2.160E+00 Vint=-1.376E+01eV Rs_int= 1.679
# FMS rfms= 9.0000
# # PATH  Rmax=-1.000,  Keep_limit= 0.00, Heap_limit 0.00  Pwcrit= 2.50%
#  S02=0.950  Temp=   0.00  Debye_temp=   0.00  Global_sig2= 0.00000
#  Energy zero shift, vr, vi    0.00000E+00   0.00000E+00
#  Curved wave amplitude ratio filter   4.000%
#     file         sig2 tot  cw amp ratio   deg  nlegs   reff  inp sig2
#     0/   0 paths used
#  xsedge+ 50, used to normalize mu           2.4274E-04
#  -----------------------------------------------------------------------
#  omega    e    k    mu    mu0     chi     @#
    8983.369    -10.799  -1.000  3.60342E-02  5.50556E-02 -1.90214E-02
    8983.667    -10.500  -0.960  3.77084E-02  5.90002E-02 -2.12918E-02
    8983.954    -10.214  -0.920  3.94832E-02  6.33738E-02 -2.38906E-02
    8984.228     -9.939  -0.880  4.13666E-02  6.82380E-02 -2.68714E-02
    8984.490     -9.677  -0.840  4.33679E-02  7.36647E-02 -3.02968E-02
    8984.740     -9.427  -0.800  4.54971E-02  7.97368E-02 -3.42397E-02
    8984.978     -9.190  -0.760  4.77656E-02  8.65492E-02 -3.87836E-02
    8985.203     -8.964  -0.720  5.01857E-02  9.42090E-02 -4.40233E-02
    8985.417     -8.751  -0.680  5.27703E-02  1.02834E-01 -5.00633E-02
    8985.618     -8.550  -0.640  5.55323E-02  1.12547E-01 -5.70144E-02
    8985.807     -8.361  -0.600  5.84828E-02  1.23469E-01 -6.49864E-02
    8985.984     -8.184  -0.560  6.16290E-02  1.35704E-01 -7.40751E-02
    8986.148     -8.019  -0.520  6.49693E-02  1.49311E-01 -8.43417E-02
    8986.301     -7.867  -0.480  6.84885E-02  1.64274E-01 -9.57857E-02
    8986.441     -7.727  -0.440  7.21512E-02  1.80463E-01 -1.08312E-01
    8986.569     -7.599  -0.400  7.58975E-02  1.97600E-01 -1.21703E-01
    8986.685     -7.483  -0.360  7.96422E-02  2.15250E-01 -1.35608E-01
    8986.788     -7.379  -0.320  8.32824E-02  2.32847E-01 -1.49565E-01
    8986.880     -7.288  -0.280  8.67099E-02  2.49763E-01 -1.63053E-01
    8986.959     -7.208  -0.240  8.98268E-02  2.65389E-01 -1.75563E-01
    8987.026     -7.141  -0.200  9.25555E-02  2.79214E-01 -1.86659E-01
    8987.081     -7.087  -0.160  9.48419E-02  2.90858E-01 -1.96016E-01
    8987.124     -7.044  -0.120  9.66508E-02  3.00074E-01 -2.03423E-01
    8987.154     -7.013  -0.080  9.79609E-02  3.06721E-01 -2.08760E-01
    8987.179     -6.989   0.000  9.90310E-02  3.12067E-01 -2.13036E-01
    8987.233     -6.934   0.120  1.01507E-01  3.24130E-01 -2.22623E-01
    8987.276     -6.892   0.160  1.03383E-01  3.33529E-01 -2.30146E-01
    8987.331     -6.837   0.200  1.05781E-01  3.45563E-01 -2.39782E-01
    8987.398     -6.770   0.240  1.08669E-01  3.60074E-01 -2.51405E-01
    8987.477     -6.690   0.280  1.12056E-01  3.76830E-01 -2.64774E-01
    8987.569     -6.599   0.320  1.15912E-01  3.95412E-01 -2.79500E-01
    8987.672     -6.495   0.360  1.20274E-01  4.15364E-01 -2.95090E-01
    8987.788     -6.379   0.400  1.25226E-01  4.36177E-01 -3.10951E-01
    8987.916     -6.251   0.440  1.30808E-01  4.57342E-01 -3.26535E-01
    8988.056     -6.111   0.480  1.37163E-01  4.78495E-01 -3.41333E-01
    8988.209     -5.959   0.520  1.44483E-01  4.99383E-01 -3.54900E-01
    8988.373     -5.794   0.560  1.53014E-01  5.19895E-01 -3.66880E-01
    8988.550     -5.617   0.600  1.63079E-01  5.39994E-01 -3.76915E-01
    8988.739     -5.428   0.640  1.75026E-01  5.59685E-01 -3.84659E-01
    8988.940     -5.227   0.680  1.89345E-01  5.79044E-01 -3.89699E-01
    8989.154     -5.014   0.720  2.06497E-01  5.98116E-01 -3.91619E-01
    8989.379     -4.788   0.760  2.26983E-01  6.16985E-01 -3.90002E-01
    8989.617     -4.551   0.800  2.51200E-01  6.35663E-01 -3.84463E-01
    8989.867     -4.301   0.840  2.79233E-01  6.54190E-01 -3.74957E-01
    8990.129     -4.039   0.880  3.10447E-01  6.72593E-01 -3.62146E-01
    8990.403     -3.764   0.920  3.43292E-01  6.90845E-01 -3.47554E-01
    8990.690     -3.478   0.960  3.76232E-01  7.08969E-01 -3.32736E-01
    8990.988     -3.179   1.000  4.08849E-01  7.26935E-01 -3.18086E-01
    8991.299     -2.868   1.040  4.41631E-01  7.44687E-01 -3.03056E-01
    8991.622     -2.545   1.080  4.75652E-01  7.62202E-01 -2.86550E-01
    8991.958     -2.210   1.120  5.14124E-01  7.79433E-01 -2.65308E-01
    8992.305     -1.862   1.160  5.63028E-01  7.96346E-01 -2.33318E-01
    8992.665     -1.503   1.200  6.25950E-01  8.12888E-01 -1.86938E-01
    8993.037     -1.131   1.240  6.96447E-01  8.28981E-01 -1.32533E-01
    8993.421     -0.747   1.280  7.56166E-01  8.44629E-01 -8.84625E-02
    8993.817     -0.351   1.320  7.85578E-01  8.59756E-01 -7.41779E-02
    8994.225      0.058   1.360  7.82659E-01  8.74344E-01 -9.16857E-02
    8994.646      0.479   1.400  7.63554E-01  8.88319E-01 -1.24765E-01
    8995.079      0.911   1.440  7.46563E-01  9.01665E-01 -1.55102E-01
    8995.524      1.356   1.480  7.43179E-01  9.14373E-01 -1.71194E-01
    8995.981      1.814   1.520  7.54700E-01  9.26394E-01 -1.71694E-01
    8996.450      2.283   1.560  7.75022E-01  9.37721E-01 -1.62699E-01
    8996.932      2.765   1.600  8.01483E-01  9.48348E-01 -1.46865E-01
    8997.426      3.258   1.640  8.38798E-01  9.58255E-01 -1.19457E-01
    8997.932      3.764   1.680  8.94938E-01  9.67443E-01 -7.25052E-02
    8998.450      4.282   1.720  9.76628E-01  9.75934E-01  6.94618E-04
    8998.980      4.813   1.760  1.08642E+00  9.83712E-01  1.02713E-01
    8999.523      5.355   1.800  1.22167E+00  9.90785E-01  2.30881E-01
    9000.078      5.910   1.840  1.36621E+00  9.97203E-01  3.69003E-01
    9000.645      6.477   1.880  1.48528E+00  1.00296E+00  4.82321E-01
    9001.224      7.056   1.920  1.54447E+00  1.00806E+00  5.36408E-01
    9001.815      7.647   1.960  1.54121E+00  1.01258E+00  5.28633E-01
    9002.418      8.251   2.000  1.49744E+00  1.01650E+00  4.80947E-01
    9003.034      8.867   2.040  1.42221E+00  1.01989E+00  4.02325E-01
    9003.662      9.494   2.080  1.31909E+00  1.02272E+00  2.96371E-01
    9004.302     10.135   2.120  1.21421E+00  1.02510E+00  1.89106E-01
    9004.954     10.787   2.160  1.13053E+00  1.02700E+00  1.03531E-01
    9005.619     11.451   2.200  1.07225E+00  1.02847E+00  4.37782E-02
    9006.295     12.128   2.240  1.03772E+00  1.02954E+00  8.18356E-03
    9006.984     12.817   2.280  1.02443E+00  1.03026E+00 -5.82844E-03
    9007.685     13.518   2.320  1.02848E+00  1.03064E+00 -2.15935E-03
    9008.399     14.231   2.360  1.04407E+00  1.03070E+00  1.33725E-02
    9009.124     14.956   2.400  1.06659E+00  1.03050E+00  3.60961E-02
    9009.862     15.694   2.440  1.09655E+00  1.03005E+00  6.64998E-02
    9010.611     16.444   2.480  1.13227E+00  1.02938E+00  1.02889E-01
    9011.373     17.206   2.520  1.16656E+00  1.02851E+00  1.38040E-01
    9012.148     17.980   2.560  1.18691E+00  1.02750E+00  1.59408E-01
    9012.934     18.766   2.600  1.17867E+00  1.02633E+00  1.52341E-01
    9013.733     19.565   2.640  1.15231E+00  1.02504E+00  1.27270E-01
    9014.543     20.376   2.680  1.11719E+00  1.02363E+00  9.35592E-02
    9015.366     21.199   2.720  1.08076E+00  1.02215E+00  5.86112E-02
    9016.201     22.034   2.760  1.04639E+00  1.02060E+00  2.57817E-02
    9017.049     22.881   2.800  1.01500E+00  1.01901E+00 -4.01442E-03
    9017.908     23.741   2.840  9.86974E-01  1.01741E+00 -3.04314E-02
    9018.780     24.612   2.880  9.62150E-01  1.01577E+00 -5.36177E-02
    9019.664     25.496   2.920  9.40472E-01  1.01413E+00 -7.36551E-02
    9020.560     26.393   2.960  9.22291E-01  1.01251E+00 -9.02225E-02
    9021.468     27.301   3.000  9.07549E-01  1.01091E+00 -1.03362E-01
    9022.389     28.221   3.040  8.96157E-01  1.00934E+00 -1.13187E-01
    9023.322     29.154   3.080  8.88055E-01  1.00784E+00 -1.19784E-01
    9024.266     30.099   3.120  8.82764E-01  1.00636E+00 -1.23595E-01
    9025.223     31.056   3.160  8.79772E-01  1.00495E+00 -1.25176E-01
    9026.193     32.025   3.200  8.78716E-01  1.00361E+00 -1.24894E-01
    9027.174     33.007   3.240  8.79248E-01  1.00233E+00 -1.23080E-01
    9028.168     34.000   3.280  8.80852E-01  1.00113E+00 -1.20273E-01
    9029.174     35.006   3.320  8.83183E-01  1.00003E+00 -1.16843E-01
    9030.192     36.024   3.360  8.86048E-01  9.98988E-01 -1.12940E-01
    9031.222     37.054   3.400  8.89543E-01  9.98055E-01 -1.08512E-01
    9032.264     38.097   3.440  8.93912E-01  9.97209E-01 -1.03297E-01
    9033.319     39.151   3.480  8.99575E-01  9.96451E-01 -9.68760E-02
    9034.386     40.218   3.520  9.07012E-01  9.95801E-01 -8.87890E-02
    9035.465     41.297   3.560  9.16370E-01  9.95240E-01 -7.88703E-02
    9036.556     42.388   3.600  9.27686E-01  9.94789E-01 -6.71035E-02
    9037.659     43.492   3.640  9.40563E-01  9.94404E-01 -5.38410E-02
    9038.775     44.607   3.680  9.54363E-01  9.94129E-01 -3.97660E-02
    9039.903     45.735   3.720  9.68323E-01  9.93965E-01 -2.56418E-02
    9041.043     46.875   3.760  9.81811E-01  9.93887E-01 -1.20765E-02
    9042.195     48.027   3.800  9.94390E-01  9.93894E-01  4.95644E-04
    9043.359     49.191   3.840  1.00579E+00  9.93985E-01  1.18060E-02
    9044.536     50.368   3.880  1.01598E+00  9.94158E-01  2.18243E-02
    9045.724     51.557   3.920  1.02504E+00  9.94414E-01  3.06265E-02
    9046.925     52.758   3.960  1.03310E+00  9.94774E-01  3.83240E-02
    9048.138     53.971   4.000  1.04036E+00  9.95192E-01  4.51721E-02
    9049.364     55.196   4.040  1.04707E+00  9.95687E-01  5.13786E-02
    9050.601     56.433   4.080  1.05323E+00  9.96257E-01  5.69722E-02
    9051.851     57.683   4.120  1.05871E+00  9.96878E-01  6.18359E-02
    9053.113     58.945   4.160  1.06333E+00  9.97570E-01  6.57584E-02
    9054.387     60.219   4.200  1.06681E+00  9.98310E-01  6.84954E-02
    9055.673     61.505   4.240  1.06888E+00  9.99096E-01  6.97850E-02
    9056.971     62.804   4.280  1.06951E+00  9.99946E-01  6.95631E-02
    9058.282     64.114   4.320  1.06878E+00  1.00084E+00  6.79383E-02
    9059.605     65.437   4.360  1.06703E+00  1.00174E+00  6.52888E-02
    9060.940     66.772   4.400  1.06489E+00  1.00268E+00  6.22092E-02
    9062.287     68.119   4.440  1.06298E+00  1.00366E+00  5.93229E-02
    9063.646     69.479   4.480  1.06167E+00  1.00464E+00  5.70237E-02
    9065.018     70.850   4.520  1.06098E+00  1.00565E+00  5.53282E-02
    9066.402     72.234   4.560  1.06056E+00  1.00667E+00  5.38951E-02
    9067.798     73.630   4.600  1.05976E+00  1.00768E+00  5.20781E-02
    9069.206     75.038   4.640  1.05796E+00  1.00870E+00  4.92634E-02
    9070.626     76.459   4.680  1.05485E+00  1.00968E+00  4.51611E-02
    9072.059     77.891   4.720  1.05053E+00  1.01069E+00  3.98477E-02
    9073.504     79.336   4.760  1.04532E+00  1.01166E+00  3.36650E-02
    9074.961     80.793   4.800  1.03956E+00  1.01260E+00  2.69653E-02
    9076.430     82.262   4.840  1.03340E+00  1.01352E+00  1.98853E-02
    9077.911     83.743   4.880  1.02673E+00  1.01441E+00  1.23282E-02
    9079.405     85.237   4.920  1.01932E+00  1.01525E+00  4.06984E-03
    9080.910     86.743   4.960  1.01102E+00  1.01606E+00 -5.04211E-03
    9082.428     88.261   5.000  1.00192E+00  1.01685E+00 -1.49241E-02
    9083.958     89.791   5.040  9.92291E-01  1.01757E+00 -2.52771E-02
    9085.500     91.333   5.080  9.82637E-01  1.01822E+00 -3.55795E-02
    9087.055     92.887   5.120  9.73633E-01  1.01884E+00 -4.52081E-02
    9088.622     94.454   5.160  9.65797E-01  1.01939E+00 -5.35961E-02
    9090.200     96.033   5.200  9.59551E-01  1.01987E+00 -6.03199E-02
    9091.792     97.624   5.240  9.55161E-01  1.02030E+00 -6.51384E-02
    9093.395     99.227   5.280  9.52796E-01  1.02068E+00 -6.78811E-02
    9095.010    100.843   5.320  9.52531E-01  1.02098E+00 -6.84483E-02
    9096.638    102.470   5.360  9.54422E-01  1.02120E+00 -6.67834E-02
    9098.278    104.110   5.400  9.58418E-01  1.02138E+00 -6.29601E-02
    9099.930    105.762   5.440  9.64256E-01  1.02147E+00 -5.72184E-02
    9101.594    107.426   5.480  9.71438E-01  1.02149E+00 -5.00554E-02
    9103.270    109.103   5.520  9.79377E-01  1.02146E+00 -4.20843E-02
    9104.959    110.791   5.560  9.87490E-01  1.02136E+00 -3.38653E-02
    9106.660    112.492   5.600  9.95445E-01  1.02120E+00 -2.57527E-02
    9108.373    114.205   5.640  1.00302E+00  1.02097E+00 -1.79451E-02
    9110.098    115.930   5.680  1.01014E+00  1.02069E+00 -1.05447E-02
    9111.835    117.668   5.720  1.01666E+00  1.02033E+00 -3.67192E-03
    9113.585    119.417   5.760  1.02241E+00  1.01993E+00  2.47612E-03
    9115.346    121.179   5.800  1.02711E+00  1.01946E+00  7.64260E-03
    9117.120    122.953   5.840  1.03061E+00  1.01895E+00  1.16644E-02
    9118.906    124.739   5.880  1.03299E+00  1.01840E+00  1.45958E-02
    9120.705    126.537   5.920  1.03451E+00  1.01781E+00  1.67083E-02
    9122.515    128.348   5.960  1.03546E+00  1.01715E+00  1.83097E-02
    9124.338    130.170   6.000  1.03597E+00  1.01645E+00  1.95196E-02
