# # comment:                                                     FEFF 9.9.1  
# # Source:
# # Structure
# # Reduced
# # space
# # abc:
# # angles:103.864015
# # sites:
# # POT  SCF 100  7.0000   0, screened core-hole, AFOLP (folp(0)= 1.150)
# # Abs   Z=29 Rmt= 1.269 Rnm= 1.339 K  shell
# # Pot 1 Z=22 Rmt= 1.269 Rnm= 1.398
# # Pot 2 Z=29 Rmt= 1.245 Rnm= 1.321
# # Pot 3 Z= 5 Rmt= 0.769 Rnm= 0.986
# # Pot 4 Z= 8 Rmt= 0.907 Rnm= 1.050
# # Gam_ch=1.729E+00 H-L exch Vi= 0.000E+00 Vr= 0.000E+00
# # Mu=-6.929E+00eV kf=2.385E+00 Vint=-1.735E+01eV Rs_int= 1.521
# FMS rfms= 9.0000
# # PATH  Rmax=-1.000,  Keep_limit= 0.00, Heap_limit 0.00  Pwcrit= 2.50%
#  S02=0.950  Temp=   0.00  Debye_temp=   0.00  Global_sig2= 0.00000
#  Energy zero shift, vr, vi    0.00000E+00   0.00000E+00
#  Curved wave amplitude ratio filter   4.000%
#     file         sig2 tot  cw amp ratio   deg  nlegs   reff  inp sig2
#     0/   0 paths used
#  xsedge+ 50, used to normalize mu           2.4870E-04
#  -----------------------------------------------------------------------
#  omega    e    k    mu    mu0     chi     @#
    8983.366    -10.739  -1.000  4.40576E-02  5.23447E-02 -8.28713E-03
    8983.665    -10.440  -0.960  4.68942E-02  5.61380E-02 -9.24383E-03
    8983.951    -10.154  -0.920  5.00205E-02  6.03548E-02 -1.03344E-02
    8984.225     -9.880  -0.880  5.34772E-02  6.50577E-02 -1.15805E-02
    8984.487     -9.618  -0.840  5.73117E-02  7.03198E-02 -1.30080E-02
    8984.737     -9.368  -0.800  6.15785E-02  7.62257E-02 -1.46472E-02
    8984.975     -9.130  -0.760  6.63395E-02  8.28727E-02 -1.65333E-02
    8985.201     -8.904  -0.720  7.16639E-02  9.03709E-02 -1.87070E-02
    8985.414     -8.691  -0.680  7.76276E-02  9.88415E-02 -2.12139E-02
    8985.615     -8.490  -0.640  8.43094E-02  1.08412E-01 -2.41031E-02
    8985.804     -8.301  -0.600  9.17863E-02  1.19210E-01 -2.74235E-02
    8985.981     -8.124  -0.560  1.00123E-01  1.31341E-01 -3.12177E-02
    8986.146     -7.959  -0.520  1.09359E-01  1.44871E-01 -3.55112E-02
    8986.298     -7.807  -0.480  1.19487E-01  1.59785E-01 -4.02976E-02
    8986.438     -7.667  -0.440  1.30430E-01  1.75952E-01 -4.55224E-02
    8986.566     -7.539  -0.400  1.42022E-01  1.93090E-01 -5.10684E-02
    8986.682     -7.423  -0.360  1.54000E-01  2.10754E-01 -5.67543E-02
    8986.786     -7.319  -0.320  1.66017E-01  2.28368E-01 -6.23510E-02
    8986.877     -7.228  -0.280  1.77672E-01  2.45289E-01 -6.76167E-02
    8986.956     -7.149  -0.240  1.88564E-01  2.60903E-01 -7.23390E-02
    8987.023     -7.082  -0.200  1.98330E-01  2.74697E-01 -7.63672E-02
    8987.078     -7.027  -0.160  2.06671E-01  2.86295E-01 -7.96234E-02
    8987.121     -6.984  -0.120  2.13368E-01  2.95459E-01 -8.20905E-02
    8987.151     -6.954  -0.080  2.18268E-01  3.02059E-01 -8.37911E-02
    8987.176     -6.929   0.000  2.22288E-01  3.07361E-01 -8.50735E-02
    8987.231     -6.874   0.120  2.31170E-01  3.19301E-01 -8.81305E-02
    8987.273     -6.832   0.160  2.38193E-01  3.28577E-01 -9.03843E-02
    8987.328     -6.777   0.200  2.47336E-01  3.40410E-01 -9.30739E-02
    8987.395     -6.710   0.240  2.58668E-01  3.54648E-01 -9.59806E-02
    8987.474     -6.630   0.280  2.72124E-01  3.70955E-01 -9.88318E-02
    8987.566     -6.539   0.320  2.87653E-01  3.88922E-01 -1.01268E-01
    8987.670     -6.435   0.360  3.05018E-01  4.07995E-01 -1.02977E-01
    8987.785     -6.320   0.400  3.23849E-01  4.27630E-01 -1.03781E-01
    8987.913     -6.192   0.440  3.43426E-01  4.47269E-01 -1.03844E-01
    8988.054     -6.051   0.480  3.62667E-01  4.66537E-01 -1.03870E-01
    8988.206     -5.899   0.520  3.79979E-01  4.85182E-01 -1.05203E-01
    8988.371     -5.734   0.560  3.93351E-01  5.03068E-01 -1.09717E-01
    8988.547     -5.558   0.600  4.00974E-01  5.20167E-01 -1.19193E-01
    8988.736     -5.369   0.640  4.02224E-01  5.36539E-01 -1.34315E-01
    8988.938     -5.167   0.680  3.98325E-01  5.52281E-01 -1.53955E-01
    8989.151     -4.954   0.720  3.91910E-01  5.67484E-01 -1.75573E-01
    8989.376     -4.729   0.760  3.86092E-01  5.82237E-01 -1.96145E-01
    8989.614     -4.491   0.800  3.83575E-01  5.96662E-01 -2.13087E-01
    8989.864     -4.241   0.840  3.86227E-01  6.10809E-01 -2.24582E-01
    8990.126     -3.979   0.880  3.95453E-01  6.24732E-01 -2.29279E-01
    8990.401     -3.704   0.920  4.12522E-01  6.38494E-01 -2.25972E-01
    8990.687     -3.418   0.960  4.37853E-01  6.52143E-01 -2.14290E-01
    8990.986     -3.119   1.000  4.69504E-01  6.65683E-01 -1.96179E-01
    8991.297     -2.808   1.040  5.02633E-01  6.79144E-01 -1.76510E-01
    8991.620     -2.485   1.080  5.31455E-01  6.92507E-01 -1.61052E-01
    8991.955     -2.150   1.120  5.52626E-01  7.05809E-01 -1.53184E-01
    8992.302     -1.802   1.160  5.66877E-01  7.19024E-01 -1.52147E-01
    8992.662     -1.443   1.200  5.79211E-01  7.32137E-01 -1.52926E-01
    8993.034     -1.071   1.240  5.95454E-01  7.45150E-01 -1.49696E-01
    8993.418     -0.687   1.280  6.16445E-01  7.58044E-01 -1.41599E-01
    8993.814     -0.291   1.320  6.37790E-01  7.70778E-01 -1.32988E-01
    8994.223      0.118   1.360  6.55591E-01  7.83368E-01 -1.27777E-01
    8994.643      0.538   1.400  6.70237E-01  7.95767E-01 -1.25530E-01
    8995.076      0.971   1.440  6.86088E-01  8.07948E-01 -1.21860E-01
    8995.521      1.416   1.480  7.07896E-01  8.19905E-01 -1.12010E-01
    8995.978      1.873   1.520  7.36650E-01  8.31610E-01 -9.49600E-02
    8996.448      2.343   1.560  7.71246E-01  8.43035E-01 -7.17890E-02
    8996.929      2.824   1.600  8.12647E-01  8.54172E-01 -4.15250E-02
    8997.423      3.318   1.640  8.63050E-01  8.64993E-01 -1.94255E-03
    8997.929      3.824   1.680  9.16680E-01  8.75491E-01  4.11897E-02
    8998.447      4.342   1.720  9.61238E-01  8.85637E-01  7.56012E-02
    8998.978      4.873   1.760  9.92797E-01  8.95407E-01  9.73894E-02
    8999.520      5.415   1.800  1.01209E+00  9.04795E-01  1.07293E-01
    9000.075      5.970   1.840  1.02287E+00  9.13795E-01  1.09078E-01
    9000.642      6.537   1.880  1.03537E+00  9.22384E-01  1.12988E-01
    9001.221      7.116   1.920  1.05683E+00  9.30579E-01  1.26247E-01
    9001.812      7.707   1.960  1.08607E+00  9.38356E-01  1.47712E-01
    9002.416      8.311   2.000  1.12387E+00  9.45714E-01  1.78155E-01
    9003.031      8.926   2.040  1.17187E+00  9.52634E-01  2.19236E-01
    9003.659      9.554   2.080  1.22312E+00  9.59136E-01  2.63989E-01
    9004.299     10.194   2.120  1.27142E+00  9.65220E-01  3.06201E-01
    9004.952     10.847   2.160  1.31747E+00  9.70888E-01  3.46578E-01
    9005.616     11.511   2.200  1.36772E+00  9.76144E-01  3.91578E-01
    9006.293     12.188   2.240  1.42331E+00  9.80990E-01  4.42317E-01
    9006.982     12.877   2.280  1.46190E+00  9.85432E-01  4.76464E-01
    9007.683     13.578   2.320  1.45291E+00  9.89473E-01  4.63434E-01
    9008.396     14.291   2.360  1.39450E+00  9.93160E-01  4.01345E-01
    9009.121     15.016   2.400  1.31193E+00  9.96457E-01  3.15470E-01
    9009.859     15.754   2.440  1.22749E+00  9.99413E-01  2.28074E-01
    9010.609     16.504   2.480  1.14460E+00  1.00201E+00  1.42584E-01
    9011.371     17.266   2.520  1.06590E+00  1.00428E+00  6.16142E-02
    9012.145     18.040   2.560  9.98709E-01  1.00623E+00 -7.52033E-03
    9012.931     18.826   2.600  9.47232E-01  1.00788E+00 -6.06526E-02
    9013.730     19.625   2.640  9.12556E-01  1.00925E+00 -9.66984E-02
    9014.541     20.436   2.680  8.92566E-01  1.01035E+00 -1.17781E-01
    9015.364     21.259   2.720  8.81906E-01  1.01121E+00 -1.29303E-01
    9016.199     22.094   2.760  8.74924E-01  1.01181E+00 -1.36886E-01
    9017.046     22.941   2.800  8.74756E-01  1.01220E+00 -1.37440E-01
    9017.906     23.801   2.840  8.76265E-01  1.01238E+00 -1.36112E-01
    9018.777     24.672   2.880  8.78588E-01  1.01236E+00 -1.33771E-01
    9019.661     25.556   2.920  8.81353E-01  1.01217E+00 -1.30817E-01
    9020.557     26.452   2.960  8.84277E-01  1.01182E+00 -1.27541E-01
    9021.466     27.361   3.000  8.87192E-01  1.01131E+00 -1.24119E-01
    9022.386     28.281   3.040  8.89428E-01  1.01068E+00 -1.21248E-01
    9023.319     29.214   3.080  8.90472E-01  1.00992E+00 -1.19446E-01
    9024.264     30.159   3.120  8.90285E-01  1.00907E+00 -1.18783E-01
    9025.221     31.116   3.160  8.89145E-01  1.00811E+00 -1.18965E-01
    9026.190     32.085   3.200  8.87789E-01  1.00709E+00 -1.19303E-01
    9027.171     33.067   3.240  8.87036E-01  1.00600E+00 -1.18962E-01
    9028.165     34.060   3.280  8.87641E-01  1.00483E+00 -1.17194E-01
    9029.171     35.066   3.320  8.89879E-01  1.00365E+00 -1.13769E-01
    9030.189     36.084   3.360  8.93949E-01  1.00242E+00 -1.08472E-01
    9031.219     37.114   3.400  9.00207E-01  1.00116E+00 -1.00954E-01
    9032.262     38.157   3.440  9.08871E-01  9.99871E-01 -9.09995E-02
    9033.316     39.211   3.480  9.20018E-01  9.98597E-01 -7.85793E-02
    9034.383     40.278   3.520  9.33355E-01  9.97322E-01 -6.39678E-02
    9035.462     41.357   3.560  9.48154E-01  9.96051E-01 -4.78975E-02
    9036.553     42.448   3.600  9.63255E-01  9.94786E-01 -3.15318E-02
    9037.657     43.552   3.640  9.77616E-01  9.93552E-01 -1.59359E-02
    9038.772     44.667   3.680  9.90362E-01  9.92350E-01 -1.98812E-03
    9039.900     45.795   3.720  1.00099E+00  9.91166E-01  9.82392E-03
    9041.040     46.935   3.760  1.00952E+00  9.90040E-01  1.94805E-02
    9042.192     48.087   3.800  1.01623E+00  9.88956E-01  2.72780E-02
    9043.356     49.251   3.840  1.02148E+00  9.87915E-01  3.35690E-02
    9044.533     50.428   3.880  1.02559E+00  9.86918E-01  3.86719E-02
    9045.722     51.617   3.920  1.02877E+00  9.85988E-01  4.27821E-02
    9046.922     52.817   3.960  1.03111E+00  9.85104E-01  4.60055E-02
    9048.136     54.031   4.000  1.03276E+00  9.84270E-01  4.84876E-02
    9049.361     55.256   4.040  1.03403E+00  9.83527E-01  5.04985E-02
    9050.598     56.493   4.080  1.03516E+00  9.82816E-01  5.23419E-02
    9051.848     57.743   4.120  1.03648E+00  9.82196E-01  5.42798E-02
    9053.110     59.005   4.160  1.03817E+00  9.81629E-01  5.65385E-02
    9054.384     60.279   4.200  1.04032E+00  9.81134E-01  5.91838E-02
    9055.670     61.565   4.240  1.04273E+00  9.80690E-01  6.20386E-02
    9056.969     62.864   4.280  1.04501E+00  9.80318E-01  6.46954E-02
    9058.279     64.174   4.320  1.04669E+00  9.80019E-01  6.66692E-02
    9059.602     65.497   4.360  1.04726E+00  9.79771E-01  6.74866E-02
    9060.937     66.832   4.400  1.04643E+00  9.79594E-01  6.68342E-02
    9062.284     68.179   4.440  1.04415E+00  9.79467E-01  6.46785E-02
    9063.644     69.539   4.480  1.04057E+00  9.79412E-01  6.11559E-02
    9065.015     70.910   4.520  1.03590E+00  9.79428E-01  5.64760E-02
    9066.399     72.294   4.560  1.03032E+00  9.79491E-01  5.08308E-02
    9067.795     73.690   4.600  1.02390E+00  9.79598E-01  4.42981E-02
    9069.203     75.098   4.640  1.01666E+00  9.79771E-01  3.68924E-02
    9070.624     76.519   4.680  1.00868E+00  9.79965E-01  2.87165E-02
    9072.056     77.951   4.720  1.00020E+00  9.80224E-01  1.99746E-02
    9073.501     79.396   4.760  9.91453E-01  9.80524E-01  1.09293E-02
    9074.958     80.853   4.800  9.82794E-01  9.80864E-01  1.93055E-03
    9076.427     82.322   4.840  9.74612E-01  9.81242E-01 -6.62983E-03
    9077.908     83.803   4.880  9.67259E-01  9.81657E-01 -1.43973E-02
    9079.402     85.297   4.920  9.60942E-01  9.82084E-01 -2.11423E-02
    9080.907     86.803   4.960  9.55807E-01  9.82565E-01 -2.67582E-02
    9082.425     88.320   5.000  9.51887E-01  9.83034E-01 -3.11473E-02
    9083.955     89.851   5.040  9.49296E-01  9.83533E-01 -3.42370E-02
    9085.498     91.393   5.080  9.48059E-01  9.84058E-01 -3.59985E-02
    9087.052     92.947   5.120  9.48093E-01  9.84565E-01 -3.64723E-02
    9088.619     94.514   5.160  9.49220E-01  9.85097E-01 -3.58766E-02
    9090.198     96.093   5.200  9.50983E-01  9.85629E-01 -3.46459E-02
    9091.789     97.684   5.240  9.52764E-01  9.86159E-01 -3.33948E-02
    9093.392     99.287   5.280  9.54041E-01  9.86665E-01 -3.26239E-02
    9095.007    100.903   5.320  9.54673E-01  9.87187E-01 -3.25141E-02
    9096.635    102.530   5.360  9.54776E-01  9.87683E-01 -3.29069E-02
    9098.275    104.170   5.400  9.54738E-01  9.88170E-01 -3.34320E-02
    9099.927    105.822   5.440  9.54951E-01  9.88625E-01 -3.36743E-02
    9101.591    107.486   5.480  9.55724E-01  9.89069E-01 -3.33454E-02
    9103.268    109.163   5.520  9.57038E-01  9.89456E-01 -3.24181E-02
    9104.956    110.851   5.560  9.58722E-01  9.89851E-01 -3.11292E-02
    9106.657    112.552   5.600  9.60373E-01  9.90189E-01 -2.98169E-02
    9108.370    114.265   5.640  9.61814E-01  9.90510E-01 -2.86958E-02
    9110.095    115.990   5.680  9.63044E-01  9.90769E-01 -2.77252E-02
    9111.832    117.727   5.720  9.64348E-01  9.91010E-01 -2.66614E-02
    9113.582    119.477   5.760  9.65953E-01  9.91188E-01 -2.52348E-02
    9115.344    121.239   5.800  9.68028E-01  9.91347E-01 -2.33194E-02
    9117.118    123.013   5.840  9.70499E-01  9.91441E-01 -2.09421E-02
    9118.904    124.799   5.880  9.73306E-01  9.91493E-01 -1.81869E-02
    9120.702    126.597   5.920  9.76397E-01  9.91501E-01 -1.51040E-02
    9122.513    128.408   5.960  9.79766E-01  9.91462E-01 -1.16951E-02
    9124.335    130.230   6.000  9.83548E-01  9.91351E-01 -7.80373E-03
