# # comment:                                                     FEFF 9.9.1  
# # Source:
# # Structure
# # Reduced
# # space
# # abc:
# # angles:
# # sites:
# # POT  SCF 100  7.0000   0, screened core-hole, AFOLP (folp(0)= 1.150)
# # Abs   Z=29 Rmt= 1.239 Rnm= 1.309 K  shell
# # Pot 1 Z=64 Rmt= 1.683 Rnm= 1.729
# # Pot 2 Z=22 Rmt= 1.268 Rnm= 1.396
# # Pot 3 Z=29 Rmt= 1.223 Rnm= 1.300
# # Pot 4 Z= 8 Rmt= 1.031 Rnm= 1.099
# # Gam_ch=1.729E+00 H-L exch Vi= 0.000E+00 Vr= 0.000E+00
# # Mu=-1.046E+01eV kf=2.194E+00 Vint=-1.937E+01eV Rs_int= 1.653
# FMS rfms= 9.0000
# # PATH  Rmax=-1.000,  Keep_limit= 0.00, Heap_limit 0.00  Pwcrit= 2.50%
#  S02=0.950  Temp=   0.00  Debye_temp=   0.00  Global_sig2= 0.00000
#  Energy zero shift, vr, vi    0.00000E+00   0.00000E+00
#  Curved wave amplitude ratio filter   4.000%
#     file         sig2 tot  cw amp ratio   deg  nlegs   reff  inp sig2
#     0/   0 paths used
#  xsedge+ 50, used to normalize mu           2.4870E-04
#  -----------------------------------------------------------------------
#  omega    e    k    mu    mu0     chi     @#
    8984.990    -14.270  -1.000  3.57695E-02  4.91302E-02 -1.33607E-02
    8985.289    -13.971  -0.960  3.75399E-02  5.25847E-02 -1.50449E-02
    8985.576    -13.685  -0.920  3.94263E-02  5.64156E-02 -1.69893E-02
    8985.850    -13.410  -0.880  4.14384E-02  6.06777E-02 -1.92393E-02
    8986.112    -13.148  -0.840  4.35867E-02  6.54348E-02 -2.18481E-02
    8986.362    -12.898  -0.800  4.58827E-02  7.07610E-02 -2.48784E-02
    8986.600    -12.660  -0.760  4.83385E-02  7.67411E-02 -2.84026E-02
    8986.825    -12.435  -0.720  5.09671E-02  8.34708E-02 -3.25036E-02
    8987.039    -12.222  -0.680  5.37817E-02  9.10556E-02 -3.72739E-02
    8987.240    -12.020  -0.640  5.67946E-02  9.96066E-02 -4.28120E-02
    8987.429    -11.831  -0.600  6.00163E-02  1.09233E-01 -4.92167E-02
    8987.605    -11.655  -0.560  6.34531E-02  1.20028E-01 -5.65745E-02
    8987.770    -11.490  -0.520  6.71035E-02  1.32045E-01 -6.49417E-02
    8987.922    -11.338  -0.480  7.09544E-02  1.45273E-01 -7.43183E-02
    8988.063    -11.197  -0.440  7.49759E-02  1.59594E-01 -8.46182E-02
    8988.191    -11.069  -0.400  7.91168E-02  1.74761E-01 -9.56446E-02
    8988.307    -10.954  -0.360  8.33030E-02  1.90385E-01 -1.07082E-01
    8988.410    -10.850  -0.320  8.74391E-02  2.05960E-01 -1.18521E-01
    8988.502    -10.759  -0.280  9.14162E-02  2.20924E-01 -1.29508E-01
    8988.581    -10.679  -0.240  9.51213E-02  2.34737E-01 -1.39616E-01
    8988.648    -10.612  -0.200  9.84478E-02  2.46946E-01 -1.48498E-01
    8988.703    -10.557  -0.160  1.01303E-01  2.57218E-01 -1.55916E-01
    8988.745    -10.515  -0.120  1.03611E-01  2.65341E-01 -1.61730E-01
    8988.776    -10.484  -0.080  1.05314E-01  2.71194E-01 -1.65880E-01
    8988.800    -10.460   0.000  1.06738E-01  2.75899E-01 -1.69160E-01
    8988.855    -10.405   0.120  1.09913E-01  2.86496E-01 -1.76583E-01
    8988.898    -10.362   0.160  1.12402E-01  2.94762E-01 -1.82360E-01
    8988.953    -10.307   0.200  1.15620E-01  3.05289E-01 -1.89669E-01
    8989.020    -10.240   0.240  1.19629E-01  3.17979E-01 -1.98351E-01
    8989.099    -10.161   0.280  1.24430E-01  3.32546E-01 -2.08116E-01
    8989.190    -10.070   0.320  1.30082E-01  3.48668E-01 -2.18586E-01
    8989.294     -9.966   0.360  1.36560E-01  3.65875E-01 -2.29315E-01
    8989.410     -9.850   0.400  1.43823E-01  3.83668E-01 -2.39846E-01
    8989.538     -9.722   0.440  1.51800E-01  4.01631E-01 -2.49831E-01
    8989.678     -9.582   0.480  1.60344E-01  4.19386E-01 -2.59041E-01
    8989.831     -9.430   0.520  1.69340E-01  4.36761E-01 -2.67421E-01
    8989.995     -9.265   0.560  1.78585E-01  4.53616E-01 -2.75032E-01
    8990.172     -9.088   0.600  1.87942E-01  4.69946E-01 -2.82004E-01
    8990.361     -8.899   0.640  1.97453E-01  4.85781E-01 -2.88328E-01
    8990.562     -8.698   0.680  2.07767E-01  5.01224E-01 -2.93458E-01
    8990.775     -8.485   0.720  2.20580E-01  5.16349E-01 -2.95769E-01
    8991.001     -8.259   0.760  2.38675E-01  5.31207E-01 -2.92532E-01
    8991.239     -8.021   0.800  2.65435E-01  5.45903E-01 -2.80469E-01
    8991.489     -7.772   0.840  3.03752E-01  5.60490E-01 -2.56739E-01
    8991.751     -7.509   0.880  3.54308E-01  5.75009E-01 -2.20701E-01
    8992.025     -7.235   0.920  4.12245E-01  5.89512E-01 -1.77267E-01
    8992.312     -6.949   0.960  4.67229E-01  6.03996E-01 -1.36768E-01
    8992.610     -6.650   1.000  5.13331E-01  6.18494E-01 -1.05163E-01
    8992.921     -6.339   1.040  5.55633E-01  6.33005E-01 -7.73725E-02
    8993.244     -6.016   1.080  6.01634E-01  6.47526E-01 -4.58917E-02
    8993.580     -5.681   1.120  6.53370E-01  6.62065E-01 -8.69558E-03
    8993.927     -5.333   1.160  7.07745E-01  6.76568E-01  3.11767E-02
    8994.287     -4.973   1.200  7.52491E-01  6.91055E-01  6.14362E-02
    8994.659     -4.602   1.240  7.55961E-01  7.05484E-01  5.04765E-02
    8995.043     -4.218   1.280  7.02246E-01  7.19850E-01 -1.76038E-02
    8995.439     -3.821   1.320  6.27787E-01  7.34104E-01 -1.06317E-01
    8995.847     -3.413   1.360  5.72839E-01  7.48239E-01 -1.75400E-01
    8996.268     -2.992   1.400  5.54574E-01  7.62203E-01 -2.07629E-01
    8996.701     -2.559   1.440  5.80253E-01  7.75966E-01 -1.95713E-01
    8997.146     -2.114   1.480  6.47177E-01  7.89534E-01 -1.42357E-01
    8997.603     -1.657   1.520  7.38550E-01  8.02837E-01 -6.42873E-02
    8998.072     -1.188   1.560  8.25190E-01  8.15863E-01  9.32632E-03
    8998.554     -0.706   1.600  8.90839E-01  8.28580E-01  6.22594E-02
    8999.048     -0.213   1.640  9.29997E-01  8.40976E-01  8.90206E-02
    8999.554      0.293   1.680  9.24585E-01  8.53022E-01  7.15634E-02
    9000.072      0.812   1.720  8.70505E-01  8.64686E-01  5.81915E-03
    9000.602      1.342   1.760  8.03322E-01  8.75939E-01 -7.26167E-02
    9001.145      1.885   1.800  7.70788E-01  8.86793E-01 -1.16004E-01
    9001.699      2.439   1.840  7.85468E-01  8.97201E-01 -1.11733E-01
    9002.266      3.006   1.880  8.32667E-01  9.07156E-01 -7.44887E-02
    9002.845      3.585   1.920  9.01117E-01  9.16652E-01 -1.55356E-02
    9003.437      4.177   1.960  9.85016E-01  9.25688E-01  5.93279E-02
    9004.040      4.780   2.000  1.07061E+00  9.34239E-01  1.36371E-01
    9004.656      5.396   2.040  1.13227E+00  9.42324E-01  1.89945E-01
    9005.284      6.024   2.080  1.16881E+00  9.49923E-01  2.18888E-01
    9005.924      6.664   2.120  1.20540E+00  9.57037E-01  2.48368E-01
    9006.576      7.316   2.160  1.25562E+00  9.63685E-01  2.91937E-01
    9007.241      7.980   2.200  1.32053E+00  9.69851E-01  3.50678E-01
    9007.917      8.657   2.240  1.37425E+00  9.75539E-01  3.98706E-01
    9008.606      9.346   2.280  1.37550E+00  9.80773E-01  3.94723E-01
    9009.307     10.047   2.320  1.33941E+00  9.85578E-01  3.53828E-01
    9010.020     10.760   2.360  1.31987E+00  9.89919E-01  3.29948E-01
    9010.746     11.486   2.400  1.32014E+00  9.93844E-01  3.26294E-01
    9011.483     12.223   2.440  1.29230E+00  9.97359E-01  2.94936E-01
    9012.233     12.973   2.480  1.21257E+00  1.00047E+00  2.12094E-01
    9012.995     13.735   2.520  1.11380E+00  1.00321E+00  1.10583E-01
    9013.769     14.509   2.560  1.03079E+00  1.00559E+00  2.52008E-02
    9014.556     15.296   2.600  9.80509E-01  1.00760E+00 -2.70945E-02
    9015.354     16.094   2.640  9.57612E-01  1.00929E+00 -5.16814E-02
    9016.165     16.905   2.680  9.44296E-01  1.01068E+00 -6.63880E-02
    9016.988     17.728   2.720  9.35087E-01  1.01176E+00 -7.66775E-02
    9017.823     18.563   2.760  9.29872E-01  1.01256E+00 -8.26907E-02
    9018.671     19.410   2.800  9.28293E-01  1.01313E+00 -8.48379E-02
    9019.530     20.270   2.840  9.28860E-01  1.01344E+00 -8.45770E-02
    9020.402     21.142   2.880  9.28707E-01  1.01353E+00 -8.48214E-02
    9021.286     22.026   2.920  9.25183E-01  1.01339E+00 -8.82112E-02
    9022.182     22.922   2.960  9.17290E-01  1.01308E+00 -9.57946E-02
    9023.090     23.830   3.000  9.05661E-01  1.01261E+00 -1.06948E-01
    9024.011     24.751   3.040  8.91942E-01  1.01199E+00 -1.20052E-01
    9024.943     25.683   3.080  8.78015E-01  1.01121E+00 -1.33192E-01
    9025.888     26.628   3.120  8.65979E-01  1.01032E+00 -1.44339E-01
    9026.845     27.585   3.160  8.57194E-01  1.00931E+00 -1.52119E-01
    9027.815     28.554   3.200  8.52900E-01  1.00822E+00 -1.55320E-01
    9028.796     29.536   3.240  8.53962E-01  1.00705E+00 -1.53085E-01
    9029.790     30.529   3.280  8.60364E-01  1.00582E+00 -1.45455E-01
    9030.795     31.535   3.320  8.71269E-01  1.00452E+00 -1.33252E-01
    9031.814     32.553   3.360  8.85422E-01  1.00318E+00 -1.17756E-01
    9032.844     33.584   3.400  9.01220E-01  1.00180E+00 -1.00578E-01
    9033.886     34.626   3.440  9.16653E-01  1.00038E+00 -8.37297E-02
    9034.941     35.681   3.480  9.30529E-01  9.98983E-01 -6.84534E-02
    9036.008     36.747   3.520  9.42625E-01  9.97562E-01 -5.49373E-02
    9037.087     37.826   3.560  9.53712E-01  9.96163E-01 -4.24509E-02
    9038.178     38.918   3.600  9.64882E-01  9.94769E-01 -2.98869E-02
    9039.281     40.021   3.640  9.77033E-01  9.93385E-01 -1.63518E-02
    9040.397     41.136   3.680  9.90458E-01  9.92055E-01 -1.59692E-03
    9041.524     42.264   3.720  1.00469E+00  9.90741E-01  1.39487E-02
    9042.664     43.404   3.760  1.01875E+00  9.89465E-01  2.92833E-02
    9043.816     44.556   3.800  1.03092E+00  9.88231E-01  4.26870E-02
    9044.981     45.721   3.840  1.03884E+00  9.87062E-01  5.17796E-02
    9046.157     46.897   3.880  1.04040E+00  9.85941E-01  5.44583E-02
    9047.346     48.086   3.920  1.03464E+00  9.84889E-01  4.97541E-02
    9048.547     49.287   3.960  1.02244E+00  9.83888E-01  3.85521E-02
    9049.760     50.500   4.000  1.00648E+00  9.82957E-01  2.35276E-02
    9050.985     51.725   4.040  9.90412E-01  9.82077E-01  8.33436E-03
    9052.223     52.963   4.080  9.77969E-01  9.81271E-01 -3.30158E-03
    9053.472     54.212   4.120  9.72105E-01  9.80540E-01 -8.43466E-03
    9054.734     55.474   4.160  9.74533E-01  9.79885E-01 -5.35212E-03
    9056.008     56.748   4.200  9.85358E-01  9.79285E-01  6.07269E-03
    9057.295     58.035   4.240  1.00314E+00  9.78782E-01  2.43570E-02
    9058.593     59.333   4.280  1.02496E+00  9.78334E-01  4.66246E-02
    9059.904     60.644   4.320  1.04711E+00  9.77960E-01  6.91517E-02
    9061.227     61.966   4.360  1.06590E+00  9.77662E-01  8.82352E-02
    9062.562     63.301   4.400  1.07842E+00  9.77416E-01  1.01000E-01
    9063.909     64.649   4.440  1.08326E+00  9.77244E-01  1.06014E-01
    9065.268     66.008   4.480  1.08019E+00  9.77148E-01  1.03047E-01
    9066.640     67.380   4.520  1.07023E+00  9.77125E-01  9.31040E-02
    9068.024     68.763   4.560  1.05572E+00  9.77153E-01  7.85642E-02
    9069.420     70.159   4.600  1.03999E+00  9.77252E-01  6.27369E-02
    9070.828     71.568   4.640  1.02624E+00  9.77399E-01  4.88388E-02
    9072.248     72.988   4.680  1.01654E+00  9.77615E-01  3.89257E-02
    9073.681     74.421   4.720  1.01121E+00  9.77875E-01  3.33351E-02
    9075.125     75.865   4.760  1.00918E+00  9.78178E-01  3.10011E-02
    9076.582     77.322   4.800  1.00874E+00  9.78524E-01  3.02170E-02
    9078.051     78.791   4.840  1.00825E+00  9.78933E-01  2.93210E-02
    9079.533     80.273   4.880  1.00650E+00  9.79358E-01  2.71384E-02
    9081.026     81.766   4.920  1.00270E+00  9.79820E-01  2.28845E-02
    9082.532     83.272   4.960  9.96402E-01  9.80319E-01  1.60833E-02
    9084.050     84.790   5.000  9.87497E-01  9.80852E-01  6.64508E-03
    9085.580     86.320   5.040  9.76224E-01  9.81396E-01 -5.17188E-03
    9087.122     87.862   5.080  9.63089E-01  9.81971E-01 -1.88826E-02
    9088.677     89.417   5.120  9.48713E-01  9.82574E-01 -3.38608E-02
    9090.243     90.983   5.160  9.33809E-01  9.83160E-01 -4.93514E-02
    9091.822     92.562   5.200  9.19250E-01  9.83769E-01 -6.45189E-02
    9093.413     94.153   5.240  9.05799E-01  9.84356E-01 -7.85566E-02
    9095.017     95.756   5.280  8.94282E-01  9.84964E-01 -9.06820E-02
    9096.632     97.372   5.320  8.85454E-01  9.85571E-01 -1.00116E-01
    9098.260     98.999   5.360  8.80031E-01  9.86150E-01 -1.06119E-01
    9099.899    100.639   5.400  8.78572E-01  9.86723E-01 -1.08152E-01
    9101.551    102.291   5.440  8.81253E-01  9.87289E-01 -1.06036E-01
    9103.216    103.956   5.480  8.87678E-01  9.87821E-01 -1.00144E-01
    9104.892    105.632   5.520  8.97121E-01  9.88319E-01 -9.11974E-02
    9106.581    107.320   5.560  9.09111E-01  9.88805E-01 -7.96933E-02
    9108.281    109.021   5.600  9.23898E-01  9.89254E-01 -6.53566E-02
    9109.994    110.734   5.640  9.42306E-01  9.89665E-01 -4.73584E-02
    9111.720    112.459   5.680  9.64867E-01  9.90036E-01 -2.51688E-02
    9113.457    114.197   5.720  9.90885E-01  9.90366E-01  5.19168E-04
    9115.206    115.946   5.760  1.01825E+00  9.90654E-01  2.76000E-02
    9116.968    117.708   5.800  1.04418E+00  9.90902E-01  5.32805E-02
    9118.742    119.482   5.840  1.06621E+00  9.91107E-01  7.50986E-02
    9120.528    121.268   5.880  1.08266E+00  9.91245E-01  9.14107E-02
    9122.327    123.066   5.920  1.09242E+00  9.91362E-01  1.01058E-01
    9124.137    124.877   5.960  1.09409E+00  9.91402E-01  1.02685E-01
    9125.960    126.700   6.000  1.08579E+00  9.91367E-01  9.44192E-02
