# # comment:                                                     FEFF 9.9.1  
# # Source:
# # Structure
# # Reduced
# # space
# # abc:
# # angles:
# # sites:
# # POT  SCF 100  7.0000   0, screened core-hole, AFOLP (folp(0)= 1.150)
# # Abs   Z=29 Rmt= 1.230 Rnm= 1.309 K  shell
# # Pot 1 Z=12 Rmt= 1.373 Rnm= 1.448
# # Pot 2 Z=29 Rmt= 1.229 Rnm= 1.309
# # Pot 3 Z= 8 Rmt= 1.011 Rnm= 1.101
# # Gam_ch=1.729E+00 H-L exch Vi= 0.000E+00 Vr= 0.000E+00
# # Mu=-8.581E+00eV kf=2.130E+00 Vint=-1.747E+01eV Rs_int= 1.703
# FMS rfms= 9.0000
# # PATH  Rmax=-1.000,  Keep_limit= 0.00, Heap_limit 0.00  Pwcrit= 2.50%
#  S02=0.950  Temp=   0.00  Debye_temp=   0.00  Global_sig2= 0.00000
#  Energy zero shift, vr, vi    0.00000E+00   0.00000E+00
#  Curved wave amplitude ratio filter   4.000%
#     file         sig2 tot  cw amp ratio   deg  nlegs   reff  inp sig2
#     0/   0 paths used
#  xsedge+ 50, used to normalize mu           2.4579E-04
#  -----------------------------------------------------------------------
#  omega    e    k    mu    mu0     chi     @#
    8984.495    -12.391  -1.000  3.81159E-02  5.50585E-02 -1.69426E-02
    8984.794    -12.092  -0.960  3.99909E-02  5.90842E-02 -1.90933E-02
    8985.080    -11.805  -0.920  4.19831E-02  6.35593E-02 -2.15762E-02
    8985.355    -11.531  -0.880  4.41009E-02  6.85500E-02 -2.44491E-02
    8985.617    -11.269  -0.840  4.63533E-02  7.41334E-02 -2.77801E-02
    8985.867    -11.019  -0.800  4.87498E-02  8.03989E-02 -3.16492E-02
    8986.104    -10.781  -0.760  5.13002E-02  8.74491E-02 -3.61489E-02
    8986.330    -10.556  -0.720  5.40146E-02  9.53999E-02 -4.13853E-02
    8986.543    -10.342  -0.680  5.69028E-02  1.04379E-01 -4.74761E-02
    8986.744    -10.141  -0.640  5.99733E-02  1.14521E-01 -5.45474E-02
    8986.933     -9.952  -0.600  6.32324E-02  1.25958E-01 -6.27254E-02
    8987.110     -9.775  -0.560  6.66810E-02  1.38803E-01 -7.21220E-02
    8987.275     -9.611  -0.520  7.03122E-02  1.53124E-01 -8.28115E-02
    8987.427     -9.458  -0.480  7.41058E-02  1.68905E-01 -9.47992E-02
    8987.567     -9.318  -0.440  7.80240E-02  1.86008E-01 -1.07984E-01
    8987.695     -9.190  -0.400  8.20069E-02  2.04136E-01 -1.22129E-01
    8987.811     -9.074  -0.360  8.59730E-02  2.22819E-01 -1.36846E-01
    8987.915     -8.971  -0.320  8.98238E-02  2.41449E-01 -1.51626E-01
    8988.006     -8.879  -0.280  9.34556E-02  2.59352E-01 -1.65896E-01
    8988.086     -8.800  -0.240  9.67709E-02  2.75877E-01 -1.79106E-01
    8988.153     -8.733  -0.200  9.96888E-02  2.90480E-01 -1.90791E-01
    8988.208     -8.678  -0.160  1.02147E-01  3.02763E-01 -2.00616E-01
    8988.250     -8.635  -0.120  1.04101E-01  3.12473E-01 -2.08372E-01
    8988.281     -8.605  -0.080  1.05516E-01  3.19468E-01 -2.13952E-01
    8988.305     -8.581   0.000  1.06664E-01  3.25088E-01 -2.18424E-01
    8988.360     -8.526   0.120  1.09439E-01  3.37765E-01 -2.28326E-01
    8988.403     -8.483   0.160  1.11537E-01  3.47606E-01 -2.36069E-01
    8988.457     -8.428   0.200  1.14263E-01  3.60172E-01 -2.45909E-01
    8988.525     -8.361   0.240  1.17602E-01  3.75291E-01 -2.57689E-01
    8988.604     -8.282   0.280  1.21587E-01  3.92662E-01 -2.71074E-01
    8988.695     -8.190   0.320  1.26239E-01  4.11821E-01 -2.85582E-01
    8988.799     -8.087   0.360  1.31667E-01  4.32219E-01 -3.00552E-01
    8988.915     -7.971   0.400  1.37989E-01  4.53250E-01 -3.15261E-01
    8989.043     -7.843   0.440  1.45457E-01  4.74381E-01 -3.28924E-01
    8989.183     -7.703   0.480  1.54438E-01  4.95218E-01 -3.40780E-01
    8989.335     -7.550   0.520  1.65360E-01  5.15437E-01 -3.50078E-01
    8989.500     -7.386   0.560  1.78869E-01  5.34916E-01 -3.56047E-01
    8989.677     -7.209   0.600  1.95775E-01  5.53663E-01 -3.57888E-01
    8989.866     -7.020   0.640  2.17078E-01  5.71694E-01 -3.54616E-01
    8990.067     -6.819   0.680  2.43970E-01  5.89065E-01 -3.45095E-01
    8990.280     -6.606   0.720  2.77829E-01  6.05925E-01 -3.28096E-01
    8990.506     -6.380   0.760  3.19616E-01  6.22322E-01 -3.02706E-01
    8990.743     -6.142   0.800  3.69203E-01  6.38354E-01 -2.69151E-01
    8990.993     -5.892   0.840  4.23603E-01  6.54065E-01 -2.30462E-01
    8991.256     -5.630   0.880  4.75984E-01  6.69525E-01 -1.93541E-01
    8991.530     -5.356   0.920  5.18729E-01  6.84772E-01 -1.66043E-01
    8991.816     -5.069   0.960  5.49878E-01  6.99810E-01 -1.49932E-01
    8992.115     -4.771   1.000  5.73403E-01  7.14653E-01 -1.41250E-01
    8992.426     -4.460   1.040  5.91985E-01  7.29325E-01 -1.37340E-01
    8992.749     -4.137   1.080  6.01448E-01  7.43802E-01 -1.42354E-01
    8993.084     -3.801   1.120  5.95540E-01  7.58055E-01 -1.62515E-01
    8993.432     -3.454   1.160  5.78369E-01  7.72111E-01 -1.93742E-01
    8993.791     -3.094   1.200  5.64187E-01  7.85911E-01 -2.21724E-01
    8994.163     -2.722   1.240  5.63507E-01  7.99470E-01 -2.35963E-01
    8994.547     -2.338   1.280  5.74406E-01  8.12708E-01 -2.38303E-01
    8994.944     -1.942   1.320  5.89156E-01  8.25659E-01 -2.36503E-01
    8995.352     -1.534   1.360  6.06986E-01  8.38253E-01 -2.31267E-01
    8995.773     -1.113   1.400  6.33389E-01  8.50486E-01 -2.17097E-01
    8996.205     -0.680   1.440  6.71455E-01  8.62329E-01 -1.90875E-01
    8996.650     -0.235   1.480  7.20431E-01  8.73756E-01 -1.53325E-01
    8997.108      0.222   1.520  7.77201E-01  8.84760E-01 -1.07559E-01
    8997.577      0.691   1.560  8.39913E-01  8.95315E-01 -5.54025E-02
    8998.059      1.173   1.600  9.04965E-01  9.05416E-01 -4.51364E-04
    8998.552      1.667   1.640  9.69633E-01  9.15038E-01  5.45952E-02
    8999.058      2.173   1.680  1.04536E+00  9.24179E-01  1.21183E-01
    8999.577      2.691   1.720  1.14137E+00  9.32818E-01  2.08549E-01
    9000.107      3.221   1.760  1.24182E+00  9.40971E-01  3.00850E-01
    9000.649      3.764   1.800  1.32142E+00  9.48644E-01  3.72775E-01
    9001.204      4.318   1.840  1.38247E+00  9.55815E-01  4.26655E-01
    9001.771      4.885   1.880  1.44049E+00  9.62486E-01  4.78005E-01
    9002.350      5.464   1.920  1.47853E+00  9.68663E-01  5.09864E-01
    9002.941      6.056   1.960  1.47406E+00  9.74370E-01  4.99687E-01
    9003.545      6.659   2.000  1.43770E+00  9.79633E-01  4.58067E-01
    9004.161      7.275   2.040  1.37964E+00  9.84420E-01  3.95225E-01
    9004.789      7.903   2.080  1.29547E+00  9.88777E-01  3.06698E-01
    9005.429      8.543   2.120  1.19896E+00  9.92691E-01  2.06271E-01
    9006.081      9.195   2.160  1.11433E+00  9.96214E-01  1.18119E-01
    9006.745      9.860   2.200  1.05155E+00  9.99332E-01  5.22218E-02
    9007.422     10.536   2.240  1.01089E+00  1.00208E+00  8.81154E-03
    9008.111     11.225   2.280  9.91851E-01  1.00448E+00 -1.26247E-02
    9008.812     11.926   2.320  9.93409E-01  1.00654E+00 -1.31330E-02
    9009.525     12.639   2.360  1.01123E+00  1.00828E+00  2.94112E-03
    9010.251     13.365   2.400  1.03325E+00  1.00973E+00  2.35156E-02
    9010.988     14.102   2.440  1.04558E+00  1.01089E+00  3.46898E-02
    9011.738     14.852   2.480  1.04863E+00  1.01180E+00  3.68330E-02
    9012.500     15.614   2.520  1.05441E+00  1.01246E+00  4.19412E-02
    9013.274     16.388   2.560  1.06656E+00  1.01291E+00  5.36467E-02
    9014.061     17.175   2.600  1.07674E+00  1.01316E+00  6.35833E-02
    9014.859     17.973   2.640  1.08199E+00  1.01323E+00  6.87587E-02
    9015.670     18.784   2.680  1.07906E+00  1.01311E+00  6.59490E-02
    9016.493     19.607   2.720  1.06601E+00  1.01285E+00  5.31635E-02
    9017.328     20.442   2.760  1.04481E+00  1.01247E+00  3.23427E-02
    9018.175     21.290   2.800  1.01865E+00  1.01196E+00  6.69319E-03
    9019.035     22.149   2.840  9.90543E-01  1.01136E+00 -2.08125E-02
    9019.907     23.021   2.880  9.63055E-01  1.01065E+00 -4.75918E-02
    9020.791     23.905   2.920  9.38016E-01  1.00988E+00 -7.18605E-02
    9021.687     24.801   2.960  9.16735E-01  1.00903E+00 -9.22982E-02
    9022.595     25.709   3.000  9.00076E-01  1.00814E+00 -1.08066E-01
    9023.515     26.630   3.040  8.87829E-01  1.00721E+00 -1.19379E-01
    9024.448     27.562   3.080  8.79331E-01  1.00624E+00 -1.26908E-01
    9025.393     28.507   3.120  8.73958E-01  1.00526E+00 -1.31299E-01
    9026.350     29.464   3.160  8.71188E-01  1.00427E+00 -1.33081E-01
    9027.319     30.434   3.200  8.70824E-01  1.00326E+00 -1.32434E-01
    9028.301     31.415   3.240  8.72829E-01  1.00227E+00 -1.29440E-01
    9029.294     32.409   3.280  8.76928E-01  1.00129E+00 -1.24358E-01
    9030.300     33.415   3.320  8.82618E-01  1.00033E+00 -1.17717E-01
    9031.318     34.433   3.360  8.89429E-01  9.99415E-01 -1.09986E-01
    9032.348     35.463   3.400  8.97041E-01  9.98509E-01 -1.01469E-01
    9033.391     36.505   3.440  9.05332E-01  9.97642E-01 -9.23094E-02
    9034.445     37.560   3.480  9.14512E-01  9.96834E-01 -8.23225E-02
    9035.512     38.627   3.520  9.24910E-01  9.96048E-01 -7.11385E-02
    9036.591     39.706   3.560  9.36794E-01  9.95326E-01 -5.85320E-02
    9037.682     40.797   3.600  9.49835E-01  9.94649E-01 -4.48142E-02
    9038.786     41.900   3.640  9.63321E-01  9.94017E-01 -3.06963E-02
    9039.901     43.016   3.680  9.76201E-01  9.93454E-01 -1.72523E-02
    9041.029     44.143   3.720  9.87316E-01  9.92938E-01 -5.62225E-03
    9042.169     45.283   3.760  9.95969E-01  9.92491E-01  3.47823E-03
    9043.321     46.436   3.800  1.00209E+00  9.92092E-01  1.00006E-02
    9044.486     47.600   3.840  1.00626E+00  9.91741E-01  1.45200E-02
    9045.662     48.776   3.880  1.00963E+00  9.91461E-01  1.81671E-02
    9046.851     49.965   3.920  1.01339E+00  9.91251E-01  2.21434E-02
    9048.052     51.166   3.960  1.01819E+00  9.91090E-01  2.70957E-02
    9049.265     52.379   4.000  1.02390E+00  9.90975E-01  3.29257E-02
    9050.490     53.604   4.040  1.02997E+00  9.90930E-01  3.90446E-02
    9051.728     54.842   4.080  1.03572E+00  9.90932E-01  4.47894E-02
    9052.977     56.092   4.120  1.04086E+00  9.91003E-01  4.98590E-02
    9054.239     57.353   4.160  1.04555E+00  9.91118E-01  5.44340E-02
    9055.513     58.627   4.200  1.05017E+00  9.91276E-01  5.88939E-02
    9056.799     59.914   4.240  1.05496E+00  9.91477E-01  6.34848E-02
    9058.098     61.212   4.280  1.05980E+00  9.91719E-01  6.80804E-02
    9059.409     62.523   4.320  1.06421E+00  9.92024E-01  7.21898E-02
    9060.731     63.846   4.360  1.06741E+00  9.92348E-01  7.50655E-02
    9062.066     65.181   4.400  1.06876E+00  9.92732E-01  7.60264E-02
    9063.414     66.528   4.440  1.06789E+00  9.93130E-01  7.47586E-02
    9064.773     67.887   4.480  1.06499E+00  9.93561E-01  7.14257E-02
    9066.145     69.259   4.520  1.06066E+00  9.94004E-01  6.66532E-02
    9067.528     70.643   4.560  1.05578E+00  9.94479E-01  6.13014E-02
    9068.924     72.039   4.600  1.05103E+00  9.94985E-01  5.60498E-02
    9070.332     73.447   4.640  1.04661E+00  9.95498E-01  5.11123E-02
    9071.753     74.867   4.680  1.04238E+00  9.96017E-01  4.63663E-02
    9073.185     76.300   4.720  1.03811E+00  9.96561E-01  4.15480E-02
    9074.630     77.744   4.760  1.03340E+00  9.97109E-01  3.62955E-02
    9076.087     79.201   4.800  1.02780E+00  9.97657E-01  3.01442E-02
    9077.556     80.671   4.840  1.02083E+00  9.98202E-01  2.26267E-02
    9079.038     82.152   4.880  1.01228E+00  9.98722E-01  1.35547E-02
    9080.531     83.645   4.920  1.00243E+00  9.99260E-01  3.16703E-03
    9082.037     85.151   4.960  9.91721E-01  9.99771E-01 -8.05033E-03
    9083.555     86.669   5.000  9.80675E-01  1.00028E+00 -1.96015E-02
    9085.085     88.199   5.040  9.69617E-01  1.00077E+00 -3.11568E-02
    9086.627     89.741   5.080  9.58762E-01  1.00124E+00 -4.24780E-02
    9088.182     91.296   5.120  9.48433E-01  1.00169E+00 -5.32597E-02
    9089.748     92.862   5.160  9.38992E-01  1.00209E+00 -6.30967E-02
    9091.327     94.441   5.200  9.31107E-01  1.00249E+00 -7.13878E-02
    9092.918     96.032   5.240  9.25446E-01  1.00284E+00 -7.73977E-02
    9094.521     97.636   5.280  9.22739E-01  1.00318E+00 -8.04366E-02
    9096.137     99.251   5.320  9.23347E-01  1.00347E+00 -8.01236E-02
    9097.764    100.879   5.360  9.27252E-01  1.00373E+00 -7.64745E-02
    9099.404    102.519   5.400  9.34194E-01  1.00394E+00 -6.97469E-02
    9101.056    104.171   5.440  9.43751E-01  1.00412E+00 -6.03647E-02
    9102.720    105.835   5.480  9.55234E-01  1.00425E+00 -4.90164E-02
    9104.397    107.511   5.520  9.67655E-01  1.00435E+00 -3.66905E-02
    9106.085    109.200   5.560  9.79927E-01  1.00442E+00 -2.44955E-02
    9107.786    110.900   5.600  9.91158E-01  1.00444E+00 -1.32786E-02
    9109.499    112.613   5.640  1.00095E+00  1.00441E+00 -3.45329E-03
    9111.224    114.339   5.680  1.00907E+00  1.00433E+00  4.73651E-03
    9112.962    116.076   5.720  1.01510E+00  1.00422E+00  1.08823E-02
    9114.711    117.825   5.760  1.01864E+00  1.00407E+00  1.45692E-02
    9116.473    119.587   5.800  1.01978E+00  1.00388E+00  1.59024E-02
    9118.247    121.361   5.840  1.01952E+00  1.00365E+00  1.58725E-02
    9120.033    123.147   5.880  1.01940E+00  1.00337E+00  1.60221E-02
    9121.831    124.946   5.920  1.02054E+00  1.00304E+00  1.74958E-02
    9123.642    126.756   5.960  1.02292E+00  1.00269E+00  2.02240E-02
    9125.464    128.579   6.000  1.02527E+00  1.00232E+00  2.29489E-02
