# # comment:                                                     FEFF 9.9.1  
# # Source:
# # Structure
# # Reduced
# # space
# # abc:
# # angles:
# # sites:
# # POT  SCF 100  7.0000   0, screened core-hole, AFOLP (folp(0)= 1.150)
# # Abs   Z=29 Rmt= 1.281 Rnm= 1.341 K  shell
# # Pot 1 Z= 3 Rmt= 1.230 Rnm= 1.294
# # Pot 2 Z=29 Rmt= 1.280 Rnm= 1.340
# # Pot 3 Z= 5 Rmt= 0.775 Rnm= 0.990
# # Pot 4 Z= 8 Rmt= 0.937 Rnm= 1.053
# # Gam_ch=1.729E+00 H-L exch Vi= 0.000E+00 Vr= 0.000E+00
# # Mu=-6.565E+00eV kf=2.337E+00 Vint=-1.757E+01eV Rs_int= 1.552
# FMS rfms= 9.0000
# # PATH  Rmax=-1.000,  Keep_limit= 0.00, Heap_limit 0.00  Pwcrit= 2.50%
#  S02=0.950  Temp=   0.00  Debye_temp=   0.00  Global_sig2= 0.00000
#  Energy zero shift, vr, vi    0.00000E+00   0.00000E+00
#  Curved wave amplitude ratio filter   4.000%
#     file         sig2 tot  cw amp ratio   deg  nlegs   reff  inp sig2
#     0/   0 paths used
#  xsedge+ 50, used to normalize mu           2.4726E-04
#  -----------------------------------------------------------------------
#  omega    e    k    mu    mu0     chi     @#
    8983.856    -10.375  -1.000  4.68719E-02  5.67647E-02 -9.89278E-03
    8984.154    -10.076  -0.960  4.97016E-02  6.10046E-02 -1.13030E-02
    8984.441     -9.790  -0.920  5.27791E-02  6.57277E-02 -1.29486E-02
    8984.715     -9.515  -0.880  5.61333E-02  7.10062E-02 -1.48729E-02
    8984.977     -9.253  -0.840  5.97968E-02  7.69245E-02 -1.71277E-02
    8985.227     -9.003  -0.800  6.38060E-02  8.35804E-02 -1.97744E-02
    8985.465     -8.765  -0.760  6.82012E-02  9.10864E-02 -2.28852E-02
    8985.690     -8.540  -0.720  7.30264E-02  9.95697E-02 -2.65433E-02
    8985.904     -8.327  -0.680  7.83279E-02  1.09171E-01 -3.08428E-02
    8986.105     -8.125  -0.640  8.41524E-02  1.20038E-01 -3.58855E-02
    8986.294     -7.936  -0.600  9.05427E-02  1.32317E-01 -4.17747E-02
    8986.471     -7.760  -0.560  9.75311E-02  1.46135E-01 -4.86035E-02
    8986.635     -7.595  -0.520  1.05129E-01  1.61565E-01 -5.64353E-02
    8986.788     -7.443  -0.480  1.13316E-01  1.78593E-01 -6.52776E-02
    8986.928     -7.302  -0.440  1.22019E-01  1.97070E-01 -7.50510E-02
    8987.056     -7.174  -0.400  1.31107E-01  2.16670E-01 -8.55630E-02
    8987.172     -7.059  -0.360  1.40381E-01  2.36881E-01 -9.65000E-02
    8987.275     -6.955  -0.320  1.49587E-01  2.57038E-01 -1.07451E-01
    8987.367     -6.863  -0.280  1.58441E-01  2.76404E-01 -1.17962E-01
    8987.446     -6.784  -0.240  1.66662E-01  2.94270E-01 -1.27608E-01
    8987.513     -6.717  -0.200  1.73999E-01  3.10049E-01 -1.36049E-01
    8987.568     -6.662  -0.160  1.80250E-01  3.23311E-01 -1.43061E-01
    8987.611     -6.620  -0.120  1.85261E-01  3.33785E-01 -1.48525E-01
    8987.641     -6.589  -0.080  1.88925E-01  3.41326E-01 -1.52401E-01
    8987.666     -6.565   0.000  1.91930E-01  3.47381E-01 -1.55451E-01
    8987.720     -6.510   0.120  1.98636E-01  3.61019E-01 -1.62383E-01
    8987.763     -6.467   0.160  2.03926E-01  3.71608E-01 -1.67682E-01
    8987.818     -6.412   0.200  2.10805E-01  3.85084E-01 -1.74280E-01
    8987.885     -6.345   0.240  2.19398E-01  4.01287E-01 -1.81889E-01
    8987.964     -6.266   0.280  2.29738E-01  4.19823E-01 -1.90084E-01
    8988.056     -6.175   0.320  2.41973E-01  4.40203E-01 -1.98231E-01
    8988.159     -6.071   0.360  2.56237E-01  4.61763E-01 -2.05527E-01
    8988.275     -5.955   0.400  2.72832E-01  4.83857E-01 -2.11025E-01
    8988.403     -5.827   0.440  2.92199E-01  5.05881E-01 -2.13682E-01
    8988.543     -5.687   0.480  3.14850E-01  5.27347E-01 -2.12497E-01
    8988.696     -5.535   0.520  3.41344E-01  5.47939E-01 -2.06595E-01
    8988.860     -5.370   0.560  3.72010E-01  5.67519E-01 -1.95509E-01
    8989.037     -5.193   0.600  4.06484E-01  5.86054E-01 -1.79570E-01
    8989.226     -5.004   0.640  4.43319E-01  6.03616E-01 -1.60297E-01
    8989.427     -4.803   0.680  4.79729E-01  6.20316E-01 -1.40587E-01
    8989.641     -4.590   0.720  5.11758E-01  6.36240E-01 -1.24482E-01
    8989.866     -4.364   0.760  5.34834E-01  6.51517E-01 -1.16683E-01
    8990.104     -4.126   0.800  5.45321E-01  6.66244E-01 -1.20923E-01
    8990.354     -3.876   0.840  5.43181E-01  6.80508E-01 -1.37327E-01
    8990.616     -3.614   0.880  5.32998E-01  6.94414E-01 -1.61416E-01
    8990.890     -3.340   0.920  5.21245E-01  7.07955E-01 -1.86710E-01
    8991.177     -3.053   0.960  5.13002E-01  7.21233E-01 -2.08232E-01
    8991.476     -2.755   1.000  5.10667E-01  7.34276E-01 -2.23609E-01
    8991.786     -2.444   1.040  5.14938E-01  7.47059E-01 -2.32121E-01
    8992.110     -2.121   1.080  5.26069E-01  7.59632E-01 -2.33562E-01
    8992.445     -1.786   1.120  5.43951E-01  7.71977E-01 -2.28026E-01
    8992.792     -1.438   1.160  5.67687E-01  7.84132E-01 -2.16445E-01
    8993.152     -1.078   1.200  5.95433E-01  7.96045E-01 -2.00612E-01
    8993.524     -0.707   1.240  6.25760E-01  8.07745E-01 -1.81986E-01
    8993.908     -0.322   1.280  6.58573E-01  8.19177E-01 -1.60604E-01
    8994.304      0.074   1.320  6.96856E-01  8.30382E-01 -1.33526E-01
    8994.713      0.482   1.360  7.46889E-01  8.41299E-01 -9.44102E-02
    8995.133      0.903   1.400  8.14706E-01  8.51950E-01 -3.72438E-02
    8995.566      1.336   1.440  9.00021E-01  8.62291E-01  3.77301E-02
    8996.011      1.781   1.480  9.97294E-01  8.72318E-01  1.24976E-01
    8996.468      2.238   1.520  1.10517E+00  8.82029E-01  2.23140E-01
    8996.938      2.707   1.560  1.22538E+00  8.91402E-01  3.33981E-01
    8997.419      3.189   1.600  1.34966E+00  9.00412E-01  4.49250E-01
    8997.913      3.683   1.640  1.45398E+00  9.09057E-01  5.44920E-01
    8998.419      4.189   1.680  1.50587E+00  9.17335E-01  5.88534E-01
    8998.937      4.707   1.720  1.49949E+00  9.25224E-01  5.74268E-01
    8999.467      5.237   1.760  1.46558E+00  9.32743E-01  5.32836E-01
    9000.010      5.780   1.800  1.42188E+00  9.39873E-01  4.82010E-01
    9000.565      6.334   1.840  1.37056E+00  9.46612E-01  4.23950E-01
    9001.132      6.901   1.880  1.31854E+00  9.52944E-01  3.65599E-01
    9001.711      7.480   1.920  1.26190E+00  9.58907E-01  3.02995E-01
    9002.302      8.072   1.960  1.19876E+00  9.64466E-01  2.34293E-01
    9002.906      8.675   2.000  1.14331E+00  9.69664E-01  1.73641E-01
    9003.521      9.291   2.040  1.10990E+00  9.74464E-01  1.35434E-01
    9004.149      9.919   2.080  1.09919E+00  9.78910E-01  1.20280E-01
    9004.789     10.559   2.120  1.10246E+00  9.82989E-01  1.19471E-01
    9005.441     11.211   2.160  1.11343E+00  9.86724E-01  1.26706E-01
    9006.106     11.876   2.200  1.12691E+00  9.90122E-01  1.36792E-01
    9006.783     12.552   2.240  1.13225E+00  9.93189E-01  1.39066E-01
    9007.471     13.241   2.280  1.12357E+00  9.95931E-01  1.27636E-01
    9008.172     13.942   2.320  1.10663E+00  9.98375E-01  1.08258E-01
    9008.886     14.655   2.360  1.08767E+00  1.00053E+00  8.71465E-02
    9009.611     15.381   2.400  1.06542E+00  1.00239E+00  6.30283E-02
    9010.349     16.118   2.440  1.03649E+00  1.00401E+00  3.24798E-02
    9011.099     16.868   2.480  1.00325E+00  1.00537E+00 -2.12646E-03
    9011.861     17.630   2.520  9.72917E-01  1.00650E+00 -3.35779E-02
    9012.635     18.404   2.560  9.52029E-01  1.00743E+00 -5.53967E-02
    9013.421     19.191   2.600  9.41749E-01  1.00813E+00 -6.63789E-02
    9014.220     19.989   2.640  9.32491E-01  1.00863E+00 -7.61417E-02
    9015.030     20.800   2.680  9.11787E-01  1.00899E+00 -9.71988E-02
    9015.853     21.623   2.720  8.79546E-01  1.00915E+00 -1.29607E-01
    9016.689     22.458   2.760  8.54621E-01  1.00919E+00 -1.54564E-01
    9017.536     23.306   2.800  8.41775E-01  1.00909E+00 -1.67311E-01
    9018.395     24.165   2.840  8.36825E-01  1.00884E+00 -1.72017E-01
    9019.267     25.037   2.880  8.37236E-01  1.00852E+00 -1.71286E-01
    9020.151     25.921   2.920  8.40769E-01  1.00807E+00 -1.67300E-01
    9021.047     26.817   2.960  8.46113E-01  1.00755E+00 -1.61438E-01
    9021.955     27.725   3.000  8.52536E-01  1.00695E+00 -1.54417E-01
    9022.876     28.646   3.040  8.59725E-01  1.00628E+00 -1.46555E-01
    9023.809     29.578   3.080  8.67820E-01  1.00556E+00 -1.37737E-01
    9024.753     30.523   3.120  8.77318E-01  1.00479E+00 -1.27473E-01
    9025.711     31.480   3.160  8.88541E-01  1.00399E+00 -1.15445E-01
    9026.680     32.449   3.200  9.01297E-01  1.00317E+00 -1.01869E-01
    9027.661     33.431   3.240  9.15256E-01  1.00231E+00 -8.70577E-02
    9028.655     34.425   3.280  9.29695E-01  1.00146E+00 -7.17606E-02
    9029.661     35.430   3.320  9.43656E-01  1.00059E+00 -5.69377E-02
    9030.679     36.448   3.360  9.56417E-01  9.99729E-01 -4.33119E-02
    9031.709     37.479   3.400  9.67336E-01  9.98866E-01 -3.15309E-02
    9032.751     38.521   3.440  9.75913E-01  9.98009E-01 -2.20968E-02
    9033.806     39.576   3.480  9.82201E-01  9.97180E-01 -1.49786E-02
    9034.873     40.642   3.520  9.86812E-01  9.96382E-01 -9.57044E-03
    9035.952     41.721   3.560  9.90653E-01  9.95597E-01 -4.94464E-03
    9037.043     42.813   3.600  9.94818E-01  9.94847E-01 -2.81764E-05
    9038.146     43.916   3.640  1.00023E+00  9.94132E-01  6.10084E-03
    9039.262     45.032   3.680  1.00755E+00  9.93456E-01  1.40957E-02
    9040.390     46.159   3.720  1.01706E+00  9.92820E-01  2.42424E-02
    9041.530     47.299   3.760  1.02872E+00  9.92225E-01  3.64950E-02
    9042.682     48.451   3.800  1.04217E+00  9.91693E-01  5.04818E-02
    9043.846     49.616   3.840  1.05657E+00  9.91181E-01  6.53936E-02
    9045.023     50.792   3.880  1.07092E+00  9.90732E-01  8.01902E-02
    9046.211     51.981   3.920  1.08407E+00  9.90303E-01  9.37694E-02
    9047.412     53.182   3.960  1.09502E+00  9.89939E-01  1.05081E-01
    9048.625     54.395   4.000  1.10283E+00  9.89620E-01  1.13212E-01
    9049.851     55.620   4.040  1.10703E+00  9.89365E-01  1.17666E-01
    9051.088     56.858   4.080  1.10730E+00  9.89154E-01  1.18151E-01
    9052.338     58.107   4.120  1.10354E+00  9.88964E-01  1.14576E-01
    9053.600     59.369   4.160  1.09594E+00  9.88838E-01  1.07105E-01
    9054.874     60.643   4.200  1.08496E+00  9.88775E-01  9.61878E-02
    9056.160     61.930   4.240  1.07130E+00  9.88733E-01  8.25667E-02
    9057.458     63.228   4.280  1.05602E+00  9.88731E-01  6.72902E-02
    9058.769     64.539   4.320  1.04032E+00  9.88790E-01  5.15335E-02
    9060.092     65.861   4.360  1.02516E+00  9.88867E-01  3.62957E-02
    9061.427     67.197   4.400  1.01129E+00  9.88982E-01  2.23042E-02
    9062.774     68.544   4.440  9.99112E-01  9.89134E-01  9.97752E-03
    9064.133     69.903   4.480  9.88778E-01  9.89344E-01 -5.65814E-04
    9065.505     71.275   4.520  9.80171E-01  9.89548E-01 -9.37611E-03
    9066.889     72.659   4.560  9.73233E-01  9.89805E-01 -1.65721E-02
    9068.285     74.054   4.600  9.67752E-01  9.90076E-01 -2.23240E-02
    9069.693     75.463   4.640  9.63547E-01  9.90378E-01 -2.68303E-02
    9071.113     76.883   4.680  9.60369E-01  9.90687E-01 -3.03183E-02
    9072.546     78.316   4.720  9.57907E-01  9.91026E-01 -3.31185E-02
    9073.991     79.760   4.760  9.55755E-01  9.91371E-01 -3.56157E-02
    9075.448     81.217   4.800  9.53517E-01  9.91720E-01 -3.82031E-02
    9076.917     82.686   4.840  9.50936E-01  9.92095E-01 -4.11587E-02
    9078.398     84.168   4.880  9.48038E-01  9.92472E-01 -4.44331E-02
    9079.892     85.661   4.920  9.45252E-01  9.92826E-01 -4.75733E-02
    9081.397     87.167   4.960  9.43259E-01  9.93201E-01 -4.99429E-02
    9082.915     88.685   5.000  9.42670E-01  9.93578E-01 -5.09072E-02
    9084.445     90.215   5.040  9.43846E-01  9.93949E-01 -5.01032E-02
    9085.988     91.757   5.080  9.46735E-01  9.94294E-01 -4.75592E-02
    9087.542     93.312   5.120  9.51003E-01  9.94632E-01 -4.36295E-02
    9089.109     94.878   5.160  9.56071E-01  9.94963E-01 -3.88927E-02
    9090.688     96.457   5.200  9.61430E-01  9.95265E-01 -3.38359E-02
    9092.279     98.048   5.240  9.66711E-01  9.95559E-01 -2.88479E-02
    9093.882     99.651   5.280  9.71544E-01  9.95842E-01 -2.42980E-02
    9095.497    101.267   5.320  9.75464E-01  9.96070E-01 -2.06055E-02
    9097.125    102.895   5.360  9.78171E-01  9.96308E-01 -1.81369E-02
    9098.765    104.534   5.400  9.79487E-01  9.96490E-01 -1.70027E-02
    9100.417    106.186   5.440  9.79783E-01  9.96657E-01 -1.68747E-02
    9102.081    107.851   5.480  9.79828E-01  9.96791E-01 -1.69623E-02
    9103.757    109.527   5.520  9.80635E-01  9.96910E-01 -1.62746E-02
    9105.446    111.216   5.560  9.82918E-01  9.96969E-01 -1.40511E-02
    9107.147    112.916   5.600  9.86867E-01  9.97013E-01 -1.01466E-02
    9108.860    114.629   5.640  9.91951E-01  9.97020E-01 -5.06909E-03
    9110.585    116.354   5.680  9.97291E-01  9.96988E-01  3.02895E-04
    9112.322    118.092   5.720  1.00207E+00  9.96921E-01  5.15286E-03
    9114.072    119.841   5.760  1.00586E+00  9.96837E-01  9.02651E-03
    9115.833    121.603   5.800  1.00854E+00  9.96694E-01  1.18448E-02
    9117.607    123.377   5.840  1.01031E+00  9.96536E-01  1.37777E-02
    9119.394    125.163   5.880  1.01143E+00  9.96317E-01  1.51081E-02
    9121.192    126.961   5.920  1.01221E+00  9.96086E-01  1.61276E-02
    9123.002    128.772   5.960  1.01284E+00  9.95820E-01  1.70167E-02
    9124.825    130.595   6.000  1.01333E+00  9.95496E-01  1.78336E-02
