# # comment:                                                     FEFF 9.9.1  
# # Source:
# # Structure
# # Reduced
# # space
# # abc:
# # angles:
# # sites:
# # POT  SCF 100  7.0000   0, screened core-hole, AFOLP (folp(0)= 1.150)
# # Abs   Z=29 Rmt= 1.193 Rnm= 1.286 K  shell
# # Pot 1 Z=57 Rmt= 1.760 Rnm= 1.811
# # Pot 2 Z=25 Rmt= 1.293 Rnm= 1.398
# # Pot 3 Z=29 Rmt= 1.191 Rnm= 1.285
# # Pot 4 Z= 8 Rmt= 1.030 Rnm= 1.098
# # Gam_ch=1.729E+00 H-L exch Vi= 0.000E+00 Vr= 0.000E+00
# # Mu=-1.030E+01eV kf=2.173E+00 Vint=-1.829E+01eV Rs_int= 1.669
# FMS rfms= 9.0000
# # PATH  Rmax=-1.000,  Keep_limit= 0.00, Heap_limit 0.00  Pwcrit= 2.50%
#  S02=0.950  Temp=   0.00  Debye_temp=   0.00  Global_sig2= 0.00000
#  Energy zero shift, vr, vi    0.00000E+00   0.00000E+00
#  Curved wave amplitude ratio filter   4.000%
#     file         sig2 tot  cw amp ratio   deg  nlegs   reff  inp sig2
#     0/   0 paths used
#  xsedge+ 50, used to normalize mu           2.4849E-04
#  -----------------------------------------------------------------------
#  omega    e    k    mu    mu0     chi     @#
    8984.539    -14.107  -1.000  3.37557E-02  5.00797E-02 -1.63239E-02
    8984.837    -13.808  -0.960  3.53658E-02  5.35993E-02 -1.82335E-02
    8985.124    -13.521  -0.920  3.70819E-02  5.75003E-02 -2.04184E-02
    8985.398    -13.247  -0.880  3.89137E-02  6.18378E-02 -2.29241E-02
    8985.660    -12.985  -0.840  4.08725E-02  6.66762E-02 -2.58037E-02
    8985.910    -12.735  -0.800  4.29707E-02  7.20897E-02 -2.91190E-02
    8986.148    -12.497  -0.760  4.52224E-02  7.81636E-02 -3.29412E-02
    8986.374    -12.272  -0.720  4.76428E-02  8.49939E-02 -3.73511E-02
    8986.587    -12.058  -0.680  5.02483E-02  9.26864E-02 -4.24382E-02
    8986.788    -11.857  -0.640  5.30550E-02  1.01353E-01 -4.82975E-02
    8986.977    -11.668  -0.600  5.60779E-02  1.11101E-01 -5.50234E-02
    8987.154    -11.491  -0.560  5.93267E-02  1.22025E-01 -6.26988E-02
    8987.318    -11.327  -0.520  6.28020E-02  1.34180E-01 -7.13776E-02
    8987.471    -11.174  -0.480  6.64886E-02  1.47550E-01 -8.10612E-02
    8987.611    -11.034  -0.440  7.03485E-02  1.62019E-01 -9.16707E-02
    8987.739    -10.906  -0.400  7.43153E-02  1.77338E-01 -1.03023E-01
    8987.855    -10.790  -0.360  7.82942E-02  1.93116E-01 -1.14821E-01
    8987.958    -10.687  -0.320  8.21703E-02  2.08843E-01 -1.26673E-01
    8988.050    -10.595  -0.280  8.58232E-02  2.23956E-01 -1.38133E-01
    8988.129    -10.516  -0.240  8.91446E-02  2.37911E-01 -1.48766E-01
    8988.196    -10.449  -0.200  9.20501E-02  2.50249E-01 -1.58198E-01
    8988.251    -10.394  -0.160  9.44816E-02  2.60633E-01 -1.66152E-01
    8988.294    -10.351  -0.120  9.64022E-02  2.68848E-01 -1.72446E-01
    8988.324    -10.321  -0.080  9.77887E-02  2.74769E-01 -1.76980E-01
    8988.349    -10.297   0.000  9.89100E-02  2.79529E-01 -1.80619E-01
    8988.403    -10.242   0.120  1.01556E-01  2.90280E-01 -1.88724E-01
    8988.446    -10.199   0.160  1.03551E-01  2.98619E-01 -1.95068E-01
    8988.501    -10.144   0.200  1.06151E-01  3.09320E-01 -2.03169E-01
    8988.568    -10.077   0.240  1.09319E-01  3.22190E-01 -2.12870E-01
    8988.647     -9.998   0.280  1.13088E-01  3.37008E-01 -2.23920E-01
    8988.739     -9.906   0.320  1.17527E-01  3.53422E-01 -2.35895E-01
    8988.842     -9.803   0.360  1.22728E-01  3.70990E-01 -2.48262E-01
    8988.958     -9.687   0.400  1.28864E-01  3.89220E-01 -2.60356E-01
    8989.086     -9.559   0.440  1.36149E-01  4.07681E-01 -2.71532E-01
    8989.226     -9.419   0.480  1.44743E-01  4.26018E-01 -2.81275E-01
    8989.379     -9.266   0.520  1.54693E-01  4.44041E-01 -2.89348E-01
    8989.543     -9.102   0.560  1.65728E-01  4.61632E-01 -2.95904E-01
    8989.720     -8.925   0.600  1.77255E-01  4.78763E-01 -3.01508E-01
    8989.909     -8.736   0.640  1.88464E-01  4.95482E-01 -3.07018E-01
    8990.110     -8.535   0.680  1.98619E-01  5.11867E-01 -3.13248E-01
    8990.324     -8.321   0.720  2.07279E-01  5.27968E-01 -3.20689E-01
    8990.549     -8.096   0.760  2.14675E-01  5.43852E-01 -3.29177E-01
    8990.787     -7.858   0.800  2.21980E-01  5.59619E-01 -3.37638E-01
    8991.037     -7.608   0.840  2.31321E-01  5.75295E-01 -3.43974E-01
    8991.299     -7.346   0.880  2.46282E-01  5.90918E-01 -3.44636E-01
    8991.573     -7.072   0.920  2.71653E-01  6.06512E-01 -3.34858E-01
    8991.860     -6.785   0.960  3.12415E-01  6.22109E-01 -3.09695E-01
    8992.159     -6.487   1.000  3.71825E-01  6.37675E-01 -2.65850E-01
    8992.469     -6.176   1.040  4.45686E-01  6.53246E-01 -2.07560E-01
    8992.793     -5.853   1.080  5.16983E-01  6.68790E-01 -1.51806E-01
    8993.128     -5.517   1.120  5.73477E-01  6.84292E-01 -1.10815E-01
    8993.475     -5.170   1.160  6.33491E-01  6.99734E-01 -6.62435E-02
    8993.835     -4.810   1.200  7.20635E-01  7.15068E-01  5.56724E-03
    8994.207     -4.438   1.240  8.10676E-01  7.30266E-01  8.04099E-02
    8994.591     -4.054   1.280  8.29009E-01  7.45321E-01  8.36876E-02
    8994.987     -3.658   1.320  7.46755E-01  7.60162E-01 -1.34065E-02
    8995.396     -3.250   1.360  6.29492E-01  7.74795E-01 -1.45303E-01
    8995.816     -2.829   1.400  5.46477E-01  7.89167E-01 -2.42690E-01
    8996.249     -2.396   1.440  5.13961E-01  8.03225E-01 -2.89265E-01
    8996.694     -1.951   1.480  5.13389E-01  8.16956E-01 -3.03567E-01
    8997.151     -1.494   1.520  5.23411E-01  8.30346E-01 -3.06935E-01
    8997.621     -1.025   1.560  5.42324E-01  8.43324E-01 -3.01000E-01
    8998.102     -0.543   1.600  5.81723E-01  8.55898E-01 -2.74176E-01
    8998.596     -0.049   1.640  6.44081E-01  8.68038E-01 -2.23958E-01
    8999.102      0.457   1.680  7.16373E-01  8.79715E-01 -1.63341E-01
    8999.620      0.975   1.720  7.83976E-01  8.90918E-01 -1.06943E-01
    9000.150      1.505   1.760  8.48376E-01  9.01603E-01 -5.32275E-02
    9000.693      2.048   1.800  9.04734E-01  9.11805E-01 -7.07116E-03
    9001.248      2.602   1.840  9.36183E-01  9.21478E-01  1.47043E-02
    9001.815      3.169   1.880  9.45510E-01  9.30620E-01  1.48896E-02
    9002.394      3.749   1.920  9.63601E-01  9.39252E-01  2.43491E-02
    9002.985      4.340   1.960  1.02573E+00  9.47332E-01  7.83976E-02
    9003.589      4.943   2.000  1.12636E+00  9.54902E-01  1.71459E-01
    9004.204      5.559   2.040  1.21500E+00  9.61965E-01  2.53032E-01
    9004.832      6.187   2.080  1.24874E+00  9.68485E-01  2.80254E-01
    9005.472      6.827   2.120  1.24097E+00  9.74527E-01  2.66445E-01
    9006.124      7.479   2.160  1.23871E+00  9.80058E-01  2.58649E-01
    9006.789      8.144   2.200  1.28063E+00  9.85102E-01  2.95527E-01
    9007.466      8.820   2.240  1.35769E+00  9.89707E-01  3.67985E-01
    9008.154      9.509   2.280  1.41350E+00  9.93844E-01  4.19651E-01
    9008.855     10.210   2.320  1.41568E+00  9.97538E-01  4.18139E-01
    9009.569     10.923   2.360  1.38360E+00  1.00082E+00  3.82775E-01
    9010.294     11.649   2.400  1.33316E+00  1.00370E+00  3.29457E-01
    9011.032     12.387   2.440  1.26911E+00  1.00623E+00  2.62885E-01
    9011.782     13.136   2.480  1.20313E+00  1.00837E+00  1.94761E-01
    9012.544     13.898   2.520  1.15123E+00  1.01018E+00  1.41052E-01
    9013.318     14.673   2.560  1.11699E+00  1.01167E+00  1.05318E-01
    9014.104     15.459   2.600  1.09483E+00  1.01287E+00  8.19648E-02
    9014.903     16.257   2.640  1.07318E+00  1.01378E+00  5.93992E-02
    9015.713     17.068   2.680  1.04795E+00  1.01442E+00  3.35337E-02
    9016.536     17.891   2.720  1.02549E+00  1.01484E+00  1.06482E-02
    9017.372     18.726   2.760  1.00914E+00  1.01502E+00 -5.88370E-03
    9018.219     19.574   2.800  9.98329E-01  1.01502E+00 -1.66957E-02
    9019.078     20.433   2.840  9.90833E-01  1.01481E+00 -2.39786E-02
    9019.950     21.305   2.880  9.83709E-01  1.01445E+00 -3.07434E-02
    9020.834     22.189   2.920  9.74514E-01  1.01394E+00 -3.94218E-02
    9021.730     23.085   2.960  9.62043E-01  1.01329E+00 -5.12470E-02
    9022.638     23.993   3.000  9.45890E-01  1.01250E+00 -6.66134E-02
    9023.559     24.914   3.040  9.26831E-01  1.01164E+00 -8.48107E-02
    9024.492     25.846   3.080  9.07117E-01  1.01067E+00 -1.03556E-01
    9025.437     26.791   3.120  8.89664E-01  1.00962E+00 -1.19958E-01
    9026.394     27.748   3.160  8.76134E-01  1.00850E+00 -1.32363E-01
    9027.363     28.718   3.200  8.67062E-01  1.00732E+00 -1.40262E-01
    9028.344     29.699   3.240  8.62289E-01  1.00613E+00 -1.43842E-01
    9029.338     30.693   3.280  8.60937E-01  1.00488E+00 -1.43943E-01
    9030.344     31.699   3.320  8.62231E-01  1.00362E+00 -1.41385E-01
    9031.362     32.717   3.360  8.65595E-01  1.00235E+00 -1.36752E-01
    9032.392     33.747   3.400  8.70293E-01  1.00107E+00 -1.30781E-01
    9033.434     34.789   3.440  8.75446E-01  9.99802E-01 -1.24357E-01
    9034.489     35.844   3.480  8.80495E-01  9.98533E-01 -1.18038E-01
    9035.556     36.911   3.520  8.85384E-01  9.97270E-01 -1.11886E-01
    9036.635     37.990   3.560  8.90530E-01  9.96038E-01 -1.05508E-01
    9037.726     39.081   3.600  8.96827E-01  9.94842E-01 -9.80144E-02
    9038.829     40.184   3.640  9.05081E-01  9.93683E-01 -8.86015E-02
    9039.945     41.300   3.680  9.15777E-01  9.92563E-01 -7.67855E-02
    9041.073     42.427   3.720  9.28949E-01  9.91484E-01 -6.25354E-02
    9042.213     43.567   3.760  9.44333E-01  9.90448E-01 -4.61150E-02
    9043.365     44.720   3.800  9.60974E-01  9.89478E-01 -2.85034E-02
    9044.529     45.884   3.840  9.77042E-01  9.88551E-01 -1.15092E-02
    9045.706     47.060   3.880  9.90358E-01  9.87669E-01  2.68897E-03
    9046.894     48.249   3.920  9.99063E-01  9.86834E-01  1.22293E-02
    9048.095     49.450   3.960  1.00255E+00  9.86069E-01  1.64816E-02
    9049.308     50.663   4.000  1.00192E+00  9.85375E-01  1.65483E-02
    9050.534     51.888   4.040  9.99746E-01  9.84730E-01  1.50158E-02
    9051.771     53.126   4.080  9.99149E-01  9.84155E-01  1.49934E-02
    9053.021     54.376   4.120  1.00260E+00  9.83628E-01  1.89737E-02
    9054.283     55.637   4.160  1.01112E+00  9.83150E-01  2.79695E-02
    9055.557     56.912   4.200  1.02387E+00  9.82762E-01  4.11085E-02
    9056.843     58.198   4.240  1.03855E+00  9.82403E-01  5.61425E-02
    9058.141     59.496   4.280  1.05275E+00  9.82113E-01  7.06351E-02
    9059.452     60.807   4.320  1.06472E+00  9.81892E-01  8.28306E-02
    9060.775     62.130   4.360  1.07332E+00  9.81719E-01  9.16045E-02
    9062.110     63.465   4.400  1.07758E+00  9.81591E-01  9.59868E-02
    9063.457     64.812   4.440  1.07659E+00  9.81530E-01  9.50562E-02
    9064.816     66.171   4.480  1.06988E+00  9.81513E-01  8.83649E-02
    9066.188     67.543   4.520  1.05849E+00  9.81540E-01  7.69542E-02
    9067.572     68.927   4.560  1.04513E+00  9.81609E-01  6.35251E-02
    9068.968     70.323   4.600  1.03309E+00  9.81742E-01  5.13490E-02
    9070.376     71.731   4.640  1.02483E+00  9.81892E-01  4.29369E-02
    9071.796     73.151   4.680  1.02137E+00  9.82102E-01  3.92672E-02
    9073.229     74.584   4.720  1.02213E+00  9.82328E-01  3.98038E-02
    9074.674     76.029   4.760  1.02579E+00  9.82590E-01  4.32048E-02
    9076.131     77.485   4.800  1.03082E+00  9.82885E-01  4.79362E-02
    9077.600     78.955   4.840  1.03558E+00  9.83192E-01  5.23881E-02
    9079.081     80.436   4.880  1.03838E+00  9.83531E-01  5.48448E-02
    9080.575     81.929   4.920  1.03766E+00  9.83902E-01  5.37578E-02
    9082.080     83.435   4.960  1.03271E+00  9.84283E-01  4.84253E-02
    9083.598     84.953   5.000  1.02400E+00  9.84689E-01  3.93117E-02
    9085.128     86.483   5.040  1.01269E+00  9.85077E-01  2.76119E-02
    9086.671     88.025   5.080  1.00009E+00  9.85490E-01  1.46020E-02
    9088.225     89.580   5.120  9.87086E-01  9.85904E-01  1.18231E-03
    9089.792     91.147   5.160  9.74064E-01  9.86318E-01 -1.22548E-02
    9091.371     92.725   5.200  9.61030E-01  9.86732E-01 -2.57020E-02
    9092.962     94.316   5.240  9.47928E-01  9.87144E-01 -3.92158E-02
    9094.565     95.920   5.280  9.34950E-01  9.87551E-01 -5.26015E-02
    9096.180     97.535   5.320  9.22584E-01  9.87930E-01 -6.53454E-02
    9097.808     99.163   5.360  9.11549E-01  9.88302E-01 -7.67529E-02
    9099.448    100.803   5.400  9.02724E-01  9.88667E-01 -8.59424E-02
    9101.100    102.455   5.440  8.97161E-01  9.89001E-01 -9.18405E-02
    9102.764    104.119   5.480  8.95813E-01  9.89327E-01 -9.35140E-02
    9104.440    105.795   5.520  8.99045E-01  9.89620E-01 -9.05751E-02
    9106.129    107.484   5.560  9.06708E-01  9.89899E-01 -8.31911E-02
    9107.830    109.185   5.600  9.18250E-01  9.90120E-01 -7.18704E-02
    9109.543    110.897   5.640  9.33121E-01  9.90329E-01 -5.72085E-02
    9111.268    112.623   5.680  9.50731E-01  9.90525E-01 -3.97937E-02
    9113.005    114.360   5.720  9.70192E-01  9.90663E-01 -2.04712E-02
    9114.755    116.110   5.760  9.90237E-01  9.90785E-01 -5.48372E-04
    9116.516    117.871   5.800  1.00916E+00  9.90871E-01  1.82927E-02
    9118.290    119.645   5.840  1.02528E+00  9.90919E-01  3.43654E-02
    9120.077    121.431   5.880  1.03708E+00  9.90927E-01  4.61562E-02
    9121.875    123.230   5.920  1.04324E+00  9.90897E-01  5.23471E-02
    9123.685    125.040   5.960  1.04277E+00  9.90825E-01  5.19463E-02
    9125.508    126.863   6.000  1.03539E+00  9.90720E-01  4.46663E-02
