# # comment:                                                     FEFF 9.9.1  
# # Source:
# # Structure
# # Reduced
# # space
# # abc:
# # angles:
# # sites:
# # POT  SCF 100  7.0000   0, screened core-hole, AFOLP (folp(0)= 1.150)
# # Abs   Z=29 Rmt= 1.294 Rnm= 1.363 K  shell
# # Pot 1 Z=29 Rmt= 1.294 Rnm= 1.363
# # Pot 2 Z=15 Rmt= 0.971 Rnm= 1.221
# # Pot 3 Z= 1 Rmt= 0.745 Rnm= 0.901
# # Pot 4 Z= 8 Rmt= 0.861 Rnm= 1.048
# # Gam_ch=1.729E+00 H-L exch Vi= 0.000E+00 Vr= 0.000E+00
# # Mu=-6.500E+00eV kf=2.377E+00 Vint=-1.558E+01eV Rs_int= 1.526
# FMS rfms= 9.0000
# # PATH  Rmax=-1.000,  Keep_limit= 0.00, Heap_limit 0.00  Pwcrit= 2.50%
#  S02=0.950  Temp=   0.00  Debye_temp=   0.00  Global_sig2= 0.00000
#  Energy zero shift, vr, vi    0.00000E+00   0.00000E+00
#  Curved wave amplitude ratio filter   4.000%
#     file         sig2 tot  cw amp ratio   deg  nlegs   reff  inp sig2
#     0/   0 paths used
#  xsedge+ 50, used to normalize mu           2.4670E-04
#  -----------------------------------------------------------------------
#  omega    e    k    mu    mu0     chi     @#
    8983.265    -10.310  -1.000  3.76295E-02  5.30003E-02 -1.53708E-02
    8983.564    -10.011  -0.960  3.94456E-02  5.68398E-02 -1.73942E-02
    8983.850     -9.725  -0.920  4.13777E-02  6.11060E-02 -1.97283E-02
    8984.125     -9.450  -0.880  4.34363E-02  6.58618E-02 -2.24255E-02
    8984.387     -9.188  -0.840  4.56336E-02  7.11804E-02 -2.55468E-02
    8984.637     -8.938  -0.800  4.79828E-02  7.71465E-02 -2.91636E-02
    8984.874     -8.700  -0.760  5.04993E-02  8.38575E-02 -3.33582E-02
    8985.100     -8.475  -0.720  5.31996E-02  9.14233E-02 -3.82237E-02
    8985.313     -8.262  -0.680  5.61014E-02  9.99651E-02 -4.38636E-02
    8985.515     -8.060  -0.640  5.92229E-02  1.09611E-01 -5.03877E-02
    8985.704     -7.871  -0.600  6.25804E-02  1.20485E-01 -5.79051E-02
    8985.880     -7.695  -0.560  6.61860E-02  1.32697E-01 -6.65107E-02
    8986.045     -7.530  -0.520  7.00430E-02  1.46308E-01 -7.62652E-02
    8986.197     -7.378  -0.480  7.41397E-02  1.61306E-01 -8.71661E-02
    8986.337     -7.237  -0.440  7.84423E-02  1.77558E-01 -9.91153E-02
    8986.466     -7.109  -0.400  8.28895E-02  1.94781E-01 -1.11891E-01
    8986.581     -6.994  -0.360  8.73899E-02  2.12531E-01 -1.25141E-01
    8986.685     -6.890  -0.320  9.18268E-02  2.30229E-01 -1.38403E-01
    8986.776     -6.799  -0.280  9.60700E-02  2.47236E-01 -1.51166E-01
    8986.856     -6.719  -0.240  9.99908E-02  2.62932E-01 -1.62941E-01
    8986.923     -6.652  -0.200  1.03476E-01  2.76803E-01 -1.73327E-01
    8986.978     -6.597  -0.160  1.06434E-01  2.88470E-01 -1.82036E-01
    8987.020     -6.555  -0.120  1.08800E-01  2.97693E-01 -1.88893E-01
    8987.051     -6.524  -0.080  1.10528E-01  3.04336E-01 -1.93808E-01
    8987.075     -6.500   0.000  1.11950E-01  3.09674E-01 -1.97723E-01
    8987.130     -6.445   0.120  1.15127E-01  3.21705E-01 -2.06578E-01
    8987.173     -6.402   0.160  1.17590E-01  3.31061E-01 -2.13471E-01
    8987.228     -6.347   0.200  1.20764E-01  3.43004E-01 -2.22239E-01
    8987.295     -6.280   0.240  1.24627E-01  3.57348E-01 -2.32722E-01
    8987.374     -6.201   0.280  1.29202E-01  3.73850E-01 -2.44648E-01
    8987.465     -6.110   0.320  1.34405E-01  3.92027E-01 -2.57622E-01
    8987.569     -6.006   0.360  1.40201E-01  4.11395E-01 -2.71194E-01
    8987.685     -5.890   0.400  1.46510E-01  4.31380E-01 -2.84870E-01
    8987.813     -5.762   0.440  1.53240E-01  4.51454E-01 -2.98215E-01
    8987.953     -5.622   0.480  1.60323E-01  4.71246E-01 -3.10923E-01
    8988.105     -5.470   0.520  1.67647E-01  4.90463E-01 -3.22816E-01
    8988.270     -5.305   0.560  1.75187E-01  5.08972E-01 -3.33785E-01
    8988.447     -5.128   0.600  1.83040E-01  5.26802E-01 -3.43763E-01
    8988.636     -4.939   0.640  1.91350E-01  5.43950E-01 -3.52599E-01
    8988.837     -4.738   0.680  2.00569E-01  5.60526E-01 -3.59957E-01
    8989.050     -4.525   0.720  2.11261E-01  5.76598E-01 -3.65337E-01
    8989.276     -4.299   0.760  2.24146E-01  5.92268E-01 -3.68123E-01
    8989.513     -4.061   0.800  2.40013E-01  6.07613E-01 -3.67600E-01
    8989.763     -3.811   0.840  2.59572E-01  6.22693E-01 -3.63121E-01
    8990.026     -3.549   0.880  2.83476E-01  6.37559E-01 -3.54083E-01
    8990.300     -3.275   0.920  3.11960E-01  6.52245E-01 -3.40285E-01
    8990.586     -2.989   0.960  3.44451E-01  6.66795E-01 -3.22344E-01
    8990.885     -2.690   1.000  3.79584E-01  6.81205E-01 -3.01621E-01
    8991.196     -2.379   1.040  4.16714E-01  6.95478E-01 -2.78764E-01
    8991.519     -2.056   1.080  4.57146E-01  7.09612E-01 -2.52467E-01
    8991.854     -1.721   1.120  5.03266E-01  7.23618E-01 -2.20352E-01
    8992.202     -1.373   1.160  5.57272E-01  7.37463E-01 -1.80191E-01
    8992.561     -1.013   1.200  6.20846E-01  7.51151E-01 -1.30305E-01
    8992.933     -0.642   1.240  6.93699E-01  7.64617E-01 -7.09183E-02
    8993.317     -0.258   1.280  7.71672E-01  7.77880E-01 -6.20827E-03
    8993.714      0.139   1.320  8.50442E-01  7.90895E-01  5.95472E-02
    8994.122      0.547   1.360  9.31601E-01  8.03654E-01  1.27946E-01
    8994.543      0.968   1.400  1.01160E+00  8.16111E-01  1.95487E-01
    8994.975      1.401   1.440  1.07406E+00  8.28257E-01  2.45802E-01
    8995.420      1.846   1.480  1.10961E+00  8.40065E-01  2.69543E-01
    8995.878      2.303   1.520  1.13055E+00  8.51509E-01  2.79042E-01
    8996.347      2.772   1.560  1.15078E+00  8.62579E-01  2.88205E-01
    8996.829      3.254   1.600  1.16758E+00  8.73248E-01  2.94330E-01
    8997.322      3.748   1.640  1.17365E+00  8.83513E-01  2.90141E-01
    8997.828      4.253   1.680  1.16655E+00  8.93348E-01  2.73197E-01
    8998.347      4.772   1.720  1.15090E+00  9.02748E-01  2.48153E-01
    8998.877      5.302   1.760  1.14390E+00  9.11690E-01  2.32212E-01
    8999.419      5.845   1.800  1.16545E+00  9.20194E-01  2.45256E-01
    8999.974      6.399   1.840  1.21688E+00  9.28258E-01  2.88619E-01
    9000.541      6.966   1.880  1.27626E+00  9.35842E-01  3.40420E-01
    9001.120      7.545   1.920  1.31248E+00  9.42968E-01  3.69510E-01
    9001.712      8.137   1.960  1.30783E+00  9.49657E-01  3.58168E-01
    9002.315      8.740   2.000  1.26924E+00  9.55894E-01  3.13350E-01
    9002.931      9.356   2.040  1.21550E+00  9.61702E-01  2.53798E-01
    9003.559      9.984   2.080  1.16282E+00  9.67066E-01  1.95752E-01
    9004.199     10.624   2.120  1.11903E+00  9.72011E-01  1.47018E-01
    9004.851     11.276   2.160  1.08525E+00  9.76544E-01  1.08704E-01
    9005.515     11.941   2.200  1.06221E+00  9.80673E-01  8.15398E-02
    9006.192     12.617   2.240  1.04977E+00  9.84443E-01  6.53302E-02
    9006.881     13.306   2.280  1.04523E+00  9.87823E-01  5.74086E-02
    9007.582     14.007   2.320  1.04502E+00  9.90863E-01  5.41583E-02
    9008.295     14.720   2.360  1.04151E+00  9.93570E-01  4.79449E-02
    9009.021     15.446   2.400  1.02663E+00  9.95951E-01  3.06795E-02
    9009.758     16.183   2.440  1.00332E+00  9.98037E-01  5.28638E-03
    9010.508     16.933   2.480  9.80981E-01  9.99836E-01 -1.88549E-02
    9011.270     17.695   2.520  9.65945E-01  1.00136E+00 -3.54106E-02
    9012.044     18.469   2.560  9.61943E-01  1.00263E+00 -4.06832E-02
    9012.831     19.256   2.600  9.68615E-01  1.00368E+00 -3.50609E-02
    9013.629     20.054   2.640  9.79459E-01  1.00452E+00 -2.50568E-02
    9014.440     20.865   2.680  9.85425E-01  1.00513E+00 -1.97052E-02
    9015.263     21.688   2.720  9.78889E-01  1.00557E+00 -2.66804E-02
    9016.098     22.523   2.760  9.55269E-01  1.00584E+00 -5.05748E-02
    9016.945     23.370   2.800  9.21614E-01  1.00598E+00 -8.43648E-02
    9017.805     24.230   2.840  8.91839E-01  1.00596E+00 -1.14123E-01
    9018.677     25.102   2.880  8.69952E-01  1.00582E+00 -1.35868E-01
    9019.561     25.986   2.920  8.56338E-01  1.00558E+00 -1.49244E-01
    9020.457     26.882   2.960  8.49711E-01  1.00523E+00 -1.55521E-01
    9021.365     27.790   3.000  8.49240E-01  1.00480E+00 -1.55557E-01
    9022.285     28.711   3.040  8.54317E-01  1.00428E+00 -1.49966E-01
    9023.218     29.643   3.080  8.63984E-01  1.00372E+00 -1.39734E-01
    9024.163     30.588   3.120  8.76897E-01  1.00311E+00 -1.26208E-01
    9025.120     31.545   3.160  8.91338E-01  1.00245E+00 -1.11113E-01
    9026.089     32.514   3.200  9.06074E-01  1.00176E+00 -9.56834E-02
    9027.071     33.496   3.240  9.20927E-01  1.00103E+00 -8.01027E-02
    9028.064     34.490   3.280  9.36473E-01  1.00029E+00 -6.38216E-02
    9029.070     35.495   3.320  9.53196E-01  9.99554E-01 -4.63581E-02
    9030.088     36.513   3.360  9.71161E-01  9.98813E-01 -2.76521E-02
    9031.119     37.544   3.400  9.89530E-01  9.98095E-01 -8.56483E-03
    9032.161     38.586   3.440  1.00661E+00  9.97360E-01  9.24946E-03
    9033.216     39.641   3.480  1.02083E+00  9.96654E-01  2.41795E-02
    9034.282     40.707   3.520  1.03115E+00  9.95979E-01  3.51754E-02
    9035.361     41.786   3.560  1.03735E+00  9.95316E-01  4.20353E-02
    9036.452     42.878   3.600  1.04022E+00  9.94709E-01  4.55094E-02
    9037.556     43.981   3.640  1.04103E+00  9.94115E-01  4.69129E-02
    9038.671     45.097   3.680  1.04109E+00  9.93537E-01  4.75502E-02
    9039.799     46.224   3.720  1.04149E+00  9.93019E-01  4.84663E-02
    9040.939     47.364   3.760  1.04284E+00  9.92543E-01  5.02968E-02
    9042.091     48.516   3.800  1.04526E+00  9.92109E-01  5.31541E-02
    9043.256     49.681   3.840  1.04840E+00  9.91737E-01  5.66631E-02
    9044.432     50.857   3.880  1.05153E+00  9.91386E-01  6.01425E-02
    9045.621     52.046   3.920  1.05374E+00  9.91096E-01  6.26481E-02
    9046.822     53.247   3.960  1.05402E+00  9.90828E-01  6.31884E-02
    9048.035     54.460   4.000  1.05166E+00  9.90624E-01  6.10388E-02
    9049.260     55.685   4.040  1.04644E+00  9.90462E-01  5.59744E-02
    9050.498     56.923   4.080  1.03857E+00  9.90344E-01  4.82241E-02
    9051.747     58.172   4.120  1.02871E+00  9.90289E-01  3.84221E-02
    9053.009     59.434   4.160  1.01774E+00  9.90253E-01  2.74848E-02
    9054.283     60.708   4.200  1.00662E+00  9.90280E-01  1.63413E-02
    9055.569     61.995   4.240  9.96090E-01  9.90327E-01  5.76298E-03
    9056.868     63.293   4.280  9.86719E-01  9.90434E-01 -3.71459E-03
    9058.179     64.604   4.320  9.78775E-01  9.90579E-01 -1.18039E-02
    9059.501     65.926   4.360  9.72395E-01  9.90740E-01 -1.83443E-02
    9060.836     67.261   4.400  9.67747E-01  9.90936E-01 -2.31898E-02
    9062.184     68.609   4.440  9.64876E-01  9.91168E-01 -2.62925E-02
    9063.543     69.968   4.480  9.63744E-01  9.91437E-01 -2.76923E-02
    9064.915     71.340   4.520  9.64252E-01  9.91739E-01 -2.74863E-02
    9066.298     72.723   4.560  9.66221E-01  9.92049E-01 -2.58283E-02
    9067.694     74.119   4.600  9.69493E-01  9.92367E-01 -2.28740E-02
    9069.103     75.528   4.640  9.73950E-01  9.92715E-01 -1.87653E-02
    9070.523     76.948   4.680  9.79350E-01  9.93092E-01 -1.37424E-02
    9071.955     78.381   4.720  9.85174E-01  9.93453E-01 -8.27858E-03
    9073.400     79.825   4.760  9.90731E-01  9.93838E-01 -3.10743E-03
    9074.857     81.282   4.800  9.95177E-01  9.94250E-01  9.26990E-04
    9076.326     82.751   4.840  9.97866E-01  9.94640E-01  3.22593E-03
    9077.808     84.233   4.880  9.98718E-01  9.95028E-01  3.68983E-03
    9079.301     85.726   4.920  9.98135E-01  9.95416E-01  2.71804E-03
    9080.807     87.232   4.960  9.96801E-01  9.95825E-01  9.76419E-04
    9082.325     88.750   5.000  9.95263E-01  9.96206E-01 -9.43593E-04
    9083.855     90.280   5.040  9.93868E-01  9.96560E-01 -2.69169E-03
    9085.397     91.822   5.080  9.92728E-01  9.96929E-01 -4.20099E-03
    9086.952     93.377   5.120  9.91669E-01  9.97270E-01 -5.60079E-03
    9088.518     94.943   5.160  9.90558E-01  9.97602E-01 -7.04332E-03
    9090.097     96.522   5.200  9.89375E-01  9.97900E-01 -8.52473E-03
    9091.688     98.113   5.240  9.88362E-01  9.98165E-01 -9.80262E-03
    9093.291     99.716   5.280  9.87966E-01  9.98419E-01 -1.04528E-02
    9094.907    101.332   5.320  9.88620E-01  9.98662E-01 -1.00423E-02
    9096.534    102.960   5.360  9.90541E-01  9.98848E-01 -8.30694E-03
    9098.174    104.599   5.400  9.93772E-01  9.99020E-01 -5.24789E-03
    9099.826    106.251   5.440  9.98075E-01  9.99180E-01 -1.10476E-03
    9101.490    107.916   5.480  1.00302E+00  9.99280E-01  3.73999E-03
    9103.167    109.592   5.520  1.00816E+00  9.99365E-01  8.79831E-03
    9104.855    111.281   5.560  1.01283E+00  9.99414E-01  1.34128E-02
    9106.556    112.981   5.600  1.01621E+00  9.99422E-01  1.67918E-02
    9108.269    114.694   5.640  1.01763E+00  9.99392E-01  1.82428E-02
    9109.994    116.419   5.680  1.01682E+00  9.99325E-01  1.74943E-02
    9111.732    118.157   5.720  1.01410E+00  9.99243E-01  1.48523E-02
    9113.481    119.906   5.760  1.01020E+00  9.99100E-01  1.11048E-02
    9115.243    121.668   5.800  1.00618E+00  9.98942E-01  7.23438E-03
    9117.017    123.442   5.840  1.00281E+00  9.98748E-01  4.06605E-03
    9118.803    125.228   5.880  1.00052E+00  9.98495E-01  2.02039E-03
    9120.601    127.026   5.920  9.99315E-01  9.98255E-01  1.05928E-03
    9122.412    128.837   5.960  9.98717E-01  9.97957E-01  7.59787E-04
    9124.235    130.660   6.000  9.97942E-01  9.97599E-01  3.42216E-04
