# # comment:                                                     FEFF 9.9.1  
# # Source:
# # Structure
# # Reduced
# # space
# # abc:
# # angles:107.780468
# # sites:
# # POT  SCF 100  7.0000   0, screened core-hole, AFOLP (folp(0)= 1.150)
# # Abs   Z=29 Rmt= 1.155 Rnm= 1.278 K  shell
# # Pot 1 Z=23 Rmt= 1.087 Rnm= 1.310
# # Pot 2 Z=29 Rmt= 1.170 Rnm= 1.296
# # Pot 3 Z= 8 Rmt= 0.997 Rnm= 1.108
# # Pot 4 Z= 9 Rmt= 0.984 Rnm= 1.144
# # Gam_ch=1.729E+00 H-L exch Vi= 0.000E+00 Vr= 0.000E+00
# # Mu=-7.494E+00eV kf=2.165E+00 Vint=-1.483E+01eV Rs_int= 1.675
# FMS rfms= 9.0000
# # PATH  Rmax=-1.000,  Keep_limit= 0.00, Heap_limit 0.00  Pwcrit= 2.50%
#  S02=0.950  Temp=   0.00  Debye_temp=   0.00  Global_sig2= 0.00000
#  Energy zero shift, vr, vi    0.00000E+00   0.00000E+00
#  Curved wave amplitude ratio filter   4.000%
#     file         sig2 tot  cw amp ratio   deg  nlegs   reff  inp sig2
#     0/   0 paths used
#  xsedge+ 50, used to normalize mu           2.4277E-04
#  -----------------------------------------------------------------------
#  omega    e    k    mu    mu0     chi     @#
    8983.711    -11.304  -1.000  3.43126E-02  5.52596E-02 -2.09469E-02
    8984.010    -11.006  -0.960  3.59819E-02  5.92317E-02 -2.32498E-02
    8984.297    -10.719  -0.920  3.77746E-02  6.36379E-02 -2.58633E-02
    8984.571    -10.445  -0.880  3.97054E-02  6.85412E-02 -2.88357E-02
    8984.833    -10.183  -0.840  4.17913E-02  7.40145E-02 -3.22233E-02
    8985.083     -9.933  -0.800  4.40516E-02  8.01425E-02 -3.60909E-02
    8985.321     -9.695  -0.760  4.65088E-02  8.70219E-02 -4.05131E-02
    8985.546     -9.469  -0.720  4.91882E-02  9.47619E-02 -4.55737E-02
    8985.760     -9.256  -0.680  5.21174E-02  1.03483E-01 -5.13652E-02
    8985.961     -9.055  -0.640  5.53253E-02  1.13310E-01 -5.79850E-02
    8986.150     -8.866  -0.600  5.88398E-02  1.24369E-01 -6.55289E-02
    8986.327     -8.689  -0.560  6.26835E-02  1.36763E-01 -7.40797E-02
    8986.491     -8.525  -0.520  6.68668E-02  1.50555E-01 -8.36887E-02
    8986.644     -8.372  -0.480  7.13788E-02  1.65730E-01 -9.43509E-02
    8986.784     -8.232  -0.440  7.61771E-02  1.82153E-01 -1.05976E-01
    8986.912     -8.104  -0.400  8.11786E-02  1.99544E-01 -1.18365E-01
    8987.028     -7.988  -0.360  8.62581E-02  2.17457E-01 -1.31199E-01
    8987.131     -7.885  -0.320  9.12576E-02  2.35318E-01 -1.44060E-01
    8987.223     -7.793  -0.280  9.60062E-02  2.52484E-01 -1.56478E-01
    8987.302     -7.714  -0.240  1.00346E-01  2.68338E-01 -1.67993E-01
    8987.369     -7.647  -0.200  1.04150E-01  2.82360E-01 -1.78210E-01
    8987.424     -7.592  -0.160  1.07333E-01  2.94166E-01 -1.86833E-01
    8987.467     -7.549  -0.120  1.09846E-01  3.03508E-01 -1.93661E-01
    8987.497     -7.519  -0.080  1.11664E-01  3.10243E-01 -1.98579E-01
    8987.521     -7.494   0.000  1.13153E-01  3.15658E-01 -2.02505E-01
    8987.576     -7.440   0.120  1.16424E-01  3.27873E-01 -2.11449E-01
    8987.619     -7.397   0.160  1.18910E-01  3.37377E-01 -2.18467E-01
    8987.674     -7.342   0.200  1.22042E-01  3.49546E-01 -2.27505E-01
    8987.741     -7.275   0.240  1.25796E-01  3.64214E-01 -2.38418E-01
    8987.820     -7.196   0.280  1.30104E-01  3.81115E-01 -2.51011E-01
    8987.912     -7.104   0.320  1.34924E-01  3.99853E-01 -2.64930E-01
    8988.015     -7.001   0.360  1.40213E-01  4.19916E-01 -2.79703E-01
    8988.131     -6.885   0.400  1.46022E-01  4.40772E-01 -2.94750E-01
    8988.259     -6.757   0.440  1.52375E-01  4.61939E-01 -3.09564E-01
    8988.399     -6.617   0.480  1.59253E-01  4.83019E-01 -3.23766E-01
    8988.552     -6.464   0.520  1.66507E-01  5.03752E-01 -3.37245E-01
    8988.716     -6.300   0.560  1.74001E-01  5.24026E-01 -3.50025E-01
    8988.893     -6.123   0.600  1.81767E-01  5.43784E-01 -3.62017E-01
    8989.082     -5.934   0.640  1.90344E-01  5.63097E-01 -3.72753E-01
    8989.283     -5.733   0.680  2.00347E-01  5.81986E-01 -3.81638E-01
    8989.496     -5.519   0.720  2.11868E-01  6.00563E-01 -3.88695E-01
    8989.722     -5.294   0.760  2.23671E-01  6.18860E-01 -3.95189E-01
    8989.960     -5.056   0.800  2.34131E-01  6.36955E-01 -4.02824E-01
    8990.210     -4.806   0.840  2.43002E-01  6.54878E-01 -4.11876E-01
    8990.472     -4.544   0.880  2.52137E-01  6.72661E-01 -4.20524E-01
    8990.746     -4.270   0.920  2.64128E-01  6.90326E-01 -4.26198E-01
    8991.033     -3.983   0.960  2.80634E-01  7.07838E-01 -4.27204E-01
    8991.331     -3.684   1.000  3.02515E-01  7.25219E-01 -4.22704E-01
    8991.642     -3.373   1.040  3.31348E-01  7.42416E-01 -4.11068E-01
    8991.965     -3.050   1.080  3.70149E-01  7.59432E-01 -3.89283E-01
    8992.301     -2.715   1.120  4.20618E-01  7.76224E-01 -3.55606E-01
    8992.648     -2.368   1.160  4.79400E-01  7.92724E-01 -3.13324E-01
    8993.008     -2.008   1.200  5.37020E-01  8.08920E-01 -2.71900E-01
    8993.380     -1.636   1.240  5.82150E-01  8.24761E-01 -2.42611E-01
    8993.764     -1.252   1.280  6.09181E-01  8.40211E-01 -2.31030E-01
    8994.160     -0.856   1.320  6.19170E-01  8.55213E-01 -2.36043E-01
    8994.568     -0.447   1.360  6.17787E-01  8.69735E-01 -2.51947E-01
    8994.989     -0.027   1.400  6.14793E-01  8.83761E-01 -2.68968E-01
    8995.422      0.406   1.440  6.17500E-01  8.97216E-01 -2.79716E-01
    8995.867      0.851   1.480  6.26786E-01  9.10088E-01 -2.83303E-01
    8996.324      1.308   1.520  6.43299E-01  9.22367E-01 -2.79068E-01
    8996.793      1.778   1.560  6.69589E-01  9.34003E-01 -2.64414E-01
    8997.275      2.259   1.600  7.04636E-01  9.44991E-01 -2.40355E-01
    8997.769      2.753   1.640  7.43590E-01  9.55324E-01 -2.11734E-01
    8998.275      3.259   1.680  7.84560E-01  9.64981E-01 -1.80420E-01
    8998.793      3.777   1.720  8.26921E-01  9.73981E-01 -1.47060E-01
    8999.323      4.307   1.760  8.66328E-01  9.82306E-01 -1.15978E-01
    8999.866      4.850   1.800  9.08417E-01  9.89959E-01 -8.15421E-02
    9000.420      5.405   1.840  9.70189E-01  9.96946E-01 -2.67579E-02
    9000.987      5.972   1.880  1.06043E+00  1.00332E+00  5.71130E-02
    9001.566      6.551   1.920  1.16912E+00  1.00904E+00  1.60081E-01
    9002.158      7.142   1.960  1.27223E+00  1.01415E+00  2.58072E-01
    9002.761      7.746   2.000  1.35095E+00  1.01869E+00  3.32259E-01
    9003.377      8.361   2.040  1.39822E+00  1.02266E+00  3.75555E-01
    9004.005      8.989   2.080  1.40871E+00  1.02607E+00  3.82636E-01
    9004.645      9.629   2.120  1.38874E+00  1.02898E+00  3.59763E-01
    9005.297     10.281   2.160  1.36026E+00  1.03141E+00  3.28855E-01
    9005.962     10.946   2.200  1.33938E+00  1.03338E+00  3.06006E-01
    9006.638     11.623   2.240  1.32753E+00  1.03490E+00  2.92626E-01
    9007.327     12.311   2.280  1.31893E+00  1.03604E+00  2.82895E-01
    9008.028     13.012   2.320  1.30621E+00  1.03680E+00  2.69411E-01
    9008.741     13.726   2.360  1.28864E+00  1.03722E+00  2.51416E-01
    9009.467     14.451   2.400  1.26920E+00  1.03732E+00  2.31886E-01
    9010.204     15.189   2.440  1.25275E+00  1.03714E+00  2.15612E-01
    9010.954     15.939   2.480  1.24063E+00  1.03669E+00  2.03938E-01
    9011.716     16.701   2.520  1.22917E+00  1.03600E+00  1.93170E-01
    9012.490     17.475   2.560  1.21921E+00  1.03511E+00  1.84096E-01
    9013.277     18.261   2.600  1.20677E+00  1.03403E+00  1.72738E-01
    9014.075     19.060   2.640  1.18817E+00  1.03278E+00  1.55390E-01
    9014.886     19.870   2.680  1.16336E+00  1.03140E+00  1.31966E-01
    9015.709     20.693   2.720  1.13512E+00  1.02989E+00  1.05226E-01
    9016.544     21.529   2.760  1.10574E+00  1.02829E+00  7.74439E-02
    9017.392     22.376   2.800  1.07667E+00  1.02659E+00  5.00862E-02
    9018.251     23.235   2.840  1.04934E+00  1.02485E+00  2.44947E-02
    9019.123     24.107   2.880  1.02442E+00  1.02304E+00  1.37291E-03
    9020.007     24.991   2.920  1.00198E+00  1.02120E+00 -1.92227E-02
    9020.903     25.887   2.960  9.82052E-01  1.01935E+00 -3.72947E-02
    9021.811     26.795   3.000  9.64378E-01  1.01749E+00 -5.31118E-02
    9022.732     27.716   3.040  9.48676E-01  1.01564E+00 -6.69599E-02
    9023.664     28.649   3.080  9.35085E-01  1.01381E+00 -7.87257E-02
    9024.609     29.594   3.120  9.23631E-01  1.01200E+00 -8.83677E-02
    9025.566     30.551   3.160  9.14028E-01  1.01025E+00 -9.62208E-02
    9026.536     31.520   3.200  9.05809E-01  1.00854E+00 -1.02731E-01
    9027.517     32.501   3.240  8.98571E-01  1.00688E+00 -1.08308E-01
    9028.511     33.495   3.280  8.91943E-01  1.00527E+00 -1.13327E-01
    9029.517     34.501   3.320  8.85870E-01  1.00376E+00 -1.17886E-01
    9030.535     35.519   3.360  8.80489E-01  1.00230E+00 -1.21810E-01
    9031.565     36.549   3.400  8.76042E-01  1.00092E+00 -1.24881E-01
    9032.607     37.591   3.440  8.72825E-01  9.99651E-01 -1.26826E-01
    9033.662     38.646   3.480  8.71064E-01  9.98442E-01 -1.27378E-01
    9034.729     39.713   3.520  8.71050E-01  9.97341E-01 -1.26292E-01
    9035.808     40.792   3.560  8.72674E-01  9.96328E-01 -1.23654E-01
    9036.899     41.883   3.600  8.75812E-01  9.95424E-01 -1.19612E-01
    9038.002     42.986   3.640  8.80138E-01  9.94610E-01 -1.14472E-01
    9039.118     44.102   3.680  8.85224E-01  9.93885E-01 -1.08661E-01
    9040.245     45.230   3.720  8.90796E-01  9.93271E-01 -1.02475E-01
    9041.385     46.370   3.760  8.96892E-01  9.92748E-01 -9.58559E-02
    9042.538     47.522   3.800  9.03940E-01  9.92338E-01 -8.83984E-02
    9043.702     48.686   3.840  9.12412E-01  9.92040E-01 -7.96280E-02
    9044.878     49.863   3.880  9.22699E-01  9.91809E-01 -6.91094E-02
    9046.067     51.051   3.920  9.34979E-01  9.91689E-01 -5.67094E-02
    9047.268     52.252   3.960  9.48958E-01  9.91679E-01 -4.27210E-02
    9048.481     53.465   4.000  9.64015E-01  9.91756E-01 -2.77412E-02
    9049.706     54.691   4.040  9.79483E-01  9.91920E-01 -1.24363E-02
    9050.944     55.928   4.080  9.94745E-01  9.92168E-01  2.57672E-03
    9052.194     57.178   4.120  1.00941E+00  9.92499E-01  1.69079E-02
    9053.455     58.440   4.160  1.02334E+00  9.92933E-01  3.04020E-02
    9054.729     59.714   4.200  1.03638E+00  9.93427E-01  4.29526E-02
    9056.016     61.000   4.240  1.04825E+00  9.93998E-01  5.42517E-02
    9057.314     62.298   4.280  1.05859E+00  9.94645E-01  6.39440E-02
    9058.625     63.609   4.320  1.06701E+00  9.95347E-01  7.16642E-02
    9059.948     64.932   4.360  1.07335E+00  9.96143E-01  7.72028E-02
    9061.283     66.267   4.400  1.07763E+00  9.96967E-01  8.06645E-02
    9062.630     67.614   4.440  1.08029E+00  9.97857E-01  8.24308E-02
    9063.989     68.974   4.480  1.08170E+00  9.98793E-01  8.29085E-02
    9065.361     70.345   4.520  1.08210E+00  9.99769E-01  8.23260E-02
    9066.745     71.729   4.560  1.08161E+00  1.00079E+00  8.08269E-02
    9068.141     73.125   4.600  1.08025E+00  1.00184E+00  7.84088E-02
    9069.549     74.533   4.640  1.07801E+00  1.00293E+00  7.50762E-02
    9070.969     75.953   4.680  1.07494E+00  1.00403E+00  7.09116E-02
    9072.402     77.386   4.720  1.07119E+00  1.00515E+00  6.60377E-02
    9073.846     78.831   4.760  1.06688E+00  1.00626E+00  6.06154E-02
    9075.303     80.288   4.800  1.06226E+00  1.00740E+00  5.48609E-02
    9076.773     81.757   4.840  1.05743E+00  1.00853E+00  4.88980E-02
    9078.254     83.238   4.880  1.05256E+00  1.00966E+00  4.28965E-02
    9079.747     84.732   4.920  1.04792E+00  1.01079E+00  3.71288E-02
    9081.253     86.237   4.960  1.04374E+00  1.01189E+00  3.18520E-02
    9082.771     87.755   5.000  1.04012E+00  1.01297E+00  2.71447E-02
    9084.301     89.285   5.040  1.03682E+00  1.01402E+00  2.27935E-02
    9085.843     90.828   5.080  1.03344E+00  1.01506E+00  1.83783E-02
    9087.398     92.382   5.120  1.02954E+00  1.01604E+00  1.34984E-02
    9088.964     93.949   5.160  1.02488E+00  1.01699E+00  7.88664E-03
    9090.543     95.528   5.200  1.01939E+00  1.01788E+00  1.50767E-03
    9092.134     97.119   5.240  1.01336E+00  1.01875E+00 -5.39549E-03
    9093.738     98.722   5.280  1.00732E+00  1.01955E+00 -1.22357E-02
    9095.353    100.337   5.320  1.00206E+00  1.02028E+00 -1.82212E-02
    9096.981    101.965   5.360  9.98315E-01  1.02098E+00 -2.26625E-02
    9098.621    103.605   5.400  9.96337E-01  1.02158E+00 -2.52450E-02
    9100.273    105.257   5.440  9.96141E-01  1.02213E+00 -2.59920E-02
    9101.937    106.921   5.480  9.97465E-01  1.02263E+00 -2.51671E-02
    9103.613    108.597   5.520  9.99822E-01  1.02306E+00 -2.32337E-02
    9105.302    110.286   5.560  1.00252E+00  1.02340E+00 -2.08810E-02
    9107.002    111.987   5.600  1.00463E+00  1.02366E+00 -1.90289E-02
    9108.715    113.700   5.640  1.00506E+00  1.02385E+00 -1.87837E-02
    9110.441    115.425   5.680  1.00289E+00  1.02398E+00 -2.10916E-02
    9112.178    117.162   5.720  9.97776E-01  1.02403E+00 -2.62577E-02
    9113.927    118.912   5.760  9.90321E-01  1.02401E+00 -3.36867E-02
    9115.689    120.673   5.800  9.81732E-01  1.02390E+00 -4.21689E-02
    9117.463    122.447   5.840  9.73368E-01  1.02372E+00 -5.03487E-02
    9119.249    124.234   5.880  9.66381E-01  1.02346E+00 -5.70757E-02
    9121.048    126.032   5.920  9.61632E-01  1.02314E+00 -6.15129E-02
    9122.858    127.842   5.960  9.59664E-01  1.02275E+00 -6.30853E-02
    9124.681    129.665   6.000  9.60987E-01  1.02225E+00 -6.12616E-02
