# # comment:                                                     FEFF 9.9.1  
# # Source:
# # Structure
# # Reduced
# # space
# # abc:
# # angles:
# # sites:
# # POT  SCF 100  7.0000   0, screened core-hole, AFOLP (folp(0)= 1.150)
# # Abs   Z=29 Rmt= 1.142 Rnm= 1.261 K  shell
# # Pot 1 Z=29 Rmt= 1.142 Rnm= 1.261
# # Pot 2 Z=28 Rmt= 1.388 Rnm= 1.465
# # Pot 3 Z= 8 Rmt= 1.014 Rnm= 1.107
# # Gam_ch=1.729E+00 H-L exch Vi= 0.000E+00 Vr= 0.000E+00
# # Mu=-8.672E+00eV kf=2.173E+00 Vint=-1.589E+01eV Rs_int= 1.669
# FMS rfms= 9.0000
# # PATH  Rmax=-1.000,  Keep_limit= 0.00, Heap_limit 0.00  Pwcrit= 2.50%
#  S02=0.950  Temp=   0.00  Debye_temp=   0.00  Global_sig2= 0.00000
#  Energy zero shift, vr, vi    0.00000E+00   0.00000E+00
#  Curved wave amplitude ratio filter   4.000%
#     file         sig2 tot  cw amp ratio   deg  nlegs   reff  inp sig2
#     0/   0 paths used
#  xsedge+ 50, used to normalize mu           2.4374E-04
#  -----------------------------------------------------------------------
#  omega    e    k    mu    mu0     chi     @#
    8984.000    -12.482  -1.000  3.26168E-02  5.40665E-02 -2.14497E-02
    8984.299    -12.183  -0.960  3.41279E-02  5.79201E-02 -2.37922E-02
    8984.585    -11.897  -0.920  3.57441E-02  6.21922E-02 -2.64481E-02
    8984.859    -11.622  -0.880  3.74780E-02  6.69432E-02 -2.94652E-02
    8985.121    -11.360  -0.840  3.93443E-02  7.22432E-02 -3.28989E-02
    8985.371    -11.110  -0.800  4.13607E-02  7.81735E-02 -3.68128E-02
    8985.609    -10.873  -0.760  4.35475E-02  8.48268E-02 -4.12793E-02
    8985.835    -10.647  -0.720  4.59286E-02  9.23080E-02 -4.63795E-02
    8986.048    -10.434  -0.680  4.85306E-02  1.00732E-01 -5.22015E-02
    8986.249    -10.233  -0.640  5.13823E-02  1.10220E-01 -5.88381E-02
    8986.438    -10.044  -0.600  5.45119E-02  1.20891E-01 -6.63794E-02
    8986.615     -9.867  -0.560  5.79430E-02  1.32846E-01 -7.49026E-02
    8986.780     -9.702  -0.520  6.16872E-02  1.46142E-01 -8.44551E-02
    8986.932     -9.550  -0.480  6.57345E-02  1.60766E-01 -9.50314E-02
    8987.072     -9.410  -0.440  7.00415E-02  1.76589E-01 -1.06547E-01
    8987.200     -9.282  -0.400  7.45229E-02  1.93339E-01 -1.18816E-01
    8987.316     -9.166  -0.360  7.90506E-02  2.10590E-01 -1.31539E-01
    8987.420     -9.062  -0.320  8.34659E-02  2.27789E-01 -1.44323E-01
    8987.511     -8.971  -0.280  8.76035E-02  2.44319E-01 -1.56715E-01
    8987.590     -8.891  -0.240  9.13199E-02  2.59587E-01 -1.68267E-01
    8987.657     -8.824  -0.200  9.45133E-02  2.73091E-01 -1.78578E-01
    8987.712     -8.770  -0.160  9.71294E-02  2.84463E-01 -1.87334E-01
    8987.755     -8.727  -0.120  9.91527E-02  2.93462E-01 -1.94310E-01
    8987.785     -8.696  -0.080  1.00590E-01  2.99952E-01 -1.99362E-01
    8987.810     -8.672   0.000  1.01746E-01  3.05172E-01 -2.03426E-01
    8987.865     -8.617   0.120  1.04277E-01  3.16939E-01 -2.12662E-01
    8987.907     -8.575   0.160  1.06141E-01  3.26111E-01 -2.19970E-01
    8987.962     -8.520   0.200  1.08386E-01  3.37837E-01 -2.29451E-01
    8988.029     -8.453   0.240  1.10914E-01  3.51979E-01 -2.41065E-01
    8988.109     -8.373   0.280  1.13603E-01  3.68306E-01 -2.54703E-01
    8988.200     -8.282   0.320  1.16238E-01  3.86400E-01 -2.70162E-01
    8988.304     -8.178   0.360  1.18632E-01  4.05791E-01 -2.87159E-01
    8988.419     -8.062   0.400  1.20663E-01  4.25994E-01 -3.05331E-01
    8988.547     -7.934   0.440  1.22217E-01  4.46507E-01 -3.24291E-01
    8988.688     -7.794   0.480  1.23305E-01  4.66972E-01 -3.43666E-01
    8988.840     -7.642   0.520  1.24123E-01  4.87159E-01 -3.63036E-01
    8989.005     -7.477   0.560  1.24958E-01  5.06920E-01 -3.81963E-01
    8989.181     -7.300   0.600  1.26345E-01  5.26264E-01 -3.99919E-01
    8989.370     -7.111   0.640  1.28823E-01  5.45196E-01 -4.16372E-01
    8989.572     -6.910   0.680  1.32961E-01  5.63795E-01 -4.30835E-01
    8989.785     -6.697   0.720  1.39258E-01  5.82091E-01 -4.42832E-01
    8990.010     -6.471   0.760  1.48350E-01  6.00210E-01 -4.51860E-01
    8990.248     -6.234   0.800  1.60979E-01  6.18148E-01 -4.57169E-01
    8990.498     -5.984   0.840  1.78405E-01  6.35972E-01 -4.57566E-01
    8990.760     -5.722   0.880  2.02516E-01  6.53710E-01 -4.51195E-01
    8991.035     -5.447   0.920  2.36344E-01  6.71363E-01 -4.35019E-01
    8991.321     -5.161   0.960  2.84413E-01  6.88936E-01 -4.04523E-01
    8991.620     -4.862   1.000  3.52572E-01  7.06385E-01 -3.53813E-01
    8991.931     -4.551   1.040  4.45313E-01  7.23719E-01 -2.78406E-01
    8992.254     -4.228   1.080  5.56918E-01  7.40920E-01 -1.84002E-01
    8992.589     -3.893   1.120  6.60778E-01  7.57923E-01 -9.71450E-02
    8992.937     -3.545   1.160  7.19476E-01  7.74679E-01 -5.52028E-02
    8993.296     -3.186   1.200  7.15210E-01  7.91176E-01 -7.59665E-02
    8993.668     -2.814   1.240  6.60801E-01  8.07361E-01 -1.46559E-01
    8994.052     -2.430   1.280  5.88052E-01  8.23197E-01 -2.35145E-01
    8994.448     -2.034   1.320  5.25740E-01  8.38606E-01 -3.12866E-01
    8994.857     -1.625   1.360  4.83838E-01  8.53572E-01 -3.69734E-01
    8995.277     -1.204   1.400  4.63179E-01  8.68062E-01 -4.04883E-01
    8995.710     -0.772   1.440  4.59331E-01  8.82016E-01 -4.22685E-01
    8996.155     -0.327   1.480  4.63897E-01  8.95423E-01 -4.31526E-01
    8996.612      0.131   1.520  4.75082E-01  9.08250E-01 -4.33168E-01
    8997.082      0.600   1.560  4.94807E-01  9.20446E-01 -4.25638E-01
    8997.563      1.082   1.600  5.21573E-01  9.32023E-01 -4.10450E-01
    8998.057      1.575   1.640  5.51803E-01  9.42954E-01 -3.91150E-01
    8998.563      2.081   1.680  5.87675E-01  9.53214E-01 -3.65539E-01
    8999.081      2.599   1.720  6.36397E-01  9.62802E-01 -3.26406E-01
    8999.612      3.130   1.760  7.01682E-01  9.71737E-01 -2.70055E-01
    9000.154      3.672   1.800  7.80044E-01  9.80003E-01 -1.99959E-01
    9000.709      4.227   1.840  8.68663E-01  9.87603E-01 -1.18940E-01
    9001.276      4.794   1.880  9.67479E-01  9.94562E-01 -2.70823E-02
    9001.855      5.373   1.920  1.07515E+00  1.00087E+00  7.42858E-02
    9002.446      5.964   1.960  1.18639E+00  1.00657E+00  1.79822E-01
    9003.050      6.568   2.000  1.30733E+00  1.01166E+00  2.95669E-01
    9003.665      7.184   2.040  1.45629E+00  1.01616E+00  4.40125E-01
    9004.293      7.811   2.080  1.59607E+00  1.02012E+00  5.75951E-01
    9004.933      8.452   2.120  1.64053E+00  1.02353E+00  6.16991E-01
    9005.586      9.104   2.160  1.59329E+00  1.02645E+00  5.66839E-01
    9006.250      9.768   2.200  1.53137E+00  1.02889E+00  5.02477E-01
    9006.927     10.445   2.240  1.47465E+00  1.03089E+00  4.43762E-01
    9007.616     11.134   2.280  1.39677E+00  1.03244E+00  3.64332E-01
    9008.317     11.835   2.320  1.30605E+00  1.03360E+00  2.72443E-01
    9009.030     12.548   2.360  1.23446E+00  1.03440E+00  2.00057E-01
    9009.755     13.273   2.400  1.19433E+00  1.03488E+00  1.59448E-01
    9010.493     14.011   2.440  1.17820E+00  1.03502E+00  1.43179E-01
    9011.243     14.761   2.480  1.18021E+00  1.03489E+00  1.45324E-01
    9012.005     15.523   2.520  1.19792E+00  1.03450E+00  1.63420E-01
    9012.779     16.297   2.560  1.21828E+00  1.03388E+00  1.84401E-01
    9013.565     17.083   2.600  1.21827E+00  1.03304E+00  1.85226E-01
    9014.364     17.882   2.640  1.20526E+00  1.03201E+00  1.73254E-01
    9015.175     18.693   2.680  1.18756E+00  1.03083E+00  1.56724E-01
    9015.998     19.516   2.720  1.16609E+00  1.02953E+00  1.36563E-01
    9016.833     20.351   2.760  1.14123E+00  1.02807E+00  1.13159E-01
    9017.680     21.198   2.800  1.11327E+00  1.02653E+00  8.67465E-02
    9018.540     22.058   2.840  1.08312E+00  1.02492E+00  5.82064E-02
    9019.411     22.929   2.880  1.05184E+00  1.02321E+00  2.86279E-02
    9020.295     23.813   2.920  1.02055E+00  1.02148E+00 -9.31493E-04
    9021.191     24.710   2.960  9.90542E-01  1.01971E+00 -2.91722E-02
    9022.100     25.618   3.000  9.62958E-01  1.01791E+00 -5.49544E-02
    9023.020     26.538   3.040  9.38550E-01  1.01611E+00 -7.75565E-02
    9023.953     27.471   3.080  9.18217E-01  1.01432E+00 -9.61064E-02
    9024.898     28.416   3.120  9.02320E-01  1.01255E+00 -1.10228E-01
    9025.855     29.373   3.160  8.90398E-01  1.01078E+00 -1.20384E-01
    9026.824     30.342   3.200  8.81730E-01  1.00907E+00 -1.27344E-01
    9027.805     31.324   3.240  8.75246E-01  1.00739E+00 -1.32142E-01
    9028.799     32.317   3.280  8.69863E-01  1.00577E+00 -1.35906E-01
    9029.805     33.323   3.320  8.64713E-01  1.00422E+00 -1.39506E-01
    9030.823     34.341   3.360  8.59679E-01  1.00272E+00 -1.43042E-01
    9031.853     35.371   3.400  8.55221E-01  1.00128E+00 -1.46056E-01
    9032.896     36.414   3.440  8.52212E-01  9.99931E-01 -1.47719E-01
    9033.950     37.468   3.480  8.51423E-01  9.98667E-01 -1.47244E-01
    9035.017     38.535   3.520  8.53263E-01  9.97463E-01 -1.44200E-01
    9036.096     39.614   3.560  8.57716E-01  9.96365E-01 -1.38649E-01
    9037.187     40.705   3.600  8.64676E-01  9.95352E-01 -1.30676E-01
    9038.291     41.809   3.640  8.74062E-01  9.94445E-01 -1.20383E-01
    9039.406     42.924   3.680  8.85501E-01  9.93605E-01 -1.08104E-01
    9040.534     44.052   3.720  8.98590E-01  9.92873E-01 -9.42830E-02
    9041.674     45.192   3.760  9.12988E-01  9.92252E-01 -7.92641E-02
    9042.826     46.344   3.800  9.28222E-01  9.91718E-01 -6.34965E-02
    9043.990     47.508   3.840  9.43586E-01  9.91272E-01 -4.76864E-02
    9045.167     48.685   3.880  9.58328E-01  9.90913E-01 -3.25850E-02
    9046.356     49.874   3.920  9.71766E-01  9.90661E-01 -1.88955E-02
    9047.556     51.075   3.960  9.83363E-01  9.90494E-01 -7.13083E-03
    9048.770     52.288   4.000  9.92981E-01  9.90413E-01  2.56777E-03
    9049.995     53.513   4.040  1.00086E+00  9.90417E-01  1.04425E-02
    9051.232     54.750   4.080  1.00740E+00  9.90527E-01  1.68702E-02
    9052.482     56.000   4.120  1.01296E+00  9.90720E-01  2.22369E-02
    9053.744     57.262   4.160  1.01776E+00  9.90972E-01  2.67857E-02
    9055.018     58.536   4.200  1.02192E+00  9.91323E-01  3.05957E-02
    9056.304     59.822   4.240  1.02548E+00  9.91732E-01  3.37488E-02
    9057.603     61.121   4.280  1.02865E+00  9.92217E-01  3.64364E-02
    9058.913     62.431   4.320  1.03164E+00  9.92776E-01  3.88611E-02
    9060.236     63.754   4.360  1.03457E+00  9.93386E-01  4.11796E-02
    9061.571     65.089   4.400  1.03772E+00  9.94068E-01  4.36534E-02
    9062.918     66.436   4.440  1.04137E+00  9.94797E-01  4.65773E-02
    9064.278     67.796   4.480  1.04562E+00  9.95593E-01  5.00274E-02
    9065.649     69.167   4.520  1.05019E+00  9.96409E-01  5.37781E-02
    9067.033     70.551   4.560  1.05479E+00  9.97287E-01  5.74999E-02
    9068.429     71.947   4.600  1.05918E+00  9.98181E-01  6.09951E-02
    9069.837     73.355   4.640  1.06324E+00  9.99111E-01  6.41249E-02
    9071.258     74.776   4.680  1.06674E+00  1.00008E+00  6.66606E-02
    9072.690     76.208   4.720  1.06926E+00  1.00107E+00  6.81848E-02
    9074.135     77.653   4.760  1.07032E+00  1.00205E+00  6.82699E-02
    9075.592     79.110   4.800  1.06973E+00  1.00306E+00  6.66697E-02
    9077.061     80.579   4.840  1.06745E+00  1.00409E+00  6.33612E-02
    9078.542     82.060   4.880  1.06361E+00  1.00510E+00  5.85136E-02
    9080.036     83.554   4.920  1.05870E+00  1.00610E+00  5.25925E-02
    9081.542     85.060   4.960  1.05332E+00  1.00710E+00  4.62222E-02
    9083.059     86.578   5.000  1.04819E+00  1.00807E+00  4.01216E-02
    9084.590     88.108   5.040  1.04395E+00  1.00903E+00  3.49222E-02
    9086.132     89.650   5.080  1.04083E+00  1.00996E+00  3.08770E-02
    9087.686     91.204   5.120  1.03848E+00  1.01087E+00  2.76136E-02
    9089.253     92.771   5.160  1.03584E+00  1.01174E+00  2.41001E-02
    9090.832     94.350   5.200  1.03178E+00  1.01258E+00  1.92054E-02
    9092.423     95.941   5.240  1.02583E+00  1.01337E+00  1.24623E-02
    9094.026     97.544   5.280  1.01846E+00  1.01409E+00  4.36862E-03
    9095.642     99.160   5.320  1.01088E+00  1.01480E+00 -3.91687E-03
    9097.269    100.787   5.360  1.00439E+00  1.01543E+00 -1.10454E-02
    9098.909    102.427   5.400  1.00002E+00  1.01602E+00 -1.60008E-02
    9100.561    104.079   5.440  9.97954E-01  1.01656E+00 -1.86027E-02
    9102.225    105.743   5.480  9.97368E-01  1.01702E+00 -1.96544E-02
    9103.902    107.420   5.520  9.96792E-01  1.01741E+00 -2.06207E-02
    9105.590    109.108   5.560  9.94621E-01  1.01775E+00 -2.31304E-02
    9107.291    110.809   5.600  9.89654E-01  1.01804E+00 -2.83852E-02
    9109.004    112.522   5.640  9.81626E-01  1.01823E+00 -3.66021E-02
    9110.729    114.247   5.680  9.71556E-01  1.01836E+00 -4.68087E-02
    9112.466    115.985   5.720  9.61174E-01  1.01845E+00 -5.72746E-02
    9114.216    117.734   5.760  9.52251E-01  1.01843E+00 -6.61806E-02
    9115.978    119.496   5.800  9.46230E-01  1.01836E+00 -7.21329E-02
    9117.752    121.270   5.840  9.43988E-01  1.01822E+00 -7.42326E-02
    9119.538    123.056   5.880  9.46016E-01  1.01803E+00 -7.20126E-02
    9121.336    124.854   5.920  9.52251E-01  1.01776E+00 -6.55120E-02
    9123.147    126.665   5.960  9.61901E-01  1.01744E+00 -5.55390E-02
    9124.969    128.487   6.000  9.73633E-01  1.01696E+00 -4.33272E-02
