# # comment:                                                     FEFF 9.9.1  
# # Source:
# # Structure
# # Reduced
# # space
# # abc:
# # angles:109.581014
# # sites:
# # POT  SCF 100  7.0000   0, screened core-hole, AFOLP (folp(0)= 1.150)
# # Abs   Z=29 Rmt= 1.269 Rnm= 1.342 K  shell
# # Pot 1 Z=29 Rmt= 1.250 Rnm= 1.320
# # Pot 2 Z=15 Rmt= 0.945 Rnm= 1.158
# # Pot 3 Z= 8 Rmt= 0.865 Rnm= 1.037
# # Gam_ch=1.729E+00 H-L exch Vi= 0.000E+00 Vr= 0.000E+00
# # Mu=-6.739E+00eV kf=2.502E+00 Vint=-1.715E+01eV Rs_int= 1.450
# FMS rfms= 9.0000
# # PATH  Rmax=-1.000,  Keep_limit= 0.00, Heap_limit 0.00  Pwcrit= 2.50%
#  S02=0.950  Temp=   0.00  Debye_temp=   0.00  Global_sig2= 0.00000
#  Energy zero shift, vr, vi    0.00000E+00   0.00000E+00
#  Curved wave amplitude ratio filter   4.000%
#     file         sig2 tot  cw amp ratio   deg  nlegs   reff  inp sig2
#     0/   0 paths used
#  xsedge+ 50, used to normalize mu           2.4893E-04
#  -----------------------------------------------------------------------
#  omega    e    k    mu    mu0     chi     @#
    8983.303    -10.549  -1.000  3.80772E-02  5.12265E-02 -1.31493E-02
    8983.602    -10.250  -0.960  4.00784E-02  5.49179E-02 -1.48395E-02
    8983.888     -9.964  -0.920  4.22299E-02  5.90201E-02 -1.67901E-02
    8984.163     -9.690  -0.880  4.45477E-02  6.35938E-02 -1.90461E-02
    8984.425     -9.427  -0.840  4.70494E-02  6.87099E-02 -2.16605E-02
    8984.675     -9.177  -0.800  4.97551E-02  7.44504E-02 -2.46954E-02
    8984.913     -8.940  -0.760  5.26867E-02  8.09097E-02 -2.82230E-02
    8985.138     -8.714  -0.720  5.58684E-02  8.81941E-02 -3.23258E-02
    8985.351     -8.501  -0.680  5.93255E-02  9.64214E-02 -3.70959E-02
    8985.553     -8.300  -0.640  6.30837E-02  1.05715E-01 -4.26317E-02
    8985.742     -8.111  -0.600  6.71661E-02  1.16198E-01 -4.90321E-02
    8985.918     -7.934  -0.560  7.15900E-02  1.27974E-01 -5.63839E-02
    8986.083     -7.769  -0.520  7.63608E-02  1.41105E-01 -6.47441E-02
    8986.235     -7.617  -0.480  8.14643E-02  1.55578E-01 -7.41134E-02
    8986.376     -7.477  -0.440  8.68577E-02  1.71265E-01 -8.44072E-02
    8986.504     -7.349  -0.400  9.24630E-02  1.87893E-01 -9.54297E-02
    8986.619     -7.233  -0.360  9.81636E-02  2.05030E-01 -1.06866E-01
    8986.723     -7.129  -0.320  1.03811E-01  2.22117E-01 -1.18306E-01
    8986.814     -7.038  -0.280  1.09238E-01  2.38533E-01 -1.29295E-01
    8986.894     -6.959  -0.240  1.14279E-01  2.53681E-01 -1.39401E-01
    8986.961     -6.891  -0.200  1.18785E-01  2.67062E-01 -1.48278E-01
    8987.016     -6.837  -0.160  1.22630E-01  2.78314E-01 -1.55684E-01
    8987.058     -6.794  -0.120  1.25720E-01  2.87205E-01 -1.61485E-01
    8987.089     -6.763  -0.080  1.27981E-01  2.93608E-01 -1.65627E-01
    8987.113     -6.739   0.000  1.29835E-01  2.98752E-01 -1.68917E-01
    8987.168     -6.684   0.120  1.34069E-01  3.10344E-01 -1.76275E-01
    8987.211     -6.642   0.160  1.37406E-01  3.19346E-01 -1.81940E-01
    8987.266     -6.587   0.200  1.41765E-01  3.30835E-01 -1.89070E-01
    8987.333     -6.520   0.240  1.47175E-01  3.44626E-01 -1.97451E-01
    8987.412     -6.440   0.280  1.53708E-01  3.60453E-01 -2.06745E-01
    8987.503     -6.349   0.320  1.61425E-01  3.77899E-01 -2.16474E-01
    8987.607     -6.245   0.360  1.70346E-01  3.96428E-01 -2.26082E-01
    8987.723     -6.129   0.400  1.80495E-01  4.15492E-01 -2.34997E-01
    8987.851     -6.001   0.440  1.91778E-01  4.34574E-01 -2.42796E-01
    8987.991     -5.861   0.480  2.04106E-01  4.53329E-01 -2.49224E-01
    8988.143     -5.709   0.520  2.17067E-01  4.71453E-01 -2.54386E-01
    8988.308     -5.544   0.560  2.30220E-01  4.88855E-01 -2.58635E-01
    8988.485     -5.367   0.600  2.42961E-01  5.05525E-01 -2.62564E-01
    8988.674     -5.179   0.640  2.54704E-01  5.21504E-01 -2.66800E-01
    8988.875     -4.977   0.680  2.65189E-01  5.36867E-01 -2.71678E-01
    8989.088     -4.764   0.720  2.74953E-01  5.51720E-01 -2.76767E-01
    8989.314     -4.538   0.760  2.85395E-01  5.66171E-01 -2.80775E-01
    8989.552     -4.301   0.800  2.98453E-01  5.80299E-01 -2.81846E-01
    8989.802     -4.051   0.840  3.16087E-01  5.94189E-01 -2.78102E-01
    8990.064     -3.789   0.880  3.39842E-01  6.07875E-01 -2.68033E-01
    8990.338     -3.514   0.920  3.70673E-01  6.21439E-01 -2.50766E-01
    8990.624     -3.228   0.960  4.08408E-01  6.34889E-01 -2.26481E-01
    8990.923     -2.929   1.000  4.51023E-01  6.48265E-01 -1.97241E-01
    8991.234     -2.618   1.040  4.94073E-01  6.61576E-01 -1.67503E-01
    8991.557     -2.295   1.080  5.32816E-01  6.74827E-01 -1.42011E-01
    8991.892     -1.960   1.120  5.66610E-01  6.88012E-01 -1.21403E-01
    8992.240     -1.612   1.160  5.98847E-01  7.01164E-01 -1.02317E-01
    8992.600     -1.253   1.200  6.30542E-01  7.14229E-01 -8.36873E-02
    8992.971     -0.881   1.240  6.59427E-01  7.27210E-01 -6.77827E-02
    8993.355     -0.497   1.280  6.84455E-01  7.40109E-01 -5.56540E-02
    8993.752     -0.101   1.320  7.05286E-01  7.52883E-01 -4.75968E-02
    8994.160      0.308   1.360  7.20160E-01  7.65526E-01 -4.53661E-02
    8994.581      0.728   1.400  7.29523E-01  7.78015E-01 -4.84921E-02
    8995.014      1.161   1.440  7.39259E-01  7.90303E-01 -5.10438E-02
    8995.459      1.606   1.480  7.58456E-01  8.02422E-01 -4.39658E-02
    8995.916      2.063   1.520  7.94441E-01  8.14304E-01 -1.98628E-02
    8996.385      2.533   1.560  8.43515E-01  8.25940E-01  1.75744E-02
    8996.867      3.014   1.600  8.91157E-01  8.37303E-01  5.38548E-02
    8997.361      3.508   1.640  9.28840E-01  8.48384E-01  8.04560E-02
    8997.866      4.014   1.680  9.61888E-01  8.59155E-01  1.02732E-01
    8998.385      4.532   1.720  1.00188E+00  8.69590E-01  1.32286E-01
    8998.915      5.063   1.760  1.05552E+00  8.79700E-01  1.75818E-01
    8999.458      5.605   1.800  1.11516E+00  8.89460E-01  2.25703E-01
    9000.012      6.160   1.840  1.16376E+00  8.98824E-01  2.64937E-01
    9000.579      6.727   1.880  1.19224E+00  9.07826E-01  2.84418E-01
    9001.158      7.306   1.920  1.20287E+00  9.16424E-01  2.86443E-01
    9001.750      7.897   1.960  1.20164E+00  9.24635E-01  2.77002E-01
    9002.353      8.501   2.000  1.19758E+00  9.32433E-01  2.65144E-01
    9002.969      9.117   2.040  1.19594E+00  9.39819E-01  2.56121E-01
    9003.597      9.744   2.080  1.19683E+00  9.46793E-01  2.50039E-01
    9004.237     10.385   2.120  1.19831E+00  9.53352E-01  2.44959E-01
    9004.889     11.037   2.160  1.19739E+00  9.59499E-01  2.37886E-01
    9005.554     11.701   2.200  1.19025E+00  9.65237E-01  2.25010E-01
    9006.230     12.378   2.240  1.17379E+00  9.70567E-01  2.03222E-01
    9006.919     13.067   2.280  1.14859E+00  9.75492E-01  1.73095E-01
    9007.620     13.768   2.320  1.11992E+00  9.80036E-01  1.39887E-01
    9008.333     14.481   2.360  1.09346E+00  9.84205E-01  1.09252E-01
    9009.059     15.206   2.400  1.07283E+00  9.87982E-01  8.48463E-02
    9009.796     15.944   2.440  1.06051E+00  9.91394E-01  6.91112E-02
    9010.546     16.694   2.480  1.05638E+00  9.94467E-01  6.19154E-02
    9011.308     17.456   2.520  1.05674E+00  9.97187E-01  5.95484E-02
    9012.082     18.230   2.560  1.05633E+00  9.99600E-01  5.67281E-02
    9012.869     19.016   2.600  1.05046E+00  1.00169E+00  4.87654E-02
    9013.667     19.815   2.640  1.03811E+00  1.00348E+00  3.46371E-02
    9014.478     20.626   2.680  1.02156E+00  1.00499E+00  1.65686E-02
    9015.301     21.449   2.720  1.00292E+00  1.00623E+00 -3.30958E-03
    9016.136     22.284   2.760  9.83972E-01  1.00720E+00 -2.32316E-02
    9016.983     23.131   2.800  9.66342E-01  1.00795E+00 -4.16122E-02
    9017.843     23.991   2.840  9.50026E-01  1.00849E+00 -5.84651E-02
    9018.715     24.862   2.880  9.34491E-01  1.00880E+00 -7.43108E-02
    9019.599     25.746   2.920  9.22371E-01  1.00893E+00 -8.65622E-02
    9020.495     26.642   2.960  9.13717E-01  1.00887E+00 -9.51573E-02
    9021.403     27.551   3.000  9.08198E-01  1.00867E+00 -1.00475E-01
    9022.324     28.471   3.040  9.04964E-01  1.00829E+00 -1.03330E-01
    9023.256     29.404   3.080  9.03148E-01  1.00781E+00 -1.04657E-01
    9024.201     30.349   3.120  9.02181E-01  1.00717E+00 -1.04994E-01
    9025.158     31.306   3.160  9.02308E-01  1.00645E+00 -1.04142E-01
    9026.127     32.275   3.200  9.03624E-01  1.00564E+00 -1.02011E-01
    9027.109     33.257   3.240  9.06106E-01  1.00472E+00 -9.86119E-02
    9028.103     34.250   3.280  9.09537E-01  1.00374E+00 -9.42065E-02
    9029.108     35.256   3.320  9.13550E-01  1.00272E+00 -8.91676E-02
    9030.126     36.274   3.360  9.18041E-01  1.00163E+00 -8.35850E-02
    9031.157     37.304   3.400  9.23297E-01  1.00049E+00 -7.71964E-02
    9032.199     38.347   3.440  9.29524E-01  9.99345E-01 -6.98207E-02
    9033.254     39.401   3.480  9.36528E-01  9.98165E-01 -6.16366E-02
    9034.320     40.468   3.520  9.44007E-01  9.96977E-01 -5.29701E-02
    9035.399     41.547   3.560  9.51450E-01  9.95788E-01 -4.43381E-02
    9036.491     42.638   3.600  9.58303E-01  9.94599E-01 -3.62965E-02
    9037.594     43.742   3.640  9.64249E-01  9.93415E-01 -2.91657E-02
    9038.710     44.857   3.680  9.69265E-01  9.92259E-01 -2.29949E-02
    9039.837     45.985   3.720  9.73482E-01  9.91135E-01 -1.76539E-02
    9040.977     47.125   3.760  9.77132E-01  9.90024E-01 -1.28919E-02
    9042.129     48.277   3.800  9.80589E-01  9.88949E-01 -8.36000E-03
    9043.294     49.441   3.840  9.84167E-01  9.87913E-01 -3.74592E-03
    9044.470     50.618   3.880  9.88149E-01  9.86918E-01  1.23061E-03
    9045.659     51.807   3.920  9.92778E-01  9.85988E-01  6.79049E-03
    9046.860     53.008   3.960  9.98145E-01  9.85102E-01  1.30428E-02
    9048.073     54.221   4.000  1.00421E+00  9.84263E-01  1.99426E-02
    9049.298     55.446   4.040  1.01086E+00  9.83490E-01  2.73719E-02
    9050.536     56.683   4.080  1.01782E+00  9.82764E-01  3.50572E-02
    9051.785     57.933   4.120  1.02461E+00  9.82087E-01  4.25191E-02
    9053.047     59.195   4.160  1.03065E+00  9.81479E-01  4.91718E-02
    9054.321     60.469   4.200  1.03540E+00  9.80944E-01  5.44519E-02
    9055.608     61.755   4.240  1.03838E+00  9.80459E-01  5.79219E-02
    9056.906     63.054   4.280  1.03939E+00  9.80047E-01  5.93462E-02
    9058.217     64.364   4.320  1.03854E+00  9.79706E-01  5.88365E-02
    9059.539     65.687   4.360  1.03618E+00  9.79412E-01  5.67706E-02
    9060.874     67.022   4.400  1.03286E+00  9.79168E-01  5.36893E-02
    9062.222     68.369   4.440  1.02918E+00  9.78996E-01  5.01818E-02
    9063.581     69.729   4.480  1.02561E+00  9.78893E-01  4.67169E-02
    9064.953     71.100   4.520  1.02241E+00  9.78837E-01  4.35698E-02
    9066.336     72.484   4.560  1.01967E+00  9.78828E-01  4.08382E-02
    9067.732     73.880   4.600  1.01736E+00  9.78887E-01  3.84718E-02
    9069.141     75.288   4.640  1.01529E+00  9.78992E-01  3.62974E-02
    9070.561     76.709   4.680  1.01323E+00  9.79162E-01  3.40675E-02
    9071.994     78.141   4.720  1.01086E+00  9.79352E-01  3.15078E-02
    9073.438     79.586   4.760  1.00789E+00  9.79604E-01  2.82891E-02
    9074.895     81.043   4.800  1.00400E+00  9.79876E-01  2.41188E-02
    9076.364     82.512   4.840  9.99046E-01  9.80206E-01  1.88406E-02
    9077.846     83.993   4.880  9.93078E-01  9.80550E-01  1.25277E-02
    9079.339     85.487   4.920  9.86463E-01  9.80931E-01  5.53177E-03
    9080.845     86.993   4.960  9.79694E-01  9.81347E-01 -1.65296E-03
    9082.363     88.511   5.000  9.73217E-01  9.81795E-01 -8.57781E-03
    9083.893     90.041   5.040  9.67230E-01  9.82252E-01 -1.50221E-02
    9085.435     91.583   5.080  9.61693E-01  9.82715E-01 -2.10218E-02
    9086.990     93.137   5.120  9.56552E-01  9.83205E-01 -2.66526E-02
    9088.556     94.704   5.160  9.51827E-01  9.83698E-01 -3.18711E-02
    9090.135     96.283   5.200  9.47786E-01  9.84194E-01 -3.64084E-02
    9091.726     97.874   5.240  9.44802E-01  9.84689E-01 -3.98873E-02
    9093.329     99.477   5.280  9.43205E-01  9.85182E-01 -4.19775E-02
    9094.945    101.093   5.320  9.43145E-01  9.85673E-01 -4.25278E-02
    9096.573    102.720   5.360  9.44558E-01  9.86159E-01 -4.16010E-02
    9098.212    104.360   5.400  9.47215E-01  9.86617E-01 -3.94015E-02
    9099.864    106.012   5.440  9.50831E-01  9.87065E-01 -3.62334E-02
    9101.529    107.676   5.480  9.55015E-01  9.87481E-01 -3.24661E-02
    9103.205    109.353   5.520  9.59395E-01  9.87887E-01 -2.84927E-02
    9104.894    111.041   5.560  9.63608E-01  9.88262E-01 -2.46534E-02
    9106.594    112.742   5.600  9.67403E-01  9.88623E-01 -2.12202E-02
    9108.307    114.455   5.640  9.70550E-01  9.88947E-01 -1.83965E-02
    9110.032    116.180   5.680  9.72930E-01  9.89208E-01 -1.62782E-02
    9111.770    117.917   5.720  9.74612E-01  9.89454E-01 -1.48414E-02
    9113.519    119.667   5.760  9.75698E-01  9.89661E-01 -1.39633E-02
    9115.281    121.429   5.800  9.76338E-01  9.89829E-01 -1.34915E-02
    9117.055    123.203   5.840  9.76656E-01  9.89956E-01 -1.32999E-02
    9118.841    124.989   5.880  9.76770E-01  9.90041E-01 -1.32713E-02
    9120.639    126.787   5.920  9.76813E-01  9.90059E-01 -1.32462E-02
    9122.450    128.598   5.960  9.77100E-01  9.90053E-01 -1.29530E-02
    9124.273    130.420   6.000  9.78012E-01  9.89952E-01 -1.19406E-02
