# # comment:                                                     FEFF 9.9.1  
# # Source:
# # Structure
# # Reduced
# # space
# # abc:
# # angles:130.056307
# # sites:
# # POT  SCF 100  7.0000   0, screened core-hole, AFOLP (folp(0)= 1.150)
# # Abs   Z=29 Rmt= 1.365 Rnm= 1.422 K  shell
# # Pot 1 Z= 3 Rmt= 1.239 Rnm= 1.301
# # Pot 2 Z=29 Rmt= 1.352 Rnm= 1.410
# # Pot 3 Z=15 Rmt= 0.945 Rnm= 1.156
# # Pot 4 Z= 8 Rmt= 0.938 Rnm= 1.040
# # Gam_ch=1.729E+00 H-L exch Vi= 0.000E+00 Vr= 0.000E+00
# # Mu=-6.280E+00eV kf=2.380E+00 Vint=-1.730E+01eV Rs_int= 1.524
# FMS rfms= 9.0000
# # PATH  Rmax=-1.000,  Keep_limit= 0.00, Heap_limit 0.00  Pwcrit= 2.50%
#  S02=0.950  Temp=   0.00  Debye_temp=   0.00  Global_sig2= 0.00000
#  Energy zero shift, vr, vi    0.00000E+00   0.00000E+00
#  Curved wave amplitude ratio filter   4.000%
#     file         sig2 tot  cw amp ratio   deg  nlegs   reff  inp sig2
#     0/   0 paths used
#  xsedge+ 50, used to normalize mu           2.4702E-04
#  -----------------------------------------------------------------------
#  omega    e    k    mu    mu0     chi     @#
    8983.654    -10.089  -1.000  5.07971E-02  5.42701E-02 -3.47302E-03
    8983.953     -9.791  -0.960  5.43174E-02  5.82309E-02 -3.91349E-03
    8984.239     -9.504  -0.920  5.82365E-02  6.26356E-02 -4.39907E-03
    8984.514     -9.230  -0.880  6.26192E-02  6.75501E-02 -4.93094E-03
    8984.776     -8.968  -0.840  6.75423E-02  7.30512E-02 -5.50891E-03
    8985.026     -8.718  -0.800  7.30969E-02  7.92278E-02 -6.13092E-03
    8985.264     -8.480  -0.760  7.93900E-02  8.61824E-02 -6.79238E-03
    8985.489     -8.255  -0.720  8.65448E-02  9.40303E-02 -7.48552E-03
    8985.702     -8.041  -0.680  9.47004E-02  1.02899E-01 -8.19887E-03
    8985.904     -7.840  -0.640  1.04007E-01  1.12924E-01 -8.91718E-03
    8986.093     -7.651  -0.600  1.14615E-01  1.24237E-01 -9.62231E-03
    8986.269     -7.474  -0.560  1.26655E-01  1.36951E-01 -1.02956E-02
    8986.434     -7.310  -0.520  1.40212E-01  1.51135E-01 -1.09228E-02
    8986.586     -7.157  -0.480  1.55272E-01  1.66773E-01 -1.15011E-02
    8986.727     -7.017  -0.440  1.71681E-01  1.83729E-01 -1.20479E-02
    8986.855     -6.889  -0.400  1.89099E-01  2.01706E-01 -1.26071E-02
    8986.970     -6.773  -0.360  2.06988E-01  2.20236E-01 -1.32477E-02
    8987.074     -6.670  -0.320  2.24663E-01  2.38713E-01 -1.40498E-02
    8987.166     -6.578  -0.280  2.41386E-01  2.56464E-01 -1.50776E-02
    8987.245     -6.499  -0.240  2.56493E-01  2.72843E-01 -1.63491E-02
    8987.312     -6.432  -0.200  2.69495E-01  2.87310E-01 -1.78153E-02
    8987.367     -6.377  -0.160  2.80112E-01  2.99473E-01 -1.93616E-02
    8987.409     -6.334  -0.120  2.88249E-01  3.09083E-01 -2.08338E-02
    8987.440     -6.304  -0.080  2.93927E-01  3.16003E-01 -2.20752E-02
    8987.464     -6.280   0.000  2.98259E-01  3.21561E-01 -2.33014E-02
    8987.519     -6.225   0.120  3.07894E-01  3.34099E-01 -2.62050E-02
    8987.562     -6.182   0.160  3.15251E-01  3.43822E-01 -2.85712E-02
    8987.617     -6.127   0.200  3.24279E-01  3.56224E-01 -3.19448E-02
    8987.684     -6.060   0.240  3.34520E-01  3.71120E-01 -3.65996E-02
    8987.763     -5.981   0.280  3.45374E-01  3.88199E-01 -4.28249E-02
    8987.854     -5.889   0.320  3.56216E-01  4.07004E-01 -5.07875E-02
    8987.958     -5.786   0.360  3.66568E-01  4.26952E-01 -6.03840E-02
    8988.074     -5.670   0.400  3.76375E-01  4.47448E-01 -7.10728E-02
    8988.202     -5.542   0.440  3.86064E-01  4.67965E-01 -8.19013E-02
    8988.342     -5.402   0.480  3.96244E-01  4.88045E-01 -9.18004E-02
    8988.494     -5.249   0.520  4.07353E-01  5.07441E-01 -1.00088E-01
    8988.659     -5.085   0.560  4.19103E-01  5.26014E-01 -1.06911E-01
    8988.836     -4.908   0.600  4.30426E-01  5.43733E-01 -1.13307E-01
    8989.025     -4.719   0.640  4.39838E-01  5.60683E-01 -1.20845E-01
    8989.226     -4.518   0.680  4.45857E-01  5.76927E-01 -1.31070E-01
    8989.439     -4.304   0.720  4.47523E-01  5.92580E-01 -1.45057E-01
    8989.665     -4.079   0.760  4.44562E-01  6.07782E-01 -1.63220E-01
    8989.903     -3.841   0.800  4.37590E-01  6.22579E-01 -1.84989E-01
    8990.153     -3.591   0.840  4.28940E-01  6.37085E-01 -2.08144E-01
    8990.415     -3.329   0.880  4.22584E-01  6.51341E-01 -2.28757E-01
    8990.689     -3.055   0.920  4.22761E-01  6.65434E-01 -2.42673E-01
    8990.976     -2.768   0.960  4.31985E-01  6.79377E-01 -2.47392E-01
    8991.274     -2.470   1.000  4.50472E-01  6.93193E-01 -2.42721E-01
    8991.585     -2.159   1.040  4.76250E-01  7.06934E-01 -2.30685E-01
    8991.908     -1.836   1.080  5.05115E-01  7.20566E-01 -2.15450E-01
    8992.243     -1.500   1.120  5.32587E-01  7.34105E-01 -2.01518E-01
    8992.591     -1.153   1.160  5.57162E-01  7.47567E-01 -1.90405E-01
    8992.951     -0.793   1.200  5.80433E-01  7.60917E-01 -1.80483E-01
    8993.322     -0.421   1.240  6.06061E-01  7.74138E-01 -1.68077E-01
    8993.707     -0.037   1.280  6.40699E-01  7.87250E-01 -1.46551E-01
    8994.103      0.359   1.320  6.92573E-01  8.00171E-01 -1.07598E-01
    8994.511      0.767   1.360  7.68576E-01  8.12936E-01 -4.43603E-02
    8994.932      1.188   1.400  8.72816E-01  8.25499E-01  4.73167E-02
    8995.365      1.621   1.440  1.00786E+00  8.37833E-01  1.70025E-01
    8995.810      2.066   1.480  1.16812E+00  8.49908E-01  3.18212E-01
    8996.267      2.523   1.520  1.32190E+00  8.61717E-01  4.60181E-01
    8996.736      2.992   1.560  1.43470E+00  8.73208E-01  5.61496E-01
    8997.218      3.474   1.600  1.50918E+00  8.84395E-01  6.24788E-01
    8997.712      3.968   1.640  1.55919E+00  8.95226E-01  6.63960E-01
    8998.218      4.474   1.680  1.58065E+00  9.05674E-01  6.74971E-01
    8998.736      4.992   1.720  1.56421E+00  9.15751E-01  6.48455E-01
    8999.266      5.522   1.760  1.49902E+00  9.25431E-01  5.73587E-01
    8999.809      6.065   1.800  1.38001E+00  9.34686E-01  4.45319E-01
    9000.363      6.620   1.840  1.23588E+00  9.43490E-01  2.92389E-01
    9000.930      7.187   1.880  1.11260E+00  9.51879E-01  1.60716E-01
    9001.509      7.766   1.920  1.03160E+00  9.59789E-01  7.18092E-02
    9002.101      8.357   1.960  9.90120E-01  9.67257E-01  2.28632E-02
    9002.704      8.960   2.000  9.73042E-01  9.74241E-01 -1.19978E-03
    9003.320      9.576   2.040  9.62043E-01  9.80763E-01 -1.87195E-02
    9003.948     10.204   2.080  9.47242E-01  9.86822E-01 -3.95795E-02
    9004.588     10.844   2.120  9.29427E-01  9.92419E-01 -6.29917E-02
    9005.240     11.496   2.160  9.14623E-01  9.97539E-01 -8.29155E-02
    9005.905     12.161   2.200  9.09060E-01  1.00222E+00 -9.31626E-02
    9006.581     12.837   2.240  9.13350E-01  1.00646E+00 -9.31077E-02
    9007.270     13.526   2.280  9.25316E-01  1.01025E+00 -8.49306E-02
    9007.971     14.227   2.320  9.44318E-01  1.01362E+00 -6.92995E-02
    9008.684     14.941   2.360  9.63324E-01  1.01660E+00 -5.32746E-02
    9009.410     15.666   2.400  9.72406E-01  1.01915E+00 -4.67492E-02
    9010.147     16.404   2.440  9.70250E-01  1.02133E+00 -5.10845E-02
    9010.897     17.153   2.480  9.61009E-01  1.02317E+00 -6.21584E-02
    9011.659     17.915   2.520  9.49266E-01  1.02464E+00 -7.53757E-02
    9012.433     18.690   2.560  9.37206E-01  1.02579E+00 -8.85790E-02
    9013.220     19.476   2.600  9.26557E-01  1.02661E+00 -1.00051E-01
    9014.018     20.275   2.640  9.22664E-01  1.02714E+00 -1.04477E-01
    9014.829     21.085   2.680  9.30940E-01  1.02741E+00 -9.64745E-02
    9015.652     21.908   2.720  9.46107E-01  1.02744E+00 -8.13305E-02
    9016.487     22.743   2.760  9.57926E-01  1.02720E+00 -6.92737E-02
    9017.335     23.591   2.800  9.70369E-01  1.02677E+00 -5.64030E-02
    9018.194     24.450   2.840  9.88336E-01  1.02614E+00 -3.78054E-02
    9019.066     25.322   2.880  1.00732E+00  1.02534E+00 -1.80221E-02
    9019.950     26.206   2.920  1.01989E+00  1.02436E+00 -4.46887E-03
    9020.846     27.102   2.960  1.02229E+00  1.02326E+00 -9.72729E-04
    9021.754     28.010   3.000  1.01458E+00  1.02202E+00 -7.44220E-03
    9022.675     28.931   3.040  9.98915E-01  1.02068E+00 -2.17652E-02
    9023.607     29.864   3.080  9.78536E-01  1.01923E+00 -4.06976E-02
    9024.552     30.808   3.120  9.57342E-01  1.01773E+00 -6.03861E-02
    9025.509     31.765   3.160  9.38956E-01  1.01615E+00 -7.71927E-02
    9026.478     32.735   3.200  9.25498E-01  1.01453E+00 -8.90272E-02
    9027.460     33.716   3.240  9.17554E-01  1.01288E+00 -9.53306E-02
    9028.454     34.710   3.280  9.14699E-01  1.01121E+00 -9.65111E-02
    9029.459     35.716   3.320  9.16016E-01  1.00951E+00 -9.34928E-02
    9030.477     36.734   3.360  9.20698E-01  1.00783E+00 -8.71314E-02
    9031.508     37.764   3.400  9.28335E-01  1.00615E+00 -7.78199E-02
    9032.550     38.806   3.440  9.39102E-01  1.00451E+00 -6.54107E-02
    9033.605     39.861   3.480  9.53397E-01  1.00291E+00 -4.95096E-02
    9034.671     40.928   3.520  9.71590E-01  1.00134E+00 -2.97490E-02
    9035.750     42.007   3.560  9.93633E-01  9.99814E-01 -6.18105E-03
    9036.842     43.098   3.600  1.01892E+00  9.98334E-01  2.05867E-02
    9037.945     44.201   3.640  1.04638E+00  9.96925E-01  4.94529E-02
    9039.061     45.317   3.680  1.07438E+00  9.95568E-01  7.88145E-02
    9040.188     46.445   3.720  1.10074E+00  9.94307E-01  1.06429E-01
    9041.328     47.585   3.760  1.12301E+00  9.93104E-01  1.29906E-01
    9042.480     48.737   3.800  1.13900E+00  9.91980E-01  1.47016E-01
    9043.645     49.901   3.840  1.14699E+00  9.90958E-01  1.56036E-01
    9044.821     51.078   3.880  1.14621E+00  9.89999E-01  1.56206E-01
    9046.010     52.266   3.920  1.13700E+00  9.89144E-01  1.47856E-01
    9047.211     53.467   3.960  1.12063E+00  9.88373E-01  1.32254E-01
    9048.424     54.680   4.000  1.09921E+00  9.87689E-01  1.11524E-01
    9049.649     55.906   4.040  1.07551E+00  9.87111E-01  8.83992E-02
    9050.887     57.143   4.080  1.05209E+00  9.86618E-01  6.54729E-02
    9052.136     58.393   4.120  1.03090E+00  9.86209E-01  4.46887E-02
    9053.398     59.655   4.160  1.01303E+00  9.85884E-01  2.71424E-02
    9054.672     60.929   4.200  9.98726E-01  9.85664E-01  1.30619E-02
    9055.959     62.215   4.240  9.87389E-01  9.85506E-01  1.88380E-03
    9057.257     63.513   4.280  9.77994E-01  9.85451E-01 -7.45679E-03
    9058.568     64.824   4.320  9.69252E-01  9.85480E-01 -1.62283E-02
    9059.890     66.147   4.360  9.60095E-01  9.85589E-01 -2.54939E-02
    9061.226     67.482   4.400  9.50068E-01  9.85776E-01 -3.57081E-02
    9062.573     68.829   4.440  9.39502E-01  9.86039E-01 -4.65372E-02
    9063.932     70.188   4.480  9.29269E-01  9.86355E-01 -5.70856E-02
    9065.304     71.560   4.520  9.20536E-01  9.86741E-01 -6.62051E-02
    9066.688     72.944   4.560  9.14289E-01  9.87179E-01 -7.28892E-02
    9068.083     74.340   4.600  9.11127E-01  9.87685E-01 -7.65576E-02
    9069.492     75.748   4.640  9.11199E-01  9.88236E-01 -7.70376E-02
    9070.912     77.168   4.680  9.14431E-01  9.88853E-01 -7.44218E-02
    9072.345     78.601   4.720  9.20422E-01  9.89487E-01 -6.90652E-02
    9073.789     80.046   4.760  9.28800E-01  9.90158E-01 -6.13581E-02
    9075.246     81.503   4.800  9.39198E-01  9.90862E-01 -5.16647E-02
    9076.715     82.972   4.840  9.51200E-01  9.91578E-01 -4.03785E-02
    9078.197     84.453   4.880  9.64229E-01  9.92326E-01 -2.80970E-02
    9079.690     85.946   4.920  9.77280E-01  9.93100E-01 -1.58206E-02
    9081.196     87.452   4.960  9.89031E-01  9.93856E-01 -4.82477E-03
    9082.714     88.970   5.000  9.98511E-01  9.94632E-01  3.87936E-03
    9084.244     90.500   5.040  1.00543E+00  9.95383E-01  1.00441E-02
    9085.786     92.042   5.080  1.01041E+00  9.96130E-01  1.42761E-02
    9087.341     93.597   5.120  1.01436E+00  9.96868E-01  1.74907E-02
    9088.907     95.164   5.160  1.01773E+00  9.97573E-01  2.01587E-02
    9090.486     96.742   5.200  1.02007E+00  9.98244E-01  2.18300E-02
    9092.077     98.334   5.240  1.02026E+00  9.98901E-01  2.13617E-02
    9093.680     99.937   5.280  1.01720E+00  9.99519E-01  1.76812E-02
    9095.296    101.552   5.320  1.01079E+00  1.00010E+00  1.06883E-02
    9096.924    103.180   5.360  1.00226E+00  1.00063E+00  1.62355E-03
    9098.563    104.820   5.400  9.93799E-01  1.00110E+00 -7.29956E-03
    9100.215    106.472   5.440  9.87711E-01  1.00152E+00 -1.38081E-02
    9101.880    108.136   5.480  9.85378E-01  1.00189E+00 -1.65160E-02
    9103.556    109.812   5.520  9.86696E-01  1.00222E+00 -1.55257E-02
    9105.245    111.501   5.560  9.90115E-01  1.00248E+00 -1.23615E-02
    9106.945    113.202   5.600  9.93444E-01  1.00266E+00 -9.21368E-03
    9108.658    114.915   5.640  9.94919E-01  1.00279E+00 -7.86859E-03
    9110.383    116.640   5.680  9.93966E-01  1.00284E+00 -8.87819E-03
    9112.121    118.377   5.720  9.91444E-01  1.00285E+00 -1.14040E-02
    9113.870    120.127   5.760  9.89031E-01  1.00276E+00 -1.37250E-02
    9115.632    121.888   5.800  9.88627E-01  1.00263E+00 -1.40075E-02
    9117.406    123.662   5.840  9.91537E-01  1.00242E+00 -1.08817E-02
    9119.192    125.448   5.880  9.98476E-01  1.00215E+00 -3.67652E-03
    9120.990    127.247   5.920  1.00937E+00  1.00182E+00  7.55643E-03
    9122.801    129.057   5.960  1.02330E+00  1.00143E+00  2.18684E-02
    9124.624    130.880   6.000  1.03836E+00  1.00092E+00  3.74353E-02
