# # comment:                                                     FEFF 9.9.1  
# # Source:
# # Structure
# # Reduced
# # space
# # abc:
# # angles:
# # sites:
# # POT  SCF 100  7.0000   0, screened core-hole, AFOLP (folp(0)= 1.150)
# # Abs   Z=29 Rmt= 1.202 Rnm= 1.305 K  shell
# # Pot 1 Z= 3 Rmt= 1.248 Rnm= 1.311
# # Pot 2 Z=29 Rmt= 1.139 Rnm= 1.259
# # Pot 3 Z= 8 Rmt= 1.044 Rnm= 1.117
# # Gam_ch=1.729E+00 H-L exch Vi= 0.000E+00 Vr= 0.000E+00
# # Mu=-8.192E+00eV kf=2.069E+00 Vint=-1.635E+01eV Rs_int= 1.753
# FMS rfms= 9.0000
# # PATH  Rmax=-1.000,  Keep_limit= 0.00, Heap_limit 0.00  Pwcrit= 2.50%
#  S02=0.950  Temp=   0.00  Debye_temp=   0.00  Global_sig2= 0.00000
#  Energy zero shift, vr, vi    0.00000E+00   0.00000E+00
#  Curved wave amplitude ratio filter   4.000%
#     file         sig2 tot  cw amp ratio   deg  nlegs   reff  inp sig2
#     0/   0 paths used
#  xsedge+ 50, used to normalize mu           2.4518E-04
#  -----------------------------------------------------------------------
#  omega    e    k    mu    mu0     chi     @#
    8984.147    -12.002  -1.000  3.95562E-02  5.46250E-02 -1.50689E-02
    8984.445    -11.704  -0.960  4.19933E-02  5.85844E-02 -1.65911E-02
    8984.732    -11.417  -0.920  4.46977E-02  6.29817E-02 -1.82839E-02
    8985.006    -11.143  -0.880  4.77143E-02  6.78808E-02 -2.01665E-02
    8985.268    -10.881  -0.840  5.10967E-02  7.33565E-02 -2.22598E-02
    8985.518    -10.631  -0.800  5.49087E-02  7.94950E-02 -2.45863E-02
    8985.756    -10.393  -0.760  5.92251E-02  8.63953E-02 -2.71702E-02
    8985.982    -10.167  -0.720  6.41328E-02  9.41691E-02 -3.00363E-02
    8986.195     -9.954  -0.680  6.97296E-02  1.02939E-01 -3.32099E-02
    8986.396     -9.753  -0.640  7.61220E-02  1.12836E-01 -3.67141E-02
    8986.585     -9.564  -0.600  8.34186E-02  1.23986E-01 -4.05676E-02
    8986.762     -9.387  -0.560  9.17186E-02  1.36498E-01 -4.47797E-02
    8986.927     -9.223  -0.520  1.01094E-01  1.50436E-01 -4.93427E-02
    8987.079     -9.070  -0.480  1.11562E-01  1.65786E-01 -5.42236E-02
    8987.219     -8.930  -0.440  1.23057E-01  1.82411E-01 -5.93539E-02
    8987.347     -8.802  -0.400  1.35401E-01  2.00025E-01 -6.46243E-02
    8987.463     -8.686  -0.360  1.48285E-01  2.18175E-01 -6.98894E-02
    8987.567     -8.583  -0.320  1.61287E-01  2.36272E-01 -7.49851E-02
    8987.658     -8.491  -0.280  1.73909E-01  2.53664E-01 -7.97548E-02
    8987.737     -8.412  -0.240  1.85648E-01  2.69720E-01 -8.40722E-02
    8987.804     -8.345  -0.200  1.96065E-01  2.83914E-01 -8.78492E-02
    8987.859     -8.290  -0.160  2.04833E-01  2.95858E-01 -9.10245E-02
    8987.902     -8.247  -0.120  2.11756E-01  3.05302E-01 -9.35463E-02
    8987.932     -8.217  -0.080  2.16741E-01  3.12109E-01 -9.53672E-02
    8987.957     -8.192   0.000  2.20765E-01  3.17578E-01 -9.68127E-02
    8988.012     -8.137   0.120  2.29048E-01  3.29921E-01 -1.00873E-01
    8988.054     -8.095   0.160  2.35440E-01  3.39515E-01 -1.04076E-01
    8988.109     -8.040   0.200  2.43333E-01  3.51767E-01 -1.08434E-01
    8988.176     -7.973   0.240  2.52322E-01  3.66538E-01 -1.14216E-01
    8988.255     -7.894   0.280  2.61655E-01  3.83504E-01 -1.21849E-01
    8988.347     -7.802   0.320  2.70289E-01  4.02268E-01 -1.31979E-01
    8988.451     -7.699   0.360  2.76910E-01  4.22289E-01 -1.45379E-01
    8988.566     -7.583   0.400  2.80242E-01  4.43013E-01 -1.62770E-01
    8988.694     -7.455   0.440  2.79475E-01  4.63931E-01 -1.84456E-01
    8988.835     -7.315   0.480  2.74628E-01  4.84611E-01 -2.09983E-01
    8988.987     -7.162   0.520  2.66615E-01  5.04822E-01 -2.38207E-01
    8989.152     -6.998   0.560  2.56765E-01  5.24406E-01 -2.67641E-01
    8989.328     -6.821   0.600  2.46475E-01  5.43351E-01 -2.96876E-01
    8989.517     -6.632   0.640  2.36817E-01  5.61710E-01 -3.24893E-01
    8989.718     -6.431   0.680  2.28595E-01  5.79531E-01 -3.50936E-01
    8989.932     -6.217   0.720  2.22352E-01  5.96896E-01 -3.74543E-01
    8990.157     -5.992   0.760  2.18285E-01  6.13904E-01 -3.95619E-01
    8990.395     -5.754   0.800  2.16254E-01  6.30604E-01 -4.14351E-01
    8990.645     -5.504   0.840  2.16067E-01  6.47075E-01 -4.31007E-01
    8990.907     -5.242   0.880  2.17584E-01  6.63317E-01 -4.45734E-01
    8991.182     -4.968   0.920  2.21194E-01  6.79403E-01 -4.58209E-01
    8991.468     -4.681   0.960  2.28011E-01  6.95308E-01 -4.67298E-01
    8991.767     -4.382   1.000  2.39436E-01  7.11061E-01 -4.71625E-01
    8992.078     -4.071   1.040  2.55964E-01  7.26618E-01 -4.70654E-01
    8992.401     -3.748   1.080  2.77252E-01  7.42013E-01 -4.64761E-01
    8992.736     -3.413   1.120  3.04017E-01  7.57190E-01 -4.53173E-01
    8993.083     -3.066   1.160  3.39202E-01  7.72150E-01 -4.32948E-01
    8993.443     -2.706   1.200  3.86572E-01  7.86828E-01 -4.00256E-01
    8993.815     -2.334   1.240  4.49973E-01  8.01219E-01 -3.51245E-01
    8994.199     -1.950   1.280  5.34242E-01  8.15296E-01 -2.81054E-01
    8994.595     -1.554   1.320  6.42973E-01  8.29030E-01 -1.86057E-01
    8995.004     -1.145   1.360  7.61394E-01  8.42369E-01 -8.09753E-02
    8995.424     -0.725   1.400  8.42539E-01  8.55307E-01 -1.27675E-02
    8995.857     -0.292   1.440  8.55824E-01  8.67790E-01 -1.19663E-02
    8996.302      0.153   1.480  8.27433E-01  8.79831E-01 -5.23978E-02
    8996.759      0.610   1.520  7.94727E-01  8.91361E-01 -9.66334E-02
    8997.229      1.080   1.560  7.77251E-01  9.02393E-01 -1.25141E-01
    8997.710      1.561   1.600  7.80800E-01  9.12922E-01 -1.32121E-01
    8998.204      2.055   1.640  8.07033E-01  9.22882E-01 -1.15849E-01
    8998.710      2.561   1.680  8.64410E-01  9.32331E-01 -6.79217E-02
    8999.228      3.079   1.720  9.69423E-01  9.41208E-01  2.82152E-02
    8999.759      3.609   1.760  1.12924E+00  9.49553E-01  1.79685E-01
    9000.301      4.152   1.800  1.29365E+00  9.57326E-01  3.36327E-01
    9000.856      4.707   1.840  1.37931E+00  9.64570E-01  4.14740E-01
    9001.423      5.274   1.880  1.38165E+00  9.71250E-01  4.10395E-01
    9002.002      5.853   1.920  1.34189E+00  9.77413E-01  3.64478E-01
    9002.593      6.444   1.960  1.29394E+00  9.83063E-01  3.10878E-01
    9003.197      7.048   2.000  1.25522E+00  9.88187E-01  2.67036E-01
    9003.812      7.663   2.040  1.22974E+00  9.92836E-01  2.36906E-01
    9004.440      8.291   2.080  1.21615E+00  9.96998E-01  2.19150E-01
    9005.080      8.931   2.120  1.21354E+00  1.00070E+00  2.12834E-01
    9005.733      9.583   2.160  1.21943E+00  1.00398E+00  2.15445E-01
    9006.397     10.248   2.200  1.22811E+00  1.00685E+00  2.21263E-01
    9007.074     10.925   2.240  1.23217E+00  1.00930E+00  2.22861E-01
    9007.763     11.613   2.280  1.22765E+00  1.01141E+00  2.16236E-01
    9008.464     12.314   2.320  1.22404E+00  1.01316E+00  2.10878E-01
    9009.177     13.028   2.360  1.23032E+00  1.01458E+00  2.15745E-01
    9009.902     13.753   2.400  1.23828E+00  1.01570E+00  2.22587E-01
    9010.640     14.491   2.440  1.23533E+00  1.01655E+00  2.18779E-01
    9011.390     15.241   2.480  1.21157E+00  1.01713E+00  1.94440E-01
    9012.152     16.003   2.520  1.16767E+00  1.01746E+00  1.50208E-01
    9012.926     16.777   2.560  1.11973E+00  1.01758E+00  1.02147E-01
    9013.712     17.563   2.600  1.07671E+00  1.01750E+00  5.92076E-02
    9014.511     18.362   2.640  1.04188E+00  1.01725E+00  2.46327E-02
    9015.322     19.172   2.680  1.01373E+00  1.01683E+00 -3.09690E-03
    9016.145     19.995   2.720  9.90215E-01  1.01628E+00 -2.60609E-02
    9016.980     20.831   2.760  9.69690E-01  1.01560E+00 -4.59085E-02
    9017.827     21.678   2.800  9.50999E-01  1.01480E+00 -6.38059E-02
    9018.687     22.537   2.840  9.34071E-01  1.01392E+00 -7.98522E-02
    9019.558     23.409   2.880  9.19348E-01  1.01296E+00 -9.36118E-02
    9020.442     24.293   2.920  9.07368E-01  1.01194E+00 -1.04576E-01
    9021.338     25.189   2.960  8.98731E-01  1.01088E+00 -1.12151E-01
    9022.247     26.097   3.000  8.93391E-01  1.00976E+00 -1.16367E-01
    9023.167     27.018   3.040  8.90890E-01  1.00864E+00 -1.17752E-01
    9024.100     27.951   3.080  8.90685E-01  1.00747E+00 -1.16790E-01
    9025.045     28.896   3.120  8.92436E-01  1.00632E+00 -1.13888E-01
    9026.002     29.853   3.160  8.95208E-01  1.00517E+00 -1.09966E-01
    9026.971     30.822   3.200  8.97913E-01  1.00405E+00 -1.06138E-01
    9027.952     31.803   3.240  8.99491E-01  1.00292E+00 -1.03426E-01
    9028.946     32.797   3.280  8.99189E-01  1.00184E+00 -1.02647E-01
    9029.952     33.803   3.320  8.96839E-01  1.00079E+00 -1.03953E-01
    9030.970     34.821   3.360  8.93063E-01  9.99766E-01 -1.06703E-01
    9032.000     35.851   3.400  8.89165E-01  9.98801E-01 -1.09636E-01
    9033.043     36.893   3.440  8.86270E-01  9.97859E-01 -1.11590E-01
    9034.097     37.948   3.480  8.85529E-01  9.97004E-01 -1.11475E-01
    9035.164     39.015   3.520  8.87437E-01  9.96176E-01 -1.08739E-01
    9036.243     40.094   3.560  8.91837E-01  9.95418E-01 -1.03582E-01
    9037.334     41.185   3.600  8.98123E-01  9.94732E-01 -9.66087E-02
    9038.438     42.288   3.640  9.05806E-01  9.94098E-01 -8.82918E-02
    9039.553     43.404   3.680  9.14848E-01  9.93536E-01 -7.86880E-02
    9040.681     44.532   3.720  9.25483E-01  9.93047E-01 -6.75642E-02
    9041.821     45.672   3.760  9.38132E-01  9.92611E-01 -5.44789E-02
    9042.973     46.824   3.800  9.52880E-01  9.92249E-01 -3.93690E-02
    9044.137     47.988   3.840  9.69146E-01  9.91938E-01 -2.27927E-02
    9045.314     49.165   3.880  9.86108E-01  9.91722E-01 -5.61418E-03
    9046.502     50.353   3.920  1.00292E+00  9.91538E-01  1.13846E-02
    9047.703     51.554   3.960  1.01913E+00  9.91447E-01  2.76855E-02
    9048.916     52.767   4.000  1.03436E+00  9.91409E-01  4.29496E-02
    9050.142     53.993   4.040  1.04812E+00  9.91441E-01  5.66794E-02
    9051.379     55.230   4.080  1.05956E+00  9.91522E-01  6.80387E-02
    9052.629     56.480   4.120  1.06776E+00  9.91650E-01  7.61075E-02
    9053.891     57.742   4.160  1.07245E+00  9.91846E-01  8.06008E-02
    9055.165     59.016   4.200  1.07409E+00  9.92088E-01  8.20064E-02
    9056.451     60.302   4.240  1.07394E+00  9.92396E-01  8.15443E-02
    9057.750     61.600   4.280  1.07347E+00  9.92726E-01  8.07438E-02
    9059.060     62.911   4.320  1.07393E+00  9.93120E-01  8.08074E-02
    9060.383     64.234   4.360  1.07572E+00  9.93553E-01  8.21652E-02
    9061.718     65.569   4.400  1.07843E+00  9.94002E-01  8.44285E-02
    9063.065     66.916   4.440  1.08126E+00  9.94510E-01  8.67494E-02
    9064.425     68.276   4.480  1.08302E+00  9.95031E-01  8.79929E-02
    9065.796     69.647   4.520  1.08264E+00  9.95584E-01  8.70600E-02
    9067.180     71.031   4.560  1.07928E+00  9.96147E-01  8.31348E-02
    9068.576     72.427   4.600  1.07266E+00  9.96741E-01  7.59181E-02
    9069.984     73.835   4.640  1.06315E+00  9.97340E-01  6.58061E-02
    9071.405     75.255   4.680  1.05179E+00  9.97964E-01  5.38268E-02
    9072.837     76.688   4.720  1.03982E+00  9.98570E-01  4.12530E-02
    9074.282     78.133   4.760  1.02835E+00  9.99199E-01  2.91532E-02
    9075.739     79.590   4.800  1.01800E+00  9.99828E-01  1.81734E-02
    9077.208     81.059   4.840  1.00901E+00  1.00045E+00  8.55957E-03
    9078.689     82.540   4.880  1.00146E+00  1.00105E+00  4.06637E-04
    9080.183     84.034   4.920  9.95412E-01  1.00165E+00 -6.23320E-03
    9081.688     85.539   4.960  9.90773E-01  1.00223E+00 -1.14583E-02
    9083.206     87.057   5.000  9.87228E-01  1.00281E+00 -1.55805E-02
    9084.736     88.587   5.040  9.84245E-01  1.00333E+00 -1.90858E-02
    9086.279     90.130   5.080  9.81337E-01  1.00386E+00 -2.25233E-02
    9087.833     91.684   5.120  9.78065E-01  1.00434E+00 -2.62707E-02
    9089.400     93.251   5.160  9.74451E-01  1.00480E+00 -3.03442E-02
    9090.979     94.830   5.200  9.70909E-01  1.00522E+00 -3.43076E-02
    9092.570     96.421   5.240  9.68110E-01  1.00560E+00 -3.74907E-02
    9094.173     98.024   5.280  9.66579E-01  1.00597E+00 -3.93895E-02
    9095.788     99.639   5.320  9.66308E-01  1.00627E+00 -3.99640E-02
    9097.416    101.267   5.360  9.66920E-01  1.00654E+00 -3.96154E-02
    9099.056    102.907   5.400  9.67794E-01  1.00678E+00 -3.89857E-02
    9100.708    104.559   5.440  9.68242E-01  1.00696E+00 -3.87160E-02
    9102.372    106.223   5.480  9.67828E-01  1.00709E+00 -3.92648E-02
    9104.048    107.899   5.520  9.66513E-01  1.00719E+00 -4.06731E-02
    9105.737    109.588   5.560  9.64797E-01  1.00724E+00 -4.24392E-02
    9107.438    111.289   5.600  9.63691E-01  1.00724E+00 -4.35539E-02
    9109.151    113.002   5.640  9.64384E-01  1.00721E+00 -4.28279E-02
    9110.876    114.727   5.680  9.67859E-01  1.00713E+00 -3.92749E-02
    9112.613    116.464   5.720  9.74525E-01  1.00699E+00 -3.24636E-02
    9114.363    118.214   5.760  9.84098E-01  1.00680E+00 -2.27035E-02
    9116.125    119.976   5.800  9.95407E-01  1.00660E+00 -1.11915E-02
    9117.899    121.749   5.840  1.00649E+00  1.00633E+00  1.60981E-04
    9119.685    123.536   5.880  1.01527E+00  1.00603E+00  9.24243E-03
    9121.483    125.334   5.920  1.02013E+00  1.00568E+00  1.44438E-02
    9123.293    127.144   5.960  1.02049E+00  1.00533E+00  1.51566E-02
    9125.116    128.967   6.000  1.01646E+00  1.00489E+00  1.15720E-02
