# # comment:                                                     FEFF 9.9.1  
# # Source:
# # Structure
# # Reduced
# # space
# # abc:
# # angles:
# # sites:
# # POT  SCF 100  7.0000   0, screened core-hole, AFOLP (folp(0)= 1.150)
# # Abs   Z=29 Rmt= 1.303 Rnm= 1.385 K  shell
# # Pot 1 Z= 3 Rmt= 1.267 Rnm= 1.327
# # Pot 2 Z=29 Rmt= 1.353 Rnm= 1.412
# # Pot 3 Z=15 Rmt= 0.949 Rnm= 1.157
# # Pot 4 Z= 8 Rmt= 0.930 Rnm= 1.035
# # Gam_ch=1.729E+00 H-L exch Vi= 0.000E+00 Vr= 0.000E+00
# # Mu=-5.944E+00eV kf=2.383E+00 Vint=-1.709E+01eV Rs_int= 1.522
# FMS rfms= 9.0000
# # PATH  Rmax=-1.000,  Keep_limit= 0.00, Heap_limit 0.00  Pwcrit= 2.50%
#  S02=0.950  Temp=   0.00  Debye_temp=   0.00  Global_sig2= 0.00000
#  Energy zero shift, vr, vi    0.00000E+00   0.00000E+00
#  Curved wave amplitude ratio filter   4.000%
#     file         sig2 tot  cw amp ratio   deg  nlegs   reff  inp sig2
#     0/   0 paths used
#  xsedge+ 50, used to normalize mu           2.4632E-04
#  -----------------------------------------------------------------------
#  omega    e    k    mu    mu0     chi     @#
    8983.681     -9.753  -1.000  5.50582E-02  5.63746E-02 -1.31636E-03
    8983.980     -9.455  -0.960  5.90920E-02  6.05511E-02 -1.45910E-03
    8984.267     -9.168  -0.920  6.35937E-02  6.52005E-02 -1.60680E-03
    8984.541     -8.894  -0.880  6.86371E-02  7.03933E-02 -1.75613E-03
    8984.803     -8.632  -0.840  7.43093E-02  7.62117E-02 -1.90241E-03
    8985.053     -8.382  -0.800  8.07118E-02  8.27511E-02 -2.03929E-03
    8985.291     -8.144  -0.760  8.79626E-02  9.01211E-02 -2.15850E-03
    8985.516     -7.919  -0.720  9.61962E-02  9.84456E-02 -2.24950E-03
    8985.730     -7.705  -0.680  1.05562E-01  1.07862E-01 -2.29941E-03
    8985.931     -7.504  -0.640  1.16220E-01  1.18513E-01 -2.29305E-03
    8986.120     -7.315  -0.600  1.28330E-01  1.30543E-01 -2.21342E-03
    8986.297     -7.138  -0.560  1.42030E-01  1.44073E-01 -2.04274E-03
    8986.461     -6.974  -0.520  1.57412E-01  1.59176E-01 -1.76426E-03
    8986.614     -6.821  -0.480  1.74473E-01  1.75837E-01 -1.36494E-03
    8986.754     -6.681  -0.440  1.93072E-01  1.93910E-01 -8.38753E-04
    8986.882     -6.553  -0.400  2.12888E-01  2.13078E-01 -1.90078E-04
    8986.998     -6.437  -0.360  2.33404E-01  2.32840E-01  5.63878E-04
    8987.101     -6.334  -0.320  2.53941E-01  2.52548E-01  1.39280E-03
    8987.193     -6.242  -0.280  2.73737E-01  2.71482E-01  2.25575E-03
    8987.272     -6.163  -0.240  2.92057E-01  2.88951E-01  3.10615E-03
    8987.339     -6.096  -0.200  3.08278E-01  3.04380E-01  3.89798E-03
    8987.394     -6.041  -0.160  3.21940E-01  3.17349E-01  4.59157E-03
    8987.437     -5.998  -0.120  3.32750E-01  3.27593E-01  5.15653E-03
    8987.467     -5.968  -0.080  3.40539E-01  3.34969E-01  5.56992E-03
    8987.491     -5.944   0.000  3.46778E-01  3.40891E-01  5.88742E-03
    8987.546     -5.889   0.120  3.60562E-01  3.54221E-01  6.34072E-03
    8987.589     -5.846   0.160  3.71401E-01  3.64594E-01  6.80718E-03
    8987.644     -5.791   0.200  3.85236E-01  3.77791E-01  7.44493E-03
    8987.711     -5.724   0.240  4.01888E-01  3.93659E-01  8.22943E-03
    8987.790     -5.645   0.280  4.20911E-01  4.11814E-01  9.09711E-03
    8987.882     -5.553   0.320  4.41676E-01  4.31787E-01  9.88828E-03
    8987.985     -5.450   0.360  4.63196E-01  4.52950E-01  1.02458E-02
    8988.101     -5.334   0.400  4.84194E-01  4.74677E-01  9.51692E-03
    8988.229     -5.206   0.440  5.02980E-01  4.96340E-01  6.63974E-03
    8988.369     -5.066   0.480  5.17665E-01  5.17509E-01  1.56331E-04
    8988.522     -4.913   0.520  5.26330E-01  5.37855E-01 -1.15248E-02
    8988.686     -4.749   0.560  5.27737E-01  5.57286E-01 -2.95488E-02
    8988.863     -4.572   0.600  5.21815E-01  5.75730E-01 -5.39149E-02
    8989.052     -4.383   0.640  5.10281E-01  5.93276E-01 -8.29953E-02
    8989.253     -4.182   0.680  4.96298E-01  6.10015E-01 -1.13717E-01
    8989.467     -3.968   0.720  4.83664E-01  6.26049E-01 -1.42385E-01
    8989.692     -3.743   0.760  4.75864E-01  6.41505E-01 -1.65641E-01
    8989.930     -3.505   0.800  4.75684E-01  6.56499E-01 -1.80815E-01
    8990.180     -3.255   0.840  4.85125E-01  6.71069E-01 -1.85944E-01
    8990.442     -2.993   0.880  5.04819E-01  6.85343E-01 -1.80524E-01
    8990.716     -2.719   0.920  5.32602E-01  6.99331E-01 -1.66729E-01
    8991.003     -2.432   0.960  5.63920E-01  7.13091E-01 -1.49171E-01
    8991.301     -2.134   1.000  5.94549E-01  7.26669E-01 -1.32120E-01
    8991.612     -1.823   1.040  6.22454E-01  7.40061E-01 -1.17607E-01
    8991.935     -1.500   1.080  6.45877E-01  7.53275E-01 -1.07399E-01
    8992.271     -1.164   1.120  6.62358E-01  7.66330E-01 -1.03972E-01
    8992.618     -0.817   1.160  6.73748E-01  7.79220E-01 -1.05472E-01
    8992.978     -0.457   1.200  6.88771E-01  7.91936E-01 -1.03164E-01
    8993.350     -0.085   1.240  7.17072E-01  8.04461E-01 -8.73889E-02
    8993.734      0.299   1.280  7.63017E-01  8.16799E-01 -5.37816E-02
    8994.130      0.695   1.320  8.23090E-01  8.28887E-01 -5.79704E-03
    8994.538      1.103   1.360  8.88424E-01  8.40743E-01  4.76809E-02
    8994.959      1.524   1.400  9.52132E-01  8.52344E-01  9.97885E-02
    8995.392      1.957   1.440  1.00858E+00  8.63664E-01  1.44915E-01
    8995.837      2.402   1.480  1.05280E+00  8.74678E-01  1.78126E-01
    8996.294      2.859   1.520  1.08956E+00  8.85358E-01  2.04203E-01
    8996.763      3.328   1.560  1.12626E+00  8.95720E-01  2.30540E-01
    8997.245      3.810   1.600  1.16527E+00  9.05696E-01  2.59573E-01
    8997.739      4.304   1.640  1.20139E+00  9.15321E-01  2.86069E-01
    8998.245      4.810   1.680  1.22317E+00  9.24551E-01  2.98620E-01
    8998.763      5.328   1.720  1.22399E+00  9.33379E-01  2.90607E-01
    8999.293      5.858   1.760  1.20646E+00  9.41782E-01  2.64678E-01
    8999.836      6.401   1.800  1.17864E+00  9.49775E-01  2.28867E-01
    9000.391      6.956   1.840  1.14639E+00  9.57318E-01  1.89070E-01
    9000.957      7.522   1.880  1.11364E+00  9.64430E-01  1.49207E-01
    9001.537      8.102   1.920  1.08774E+00  9.71130E-01  1.16613E-01
    9002.128      8.693   1.960  1.07213E+00  9.77357E-01  9.47730E-02
    9002.731      9.296   2.000  1.06385E+00  9.83174E-01  8.06731E-02
    9003.347      9.912   2.040  1.06067E+00  9.88522E-01  7.21474E-02
    9003.975     10.540   2.080  1.06314E+00  9.93464E-01  6.96791E-02
    9004.615     11.180   2.120  1.06736E+00  9.97986E-01  6.93776E-02
    9005.267     11.832   2.160  1.06640E+00  1.00207E+00  6.43311E-02
    9005.932     12.497   2.200  1.05786E+00  1.00577E+00  5.20969E-02
    9006.608     13.173   2.240  1.04590E+00  1.00908E+00  3.68235E-02
    9007.297     13.862   2.280  1.03427E+00  1.01199E+00  2.22768E-02
    9007.998     14.563   2.320  1.02249E+00  1.01455E+00  7.93892E-03
    9008.712     15.277   2.360  1.01094E+00  1.01675E+00 -5.81277E-03
    9009.437     16.002   2.400  1.00178E+00  1.01862E+00 -1.68345E-02
    9010.175     16.740   2.440  9.96520E-01  1.02015E+00 -2.36312E-02
    9010.924     17.489   2.480  9.94367E-01  1.02137E+00 -2.70019E-02
    9011.686     18.251   2.520  9.93294E-01  1.02232E+00 -2.90245E-02
    9012.461     19.026   2.560  9.92649E-01  1.02301E+00 -3.03603E-02
    9013.247     19.812   2.600  9.92494E-01  1.02343E+00 -3.09335E-02
    9014.046     20.611   2.640  9.92362E-01  1.02360E+00 -3.12422E-02
    9014.856     21.421   2.680  9.92150E-01  1.02359E+00 -3.14388E-02
    9015.679     22.244   2.720  9.92207E-01  1.02335E+00 -3.11410E-02
    9016.514     23.079   2.760  9.93087E-01  1.02293E+00 -2.98452E-02
    9017.362     23.927   2.800  9.95232E-01  1.02235E+00 -2.71201E-02
    9018.221     24.786   2.840  9.95263E-01  1.02163E+00 -2.63717E-02
    9019.093     25.658   2.880  9.92366E-01  1.02077E+00 -2.84001E-02
    9019.977     26.542   2.920  9.87940E-01  1.01980E+00 -3.18565E-02
    9020.873     27.438   2.960  9.83315E-01  1.01871E+00 -3.53986E-02
    9021.781     28.346   3.000  9.79431E-01  1.01754E+00 -3.81128E-02
    9022.702     29.267   3.040  9.76808E-01  1.01629E+00 -3.94851E-02
    9023.634     30.200   3.080  9.75346E-01  1.01499E+00 -3.96455E-02
    9024.579     31.144   3.120  9.74549E-01  1.01362E+00 -3.90737E-02
    9025.536     32.101   3.160  9.73889E-01  1.01223E+00 -3.83450E-02
    9026.506     33.071   3.200  9.72826E-01  1.01081E+00 -3.79877E-02
    9027.487     34.052   3.240  9.71312E-01  1.00941E+00 -3.80962E-02
    9028.481     35.046   3.280  9.69416E-01  1.00798E+00 -3.85610E-02
    9029.487     36.052   3.320  9.67367E-01  1.00655E+00 -3.91807E-02
    9030.505     37.070   3.360  9.65525E-01  1.00512E+00 -3.95986E-02
    9031.535     38.100   3.400  9.64390E-01  1.00375E+00 -3.93621E-02
    9032.577     39.142   3.440  9.64268E-01  1.00240E+00 -3.81273E-02
    9033.632     40.197   3.480  9.65337E-01  1.00108E+00 -3.57399E-02
    9034.699     41.264   3.520  9.67658E-01  9.99801E-01 -3.21425E-02
    9035.778     42.343   3.560  9.71218E-01  9.98591E-01 -2.73728E-02
    9036.869     43.434   3.600  9.75871E-01  9.97429E-01 -2.15576E-02
    9037.972     44.537   3.640  9.81428E-01  9.96335E-01 -1.49077E-02
    9039.088     45.653   3.680  9.87532E-01  9.95294E-01 -7.76124E-03
    9040.216     46.781   3.720  9.93778E-01  9.94326E-01 -5.48146E-04
    9041.355     47.921   3.760  9.99762E-01  9.93413E-01  6.34890E-03
    9042.508     49.073   3.800  1.00527E+00  9.92599E-01  1.26691E-02
    9043.672     50.237   3.840  1.01010E+00  9.91862E-01  1.82396E-02
    9044.848     51.414   3.880  1.01415E+00  9.91182E-01  2.29677E-02
    9046.037     52.602   3.920  1.01737E+00  9.90581E-01  2.67875E-02
    9047.238     53.803   3.960  1.01972E+00  9.90082E-01  2.96368E-02
    9048.451     55.016   4.000  1.02115E+00  9.89644E-01  3.15022E-02
    9049.676     56.242   4.040  1.02180E+00  9.89305E-01  3.24984E-02
    9050.914     57.479   4.080  1.02181E+00  9.89024E-01  3.27894E-02
    9052.164     58.729   4.120  1.02134E+00  9.88822E-01  3.25137E-02
    9053.425     59.991   4.160  1.02046E+00  9.88721E-01  3.17434E-02
    9054.700     61.265   4.200  1.01919E+00  9.88677E-01  3.05160E-02
    9055.986     62.551   4.240  1.01755E+00  9.88706E-01  2.88433E-02
    9057.284     63.849   4.280  1.01556E+00  9.88790E-01  2.67708E-02
    9058.595     65.160   4.320  1.01340E+00  9.88972E-01  2.44255E-02
    9059.918     66.483   4.360  1.01119E+00  9.89203E-01  2.19855E-02
    9061.253     67.818   4.400  1.00904E+00  9.89485E-01  1.95535E-02
    9062.600     69.165   4.440  1.00691E+00  9.89837E-01  1.70694E-02
    9063.959     70.524   4.480  1.00460E+00  9.90256E-01  1.43415E-02
    9065.331     71.896   4.520  1.00189E+00  9.90700E-01  1.11865E-02
    9066.715     73.280   4.560  9.98832E-01  9.91208E-01  7.62393E-03
    9068.111     74.676   4.600  9.95699E-01  9.91757E-01  3.94162E-03
    9069.519     76.084   4.640  9.92928E-01  9.92345E-01  5.83022E-04
    9070.939     77.504   4.680  9.90922E-01  9.92948E-01 -2.02622E-03
    9072.372     78.937   4.720  9.90009E-01  9.93607E-01 -3.59739E-03
    9073.817     80.382   4.760  9.90208E-01  9.94275E-01 -4.06648E-03
    9075.273     81.839   4.800  9.91360E-01  9.94951E-01 -3.59105E-03
    9076.743     83.308   4.840  9.93157E-01  9.95652E-01 -2.49512E-03
    9078.224     84.789   4.880  9.95218E-01  9.96334E-01 -1.11595E-03
    9079.717     86.282   4.920  9.97385E-01  9.97039E-01  3.45597E-04
    9081.223     87.788   4.960  9.99549E-01  9.97745E-01  1.80382E-03
    9082.741     89.306   5.000  1.00164E+00  9.98446E-01  3.19585E-03
    9084.271     90.836   5.040  1.00354E+00  9.99120E-01  4.41560E-03
    9085.813     92.378   5.080  1.00507E+00  9.99787E-01  5.28714E-03
    9087.368     93.933   5.120  1.00603E+00  1.00044E+00  5.58732E-03
    9088.935     95.500   5.160  1.00618E+00  1.00107E+00  5.11551E-03
    9090.513     97.078   5.200  1.00547E+00  1.00165E+00  3.81976E-03
    9092.104     98.670   5.240  1.00406E+00  1.00220E+00  1.86269E-03
    9093.708    100.273   5.280  1.00231E+00  1.00273E+00 -4.18236E-04
    9095.323    101.888   5.320  1.00053E+00  1.00319E+00 -2.66208E-03
    9096.951    103.516   5.360  9.98957E-01  1.00362E+00 -4.66026E-03
    9098.591    105.156   5.400  9.97567E-01  1.00402E+00 -6.45264E-03
    9100.243    106.808   5.440  9.95982E-01  1.00433E+00 -8.34895E-03
    9101.907    108.472   5.480  9.93870E-01  1.00462E+00 -1.07480E-02
    9103.583    110.148   5.520  9.90953E-01  1.00484E+00 -1.38838E-02
    9105.272    111.837   5.560  9.87341E-01  1.00501E+00 -1.76652E-02
    9106.973    113.538   5.600  9.83374E-01  1.00511E+00 -2.17318E-02
    9108.686    115.251   5.640  9.79539E-01  1.00516E+00 -2.56183E-02
    9110.411    116.976   5.680  9.76194E-01  1.00516E+00 -2.89663E-02
    9112.148    118.713   5.720  9.73457E-01  1.00509E+00 -3.16341E-02
    9113.898    120.463   5.760  9.71364E-01  1.00495E+00 -3.35847E-02
    9115.659    122.224   5.800  9.70090E-01  1.00476E+00 -3.46683E-02
    9117.433    123.998   5.840  9.69959E-01  1.00450E+00 -3.45380E-02
    9119.219    125.784   5.880  9.71418E-01  1.00419E+00 -3.27729E-02
    9121.018    127.583   5.920  9.74727E-01  1.00384E+00 -2.91169E-02
    9122.828    129.393   5.960  9.79814E-01  1.00342E+00 -2.36107E-02
    9124.651    131.216   6.000  9.86525E-01  1.00292E+00 -1.63956E-02
