# # comment:                                                     FEFF 9.9.1  
# # Source:
# # Structure
# # Reduced
# # space
# # abc:
# # angles:
# # sites:
# # POT  SCF 100  7.0000   0, screened core-hole, AFOLP (folp(0)= 1.150)
# # Abs   Z=29 Rmt= 1.123 Rnm= 1.251 K  shell
# # Pot 1 Z= 3 Rmt= 1.185 Rnm= 1.267
# # Pot 2 Z=29 Rmt= 1.132 Rnm= 1.260
# # Pot 3 Z= 8 Rmt= 1.017 Rnm= 1.118
# # Gam_ch=1.729E+00 H-L exch Vi= 0.000E+00 Vr= 0.000E+00
# # Mu=-7.715E+00eV kf=2.110E+00 Vint=-1.556E+01eV Rs_int= 1.719
# FMS rfms= 9.0000
# # PATH  Rmax=-1.000,  Keep_limit= 0.00, Heap_limit 0.00  Pwcrit= 2.50%
#  S02=0.950  Temp=   0.00  Debye_temp=   0.00  Global_sig2= 0.00000
#  Energy zero shift, vr, vi    0.00000E+00   0.00000E+00
#  Curved wave amplitude ratio filter   4.000%
#     file         sig2 tot  cw amp ratio   deg  nlegs   reff  inp sig2
#     0/   0 paths used
#  xsedge+ 50, used to normalize mu           2.4292E-04
#  -----------------------------------------------------------------------
#  omega    e    k    mu    mu0     chi     @#
    8984.120    -11.525  -1.000  3.45347E-02  5.57385E-02 -2.12038E-02
    8984.418    -11.226  -0.960  3.62469E-02  5.97804E-02 -2.35336E-02
    8984.705    -10.939  -0.920  3.80848E-02  6.42682E-02 -2.61834E-02
    8984.979    -10.665  -0.880  4.00619E-02  6.92670E-02 -2.92052E-02
    8985.241    -10.403  -0.840  4.21928E-02  7.48524E-02 -3.26596E-02
    8985.491    -10.153  -0.800  4.44941E-02  8.11119E-02 -3.66178E-02
    8985.729     -9.915  -0.760  4.69841E-02  8.81460E-02 -4.11619E-02
    8985.954     -9.690  -0.720  4.96824E-02  9.60679E-02 -4.63855E-02
    8986.168     -9.476  -0.680  5.26094E-02  1.05002E-01 -5.23928E-02
    8986.369     -9.275  -0.640  5.57856E-02  1.15080E-01 -5.92947E-02
    8986.558     -9.086  -0.600  5.92290E-02  1.26431E-01 -6.72020E-02
    8986.735     -8.910  -0.560  6.29529E-02  1.39164E-01 -7.62111E-02
    8986.899     -8.745  -0.520  6.69607E-02  1.53344E-01 -8.63834E-02
    8987.052     -8.593  -0.480  7.12403E-02  1.68955E-01 -9.77152E-02
    8987.192     -8.452  -0.440  7.57574E-02  1.85862E-01 -1.10104E-01
    8987.320     -8.324  -0.400  8.04499E-02  2.03770E-01 -1.23320E-01
    8987.436     -8.208  -0.360  8.52254E-02  2.22222E-01 -1.36997E-01
    8987.539     -8.105  -0.320  8.99657E-02  2.40620E-01 -1.50655E-01
    8987.631     -8.013  -0.280  9.45364E-02  2.58303E-01 -1.63766E-01
    8987.710     -7.934  -0.240  9.88011E-02  2.74630E-01 -1.75829E-01
    8987.777     -7.867  -0.200  1.02633E-01  2.89066E-01 -1.86432E-01
    8987.832     -7.812  -0.160  1.05925E-01  3.01215E-01 -1.95290E-01
    8987.875     -7.770  -0.120  1.08589E-01  3.10825E-01 -2.02236E-01
    8987.905     -7.739  -0.080  1.10557E-01  3.17751E-01 -2.07194E-01
    8987.930     -7.715   0.000  1.12202E-01  3.23318E-01 -2.11116E-01
    8987.984     -7.660   0.120  1.15897E-01  3.35887E-01 -2.19990E-01
    8988.027     -7.617   0.160  1.18776E-01  3.45642E-01 -2.26866E-01
    8988.082     -7.562   0.200  1.22555E-01  3.58127E-01 -2.35572E-01
    8988.149     -7.495   0.240  1.27265E-01  3.73164E-01 -2.45899E-01
    8988.228     -7.416   0.280  1.33027E-01  3.90490E-01 -2.57463E-01
    8988.320     -7.325   0.320  1.39845E-01  4.09625E-01 -2.69779E-01
    8988.423     -7.221   0.360  1.47878E-01  4.30088E-01 -2.82210E-01
    8988.539     -7.105   0.400  1.57158E-01  4.51301E-01 -2.94143E-01
    8988.667     -6.977   0.440  1.67765E-01  4.72754E-01 -3.04989E-01
    8988.807     -6.837   0.480  1.79640E-01  4.94009E-01 -3.14369E-01
    8988.960     -6.684   0.520  1.92670E-01  5.14815E-01 -3.22145E-01
    8989.124     -6.520   0.560  2.06711E-01  5.35053E-01 -3.28342E-01
    8989.301     -6.343   0.600  2.21546E-01  5.54689E-01 -3.33143E-01
    8989.490     -6.154   0.640  2.36663E-01  5.73734E-01 -3.37070E-01
    8989.691     -5.953   0.680  2.50926E-01  5.92296E-01 -3.41370E-01
    8989.905     -5.740   0.720  2.62412E-01  6.10415E-01 -3.48004E-01
    8990.130     -5.514   0.760  2.69981E-01  6.28189E-01 -3.58208E-01
    8990.368     -5.276   0.800  2.75208E-01  6.45685E-01 -3.70477E-01
    8990.618     -5.026   0.840  2.82016E-01  6.62959E-01 -3.80943E-01
    8990.880     -4.764   0.880  2.93370E-01  6.80008E-01 -3.86638E-01
    8991.154     -4.490   0.920  3.08655E-01  6.96901E-01 -3.88247E-01
    8991.441     -4.203   0.960  3.24727E-01  7.13613E-01 -3.88886E-01
    8991.740     -3.905   1.000  3.39126E-01  7.30146E-01 -3.91021E-01
    8992.050     -3.594   1.040  3.51616E-01  7.46497E-01 -3.94882E-01
    8992.374     -3.271   1.080  3.63534E-01  7.62633E-01 -3.99099E-01
    8992.709     -2.935   1.120  3.77545E-01  7.78534E-01 -4.00989E-01
    8993.056     -2.588   1.160  3.97851E-01  7.94158E-01 -3.96307E-01
    8993.416     -2.228   1.200  4.27600E-01  8.09479E-01 -3.81879E-01
    8993.788     -1.856   1.240  4.64290E-01  8.24469E-01 -3.60179E-01
    8994.172     -1.472   1.280  4.99200E-01  8.39074E-01 -3.39874E-01
    8994.568     -1.076   1.320  5.28313E-01  8.53287E-01 -3.24974E-01
    8994.976     -0.668   1.360  5.60878E-01  8.67031E-01 -3.06153E-01
    8995.397     -0.247   1.400  6.04979E-01  8.80318E-01 -2.75339E-01
    8995.830      0.186   1.440  6.51490E-01  8.93074E-01 -2.41584E-01
    8996.275      0.631   1.480  6.82775E-01  9.05310E-01 -2.22535E-01
    8996.732      1.088   1.520  6.93239E-01  9.16998E-01 -2.23759E-01
    8997.202      1.557   1.560  6.95066E-01  9.28090E-01 -2.33024E-01
    8997.683      2.039   1.600  7.04113E-01  9.38599E-01 -2.34486E-01
    8998.177      2.533   1.640  7.22433E-01  9.48523E-01 -2.26091E-01
    8998.683      3.039   1.680  7.43186E-01  9.57798E-01 -2.14612E-01
    8999.201      3.557   1.720  7.66399E-01  9.66483E-01 -2.00084E-01
    8999.731      4.087   1.760  8.00529E-01  9.74540E-01 -1.74011E-01
    9000.274      4.630   1.800  8.51332E-01  9.81993E-01 -1.30661E-01
    9000.829      5.184   1.840  9.20667E-01  9.88826E-01 -6.81592E-02
    9001.396      5.751   1.880  1.01258E+00  9.95086E-01  1.74921E-02
    9001.975      6.330   1.920  1.12042E+00  1.00074E+00  1.19678E-01
    9002.566      6.922   1.960  1.22232E+00  1.00585E+00  2.16466E-01
    9003.169      7.525   2.000  1.30182E+00  1.01040E+00  2.91420E-01
    9003.785      8.141   2.040  1.35313E+00  1.01443E+00  3.38699E-01
    9004.413      8.769   2.080  1.37268E+00  1.01796E+00  3.54721E-01
    9005.053      9.409   2.120  1.36776E+00  1.02099E+00  3.46773E-01
    9005.705     10.061   2.160  1.35307E+00  1.02356E+00  3.29505E-01
    9006.370     10.726   2.200  1.33778E+00  1.02571E+00  3.12068E-01
    9007.047     11.402   2.240  1.32753E+00  1.02744E+00  3.00090E-01
    9007.735     12.091   2.280  1.32801E+00  1.02879E+00  2.99216E-01
    9008.436     12.792   2.320  1.34015E+00  1.02980E+00  3.10352E-01
    9009.150     13.505   2.360  1.35981E+00  1.03047E+00  3.29332E-01
    9009.875     14.231   2.400  1.37621E+00  1.03083E+00  3.45384E-01
    9010.613     14.968   2.440  1.37413E+00  1.03092E+00  3.43211E-01
    9011.362     15.718   2.480  1.34512E+00  1.03075E+00  3.14375E-01
    9012.124     16.480   2.520  1.29316E+00  1.03034E+00  2.62823E-01
    9012.899     17.254   2.560  1.23769E+00  1.02972E+00  2.07965E-01
    9013.685     18.041   2.600  1.19237E+00  1.02893E+00  1.63443E-01
    9014.484     18.839   2.640  1.15698E+00  1.02797E+00  1.29007E-01
    9015.294     19.650   2.680  1.12886E+00  1.02687E+00  1.01980E-01
    9016.117     20.473   2.720  1.10507E+00  1.02563E+00  7.94404E-02
    9016.952     21.308   2.760  1.08349E+00  1.02432E+00  5.91699E-02
    9017.800     22.156   2.800  1.06284E+00  1.02289E+00  3.99511E-02
    9018.659     23.015   2.840  1.04291E+00  1.02139E+00  2.15183E-02
    9019.531     23.887   2.880  1.02382E+00  1.01984E+00  3.97994E-03
    9020.415     24.771   2.920  1.00553E+00  1.01827E+00 -1.27321E-02
    9021.311     25.667   2.960  9.88231E-01  1.01664E+00 -2.84058E-02
    9022.219     26.575   3.000  9.72396E-01  1.01502E+00 -4.26250E-02
    9023.140     27.496   3.040  9.58546E-01  1.01338E+00 -5.48362E-02
    9024.073     28.428   3.080  9.47082E-01  1.01177E+00 -6.46882E-02
    9025.017     29.373   3.120  9.37997E-01  1.01019E+00 -7.21905E-02
    9025.975     30.330   3.160  9.30651E-01  1.00862E+00 -7.79656E-02
    9026.944     31.300   3.200  9.24057E-01  1.00709E+00 -8.30284E-02
    9027.925     32.281   3.240  9.17255E-01  1.00560E+00 -8.83413E-02
    9028.919     33.275   3.280  9.09435E-01  1.00417E+00 -9.47399E-02
    9029.925     34.280   3.320  9.00189E-01  1.00280E+00 -1.02614E-01
    9030.943     35.299   3.360  8.89829E-01  1.00150E+00 -1.11672E-01
    9031.973     36.329   3.400  8.79000E-01  1.00026E+00 -1.21257E-01
    9033.015     37.371   3.440  8.68570E-01  9.99111E-01 -1.30541E-01
    9034.070     38.426   3.480  8.59426E-01  9.98023E-01 -1.38597E-01
    9035.137     39.493   3.520  8.52527E-01  9.97018E-01 -1.44490E-01
    9036.216     40.572   3.560  8.48368E-01  9.96118E-01 -1.47750E-01
    9037.307     41.663   3.600  8.47243E-01  9.95301E-01 -1.48058E-01
    9038.410     42.766   3.640  8.49227E-01  9.94548E-01 -1.45322E-01
    9039.526     43.882   3.680  8.54131E-01  9.93923E-01 -1.39792E-01
    9040.654     45.009   3.720  8.61330E-01  9.93364E-01 -1.32034E-01
    9041.794     46.149   3.760  8.70455E-01  9.92912E-01 -1.22456E-01
    9042.946     47.301   3.800  8.81183E-01  9.92545E-01 -1.11362E-01
    9044.110     48.466   3.840  8.93261E-01  9.92265E-01 -9.90042E-02
    9045.287     49.642   3.880  9.06514E-01  9.92071E-01 -8.55574E-02
    9046.475     50.831   3.920  9.20790E-01  9.91984E-01 -7.11939E-02
    9047.676     52.032   3.960  9.35836E-01  9.91983E-01 -5.61462E-02
    9048.889     53.245   4.000  9.51396E-01  9.92066E-01 -4.06705E-02
    9050.115     54.470   4.040  9.67270E-01  9.92234E-01 -2.49638E-02
    9051.352     55.708   4.080  9.83183E-01  9.92505E-01 -9.32211E-03
    9052.602     56.958   4.120  9.98691E-01  9.92834E-01  5.85699E-03
    9053.864     58.219   4.160  1.01348E+00  9.93241E-01  2.02394E-02
    9055.138     59.493   4.200  1.02729E+00  9.93725E-01  3.35645E-02
    9056.424     60.780   4.240  1.03990E+00  9.94263E-01  4.56338E-02
    9057.722     62.078   4.280  1.05126E+00  9.94876E-01  5.63797E-02
    9059.033     63.389   4.320  1.06139E+00  9.95561E-01  6.58341E-02
    9060.356     64.712   4.360  1.07033E+00  9.96296E-01  7.40290E-02
    9061.691     66.047   4.400  1.07805E+00  9.97101E-01  8.09468E-02
    9063.038     67.394   4.440  1.08443E+00  9.97951E-01  8.64805E-02
    9064.397     68.753   4.480  1.08919E+00  9.98841E-01  9.03521E-02
    9065.769     70.125   4.520  1.09201E+00  9.99750E-01  9.22577E-02
    9067.153     71.509   4.560  1.09274E+00  1.00072E+00  9.20174E-02
    9068.549     72.905   4.600  1.09131E+00  1.00172E+00  8.95877E-02
    9069.957     74.313   4.640  1.08785E+00  1.00274E+00  8.51083E-02
    9071.377     75.733   4.680  1.08277E+00  1.00379E+00  7.89833E-02
    9072.810     77.166   4.720  1.07660E+00  1.00484E+00  7.17584E-02
    9074.255     78.610   4.760  1.06993E+00  1.00590E+00  6.40361E-02
    9075.712     80.067   4.800  1.06329E+00  1.00696E+00  5.63363E-02
    9077.181     81.536   4.840  1.05699E+00  1.00804E+00  4.89485E-02
    9078.662     83.018   4.880  1.05104E+00  1.00909E+00  4.19465E-02
    9080.156     84.511   4.920  1.04555E+00  1.01014E+00  3.54041E-02
    9081.661     86.017   4.960  1.04062E+00  1.01119E+00  2.94356E-02
    9083.179     87.535   5.000  1.03638E+00  1.01220E+00  2.41820E-02
    9084.709     89.065   5.040  1.03291E+00  1.01320E+00  1.97141E-02
    9086.252     90.607   5.080  1.03014E+00  1.01416E+00  1.59734E-02
    9087.806     92.162   5.120  1.02795E+00  1.01509E+00  1.28610E-02
    9089.373     93.728   5.160  1.02630E+00  1.01597E+00  1.03270E-02
    9090.952     95.307   5.200  1.02520E+00  1.01681E+00  8.39099E-03
    9092.543     96.898   5.240  1.02463E+00  1.01760E+00  7.02961E-03
    9094.146     98.502   5.280  1.02437E+00  1.01833E+00  6.03817E-03
    9095.761    100.117   5.320  1.02408E+00  1.01903E+00  5.04263E-03
    9097.389    101.745   5.360  1.02330E+00  1.01967E+00  3.63345E-03
    9099.029    103.384   5.400  1.02173E+00  1.02023E+00  1.50165E-03
    9100.681    105.036   5.440  1.01918E+00  1.02076E+00 -1.58204E-03
    9102.345    106.701   5.480  1.01541E+00  1.02119E+00 -5.78457E-03
    9104.021    108.377   5.520  1.01042E+00  1.02157E+00 -1.11543E-02
    9105.710    110.066   5.560  1.00433E+00  1.02188E+00 -1.75534E-02
    9107.411    111.766   5.600  9.97559E-01  1.02213E+00 -2.45706E-02
    9109.124    113.479   5.640  9.90819E-01  1.02228E+00 -3.14633E-02
    9110.849    115.205   5.680  9.85166E-01  1.02240E+00 -3.72374E-02
    9112.586    116.942   5.720  9.81449E-01  1.02243E+00 -4.09761E-02
    9114.336    118.691   5.760  9.80275E-01  1.02239E+00 -4.21168E-02
    9116.097    120.453   5.800  9.81658E-01  1.02226E+00 -4.06018E-02
    9117.871    122.227   5.840  9.85235E-01  1.02210E+00 -3.68629E-02
    9119.657    124.013   5.880  9.90062E-01  1.02184E+00 -3.17773E-02
    9121.456    125.812   5.920  9.95048E-01  1.02153E+00 -2.64799E-02
    9123.266    127.622   5.960  9.99049E-01  1.02114E+00 -2.20875E-02
    9125.089    129.445   6.000  1.00117E+00  1.02064E+00 -1.94681E-02
