# # comment:                                                     FEFF 9.9.1  
# # Source:
# # Structure
# # Reduced
# # space
# # abc:
# # angles:
# # sites:
# # POT  SCF 100  7.0000   0, screened core-hole, AFOLP (folp(0)= 1.150)
# # Abs   Z=29 Rmt= 1.285 Rnm= 1.351 K  shell
# # Pot 1 Z=59 Rmt= 1.823 Rnm= 1.879
# # Pot 2 Z=29 Rmt= 1.280 Rnm= 1.348
# # Pot 3 Z=15 Rmt= 1.435 Rnm= 1.504
# # Pot 4 Z= 8 Rmt= 1.036 Rnm= 1.128
# # Gam_ch=1.729E+00 H-L exch Vi= 0.000E+00 Vr= 0.000E+00
# # Mu=-7.929E+00eV kf=1.915E+00 Vint=-1.671E+01eV Rs_int= 1.894
# FMS rfms= 9.0000
# # PATH  Rmax=-1.000,  Keep_limit= 0.00, Heap_limit 0.00  Pwcrit= 2.50%
#  S02=0.950  Temp=   0.00  Debye_temp=   0.00  Global_sig2= 0.00000
#  Energy zero shift, vr, vi    0.00000E+00   0.00000E+00
#  Curved wave amplitude ratio filter   4.000%
#     file         sig2 tot  cw amp ratio   deg  nlegs   reff  inp sig2
#     0/   0 paths used
#  xsedge+ 50, used to normalize mu           2.4368E-04
#  -----------------------------------------------------------------------
#  omega    e    k    mu    mu0     chi     @#
    8984.656    -11.739  -1.000  4.63110E-02  6.07680E-02 -1.44571E-02
    8984.954    -11.440  -0.960  4.90574E-02  6.53823E-02 -1.63249E-02
    8985.241    -11.153  -0.920  5.20373E-02  7.05250E-02 -1.84877E-02
    8985.515    -10.879  -0.880  5.52770E-02  7.62750E-02 -2.09980E-02
    8985.777    -10.617  -0.840  5.88064E-02  8.27243E-02 -2.39179E-02
    8986.027    -10.367  -0.800  6.26590E-02  8.99793E-02 -2.73204E-02
    8986.265    -10.129  -0.760  6.68720E-02  9.81627E-02 -3.12906E-02
    8986.491     -9.904  -0.720  7.14865E-02  1.07413E-01 -3.59263E-02
    8986.704     -9.690  -0.680  7.65457E-02  1.17882E-01 -4.13367E-02
    8986.905     -9.489  -0.640  8.20936E-02  1.29733E-01 -4.76390E-02
    8987.094     -9.300  -0.600  8.81713E-02  1.43122E-01 -5.49510E-02
    8987.271     -9.123  -0.560  9.48102E-02  1.58187E-01 -6.33772E-02
    8987.435     -8.959  -0.520  1.02023E-01  1.75009E-01 -7.29862E-02
    8987.588     -8.806  -0.480  1.09792E-01  1.93572E-01 -8.37805E-02
    8987.728     -8.666  -0.440  1.18052E-01  2.13713E-01 -9.56610E-02
    8987.856     -8.538  -0.400  1.26680E-01  2.35077E-01 -1.08397E-01
    8987.972     -8.422  -0.360  1.35490E-01  2.57110E-01 -1.21620E-01
    8988.075     -8.319  -0.320  1.44242E-01  2.79088E-01 -1.34846E-01
    8988.167     -8.227  -0.280  1.52663E-01  3.00209E-01 -1.47546E-01
    8988.246     -8.148  -0.240  1.60480E-01  3.19702E-01 -1.59221E-01
    8988.313     -8.081  -0.200  1.67452E-01  3.36923E-01 -1.69472E-01
    8988.368     -8.026  -0.160  1.73381E-01  3.51404E-01 -1.78023E-01
    8988.411     -7.983  -0.120  1.78123E-01  3.62846E-01 -1.84724E-01
    8988.441     -7.953  -0.080  1.81576E-01  3.71086E-01 -1.89510E-01
    8988.466     -7.929   0.000  1.84389E-01  3.77702E-01 -1.93314E-01
    8988.520     -7.874   0.120  1.90924E-01  3.92627E-01 -2.01703E-01
    8988.563     -7.831   0.160  1.95987E-01  4.04196E-01 -2.08209E-01
    8988.618     -7.776   0.200  2.02560E-01  4.18978E-01 -2.16418E-01
    8988.685     -7.709   0.240  2.10589E-01  4.36720E-01 -2.26131E-01
    8988.764     -7.630   0.280  2.20076E-01  4.57076E-01 -2.37000E-01
    8988.856     -7.538   0.320  2.30904E-01  4.79466E-01 -2.48561E-01
    8988.959     -7.435   0.360  2.43002E-01  5.03244E-01 -2.60242E-01
    8989.075     -7.319   0.400  2.56242E-01  5.27660E-01 -2.71418E-01
    8989.203     -7.191   0.440  2.70646E-01  5.52067E-01 -2.81421E-01
    8989.343     -7.051   0.480  2.86295E-01  5.75921E-01 -2.89626E-01
    8989.496     -6.898   0.520  3.03602E-01  5.98941E-01 -2.95339E-01
    8989.660     -6.734   0.560  3.22991E-01  6.20894E-01 -2.97903E-01
    8989.837     -6.557   0.600  3.45072E-01  6.41758E-01 -2.96687E-01
    8990.026     -6.368   0.640  3.70345E-01  6.61600E-01 -2.91255E-01
    8990.227     -6.167   0.680  3.98876E-01  6.80467E-01 -2.81591E-01
    8990.441     -5.953   0.720  4.30219E-01  6.98487E-01 -2.68268E-01
    8990.666     -5.728   0.760  4.63261E-01  7.15744E-01 -2.52483E-01
    8990.904     -5.490   0.800  4.96355E-01  7.32354E-01 -2.35999E-01
    8991.154     -5.240   0.840  5.27664E-01  7.48353E-01 -2.20689E-01
    8991.416     -4.978   0.880  5.55751E-01  7.63826E-01 -2.08075E-01
    8991.690     -4.704   0.920  5.79637E-01  7.78778E-01 -1.99141E-01
    8991.977     -4.417   0.960  5.98803E-01  7.93284E-01 -1.94481E-01
    8992.276     -4.119   1.000  6.13712E-01  8.07324E-01 -1.93612E-01
    8992.586     -3.808   1.040  6.27390E-01  8.20908E-01 -1.93518E-01
    8992.910     -3.485   1.080  6.44760E-01  8.34042E-01 -1.89281E-01
    8993.245     -3.149   1.120  6.69286E-01  8.46741E-01 -1.77455E-01
    8993.592     -2.802   1.160  7.01222E-01  8.58935E-01 -1.57713E-01
    8993.952     -2.442   1.200  7.40569E-01  8.70675E-01 -1.30106E-01
    8994.324     -2.070   1.240  7.89568E-01  8.81906E-01 -9.23377E-02
    8994.708     -1.686   1.280  8.51036E-01  8.92652E-01 -4.16163E-02
    8995.104     -1.290   1.320  9.24639E-01  9.02875E-01  2.17643E-02
    8995.513     -0.882   1.360  1.00389E+00  9.12557E-01  9.13303E-02
    8995.933     -0.461   1.400  1.07321E+00  9.21723E-01  1.51486E-01
    8996.366     -0.028   1.440  1.11228E+00  9.30334E-01  1.81947E-01
    8996.811      0.417   1.480  1.11199E+00  9.38415E-01  1.73577E-01
    8997.268      0.874   1.520  1.08250E+00  9.45969E-01  1.36532E-01
    8997.738      1.343   1.560  1.04425E+00  9.52982E-01  9.12692E-02
    8998.219      1.825   1.600  1.01615E+00  9.59461E-01  5.66894E-02
    8998.713      2.319   1.640  1.00955E+00  9.65412E-01  4.41419E-02
    8999.219      2.825   1.680  1.02645E+00  9.70863E-01  5.55865E-02
    8999.737      3.343   1.720  1.06000E+00  9.75824E-01  8.41797E-02
    9000.267      3.873   1.760  1.09812E+00  9.80284E-01  1.17832E-01
    9000.810      4.416   1.800  1.12653E+00  9.84295E-01  1.42233E-01
    9001.365      4.971   1.840  1.13227E+00  9.87890E-01  1.44384E-01
    9001.932      5.537   1.880  1.11343E+00  9.91038E-01  1.22394E-01
    9002.511      6.117   1.920  1.08193E+00  9.93790E-01  8.81445E-02
    9003.102      6.708   1.960  1.05125E+00  9.96162E-01  5.50895E-02
    9003.706      7.311   2.000  1.02830E+00  9.98206E-01  3.00911E-02
    9004.321      7.927   2.040  1.01372E+00  9.99893E-01  1.38223E-02
    9004.949      8.555   2.080  1.00517E+00  1.00130E+00  3.86943E-03
    9005.589      9.195   2.120  9.99855E-01  1.00239E+00 -2.53534E-03
    9006.241      9.847   2.160  9.95777E-01  1.00325E+00 -7.46976E-03
    9006.906     10.512   2.200  9.93313E-01  1.00388E+00 -1.05638E-02
    9007.583     11.188   2.240  9.96622E-01  1.00427E+00 -7.65100E-03
    9008.271     11.877   2.280  1.01012E+00  1.00449E+00  5.63066E-03
    9008.972     12.578   2.320  1.03566E+00  1.00453E+00  3.11357E-02
    9009.686     13.292   2.360  1.06957E+00  1.00441E+00  6.51663E-02
    9010.411     14.017   2.400  1.10119E+00  1.00418E+00  9.70140E-02
    9011.149     14.755   2.440  1.12564E+00  1.00383E+00  1.21813E-01
    9011.899     15.504   2.480  1.13968E+00  1.00337E+00  1.36312E-01
    9012.661     16.266   2.520  1.14140E+00  1.00284E+00  1.38566E-01
    9013.435     17.041   2.560  1.13115E+00  1.00226E+00  1.28889E-01
    9014.221     17.827   2.600  1.11197E+00  1.00161E+00  1.10357E-01
    9015.020     18.625   2.640  1.08781E+00  1.00094E+00  8.68628E-02
    9015.830     19.436   2.680  1.06192E+00  1.00024E+00  6.16748E-02
    9016.653     20.259   2.720  1.03615E+00  9.99535E-01  3.66176E-02
    9017.489     21.094   2.760  1.01158E+00  9.98825E-01  1.27567E-02
    9018.336     21.942   2.800  9.88894E-01  9.98139E-01 -9.24529E-03
    9019.195     22.801   2.840  9.68726E-01  9.97461E-01 -2.87342E-02
    9020.067     23.673   2.880  9.51230E-01  9.96815E-01 -4.55849E-02
    9020.951     24.557   2.920  9.36118E-01  9.96184E-01 -6.00662E-02
    9021.847     25.453   2.960  9.23167E-01  9.95614E-01 -7.24471E-02
    9022.755     26.361   3.000  9.12624E-01  9.95088E-01 -8.24636E-02
    9023.676     27.282   3.040  9.04990E-01  9.94627E-01 -8.96365E-02
    9024.609     28.214   3.080  9.00566E-01  9.94193E-01 -9.36273E-02
    9025.554     29.159   3.120  8.99534E-01  9.93851E-01 -9.43175E-02
    9026.511     30.116   3.160  9.01711E-01  9.93559E-01 -9.18475E-02
    9027.480     31.086   3.200  9.06703E-01  9.93318E-01 -8.66152E-02
    9028.461     32.067   3.240  9.13873E-01  9.93173E-01 -7.93001E-02
    9029.455     33.061   3.280  9.22318E-01  9.93081E-01 -7.07625E-02
    9030.461     34.067   3.320  9.31036E-01  9.93043E-01 -6.20067E-02
    9031.479     35.085   3.360  9.39277E-01  9.93101E-01 -5.38237E-02
    9032.509     36.115   3.400  9.46546E-01  9.93213E-01 -4.66675E-02
    9033.551     37.157   3.440  9.52925E-01  9.93399E-01 -4.04745E-02
    9034.606     38.212   3.480  9.58811E-01  9.93661E-01 -3.48501E-02
    9035.673     39.279   3.520  9.64705E-01  9.93977E-01 -2.92721E-02
    9036.752     40.358   3.560  9.70843E-01  9.94365E-01 -2.35219E-02
    9037.843     41.449   3.600  9.77110E-01  9.94824E-01 -1.77132E-02
    9038.946     42.552   3.640  9.83422E-01  9.95331E-01 -1.19088E-02
    9040.062     43.668   3.680  9.89928E-01  9.95887E-01 -5.95957E-03
    9041.190     44.796   3.720  9.97036E-01  9.96512E-01  5.24124E-04
    9042.330     45.935   3.760  1.00516E+00  9.97182E-01  7.98085E-03
    9043.482     47.088   3.800  1.01463E+00  9.97916E-01  1.67122E-02
    9044.646     48.252   3.840  1.02537E+00  9.98668E-01  2.67063E-02
    9045.823     49.428   3.880  1.03708E+00  9.99459E-01  3.76233E-02
    9047.011     50.617   3.920  1.04916E+00  1.00029E+00  4.88705E-02
    9048.212     51.818   3.960  1.06089E+00  1.00115E+00  5.97382E-02
    9049.425     53.031   4.000  1.07143E+00  1.00205E+00  6.93792E-02
    9050.651     54.256   4.040  1.07972E+00  1.00296E+00  7.67618E-02
    9051.888     55.494   4.080  1.08469E+00  1.00387E+00  8.08206E-02
    9053.138     56.744   4.120  1.08558E+00  1.00481E+00  8.07744E-02
    9054.400     58.005   4.160  1.08236E+00  1.00575E+00  7.66142E-02
    9055.674     59.280   4.200  1.07580E+00  1.00669E+00  6.91076E-02
    9056.960     60.566   4.240  1.06715E+00  1.00763E+00  5.95239E-02
    9058.258     61.864   4.280  1.05775E+00  1.00857E+00  4.91846E-02
    9059.569     63.175   4.320  1.04853E+00  1.00950E+00  3.90385E-02
    9060.892     64.498   4.360  1.03986E+00  1.01040E+00  2.94624E-02
    9062.227     65.833   4.400  1.03165E+00  1.01128E+00  2.03672E-02
    9063.574     67.180   4.440  1.02375E+00  1.01213E+00  1.16178E-02
    9064.934     68.539   4.480  1.01615E+00  1.01295E+00  3.19952E-03
    9066.305     69.911   4.520  1.00909E+00  1.01372E+00 -4.63430E-03
    9067.689     71.295   4.560  1.00299E+00  1.01448E+00 -1.14921E-02
    9069.085     72.691   4.600  9.98076E-01  1.01520E+00 -1.71233E-02
    9070.493     74.099   4.640  9.94203E-01  1.01585E+00 -2.16467E-02
    9071.913     75.519   4.680  9.90958E-01  1.01646E+00 -2.54969E-02
    9073.346     76.952   4.720  9.87794E-01  1.01704E+00 -2.92419E-02
    9074.791     78.397   4.760  9.84110E-01  1.01753E+00 -3.34172E-02
    9076.248     79.853   4.800  9.79553E-01  1.01799E+00 -3.84377E-02
    9077.717     81.323   4.840  9.73871E-01  1.01838E+00 -4.45131E-02
    9079.198     82.804   4.880  9.67199E-01  1.01873E+00 -5.15275E-02
    9080.692     84.297   4.920  9.59980E-01  1.01900E+00 -5.90172E-02
    9082.197     85.803   4.960  9.52897E-01  1.01922E+00 -6.63192E-02
    9083.715     87.321   5.000  9.46646E-01  1.01936E+00 -7.27158E-02
    9085.245     88.851   5.040  9.41891E-01  1.01946E+00 -7.75652E-02
    9086.788     90.393   5.080  9.39283E-01  1.01948E+00 -8.01941E-02
    9088.342     91.948   5.120  9.39718E-01  1.01945E+00 -7.97296E-02
    9089.909     93.515   5.160  9.44301E-01  1.01937E+00 -7.50667E-02
    9091.488     95.093   5.200  9.54052E-01  1.01919E+00 -6.51409E-02
    9093.079     96.684   5.240  9.69590E-01  1.01899E+00 -4.94003E-02
    9094.682     98.288   5.280  9.90411E-01  1.01872E+00 -2.83067E-02
    9096.297     99.903   5.320  1.01488E+00  1.01840E+00 -3.51595E-03
    9097.925    101.531   5.360  1.04054E+00  1.01801E+00  2.25298E-02
    9099.565    103.171   5.400  1.06496E+00  1.01759E+00  4.73624E-02
    9101.217    104.823   5.440  1.08612E+00  1.01711E+00  6.90076E-02
    9102.881    106.487   5.480  1.10259E+00  1.01659E+00  8.59975E-02
    9104.557    108.163   5.520  1.11329E+00  1.01603E+00  9.72602E-02
    9106.246    109.852   5.560  1.11771E+00  1.01542E+00  1.02292E-01
    9107.947    111.553   5.600  1.11609E+00  1.01478E+00  1.01316E-01
    9109.660    113.265   5.640  1.10928E+00  1.01412E+00  9.51653E-02
    9111.385    114.991   5.680  1.09837E+00  1.01340E+00  8.49717E-02
    9113.122    116.728   5.720  1.08457E+00  1.01270E+00  7.18745E-02
    9114.872    118.478   5.760  1.06868E+00  1.01194E+00  5.67429E-02
    9116.633    120.239   5.800  1.05132E+00  1.01117E+00  4.01407E-02
    9118.407    122.013   5.840  1.03291E+00  1.01041E+00  2.25069E-02
    9120.194    123.799   5.880  1.01419E+00  1.00961E+00  4.57259E-03
    9121.992    125.598   5.920  9.96494E-01  1.00883E+00 -1.23357E-02
    9123.802    127.408   5.960  9.81624E-01  1.00806E+00 -2.64367E-02
    9125.625    129.231   6.000  9.71114E-01  1.00729E+00 -3.61742E-02
