# # comment:                                                     FEFF 9.9.1  
# # Source:
# # Structure
# # Reduced
# # space
# # abc:
# # angles:
# # sites:
# # POT  SCF 100  7.0000   0, screened core-hole, AFOLP (folp(0)= 1.150)
# # Abs   Z=29 Rmt= 1.135 Rnm= 1.255 K  shell
# # Pot 1 Z=20 Rmt= 1.618 Rnm= 1.699
# # Pot 2 Z=22 Rmt= 1.169 Rnm= 1.373
# # Pot 3 Z=29 Rmt= 1.141 Rnm= 1.257
# # Pot 4 Z= 8 Rmt= 0.977 Rnm= 1.098
# # Gam_ch=1.729E+00 H-L exch Vi= 0.000E+00 Vr= 0.000E+00
# # Mu=-1.025E+01eV kf=2.170E+00 Vint=-1.823E+01eV Rs_int= 1.672
# FMS rfms= 9.0000
# # PATH  Rmax=-1.000,  Keep_limit= 0.00, Heap_limit 0.00  Pwcrit= 2.50%
#  S02=0.950  Temp=   0.00  Debye_temp=   0.00  Global_sig2= 0.00000
#  Energy zero shift, vr, vi    0.00000E+00   0.00000E+00
#  Curved wave amplitude ratio filter   4.000%
#     file         sig2 tot  cw amp ratio   deg  nlegs   reff  inp sig2
#     0/   0 paths used
#  xsedge+ 50, used to normalize mu           2.4845E-04
#  -----------------------------------------------------------------------
#  omega    e    k    mu    mu0     chi     @#
    8984.511    -14.063  -1.000  3.24789E-02  4.89756E-02 -1.64967E-02
    8984.810    -13.764  -0.960  3.41396E-02  5.23943E-02 -1.82547E-02
    8985.097    -13.477  -0.920  3.59303E-02  5.61819E-02 -2.02516E-02
    8985.371    -13.203  -0.880  3.78649E-02  6.03917E-02 -2.25268E-02
    8985.633    -12.941  -0.840  3.99593E-02  6.50859E-02 -2.51265E-02
    8985.883    -12.691  -0.800  4.22309E-02  7.03362E-02 -2.81053E-02
    8986.121    -12.453  -0.760  4.46985E-02  7.62248E-02 -3.15263E-02
    8986.346    -12.228  -0.720  4.73825E-02  8.28447E-02 -3.54622E-02
    8986.560    -12.014  -0.680  5.03036E-02  9.02978E-02 -3.99942E-02
    8986.761    -11.813  -0.640  5.34824E-02  9.86917E-02 -4.52093E-02
    8986.950    -11.624  -0.600  5.69370E-02  1.08132E-01 -5.11947E-02
    8987.127    -11.447  -0.560  6.06802E-02  1.18707E-01 -5.80270E-02
    8987.291    -11.283  -0.520  6.47156E-02  1.30471E-01 -6.57553E-02
    8987.444    -11.130  -0.480  6.90319E-02  1.43409E-01 -7.43772E-02
    8987.584    -10.990  -0.440  7.35968E-02  1.57409E-01 -8.38120E-02
    8987.712    -10.862  -0.400  7.83517E-02  1.72229E-01 -9.38772E-02
    8987.828    -10.746  -0.360  8.32088E-02  1.87491E-01 -1.04282E-01
    8987.931    -10.643  -0.320  8.80542E-02  2.02704E-01 -1.14650E-01
    8988.023    -10.551  -0.280  9.27549E-02  2.17323E-01 -1.24568E-01
    8988.102    -10.472  -0.240  9.71711E-02  2.30821E-01 -1.33650E-01
    8988.169    -10.405  -0.200  1.01168E-01  2.42755E-01 -1.41588E-01
    8988.224    -10.350  -0.160  1.04623E-01  2.52801E-01 -1.48178E-01
    8988.267    -10.308  -0.120  1.07434E-01  2.60748E-01 -1.53314E-01
    8988.297    -10.277  -0.080  1.09518E-01  2.66477E-01 -1.56959E-01
    8988.321    -10.253   0.000  1.11261E-01  2.71083E-01 -1.59822E-01
    8988.376    -10.198   0.120  1.15209E-01  2.81468E-01 -1.66260E-01
    8988.419    -10.155   0.160  1.18310E-01  2.89548E-01 -1.71237E-01
    8988.474    -10.100   0.200  1.22448E-01  2.99903E-01 -1.77455E-01
    8988.541    -10.033   0.240  1.27629E-01  3.12345E-01 -1.84716E-01
    8988.620     -9.954   0.280  1.34005E-01  3.26706E-01 -1.92701E-01
    8988.712     -9.863   0.320  1.41661E-01  3.42601E-01 -2.00940E-01
    8988.815     -9.759   0.360  1.50704E-01  3.59607E-01 -2.08903E-01
    8988.931     -9.643   0.400  1.61186E-01  3.77268E-01 -2.16083E-01
    8989.059     -9.515   0.440  1.73075E-01  3.95148E-01 -2.22073E-01
    8989.199     -9.375   0.480  1.86355E-01  4.12966E-01 -2.26610E-01
    8989.352     -9.222   0.520  2.00783E-01  4.30458E-01 -2.29675E-01
    8989.516     -9.058   0.560  2.16198E-01  4.47552E-01 -2.31354E-01
    8989.693     -8.881   0.600  2.32387E-01  4.64217E-01 -2.31831E-01
    8989.882     -8.692   0.640  2.48907E-01  4.80503E-01 -2.31596E-01
    8990.083     -8.491   0.680  2.64654E-01  4.96466E-01 -2.31812E-01
    8990.296     -8.278   0.720  2.77885E-01  5.12172E-01 -2.34287E-01
    8990.522     -8.052   0.760  2.87019E-01  5.27728E-01 -2.40708E-01
    8990.760     -7.814   0.800  2.91865E-01  5.43147E-01 -2.51283E-01
    8991.010     -7.564   0.840  2.94094E-01  5.58519E-01 -2.64424E-01
    8991.272     -7.302   0.880  2.96319E-01  5.73877E-01 -2.77558E-01
    8991.546     -7.028   0.920  3.00951E-01  5.89225E-01 -2.88274E-01
    8991.833     -6.741   0.960  3.09400E-01  6.04574E-01 -2.95175E-01
    8992.131     -6.443   1.000  3.21985E-01  6.19970E-01 -2.97985E-01
    8992.442     -6.132   1.040  3.38314E-01  6.35348E-01 -2.97034E-01
    8992.765     -5.809   1.080  3.56948E-01  6.50758E-01 -2.93810E-01
    8993.101     -5.473   1.120  3.75318E-01  6.66145E-01 -2.90827E-01
    8993.448     -5.126   1.160  3.92521E-01  6.81489E-01 -2.88968E-01
    8993.808     -4.766   1.200  4.09918E-01  6.96763E-01 -2.86845E-01
    8994.180     -4.394   1.240  4.28888E-01  7.11963E-01 -2.83075E-01
    8994.564     -4.010   1.280  4.47789E-01  7.27017E-01 -2.79228E-01
    8994.960     -3.614   1.320  4.59914E-01  7.41936E-01 -2.82022E-01
    8995.368     -3.206   1.360  4.59391E-01  7.56647E-01 -2.97256E-01
    8995.789     -2.785   1.400  4.51137E-01  7.71136E-01 -3.20000E-01
    8996.222     -2.352   1.440  4.46400E-01  7.85370E-01 -3.38971E-01
    8996.667     -1.907   1.480  4.52450E-01  7.99297E-01 -3.46846E-01
    8997.124     -1.450   1.520  4.70113E-01  8.12922E-01 -3.42808E-01
    8997.593     -0.981   1.560  4.94280E-01  8.26171E-01 -3.31891E-01
    8998.075     -0.499   1.600  5.18417E-01  8.39054E-01 -3.20637E-01
    8998.569     -0.005   1.640  5.41748E-01  8.51519E-01 -3.09771E-01
    8999.075      0.501   1.680  5.69364E-01  8.63556E-01 -2.94192E-01
    8999.593      1.019   1.720  6.02697E-01  8.75135E-01 -2.72438E-01
    9000.123      1.549   1.760  6.43304E-01  8.86249E-01 -2.42945E-01
    9000.666      2.092   1.800  6.97630E-01  8.96891E-01 -1.99261E-01
    9001.220      2.646   1.840  7.72289E-01  9.07017E-01 -1.34729E-01
    9001.787      3.213   1.880  8.67762E-01  9.16663E-01 -4.89006E-02
    9002.367      3.792   1.920  9.72588E-01  9.25783E-01  4.68043E-02
    9002.958      4.384   1.960  1.06923E+00  9.34380E-01  1.34852E-01
    9003.561      4.987   2.000  1.14257E+00  9.42472E-01  2.00099E-01
    9004.177      5.603   2.040  1.18479E+00  9.50041E-01  2.34748E-01
    9004.805      6.231   2.080  1.20468E+00  9.57111E-01  2.47572E-01
    9005.445      6.871   2.120  1.22007E+00  9.63685E-01  2.56384E-01
    9006.097      7.523   2.160  1.24926E+00  9.69767E-01  2.79490E-01
    9006.762      8.188   2.200  1.29792E+00  9.75341E-01  3.22583E-01
    9007.438      8.864   2.240  1.34944E+00  9.80475E-01  3.68961E-01
    9008.127      9.553   2.280  1.38380E+00  9.85136E-01  3.98661E-01
    9008.828     10.254   2.320  1.39635E+00  9.89351E-01  4.06998E-01
    9009.541     10.967   2.360  1.39596E+00  9.93129E-01  4.02830E-01
    9010.267     11.693   2.400  1.39704E+00  9.96518E-01  4.00523E-01
    9011.005     12.430   2.440  1.39872E+00  9.99509E-01  3.99215E-01
    9011.754     13.180   2.480  1.37805E+00  1.00213E+00  3.75918E-01
    9012.516     13.942   2.520  1.32103E+00  1.00439E+00  3.16640E-01
    9013.290     14.716   2.560  1.24276E+00  1.00632E+00  2.36441E-01
    9014.077     15.503   2.600  1.16963E+00  1.00792E+00  1.61707E-01
    9014.875     16.301   2.640  1.11600E+00  1.00924E+00  1.06763E-01
    9015.686     17.112   2.680  1.07344E+00  1.01028E+00  6.31666E-02
    9016.509     17.935   2.720  1.04083E+00  1.01106E+00  2.97738E-02
    9017.344     18.770   2.760  1.01686E+00  1.01160E+00  5.25988E-03
    9018.192     19.618   2.800  9.99454E-01  1.01190E+00 -1.24506E-02
    9019.051     20.477   2.840  9.86799E-01  1.01201E+00 -2.52073E-02
    9019.923     21.349   2.880  9.77265E-01  1.01193E+00 -3.46689E-02
    9020.807     22.233   2.920  9.69869E-01  1.01169E+00 -4.18246E-02
    9021.703     23.129   2.960  9.64464E-01  1.01129E+00 -4.68304E-02
    9022.611     24.037   3.000  9.60757E-01  1.01074E+00 -4.99858E-02
    9023.532     24.958   3.040  9.58151E-01  1.01009E+00 -5.19386E-02
    9024.464     25.890   3.080  9.55814E-01  1.00930E+00 -5.34855E-02
    9025.409     26.835   3.120  9.52887E-01  1.00844E+00 -5.55526E-02
    9026.366     27.792   3.160  9.48623E-01  1.00748E+00 -5.88549E-02
    9027.336     28.762   3.200  9.42894E-01  1.00646E+00 -6.35666E-02
    9028.317     29.743   3.240  9.36099E-01  1.00539E+00 -6.92954E-02
    9029.311     30.737   3.280  9.28575E-01  1.00426E+00 -7.56894E-02
    9030.317     31.743   3.320  9.20563E-01  1.00311E+00 -8.25519E-02
    9031.335     32.761   3.360  9.12242E-01  1.00193E+00 -8.96880E-02
    9032.365     33.791   3.400  9.03860E-01  1.00071E+00 -9.68554E-02
    9033.407     34.833   3.440  8.95859E-01  9.99515E-01 -1.03656E-01
    9034.462     35.888   3.480  8.88784E-01  9.98295E-01 -1.09511E-01
    9035.529     36.955   3.520  8.83449E-01  9.97098E-01 -1.13648E-01
    9036.608     38.034   3.560  8.80336E-01  9.95905E-01 -1.15569E-01
    9037.699     39.125   3.600  8.79762E-01  9.94721E-01 -1.14959E-01
    9038.802     40.228   3.640  8.81814E-01  9.93592E-01 -1.11778E-01
    9039.918     41.344   3.680  8.86140E-01  9.92477E-01 -1.06337E-01
    9041.045     42.471   3.720  8.92059E-01  9.91398E-01 -9.93391E-02
    9042.185     43.611   3.760  8.98865E-01  9.90358E-01 -9.14930E-02
    9043.338     44.764   3.800  9.05963E-01  9.89358E-01 -8.33947E-02
    9044.502     45.928   3.840  9.12929E-01  9.88400E-01 -7.54707E-02
    9045.678     47.104   3.880  9.19606E-01  9.87507E-01 -6.79005E-02
    9046.867     48.293   3.920  9.26148E-01  9.86639E-01 -6.04907E-02
    9048.068     49.494   3.960  9.32982E-01  9.85859E-01 -5.28768E-02
    9049.281     50.707   4.000  9.40354E-01  9.85106E-01 -4.47514E-02
    9050.506     51.932   4.040  9.48502E-01  9.84443E-01 -3.59409E-02
    9051.744     53.170   4.080  9.57322E-01  9.83806E-01 -2.64839E-02
    9052.994     54.420   4.120  9.66599E-01  9.83238E-01 -1.66387E-02
    9054.255     55.681   4.160  9.75925E-01  9.82742E-01 -6.81707E-03
    9055.530     56.955   4.200  9.84902E-01  9.82295E-01  2.60636E-03
    9056.816     58.242   4.240  9.93307E-01  9.81917E-01  1.13898E-02
    9058.114     59.540   4.280  1.00117E+00  9.81587E-01  1.95823E-02
    9059.425     60.851   4.320  1.00871E+00  9.81304E-01  2.74081E-02
    9060.748     62.174   4.360  1.01599E+00  9.81090E-01  3.49030E-02
    9062.083     63.509   4.400  1.02276E+00  9.80947E-01  4.18088E-02
    9063.430     64.856   4.440  1.02871E+00  9.80850E-01  4.78559E-02
    9064.789     66.215   4.480  1.03379E+00  9.80796E-01  5.29948E-02
    9066.161     67.587   4.520  1.03818E+00  9.80787E-01  5.73917E-02
    9067.545     68.971   4.560  1.04219E+00  9.80844E-01  6.13483E-02
    9068.941     70.367   4.600  1.04588E+00  9.80941E-01  6.49429E-02
    9070.349     71.775   4.640  1.04896E+00  9.81058E-01  6.79035E-02
    9071.769     73.195   4.680  1.05099E+00  9.81238E-01  6.97498E-02
    9073.202     74.628   4.720  1.05154E+00  9.81457E-01  7.00811E-02
    9074.646     76.072   4.760  1.05058E+00  9.81716E-01  6.88629E-02
    9076.103     77.529   4.800  1.04857E+00  9.82010E-01  6.65552E-02
    9077.573     78.998   4.840  1.04621E+00  9.82320E-01  6.38858E-02
    9079.054     80.480   4.880  1.04419E+00  9.82684E-01  6.15060E-02
    9080.547     81.973   4.920  1.04285E+00  9.83038E-01  5.98093E-02
    9082.053     83.479   4.960  1.04232E+00  9.83444E-01  5.88776E-02
    9083.571     84.997   5.000  1.04238E+00  9.83858E-01  5.85238E-02
    9085.101     86.527   5.040  1.04259E+00  9.84277E-01  5.83170E-02
    9086.643     88.069   5.080  1.04226E+00  9.84701E-01  5.75558E-02
    9088.198     89.624   5.120  1.04063E+00  9.85151E-01  5.54821E-02
    9089.764     91.190   5.160  1.03714E+00  9.85602E-01  5.15400E-02
    9091.343     92.769   5.200  1.03162E+00  9.86053E-01  4.55685E-02
    9092.934     94.360   5.240  1.02423E+00  9.86481E-01  3.77443E-02
    9094.538     95.964   5.280  1.01534E+00  9.86929E-01  2.84065E-02
    9096.153     97.579   5.320  1.00534E+00  9.87373E-01  1.79639E-02
    9097.781     99.207   5.360  9.94649E-01  9.87791E-01  6.85768E-03
    9099.421    100.846   5.400  9.83791E-01  9.88204E-01 -4.41276E-03
    9101.073    102.498   5.440  9.73274E-01  9.88608E-01 -1.53342E-02
    9102.737    104.163   5.480  9.63529E-01  9.88982E-01 -2.54533E-02
    9104.413    105.839   5.520  9.54891E-01  9.89347E-01 -3.44558E-02
    9106.102    107.528   5.560  9.47462E-01  9.89677E-01 -4.22150E-02
    9107.802    109.228   5.600  9.41175E-01  9.89973E-01 -4.87977E-02
    9109.515    110.941   5.640  9.35825E-01  9.90256E-01 -5.44314E-02
    9111.241    112.667   5.680  9.31190E-01  9.90504E-01 -5.93132E-02
    9112.978    114.404   5.720  9.27309E-01  9.90716E-01 -6.34063E-02
    9114.728    116.153   5.760  9.24528E-01  9.90912E-01 -6.63842E-02
    9116.489    117.915   5.800  9.23203E-01  9.91049E-01 -6.78457E-02
    9118.263    119.689   5.840  9.23652E-01  9.91169E-01 -6.75164E-02
    9120.049    121.475   5.880  9.25913E-01  9.91227E-01 -6.53138E-02
    9121.848    123.274   5.920  9.29970E-01  9.91268E-01 -6.12987E-02
    9123.658    125.084   5.960  9.35717E-01  9.91268E-01 -5.55504E-02
    9125.481    126.907   6.000  9.43257E-01  9.91206E-01 -4.79490E-02
