# # comment:                                                     FEFF 9.9.1  
# # Source:
# # Structure
# # Reduced
# # space
# # abc:
# # angles:
# # sites:
# # POT  SCF 100  7.0000   0, screened core-hole, AFOLP (folp(0)= 1.150)
# # Abs   Z=29 Rmt= 1.228 Rnm= 1.326 K  shell
# # Pot 1 Z=29 Rmt= 1.234 Rnm= 1.330
# # Pot 2 Z=32 Rmt= 1.129 Rnm= 1.321
# # Pot 3 Z= 8 Rmt= 0.965 Rnm= 1.084
# # Gam_ch=1.729E+00 H-L exch Vi= 0.000E+00 Vr= 0.000E+00
# # Mu=-6.522E+00eV kf=2.267E+00 Vint=-1.585E+01eV Rs_int= 1.599
# FMS rfms= 9.0000
# # PATH  Rmax=-1.000,  Keep_limit= 0.00, Heap_limit 0.00  Pwcrit= 2.50%
#  S02=0.950  Temp=   0.00  Debye_temp=   0.00  Global_sig2= 0.00000
#  Energy zero shift, vr, vi    0.00000E+00   0.00000E+00
#  Curved wave amplitude ratio filter   4.000%
#     file         sig2 tot  cw amp ratio   deg  nlegs   reff  inp sig2
#     0/   0 paths used
#  xsedge+ 50, used to normalize mu           2.4645E-04
#  -----------------------------------------------------------------------
#  omega    e    k    mu    mu0     chi     @#
    8983.385    -10.332  -1.000  4.11535E-02  5.33243E-02 -1.21708E-02
    8983.684    -10.033  -0.960  4.35699E-02  5.72005E-02 -1.36306E-02
    8983.970     -9.747  -0.920  4.61987E-02  6.15088E-02 -1.53101E-02
    8984.244     -9.472  -0.880  4.90648E-02  6.63131E-02 -1.72483E-02
    8984.507     -9.210  -0.840  5.21965E-02  7.16877E-02 -1.94912E-02
    8984.756     -8.960  -0.800  5.56249E-02  7.77186E-02 -2.20937E-02
    8984.994     -8.723  -0.760  5.93848E-02  8.45047E-02 -2.51199E-02
    8985.220     -8.497  -0.720  6.35134E-02  9.21576E-02 -2.86442E-02
    8985.433     -8.284  -0.680  6.80502E-02  1.00800E-01 -3.27503E-02
    8985.634     -8.083  -0.640  7.30343E-02  1.10563E-01 -3.75288E-02
    8985.823     -7.894  -0.600  7.85018E-02  1.21573E-01 -4.30714E-02
    8986.000     -7.717  -0.560  8.44809E-02  1.33940E-01 -4.94589E-02
    8986.165     -7.552  -0.520  9.09842E-02  1.47728E-01 -5.67437E-02
    8986.317     -7.400  -0.480  9.79992E-02  1.62923E-01 -6.49238E-02
    8986.457     -7.260  -0.440  1.05478E-01  1.79392E-01 -7.39140E-02
    8986.585     -7.132  -0.400  1.13327E-01  1.96848E-01 -8.35208E-02
    8986.701     -7.016  -0.360  1.21400E-01  2.14838E-01 -9.34379E-02
    8986.805     -6.912  -0.320  1.29505E-01  2.32777E-01 -1.03272E-01
    8986.896     -6.821  -0.280  1.37413E-01  2.50014E-01 -1.12601E-01
    8986.975     -6.741  -0.240  1.44878E-01  2.65923E-01 -1.21044E-01
    8987.042     -6.674  -0.200  1.51660E-01  2.79979E-01 -1.28320E-01
    8987.097     -6.620  -0.160  1.57538E-01  2.91801E-01 -1.34263E-01
    8987.140     -6.577  -0.120  1.62326E-01  3.01145E-01 -1.38819E-01
    8987.170     -6.546  -0.080  1.65878E-01  3.07875E-01 -1.41997E-01
    8987.195     -6.522   0.000  1.68849E-01  3.13280E-01 -1.44432E-01
    8987.250     -6.467   0.120  1.75547E-01  3.25475E-01 -1.49928E-01
    8987.292     -6.424   0.160  1.80841E-01  3.34931E-01 -1.54090E-01
    8987.347     -6.370   0.200  1.87863E-01  3.47031E-01 -1.59168E-01
    8987.414     -6.303   0.240  1.96738E-01  3.61548E-01 -1.64810E-01
    8987.494     -6.223   0.280  2.07658E-01  3.78246E-01 -1.70588E-01
    8987.585     -6.132   0.320  2.20741E-01  3.96636E-01 -1.75894E-01
    8987.689     -6.028   0.360  2.36049E-01  4.16204E-01 -1.80155E-01
    8987.804     -5.912   0.400  2.53454E-01  4.36382E-01 -1.82929E-01
    8987.932     -5.784   0.440  2.72372E-01  4.56633E-01 -1.84261E-01
    8988.073     -5.644   0.480  2.91616E-01  4.76536E-01 -1.84919E-01
    8988.225     -5.492   0.520  3.09452E-01  4.95857E-01 -1.86405E-01
    8988.390     -5.327   0.560  3.24146E-01  5.14438E-01 -1.90292E-01
    8988.566     -5.150   0.600  3.35057E-01  5.32290E-01 -1.97232E-01
    8988.755     -4.961   0.640  3.43212E-01  5.49429E-01 -2.06217E-01
    8988.957     -4.760   0.680  3.50922E-01  5.65970E-01 -2.15048E-01
    8989.170     -4.547   0.720  3.60719E-01  5.81960E-01 -2.21242E-01
    8989.395     -4.321   0.760  3.74669E-01  5.97527E-01 -2.22858E-01
    8989.633     -4.084   0.800  3.93984E-01  6.12747E-01 -2.18763E-01
    8989.883     -3.834   0.840  4.19495E-01  6.27666E-01 -2.08172E-01
    8990.145     -3.572   0.880  4.52385E-01  6.42375E-01 -1.89990E-01
    8990.420     -3.297   0.920  4.92428E-01  6.56892E-01 -1.64463E-01
    8990.706     -3.011   0.960  5.33077E-01  6.71243E-01 -1.38166E-01
    8991.005     -2.712   1.000  5.59093E-01  6.85443E-01 -1.26350E-01
    8991.316     -2.401   1.040  5.58696E-01  6.99499E-01 -1.40804E-01
    8991.639     -2.078   1.080  5.40365E-01  7.13431E-01 -1.73066E-01
    8991.974     -1.743   1.120  5.25411E-01  7.27209E-01 -2.01797E-01
    8992.322     -1.395   1.160  5.28996E-01  7.40820E-01 -2.11825E-01
    8992.681     -1.036   1.200  5.51652E-01  7.54272E-01 -2.02620E-01
    8993.053     -0.664   1.240  5.77806E-01  7.67501E-01 -1.89695E-01
    8993.437     -0.280   1.280  5.87034E-01  7.80547E-01 -1.93513E-01
    8993.833      0.116   1.320  5.78547E-01  7.93325E-01 -2.14779E-01
    8994.242      0.525   1.360  5.71600E-01  8.05870E-01 -2.34270E-01
    8994.662      0.946   1.400  5.82253E-01  8.18114E-01 -2.35860E-01
    8995.095      1.378   1.440  6.16800E-01  8.30050E-01 -2.13251E-01
    8995.540      1.823   1.480  6.75008E-01  8.41652E-01 -1.66644E-01
    8995.997      2.281   1.520  7.45898E-01  8.52932E-01 -1.07034E-01
    8996.467      2.750   1.560  8.04083E-01  8.63823E-01 -5.97396E-02
    8996.948      3.232   1.600  8.32658E-01  8.74319E-01 -4.16609E-02
    8997.442      3.725   1.640  8.47345E-01  8.84414E-01 -3.70691E-02
    8997.948      4.231   1.680  8.70975E-01  8.94105E-01 -2.31302E-02
    8998.466      4.749   1.720  9.08496E-01  9.03387E-01  5.10895E-03
    8998.997      5.280   1.760  9.55656E-01  9.12218E-01  4.34384E-02
    8999.539      5.822   1.800  1.00554E+00  9.20614E-01  8.49281E-02
    9000.094      6.377   1.840  1.04611E+00  9.28554E-01  1.17558E-01
    9000.661      6.944   1.880  1.06742E+00  9.36060E-01  1.31362E-01
    9001.240      7.523   1.920  1.07658E+00  9.43112E-01  1.33466E-01
    9001.831      8.114   1.960  1.09304E+00  9.49735E-01  1.43302E-01
    9002.435      8.718   2.000  1.12714E+00  9.55929E-01  1.71214E-01
    9003.050      9.334   2.040  1.17560E+00  9.61678E-01  2.13923E-01
    9003.678      9.961   2.080  1.23148E+00  9.67006E-01  2.64476E-01
    9004.318     10.602   2.120  1.28797E+00  9.71919E-01  3.16052E-01
    9004.971     11.254   2.160  1.33530E+00  9.76424E-01  3.58878E-01
    9005.635     11.918   2.200  1.37024E+00  9.80546E-01  3.89697E-01
    9006.312     12.595   2.240  1.40209E+00  9.84294E-01  4.17800E-01
    9007.001     13.284   2.280  1.41955E+00  9.87674E-01  4.31875E-01
    9007.702     13.985   2.320  1.40034E+00  9.90714E-01  4.09629E-01
    9008.415     14.698   2.360  1.35075E+00  9.93402E-01  3.57343E-01
    9009.140     15.423   2.400  1.29149E+00  9.95808E-01  2.95682E-01
    9009.878     16.161   2.440  1.23472E+00  9.97878E-01  2.36838E-01
    9010.628     16.911   2.480  1.18191E+00  9.99681E-01  1.82228E-01
    9011.390     17.673   2.520  1.13292E+00  1.00123E+00  1.31692E-01
    9012.164     18.447   2.560  1.08879E+00  1.00253E+00  8.62679E-02
    9012.950     19.233   2.600  1.04251E+00  1.00356E+00  3.89475E-02
    9013.749     20.032   2.640  9.82256E-01  1.00441E+00 -2.21527E-02
    9014.560     20.843   2.680  9.27734E-01  1.00505E+00 -7.73169E-02
    9015.383     21.666   2.720  8.99707E-01  1.00550E+00 -1.05791E-01
    9016.218     22.501   2.760  8.89728E-01  1.00580E+00 -1.16069E-01
    9017.065     23.348   2.800  8.88840E-01  1.00592E+00 -1.17076E-01
    9017.925     24.208   2.840  8.92594E-01  1.00592E+00 -1.13330E-01
    9018.796     25.080   2.880  8.98639E-01  1.00579E+00 -1.07148E-01
    9019.680     25.963   2.920  9.05553E-01  1.00555E+00 -9.99970E-02
    9020.576     26.860   2.960  9.12233E-01  1.00520E+00 -9.29676E-02
    9021.485     27.768   3.000  9.17542E-01  1.00477E+00 -8.72234E-02
    9022.405     28.688   3.040  9.20576E-01  1.00425E+00 -8.36746E-02
    9023.338     29.621   3.080  9.20902E-01  1.00368E+00 -8.27805E-02
    9024.283     30.566   3.120  9.18379E-01  1.00307E+00 -8.46872E-02
    9025.240     31.523   3.160  9.13035E-01  1.00239E+00 -8.93503E-02
    9026.209     32.492   3.200  9.05372E-01  1.00169E+00 -9.63161E-02
    9027.191     33.474   3.240  8.96339E-01  1.00096E+00 -1.04618E-01
    9028.184     34.467   3.280  8.86963E-01  1.00022E+00 -1.13254E-01
    9029.190     35.473   3.320  8.78167E-01  9.99472E-01 -1.21305E-01
    9030.208     36.491   3.360  8.70839E-01  9.98725E-01 -1.27886E-01
    9031.238     37.521   3.400  8.65776E-01  9.97980E-01 -1.32203E-01
    9032.281     38.564   3.440  8.63642E-01  9.97237E-01 -1.33595E-01
    9033.335     39.618   3.480  8.65003E-01  9.96522E-01 -1.31519E-01
    9034.402     40.685   3.520  8.70251E-01  9.95816E-01 -1.25565E-01
    9035.481     41.764   3.560  8.79222E-01  9.95141E-01 -1.15919E-01
    9036.572     42.855   3.600  8.91358E-01  9.94480E-01 -1.03122E-01
    9037.676     43.959   3.640  9.05990E-01  9.93876E-01 -8.78861E-02
    9038.791     45.074   3.680  9.22367E-01  9.93291E-01 -7.09240E-02
    9039.919     46.202   3.720  9.39975E-01  9.92766E-01 -5.27911E-02
    9041.059     47.342   3.760  9.58543E-01  9.92281E-01 -3.37381E-02
    9042.211     48.494   3.800  9.77687E-01  9.91815E-01 -1.41277E-02
    9043.375     49.658   3.840  9.96693E-01  9.91412E-01  5.28060E-03
    9044.552     50.835   3.880  1.01456E+00  9.91053E-01  2.35065E-02
    9045.741     52.024   3.920  1.03041E+00  9.90736E-01  3.96721E-02
    9046.941     53.225   3.960  1.04365E+00  9.90483E-01  5.31628E-02
    9048.155     54.438   4.000  1.05418E+00  9.90254E-01  6.39230E-02
    9049.380     55.663   4.040  1.06236E+00  9.90088E-01  7.22741E-02
    9050.617     56.900   4.080  1.06860E+00  9.89967E-01  7.86314E-02
    9051.867     58.150   4.120  1.07322E+00  9.89911E-01  8.33086E-02
    9053.129     59.412   4.160  1.07643E+00  9.89877E-01  8.65540E-02
    9054.403     60.686   4.200  1.07832E+00  9.89904E-01  8.84176E-02
    9055.689     61.972   4.240  1.07868E+00  9.89950E-01  8.87252E-02
    9056.988     63.271   4.280  1.07732E+00  9.90059E-01  8.72565E-02
    9058.298     64.581   4.320  1.07403E+00  9.90209E-01  8.38224E-02
    9059.621     65.904   4.360  1.06887E+00  9.90397E-01  7.84684E-02
    9060.956     67.239   4.400  1.06221E+00  9.90602E-01  7.16031E-02
    9062.303     68.586   4.440  1.05473E+00  9.90864E-01  6.38695E-02
    9063.663     69.946   4.480  1.04693E+00  9.91141E-01  5.57910E-02
    9065.034     71.317   4.520  1.03903E+00  9.91453E-01  4.75782E-02
    9066.418     72.701   4.560  1.03107E+00  9.91798E-01  3.92679E-02
    9067.814     74.097   4.600  1.02314E+00  9.92154E-01  3.09824E-02
    9069.222     75.505   4.640  1.01579E+00  9.92541E-01  2.32484E-02
    9070.643     76.926   4.680  1.00979E+00  9.92958E-01  1.68270E-02
    9072.075     78.358   4.720  1.00567E+00  9.93359E-01  1.23097E-02
    9073.520     79.803   4.760  1.00365E+00  9.93788E-01  9.86025E-03
    9074.977     81.260   4.800  1.00348E+00  9.94241E-01  9.23463E-03
    9076.446     82.729   4.840  1.00459E+00  9.94677E-01  9.90986E-03
    9077.927     84.210   4.880  1.00627E+00  9.95134E-01  1.11364E-02
    9079.421     85.704   4.920  1.00751E+00  9.95570E-01  1.19413E-02
    9080.927     87.210   4.960  1.00732E+00  9.96027E-01  1.12951E-02
    9082.444     88.728   5.000  1.00501E+00  9.96481E-01  8.53297E-03
    9083.975     90.258   5.040  1.00057E+00  9.96909E-01  3.65824E-03
    9085.517     91.800   5.080  9.94568E-01  9.97330E-01 -2.76271E-03
    9087.071     93.354   5.120  9.87786E-01  9.97745E-01 -9.95888E-03
    9088.638     94.921   5.160  9.80883E-01  9.98129E-01 -1.72464E-02
    9090.217     96.500   5.200  9.74532E-01  9.98504E-01 -2.39716E-02
    9091.808     98.091   5.240  9.69378E-01  9.98847E-01 -2.94694E-02
    9093.411     99.694   5.280  9.66036E-01  9.99179E-01 -3.31431E-02
    9095.027    101.310   5.320  9.64728E-01  9.99478E-01 -3.47503E-02
    9096.654    102.937   5.360  9.65231E-01  9.99763E-01 -3.45319E-02
    9098.294    104.577   5.400  9.66926E-01  9.99988E-01 -3.30621E-02
    9099.946    106.229   5.440  9.69303E-01  1.00020E+00 -3.08992E-02
    9101.610    107.893   5.480  9.71890E-01  1.00040E+00 -2.85121E-02
    9103.287    109.570   5.520  9.74197E-01  1.00054E+00 -2.63444E-02
    9104.975    111.258   5.560  9.75751E-01  1.00066E+00 -2.49119E-02
    9106.676    112.959   5.600  9.76023E-01  1.00072E+00 -2.47017E-02
    9108.389    114.672   5.640  9.74761E-01  1.00077E+00 -2.60085E-02
    9110.114    116.397   5.680  9.72014E-01  1.00078E+00 -2.87625E-02
    9111.851    118.135   5.720  9.68204E-01  1.00074E+00 -3.25398E-02
    9113.601    119.884   5.760  9.64058E-01  1.00067E+00 -3.66144E-02
    9115.363    121.646   5.800  9.60417E-01  1.00056E+00 -4.01441E-02
    9117.137    123.420   5.840  9.57987E-01  1.00041E+00 -4.24240E-02
    9118.923    125.206   5.880  9.57076E-01  1.00022E+00 -4.31488E-02
    9120.721    127.004   5.920  9.57636E-01  1.00000E+00 -4.23651E-02
    9122.532    128.815   5.960  9.59522E-01  9.99765E-01 -4.02438E-02
    9124.354    130.637   6.000  9.62595E-01  9.99442E-01 -3.68470E-02
