# # comment:                                                     FEFF 9.9.1  
# # Source:
# # Structure
# # Reduced
# # space
# # abc:
# # angles:
# # sites:
# # POT  SCF 100  7.0000   0, screened core-hole, AFOLP (folp(0)= 1.150)
# # Abs   Z=29 Rmt= 1.270 Rnm= 1.344 K  shell
# # Pot 1 Z=29 Rmt= 1.294 Rnm= 1.359
# # Pot 2 Z=15 Rmt= 0.941 Rnm= 1.159
# # Pot 3 Z=82 Rmt= 1.767 Rnm= 1.827
# # Pot 4 Z= 8 Rmt= 0.913 Rnm= 1.048
# # Gam_ch=1.729E+00 H-L exch Vi= 0.000E+00 Vr= 0.000E+00
# # Mu=-5.743E+00eV kf=2.400E+00 Vint=-1.658E+01eV Rs_int= 1.511
# FMS rfms= 9.0000
# # PATH  Rmax=-1.000,  Keep_limit= 0.00, Heap_limit 0.00  Pwcrit= 2.50%
#  S02=0.950  Temp=   0.00  Debye_temp=   0.00  Global_sig2= 0.00000
#  Energy zero shift, vr, vi    0.00000E+00   0.00000E+00
#  Curved wave amplitude ratio filter   4.000%
#     file         sig2 tot  cw amp ratio   deg  nlegs   reff  inp sig2
#     0/   0 paths used
#  xsedge+ 50, used to normalize mu           2.4751E-04
#  -----------------------------------------------------------------------
#  omega    e    k    mu    mu0     chi     @#
    8983.309     -9.553  -1.000  4.91978E-02  5.48369E-02 -5.63901E-03
    8983.607     -9.254  -0.960  5.26701E-02  5.88852E-02 -6.21512E-03
    8983.894     -8.968  -0.920  5.65326E-02  6.33914E-02 -6.85883E-03
    8984.168     -8.693  -0.880  6.08443E-02  6.84237E-02 -7.57945E-03
    8984.430     -8.431  -0.840  6.56738E-02  7.40617E-02 -8.38791E-03
    8984.680     -8.181  -0.800  7.11006E-02  8.03977E-02 -9.29706E-03
    8984.918     -7.943  -0.760  7.72157E-02  8.75377E-02 -1.03220E-02
    8985.144     -7.718  -0.720  8.41216E-02  9.56018E-02 -1.14802E-02
    8985.357     -7.505  -0.680  9.19309E-02  1.04722E-01 -1.27914E-02
    8985.558     -7.303  -0.640  1.00762E-01  1.15039E-01 -1.42768E-02
    8985.747     -7.114  -0.600  1.10733E-01  1.26690E-01 -1.59573E-02
    8985.924     -6.938  -0.560  1.21942E-01  1.39793E-01 -1.78503E-02
    8986.088     -6.773  -0.520  1.34455E-01  1.54418E-01 -1.99631E-02
    8986.241     -6.621  -0.480  1.48266E-01  1.70552E-01 -2.22855E-02
    8986.381     -6.480  -0.440  1.63271E-01  1.88052E-01 -2.47803E-02
    8986.509     -6.352  -0.400  1.79234E-01  2.06611E-01 -2.73767E-02
    8986.625     -6.237  -0.360  1.95774E-01  2.25745E-01 -2.99714E-02
    8986.729     -6.133  -0.320  2.12386E-01  2.44827E-01 -3.24418E-02
    8986.820     -6.042  -0.280  2.28490E-01  2.63160E-01 -3.46696E-02
    8986.899     -5.962  -0.240  2.43509E-01  2.80074E-01 -3.65659E-02
    8986.966     -5.895  -0.200  2.56926E-01  2.95013E-01 -3.80866E-02
    8987.021     -5.840  -0.160  2.68338E-01  3.07570E-01 -3.92319E-02
    8987.064     -5.798  -0.120  2.77457E-01  3.17489E-01 -4.00323E-02
    8987.094     -5.767  -0.080  2.84097E-01  3.24630E-01 -4.05336E-02
    8987.119     -5.743   0.000  2.89509E-01  3.30364E-01 -4.08554E-02
    8987.174     -5.688   0.120  3.01336E-01  3.43292E-01 -4.19555E-02
    8987.216     -5.645   0.160  3.10676E-01  3.53332E-01 -4.26561E-02
    8987.271     -5.590   0.200  3.22732E-01  3.66114E-01 -4.33815E-02
    8987.338     -5.523   0.240  3.37474E-01  3.81467E-01 -4.39922E-02
    8987.417     -5.444   0.280  3.54777E-01  3.99062E-01 -4.42852E-02
    8987.509     -5.353   0.320  3.74341E-01  4.18406E-01 -4.40647E-02
    8987.612     -5.249   0.360  3.95736E-01  4.38907E-01 -4.31712E-02
    8987.728     -5.133   0.400  4.18380E-01  4.59944E-01 -4.15641E-02
    8987.856     -5.005   0.440  4.41488E-01  4.80950E-01 -3.94612E-02
    8987.996     -4.865   0.480  4.63996E-01  5.01464E-01 -3.74688E-02
    8988.149     -4.713   0.520  4.84475E-01  5.21192E-01 -3.67170E-02
    8988.313     -4.548   0.560  5.01248E-01  5.40023E-01 -3.87753E-02
    8988.490     -4.371   0.600  5.12747E-01  5.57907E-01 -4.51599E-02
    8988.679     -4.182   0.640  5.18268E-01  5.74930E-01 -5.66626E-02
    8988.880     -3.981   0.680  5.18245E-01  5.91178E-01 -7.29333E-02
    8989.094     -3.768   0.720  5.14064E-01  6.06751E-01 -9.26866E-02
    8989.319     -3.542   0.760  5.07321E-01  6.21749E-01 -1.14428E-01
    8989.557     -3.304   0.800  4.98950E-01  6.36285E-01 -1.37335E-01
    8989.807     -3.055   0.840  4.88832E-01  6.50434E-01 -1.61602E-01
    8990.069     -2.792   0.880  4.76524E-01  6.64260E-01 -1.87737E-01
    8990.343     -2.518   0.920  4.62499E-01  6.77855E-01 -2.15356E-01
    8990.630     -2.232   0.960  4.48624E-01  6.91211E-01 -2.42587E-01
    8990.929     -1.933   1.000  4.37810E-01  7.04373E-01 -2.66563E-01
    8991.240     -1.622   1.040  4.32965E-01  7.17357E-01 -2.84392E-01
    8991.563     -1.299   1.080  4.36169E-01  7.30191E-01 -2.94021E-01
    8991.898     -0.964   1.120  4.47895E-01  7.42872E-01 -2.94977E-01
    8992.245     -0.616   1.160  4.66400E-01  7.55376E-01 -2.88976E-01
    8992.605     -0.256   1.200  4.89129E-01  7.67712E-01 -2.78584E-01
    8992.977      0.115   1.240  5.15340E-01  7.79887E-01 -2.64547E-01
    8993.361      0.499   1.280  5.46023E-01  7.91863E-01 -2.45839E-01
    8993.757      0.896   1.320  5.82466E-01  8.03619E-01 -2.21153E-01
    8994.166      1.304   1.360  6.25826E-01  8.15175E-01 -1.89348E-01
    8994.586      1.725   1.400  6.77705E-01  8.26467E-01 -1.48762E-01
    8995.019      2.158   1.440  7.42473E-01  8.37513E-01 -9.50396E-02
    8995.464      2.603   1.480  8.21970E-01  8.48265E-01 -2.62955E-02
    8995.921      3.060   1.520  9.00834E-01  8.58741E-01  4.20927E-02
    8996.391      3.529   1.560  9.52819E-01  8.68917E-01  8.39023E-02
    8996.872      4.011   1.600  9.79157E-01  8.78744E-01  1.00412E-01
    8997.366      4.505   1.640  1.00845E+00  8.88241E-01  1.20211E-01
    8997.872      5.010   1.680  1.04949E+00  8.97381E-01  1.52110E-01
    8998.390      5.529   1.720  1.07867E+00  9.06161E-01  1.72510E-01
    8998.920      6.059   1.760  1.07847E+00  9.14579E-01  1.63892E-01
    8999.463      6.602   1.800  1.06706E+00  9.22593E-01  1.44471E-01
    9000.018      7.156   1.840  1.07367E+00  9.30241E-01  1.43430E-01
    9000.585      7.723   1.880  1.10513E+00  9.37499E-01  1.67627E-01
    9001.164      8.302   1.920  1.14895E+00  9.44349E-01  2.04602E-01
    9001.755      8.894   1.960  1.19056E+00  9.50812E-01  2.39743E-01
    9002.359      9.497   2.000  1.22037E+00  9.56888E-01  2.63480E-01
    9002.974     10.113   2.040  1.23928E+00  9.62560E-01  2.76721E-01
    9003.602     10.741   2.080  1.25387E+00  9.67851E-01  2.86018E-01
    9004.242     11.381   2.120  1.26715E+00  9.72763E-01  2.94387E-01
    9004.895     12.033   2.160  1.27758E+00  9.77300E-01  3.00281E-01
    9005.559     12.697   2.200  1.28379E+00  9.81468E-01  3.02319E-01
    9006.236     13.374   2.240  1.28379E+00  9.85293E-01  2.98499E-01
    9006.924     14.063   2.280  1.27362E+00  9.88758E-01  2.84866E-01
    9007.626     14.764   2.320  1.25267E+00  9.91910E-01  2.60761E-01
    9008.339     15.477   2.360  1.22432E+00  9.94717E-01  2.29602E-01
    9009.064     16.203   2.400  1.19173E+00  9.97223E-01  1.94504E-01
    9009.802     16.940   2.440  1.15755E+00  9.99437E-01  1.58112E-01
    9010.552     17.690   2.480  1.12518E+00  1.00137E+00  1.23819E-01
    9011.314     18.452   2.520  1.09627E+00  1.00303E+00  9.32307E-02
    9012.088     19.226   2.560  1.07126E+00  1.00443E+00  6.68282E-02
    9012.874     20.013   2.600  1.04889E+00  1.00561E+00  4.32823E-02
    9013.673     20.811   2.640  1.02767E+00  1.00654E+00  2.11209E-02
    9014.483     21.622   2.680  1.00782E+00  1.00727E+00  5.43163E-04
    9015.306     22.445   2.720  9.88435E-01  1.00780E+00 -1.93652E-02
    9016.142     23.280   2.760  9.67381E-01  1.00815E+00 -4.07721E-02
    9016.989     24.127   2.800  9.47129E-01  1.00834E+00 -6.12099E-02
    9017.848     24.987   2.840  9.28494E-01  1.00836E+00 -7.98698E-02
    9018.720     25.859   2.880  9.09315E-01  1.00824E+00 -9.89204E-02
    9019.604     26.743   2.920  8.90313E-01  1.00800E+00 -1.17688E-01
    9020.500     27.639   2.960  8.73036E-01  1.00763E+00 -1.34590E-01
    9021.408     28.547   3.000  8.58402E-01  1.00718E+00 -1.48777E-01
    9022.329     29.468   3.040  8.46658E-01  1.00662E+00 -1.59964E-01
    9023.262     30.400   3.080  8.37659E-01  1.00598E+00 -1.68326E-01
    9024.207     31.345   3.120  8.31577E-01  1.00527E+00 -1.73694E-01
    9025.164     32.302   3.160  8.28862E-01  1.00453E+00 -1.75665E-01
    9026.133     33.271   3.200  8.29821E-01  1.00372E+00 -1.73895E-01
    9027.114     34.253   3.240  8.34856E-01  1.00286E+00 -1.68007E-01
    9028.108     35.247   3.280  8.44034E-01  1.00197E+00 -1.57940E-01
    9029.114     36.252   3.320  8.56155E-01  1.00107E+00 -1.44916E-01
    9030.132     37.270   3.360  8.69798E-01  1.00014E+00 -1.30343E-01
    9031.162     38.301   3.400  8.84130E-01  9.99228E-01 -1.15098E-01
    9032.204     39.343   3.440  8.98906E-01  9.98314E-01 -9.94075E-02
    9033.259     40.398   3.480  9.14262E-01  9.97380E-01 -8.31175E-02
    9034.326     41.464   3.520  9.30328E-01  9.96471E-01 -6.61432E-02
    9035.405     42.543   3.560  9.46820E-01  9.95592E-01 -4.87728E-02
    9036.496     43.635   3.600  9.63213E-01  9.94724E-01 -3.15112E-02
    9037.599     44.738   3.640  9.79219E-01  9.93889E-01 -1.46704E-02
    9038.715     45.853   3.680  9.94625E-01  9.93090E-01  1.53535E-03
    9039.843     46.981   3.720  1.00918E+00  9.92326E-01  1.68504E-02
    9040.983     48.121   3.760  1.02256E+00  9.91581E-01  3.09827E-02
    9042.135     49.273   3.800  1.03450E+00  9.90897E-01  4.36026E-02
    9043.299     50.438   3.840  1.04452E+00  9.90255E-01  5.42624E-02
    9044.476     51.614   3.880  1.05218E+00  9.89654E-01  6.25233E-02
    9045.664     52.803   3.920  1.05720E+00  9.89097E-01  6.81053E-02
    9046.865     54.004   3.960  1.05962E+00  9.88606E-01  7.10172E-02
    9048.078     55.217   4.000  1.05978E+00  9.88160E-01  7.16234E-02
    9049.304     56.442   4.040  1.05845E+00  9.87756E-01  7.06937E-02
    9050.541     57.680   4.080  1.05644E+00  9.87398E-01  6.90413E-02
    9051.791     58.929   4.120  1.05442E+00  9.87107E-01  6.73165E-02
    9053.053     60.191   4.160  1.05270E+00  9.86861E-01  6.58399E-02
    9054.327     61.465   4.200  1.05125E+00  9.86681E-01  6.45651E-02
    9055.613     62.752   4.240  1.04956E+00  9.86524E-01  6.30403E-02
    9056.911     64.050   4.280  1.04701E+00  9.86433E-01  6.05768E-02
    9058.222     65.361   4.320  1.04302E+00  9.86386E-01  5.66341E-02
    9059.545     66.683   4.360  1.03748E+00  9.86403E-01  5.10760E-02
    9060.880     68.018   4.400  1.03075E+00  9.86441E-01  4.43107E-02
    9062.227     69.366   4.440  1.02370E+00  9.86541E-01  3.71614E-02
    9063.587     70.725   4.480  1.01721E+00  9.86661E-01  3.05526E-02
    9064.958     72.097   4.520  1.01203E+00  9.86841E-01  2.51888E-02
    9066.342     73.480   4.560  1.00844E+00  9.87059E-01  2.13761E-02
    9067.738     74.876   4.600  1.00628E+00  9.87293E-01  1.89924E-02
    9069.146     76.285   4.640  1.00509E+00  9.87561E-01  1.75286E-02
    9070.566     77.705   4.680  1.00420E+00  9.87865E-01  1.63396E-02
    9071.999     79.138   4.720  1.00310E+00  9.88203E-01  1.48930E-02
    9073.444     80.582   4.760  1.00144E+00  9.88552E-01  1.28901E-02
    9074.901     82.039   4.800  9.99323E-01  9.88930E-01  1.03932E-02
    9076.370     83.508   4.840  9.97029E-01  9.89317E-01  7.71205E-03
    9077.851     84.990   4.880  9.94885E-01  9.89733E-01  5.15194E-03
    9079.345     86.483   4.920  9.93031E-01  9.90153E-01  2.87826E-03
    9080.850     87.989   4.960  9.91434E-01  9.90574E-01  8.60313E-04
    9082.368     89.507   5.000  9.89940E-01  9.90995E-01 -1.05504E-03
    9083.898     91.037   5.040  9.88306E-01  9.91418E-01 -3.11171E-03
    9085.441     92.579   5.080  9.86189E-01  9.91841E-01 -5.65182E-03
    9086.995     94.134   5.120  9.83253E-01  9.92284E-01 -9.03123E-03
    9088.562     95.700   5.160  9.79218E-01  9.92701E-01 -1.34825E-02
    9090.141     97.279   5.200  9.74106E-01  9.93090E-01 -1.89843E-02
    9091.732     98.870   5.240  9.68207E-01  9.93494E-01 -2.52869E-02
    9093.335    100.473   5.280  9.61861E-01  9.93868E-01 -3.20073E-02
    9094.950    102.089   5.320  9.55525E-01  9.94211E-01 -3.86867E-02
    9096.578    103.716   5.360  9.49698E-01  9.94544E-01 -4.48456E-02
    9098.218    105.356   5.400  9.44900E-01  9.94864E-01 -4.99648E-02
    9099.870    107.008   5.440  9.41547E-01  9.95129E-01 -5.35820E-02
    9101.534    108.673   5.480  9.39980E-01  9.95381E-01 -5.54009E-02
    9103.210    110.349   5.520  9.40161E-01  9.95620E-01 -5.54592E-02
    9104.899    112.037   5.560  9.41667E-01  9.95799E-01 -5.41314E-02
    9106.600    113.738   5.600  9.43999E-01  9.95961E-01 -5.19614E-02
    9108.313    115.451   5.640  9.46689E-01  9.96062E-01 -4.93724E-02
    9110.038    117.176   5.680  9.49687E-01  9.96146E-01 -4.64598E-02
    9111.775    118.914   5.720  9.53199E-01  9.96194E-01 -4.29943E-02
    9113.525    120.663   5.760  9.57602E-01  9.96202E-01 -3.86005E-02
    9115.287    122.425   5.800  9.63189E-01  9.96172E-01 -3.29827E-02
    9117.060    124.199   5.840  9.69999E-01  9.96101E-01 -2.61026E-02
    9118.847    125.985   5.880  9.77778E-01  9.95992E-01 -1.82137E-02
    9120.645    127.783   5.920  9.86062E-01  9.95844E-01 -9.78276E-03
    9122.455    129.594   5.960  9.94274E-01  9.95655E-01 -1.38151E-03
    9124.278    131.417   6.000  1.00212E+00  9.95400E-01  6.71753E-03
