# # comment:                                                     FEFF 9.9.1  
# # Source:
# # Structure
# # Reduced
# # space
# # abc:
# # angles:
# # sites:
# # POT  SCF 100  7.0000   0, screened core-hole, AFOLP (folp(0)= 1.150)
# # Abs   Z=29 Rmt= 1.212 Rnm= 1.332 K  shell
# # Pot 1 Z=29 Rmt= 1.171 Rnm= 1.305
# # Pot 2 Z= 8 Rmt= 0.998 Rnm= 1.116
# # Pot 3 Z= 9 Rmt= 1.039 Rnm= 1.120
# # Gam_ch=1.729E+00 H-L exch Vi= 0.000E+00 Vr= 0.000E+00
# # Mu=-6.504E+00eV kf=2.055E+00 Vint=-1.322E+01eV Rs_int= 1.765
# FMS rfms= 9.0000
# # PATH  Rmax=-1.000,  Keep_limit= 0.00, Heap_limit 0.00  Pwcrit= 2.50%
#  S02=0.950  Temp=   0.00  Debye_temp=   0.00  Global_sig2= 0.00000
#  Energy zero shift, vr, vi    0.00000E+00   0.00000E+00
#  Curved wave amplitude ratio filter   4.000%
#     file         sig2 tot  cw amp ratio   deg  nlegs   reff  inp sig2
#     0/   0 paths used
#  xsedge+ 50, used to normalize mu           2.4232E-04
#  -----------------------------------------------------------------------
#  omega    e    k    mu    mu0     chi     @#
    8983.295    -10.314  -1.000  3.35909E-02  5.51138E-02 -2.15229E-02
    8983.594    -10.015  -0.960  3.49667E-02  5.90615E-02 -2.40948E-02
    8983.880     -9.728  -0.920  3.64043E-02  6.34381E-02 -2.70338E-02
    8984.155     -9.454  -0.880  3.79067E-02  6.83055E-02 -3.03988E-02
    8984.417     -9.192  -0.840  3.94769E-02  7.37354E-02 -3.42585E-02
    8984.667     -8.942  -0.800  4.11184E-02  7.98106E-02 -3.86923E-02
    8984.904     -8.704  -0.760  4.28346E-02  8.66261E-02 -4.37915E-02
    8985.130     -8.479  -0.720  4.46295E-02  9.42888E-02 -4.96593E-02
    8985.343     -8.265  -0.680  4.65067E-02  1.02916E-01 -5.64095E-02
    8985.544     -8.064  -0.640  4.84694E-02  1.12632E-01 -6.41623E-02
    8985.733     -7.875  -0.600  5.05199E-02  1.23556E-01 -7.30364E-02
    8985.910     -7.698  -0.560  5.26581E-02  1.35793E-01 -8.31345E-02
    8986.075     -7.534  -0.520  5.48796E-02  1.49400E-01 -9.45209E-02
    8986.227     -7.382  -0.480  5.71737E-02  1.64364E-01 -1.07190E-01
    8986.367     -7.241  -0.440  5.95206E-02  1.80552E-01 -1.21032E-01
    8986.495     -7.113  -0.400  6.18888E-02  1.97688E-01 -1.35800E-01
    8986.611     -6.997  -0.360  6.42353E-02  2.15337E-01 -1.51102E-01
    8986.715     -6.894  -0.320  6.65079E-02  2.32933E-01 -1.66425E-01
    8986.806     -6.802  -0.280  6.86502E-02  2.49847E-01 -1.81197E-01
    8986.886     -6.723  -0.240  7.06085E-02  2.65473E-01 -1.94865E-01
    8986.953     -6.656  -0.200  7.23369E-02  2.79298E-01 -2.06961E-01
    8987.008     -6.601  -0.160  7.37990E-02  2.90942E-01 -2.17143E-01
    8987.050     -6.559  -0.120  7.49678E-02  3.00159E-01 -2.25191E-01
    8987.081     -6.528  -0.080  7.58239E-02  3.06806E-01 -2.30983E-01
    8987.105     -6.504   0.000  7.65373E-02  3.12153E-01 -2.35616E-01
    8987.160     -6.449   0.120  7.81728E-02  3.24208E-01 -2.46035E-01
    8987.203     -6.406   0.160  7.94122E-02  3.33622E-01 -2.54209E-01
    8987.257     -6.351   0.200  8.09754E-02  3.45648E-01 -2.64673E-01
    8987.324     -6.284   0.240  8.28844E-02  3.60172E-01 -2.77287E-01
    8987.404     -6.205   0.280  8.51356E-02  3.76920E-01 -2.91785E-01
    8987.495     -6.114   0.320  8.77131E-02  3.95516E-01 -3.07803E-01
    8987.599     -6.010   0.360  9.06551E-02  4.15507E-01 -3.24852E-01
    8987.715     -5.894   0.400  9.39357E-02  4.36320E-01 -3.42385E-01
    8987.843     -5.766   0.440  9.76378E-02  4.57511E-01 -3.59874E-01
    8987.983     -5.626   0.480  1.01835E-01  4.78717E-01 -3.76882E-01
    8988.135     -5.473   0.520  1.06584E-01  4.99642E-01 -3.93058E-01
    8988.300     -5.309   0.560  1.12087E-01  5.20218E-01 -4.08131E-01
    8988.477     -5.132   0.600  1.18494E-01  5.40367E-01 -4.21873E-01
    8988.666     -4.943   0.640  1.26032E-01  5.60133E-01 -4.34101E-01
    8988.867     -4.742   0.680  1.34906E-01  5.79573E-01 -4.44667E-01
    8989.080     -4.529   0.720  1.45244E-01  5.98730E-01 -4.53485E-01
    8989.306     -4.303   0.760  1.57131E-01  6.17667E-01 -4.60536E-01
    8989.543     -4.065   0.800  1.70606E-01  6.36437E-01 -4.65830E-01
    8989.793     -3.815   0.840  1.86010E-01  6.55059E-01 -4.69049E-01
    8990.055     -3.553   0.880  2.04358E-01  6.73559E-01 -4.69200E-01
    8990.330     -3.279   0.920  2.27312E-01  6.91908E-01 -4.64596E-01
    8990.616     -2.992   0.960  2.56895E-01  7.10130E-01 -4.53234E-01
    8990.915     -2.694   1.000  2.94463E-01  7.28174E-01 -4.33710E-01
    8991.226     -2.383   1.040  3.39312E-01  7.46003E-01 -4.06690E-01
    8991.549     -2.060   1.080  3.88189E-01  7.63614E-01 -3.75425E-01
    8991.884     -1.724   1.120  4.38121E-01  7.80940E-01 -3.42819E-01
    8992.232     -1.377   1.160  4.90195E-01  7.97926E-01 -3.07730E-01
    8992.591     -1.017   1.200  5.45796E-01  8.14537E-01 -2.68740E-01
    8992.963     -0.645   1.240  5.99619E-01  8.30716E-01 -2.31097E-01
    8993.347     -0.261   1.280  6.41747E-01  8.46408E-01 -2.04661E-01
    8993.744      0.135   1.320  6.65456E-01  8.61593E-01 -1.96137E-01
    8994.152      0.543   1.360  6.73194E-01  8.76215E-01 -2.03020E-01
    8994.573      0.964   1.400  6.78035E-01  8.90239E-01 -2.12204E-01
    8995.005      1.397   1.440  6.98166E-01  9.03611E-01 -2.05445E-01
    8995.450      1.842   1.480  7.45881E-01  9.16341E-01 -1.70459E-01
    8995.908      2.299   1.520  8.19309E-01  9.28378E-01 -1.09069E-01
    8996.377      2.768   1.560  9.03333E-01  9.39696E-01 -3.63627E-02
    8996.859      3.250   1.600  9.82993E-01  9.50331E-01  3.26619E-02
    8997.352      3.744   1.640  1.06271E+00  9.60221E-01  1.02486E-01
    8997.858      4.250   1.680  1.16151E+00  9.69386E-01  1.92122E-01
    8998.376      4.768   1.720  1.28091E+00  9.77850E-01  3.03063E-01
    8998.907      5.298   1.760  1.39961E+00  9.85600E-01  4.14007E-01
    8999.449      5.841   1.800  1.49776E+00  9.92640E-01  5.05117E-01
    9000.004      6.395   1.840  1.56927E+00  9.99003E-01  5.70265E-01
    9000.571      6.962   1.880  1.60749E+00  1.00472E+00  6.02773E-01
    9001.150      7.541   1.920  1.60507E+00  1.00978E+00  5.95298E-01
    9001.741      8.133   1.960  1.57411E+00  1.01424E+00  5.59874E-01
    9002.345      8.736   2.000  1.53463E+00  1.01811E+00  5.16526E-01
    9002.961      9.352   2.040  1.48491E+00  1.02141E+00  4.63499E-01
    9003.589      9.980   2.080  1.41510E+00  1.02422E+00  3.90882E-01
    9004.229     10.620   2.120  1.32690E+00  1.02651E+00  3.00394E-01
    9004.881     11.272   2.160  1.24694E+00  1.02836E+00  2.18583E-01
    9005.545     11.937   2.200  1.19160E+00  1.02976E+00  1.61842E-01
    9006.222     12.613   2.240  1.13920E+00  1.03077E+00  1.08424E-01
    9006.911     13.302   2.280  1.07213E+00  1.03142E+00  4.07120E-02
    9007.612     14.003   2.320  1.00572E+00  1.03173E+00 -2.60111E-02
    9008.325     14.716   2.360  9.63939E-01  1.03174E+00 -6.77977E-02
    9009.051     15.442   2.400  9.54070E-01  1.03146E+00 -7.73934E-02
    9009.788     16.179   2.440  9.68745E-01  1.03096E+00 -6.22164E-02
    9010.538     16.929   2.480  1.00124E+00  1.03023E+00 -2.89861E-02
    9011.300     17.691   2.520  1.03150E+00  1.02931E+00  2.19255E-03
    9012.074     18.465   2.560  1.04986E+00  1.02823E+00  2.16365E-02
    9012.861     19.252   2.600  1.05472E+00  1.02701E+00  2.77120E-02
    9013.659     20.050   2.640  1.04936E+00  1.02564E+00  2.37129E-02
    9014.470     20.861   2.680  1.03814E+00  1.02421E+00  1.39337E-02
    9015.293     21.684   2.720  1.02442E+00  1.02267E+00  1.74580E-03
    9016.128     22.519   2.760  1.00981E+00  1.02108E+00 -1.12662E-02
    9016.975     23.367   2.800  9.95328E-01  1.01947E+00 -2.41387E-02
    9017.835     24.226   2.840  9.81632E-01  1.01780E+00 -3.61651E-02
    9018.707     25.098   2.880  9.68915E-01  1.01614E+00 -4.72256E-02
    9019.590     25.982   2.920  9.56841E-01  1.01446E+00 -5.76222E-02
    9020.487     26.878   2.960  9.45204E-01  1.01281E+00 -6.76073E-02
    9021.395     27.786   3.000  9.34110E-01  1.01117E+00 -7.70617E-02
    9022.315     28.707   3.040  9.23453E-01  1.00959E+00 -8.61382E-02
    9023.248     29.639   3.080  9.12816E-01  1.00805E+00 -9.52379E-02
    9024.193     30.584   3.120  9.01962E-01  1.00656E+00 -1.04599E-01
    9025.150     31.541   3.160  8.91033E-01  1.00512E+00 -1.14084E-01
    9026.119     32.511   3.200  8.80539E-01  1.00375E+00 -1.23210E-01
    9027.101     33.492   3.240  8.71314E-01  1.00246E+00 -1.31145E-01
    9028.094     34.486   3.280  8.64405E-01  1.00125E+00 -1.36845E-01
    9029.100     35.491   3.320  8.61083E-01  1.00015E+00 -1.39062E-01
    9030.118     36.510   3.360  8.61959E-01  9.99104E-01 -1.37144E-01
    9031.148     37.540   3.400  8.67452E-01  9.98169E-01 -1.30717E-01
    9032.191     38.582   3.440  8.77235E-01  9.97300E-01 -1.20065E-01
    9033.245     39.637   3.480  8.90554E-01  9.96561E-01 -1.06008E-01
    9034.312     40.704   3.520  9.05996E-01  9.95890E-01 -8.98943E-02
    9035.391     41.783   3.560  9.22256E-01  9.95329E-01 -7.30735E-02
    9036.482     42.874   3.600  9.38330E-01  9.94880E-01 -5.65505E-02
    9037.586     43.977   3.640  9.53722E-01  9.94521E-01 -4.07987E-02
    9038.701     45.093   3.680  9.68305E-01  9.94250E-01 -2.59450E-02
    9039.829     46.220   3.720  9.82136E-01  9.94090E-01 -1.19541E-02
    9040.969     47.360   3.760  9.95104E-01  9.94016E-01  1.08801E-03
    9042.121     48.512   3.800  1.00689E+00  9.94030E-01  1.28625E-02
    9043.286     49.677   3.840  1.01713E+00  9.94151E-01  2.29803E-02
    9044.462     50.853   3.880  1.02563E+00  9.94335E-01  3.12992E-02
    9045.651     52.042   3.920  1.03255E+00  9.94623E-01  3.79283E-02
    9046.852     53.243   3.960  1.03816E+00  9.94993E-01  4.31700E-02
    9048.065     54.456   4.000  1.04288E+00  9.95444E-01  4.74332E-02
    9049.290     55.681   4.040  1.04707E+00  9.95949E-01  5.11239E-02
    9050.528     56.919   4.080  1.05101E+00  9.96531E-01  5.44746E-02
    9051.777     58.169   4.120  1.05465E+00  9.97189E-01  5.74657E-02
    9053.039     59.430   4.160  1.05772E+00  9.97919E-01  5.97975E-02
    9054.313     60.704   4.200  1.05963E+00  9.98698E-01  6.09365E-02
    9055.599     61.991   4.240  1.05992E+00  9.99520E-01  6.04024E-02
    9056.898     63.289   4.280  1.05835E+00  1.00038E+00  5.79631E-02
    9058.208     64.600   4.320  1.05501E+00  1.00129E+00  5.37201E-02
    9059.531     65.923   4.360  1.05030E+00  1.00223E+00  4.80646E-02
    9060.866     67.258   4.400  1.04482E+00  1.00321E+00  4.16051E-02
    9062.214     68.605   4.440  1.03930E+00  1.00423E+00  3.50693E-02
    9063.573     69.964   4.480  1.03452E+00  1.00525E+00  2.92725E-02
    9064.945     71.336   4.520  1.03130E+00  1.00628E+00  2.50229E-02
    9066.328     72.720   4.560  1.03037E+00  1.00733E+00  2.30398E-02
    9067.724     74.116   4.600  1.03209E+00  1.00839E+00  2.36991E-02
    9069.132     75.524   4.640  1.03618E+00  1.00942E+00  2.67612E-02
    9070.553     76.944   4.680  1.04178E+00  1.01047E+00  3.13186E-02
    9071.985     78.377   4.720  1.04756E+00  1.01149E+00  3.60729E-02
    9073.430     79.821   4.760  1.05234E+00  1.01250E+00  3.98383E-02
    9074.887     81.278   4.800  1.05543E+00  1.01348E+00  4.19542E-02
    9076.356     82.747   4.840  1.05681E+00  1.01444E+00  4.23660E-02
    9077.838     84.229   4.880  1.05680E+00  1.01537E+00  4.14298E-02
    9079.331     85.722   4.920  1.05586E+00  1.01623E+00  3.96334E-02
    9080.837     87.228   4.960  1.05441E+00  1.01707E+00  3.73403E-02
    9082.355     88.746   5.000  1.05253E+00  1.01787E+00  3.46592E-02
    9083.885     90.276   5.040  1.05006E+00  1.01863E+00  3.14328E-02
    9085.427     91.818   5.080  1.04662E+00  1.01931E+00  2.73028E-02
    9086.981     93.373   5.120  1.04174E+00  1.01995E+00  2.17852E-02
    9088.548     94.939   5.160  1.03494E+00  1.02054E+00  1.44035E-02
    9090.127     96.518   5.200  1.02599E+00  1.02106E+00  4.92832E-03
    9091.718     98.109   5.240  1.01510E+00  1.02152E+00 -6.42587E-03
    9093.321     99.713   5.280  1.00296E+00  1.02191E+00 -1.89495E-02
    9094.937    101.328   5.320  9.90581E-01  1.02222E+00 -3.16406E-02
    9096.564    102.956   5.360  9.78908E-01  1.02248E+00 -4.35743E-02
    9098.204    104.595   5.400  9.68516E-01  1.02269E+00 -5.41744E-02
    9099.856    106.247   5.440  9.59575E-01  1.02280E+00 -6.32238E-02
    9101.520    107.912   5.480  9.52209E-01  1.02285E+00 -7.06441E-02
    9103.197    109.588   5.520  9.46603E-01  1.02285E+00 -7.62516E-02
    9104.885    111.277   5.560  9.43162E-01  1.02276E+00 -7.95975E-02
    9106.586    112.977   5.600  9.42409E-01  1.02263E+00 -8.02235E-02
    9108.299    114.690   5.640  9.44380E-01  1.02241E+00 -7.80285E-02
    9110.024    116.416   5.680  9.48822E-01  1.02213E+00 -7.33126E-02
    9111.762    118.153   5.720  9.55320E-01  1.02181E+00 -6.64917E-02
    9113.511    119.902   5.760  9.63498E-01  1.02142E+00 -5.79215E-02
    9115.273    121.664   5.800  9.73072E-01  1.02098E+00 -4.79064E-02
    9117.047    123.438   5.840  9.83791E-01  1.02047E+00 -3.66780E-02
    9118.833    125.224   5.880  9.95465E-01  1.01992E+00 -2.44537E-02
    9120.631    127.023   5.920  1.00759E+00  1.01933E+00 -1.17391E-02
    9122.442    128.833   5.960  1.01912E+00  1.01871E+00  4.13987E-04
    9124.264    130.656   6.000  1.02871E+00  1.01801E+00  1.06918E-02
