# # comment:                                                     FEFF 9.9.1  
# # Source:
# # Structure
# # Reduced
# # space
# # abc:
# # angles:
# # sites:
# # POT  SCF 100  7.0000   0, screened core-hole, AFOLP (folp(0)= 1.150)
# # Abs   Z=29 Rmt= 1.218 Rnm= 1.321 K  shell
# # Pot 1 Z=29 Rmt= 1.218 Rnm= 1.321
# # Pot 2 Z=78 Rmt= 1.341 Rnm= 1.466
# # Pot 3 Z= 8 Rmt= 1.023 Rnm= 1.107
# # Gam_ch=1.729E+00 H-L exch Vi= 0.000E+00 Vr= 0.000E+00
# # Mu=-6.596E+00eV kf=2.168E+00 Vint=-1.500E+01eV Rs_int= 1.673
# FMS rfms= 9.0000
# # PATH  Rmax=-1.000,  Keep_limit= 0.00, Heap_limit 0.00  Pwcrit= 2.50%
#  S02=0.950  Temp=   0.00  Debye_temp=   0.00  Global_sig2= 0.00000
#  Energy zero shift, vr, vi    0.00000E+00   0.00000E+00
#  Curved wave amplitude ratio filter   4.000%
#     file         sig2 tot  cw amp ratio   deg  nlegs   reff  inp sig2
#     0/   0 paths used
#  xsedge+ 50, used to normalize mu           2.4423E-04
#  -----------------------------------------------------------------------
#  omega    e    k    mu    mu0     chi     @#
    8983.521    -10.406  -1.000  4.09470E-02  5.63144E-02 -1.53674E-02
    8983.820    -10.107  -0.960  4.33398E-02  6.04474E-02 -1.71076E-02
    8984.106     -9.821  -0.920  4.59465E-02  6.50418E-02 -1.90952E-02
    8984.380     -9.546  -0.880  4.87925E-02  7.01654E-02 -2.13729E-02
    8984.643     -9.284  -0.840  5.19063E-02  7.58974E-02 -2.39911E-02
    8984.893     -9.034  -0.800  5.53193E-02  8.23292E-02 -2.70100E-02
    8985.130     -8.797  -0.760  5.90659E-02  8.95659E-02 -3.05000E-02
    8985.356     -8.571  -0.720  6.31831E-02  9.77260E-02 -3.45429E-02
    8985.569     -8.358  -0.680  6.77090E-02  1.06940E-01 -3.92313E-02
    8985.770     -8.157  -0.640  7.26810E-02  1.17346E-01 -4.46653E-02
    8985.959     -7.968  -0.600  7.81330E-02  1.29080E-01 -5.09467E-02
    8986.136     -7.791  -0.560  8.40896E-02  1.42256E-01 -5.81660E-02
    8986.301     -7.626  -0.520  9.05598E-02  1.56943E-01 -6.63830E-02
    8986.453     -7.474  -0.480  9.75271E-02  1.73126E-01 -7.55988E-02
    8986.593     -7.334  -0.440  1.04939E-01  1.90663E-01 -8.57235E-02
    8986.721     -7.206  -0.400  1.12700E-01  2.09249E-01 -9.65492E-02
    8986.837     -7.090  -0.360  1.20662E-01  2.28404E-01 -1.07743E-01
    8986.941     -6.986  -0.320  1.28633E-01  2.47507E-01 -1.18874E-01
    8987.032     -6.895  -0.280  1.36391E-01  2.65864E-01 -1.29473E-01
    8987.111     -6.815  -0.240  1.43699E-01  2.82811E-01 -1.39112E-01
    8987.178     -6.748  -0.200  1.50327E-01  2.97790E-01 -1.47462E-01
    8987.233     -6.693  -0.160  1.56066E-01  3.10392E-01 -1.54325E-01
    8987.276     -6.651  -0.120  1.60738E-01  3.20355E-01 -1.59617E-01
    8987.307     -6.620  -0.080  1.64202E-01  3.27534E-01 -1.63332E-01
    8987.331     -6.596   0.000  1.67100E-01  3.33303E-01 -1.66202E-01
    8987.386     -6.541   0.120  1.73745E-01  3.46301E-01 -1.72555E-01
    8987.428     -6.498   0.160  1.78997E-01  3.56416E-01 -1.77419E-01
    8987.483     -6.444   0.200  1.85952E-01  3.69328E-01 -1.83376E-01
    8987.550     -6.376   0.240  1.94777E-01  3.84865E-01 -1.90088E-01
    8987.630     -6.297   0.280  2.05698E-01  4.02721E-01 -1.97023E-01
    8987.721     -6.206   0.320  2.18967E-01  4.22428E-01 -2.03460E-01
    8987.825     -6.102   0.360  2.34904E-01  4.43428E-01 -2.08524E-01
    8987.940     -5.986   0.400  2.53864E-01  4.65106E-01 -2.11242E-01
    8988.069     -5.858   0.440  2.76190E-01  4.86940E-01 -2.10751E-01
    8988.209     -5.718   0.480  3.01985E-01  5.08469E-01 -2.06483E-01
    8988.361     -5.566   0.520  3.30940E-01  5.29443E-01 -1.98502E-01
    8988.526     -5.401   0.560  3.61787E-01  5.49676E-01 -1.87889E-01
    8988.702     -5.224   0.600  3.92055E-01  5.69153E-01 -1.77099E-01
    8988.891     -5.035   0.640  4.18107E-01  5.87953E-01 -1.69846E-01
    8989.093     -4.834   0.680  4.36242E-01  6.06086E-01 -1.69844E-01
    8989.306     -4.621   0.720  4.45030E-01  6.23703E-01 -1.78673E-01
    8989.532     -4.395   0.760  4.46360E-01  6.40850E-01 -1.94490E-01
    8989.769     -4.158   0.800  4.44199E-01  6.57602E-01 -2.13403E-01
    8990.019     -3.908   0.840  4.41618E-01  6.74042E-01 -2.32424E-01
    8990.281     -3.645   0.880  4.38390E-01  6.90198E-01 -2.51808E-01
    8990.556     -3.371   0.920  4.30510E-01  7.06103E-01 -2.75594E-01
    8990.842     -3.085   0.960  4.12964E-01  7.21761E-01 -3.08797E-01
    8991.141     -2.786   1.000  3.86264E-01  7.37201E-01 -3.50937E-01
    8991.452     -2.475   1.040  3.57939E-01  7.52405E-01 -3.94466E-01
    8991.775     -2.152   1.080  3.35787E-01  7.67366E-01 -4.31579E-01
    8992.110     -1.817   1.120  3.23566E-01  7.82051E-01 -4.58486E-01
    8992.458     -1.469   1.160  3.22431E-01  7.96444E-01 -4.74013E-01
    8992.817     -1.110   1.200  3.32509E-01  8.10546E-01 -4.78038E-01
    8993.189     -0.738   1.240  3.53228E-01  8.24290E-01 -4.71062E-01
    8993.573     -0.354   1.280  3.83627E-01  8.37692E-01 -4.54065E-01
    8993.969      0.043   1.320  4.21173E-01  8.50684E-01 -4.29511E-01
    8994.378      0.451   1.360  4.61023E-01  8.63240E-01 -4.02216E-01
    8994.798      0.872   1.400  4.98798E-01  8.75373E-01 -3.76574E-01
    8995.231      1.304   1.440  5.35688E-01  8.87034E-01 -3.51346E-01
    8995.676      1.749   1.480  5.78462E-01  8.98216E-01 -3.19755E-01
    8996.133      2.207   1.520  6.35562E-01  9.08876E-01 -2.73314E-01
    8996.603      2.676   1.560  7.13008E-01  9.19007E-01 -2.05999E-01
    8997.084      3.158   1.600  8.11984E-01  9.28627E-01 -1.16642E-01
    8997.578      3.651   1.640  9.35669E-01  9.37694E-01 -2.02433E-03
    8998.084      4.157   1.680  1.09102E+00  9.46226E-01  1.44793E-01
    8998.602      4.676   1.720  1.26839E+00  9.54205E-01  3.14188E-01
    8999.133      5.206   1.760  1.42469E+00  9.61633E-01  4.63056E-01
    8999.675      5.748   1.800  1.52148E+00  9.68533E-01  5.52946E-01
    9000.230      6.303   1.840  1.56006E+00  9.74890E-01  5.85170E-01
    9000.797      6.870   1.880  1.55636E+00  9.80731E-01  5.75629E-01
    9001.376      7.449   1.920  1.52855E+00  9.86042E-01  5.42504E-01
    9001.967      8.040   1.960  1.48796E+00  9.90871E-01  4.97087E-01
    9002.571      8.644   2.000  1.44680E+00  9.95228E-01  4.51569E-01
    9003.187      9.260   2.040  1.41970E+00  9.99102E-01  4.20600E-01
    9003.814      9.888   2.080  1.38822E+00  1.00254E+00  3.85673E-01
    9004.454     10.528   2.120  1.31333E+00  1.00556E+00  3.07767E-01
    9005.107     11.180   2.160  1.20798E+00  1.00817E+00  1.99808E-01
    9005.771     11.844   2.200  1.11681E+00  1.01041E+00  1.06401E-01
    9006.448     12.521   2.240  1.05833E+00  1.01229E+00  4.60429E-02
    9007.137     13.210   2.280  1.03353E+00  1.01384E+00  1.96886E-02
    9007.838     13.911   2.320  1.04337E+00  1.01506E+00  2.83056E-02
    9008.551     14.624   2.360  1.07864E+00  1.01600E+00  6.26459E-02
    9009.276     15.350   2.400  1.11492E+00  1.01667E+00  9.82489E-02
    9010.014     16.087   2.440  1.12554E+00  1.01709E+00  1.08446E-01
    9010.764     16.837   2.480  1.10267E+00  1.01728E+00  8.53930E-02
    9011.526     17.599   2.520  1.06270E+00  1.01728E+00  4.54174E-02
    9012.300     18.373   2.560  1.02946E+00  1.01708E+00  1.23776E-02
    9013.086     19.160   2.600  1.01846E+00  1.01674E+00  1.71874E-03
    9013.885     19.958   2.640  1.02074E+00  1.01624E+00  4.50437E-03
    9014.696     20.769   2.680  1.02670E+00  1.01561E+00  1.10892E-02
    9015.519     21.592   2.720  1.03206E+00  1.01486E+00  1.71924E-02
    9016.354     22.427   2.760  1.03403E+00  1.01403E+00  2.00025E-02
    9017.201     23.274   2.800  1.03085E+00  1.01311E+00  1.77449E-02
    9018.061     24.134   2.840  1.02256E+00  1.01213E+00  1.04340E-02
    9018.932     25.006   2.880  1.01050E+00  1.01109E+00 -5.83836E-04
    9019.816     25.890   2.920  9.95735E-01  1.01002E+00 -1.42890E-02
    9020.712     26.786   2.960  9.78872E-01  1.00893E+00 -3.00537E-02
    9021.621     27.694   3.000  9.60443E-01  1.00780E+00 -4.73532E-02
    9022.541     28.614   3.040  9.41255E-01  1.00668E+00 -6.54298E-02
    9023.474     29.547   3.080  9.22292E-01  1.00557E+00 -8.32827E-02
    9024.419     30.492   3.120  9.04765E-01  1.00447E+00 -9.97046E-02
    9025.376     31.449   3.160  8.89048E-01  1.00340E+00 -1.14347E-01
    9026.345     32.418   3.200  8.74957E-01  1.00233E+00 -1.27377E-01
    9027.327     33.400   3.240  8.62543E-01  1.00133E+00 -1.38788E-01
    9028.320     34.393   3.280  8.52016E-01  1.00037E+00 -1.48353E-01
    9029.326     35.399   3.320  8.43932E-01  9.99427E-01 -1.55495E-01
    9030.344     36.417   3.360  8.39104E-01  9.98553E-01 -1.59449E-01
    9031.374     37.447   3.400  8.38183E-01  9.97748E-01 -1.59565E-01
    9032.417     38.490   3.440  8.41370E-01  9.96991E-01 -1.55621E-01
    9033.471     39.544   3.480  8.48778E-01  9.96284E-01 -1.47506E-01
    9034.538     40.611   3.520  8.60345E-01  9.95670E-01 -1.35326E-01
    9035.617     41.690   3.560  8.75408E-01  9.95089E-01 -1.19681E-01
    9036.708     42.781   3.600  8.93119E-01  9.94604E-01 -1.01485E-01
    9037.812     43.885   3.640  9.12375E-01  9.94172E-01 -8.17974E-02
    9038.927     45.000   3.680  9.32339E-01  9.93817E-01 -6.14779E-02
    9040.055     46.128   3.720  9.52550E-01  9.93538E-01 -4.09885E-02
    9041.195     47.268   3.760  9.72913E-01  9.93335E-01 -2.04218E-02
    9042.347     48.420   3.800  9.93018E-01  9.93186E-01 -1.67828E-04
    9043.511     49.585   3.840  1.01198E+00  9.93112E-01  1.88714E-02
    9044.688     50.761   3.880  1.02865E+00  9.93114E-01  3.55394E-02
    9045.877     51.950   3.920  1.04190E+00  9.93190E-01  4.87075E-02
    9047.078     53.151   3.960  1.05096E+00  9.93316E-01  5.76445E-02
    9048.291     54.364   4.000  1.05596E+00  9.93491E-01  6.24686E-02
    9049.516     55.589   4.040  1.05790E+00  9.93738E-01  6.41605E-02
    9050.753     56.827   4.080  1.05833E+00  9.94056E-01  6.42739E-02
    9052.003     58.076   4.120  1.05887E+00  9.94421E-01  6.44534E-02
    9053.265     59.338   4.160  1.06086E+00  9.94831E-01  6.60247E-02
    9054.539     60.612   4.200  1.06477E+00  9.95307E-01  6.94621E-02
    9055.825     61.898   4.240  1.07010E+00  9.95803E-01  7.42969E-02
    9057.124     63.197   4.280  1.07577E+00  9.96360E-01  7.94087E-02
    9058.434     64.508   4.320  1.08064E+00  9.96937E-01  8.36984E-02
    9059.757     65.830   4.360  1.08415E+00  9.97572E-01  8.65777E-02
    9061.092     67.165   4.400  1.08611E+00  9.98220E-01  8.78937E-02
    9062.439     68.513   4.440  1.08640E+00  9.98901E-01  8.75029E-02
    9063.799     69.872   4.480  1.08441E+00  9.99592E-01  8.48164E-02
    9065.170     71.244   4.520  1.07942E+00  1.00031E+00  7.91072E-02
    9066.554     72.627   4.560  1.07095E+00  1.00103E+00  6.99174E-02
    9067.950     74.023   4.600  1.05915E+00  1.00176E+00  5.73836E-02
    9069.358     75.431   4.640  1.04494E+00  1.00252E+00  4.24278E-02
    9070.779     76.852   4.680  1.02984E+00  1.00325E+00  2.65947E-02
    9072.211     78.284   4.720  1.01565E+00  1.00400E+00  1.16484E-02
    9073.656     79.729   4.760  1.00393E+00  1.00472E+00 -7.88598E-04
    9075.113     81.186   4.800  9.95830E-01  1.00544E+00 -9.60971E-03
    9076.582     82.655   4.840  9.91691E-01  1.00615E+00 -1.44618E-02
    9078.063     84.137   4.880  9.91125E-01  1.00683E+00 -1.57079E-02
    9079.557     85.630   4.920  9.93304E-01  1.00750E+00 -1.41993E-02
    9081.063     87.136   4.960  9.97177E-01  1.00814E+00 -1.09615E-02
    9082.580     88.654   5.000  1.00174E+00  1.00876E+00 -7.01561E-03
    9084.111     90.184   5.040  1.00600E+00  1.00932E+00 -3.31837E-03
    9085.653     91.726   5.080  1.00918E+00  1.00987E+00 -6.89418E-04
    9087.207     93.281   5.120  1.01063E+00  1.01037E+00  2.57961E-04
    9088.774     94.847   5.160  1.00987E+00  1.01084E+00 -9.67472E-04
    9090.353     96.426   5.200  1.00653E+00  1.01126E+00 -4.73003E-03
    9091.944     98.017   5.240  1.00058E+00  1.01164E+00 -1.10559E-02
    9093.547     99.620   5.280  9.92663E-01  1.01195E+00 -1.92860E-02
    9095.163    101.236   5.320  9.84014E-01  1.01224E+00 -2.82245E-02
    9096.790    102.863   5.360  9.75975E-01  1.01246E+00 -3.64852E-02
    9098.430    104.503   5.400  9.69807E-01  1.01264E+00 -4.28279E-02
    9100.082    106.155   5.440  9.66396E-01  1.01276E+00 -4.63676E-02
    9101.746    107.819   5.480  9.66014E-01  1.01282E+00 -4.68088E-02
    9103.423    109.496   5.520  9.68288E-01  1.01284E+00 -4.45476E-02
    9105.111    111.184   5.560  9.72107E-01  1.01280E+00 -4.06975E-02
    9106.812    112.885   5.600  9.75996E-01  1.01273E+00 -3.67309E-02
    9108.525    114.598   5.640  9.78749E-01  1.01258E+00 -3.38313E-02
    9110.250    116.323   5.680  9.80163E-01  1.01239E+00 -3.22258E-02
    9111.987    118.061   5.720  9.80969E-01  1.01215E+00 -3.11858E-02
    9113.737    119.810   5.760  9.82239E-01  1.01188E+00 -2.96392E-02
    9115.499    121.572   5.800  9.84474E-01  1.01156E+00 -2.70853E-02
    9117.273    123.346   5.840  9.87135E-01  1.01118E+00 -2.40428E-02
    9119.059    125.132   5.880  9.88984E-01  1.01078E+00 -2.17950E-02
    9120.857    126.930   5.920  9.88706E-01  1.01032E+00 -2.16149E-02
    9122.668    128.741   5.960  9.85944E-01  1.00985E+00 -2.39080E-02
    9124.490    130.563   6.000  9.81632E-01  1.00929E+00 -2.76554E-02
