# # comment:                                                     FEFF 9.9.1  
# # Source:
# # Structure
# # Reduced
# # space
# # abc:
# # angles:
# # sites:
# # POT  SCF 100  7.0000   0, screened core-hole, AFOLP (folp(0)= 1.150)
# # Abs   Z=29 Rmt= 1.267 Rnm= 1.337 K  shell
# # Pot 1 Z=29 Rmt= 1.263 Rnm= 1.333
# # Pot 2 Z= 8 Rmt= 0.997 Rnm= 1.082
# # Pot 3 Z=73 Rmt= 1.318 Rnm= 1.465
# # Gam_ch=1.729E+00 H-L exch Vi= 0.000E+00 Vr= 0.000E+00
# # Mu=-5.946E+00eV kf=2.255E+00 Vint=-1.650E+01eV Rs_int= 1.608
# FMS rfms= 9.0000
# # PATH  Rmax=-1.000,  Keep_limit= 0.00, Heap_limit 0.00  Pwcrit= 2.50%
#  S02=0.950  Temp=   0.00  Debye_temp=   0.00  Global_sig2= 0.00000
#  Energy zero shift, vr, vi    0.00000E+00   0.00000E+00
#  Curved wave amplitude ratio filter   4.000%
#     file         sig2 tot  cw amp ratio   deg  nlegs   reff  inp sig2
#     0/   0 paths used
#  xsedge+ 50, used to normalize mu           2.4609E-04
#  -----------------------------------------------------------------------
#  omega    e    k    mu    mu0     chi     @#
    8983.630     -9.756  -1.000  5.31735E-02  5.81327E-02 -4.95920E-03
    8983.928     -9.458  -0.960  5.67711E-02  6.25005E-02 -5.72939E-03
    8984.215     -9.171  -0.920  6.07224E-02  6.73674E-02 -6.64503E-03
    8984.489     -8.897  -0.880  6.50712E-02  7.28080E-02 -7.73681E-03
    8984.751     -8.635  -0.840  6.98672E-02  7.89094E-02 -9.04222E-03
    8985.001     -8.385  -0.800  7.51660E-02  8.57727E-02 -1.06067E-02
    8985.239     -8.147  -0.760  8.10293E-02  9.35141E-02 -1.24848E-02
    8985.465     -7.921  -0.720  8.75238E-02  1.02265E-01 -1.47412E-02
    8985.678     -7.708  -0.680  9.47203E-02  1.12170E-01 -1.74501E-02
    8985.879     -7.507  -0.640  1.02690E-01  1.23384E-01 -2.06937E-02
    8986.068     -7.318  -0.600  1.11499E-01  1.36056E-01 -2.45568E-02
    8986.245     -7.141  -0.560  1.21199E-01  1.50316E-01 -2.91169E-02
    8986.410     -6.977  -0.520  1.31815E-01  1.66242E-01 -3.44279E-02
    8986.562     -6.824  -0.480  1.43324E-01  1.83820E-01 -4.04962E-02
    8986.702     -6.684  -0.440  1.55639E-01  2.02893E-01 -4.72543E-02
    8986.830     -6.556  -0.400  1.68589E-01  2.23127E-01 -5.45384E-02
    8986.946     -6.440  -0.360  1.81909E-01  2.43993E-01 -6.20841E-02
    8987.050     -6.337  -0.320  1.95252E-01  2.64804E-01 -6.95523E-02
    8987.141     -6.245  -0.280  2.08215E-01  2.84799E-01 -7.65844E-02
    8987.220     -6.166  -0.240  2.20380E-01  3.03248E-01 -8.28677E-02
    8987.287     -6.099  -0.200  2.31354E-01  3.19541E-01 -8.81870E-02
    8987.342     -6.044  -0.160  2.40795E-01  3.33235E-01 -9.24405E-02
    8987.385     -6.001  -0.120  2.48430E-01  3.44052E-01 -9.56220E-02
    8987.415     -5.971  -0.080  2.54054E-01  3.51838E-01 -9.77843E-02
    8987.440     -5.946   0.000  2.58710E-01  3.58090E-01 -9.93794E-02
    8987.495     -5.892   0.120  2.69083E-01  3.72183E-01 -1.03100E-01
    8987.537     -5.849   0.160  2.77300E-01  3.83106E-01 -1.05805E-01
    8987.592     -5.794   0.200  2.88117E-01  3.97039E-01 -1.08922E-01
    8987.659     -5.727   0.240  3.01715E-01  4.13773E-01 -1.12058E-01
    8987.738     -5.648   0.280  3.18247E-01  4.32927E-01 -1.14680E-01
    8987.830     -5.556   0.320  3.37876E-01  4.53978E-01 -1.16102E-01
    8987.934     -5.453   0.360  3.60703E-01  4.76261E-01 -1.15558E-01
    8988.049     -5.337   0.400  3.86768E-01  4.99111E-01 -1.12342E-01
    8988.177     -5.209   0.440  4.15807E-01  5.21862E-01 -1.06055E-01
    8988.318     -5.069   0.480  4.47243E-01  5.44054E-01 -9.68109E-02
    8988.470     -4.916   0.520  4.79968E-01  5.65361E-01 -8.53927E-02
    8988.635     -4.752   0.560  5.12677E-01  5.85598E-01 -7.29211E-02
    8988.811     -4.575   0.600  5.44795E-01  6.04794E-01 -5.99988E-02
    8989.000     -4.386   0.640  5.77211E-01  6.22957E-01 -4.57466E-02
    8989.201     -4.185   0.680  6.12372E-01  6.40200E-01 -2.78283E-02
    8989.415     -3.971   0.720  6.52922E-01  6.56634E-01 -3.71170E-03
    8989.640     -3.746   0.760  6.99161E-01  6.72389E-01  2.67724E-02
    8989.878     -3.508   0.800  7.44975E-01  6.87564E-01  5.74101E-02
    8990.128     -3.258   0.840  7.75831E-01  7.02245E-01  7.35855E-02
    8990.390     -2.996   0.880  7.75687E-01  7.16480E-01  5.92069E-02
    8990.665     -2.722   0.920  7.41597E-01  7.30362E-01  1.12353E-02
    8990.951     -2.435   0.960  6.89722E-01  7.43912E-01 -5.41895E-02
    8991.250     -2.136   1.000  6.42477E-01  7.57157E-01 -1.14680E-01
    8991.561     -1.826   1.040  6.12216E-01  7.70113E-01 -1.57898E-01
    8991.884     -1.502   1.080  5.98823E-01  7.82811E-01 -1.83988E-01
    8992.219     -1.167   1.120  5.97090E-01  7.95231E-01 -1.98142E-01
    8992.566     -0.820   1.160  6.03554E-01  8.07389E-01 -2.03835E-01
    8992.926     -0.460   1.200  6.17141E-01  8.19255E-01 -2.02114E-01
    8993.298     -0.088   1.240  6.40680E-01  8.30836E-01 -1.90156E-01
    8993.682      0.296   1.280  6.83702E-01  8.42138E-01 -1.58436E-01
    8994.078      0.692   1.320  7.53388E-01  8.53101E-01 -9.97129E-02
    8994.487      1.101   1.360  8.47172E-01  8.63746E-01 -1.65734E-02
    8994.907      1.521   1.400  9.54690E-01  8.74052E-01  8.06375E-02
    8995.340      1.954   1.440  1.05256E+00  8.83999E-01  1.68557E-01
    8995.785      2.399   1.480  1.11001E+00  8.93584E-01  2.16425E-01
    8996.242      2.856   1.520  1.11388E+00  9.02787E-01  2.11094E-01
    8996.712      3.326   1.560  1.08523E+00  9.11603E-01  1.73630E-01
    8997.193      3.807   1.600  1.06145E+00  9.20033E-01  1.41418E-01
    8997.687      4.301   1.640  1.05738E+00  9.28036E-01  1.29343E-01
    8998.193      4.807   1.680  1.06430E+00  9.35652E-01  1.28644E-01
    8998.711      5.325   1.720  1.06525E+00  9.42841E-01  1.22410E-01
    8999.242      5.855   1.760  1.05381E+00  9.49601E-01  1.04210E-01
    8999.784      6.398   1.800  1.04243E+00  9.55979E-01  8.64549E-02
    9000.339      6.953   1.840  1.04661E+00  9.61915E-01  8.46914E-02
    9000.906      7.520   1.880  1.06705E+00  9.67453E-01  9.95969E-02
    9001.485      8.099   1.920  1.09384E+00  9.72598E-01  1.21246E-01
    9002.076      8.690   1.960  1.12422E+00  9.77356E-01  1.46864E-01
    9002.680      9.294   2.000  1.15629E+00  9.81728E-01  1.74560E-01
    9003.295      9.909   2.040  1.18165E+00  9.85722E-01  1.95925E-01
    9003.923     10.537   2.080  1.19603E+00  9.89346E-01  2.06688E-01
    9004.563     11.177   2.120  1.20374E+00  9.92624E-01  2.11120E-01
    9005.216     11.829   2.160  1.21223E+00  9.95564E-01  2.16667E-01
    9005.880     12.494   2.200  1.22877E+00  9.98174E-01  2.30592E-01
    9006.557     13.171   2.240  1.25786E+00  1.00048E+00  2.57374E-01
    9007.246     13.859   2.280  1.29885E+00  1.00250E+00  2.96350E-01
    9007.947     14.560   2.320  1.34190E+00  1.00423E+00  3.37673E-01
    9008.660     15.274   2.360  1.35911E+00  1.00570E+00  3.53409E-01
    9009.385     15.999   2.400  1.31852E+00  1.00695E+00  3.11575E-01
    9010.123     16.737   2.440  1.22444E+00  1.00793E+00  2.16515E-01
    9010.873     17.487   2.480  1.11935E+00  1.00872E+00  1.10626E-01
    9011.635     18.249   2.520  1.03907E+00  1.00931E+00  2.97595E-02
    9012.409     19.023   2.560  9.88660E-01  1.00970E+00 -2.10362E-02
    9013.195     19.809   2.600  9.55984E-01  1.00992E+00 -5.39335E-02
    9013.994     20.608   2.640  9.28785E-01  1.01000E+00 -8.12134E-02
    9014.805     21.418   2.680  9.05224E-01  1.00995E+00 -1.04723E-01
    9015.628     22.241   2.720  8.84295E-01  1.00975E+00 -1.25453E-01
    9016.463     23.077   2.760  8.67278E-01  1.00945E+00 -1.42172E-01
    9017.310     23.924   2.800  8.54803E-01  1.00904E+00 -1.54235E-01
    9018.170     24.783   2.840  8.46064E-01  1.00854E+00 -1.62476E-01
    9019.041     25.655   2.880  8.40397E-01  1.00798E+00 -1.67586E-01
    9019.925     26.539   2.920  8.37350E-01  1.00735E+00 -1.70002E-01
    9020.821     27.435   2.960  8.36428E-01  1.00667E+00 -1.70244E-01
    9021.730     28.343   3.000  8.36653E-01  1.00595E+00 -1.69295E-01
    9022.650     29.264   3.040  8.37606E-01  1.00518E+00 -1.67577E-01
    9023.583     30.197   3.080  8.39638E-01  1.00438E+00 -1.64745E-01
    9024.528     31.142   3.120  8.43262E-01  1.00357E+00 -1.60312E-01
    9025.485     32.099   3.160  8.48472E-01  1.00276E+00 -1.54287E-01
    9026.454     33.068   3.200  8.55162E-01  1.00194E+00 -1.46781E-01
    9027.435     34.049   3.240  8.63636E-01  1.00113E+00 -1.37493E-01
    9028.429     35.043   3.280  8.74211E-01  1.00034E+00 -1.26129E-01
    9029.435     36.049   3.320  8.87361E-01  9.99558E-01 -1.12198E-01
    9030.453     37.067   3.360  9.03496E-01  9.98807E-01 -9.53113E-02
    9031.483     38.097   3.400  9.22679E-01  9.98067E-01 -7.53878E-02
    9032.526     39.139   3.440  9.44634E-01  9.97360E-01 -5.27259E-02
    9033.580     40.194   3.480  9.69003E-01  9.96691E-01 -2.76874E-02
    9034.647     41.261   3.520  9.95167E-01  9.96059E-01 -8.92150E-04
    9035.726     42.340   3.560  1.02179E+00  9.95467E-01  2.63213E-02
    9036.817     43.431   3.600  1.04672E+00  9.94916E-01  5.17998E-02
    9037.920     44.534   3.640  1.06715E+00  9.94407E-01  7.27449E-02
    9039.036     45.650   3.680  1.08026E+00  9.93960E-01  8.63033E-02
    9040.164     46.778   3.720  1.08445E+00  9.93537E-01  9.09172E-02
    9041.304     47.918   3.760  1.08020E+00  9.93177E-01  8.70227E-02
    9042.456     49.070   3.800  1.06952E+00  9.92863E-01  7.66602E-02
    9043.620     50.234   3.840  1.05530E+00  9.92614E-01  6.26847E-02
    9044.797     51.411   3.880  1.04010E+00  9.92389E-01  4.77095E-02
    9045.985     52.599   3.920  1.02599E+00  9.92229E-01  3.37587E-02
    9047.186     53.800   3.960  1.01457E+00  9.92135E-01  2.24353E-02
    9048.399     55.013   4.000  1.00707E+00  9.92064E-01  1.50083E-02
    9049.625     56.239   4.040  1.00439E+00  9.92054E-01  1.23330E-02
    9050.862     57.476   4.080  1.00664E+00  9.92066E-01  1.45725E-02
    9052.112     58.726   4.120  1.01332E+00  9.92140E-01  2.11813E-02
    9053.374     59.988   4.160  1.02321E+00  9.92257E-01  3.09539E-02
    9054.648     61.262   4.200  1.03466E+00  9.92414E-01  4.22441E-02
    9055.934     62.548   4.240  1.04584E+00  9.92609E-01  5.32276E-02
    9057.233     63.846   4.280  1.05506E+00  9.92842E-01  6.22142E-02
    9058.543     65.157   4.320  1.06107E+00  9.93112E-01  6.79596E-02
    9059.866     66.480   4.360  1.06320E+00  9.93396E-01  6.98000E-02
    9061.201     67.815   4.400  1.06142E+00  9.93713E-01  6.77081E-02
    9062.548     69.162   4.440  1.05636E+00  9.94065E-01  6.22978E-02
    9063.908     70.522   4.480  1.04911E+00  9.94449E-01  5.46561E-02
    9065.279     71.893   4.520  1.04108E+00  9.94842E-01  4.62385E-02
    9066.663     73.277   4.560  1.03380E+00  9.95241E-01  3.85594E-02
    9068.059     74.673   4.600  1.02830E+00  9.95668E-01  3.26273E-02
    9069.467     76.081   4.640  1.02474E+00  9.96101E-01  2.86349E-02
    9070.888     77.501   4.680  1.02261E+00  9.96559E-01  2.60551E-02
    9072.320     78.934   4.720  1.02097E+00  9.96997E-01  2.39773E-02
    9073.765     80.379   4.760  1.01893E+00  9.97456E-01  2.14746E-02
    9075.222     81.836   4.800  1.01565E+00  9.97894E-01  1.77566E-02
    9076.691     83.305   4.840  1.01059E+00  9.98350E-01  1.22367E-02
    9078.172     84.786   4.880  1.00332E+00  9.98780E-01  4.54473E-03
    9079.666     86.280   4.920  9.93825E-01  9.99207E-01 -5.38117E-03
    9081.171     87.785   4.960  9.82476E-01  9.99628E-01 -1.71516E-02
    9082.689     89.303   5.000  9.70137E-01  1.00004E+00 -2.99035E-02
    9084.219     90.833   5.040  9.57758E-01  1.00042E+00 -4.26652E-02
    9085.762     92.376   5.080  9.46109E-01  1.00077E+00 -5.46632E-02
    9087.316     93.930   5.120  9.35746E-01  1.00111E+00 -6.53667E-02
    9088.883     95.497   5.160  9.27096E-01  1.00144E+00 -7.43462E-02
    9090.462     97.076   5.200  9.20646E-01  1.00174E+00 -8.10909E-02
    9092.053     98.667   5.240  9.16965E-01  1.00200E+00 -8.50305E-02
    9093.656    100.270   5.280  9.16564E-01  1.00222E+00 -8.56537E-02
    9095.271    101.885   5.320  9.19688E-01  1.00242E+00 -8.27372E-02
    9096.899    103.513   5.360  9.26130E-01  1.00260E+00 -7.64654E-02
    9098.539    105.153   5.400  9.35396E-01  1.00273E+00 -6.73318E-02
    9100.191    106.805   5.440  9.46818E-01  1.00282E+00 -5.60025E-02
    9101.855    108.469   5.480  9.59673E-01  1.00288E+00 -4.32029E-02
    9103.531    110.145   5.520  9.73203E-01  1.00291E+00 -2.97112E-02
    9105.220    111.834   5.560  9.86511E-01  1.00289E+00 -1.63807E-02
    9106.921    113.535   5.600  9.98806E-01  1.00285E+00 -4.04466E-03
    9108.634    115.248   5.640  1.00947E+00  1.00275E+00  6.71808E-03
    9110.359    116.973   5.680  1.01843E+00  1.00263E+00  1.57970E-02
    9112.096    118.710   5.720  1.02601E+00  1.00247E+00  2.35306E-02
    9113.846    120.460   5.760  1.03263E+00  1.00228E+00  3.03500E-02
    9115.608    122.221   5.800  1.03831E+00  1.00205E+00  3.62588E-02
    9117.382    123.995   5.840  1.04241E+00  1.00178E+00  4.06339E-02
    9119.168    125.782   5.880  1.04412E+00  1.00147E+00  4.26500E-02
    9120.966    127.580   5.920  1.04312E+00  1.00116E+00  4.19625E-02
    9122.776    129.390   5.960  1.03967E+00  1.00078E+00  3.88895E-02
    9124.599    131.213   6.000  1.03413E+00  1.00038E+00  3.37556E-02
