# # comment:                                                     FEFF 9.9.1  
# # Source:
# # Structure
# # Reduced
# # space
# # abc:
# # angles:
# # sites:
# # POT  SCF 100  7.0000   0, screened core-hole, AFOLP (folp(0)= 1.150)
# # Abs   Z=29 Rmt= 1.215 Rnm= 1.274 K  shell
# # Pot 1 Z= 3 Rmt= 1.260 Rnm= 1.306
# # Pot 2 Z=29 Rmt= 1.215 Rnm= 1.274
# # Pot 3 Z=28 Rmt= 1.233 Rnm= 1.336
# # Pot 4 Z= 8 Rmt= 1.055 Rnm= 1.105
# # Gam_ch=1.729E+00 H-L exch Vi= 0.000E+00 Vr= 0.000E+00
# # Mu=-1.058E+01eV kf=2.098E+00 Vint=-1.838E+01eV Rs_int= 1.729
# FMS rfms= 9.0000
# # PATH  Rmax=-1.000,  Keep_limit= 0.00, Heap_limit 0.00  Pwcrit= 2.50%
#  S02=0.950  Temp=   0.00  Debye_temp=   0.00  Global_sig2= 0.00000
#  Energy zero shift, vr, vi    0.00000E+00   0.00000E+00
#  Curved wave amplitude ratio filter   4.000%
#     file         sig2 tot  cw amp ratio   deg  nlegs   reff  inp sig2
#     0/   0 paths used
#  xsedge+ 50, used to normalize mu           2.4672E-04
#  -----------------------------------------------------------------------
#  omega    e    k    mu    mu0     chi     @#
    8984.985    -14.385  -1.000  2.73224E-02  4.97527E-02 -2.24302E-02
    8985.284    -14.086  -0.960  2.83041E-02  5.32452E-02 -2.49411E-02
    8985.570    -13.800  -0.920  2.93276E-02  5.71158E-02 -2.77882E-02
    8985.844    -13.526  -0.880  3.03964E-02  6.14192E-02 -3.10228E-02
    8986.107    -13.263  -0.840  3.15146E-02  6.62191E-02 -3.47045E-02
    8986.356    -13.014  -0.800  3.26872E-02  7.15890E-02 -3.89019E-02
    8986.594    -12.776  -0.760  3.39202E-02  7.76134E-02 -4.36933E-02
    8986.820    -12.550  -0.720  3.52204E-02  8.43875E-02 -4.91670E-02
    8987.033    -12.337  -0.680  3.65957E-02  9.20157E-02 -5.54200E-02
    8987.234    -12.136  -0.640  3.80542E-02  1.00609E-01 -6.25543E-02
    8987.423    -11.947  -0.600  3.96040E-02  1.10274E-01 -7.06699E-02
    8987.600    -11.770  -0.560  4.12513E-02  1.21104E-01 -7.98523E-02
    8987.765    -11.605  -0.520  4.29983E-02  1.33152E-01 -9.01532E-02
    8987.917    -11.453  -0.480  4.48401E-02  1.46404E-01 -1.01564E-01
    8988.057    -11.313  -0.440  4.67608E-02  1.60745E-01 -1.13984E-01
    8988.185    -11.185  -0.400  4.87308E-02  1.75927E-01 -1.27196E-01
    8988.301    -11.069  -0.360  5.07063E-02  1.91564E-01 -1.40857E-01
    8988.405    -10.965  -0.320  5.26323E-02  2.07151E-01 -1.54518E-01
    8988.496    -10.874  -0.280  5.44501E-02  2.22129E-01 -1.67679E-01
    8988.575    -10.795  -0.240  5.61058E-02  2.35960E-01 -1.79854E-01
    8988.642    -10.728  -0.200  5.75565E-02  2.48189E-01 -1.90633E-01
    8988.697    -10.673  -0.160  5.87731E-02  2.58483E-01 -1.99710E-01
    8988.740    -10.630  -0.120  5.97387E-02  2.66627E-01 -2.06888E-01
    8988.770    -10.600  -0.080  6.04444E-02  2.72497E-01 -2.12053E-01
    8988.795    -10.575   0.000  6.10400E-02  2.77216E-01 -2.16176E-01
    8988.850    -10.520   0.120  6.23734E-02  2.87877E-01 -2.25504E-01
    8988.892    -10.478   0.160  6.33369E-02  2.96166E-01 -2.32829E-01
    8988.947    -10.423   0.200  6.45409E-02  3.06757E-01 -2.42216E-01
    8989.014    -10.356   0.240  6.59236E-02  3.19522E-01 -2.53598E-01
    8989.094    -10.276   0.280  6.74606E-02  3.34222E-01 -2.66762E-01
    8989.185    -10.185   0.320  6.91052E-02  3.50511E-01 -2.81406E-01
    8989.289    -10.081   0.360  7.07709E-02  3.67952E-01 -2.97181E-01
    8989.404     -9.966   0.400  7.24026E-02  3.86058E-01 -3.13656E-01
    8989.532     -9.838   0.440  7.39708E-02  4.04405E-01 -3.30434E-01
    8989.673     -9.697   0.480  7.54543E-02  4.22642E-01 -3.47188E-01
    8989.825     -9.545   0.520  7.69454E-02  4.40580E-01 -3.63635E-01
    8989.990     -9.380   0.560  7.84970E-02  4.58103E-01 -3.79606E-01
    8990.166     -9.204   0.600  8.02239E-02  4.75161E-01 -3.94937E-01
    8990.355     -9.015   0.640  8.22757E-02  4.91843E-01 -4.09568E-01
    8990.557     -8.813   0.680  8.46901E-02  5.08185E-01 -4.23495E-01
    8990.770     -8.600   0.720  8.75103E-02  5.24232E-01 -4.36722E-01
    8990.996     -8.375   0.760  9.08669E-02  5.40112E-01 -4.49245E-01
    8991.233     -8.137   0.800  9.48278E-02  5.55842E-01 -4.61014E-01
    8991.483     -7.887   0.840  9.95427E-02  5.71508E-01 -4.71966E-01
    8991.745     -7.625   0.880  1.05146E-01  5.87105E-01 -4.81959E-01
    8992.020     -7.350   0.920  1.11918E-01  6.02674E-01 -4.90756E-01
    8992.306     -7.064   0.960  1.20260E-01  6.18227E-01 -4.97967E-01
    8992.605     -6.765   1.000  1.30751E-01  6.33767E-01 -5.03016E-01
    8992.916     -6.454   1.040  1.44341E-01  6.49290E-01 -5.04949E-01
    8993.239     -6.131   1.080  1.62417E-01  6.64766E-01 -5.02349E-01
    8993.574     -5.796   1.120  1.87109E-01  6.80195E-01 -4.93086E-01
    8993.922     -5.448   1.160  2.21154E-01  6.95558E-01 -4.74403E-01
    8994.281     -5.089   1.200  2.67192E-01  7.10787E-01 -4.43594E-01
    8994.653     -4.717   1.240  3.24269E-01  7.25896E-01 -4.01627E-01
    8995.037     -4.333   1.280  3.80228E-01  7.40816E-01 -3.60588E-01
    8995.433     -3.937   1.320  4.16686E-01  7.55533E-01 -3.38847E-01
    8995.842     -3.528   1.360  4.31918E-01  7.69996E-01 -3.38078E-01
    8996.262     -3.108   1.400  4.41926E-01  7.84211E-01 -3.42286E-01
    8996.695     -2.675   1.440  4.60408E-01  7.98086E-01 -3.37678E-01
    8997.140     -2.230   1.480  4.91200E-01  8.11648E-01 -3.20448E-01
    8997.597     -1.773   1.520  5.29322E-01  8.24824E-01 -2.95502E-01
    8998.067     -1.303   1.560  5.70051E-01  8.37601E-01 -2.67551E-01
    8998.548     -0.822   1.600  6.23352E-01  8.49971E-01 -2.26619E-01
    8999.042     -0.328   1.640  7.04472E-01  8.61882E-01 -1.57411E-01
    8999.548      0.178   1.680  7.96864E-01  8.73347E-01 -7.64833E-02
    9000.066      0.696   1.720  8.83051E-01  8.84317E-01 -1.26595E-03
    9000.597      1.227   1.760  9.95983E-01  8.94787E-01  1.01196E-01
    9001.139      1.769   1.800  1.15969E+00  9.04753E-01  2.54936E-01
    9001.694      2.324   1.840  1.36527E+00  9.14213E-01  4.51053E-01
    9002.261      2.891   1.880  1.58260E+00  9.23163E-01  6.59436E-01
    9002.840      3.470   1.920  1.76823E+00  9.31585E-01  8.36646E-01
    9003.431      4.061   1.960  1.87580E+00  9.39500E-01  9.36298E-01
    9004.035      4.665   2.000  1.90343E+00  9.46889E-01  9.56543E-01
    9004.650      5.280   2.040  1.89122E+00  9.53777E-01  9.37442E-01
    9005.278      5.908   2.080  1.84443E+00  9.60167E-01  8.84259E-01
    9005.918      6.548   2.120  1.72120E+00  9.66066E-01  7.55136E-01
    9006.571      7.201   2.160  1.52185E+00  9.71480E-01  5.50372E-01
    9007.235      7.865   2.200  1.31905E+00  9.76457E-01  3.42591E-01
    9007.912      8.542   2.240  1.16532E+00  9.80965E-01  1.84358E-01
    9008.601      9.231   2.280  1.06067E+00  9.85051E-01  7.56145E-02
    9009.302      9.932   2.320  9.86881E-01  9.88725E-01 -1.84356E-03
    9010.015     10.645   2.360  9.29701E-01  9.91996E-01 -6.22950E-02
    9010.740     11.370   2.400  8.84212E-01  9.94895E-01 -1.10683E-01
    9011.478     12.108   2.440  8.50270E-01  9.97452E-01 -1.47182E-01
    9012.228     12.858   2.480  8.27093E-01  9.99656E-01 -1.72563E-01
    9012.990     13.620   2.520  8.25509E-01  1.00156E+00 -1.76048E-01
    9013.764     14.394   2.560  8.42184E-01  1.00315E+00 -1.60962E-01
    9014.550     15.180   2.600  8.71208E-01  1.00447E+00 -1.33265E-01
    9015.349     15.979   2.640  9.08797E-01  1.00553E+00 -9.67297E-02
    9016.160     16.790   2.680  9.51195E-01  1.00636E+00 -5.51634E-02
    9016.983     17.613   2.720  9.92465E-01  1.00695E+00 -1.44900E-02
    9017.818     18.448   2.760  1.02501E+00  1.00735E+00  1.76575E-02
    9018.665     19.295   2.800  1.04185E+00  1.00757E+00  3.42857E-02
    9019.525     20.155   2.840  1.03976E+00  1.00762E+00  3.21399E-02
    9020.396     21.026   2.880  1.02114E+00  1.00751E+00  1.36270E-02
    9021.280     21.910   2.920  9.89639E-01  1.00725E+00 -1.76154E-02
    9022.176     22.806   2.960  9.50705E-01  1.00690E+00 -5.61906E-02
    9023.085     23.715   3.000  9.10383E-01  1.00644E+00 -9.60614E-02
    9024.005     24.635   3.040  8.73374E-01  1.00588E+00 -1.32510E-01
    9024.938     25.568   3.080  8.42710E-01  1.00524E+00 -1.62533E-01
    9025.883     26.513   3.120  8.20121E-01  1.00455E+00 -1.84428E-01
    9026.840     27.470   3.160  8.05627E-01  1.00381E+00 -1.98179E-01
    9027.809     28.439   3.200  7.98944E-01  1.00300E+00 -2.04055E-01
    9028.791     29.421   3.240  7.99739E-01  1.00217E+00 -2.02435E-01
    9029.784     30.414   3.280  8.07151E-01  1.00132E+00 -1.94164E-01
    9030.790     31.420   3.320  8.20476E-01  1.00045E+00 -1.79973E-01
    9031.808     32.438   3.360  8.38656E-01  9.99556E-01 -1.60900E-01
    9032.838     33.468   3.400  8.59449E-01  9.98685E-01 -1.39236E-01
    9033.881     34.511   3.440  8.79246E-01  9.97817E-01 -1.18570E-01
    9034.935     35.565   3.480  8.95116E-01  9.96977E-01 -1.01861E-01
    9036.002     36.632   3.520  9.05821E-01  9.96145E-01 -9.03238E-02
    9037.081     37.711   3.560  9.12143E-01  9.95324E-01 -8.31806E-02
    9038.172     38.802   3.600  9.16336E-01  9.94559E-01 -7.82229E-02
    9039.276     39.906   3.640  9.20938E-01  9.93811E-01 -7.28730E-02
    9040.391     41.021   3.680  9.28127E-01  9.93122E-01 -6.49953E-02
    9041.519     42.149   3.720  9.39291E-01  9.92452E-01 -5.31608E-02
    9042.659     43.289   3.760  9.55236E-01  9.91844E-01 -3.66083E-02
    9043.811     44.441   3.800  9.75877E-01  9.91256E-01 -1.53798E-02
    9044.975     45.605   3.840  1.00036E+00  9.90734E-01  9.63030E-03
    9046.152     46.782   3.880  1.02715E+00  9.90257E-01  3.68963E-02
    9047.341     47.971   3.920  1.05449E+00  9.89847E-01  6.46436E-02
    9048.542     49.171   3.960  1.08098E+00  9.89483E-01  9.14963E-02
    9049.755     50.385   4.000  1.10611E+00  9.89165E-01  1.16940E-01
    9050.980     51.610   4.040  1.12980E+00  9.88911E-01  1.40887E-01
    9052.217     52.847   4.080  1.15132E+00  9.88683E-01  1.62640E-01
    9053.467     54.097   4.120  1.16903E+00  9.88543E-01  1.80489E-01
    9054.729     55.359   4.160  1.18082E+00  9.88427E-01  1.92390E-01
    9056.003     56.633   4.200  1.18483E+00  9.88375E-01  1.96459E-01
    9057.289     57.919   4.240  1.17982E+00  9.88368E-01  1.91448E-01
    9058.588     59.218   4.280  1.16561E+00  9.88402E-01  1.77209E-01
    9059.898     60.528   4.320  1.14362E+00  9.88479E-01  1.55136E-01
    9061.221     61.851   4.360  1.11682E+00  9.88597E-01  1.28226E-01
    9062.556     63.186   4.400  1.08909E+00  9.88778E-01  1.00307E-01
    9063.903     64.533   4.440  1.06367E+00  9.88978E-01  7.46896E-02
    9065.263     65.893   4.480  1.04232E+00  9.89238E-01  5.30856E-02
    9066.634     67.264   4.520  1.02516E+00  9.89513E-01  3.56472E-02
    9068.018     68.648   4.560  1.01127E+00  9.89822E-01  2.14471E-02
    9069.414     70.044   4.600  9.99372E-01  9.90167E-01  9.20493E-03
    9070.822     71.452   4.640  9.88374E-01  9.90523E-01 -2.14947E-03
    9072.243     72.873   4.680  9.77706E-01  9.90912E-01 -1.32059E-02
    9073.675     74.305   4.720  9.67189E-01  9.91332E-01 -2.41428E-02
    9075.120     75.750   4.760  9.56972E-01  9.91758E-01 -3.47864E-02
    9076.577     77.207   4.800  9.47520E-01  9.92189E-01 -4.46694E-02
    9078.046     78.676   4.840  9.39379E-01  9.92646E-01 -5.32663E-02
    9079.527     80.157   4.880  9.32781E-01  9.93083E-01 -6.03021E-02
    9081.021     81.651   4.920  9.27690E-01  9.93544E-01 -6.58544E-02
    9082.527     83.157   4.960  9.23868E-01  9.94007E-01 -7.01389E-02
    9084.044     84.674   5.000  9.21373E-01  9.94468E-01 -7.30953E-02
    9085.575     86.205   5.040  9.20712E-01  9.94929E-01 -7.42162E-02
    9087.117     87.747   5.080  9.22660E-01  9.95383E-01 -7.27238E-02
    9088.671     89.301   5.120  9.27734E-01  9.95810E-01 -6.80756E-02
    9090.238     90.868   5.160  9.35721E-01  9.96231E-01 -6.05102E-02
    9091.817     92.447   5.200  9.45721E-01  9.96644E-01 -5.09225E-02
    9093.408     94.038   5.240  9.56665E-01  9.97025E-01 -4.03600E-02
    9095.011     95.641   5.280  9.67809E-01  9.97396E-01 -2.95874E-02
    9096.627     97.257   5.320  9.78328E-01  9.97733E-01 -1.94052E-02
    9098.254     98.884   5.360  9.87061E-01  9.98035E-01 -1.09745E-02
    9099.894    100.524   5.400  9.92705E-01  9.98325E-01 -5.62040E-03
    9101.546    102.176   5.440  9.94505E-01  9.98579E-01 -4.07337E-03
    9103.210    103.840   5.480  9.92896E-01  9.98797E-01 -5.90105E-03
    9104.887    105.517   5.520  9.89368E-01  9.99001E-01 -9.63358E-03
    9106.575    107.205   5.560  9.85734E-01  9.99166E-01 -1.34323E-02
    9108.276    108.906   5.600  9.83492E-01  9.99269E-01 -1.57778E-02
    9109.989    110.619   5.640  9.83339E-01  9.99356E-01 -1.60167E-02
    9111.714    112.344   5.680  9.84880E-01  9.99404E-01 -1.45235E-02
    9113.451    114.081   5.720  9.86897E-01  9.99413E-01 -1.25167E-02
    9115.201    115.831   5.760  9.87705E-01  9.99384E-01 -1.16793E-02
    9116.963    117.593   5.800  9.85674E-01  9.99316E-01 -1.36420E-02
    9118.737    119.367   5.840  9.80067E-01  9.99234E-01 -1.91673E-02
    9120.523    121.153   5.880  9.71354E-01  9.99090E-01 -2.77352E-02
    9122.321    122.951   5.920  9.61091E-01  9.98905E-01 -3.78141E-02
    9124.132    124.762   5.960  9.51448E-01  9.98681E-01 -4.72338E-02
    9125.954    126.584   6.000  9.45231E-01  9.98424E-01 -5.31926E-02
