# # comment:                                                     FEFF 9.9.1  
# # Source:
# # Structure
# # Reduced
# # space
# # abc:
# # angles:
# # sites:
# # POT  SCF 100  7.0000   0, screened core-hole, AFOLP (folp(0)= 1.150)
# # Abs   Z=29 Rmt= 1.256 Rnm= 1.325 K  shell
# # Pot 1 Z= 3 Rmt= 1.226 Rnm= 1.289
# # Pot 2 Z=29 Rmt= 1.256 Rnm= 1.326
# # Pot 3 Z=14 Rmt= 1.012 Rnm= 1.219
# # Pot 4 Z= 8 Rmt= 0.964 Rnm= 1.073
# # Gam_ch=1.729E+00 H-L exch Vi= 0.000E+00 Vr= 0.000E+00
# # Mu=-7.150E+00eV kf=2.263E+00 Vint=-1.748E+01eV Rs_int= 1.603
# FMS rfms= 9.0000
# # PATH  Rmax=-1.000,  Keep_limit= 0.00, Heap_limit 0.00  Pwcrit= 2.50%
#  S02=0.950  Temp=   0.00  Debye_temp=   0.00  Global_sig2= 0.00000
#  Energy zero shift, vr, vi    0.00000E+00   0.00000E+00
#  Curved wave amplitude ratio filter   4.000%
#     file         sig2 tot  cw amp ratio   deg  nlegs   reff  inp sig2
#     0/   0 paths used
#  xsedge+ 50, used to normalize mu           2.4670E-04
#  -----------------------------------------------------------------------
#  omega    e    k    mu    mu0     chi     @#
    8983.989    -10.959  -1.000  4.57674E-02  5.67849E-02 -1.10175E-02
    8984.288    -10.661  -0.960  4.86385E-02  6.10107E-02 -1.23722E-02
    8984.574    -10.374  -0.920  5.17900E-02  6.57160E-02 -1.39260E-02
    8984.848    -10.100  -0.880  5.52597E-02  7.09721E-02 -1.57124E-02
    8985.111     -9.838  -0.840  5.90914E-02  7.68625E-02 -1.77711E-02
    8985.361     -9.588  -0.800  6.33349E-02  8.34838E-02 -2.01490E-02
    8985.598     -9.350  -0.760  6.80464E-02  9.09471E-02 -2.29007E-02
    8985.824     -9.125  -0.720  7.32886E-02  9.93780E-02 -2.60895E-02
    8986.037     -8.911  -0.680  7.91288E-02  1.08915E-01 -2.97863E-02
    8986.238     -8.710  -0.640  8.56370E-02  1.19705E-01 -3.40677E-02
    8986.427     -8.521  -0.600  9.28803E-02  1.31891E-01 -3.90107E-02
    8986.604     -8.344  -0.560  1.00915E-01  1.45597E-01 -4.46824E-02
    8986.769     -8.180  -0.520  1.09774E-01  1.60898E-01 -5.11240E-02
    8986.921     -8.027  -0.480  1.19449E-01  1.77778E-01 -5.83286E-02
    8987.061     -7.887  -0.440  1.29873E-01  1.96088E-01 -6.62149E-02
    8987.189     -7.759  -0.400  1.40901E-01  2.15508E-01 -7.46064E-02
    8987.305     -7.643  -0.360  1.52303E-01  2.35531E-01 -8.32281E-02
    8987.409     -7.540  -0.320  1.63768E-01  2.55500E-01 -9.17319E-02
    8987.500     -7.448  -0.280  1.74937E-01  2.74686E-01 -9.97497E-02
    8987.579     -7.369  -0.240  1.85433E-01  2.92390E-01 -1.06958E-01
    8987.647     -7.302  -0.200  1.94903E-01  3.08027E-01 -1.13124E-01
    8987.701     -7.247  -0.160  2.03048E-01  3.21173E-01 -1.18125E-01
    8987.744     -7.204  -0.120  2.09628E-01  3.31558E-01 -1.21930E-01
    8987.775     -7.174  -0.080  2.14469E-01  3.39035E-01 -1.24565E-01
    8987.799     -7.150   0.000  2.18471E-01  3.45039E-01 -1.26568E-01
    8987.854     -7.095   0.120  2.27317E-01  3.58575E-01 -1.31258E-01
    8987.896     -7.052   0.160  2.34332E-01  3.69073E-01 -1.34741E-01
    8987.951     -6.997   0.200  2.43517E-01  3.82461E-01 -1.38943E-01
    8988.018     -6.930   0.240  2.54965E-01  3.98542E-01 -1.43577E-01
    8988.098     -6.851   0.280  2.68729E-01  4.16977E-01 -1.48248E-01
    8988.189     -6.759   0.320  2.84773E-01  4.37248E-01 -1.52475E-01
    8988.293     -6.656   0.360  3.02914E-01  4.58742E-01 -1.55828E-01
    8988.409     -6.540   0.400  3.22788E-01  4.80789E-01 -1.58000E-01
    8988.537     -6.412   0.440  3.43795E-01  5.02816E-01 -1.59021E-01
    8988.677     -6.272   0.480  3.65032E-01  5.24346E-01 -1.59314E-01
    8988.829     -6.119   0.520  3.85368E-01  5.45046E-01 -1.59678E-01
    8988.994     -5.955   0.560  4.03734E-01  5.64823E-01 -1.61089E-01
    8989.171     -5.778   0.600  4.19100E-01  5.83604E-01 -1.64504E-01
    8989.359     -5.589   0.640  4.30705E-01  6.01475E-01 -1.70770E-01
    8989.561     -5.388   0.680  4.37652E-01  6.18523E-01 -1.80871E-01
    8989.774     -5.174   0.720  4.38669E-01  6.34854E-01 -1.96185E-01
    8990.000     -4.949   0.760  4.32455E-01  6.50572E-01 -2.18116E-01
    8990.237     -4.711   0.800  4.18926E-01  6.65788E-01 -2.46862E-01
    8990.487     -4.461   0.840  4.00371E-01  6.80564E-01 -2.80193E-01
    8990.749     -4.199   0.880  3.81370E-01  6.94983E-01 -3.13613E-01
    8991.024     -3.925   0.920  3.67542E-01  7.09094E-01 -3.41551E-01
    8991.310     -3.638   0.960  3.64001E-01  7.22933E-01 -3.58932E-01
    8991.609     -3.340   1.000  3.74003E-01  7.36524E-01 -3.62521E-01
    8991.920     -3.029   1.040  3.98199E-01  7.49882E-01 -3.51684E-01
    8992.243     -2.706   1.080  4.34663E-01  7.63035E-01 -3.28372E-01
    8992.578     -2.370   1.120  4.79102E-01  7.75938E-01 -2.96837E-01
    8992.926     -2.023   1.160  5.24761E-01  7.88626E-01 -2.63865E-01
    8993.285     -1.663   1.200  5.64059E-01  8.01068E-01 -2.37009E-01
    8993.657     -1.291   1.240  5.93153E-01  8.13268E-01 -2.20115E-01
    8994.041     -0.907   1.280  6.14653E-01  8.25189E-01 -2.10536E-01
    8994.437     -0.511   1.320  6.39445E-01  8.36831E-01 -1.97386E-01
    8994.846     -0.103   1.360  6.82419E-01  8.48171E-01 -1.65752E-01
    8995.266      0.318   1.400  7.49487E-01  8.59207E-01 -1.09720E-01
    8995.699      0.751   1.440  8.33161E-01  8.69896E-01 -3.67347E-02
    8996.144      1.196   1.480  9.26482E-01  8.80234E-01  4.62479E-02
    8996.602      1.653   1.520  1.03259E+00  8.90197E-01  1.42393E-01
    8997.071      2.122   1.560  1.15302E+00  8.99801E-01  2.53219E-01
    8997.552      2.604   1.600  1.27218E+00  9.08982E-01  3.63198E-01
    8998.046      3.098   1.640  1.36424E+00  9.17780E-01  4.46465E-01
    8998.552      3.604   1.680  1.42168E+00  9.26172E-01  4.95510E-01
    8999.070      4.122   1.720  1.46161E+00  9.34134E-01  5.27479E-01
    8999.601      4.652   1.760  1.48165E+00  9.41688E-01  5.39962E-01
    9000.143      5.195   1.800  1.45645E+00  9.48792E-01  5.07658E-01
    9000.698      5.750   1.840  1.38346E+00  9.55489E-01  4.27973E-01
    9001.265      6.317   1.880  1.29192E+00  9.61762E-01  3.30160E-01
    9001.844      6.896   1.920  1.20605E+00  9.67610E-01  2.38440E-01
    9002.435      7.487   1.960  1.13730E+00  9.73038E-01  1.64261E-01
    9003.039      8.090   2.000  1.09049E+00  9.78049E-01  1.12439E-01
    9003.655      8.706   2.040  1.06735E+00  9.82671E-01  8.46795E-02
    9004.282      9.334   2.080  1.06496E+00  9.86887E-01  7.80745E-02
    9004.923      9.974   2.120  1.07360E+00  9.90745E-01  8.28540E-02
    9005.575     10.626   2.160  1.08181E+00  9.94209E-01  8.75982E-02
    9006.239     11.291   2.200  1.08288E+00  9.97328E-01  8.55473E-02
    9006.916     11.967   2.240  1.07889E+00  1.00011E+00  7.87759E-02
    9007.605     12.656   2.280  1.07695E+00  1.00256E+00  7.43842E-02
    9008.306     13.357   2.320  1.08046E+00  1.00471E+00  7.57475E-02
    9009.019     14.071   2.360  1.08695E+00  1.00655E+00  8.04007E-02
    9009.744     14.796   2.400  1.09390E+00  1.00812E+00  8.57803E-02
    9010.482     15.534   2.440  1.10217E+00  1.00942E+00  9.27504E-02
    9011.232     16.283   2.480  1.11201E+00  1.01048E+00  1.01530E-01
    9011.994     17.045   2.520  1.11725E+00  1.01128E+00  1.05961E-01
    9012.768     17.820   2.560  1.10894E+00  1.01190E+00  9.70463E-02
    9013.554     18.606   2.600  1.08671E+00  1.01231E+00  7.44025E-02
    9014.353     19.405   2.640  1.05824E+00  1.01252E+00  4.57231E-02
    9015.164     20.215   2.680  1.02848E+00  1.01259E+00  1.58964E-02
    9015.987     21.038   2.720  1.00437E+00  1.01247E+00 -8.09557E-03
    9016.822     21.873   2.760  9.84586E-01  1.01224E+00 -2.76570E-02
    9017.669     22.721   2.800  9.65034E-01  1.01187E+00 -4.68350E-02
    9018.529     23.580   2.840  9.44659E-01  1.01140E+00 -6.67396E-02
    9019.400     24.452   2.880  9.25404E-01  1.01081E+00 -8.54089E-02
    9020.284     25.336   2.920  9.08653E-01  1.01014E+00 -1.01490E-01
    9021.180     26.232   2.960  8.95065E-01  1.00941E+00 -1.14348E-01
    9022.089     27.140   3.000  8.84869E-01  1.00859E+00 -1.23720E-01
    9023.009     28.061   3.040  8.77930E-01  1.00774E+00 -1.29807E-01
    9023.942     28.994   3.080  8.74009E-01  1.00684E+00 -1.32835E-01
    9024.887     29.938   3.120  8.72971E-01  1.00591E+00 -1.32943E-01
    9025.844     30.895   3.160  8.74205E-01  1.00497E+00 -1.30766E-01
    9026.813     31.865   3.200  8.77040E-01  1.00400E+00 -1.26957E-01
    9027.795     32.846   3.240  8.80875E-01  1.00302E+00 -1.22143E-01
    9028.788     33.840   3.280  8.85157E-01  1.00204E+00 -1.16883E-01
    9029.794     34.846   3.320  8.89460E-01  1.00108E+00 -1.11623E-01
    9030.812     35.864   3.360  8.93630E-01  1.00011E+00 -1.06481E-01
    9031.842     36.894   3.400  8.97969E-01  9.99190E-01 -1.01221E-01
    9032.885     37.936   3.440  9.02726E-01  9.98278E-01 -9.55529E-02
    9033.939     38.991   3.480  9.08330E-01  9.97381E-01 -8.90506E-02
    9035.006     40.058   3.520  9.15232E-01  9.96541E-01 -8.13092E-02
    9036.085     41.137   3.560  9.23646E-01  9.95738E-01 -7.20927E-02
    9037.176     42.228   3.600  9.33596E-01  9.94955E-01 -6.13584E-02
    9038.280     43.331   3.640  9.45125E-01  9.94233E-01 -4.91086E-02
    9039.395     44.447   3.680  9.58127E-01  9.93555E-01 -3.54279E-02
    9040.523     45.575   3.720  9.72312E-01  9.92921E-01 -2.06086E-02
    9041.663     46.715   3.760  9.87289E-01  9.92352E-01 -5.06258E-03
    9042.815     47.867   3.800  1.00256E+00  9.91829E-01  1.07309E-02
    9043.979     49.031   3.840  1.01750E+00  9.91350E-01  2.61454E-02
    9045.156     50.208   3.880  1.03149E+00  9.90915E-01  4.05731E-02
    9046.345     51.396   3.920  1.04408E+00  9.90550E-01  5.35302E-02
    9047.546     52.597   3.960  1.05492E+00  9.90231E-01  6.46837E-02
    9048.759     53.810   4.000  1.06385E+00  9.89980E-01  7.38736E-02
    9049.984     55.036   4.040  1.07092E+00  9.89775E-01  8.11500E-02
    9051.221     56.273   4.080  1.07619E+00  9.89616E-01  8.65698E-02
    9052.471     57.523   4.120  1.07967E+00  9.89523E-01  9.01499E-02
    9053.733     58.785   4.160  1.08141E+00  9.89475E-01  9.19322E-02
    9055.007     60.059   4.200  1.08143E+00  9.89471E-01  9.19597E-02
    9056.293     61.345   4.240  1.07977E+00  9.89510E-01  9.02606E-02
    9057.592     62.643   4.280  1.07661E+00  9.89611E-01  8.70008E-02
    9058.902     63.954   4.320  1.07234E+00  9.89733E-01  8.26024E-02
    9060.225     65.277   4.360  1.06751E+00  9.89916E-01  7.75919E-02
    9061.560     66.612   4.400  1.06259E+00  9.90116E-01  7.24722E-02
    9062.907     67.959   4.440  1.05798E+00  9.90376E-01  6.76042E-02
    9064.267     69.318   4.480  1.05368E+00  9.90652E-01  6.30273E-02
    9065.638     70.690   4.520  1.04939E+00  9.90962E-01  5.84240E-02
    9067.022     72.074   4.560  1.04453E+00  9.91306E-01  5.32212E-02
    9068.418     73.470   4.600  1.03841E+00  9.91661E-01  4.67519E-02
    9069.826     74.878   4.640  1.03054E+00  9.92049E-01  3.84867E-02
    9071.247     76.298   4.680  1.02077E+00  9.92468E-01  2.82973E-02
    9072.679     77.731   4.720  1.00941E+00  9.92894E-01  1.65146E-02
    9074.124     79.176   4.760  9.97111E-01  9.93325E-01  3.78592E-03
    9075.581     80.633   4.800  9.84663E-01  9.93780E-01 -9.11662E-03
    9077.050     82.102   4.840  9.72723E-01  9.94215E-01 -2.14922E-02
    9078.531     83.583   4.880  9.61916E-01  9.94673E-01 -3.27577E-02
    9080.025     85.076   4.920  9.52726E-01  9.95131E-01 -4.24050E-02
    9081.531     86.582   4.960  9.45498E-01  9.95564E-01 -5.00663E-02
    9083.049     88.100   5.000  9.40509E-01  9.96016E-01 -5.55064E-02
    9084.579     89.630   5.040  9.37750E-01  9.96442E-01 -5.86926E-02
    9086.121     91.172   5.080  9.37053E-01  9.96862E-01 -5.98087E-02
    9087.675     92.727   5.120  9.38098E-01  9.97274E-01 -5.91759E-02
    9089.242     94.294   5.160  9.40502E-01  9.97657E-01 -5.71547E-02
    9090.821     95.872   5.200  9.44115E-01  9.98030E-01 -5.39155E-02
    9092.412     97.464   5.240  9.48871E-01  9.98371E-01 -4.95003E-02
    9094.015     99.067   5.280  9.54729E-01  9.98701E-01 -4.39725E-02
    9095.631    100.682   5.320  9.61435E-01  9.98995E-01 -3.75602E-02
    9097.258    102.310   5.360  9.68580E-01  9.99253E-01 -3.06727E-02
    9098.898    103.950   5.400  9.75680E-01  9.99496E-01 -2.38158E-02
    9100.550    105.602   5.440  9.82145E-01  9.99680E-01 -1.75342E-02
    9102.214    107.266   5.480  9.87488E-01  9.99847E-01 -1.23589E-02
    9103.891    108.942   5.520  9.91225E-01  9.99977E-01 -8.75201E-03
    9105.579    110.631   5.560  9.93093E-01  1.00007E+00 -6.97527E-03
    9107.280    112.332   5.600  9.93179E-01  1.00012E+00 -6.94177E-03
    9108.993    114.045   5.640  9.91935E-01  1.00016E+00 -8.22059E-03
    9110.718    115.770   5.680  9.89863E-01  1.00013E+00 -1.02655E-02
    9112.456    117.507   5.720  9.87377E-01  1.00006E+00 -1.26836E-02
    9114.205    119.257   5.760  9.84697E-01  9.99954E-01 -1.52568E-02
    9115.967    121.018   5.800  9.82085E-01  9.99832E-01 -1.77466E-02
    9117.741    122.792   5.840  9.79891E-01  9.99649E-01 -1.97584E-02
    9119.527    124.578   5.880  9.78625E-01  9.99451E-01 -2.08266E-02
    9121.325    126.377   5.920  9.78597E-01  9.99193E-01 -2.05968E-02
    9123.136    128.187   5.960  9.80057E-01  9.98921E-01 -1.88633E-02
    9124.958    130.010   6.000  9.83208E-01  9.98556E-01 -1.53480E-02
