# # comment:                                                     FEFF 9.9.1  
# # Source:
# # Structure
# # Reduced
# # space
# # abc:
# # angles:
# # sites:
# # POT  SCF 100  7.0000   0, screened core-hole, AFOLP (folp(0)= 1.150)
# # Abs   Z=29 Rmt= 1.227 Rnm= 1.310 K  shell
# # Pot 1 Z=57 Rmt= 1.746 Rnm= 1.829
# # Pot 2 Z=29 Rmt= 1.227 Rnm= 1.310
# # Pot 3 Z= 8 Rmt= 1.046 Rnm= 1.104
# # Gam_ch=1.729E+00 H-L exch Vi= 0.000E+00 Vr= 0.000E+00
# # Mu=-7.619E+00eV kf=2.081E+00 Vint=-1.667E+01eV Rs_int= 1.743
# FMS rfms= 9.0000
# # PATH  Rmax=-1.000,  Keep_limit= 0.00, Heap_limit 0.00  Pwcrit= 2.50%
#  S02=0.950  Temp=   0.00  Debye_temp=   0.00  Global_sig2= 0.00000
#  Energy zero shift, vr, vi    0.00000E+00   0.00000E+00
#  Curved wave amplitude ratio filter   4.000%
#     file         sig2 tot  cw amp ratio   deg  nlegs   reff  inp sig2
#     0/   0 paths used
#  xsedge+ 50, used to normalize mu           2.4484E-04
#  -----------------------------------------------------------------------
#  omega    e    k    mu    mu0     chi     @#
    8984.321    -11.429  -1.000  3.82908E-02  5.49574E-02 -1.66667E-02
    8984.620    -11.130  -0.960  4.02694E-02  5.89858E-02 -1.87164E-02
    8984.906    -10.843  -0.920  4.23981E-02  6.34651E-02 -2.10670E-02
    8985.180    -10.569  -0.880  4.46943E-02  6.84621E-02 -2.37678E-02
    8985.443    -10.307  -0.840  4.71778E-02  7.40543E-02 -2.68764E-02
    8985.693    -10.057  -0.800  4.98716E-02  8.03317E-02 -3.04601E-02
    8985.930     -9.819  -0.760  5.28015E-02  8.73975E-02 -3.45960E-02
    8986.156     -9.594  -0.720  5.59968E-02  9.53684E-02 -3.93716E-02
    8986.369     -9.380  -0.680  5.94890E-02  1.04373E-01 -4.48839E-02
    8986.570     -9.179  -0.640  6.33112E-02  1.14547E-01 -5.12355E-02
    8986.759     -8.990  -0.600  6.74952E-02  1.26023E-01 -5.85280E-02
    8986.936     -8.813  -0.560  7.20669E-02  1.38916E-01 -6.68492E-02
    8987.101     -8.649  -0.520  7.70396E-02  1.53293E-01 -7.62539E-02
    8987.253     -8.496  -0.480  8.24045E-02  1.69141E-01 -8.67361E-02
    8987.393     -8.356  -0.440  8.81195E-02  1.86318E-01 -9.81987E-02
    8987.521     -8.228  -0.400  9.40996E-02  2.04527E-01 -1.10427E-01
    8987.637     -8.112  -0.360  1.00213E-01  2.23295E-01 -1.23082E-01
    8987.741     -8.009  -0.320  1.06287E-01  2.42011E-01 -1.35724E-01
    8987.832     -7.917  -0.280  1.12126E-01  2.59995E-01 -1.47868E-01
    8987.911     -7.838  -0.240  1.17536E-01  2.76593E-01 -1.59057E-01
    8987.979     -7.771  -0.200  1.22346E-01  2.91260E-01 -1.68915E-01
    8988.033     -7.716  -0.160  1.26421E-01  3.03596E-01 -1.77175E-01
    8988.076     -7.673  -0.120  1.29670E-01  3.13346E-01 -1.83676E-01
    8988.107     -7.643  -0.080  1.32035E-01  3.20369E-01 -1.88334E-01
    8988.131     -7.619   0.000  1.33976E-01  3.26010E-01 -1.92034E-01
    8988.186     -7.564   0.120  1.38302E-01  3.38741E-01 -2.00439E-01
    8988.228     -7.521   0.160  1.41597E-01  3.48614E-01 -2.07017E-01
    8988.283     -7.466   0.200  1.45821E-01  3.61229E-01 -2.15408E-01
    8988.350     -7.399   0.240  1.50906E-01  3.76394E-01 -2.25488E-01
    8988.430     -7.320   0.280  1.56735E-01  3.93799E-01 -2.37065E-01
    8988.521     -7.228   0.320  1.63156E-01  4.12998E-01 -2.49842E-01
    8988.625     -7.125   0.360  1.69968E-01  4.33435E-01 -2.63467E-01
    8988.741     -7.009   0.400  1.76897E-01  4.54477E-01 -2.77580E-01
    8988.869     -6.881   0.440  1.83773E-01  4.75604E-01 -2.91832E-01
    8989.009     -6.741   0.480  1.90531E-01  4.96378E-01 -3.05847E-01
    8989.161     -6.588   0.520  1.97361E-01  5.16532E-01 -3.19171E-01
    8989.326     -6.424   0.560  2.04618E-01  5.35925E-01 -3.31307E-01
    8989.502     -6.247   0.600  2.12869E-01  5.54521E-01 -3.41651E-01
    8989.691     -6.058   0.640  2.22581E-01  5.72379E-01 -3.49798E-01
    8989.893     -5.857   0.680  2.33977E-01  5.89556E-01 -3.55580E-01
    8990.106     -5.643   0.720  2.47007E-01  6.06185E-01 -3.59178E-01
    8990.332     -5.418   0.760  2.61323E-01  6.22310E-01 -3.60987E-01
    8990.569     -5.180   0.800  2.76680E-01  6.38054E-01 -3.61374E-01
    8990.819     -4.930   0.840  2.93009E-01  6.53483E-01 -3.60475E-01
    8991.081     -4.668   0.880  3.10623E-01  6.68608E-01 -3.57985E-01
    8991.356     -4.394   0.920  3.30275E-01  6.83508E-01 -3.53233E-01
    8991.642     -4.107   0.960  3.52698E-01  6.98190E-01 -3.45492E-01
    8991.941     -3.809   1.000  3.78225E-01  7.12667E-01 -3.34442E-01
    8992.252     -3.498   1.040  4.07639E-01  7.26946E-01 -3.19307E-01
    8992.575     -3.175   1.080  4.43630E-01  7.41046E-01 -2.97416E-01
    8992.910     -2.839   1.120  4.88743E-01  7.54916E-01 -2.66173E-01
    8993.258     -2.492   1.160  5.42324E-01  7.68565E-01 -2.26241E-01
    8993.617     -2.132   1.200  6.00542E-01  7.81977E-01 -1.81435E-01
    8993.989     -1.760   1.240  6.58270E-01  7.95109E-01 -1.36839E-01
    8994.373     -1.376   1.280  7.11960E-01  8.07978E-01 -9.60189E-02
    8994.769     -0.980   1.320  7.59189E-01  8.20522E-01 -6.13328E-02
    8995.178     -0.572   1.360  7.94573E-01  8.32735E-01 -3.81622E-02
    8995.598     -0.151   1.400  8.17998E-01  8.44611E-01 -2.66127E-02
    8996.031      0.282   1.440  8.40229E-01  8.56103E-01 -1.58743E-02
    8996.476      0.727   1.480  8.70811E-01  8.67185E-01  3.62660E-03
    8996.933      1.184   1.520  9.11826E-01  8.77870E-01  3.39556E-02
    8997.403      1.653   1.560  9.63838E-01  8.88136E-01  7.57020E-02
    8997.884      2.135   1.600  1.02503E+00  8.97936E-01  1.27095E-01
    8998.378      2.629   1.640  1.09017E+00  9.07308E-01  1.82866E-01
    8998.884      3.135   1.680  1.15573E+00  9.16210E-01  2.39522E-01
    8999.402      3.653   1.720  1.21558E+00  9.24639E-01  2.90937E-01
    8999.933      4.183   1.760  1.25716E+00  9.32615E-01  3.24544E-01
    9000.475      4.726   1.800  1.26758E+00  9.40100E-01  3.27481E-01
    9001.030      5.281   1.840  1.24453E+00  9.47114E-01  2.97412E-01
    9001.597      5.847   1.880  1.21259E+00  9.53682E-01  2.58911E-01
    9002.176      6.427   1.920  1.20018E+00  9.59766E-01  2.40412E-01
    9002.767      7.018   1.960  1.21038E+00  9.65413E-01  2.44968E-01
    9003.371      7.621   2.000  1.22961E+00  9.70627E-01  2.58984E-01
    9003.987      8.237   2.040  1.24372E+00  9.75395E-01  2.68329E-01
    9004.614      8.865   2.080  1.23964E+00  9.79745E-01  2.59894E-01
    9005.254      9.505   2.120  1.21236E+00  9.83705E-01  2.28654E-01
    9005.907     10.157   2.160  1.16735E+00  9.87262E-01  1.80088E-01
    9006.571     10.822   2.200  1.11449E+00  9.90464E-01  1.24025E-01
    9007.248     11.498   2.240  1.06674E+00  9.93302E-01  7.34399E-02
    9007.937     12.187   2.280  1.03374E+00  9.95805E-01  3.79317E-02
    9008.638     12.888   2.320  1.01983E+00  9.98002E-01  2.18316E-02
    9009.351     13.602   2.360  1.02532E+00  9.99882E-01  2.54427E-02
    9010.076     14.327   2.400  1.04406E+00  1.00147E+00  4.25875E-02
    9010.814     15.065   2.440  1.06600E+00  1.00283E+00  6.31666E-02
    9011.564     15.814   2.480  1.08337E+00  1.00392E+00  7.94541E-02
    9012.326     16.576   2.520  1.09055E+00  1.00479E+00  8.57572E-02
    9013.100     17.351   2.560  1.08912E+00  1.00545E+00  8.36663E-02
    9013.886     18.137   2.600  1.08382E+00  1.00594E+00  7.78863E-02
    9014.685     18.936   2.640  1.07551E+00  1.00622E+00  6.92802E-02
    9015.496     19.746   2.680  1.06360E+00  1.00635E+00  5.72450E-02
    9016.319     20.569   2.720  1.04759E+00  1.00635E+00  4.12448E-02
    9017.154     21.404   2.760  1.02801E+00  1.00623E+00  2.17783E-02
    9018.001     22.252   2.800  1.00591E+00  1.00598E+00 -6.81420E-05
    9018.861     23.111   2.840  9.82611E-01  1.00564E+00 -2.30263E-02
    9019.732     23.983   2.880  9.59511E-01  1.00521E+00 -4.56992E-02
    9020.616     24.867   2.920  9.37689E-01  1.00472E+00 -6.70359E-02
    9021.512     25.763   2.960  9.18280E-01  1.00417E+00 -8.58871E-02
    9022.421     26.671   3.000  9.02301E-01  1.00356E+00 -1.01262E-01
    9023.341     27.592   3.040  8.90197E-01  1.00292E+00 -1.12720E-01
    9024.274     28.524   3.080  8.81991E-01  1.00224E+00 -1.20245E-01
    9025.219     29.469   3.120  8.77431E-01  1.00157E+00 -1.24135E-01
    9026.176     30.426   3.160  8.75772E-01  1.00087E+00 -1.25097E-01
    9027.145     31.396   3.200  8.76400E-01  1.00015E+00 -1.23749E-01
    9028.127     32.377   3.240  8.78991E-01  9.99472E-01 -1.20480E-01
    9029.120     33.371   3.280  8.82966E-01  9.98778E-01 -1.15813E-01
    9030.126     34.377   3.320  8.87916E-01  9.98114E-01 -1.10198E-01
    9031.144     35.395   3.360  8.93421E-01  9.97481E-01 -1.04060E-01
    9032.174     36.425   3.400  8.98992E-01  9.96863E-01 -9.78714E-02
    9033.217     37.467   3.440  9.04139E-01  9.96281E-01 -9.21419E-02
    9034.271     38.522   3.480  9.08770E-01  9.95759E-01 -8.69884E-02
    9035.338     39.589   3.520  9.13097E-01  9.95256E-01 -8.21587E-02
    9036.417     40.668   3.560  9.17603E-01  9.94815E-01 -7.72113E-02
    9037.508     41.759   3.600  9.22805E-01  9.94394E-01 -7.15893E-02
    9038.612     42.862   3.640  9.29246E-01  9.94040E-01 -6.47935E-02
    9039.727     43.978   3.680  9.37228E-01  9.93730E-01 -5.65026E-02
    9040.855     45.106   3.720  9.46803E-01  9.93487E-01 -4.66840E-02
    9041.995     46.245   3.760  9.57962E-01  9.93268E-01 -3.53059E-02
    9043.147     47.398   3.800  9.70655E-01  9.93138E-01 -2.24824E-02
    9044.311     48.562   3.840  9.84510E-01  9.93034E-01 -8.52331E-03
    9045.488     49.738   3.880  9.99145E-01  9.92995E-01  6.14971E-03
    9046.677     50.927   3.920  1.01402E+00  9.93004E-01  2.10137E-02
    9047.878     52.128   3.960  1.02850E+00  9.93078E-01  3.54231E-02
    9049.091     53.341   4.000  1.04196E+00  9.93177E-01  4.87870E-02
    9050.316     54.566   4.040  1.05409E+00  9.93342E-01  6.07444E-02
    9051.553     55.804   4.080  1.06464E+00  9.93571E-01  7.10709E-02
    9052.803     57.054   4.120  1.07338E+00  9.93821E-01  7.95629E-02
    9054.065     58.316   4.160  1.08026E+00  9.94113E-01  8.61467E-02
    9055.339     59.590   4.200  1.08527E+00  9.94466E-01  9.08078E-02
    9056.625     60.876   4.240  1.08854E+00  9.94839E-01  9.37004E-02
    9057.924     62.174   4.280  1.09034E+00  9.95270E-01  9.50684E-02
    9059.234     63.485   4.320  1.09071E+00  9.95717E-01  9.49974E-02
    9060.557     64.808   4.360  1.08946E+00  9.96198E-01  9.32584E-02
    9061.892     66.143   4.400  1.08614E+00  9.96714E-01  8.94257E-02
    9063.239     67.490   4.440  1.08052E+00  9.97241E-01  8.32815E-02
    9064.599     68.849   4.480  1.07275E+00  9.97797E-01  7.49481E-02
    9065.970     70.221   4.520  1.06337E+00  9.98362E-01  6.50047E-02
    9067.354     71.605   4.560  1.05317E+00  9.98955E-01  5.42169E-02
    9068.750     73.001   4.600  1.04274E+00  9.99552E-01  4.31901E-02
    9070.158     74.409   4.640  1.03241E+00  1.00015E+00  3.22615E-02
    9071.579     75.829   4.680  1.02235E+00  1.00075E+00  2.15992E-02
    9073.011     77.262   4.720  1.01268E+00  1.00135E+00  1.13375E-02
    9074.456     78.707   4.760  1.00369E+00  1.00194E+00  1.74486E-03
    9075.913     80.163   4.800  9.95728E-01  1.00254E+00 -6.80863E-03
    9077.382     81.633   4.840  9.89087E-01  1.00313E+00 -1.40403E-02
    9078.863     83.114   4.880  9.83822E-01  1.00371E+00 -1.98886E-02
    9080.357     84.607   4.920  9.79698E-01  1.00426E+00 -2.45644E-02
    9081.863     86.113   4.960  9.76376E-01  1.00478E+00 -2.84050E-02
    9083.381     87.631   5.000  9.73600E-01  1.00529E+00 -3.16904E-02
    9084.911     89.161   5.040  9.71240E-01  1.00579E+00 -3.45492E-02
    9086.453     90.703   5.080  9.69297E-01  1.00625E+00 -3.69553E-02
    9088.007     92.258   5.120  9.67902E-01  1.00668E+00 -3.87765E-02
    9089.574     93.825   5.160  9.67189E-01  1.00707E+00 -3.98781E-02
    9091.153     95.403   5.200  9.67299E-01  1.00744E+00 -4.01390E-02
    9092.744     96.994   5.240  9.68258E-01  1.00775E+00 -3.94907E-02
    9094.347     98.598   5.280  9.70213E-01  1.00804E+00 -3.78278E-02
    9095.963    100.213   5.320  9.73187E-01  1.00829E+00 -3.51065E-02
    9097.590    101.841   5.360  9.77016E-01  1.00848E+00 -3.14655E-02
    9099.230    103.481   5.400  9.81304E-01  1.00865E+00 -2.73458E-02
    9100.882    105.133   5.440  9.85470E-01  1.00878E+00 -2.33062E-02
    9102.546    106.797   5.480  9.89086E-01  1.00884E+00 -1.97506E-02
    9104.223    108.473   5.520  9.92108E-01  1.00885E+00 -1.67451E-02
    9105.911    110.162   5.560  9.94729E-01  1.00885E+00 -1.41211E-02
    9107.612    111.863   5.600  9.97179E-01  1.00878E+00 -1.16045E-02
    9109.325    113.576   5.640  9.99622E-01  1.00867E+00 -9.05125E-03
    9111.050    115.301   5.680  1.00187E+00  1.00852E+00 -6.65499E-03
    9112.787    117.038   5.720  1.00335E+00  1.00833E+00 -4.97788E-03
    9114.537    118.788   5.760  1.00351E+00  1.00809E+00 -4.58107E-03
    9116.299    120.549   5.800  1.00218E+00  1.00782E+00 -5.64025E-03
    9118.073    122.323   5.840  9.99647E-01  1.00751E+00 -7.86112E-03
    9119.859    124.109   5.880  9.96401E-01  1.00716E+00 -1.07585E-02
    9121.657    125.908   5.920  9.92805E-01  1.00677E+00 -1.39697E-02
    9123.468    127.718   5.960  9.89121E-01  1.00636E+00 -1.72349E-02
    9125.290    129.541   6.000  9.85747E-01  1.00590E+00 -2.01570E-02
