# # comment:                                                     FEFF 9.9.1  
# # Source:
# # Structure
# # Reduced
# # space
# # abc:
# # angles:
# # sites:
# # POT  SCF 100  7.0000   0, screened core-hole, AFOLP (folp(0)= 1.150)
# # Abs   Z=29 Rmt= 1.243 Rnm= 1.322 K  shell
# # Pot 1 Z=12 Rmt= 1.339 Rnm= 1.443
# # Pot 2 Z=23 Rmt= 1.094 Rnm= 1.306
# # Pot 3 Z=29 Rmt= 1.235 Rnm= 1.324
# # Pot 4 Z= 8 Rmt= 0.925 Rnm= 1.091
# # Gam_ch=1.729E+00 H-L exch Vi= 0.000E+00 Vr= 0.000E+00
# # Mu=-8.968E+00eV kf=2.261E+00 Vint=-1.728E+01eV Rs_int= 1.604
# FMS rfms= 9.0000
# # PATH  Rmax=-1.000,  Keep_limit= 0.00, Heap_limit 0.00  Pwcrit= 2.50%
#  S02=0.950  Temp=   0.00  Debye_temp=   0.00  Global_sig2= 0.00000
#  Energy zero shift, vr, vi    0.00000E+00   0.00000E+00
#  Curved wave amplitude ratio filter   4.000%
#     file         sig2 tot  cw amp ratio   deg  nlegs   reff  inp sig2
#     0/   0 paths used
#  xsedge+ 50, used to normalize mu           2.4728E-04
#  -----------------------------------------------------------------------
#  omega    e    k    mu    mu0     chi     @#
    8984.179    -12.778  -1.000  3.60624E-02  5.06552E-02 -1.45927E-02
    8984.478    -12.479  -0.960  3.79965E-02  5.42436E-02 -1.62471E-02
    8984.765    -12.193  -0.920  4.00972E-02  5.82238E-02 -1.81266E-02
    8985.039    -11.918  -0.880  4.23866E-02  6.26526E-02 -2.02660E-02
    8985.301    -11.656  -0.840  4.48906E-02  6.75966E-02 -2.27060E-02
    8985.551    -11.406  -0.800  4.76388E-02  7.31324E-02 -2.54936E-02
    8985.789    -11.168  -0.760  5.06651E-02  7.93481E-02 -2.86830E-02
    8986.014    -10.943  -0.720  5.40079E-02  8.63432E-02 -3.23353E-02
    8986.228    -10.730  -0.680  5.77092E-02  9.42271E-02 -3.65178E-02
    8986.429    -10.528  -0.640  6.18130E-02  1.03115E-01 -4.13019E-02
    8986.618    -10.339  -0.600  6.63621E-02  1.13120E-01 -4.67578E-02
    8986.795    -10.163  -0.560  7.13926E-02  1.24338E-01 -5.29456E-02
    8986.959     -9.998  -0.520  7.69250E-02  1.36827E-01 -5.99017E-02
    8987.112     -9.846  -0.480  8.29520E-02  1.50571E-01 -6.76193E-02
    8987.252     -9.705  -0.440  8.94251E-02  1.65452E-01 -7.60268E-02
    8987.380     -9.577  -0.400  9.62421E-02  1.81211E-01 -8.49690E-02
    8987.496     -9.462  -0.360  1.03242E-01  1.97445E-01 -9.42024E-02
    8987.599     -9.358  -0.320  1.10216E-01  2.13629E-01 -1.03412E-01
    8987.691     -9.267  -0.280  1.16927E-01  2.29180E-01 -1.12253E-01
    8987.770     -9.187  -0.240  1.23143E-01  2.43537E-01 -1.20395E-01
    8987.837     -9.120  -0.200  1.28661E-01  2.56230E-01 -1.27568E-01
    8987.892     -9.065  -0.160  1.33329E-01  2.66911E-01 -1.33581E-01
    8987.935     -9.023  -0.120  1.37043E-01  2.75357E-01 -1.38314E-01
    8987.965     -8.992  -0.080  1.39740E-01  2.81445E-01 -1.41704E-01
    8987.989     -8.968   0.000  1.41939E-01  2.86337E-01 -1.44399E-01
    8988.044     -8.913   0.120  1.46740E-01  2.97373E-01 -1.50633E-01
    8988.087     -8.870   0.160  1.50483E-01  3.05955E-01 -1.55472E-01
    8988.142     -8.815   0.200  1.55268E-01  3.16928E-01 -1.61660E-01
    8988.209     -8.748   0.240  1.61039E-01  3.30130E-01 -1.69091E-01
    8988.288     -8.669   0.280  1.67727E-01  3.45332E-01 -1.77604E-01
    8988.380     -8.578   0.320  1.75191E-01  3.62142E-01 -1.86951E-01
    8988.483     -8.474   0.360  1.83253E-01  3.80096E-01 -1.96844E-01
    8988.599     -8.358   0.400  1.91790E-01  3.98703E-01 -2.06913E-01
    8988.727     -8.230   0.440  2.00700E-01  4.17493E-01 -2.16793E-01
    8988.867     -8.090   0.480  2.10013E-01  4.36118E-01 -2.26105E-01
    8989.020     -7.938   0.520  2.19850E-01  4.54358E-01 -2.34508E-01
    8989.184     -7.773   0.560  2.30227E-01  4.72110E-01 -2.41883E-01
    8989.361     -7.596   0.600  2.40837E-01  4.89325E-01 -2.48487E-01
    8989.550     -7.407   0.640  2.51015E-01  5.06054E-01 -2.55039E-01
    8989.751     -7.206   0.680  2.59904E-01  5.22357E-01 -2.62454E-01
    8989.965     -6.993   0.720  2.67050E-01  5.38350E-01 -2.71300E-01
    8990.190     -6.767   0.760  2.72432E-01  5.54063E-01 -2.81631E-01
    8990.428     -6.529   0.800  2.76364E-01  5.69600E-01 -2.93237E-01
    8990.678     -6.279   0.840  2.79203E-01  5.85014E-01 -3.05811E-01
    8990.940     -6.017   0.880  2.81585E-01  6.00322E-01 -3.18737E-01
    8991.214     -5.743   0.920  2.84465E-01  6.15572E-01 -3.31107E-01
    8991.501     -5.457   0.960  2.88304E-01  6.30780E-01 -3.42476E-01
    8991.799     -5.158   1.000  2.93321E-01  6.45936E-01 -3.52615E-01
    8992.110     -4.847   1.040  3.00723E-01  6.61056E-01 -3.60333E-01
    8992.433     -4.524   1.080  3.12802E-01  6.76112E-01 -3.63309E-01
    8992.769     -4.189   1.120  3.31229E-01  6.91111E-01 -3.59882E-01
    8993.116     -3.841   1.160  3.55601E-01  7.06034E-01 -3.50433E-01
    8993.476     -3.481   1.200  3.84827E-01  7.20819E-01 -3.35992E-01
    8993.848     -3.110   1.240  4.18990E-01  7.35481E-01 -3.16491E-01
    8994.232     -2.726   1.280  4.57961E-01  7.49972E-01 -2.92011E-01
    8994.628     -2.329   1.320  4.99686E-01  7.64262E-01 -2.64576E-01
    8995.036     -1.921   1.360  5.43327E-01  7.78320E-01 -2.34993E-01
    8995.457     -1.500   1.400  5.91222E-01  7.92116E-01 -2.00894E-01
    8995.890     -1.067   1.440  6.43452E-01  8.05638E-01 -1.62186E-01
    8996.335     -0.622   1.480  6.96648E-01  8.18813E-01 -1.22165E-01
    8996.792     -0.165   1.520  7.52546E-01  8.31651E-01 -7.91054E-02
    8997.261      0.304   1.560  8.21449E-01  8.44100E-01 -2.26511E-02
    8997.743      0.786   1.600  9.08706E-01  8.56149E-01  5.25578E-02
    8998.237      1.280   1.640  1.00119E+00  8.67770E-01  1.33424E-01
    8998.743      1.785   1.680  1.07504E+00  8.78954E-01  1.96085E-01
    8999.261      2.304   1.720  1.12480E+00  8.89676E-01  2.35125E-01
    8999.791      2.834   1.760  1.16040E+00  8.99929E-01  2.60474E-01
    9000.334      3.377   1.800  1.18172E+00  9.09708E-01  2.72008E-01
    9000.888      3.931   1.840  1.18830E+00  9.18990E-01  2.69311E-01
    9001.455      4.498   1.880  1.18790E+00  9.27751E-01  2.60149E-01
    9002.035      5.077   1.920  1.19018E+00  9.36033E-01  2.54145E-01
    9002.626      5.669   1.960  1.20514E+00  9.43817E-01  2.61321E-01
    9003.229      6.272   2.000  1.23690E+00  9.51083E-01  2.85817E-01
    9003.845      6.888   2.040  1.27517E+00  9.57874E-01  3.17298E-01
    9004.473      7.516   2.080  1.30686E+00  9.64174E-01  3.42686E-01
    9005.113      8.156   2.120  1.32260E+00  9.69988E-01  3.52608E-01
    9005.765      8.808   2.160  1.31685E+00  9.75342E-01  3.41505E-01
    9006.430      9.473   2.200  1.29356E+00  9.80243E-01  3.13316E-01
    9007.106     10.149   2.240  1.26437E+00  9.84695E-01  2.79674E-01
    9007.795     10.838   2.280  1.23995E+00  9.88730E-01  2.51221E-01
    9008.496     11.539   2.320  1.22061E+00  9.92334E-01  2.28272E-01
    9009.209     12.252   2.360  1.19896E+00  9.95557E-01  2.03405E-01
    9009.935     12.978   2.400  1.16887E+00  9.98409E-01  1.70457E-01
    9010.673     13.715   2.440  1.12953E+00  1.00092E+00  1.28617E-01
    9011.422     14.465   2.480  1.08468E+00  1.00307E+00  8.16104E-02
    9012.184     15.227   2.520  1.03846E+00  1.00490E+00  3.35512E-02
    9012.959     16.001   2.560  9.93181E-01  1.00644E+00 -1.32610E-02
    9013.745     16.788   2.600  9.54161E-01  1.00769E+00 -5.35339E-02
    9014.543     17.586   2.640  9.26902E-01  1.00869E+00 -8.17919E-02
    9015.354     18.397   2.680  9.15019E-01  1.00945E+00 -9.44278E-02
    9016.177     19.220   2.720  9.08495E-01  1.00997E+00 -1.01470E-01
    9017.012     20.055   2.760  9.04541E-01  1.01028E+00 -1.05736E-01
    9017.860     20.902   2.800  9.03175E-01  1.01041E+00 -1.07235E-01
    9018.719     21.762   2.840  9.04136E-01  1.01036E+00 -1.06220E-01
    9019.591     22.634   2.880  9.06738E-01  1.01016E+00 -1.03423E-01
    9020.475     23.518   2.920  9.10258E-01  1.00981E+00 -9.95561E-02
    9021.371     24.414   2.960  9.14216E-01  1.00936E+00 -9.51481E-02
    9022.279     25.322   3.000  9.18022E-01  1.00878E+00 -9.07528E-02
    9023.200     26.243   3.040  9.21436E-01  1.00812E+00 -8.66820E-02
    9024.132     27.175   3.080  9.24517E-01  1.00736E+00 -8.28384E-02
    9025.077     28.120   3.120  9.27231E-01  1.00652E+00 -7.92842E-02
    9026.034     29.077   3.160  9.29609E-01  1.00565E+00 -7.60367E-02
    9027.004     30.046   3.200  9.31567E-01  1.00471E+00 -7.31452E-02
    9027.985     31.028   3.240  9.33018E-01  1.00374E+00 -7.07201E-02
    9028.979     32.022   3.280  9.33880E-01  1.00275E+00 -6.88686E-02
    9029.985     33.027   3.320  9.34140E-01  1.00173E+00 -6.75898E-02
    9031.003     34.045   3.360  9.34030E-01  1.00070E+00 -6.66735E-02
    9032.033     35.076   3.400  9.33715E-01  9.99677E-01 -6.59617E-02
    9033.075     36.118   3.440  9.33526E-01  9.98653E-01 -6.51265E-02
    9034.130     37.173   3.480  9.33833E-01  9.97656E-01 -6.38228E-02
    9035.197     38.239   3.520  9.34834E-01  9.96668E-01 -6.18336E-02
    9036.276     39.318   3.560  9.36585E-01  9.95712E-01 -5.91270E-02
    9037.367     40.410   3.600  9.39004E-01  9.94792E-01 -5.57877E-02
    9038.470     41.513   3.640  9.42078E-01  9.93908E-01 -5.18304E-02
    9039.586     42.629   3.680  9.45927E-01  9.93043E-01 -4.71160E-02
    9040.713     43.756   3.720  9.50981E-01  9.92239E-01 -4.12575E-02
    9041.853     44.896   3.760  9.57716E-01  9.91477E-01 -3.37614E-02
    9043.006     46.048   3.800  9.66381E-01  9.90760E-01 -2.43784E-02
    9044.170     47.213   3.840  9.76829E-01  9.90107E-01 -1.32789E-02
    9045.346     48.389   3.880  9.88471E-01  9.89481E-01 -1.01023E-03
    9046.535     49.578   3.920  1.00056E+00  9.88942E-01  1.16188E-02
    9047.736     50.779   3.960  1.01218E+00  9.88428E-01  2.37535E-02
    9048.949     51.992   4.000  1.02278E+00  9.87984E-01  3.47950E-02
    9050.174     53.217   4.040  1.03205E+00  9.87608E-01  4.44404E-02
    9051.412     54.455   4.080  1.03982E+00  9.87259E-01  5.25594E-02
    9052.662     55.704   4.120  1.04616E+00  9.86999E-01  5.91619E-02
    9053.923     56.966   4.160  1.05113E+00  9.86788E-01  6.43426E-02
    9055.198     58.240   4.200  1.05477E+00  9.86622E-01  6.81524E-02
    9056.484     59.527   4.240  1.05702E+00  9.86502E-01  7.05190E-02
    9057.782     60.825   4.280  1.05781E+00  9.86447E-01  7.13626E-02
    9059.093     62.136   4.320  1.05701E+00  9.86439E-01  7.05711E-02
    9060.416     63.458   4.360  1.05464E+00  9.86476E-01  6.81665E-02
    9061.751     64.793   4.400  1.05100E+00  9.86577E-01  6.44267E-02
    9063.098     66.141   4.440  1.04652E+00  9.86720E-01  5.98010E-02
    9064.457     67.500   4.480  1.04166E+00  9.86883E-01  5.47770E-02
    9065.829     68.872   4.520  1.03695E+00  9.87107E-01  4.98425E-02
    9067.213     70.255   4.560  1.03279E+00  9.87370E-01  4.54227E-02
    9068.609     71.651   4.600  1.02943E+00  9.87670E-01  4.17628E-02
    9070.017     73.060   4.640  1.02684E+00  9.87984E-01  3.88514E-02
    9071.437     74.480   4.680  1.02468E+00  9.88332E-01  3.63477E-02
    9072.870     75.913   4.720  1.02233E+00  9.88713E-01  3.36124E-02
    9074.315     77.357   4.760  1.01903E+00  9.89104E-01  2.99282E-02
    9075.771     78.814   4.800  1.01431E+00  9.89524E-01  2.47832E-02
    9077.241     80.283   4.840  1.00802E+00  9.89953E-01  1.80707E-02
    9078.722     81.765   4.880  1.00052E+00  9.90410E-01  1.01064E-02
    9080.215     83.258   4.920  9.92333E-01  9.90870E-01  1.46360E-03
    9081.721     84.764   4.960  9.84123E-01  9.91332E-01 -7.20874E-03
    9083.239     86.282   5.000  9.76450E-01  9.91794E-01 -1.53440E-02
    9084.769     87.812   5.040  9.69670E-01  9.92254E-01 -2.25846E-02
    9086.311     89.354   5.080  9.63899E-01  9.92713E-01 -2.88142E-02
    9087.866     90.909   5.120  9.59030E-01  9.93167E-01 -3.41368E-02
    9089.433     92.475   5.160  9.54821E-01  9.93594E-01 -3.87727E-02
    9091.011     94.054   5.200  9.51087E-01  9.94014E-01 -4.29271E-02
    9092.602     95.645   5.240  9.47761E-01  9.94427E-01 -4.66666E-02
    9094.206     97.248   5.280  9.45054E-01  9.94832E-01 -4.97786E-02
    9095.821     98.864   5.320  9.43377E-01  9.95183E-01 -5.18052E-02
    9097.449    100.491   5.360  9.43363E-01  9.95542E-01 -5.21789E-02
    9099.089    102.131   5.400  9.45288E-01  9.95846E-01 -5.05581E-02
    9100.741    103.783   5.440  9.49146E-01  9.96135E-01 -4.69893E-02
    9102.405    105.448   5.480  9.54446E-01  9.96388E-01 -4.19428E-02
    9104.081    107.124   5.520  9.60495E-01  9.96605E-01 -3.61108E-02
    9105.770    108.812   5.560  9.66586E-01  9.96806E-01 -3.02198E-02
    9107.471    110.513   5.600  9.72184E-01  9.96946E-01 -2.47619E-02
    9109.183    112.226   5.640  9.77231E-01  9.97070E-01 -1.98389E-02
    9110.909    113.951   5.680  9.81958E-01  9.97155E-01 -1.51968E-02
    9112.646    115.689   5.720  9.86656E-01  9.97177E-01 -1.05203E-02
    9114.396    117.438   5.760  9.91426E-01  9.97181E-01 -5.75498E-03
    9116.157    119.200   5.800  9.95898E-01  9.97148E-01 -1.25042E-03
    9117.931    120.974   5.840  9.99503E-01  9.97073E-01  2.42985E-03
    9119.717    122.760   5.880  1.00177E+00  9.96935E-01  4.83078E-03
    9121.516    124.558   5.920  1.00262E+00  9.96783E-01  5.83463E-03
    9123.326    126.369   5.960  1.00220E+00  9.96591E-01  5.60735E-03
    9125.149    128.192   6.000  1.00068E+00  9.96305E-01  4.37852E-03
