# # comment:                                                     FEFF 9.9.1  
# # Source:
# # Structure
# # Reduced
# # space
# # abc:
# # angles:
# # sites:
# # POT  SCF 100  7.0000   0, screened core-hole, AFOLP (folp(0)= 1.150)
# # Abs   Z=29 Rmt= 1.242 Rnm= 1.322 K  shell
# # Pot 1 Z=12 Rmt= 1.334 Rnm= 1.439
# # Pot 2 Z=23 Rmt= 1.092 Rnm= 1.304
# # Pot 3 Z=29 Rmt= 1.239 Rnm= 1.326
# # Pot 4 Z= 8 Rmt= 0.925 Rnm= 1.090
# # Gam_ch=1.729E+00 H-L exch Vi= 0.000E+00 Vr= 0.000E+00
# # Mu=-8.947E+00eV kf=2.263E+00 Vint=-1.734E+01eV Rs_int= 1.603
# FMS rfms= 9.0000
# # PATH  Rmax=-1.000,  Keep_limit= 0.00, Heap_limit 0.00  Pwcrit= 2.50%
#  S02=0.950  Temp=   0.00  Debye_temp=   0.00  Global_sig2= 0.00000
#  Energy zero shift, vr, vi    0.00000E+00   0.00000E+00
#  Curved wave amplitude ratio filter   4.000%
#     file         sig2 tot  cw amp ratio   deg  nlegs   reff  inp sig2
#     0/   0 paths used
#  xsedge+ 50, used to normalize mu           2.4732E-04
#  -----------------------------------------------------------------------
#  omega    e    k    mu    mu0     chi     @#
    8984.185    -12.757  -1.000  3.63869E-02  5.09456E-02 -1.45587E-02
    8984.484    -12.458  -0.960  3.83562E-02  5.45633E-02 -1.62071E-02
    8984.770    -12.171  -0.920  4.04980E-02  5.85765E-02 -1.80785E-02
    8985.044    -11.897  -0.880  4.28359E-02  6.30430E-02 -2.02071E-02
    8985.307    -11.635  -0.840  4.53970E-02  6.80299E-02 -2.26329E-02
    8985.556    -11.385  -0.800  4.82131E-02  7.36148E-02 -2.54017E-02
    8985.794    -11.147  -0.760  5.13205E-02  7.98868E-02 -2.85662E-02
    8986.020    -10.922  -0.720  5.47605E-02  8.69464E-02 -3.21859E-02
    8986.233    -10.708  -0.680  5.85783E-02  9.49044E-02 -3.63261E-02
    8986.434    -10.507  -0.640  6.28215E-02  1.03877E-01 -4.10558E-02
    8986.623    -10.318  -0.600  6.75370E-02  1.13980E-01 -4.64426E-02
    8986.800    -10.141  -0.560  7.27642E-02  1.25309E-01 -5.25446E-02
    8986.965     -9.977  -0.520  7.85255E-02  1.37922E-01 -5.93967E-02
    8987.117     -9.825  -0.480  8.48133E-02  1.51806E-01 -6.69926E-02
    8987.257     -9.684  -0.440  9.15745E-02  1.66838E-01 -7.52639E-02
    8987.385     -9.556  -0.400  9.86974E-02  1.82760E-01 -8.40622E-02
    8987.501     -9.440  -0.360  1.06007E-01  1.99161E-01 -9.31540E-02
    8987.605     -9.337  -0.320  1.13276E-01  2.15513E-01 -1.02236E-01
    8987.696     -9.245  -0.280  1.20252E-01  2.31225E-01 -1.10973E-01
    8987.775     -9.166  -0.240  1.26688E-01  2.45730E-01 -1.19042E-01
    8987.842     -9.099  -0.200  1.32378E-01  2.58552E-01 -1.26174E-01
    8987.897     -9.044  -0.160  1.37171E-01  2.69342E-01 -1.32172E-01
    8987.940     -9.002  -0.120  1.40968E-01  2.77874E-01 -1.36907E-01
    8987.970     -8.971  -0.080  1.43715E-01  2.84023E-01 -1.40308E-01
    8987.995     -8.947   0.000  1.45943E-01  2.88964E-01 -1.43021E-01
    8988.050     -8.892   0.120  1.50796E-01  3.00111E-01 -1.49315E-01
    8988.092     -8.849   0.160  1.54555E-01  3.08780E-01 -1.54225E-01
    8988.147     -8.794   0.200  1.59368E-01  3.19862E-01 -1.60495E-01
    8988.214     -8.727   0.240  1.65130E-01  3.33197E-01 -1.68067E-01
    8988.294     -8.648   0.280  1.71777E-01  3.48547E-01 -1.76770E-01
    8988.385     -8.557   0.320  1.79115E-01  3.65496E-01 -1.86381E-01
    8988.489     -8.453   0.360  1.87029E-01  3.83617E-01 -1.96588E-01
    8988.604     -8.337   0.400  1.95407E-01  4.02391E-01 -2.06984E-01
    8988.732     -8.209   0.440  2.04203E-01  4.21340E-01 -2.17137E-01
    8988.873     -8.069   0.480  2.13472E-01  4.40112E-01 -2.26640E-01
    8989.025     -7.916   0.520  2.23291E-01  4.58462E-01 -2.35171E-01
    8989.190     -7.752   0.560  2.33599E-01  4.76310E-01 -2.42711E-01
    8989.366     -7.575   0.600  2.43944E-01  4.93603E-01 -2.49659E-01
    8989.555     -7.386   0.640  2.53627E-01  5.10394E-01 -2.56768E-01
    8989.757     -7.185   0.680  2.61892E-01  5.26767E-01 -2.64876E-01
    8989.970     -6.972   0.720  2.68392E-01  5.42795E-01 -2.74403E-01
    8990.195     -6.746   0.760  2.73144E-01  5.58531E-01 -2.85387E-01
    8990.433     -6.508   0.800  2.76386E-01  5.74080E-01 -2.97694E-01
    8990.683     -6.258   0.840  2.78399E-01  5.89475E-01 -3.11076E-01
    8990.945     -5.996   0.880  2.80059E-01  6.04777E-01 -3.24718E-01
    8991.220     -5.722   0.920  2.82409E-01  6.19993E-01 -3.37584E-01
    8991.506     -5.435   0.960  2.86062E-01  6.35161E-01 -3.49099E-01
    8991.805     -5.137   1.000  2.91613E-01  6.50288E-01 -3.58675E-01
    8992.116     -4.826   1.040  3.00420E-01  6.65354E-01 -3.64934E-01
    8992.439     -4.503   1.080  3.14410E-01  6.80371E-01 -3.65961E-01
    8992.774     -4.167   1.120  3.34309E-01  6.95306E-01 -3.60997E-01
    8993.122     -3.820   1.160  3.59261E-01  7.10141E-01 -3.50880E-01
    8993.481     -3.460   1.200  3.88615E-01  7.24854E-01 -3.36238E-01
    8993.853     -3.088   1.240  4.22784E-01  7.39439E-01 -3.16656E-01
    8994.237     -2.704   1.280  4.61713E-01  7.53829E-01 -2.92116E-01
    8994.633     -2.308   1.320  5.04285E-01  7.68036E-01 -2.63752E-01
    8995.042     -1.900   1.360  5.50291E-01  7.81990E-01 -2.31699E-01
    8995.462     -1.479   1.400  6.00488E-01  7.95698E-01 -1.95210E-01
    8995.895     -1.046   1.440  6.53159E-01  8.09090E-01 -1.55932E-01
    8996.340     -0.601   1.480  7.05811E-01  8.22174E-01 -1.16363E-01
    8996.797     -0.144   1.520  7.62455E-01  8.34898E-01 -7.24428E-02
    8997.267      0.325   1.560  8.33750E-01  8.47232E-01 -1.34828E-02
    8997.748      0.807   1.600  9.23244E-01  8.59167E-01  6.40774E-02
    8998.242      1.301   1.640  1.01565E+00  8.70693E-01  1.44962E-01
    8998.748      1.807   1.680  1.08639E+00  8.81761E-01  2.04626E-01
    8999.266      2.325   1.720  1.13403E+00  8.92366E-01  2.41668E-01
    8999.797      2.855   1.760  1.17073E+00  9.02502E-01  2.68224E-01
    9000.339      3.398   1.800  1.19399E+00  9.12165E-01  2.81822E-01
    9000.894      3.952   1.840  1.20081E+00  9.21330E-01  2.79479E-01
    9001.461      4.519   1.880  1.19870E+00  9.29998E-01  2.68702E-01
    9002.040      5.098   1.920  1.19922E+00  9.38167E-01  2.61049E-01
    9002.631      5.690   1.960  1.21372E+00  9.45837E-01  2.67882E-01
    9003.235      6.293   2.000  1.24492E+00  9.53010E-01  2.91907E-01
    9003.850      6.909   2.040  1.28108E+00  9.59690E-01  3.21392E-01
    9004.478      7.537   2.080  1.30923E+00  9.65901E-01  3.43328E-01
    9005.118      8.177   2.120  1.32057E+00  9.71627E-01  3.48939E-01
    9005.771      8.829   2.160  1.31172E+00  9.76874E-01  3.34850E-01
    9006.435      9.494   2.200  1.28826E+00  9.81690E-01  3.06567E-01
    9007.112     10.170   2.240  1.26076E+00  9.86059E-01  2.74704E-01
    9007.801     10.859   2.280  1.23748E+00  9.89990E-01  2.47494E-01
    9008.502     11.560   2.320  1.21791E+00  9.93534E-01  2.24373E-01
    9009.215     12.273   2.360  1.19600E+00  9.96677E-01  1.99322E-01
    9009.940     12.999   2.400  1.16640E+00  9.99451E-01  1.66946E-01
    9010.678     13.736   2.440  1.12744E+00  1.00188E+00  1.25552E-01
    9011.428     14.486   2.480  1.08281E+00  1.00397E+00  7.88441E-02
    9012.190     15.248   2.520  1.03744E+00  1.00575E+00  3.16986E-02
    9012.964     16.022   2.560  9.93999E-01  1.00723E+00 -1.32333E-02
    9013.750     16.809   2.600  9.56021E-01  1.00842E+00 -5.23953E-02
    9014.549     17.607   2.640  9.28152E-01  1.00937E+00 -8.12159E-02
    9015.360     18.418   2.680  9.15917E-01  1.01005E+00 -9.41371E-02
    9016.183     19.241   2.720  9.09957E-01  1.01053E+00 -1.00570E-01
    9017.018     20.076   2.760  9.06241E-01  1.01080E+00 -1.04555E-01
    9017.865     20.924   2.800  9.04528E-01  1.01089E+00 -1.06359E-01
    9018.725     21.783   2.840  9.04661E-01  1.01079E+00 -1.06132E-01
    9019.596     22.655   2.880  9.06117E-01  1.01056E+00 -1.04442E-01
    9020.480     23.539   2.920  9.08429E-01  1.01019E+00 -1.01765E-01
    9021.376     24.435   2.960  9.11348E-01  1.00969E+00 -9.83385E-02
    9022.285     25.343   3.000  9.14611E-01  1.00908E+00 -9.44700E-02
    9023.205     26.264   3.040  9.17994E-01  1.00837E+00 -9.03721E-02
    9024.138     27.196   3.080  9.21550E-01  1.00759E+00 -8.60389E-02
    9025.083     28.141   3.120  9.24979E-01  1.00674E+00 -8.17580E-02
    9026.040     29.098   3.160  9.28039E-01  1.00581E+00 -7.77754E-02
    9027.009     30.068   3.200  9.30587E-01  1.00487E+00 -7.42814E-02
    9027.991     31.049   3.240  9.32456E-01  1.00388E+00 -7.14282E-02
    9028.984     32.043   3.280  9.33587E-01  1.00287E+00 -6.92792E-02
    9029.990     33.048   3.320  9.34087E-01  1.00184E+00 -6.77505E-02
    9031.008     34.067   3.360  9.34215E-01  1.00078E+00 -6.65676E-02
    9032.038     35.097   3.400  9.34197E-01  9.99748E-01 -6.55510E-02
    9033.081     36.139   3.440  9.34304E-01  9.98717E-01 -6.44131E-02
    9034.135     37.194   3.480  9.34820E-01  9.97693E-01 -6.28733E-02
    9035.202     38.261   3.520  9.35945E-01  9.96698E-01 -6.07532E-02
    9036.281     39.340   3.560  9.37754E-01  9.95736E-01 -5.79823E-02
    9037.372     40.431   3.600  9.40217E-01  9.94790E-01 -5.45723E-02
    9038.476     41.534   3.640  9.43429E-01  9.93901E-01 -5.04719E-02
    9039.591     42.650   3.680  9.47498E-01  9.93031E-01 -4.55331E-02
    9040.719     43.777   3.720  9.52815E-01  9.92223E-01 -3.94080E-02
    9041.859     44.917   3.760  9.59765E-01  9.91435E-01 -3.16700E-02
    9043.011     46.069   3.800  9.68574E-01  9.90713E-01 -2.21390E-02
    9044.175     47.234   3.840  9.79021E-01  9.90058E-01 -1.10366E-02
    9045.352     48.410   3.880  9.90488E-01  9.89428E-01  1.06023E-03
    9046.541     49.599   3.920  1.00221E+00  9.88866E-01  1.33477E-02
    9047.741     50.800   3.960  1.01341E+00  9.88372E-01  2.50336E-02
    9048.955     52.013   4.000  1.02356E+00  9.87925E-01  3.56390E-02
    9050.180     53.238   4.040  1.03250E+00  9.87527E-01  4.49773E-02
    9051.417     54.476   4.080  1.04016E+00  9.87196E-01  5.29672E-02
    9052.667     55.726   4.120  1.04651E+00  9.86914E-01  5.95925E-02
    9053.929     56.987   4.160  1.05159E+00  9.86699E-01  6.48943E-02
    9055.203     58.261   4.200  1.05540E+00  9.86532E-01  6.88660E-02
    9056.489     59.548   4.240  1.05779E+00  9.86411E-01  7.13830E-02
    9057.788     60.846   4.280  1.05866E+00  9.86356E-01  7.23042E-02
    9059.098     62.157   4.320  1.05780E+00  9.86347E-01  7.14580E-02
    9060.421     63.480   4.360  1.05522E+00  9.86382E-01  6.88413E-02
    9061.756     64.815   4.400  1.05123E+00  9.86482E-01  6.47505E-02
    9063.103     66.162   4.440  1.04626E+00  9.86603E-01  5.96617E-02
    9064.463     67.521   4.480  1.04086E+00  9.86786E-01  5.40736E-02
    9065.834     68.893   4.520  1.03551E+00  9.87011E-01  4.84942E-02
    9067.218     70.277   4.560  1.03067E+00  9.87274E-01  4.33981E-02
    9068.614     71.673   4.600  1.02666E+00  9.87552E-01  3.91097E-02
    9070.022     73.081   4.640  1.02356E+00  9.87886E-01  3.56731E-02
    9071.443     74.501   4.680  1.02101E+00  9.88233E-01  3.27766E-02
    9072.875     75.934   4.720  1.01839E+00  9.88592E-01  2.98002E-02
    9074.320     77.378   4.760  1.01507E+00  9.89005E-01  2.60630E-02
    9075.777     78.835   4.800  1.01053E+00  9.89427E-01  2.11037E-02
    9077.246     80.304   4.840  1.00471E+00  9.89855E-01  1.48527E-02
    9078.727     81.786   4.880  9.97924E-01  9.90309E-01  7.61496E-03
    9080.221     83.279   4.920  9.90628E-01  9.90744E-01 -1.15570E-04
    9081.727     84.785   4.960  9.83383E-01  9.91203E-01 -7.81982E-03
    9083.244     86.303   5.000  9.76605E-01  9.91663E-01 -1.50585E-02
    9084.775     87.833   5.040  9.70580E-01  9.92124E-01 -2.15439E-02
    9086.317     89.375   5.080  9.65422E-01  9.92583E-01 -2.71615E-02
    9087.871     90.930   5.120  9.61059E-01  9.93040E-01 -3.19806E-02
    9089.438     92.496   5.160  9.57284E-01  9.93491E-01 -3.62067E-02
    9091.017     94.075   5.200  9.53835E-01  9.93914E-01 -4.00787E-02
    9092.608     95.666   5.240  9.50598E-01  9.94326E-01 -4.37282E-02
    9094.211     97.270   5.280  9.47714E-01  9.94708E-01 -4.69941E-02
    9095.827     98.885   5.320  9.45676E-01  9.95078E-01 -4.94027E-02
    9097.454    100.513   5.360  9.45108E-01  9.95417E-01 -5.03083E-02
    9099.094    102.152   5.400  9.46464E-01  9.95742E-01 -4.92780E-02
    9100.746    103.804   5.440  9.49687E-01  9.96010E-01 -4.63234E-02
    9102.410    105.469   5.480  9.54378E-01  9.96286E-01 -4.19085E-02
    9104.087    107.145   5.520  9.59800E-01  9.96502E-01 -3.67026E-02
    9105.775    108.834   5.560  9.65312E-01  9.96680E-01 -3.13675E-02
    9107.476    110.534   5.600  9.70551E-01  9.96841E-01 -2.62901E-02
    9109.189    112.247   5.640  9.75499E-01  9.96941E-01 -2.14417E-02
    9110.914    113.973   5.680  9.80561E-01  9.97024E-01 -1.64637E-02
    9112.651    115.710   5.720  9.86009E-01  9.97069E-01 -1.10597E-02
    9114.401    117.459   5.760  9.91676E-01  9.97050E-01 -5.37398E-03
    9116.163    119.221   5.800  9.96965E-01  9.97015E-01 -5.04821E-05
    9117.937    120.995   5.840  1.00106E+00  9.96942E-01  4.12010E-03
    9119.723    122.781   5.880  1.00344E+00  9.96828E-01  6.61526E-03
    9121.521    124.580   5.920  1.00404E+00  9.96651E-01  7.38569E-03
    9123.332    126.390   5.960  1.00321E+00  9.96456E-01  6.75371E-03
    9125.154    128.213   6.000  1.00130E+00  9.96169E-01  5.13535E-03
