# # comment:                                                     FEFF 9.9.1  
# # Source:
# # Structure
# # Reduced
# # space
# # abc:
# # angles:
# # sites:
# # POT  SCF 100  7.0000   0, screened core-hole, AFOLP (folp(0)= 1.150)
# # Abs   Z=29 Rmt= 1.262 Rnm= 1.346 K  shell
# # Pot 1 Z=29 Rmt= 1.262 Rnm= 1.346
# # Pot 2 Z=78 Rmt= 1.349 Rnm= 1.466
# # Pot 3 Z= 8 Rmt= 1.009 Rnm= 1.091
# # Gam_ch=1.729E+00 H-L exch Vi= 0.000E+00 Vr= 0.000E+00
# # Mu=-6.264E+00eV kf=2.174E+00 Vint=-1.485E+01eV Rs_int= 1.668
# FMS rfms= 9.0000
# # PATH  Rmax=-1.000,  Keep_limit= 0.00, Heap_limit 0.00  Pwcrit= 2.50%
#  S02=0.950  Temp=   0.00  Debye_temp=   0.00  Global_sig2= 0.00000
#  Energy zero shift, vr, vi    0.00000E+00   0.00000E+00
#  Curved wave amplitude ratio filter   4.000%
#     file         sig2 tot  cw amp ratio   deg  nlegs   reff  inp sig2
#     0/   0 paths used
#  xsedge+ 50, used to normalize mu           2.4455E-04
#  -----------------------------------------------------------------------
#  omega    e    k    mu    mu0     chi     @#
    8983.477    -10.074  -1.000  4.37673E-02  5.67688E-02 -1.30015E-02
    8983.776     -9.775  -0.960  4.64832E-02  6.09684E-02 -1.44852E-02
    8984.063     -9.489  -0.920  4.94614E-02  6.56402E-02 -1.61788E-02
    8984.337     -9.214  -0.880  5.27356E-02  7.08539E-02 -1.81183E-02
    8984.599     -8.952  -0.840  5.63442E-02  7.66909E-02 -2.03466E-02
    8984.849     -8.702  -0.800  6.03304E-02  8.32452E-02 -2.29148E-02
    8985.087     -8.465  -0.760  6.47419E-02  9.06250E-02 -2.58831E-02
    8985.312     -8.239  -0.720  6.96307E-02  9.89525E-02 -2.93217E-02
    8985.526     -8.026  -0.680  7.50518E-02  1.08362E-01 -3.33103E-02
    8985.727     -7.825  -0.640  8.10605E-02  1.18996E-01 -3.79354E-02
    8985.916     -7.636  -0.600  8.77081E-02  1.30993E-01 -4.32852E-02
    8986.093     -7.459  -0.560  9.50355E-02  1.44474E-01 -4.94383E-02
    8986.257     -7.294  -0.520  1.03062E-01  1.59508E-01 -5.64458E-02
    8986.410     -7.142  -0.480  1.11775E-01  1.76081E-01 -6.43066E-02
    8986.550     -7.002  -0.440  1.21110E-01  1.94047E-01 -7.29379E-02
    8986.678     -6.874  -0.400  1.30942E-01  2.13093E-01 -8.21516E-02
    8986.794     -6.758  -0.360  1.41078E-01  2.32726E-01 -9.16487E-02
    8986.897     -6.654  -0.320  1.51261E-01  2.52307E-01 -1.01045E-01
    8986.989     -6.563  -0.280  1.61193E-01  2.71123E-01 -1.09930E-01
    8987.068     -6.483  -0.240  1.70556E-01  2.88491E-01 -1.17936E-01
    8987.135     -6.416  -0.200  1.79047E-01  3.03841E-01 -1.24794E-01
    8987.190     -6.362  -0.160  1.86392E-01  3.16752E-01 -1.30360E-01
    8987.232     -6.319  -0.120  1.92362E-01  3.26957E-01 -1.34595E-01
    8987.263     -6.288  -0.080  1.96777E-01  3.34309E-01 -1.37531E-01
    8987.287     -6.264   0.000  2.00447E-01  3.40215E-01 -1.39768E-01
    8987.342     -6.209   0.120  2.08867E-01  3.53536E-01 -1.44669E-01
    8987.385     -6.166   0.160  2.15528E-01  3.63876E-01 -1.48347E-01
    8987.440     -6.112   0.200  2.24368E-01  3.77082E-01 -1.52713E-01
    8987.507     -6.045   0.240  2.35569E-01  3.92974E-01 -1.57405E-01
    8987.586     -5.965   0.280  2.49361E-01  4.11214E-01 -1.61853E-01
    8987.677     -5.874   0.320  2.65991E-01  4.31335E-01 -1.65344E-01
    8987.781     -5.770   0.360  2.85704E-01  4.52739E-01 -1.67035E-01
    8987.897     -5.654   0.400  3.08669E-01  4.74807E-01 -1.66138E-01
    8988.025     -5.526   0.440  3.34848E-01  4.96978E-01 -1.62130E-01
    8988.165     -5.386   0.480  3.63762E-01  5.18794E-01 -1.55032E-01
    8988.318     -5.234   0.520  3.94172E-01  5.39935E-01 -1.45763E-01
    8988.482     -5.069   0.560  4.23936E-01  5.60313E-01 -1.36376E-01
    8988.659     -4.892   0.600  4.49840E-01  5.79828E-01 -1.29987E-01
    8988.848     -4.703   0.640  4.68581E-01  5.98581E-01 -1.30000E-01
    8989.049     -4.502   0.680  4.78003E-01  6.16607E-01 -1.38605E-01
    8989.262     -4.289   0.720  4.78583E-01  6.34000E-01 -1.55417E-01
    8989.488     -4.063   0.760  4.73325E-01  6.50890E-01 -1.77565E-01
    8989.726     -3.826   0.800  4.65372E-01  6.67317E-01 -2.01945E-01
    8989.976     -3.576   0.840  4.55122E-01  6.83346E-01 -2.28223E-01
    8990.238     -3.314   0.880  4.39380E-01  6.99050E-01 -2.59670E-01
    8990.512     -3.039   0.920  4.15637E-01  7.14426E-01 -2.98788E-01
    8990.799     -2.753   0.960  3.87565E-01  7.29538E-01 -3.41973E-01
    8991.097     -2.454   1.000  3.62053E-01  7.44340E-01 -3.82287E-01
    8991.408     -2.143   1.040  3.42574E-01  7.58876E-01 -4.16302E-01
    8991.731     -1.820   1.080  3.29696E-01  7.73124E-01 -4.43428E-01
    8992.067     -1.485   1.120  3.25390E-01  7.87074E-01 -4.61684E-01
    8992.414     -1.137   1.160  3.32407E-01  8.00690E-01 -4.68283E-01
    8992.774     -0.778   1.200  3.52188E-01  8.13976E-01 -4.61788E-01
    8993.146     -0.406   1.240  3.84787E-01  8.26910E-01 -4.42123E-01
    8993.530     -0.022   1.280  4.29060E-01  8.39449E-01 -4.10389E-01
    8993.926      0.375   1.320  4.81151E-01  8.51570E-01 -3.70419E-01
    8994.334      0.783   1.360  5.32726E-01  8.63269E-01 -3.30543E-01
    8994.755      1.204   1.400  5.76029E-01  8.74521E-01 -2.98492E-01
    8995.188      1.636   1.440  6.13077E-01  8.85302E-01 -2.72225E-01
    8995.633      2.081   1.480  6.53321E-01  8.95628E-01 -2.42308E-01
    8996.090      2.539   1.520  7.06586E-01  9.05436E-01 -1.98850E-01
    8996.559      3.008   1.560  7.80327E-01  9.14744E-01 -1.34417E-01
    8997.041      3.490   1.600  8.74262E-01  9.23532E-01 -4.92703E-02
    8997.535      3.983   1.640  9.82968E-01  9.31820E-01  5.11479E-02
    8998.041      4.489   1.680  1.11743E+00  9.39611E-01  1.77821E-01
    8998.559      5.007   1.720  1.29903E+00  9.46865E-01  3.52163E-01
    8999.089      5.538   1.760  1.51913E+00  9.53628E-01  5.65502E-01
    8999.632      6.080   1.800  1.71917E+00  9.59885E-01  7.59284E-01
    9000.186      6.635   1.840  1.81554E+00  9.65663E-01  8.49875E-01
    9000.753      7.202   1.880  1.77552E+00  9.70948E-01  8.04568E-01
    9001.332      7.781   1.920  1.65388E+00  9.75788E-01  6.78091E-01
    9001.924      8.372   1.960  1.53206E+00  9.80172E-01  5.51887E-01
    9002.527      8.976   2.000  1.44910E+00  9.84130E-01  4.64969E-01
    9003.143      9.592   2.040  1.38296E+00  9.87671E-01  3.95288E-01
    9003.771     10.220   2.080  1.28639E+00  9.90825E-01  2.95569E-01
    9004.411     10.860   2.120  1.17225E+00  9.93606E-01  1.78640E-01
    9005.063     11.512   2.160  1.08293E+00  9.96021E-01  8.69089E-02
    9005.728     12.176   2.200  1.03193E+00  9.98124E-01  3.38043E-02
    9006.404     12.853   2.240  1.01288E+00  9.99926E-01  1.29494E-02
    9007.093     13.542   2.280  1.01070E+00  1.00144E+00  9.26008E-03
    9007.794     14.243   2.320  1.01270E+00  1.00267E+00  1.00305E-02
    9008.507     14.956   2.360  1.01270E+00  1.00365E+00  9.05479E-03
    9009.233     15.682   2.400  1.01065E+00  1.00444E+00  6.21188E-03
    9009.970     16.419   2.440  1.00604E+00  1.00499E+00  1.04545E-03
    9010.720     17.169   2.480  9.91584E-01  1.00537E+00 -1.37877E-02
    9011.482     17.931   2.520  9.68704E-01  1.00558E+00 -3.68771E-02
    9012.256     18.705   2.560  9.53492E-01  1.00563E+00 -5.21407E-02
    9013.043     19.491   2.600  9.61807E-01  1.00555E+00 -4.37477E-02
    9013.841     20.290   2.640  9.78869E-01  1.00538E+00 -2.65077E-02
    9014.652     21.101   2.680  9.91402E-01  1.00509E+00 -1.36835E-02
    9015.475     21.924   2.720  9.95156E-01  1.00471E+00 -9.55104E-03
    9016.310     22.759   2.760  9.91373E-01  1.00427E+00 -1.28984E-02
    9017.158     23.606   2.800  9.84118E-01  1.00376E+00 -1.96463E-02
    9018.017     24.466   2.840  9.76435E-01  1.00321E+00 -2.67755E-02
    9018.889     25.338   2.880  9.68826E-01  1.00262E+00 -3.37926E-02
    9019.773     26.221   2.920  9.60375E-01  1.00201E+00 -4.16385E-02
    9020.669     27.118   2.960  9.50168E-01  1.00140E+00 -5.12318E-02
    9021.577     28.026   3.000  9.37727E-01  1.00076E+00 -6.30358E-02
    9022.498     28.946   3.040  9.23633E-01  1.00015E+00 -7.65124E-02
    9023.430     29.879   3.080  9.09201E-01  9.99531E-01 -9.03308E-02
    9024.375     30.824   3.120  8.96102E-01  9.98925E-01 -1.02823E-01
    9025.332     31.781   3.160  8.85375E-01  9.98350E-01 -1.12976E-01
    9026.302     32.750   3.200  8.77217E-01  9.97811E-01 -1.20594E-01
    9027.283     33.732   3.240  8.71532E-01  9.97309E-01 -1.25778E-01
    9028.277     34.725   3.280  8.67742E-01  9.96846E-01 -1.29104E-01
    9029.283     35.731   3.320  8.65424E-01  9.96424E-01 -1.31000E-01
    9030.301     36.749   3.360  8.64443E-01  9.96043E-01 -1.31601E-01
    9031.331     37.779   3.400  8.65112E-01  9.95706E-01 -1.30594E-01
    9032.373     38.822   3.440  8.67960E-01  9.95433E-01 -1.27473E-01
    9033.428     39.876   3.480  8.73351E-01  9.95186E-01 -1.21835E-01
    9034.495     40.943   3.520  8.81554E-01  9.95026E-01 -1.13472E-01
    9035.574     42.022   3.560  8.92493E-01  9.94893E-01 -1.02399E-01
    9036.665     43.113   3.600  9.06606E-01  9.94828E-01 -8.82216E-02
    9037.768     44.217   3.640  9.24490E-01  9.94832E-01 -7.03417E-02
    9038.884     45.332   3.680  9.46401E-01  9.94883E-01 -4.84824E-02
    9040.011     46.460   3.720  9.71890E-01  9.94978E-01 -2.30880E-02
    9041.151     47.600   3.760  9.99768E-01  9.95119E-01  4.64826E-03
    9042.304     48.752   3.800  1.02806E+00  9.95327E-01  3.27335E-02
    9043.468     49.917   3.840  1.05432E+00  9.95578E-01  5.87381E-02
    9044.644     51.093   3.880  1.07640E+00  9.95872E-01  8.05238E-02
    9045.833     52.282   3.920  1.09273E+00  9.96207E-01  9.65218E-02
    9047.034     53.483   3.960  1.10237E+00  9.96585E-01  1.05786E-01
    9048.247     54.696   4.000  1.10551E+00  9.97024E-01  1.08483E-01
    9049.472     55.921   4.040  1.10358E+00  9.97479E-01  1.06102E-01
    9050.710     57.159   4.080  1.09902E+00  9.97973E-01  1.01050E-01
    9051.960     58.408   4.120  1.09408E+00  9.98502E-01  9.55802E-02
    9053.221     59.670   4.160  1.08992E+00  9.99065E-01  9.08509E-02
    9054.495     60.944   4.200  1.08650E+00  9.99638E-01  8.68607E-02
    9055.782     62.230   4.240  1.08343E+00  1.00024E+00  8.31923E-02
    9057.080     63.529   4.280  1.08051E+00  1.00085E+00  7.96524E-02
    9058.391     64.839   4.320  1.07771E+00  1.00149E+00  7.62222E-02
    9059.714     66.162   4.360  1.07483E+00  1.00211E+00  7.27192E-02
    9061.049     67.497   4.400  1.07143E+00  1.00275E+00  6.86748E-02
    9062.396     68.845   4.440  1.06682E+00  1.00340E+00  6.34234E-02
    9063.755     70.204   4.480  1.06042E+00  1.00404E+00  5.63847E-02
    9065.127     71.576   4.520  1.05207E+00  1.00468E+00  4.73921E-02
    9066.511     72.959   4.560  1.04213E+00  1.00532E+00  3.68063E-02
    9067.907     74.355   4.600  1.03120E+00  1.00595E+00  2.52538E-02
    9069.315     75.763   4.640  1.02000E+00  1.00655E+00  1.34458E-02
    9070.735     77.184   4.680  1.00911E+00  1.00714E+00  1.96972E-03
    9072.168     78.616   4.720  9.98908E-01  1.00770E+00 -8.79484E-03
    9073.612     80.061   4.760  9.89641E-01  1.00823E+00 -1.85852E-02
    9075.069     81.518   4.800  9.81473E-01  1.00874E+00 -2.72645E-02
    9076.539     82.987   4.840  9.74380E-01  1.00924E+00 -3.48552E-02
    9078.020     84.468   4.880  9.68338E-01  1.00967E+00 -4.13365E-02
    9079.513     85.962   4.920  9.63797E-01  1.01010E+00 -4.62987E-02
    9081.019     87.468   4.960  9.61496E-01  1.01048E+00 -4.89814E-02
    9082.537     88.986   5.000  9.62081E-01  1.01080E+00 -4.87151E-02
    9084.067     90.516   5.040  9.65631E-01  1.01109E+00 -4.54641E-02
    9085.609     92.058   5.080  9.71523E-01  1.01135E+00 -3.98310E-02
    9087.164     93.612   5.120  9.78781E-01  1.01157E+00 -3.27912E-02
    9088.730     95.179   5.160  9.86237E-01  1.01175E+00 -2.55101E-02
    9090.309     96.758   5.200  9.92628E-01  1.01188E+00 -1.92503E-02
    9091.900     98.349   5.240  9.96849E-01  1.01194E+00 -1.50946E-02
    9093.504     99.952   5.280  9.98622E-01  1.01199E+00 -1.33640E-02
    9095.119    101.568   5.320  9.98326E-01  1.01196E+00 -1.36389E-02
    9096.747    103.195   5.360  9.96796E-01  1.01190E+00 -1.51034E-02
    9098.386    104.835   5.400  9.94848E-01  1.01181E+00 -1.69660E-02
    9100.038    106.487   5.440  9.93044E-01  1.01167E+00 -1.86207E-02
    9101.703    108.151   5.480  9.91811E-01  1.01147E+00 -1.96617E-02
    9103.379    109.828   5.520  9.91304E-01  1.01124E+00 -1.99335E-02
    9105.068    111.516   5.560  9.91285E-01  1.01096E+00 -1.96767E-02
    9106.768    113.217   5.600  9.91156E-01  1.01065E+00 -1.94921E-02
    9108.481    114.930   5.640  9.90320E-01  1.01032E+00 -1.99974E-02
    9110.207    116.655   5.680  9.88554E-01  1.00993E+00 -2.13726E-02
    9111.944    118.393   5.720  9.86256E-01  1.00952E+00 -2.32615E-02
    9113.693    120.142   5.760  9.84058E-01  1.00905E+00 -2.49920E-02
    9115.455    121.904   5.800  9.82613E-01  1.00857E+00 -2.59573E-02
    9117.229    123.678   5.840  9.82149E-01  1.00806E+00 -2.59090E-02
    9119.015    125.464   5.880  9.82511E-01  1.00754E+00 -2.50293E-02
    9120.814    127.262   5.920  9.83284E-01  1.00700E+00 -2.37115E-02
    9122.624    129.073   5.960  9.84201E-01  1.00643E+00 -2.22249E-02
    9124.447    130.895   6.000  9.85590E-01  1.00583E+00 -2.02446E-02
