# # comment:                                                     FEFF 9.9.1  
# # Source:
# # Structure
# # Reduced
# # space
# # abc:
# # angles:
# # sites:
# # POT  SCF 100  7.0000   0, screened core-hole, AFOLP (folp(0)= 1.150)
# # Abs   Z=29 Rmt= 1.270 Rnm= 1.335 K  shell
# # Pot 1 Z=11 Rmt= 1.600 Rnm= 1.642
# # Pot 2 Z=29 Rmt= 1.270 Rnm= 1.335
# # Pot 3 Z= 6 Rmt= 0.713 Rnm= 0.927
# # Pot 4 Z= 8 Rmt= 0.877 Rnm= 1.016
# # Gam_ch=1.729E+00 H-L exch Vi= 0.000E+00 Vr= 0.000E+00
# # Mu=-7.311E+00eV kf=2.546E+00 Vint=-1.785E+01eV Rs_int= 1.424
# FMS rfms= 9.0000
# # PATH  Rmax=-1.000,  Keep_limit= 0.00, Heap_limit 0.00  Pwcrit= 2.50%
#  S02=0.950  Temp=   0.00  Debye_temp=   0.00  Global_sig2= 0.00000
#  Energy zero shift, vr, vi    0.00000E+00   0.00000E+00
#  Curved wave amplitude ratio filter   4.000%
#     file         sig2 tot  cw amp ratio   deg  nlegs   reff  inp sig2
#     0/   0 paths used
#  xsedge+ 50, used to normalize mu           2.4906E-04
#  -----------------------------------------------------------------------
#  omega    e    k    mu    mu0     chi     @#
    8983.575    -11.121  -1.000  4.43275E-02  5.18712E-02 -7.54369E-03
    8983.874    -10.822  -0.960  4.74448E-02  5.56230E-02 -8.17818E-03
    8984.161    -10.536  -0.920  5.09517E-02  5.97932E-02 -8.84154E-03
    8984.435    -10.261  -0.880  5.49195E-02  6.44439E-02 -9.52440E-03
    8984.697     -9.999  -0.840  5.94348E-02  6.96473E-02 -1.02126E-02
    8984.947     -9.749  -0.800  6.46016E-02  7.54871E-02 -1.08855E-02
    8985.185     -9.512  -0.760  7.05447E-02  8.20594E-02 -1.15147E-02
    8985.410     -9.286  -0.720  7.74105E-02  8.94730E-02 -1.20625E-02
    8985.624     -9.073  -0.680  8.53669E-02  9.78478E-02 -1.24809E-02
    8985.825     -8.872  -0.640  9.45976E-02  1.07310E-01 -1.27127E-02
    8986.014     -8.683  -0.600  1.05289E-01  1.17985E-01 -1.26959E-02
    8986.191     -8.506  -0.560  1.17605E-01  1.29978E-01 -1.23736E-02
    8986.355     -8.341  -0.520  1.31643E-01  1.43354E-01 -1.17114E-02
    8986.507     -8.189  -0.480  1.47375E-01  1.58098E-01 -1.07229E-02
    8986.648     -8.049  -0.440  1.64584E-01  1.74081E-01 -9.49771E-03
    8986.776     -7.921  -0.400  1.82805E-01  1.91024E-01 -8.21860E-03
    8986.892     -7.805  -0.360  2.01338E-01  2.08487E-01 -7.14864E-03
    8986.995     -7.701  -0.320  2.19323E-01  2.25899E-01 -6.57568E-03
    8987.087     -7.610  -0.280  2.35902E-01  2.42627E-01 -6.72437E-03
    8987.166     -7.530  -0.240  2.50389E-01  2.58062E-01 -7.67289E-03
    8987.233     -7.463  -0.200  2.62382E-01  2.71697E-01 -9.31543E-03
    8987.288     -7.409  -0.160  2.71774E-01  2.83161E-01 -1.13878E-02
    8987.330     -7.366  -0.120  2.78674E-01  2.92219E-01 -1.35447E-02
    8987.361     -7.335  -0.080  2.83290E-01  2.98742E-01 -1.54512E-02
    8987.385     -7.311   0.000  2.86581E-01  3.03980E-01 -1.73988E-02
    8987.440     -7.256   0.120  2.93631E-01  3.15781E-01 -2.21500E-02
    8987.483     -7.213   0.160  2.98922E-01  3.24966E-01 -2.60444E-02
    8987.538     -7.159   0.200  3.05021E-01  3.36662E-01 -3.16407E-02
    8987.605     -7.092   0.240  3.11277E-01  3.50701E-01 -3.94242E-02
    8987.684     -7.012   0.280  3.16958E-01  3.66831E-01 -4.98723E-02
    8987.775     -6.921   0.320  3.21226E-01  3.84582E-01 -6.33557E-02
    8987.879     -6.817   0.360  3.23500E-01  4.03429E-01 -7.99288E-02
    8987.995     -6.701   0.400  3.23625E-01  4.22833E-01 -9.92080E-02
    8988.123     -6.573   0.440  3.21898E-01  4.42243E-01 -1.20345E-01
    8988.263     -6.433   0.480  3.19127E-01  4.61266E-01 -1.42139E-01
    8988.416     -6.281   0.520  3.16418E-01  4.79674E-01 -1.63256E-01
    8988.580     -6.116   0.560  3.14904E-01  4.97333E-01 -1.82429E-01
    8988.757     -5.939   0.600  3.15531E-01  5.14214E-01 -1.98684E-01
    8988.946     -5.750   0.640  3.18783E-01  5.30379E-01 -2.11595E-01
    8989.147     -5.549   0.680  3.24217E-01  5.45921E-01 -2.21704E-01
    8989.360     -5.336   0.720  3.30355E-01  5.60933E-01 -2.30578E-01
    8989.586     -5.110   0.760  3.35358E-01  5.75502E-01 -2.40144E-01
    8989.824     -4.873   0.800  3.38021E-01  5.89731E-01 -2.51710E-01
    8990.074     -4.623   0.840  3.37960E-01  6.03707E-01 -2.65748E-01
    8990.336     -4.361   0.880  3.35235E-01  6.17466E-01 -2.82232E-01
    8990.610     -4.086   0.920  3.30262E-01  6.31091E-01 -3.00829E-01
    8990.897     -3.800   0.960  3.24357E-01  6.44590E-01 -3.20233E-01
    8991.195     -3.501   1.000  3.20650E-01  6.57984E-01 -3.37334E-01
    8991.506     -3.190   1.040  3.23523E-01  6.71304E-01 -3.47781E-01
    8991.829     -2.867   1.080  3.36768E-01  6.84574E-01 -3.47806E-01
    8992.165     -2.532   1.120  3.60692E-01  6.97772E-01 -3.37079E-01
    8992.512     -2.184   1.160  3.90212E-01  7.10888E-01 -3.20677E-01
    8992.872     -1.825   1.200  4.17703E-01  7.23930E-01 -3.06228E-01
    8993.244     -1.453   1.240  4.41410E-01  7.36881E-01 -2.95471E-01
    8993.628     -1.069   1.280  4.69512E-01  7.49723E-01 -2.80211E-01
    8994.024     -0.673   1.320  5.14477E-01  7.62452E-01 -2.47975E-01
    8994.432     -0.264   1.360  5.84371E-01  7.75006E-01 -1.90635E-01
    8994.853      0.157   1.400  6.73556E-01  7.87418E-01 -1.13862E-01
    8995.286      0.589   1.440  7.57364E-01  7.99623E-01 -4.22589E-02
    8995.731      1.034   1.480  8.13167E-01  8.11634E-01  1.53223E-03
    8996.188      1.492   1.520  8.50316E-01  8.23401E-01  2.69151E-02
    8996.657      1.961   1.560  8.95669E-01  8.34917E-01  6.07521E-02
    8997.139      2.443   1.600  9.55102E-01  8.46155E-01  1.08948E-01
    8997.633      2.936   1.640  1.00887E+00  8.57085E-01  1.51784E-01
    8998.139      3.442   1.680  1.03827E+00  8.67701E-01  1.70571E-01
    8998.657      3.960   1.720  1.04428E+00  8.77997E-01  1.66283E-01
    8999.187      4.491   1.760  1.04352E+00  8.87943E-01  1.55579E-01
    8999.730      5.033   1.800  1.05708E+00  8.97514E-01  1.59564E-01
    9000.284      5.588   1.840  1.09255E+00  9.06705E-01  1.85850E-01
    9000.851      6.155   1.880  1.14027E+00  9.15512E-01  2.24756E-01
    9001.430      6.734   1.920  1.18151E+00  9.23909E-01  2.57600E-01
    9002.022      7.325   1.960  1.20439E+00  9.31915E-01  2.72473E-01
    9002.625      7.929   2.000  1.21494E+00  9.39508E-01  2.75432E-01
    9003.241      8.545   2.040  1.22516E+00  9.46685E-01  2.78474E-01
    9003.869      9.172   2.080  1.23362E+00  9.53427E-01  2.80191E-01
    9004.509      9.813   2.120  1.22806E+00  9.59774E-01  2.68282E-01
    9005.161     10.465   2.160  1.20149E+00  9.65688E-01  2.35807E-01
    9005.826     11.129   2.200  1.15910E+00  9.71211E-01  1.87891E-01
    9006.502     11.806   2.240  1.11208E+00  9.76305E-01  1.35776E-01
    9007.191     12.495   2.280  1.07115E+00  9.81014E-01  9.01358E-02
    9007.892     13.196   2.320  1.04412E+00  9.85323E-01  5.87981E-02
    9008.605     13.909   2.360  1.03513E+00  9.89257E-01  4.58681E-02
    9009.331     14.634   2.400  1.04282E+00  9.92819E-01  5.00006E-02
    9010.068     15.372   2.440  1.06262E+00  9.96018E-01  6.66063E-02
    9010.818     16.122   2.480  1.09184E+00  9.98857E-01  9.29779E-02
    9011.580     16.884   2.520  1.12822E+00  1.00136E+00  1.26853E-01
    9012.354     17.658   2.560  1.16555E+00  1.00354E+00  1.62010E-01
    9013.141     18.444   2.600  1.19391E+00  1.00541E+00  1.88497E-01
    9013.939     19.243   2.640  1.20370E+00  1.00700E+00  1.96696E-01
    9014.750     20.054   2.680  1.19063E+00  1.00830E+00  1.82329E-01
    9015.573     20.877   2.720  1.15628E+00  1.00933E+00  1.46945E-01
    9016.408     21.712   2.760  1.10719E+00  1.01013E+00  9.70597E-02
    9017.256     22.559   2.800  1.05601E+00  1.01068E+00  4.53296E-02
    9018.115     23.419   2.840  1.01371E+00  1.01102E+00  2.69564E-03
    9018.987     24.291   2.880  9.79646E-01  1.01116E+00 -3.15111E-02
    9019.871     25.174   2.920  9.46481E-01  1.01110E+00 -6.46183E-02
    9020.767     26.071   2.960  9.14774E-01  1.01088E+00 -9.61011E-02
    9021.675     26.979   3.000  8.87737E-01  1.01051E+00 -1.22774E-01
    9022.596     27.899   3.040  8.65557E-01  1.00999E+00 -1.44436E-01
    9023.528     28.832   3.080  8.47971E-01  1.00933E+00 -1.61357E-01
    9024.473     29.777   3.120  8.34356E-01  1.00856E+00 -1.74208E-01
    9025.430     30.734   3.160  8.24409E-01  1.00771E+00 -1.83299E-01
    9026.400     31.703   3.200  8.17859E-01  1.00674E+00 -1.88886E-01
    9027.381     32.685   3.240  8.14637E-01  1.00570E+00 -1.91065E-01
    9028.375     33.678   3.280  8.15122E-01  1.00461E+00 -1.89483E-01
    9029.380     34.684   3.320  8.19438E-01  1.00346E+00 -1.84023E-01
    9030.399     35.702   3.360  8.27222E-01  1.00225E+00 -1.75031E-01
    9031.429     36.732   3.400  8.38056E-01  1.00103E+00 -1.62972E-01
    9032.471     37.775   3.440  8.51242E-01  9.99769E-01 -1.48528E-01
    9033.526     38.829   3.480  8.66062E-01  9.98503E-01 -1.32440E-01
    9034.593     39.896   3.520  8.81904E-01  9.97232E-01 -1.15328E-01
    9035.672     40.975   3.560  8.98386E-01  9.95962E-01 -9.75757E-02
    9036.763     42.066   3.600  9.15068E-01  9.94694E-01 -7.96268E-02
    9037.866     43.170   3.640  9.31856E-01  9.93435E-01 -6.15792E-02
    9038.982     44.285   3.680  9.48919E-01  9.92228E-01 -4.33089E-02
    9040.109     45.413   3.720  9.66393E-01  9.91034E-01 -2.46411E-02
    9041.249     46.553   3.760  9.84485E-01  9.89876E-01 -5.39104E-03
    9042.401     47.705   3.800  1.00325E+00  9.88757E-01  1.44923E-02
    9043.566     48.869   3.840  1.02239E+00  9.87678E-01  3.47120E-02
    9044.742     50.046   3.880  1.04129E+00  9.86642E-01  5.46498E-02
    9045.931     51.235   3.920  1.05908E+00  9.85672E-01  7.34070E-02
    9047.132     52.436   3.960  1.07459E+00  9.84748E-01  8.98394E-02
    9048.345     53.649   4.000  1.08665E+00  9.83870E-01  1.02782E-01
    9049.570     54.874   4.040  1.09454E+00  9.83062E-01  1.11478E-01
    9050.808     56.111   4.080  1.09788E+00  9.82305E-01  1.15573E-01
    9052.058     57.361   4.120  1.09671E+00  9.81640E-01  1.15074E-01
    9053.319     58.623   4.160  1.09137E+00  9.81006E-01  1.10365E-01
    9054.593     59.897   4.200  1.08262E+00  9.80466E-01  1.02149E-01
    9055.880     61.183   4.240  1.07136E+00  9.79978E-01  9.13850E-02
    9057.178     62.482   4.280  1.05883E+00  9.79561E-01  7.92722E-02
    9058.489     63.792   4.320  1.04637E+00  9.79195E-01  6.71739E-02
    9059.812     65.115   4.360  1.03512E+00  9.78902E-01  5.62153E-02
    9061.147     66.450   4.400  1.02576E+00  9.78681E-01  4.70834E-02
    9062.494     67.797   4.440  1.01847E+00  9.78510E-01  3.99576E-02
    9063.853     69.157   4.480  1.01300E+00  9.78409E-01  3.45921E-02
    9065.225     70.528   4.520  1.00886E+00  9.78355E-01  3.05045E-02
    9066.609     71.912   4.560  1.00550E+00  9.78349E-01  2.71550E-02
    9068.005     73.308   4.600  1.00247E+00  9.78411E-01  2.40617E-02
    9069.413     74.716   4.640  9.99364E-01  9.78542E-01  2.08214E-02
    9070.833     76.137   4.680  9.95868E-01  9.78717E-01  1.71513E-02
    9072.266     77.569   4.720  9.91790E-01  9.78912E-01  1.28781E-02
    9073.710     79.014   4.760  9.87127E-01  9.79170E-01  7.95774E-03
    9075.167     80.471   4.800  9.81976E-01  9.79468E-01  2.50761E-03
    9076.636     81.940   4.840  9.76553E-01  9.79807E-01 -3.25348E-03
    9078.118     83.421   4.880  9.71125E-01  9.80183E-01 -9.05820E-03
    9079.611     84.915   4.920  9.65972E-01  9.80595E-01 -1.46226E-02
    9081.117     86.421   4.960  9.61318E-01  9.81019E-01 -1.97006E-02
    9082.635     87.939   5.000  9.57380E-01  9.81474E-01 -2.40940E-02
    9084.165     89.469   5.040  9.54252E-01  9.81960E-01 -2.77077E-02
    9085.707     91.011   5.080  9.51819E-01  9.82431E-01 -3.06117E-02
    9087.262     92.565   5.120  9.49953E-01  9.82949E-01 -3.29961E-02
    9088.828     94.132   5.160  9.48407E-01  9.83450E-01 -3.50424E-02
    9090.407     95.711   5.200  9.47207E-01  9.83951E-01 -3.67436E-02
    9091.998     97.302   5.240  9.46560E-01  9.84474E-01 -3.79142E-02
    9093.602     98.905   5.280  9.46657E-01  9.84976E-01 -3.83185E-02
    9095.217    100.521   5.320  9.47630E-01  9.85496E-01 -3.78653E-02
    9096.845    102.148   5.360  9.49306E-01  9.85986E-01 -3.66800E-02
    9098.484    103.788   5.400  9.51406E-01  9.86446E-01 -3.50405E-02
    9100.136    105.440   5.440  9.53672E-01  9.86899E-01 -3.32264E-02
    9101.801    107.104   5.480  9.55919E-01  9.87342E-01 -3.14236E-02
    9103.477    108.781   5.520  9.58026E-01  9.87752E-01 -2.97258E-02
    9105.166    110.469   5.560  9.60000E-01  9.88127E-01 -2.81263E-02
    9106.866    112.170   5.600  9.61979E-01  9.88487E-01 -2.65079E-02
    9108.579    113.883   5.640  9.64066E-01  9.88787E-01 -2.47211E-02
    9110.305    115.608   5.680  9.66392E-01  9.89071E-01 -2.26796E-02
    9112.042    117.346   5.720  9.68929E-01  9.89318E-01 -2.03888E-02
    9113.791    119.095   5.760  9.71671E-01  9.89526E-01 -1.78547E-02
    9115.553    120.857   5.800  9.74665E-01  9.89690E-01 -1.50253E-02
    9117.327    122.631   5.840  9.77984E-01  9.89790E-01 -1.18061E-02
    9119.113    124.417   5.880  9.81696E-01  9.89870E-01 -8.17381E-03
    9120.912    126.215   5.920  9.85581E-01  9.89885E-01 -4.30459E-03
    9122.722    128.026   5.960  9.89246E-01  9.89878E-01 -6.31910E-04
    9124.545    129.848   6.000  9.92112E-01  9.89774E-01  2.33816E-03
