# # comment:                                                     FEFF 9.9.1  
# # Source:
# # Structure
# # Reduced
# # space
# # abc:
# # angles:
# # sites:
# # POT  SCF 100  7.0000   0, screened core-hole, AFOLP (folp(0)= 1.150)
# # Abs   Z=29 Rmt= 1.133 Rnm= 1.284 K  shell
# # Pot 1 Z=56 Rmt= 1.941 Rnm= 1.992
# # Pot 2 Z=21 Rmt= 1.398 Rnm= 1.504
# # Pot 3 Z=29 Rmt= 1.133 Rnm= 1.284
# # Pot 4 Z= 8 Rmt= 1.049 Rnm= 1.123
# # Gam_ch=1.729E+00 H-L exch Vi= 0.000E+00 Vr= 0.000E+00
# # Mu=-9.580E+00eV kf=1.990E+00 Vint=-1.785E+01eV Rs_int= 1.822
# FMS rfms= 9.0000
# # PATH  Rmax=-1.000,  Keep_limit= 0.00, Heap_limit 0.00  Pwcrit= 2.50%
#  S02=0.950  Temp=   0.00  Debye_temp=   0.00  Global_sig2= 0.00000
#  Energy zero shift, vr, vi    0.00000E+00   0.00000E+00
#  Curved wave amplitude ratio filter   4.000%
#     file         sig2 tot  cw amp ratio   deg  nlegs   reff  inp sig2
#     0/   0 paths used
#  xsedge+ 50, used to normalize mu           2.4710E-04
#  -----------------------------------------------------------------------
#  omega    e    k    mu    mu0     chi     @#
    8984.849    -13.390  -1.000  3.43129E-02  5.24364E-02 -1.81235E-02
    8985.148    -13.091  -0.960  3.59921E-02  5.61824E-02 -2.01903E-02
    8985.434    -12.805  -0.920  3.77929E-02  6.03388E-02 -2.25459E-02
    8985.708    -12.531  -0.880  3.97290E-02  6.49655E-02 -2.52365E-02
    8985.970    -12.269  -0.840  4.18162E-02  7.01321E-02 -2.83159E-02
    8986.220    -12.019  -0.800  4.40730E-02  7.59192E-02 -3.18462E-02
    8986.458    -11.781  -0.760  4.65204E-02  8.24191E-02 -3.58987E-02
    8986.684    -11.555  -0.720  4.91821E-02  8.97361E-02 -4.05540E-02
    8986.897    -11.342  -0.680  5.20845E-02  9.79850E-02 -4.59005E-02
    8987.098    -11.141  -0.640  5.52549E-02  1.07287E-01 -5.20317E-02
    8987.287    -10.952  -0.600  5.87196E-02  1.17760E-01 -5.90400E-02
    8987.464    -10.775  -0.560  6.24992E-02  1.29505E-01 -6.70057E-02
    8987.629    -10.610  -0.520  6.66019E-02  1.42582E-01 -7.59804E-02
    8987.781    -10.458  -0.480  7.10132E-02  1.56977E-01 -8.59638E-02
    8987.921    -10.318  -0.440  7.56858E-02  1.72563E-01 -9.68775E-02
    8988.049    -10.190  -0.400  8.05306E-02  1.89071E-01 -1.08541E-01
    8988.165    -10.074  -0.360  8.54164E-02  2.06078E-01 -1.20661E-01
    8988.269     -9.970  -0.320  9.01820E-02  2.23033E-01 -1.32851E-01
    8988.360     -9.879  -0.280  9.46594E-02  2.39326E-01 -1.44667E-01
    8988.439     -9.800  -0.240  9.87009E-02  2.54369E-01 -1.55668E-01
    8988.506     -9.733  -0.200  1.02197E-01  2.67667E-01 -1.65469E-01
    8988.561     -9.678  -0.160  1.05082E-01  2.78857E-01 -1.73775E-01
    8988.604     -9.635  -0.120  1.07324E-01  2.87707E-01 -1.80383E-01
    8988.634     -9.605  -0.080  1.08915E-01  2.94085E-01 -1.85169E-01
    8988.659     -9.580   0.000  1.10175E-01  2.99210E-01 -1.89035E-01
    8988.714     -9.525   0.120  1.13251E-01  3.10771E-01 -1.97519E-01
    8988.756     -9.483   0.160  1.15522E-01  3.19761E-01 -2.04238E-01
    8988.811     -9.428   0.200  1.18361E-01  3.31259E-01 -2.12898E-01
    8988.878     -9.361   0.240  1.21695E-01  3.45098E-01 -2.23403E-01
    8988.958     -9.281   0.280  1.25434E-01  3.61034E-01 -2.35601E-01
    8989.049     -9.190   0.320  1.29436E-01  3.78639E-01 -2.49203E-01
    8989.153     -9.086   0.360  1.33677E-01  3.97448E-01 -2.63772E-01
    8989.268     -8.971   0.400  1.38109E-01  4.16946E-01 -2.78837E-01
    8989.396     -8.843   0.440  1.42798E-01  4.36639E-01 -2.93841E-01
    8989.537     -8.702   0.480  1.47843E-01  4.56144E-01 -3.08301E-01
    8989.689     -8.550   0.520  1.53511E-01  4.75248E-01 -3.21737E-01
    8989.854     -8.385   0.560  1.60107E-01  4.93803E-01 -3.33696E-01
    8990.030     -8.209   0.600  1.68026E-01  5.11800E-01 -3.43774E-01
    8990.219     -8.020   0.640  1.77785E-01  5.29289E-01 -3.51504E-01
    8990.421     -7.818   0.680  1.89890E-01  5.46336E-01 -3.56446E-01
    8990.634     -7.605   0.720  2.04903E-01  5.63018E-01 -3.58115E-01
    8990.859     -7.380   0.760  2.23337E-01  5.79408E-01 -3.56072E-01
    8991.097     -7.142   0.800  2.45693E-01  5.95594E-01 -3.49902E-01
    8991.347     -6.892   0.840  2.72243E-01  6.11589E-01 -3.39345E-01
    8991.609     -6.630   0.880  3.02937E-01  6.27472E-01 -3.24535E-01
    8991.884     -6.355   0.920  3.36627E-01  6.43274E-01 -3.06647E-01
    8992.170     -6.069   0.960  3.70858E-01  6.58990E-01 -2.88132E-01
    8992.469     -5.770   1.000  4.02660E-01  6.74607E-01 -2.71947E-01
    8992.780     -5.459   1.040  4.30404E-01  6.90164E-01 -2.59760E-01
    8993.103     -5.136   1.080  4.54734E-01  7.05631E-01 -2.50897E-01
    8993.438     -4.801   1.120  4.77691E-01  7.20974E-01 -2.43283E-01
    8993.786     -4.453   1.160  5.02880E-01  7.36174E-01 -2.33295E-01
    8994.145     -4.094   1.200  5.34236E-01  7.51227E-01 -2.16991E-01
    8994.517     -3.722   1.240  5.67621E-01  7.66087E-01 -1.98466E-01
    8994.901     -3.338   1.280  5.89939E-01  7.80704E-01 -1.90765E-01
    8995.297     -2.942   1.320  5.95787E-01  7.95068E-01 -1.99282E-01
    8995.706     -2.533   1.360  5.95928E-01  8.09151E-01 -2.13223E-01
    8996.126     -2.113   1.400  6.08845E-01  8.22898E-01 -2.14053E-01
    8996.559     -1.680   1.440  6.46272E-01  8.36298E-01 -1.90026E-01
    8997.004     -1.235   1.480  6.94502E-01  8.49319E-01 -1.54817E-01
    8997.461     -0.778   1.520  7.22584E-01  8.61910E-01 -1.39325E-01
    8997.931     -0.308   1.560  7.30421E-01  8.74081E-01 -1.43660E-01
    8998.412      0.173   1.600  7.35201E-01  8.85782E-01 -1.50581E-01
    8998.906      0.667   1.640  7.38566E-01  8.97006E-01 -1.58440E-01
    8999.412      1.173   1.680  7.51068E-01  9.07746E-01 -1.56678E-01
    8999.930      1.691   1.720  7.91433E-01  9.17954E-01 -1.26522E-01
    9000.461      2.222   1.760  8.59530E-01  9.27647E-01 -6.81174E-02
    9001.003      2.764   1.800  9.43058E-01  9.36803E-01  6.25512E-03
    9001.558      3.319   1.840  1.02952E+00  9.45439E-01  8.40759E-02
    9002.125      3.886   1.880  1.10145E+00  9.53516E-01  1.47937E-01
    9002.704      4.465   1.920  1.14795E+00  9.61076E-01  1.86877E-01
    9003.295      5.056   1.960  1.17392E+00  9.68102E-01  2.05818E-01
    9003.899      5.660   2.000  1.18389E+00  9.74597E-01  2.09293E-01
    9004.514      6.275   2.040  1.17395E+00  9.80585E-01  1.93366E-01
    9005.142      6.903   2.080  1.14709E+00  9.86074E-01  1.61017E-01
    9005.782      7.543   2.120  1.12227E+00  9.91070E-01  1.31201E-01
    9006.435      8.196   2.160  1.11571E+00  9.95582E-01  1.20127E-01
    9007.099      8.860   2.200  1.12757E+00  9.99636E-01  1.27934E-01
    9007.776      9.537   2.240  1.14748E+00  1.00324E+00  1.44237E-01
    9008.465     10.226   2.280  1.16743E+00  1.00643E+00  1.60999E-01
    9009.166     10.927   2.320  1.18765E+00  1.00921E+00  1.78442E-01
    9009.879     11.640   2.360  1.21005E+00  1.01161E+00  1.98441E-01
    9010.604     12.365   2.400  1.22253E+00  1.01365E+00  2.08885E-01
    9011.342     13.103   2.440  1.21133E+00  1.01533E+00  1.96005E-01
    9012.092     13.853   2.480  1.18963E+00  1.01670E+00  1.72927E-01
    9012.854     14.615   2.520  1.16843E+00  1.01776E+00  1.50670E-01
    9013.628     15.389   2.560  1.15120E+00  1.01853E+00  1.32676E-01
    9014.414     16.175   2.600  1.13836E+00  1.01904E+00  1.19315E-01
    9015.213     16.974   2.640  1.12894E+00  1.01932E+00  1.09624E-01
    9016.024     17.785   2.680  1.12102E+00  1.01938E+00  1.01642E-01
    9016.847     18.608   2.720  1.11289E+00  1.01923E+00  9.36564E-02
    9017.682     19.443   2.760  1.10355E+00  1.01889E+00  8.46546E-02
    9018.529     20.290   2.800  1.09265E+00  1.01839E+00  7.42653E-02
    9019.389     21.150   2.840  1.08019E+00  1.01775E+00  6.24468E-02
    9020.260     22.021   2.880  1.06665E+00  1.01695E+00  4.96994E-02
    9021.144     22.905   2.920  1.05268E+00  1.01606E+00  3.66161E-02
    9022.040     23.801   2.960  1.03885E+00  1.01506E+00  2.37915E-02
    9022.949     24.710   3.000  1.02501E+00  1.01400E+00  1.10093E-02
    9023.869     25.630   3.040  1.00973E+00  1.01283E+00 -3.10403E-03
    9024.802     26.563   3.080  9.91562E-01  1.01161E+00 -2.00511E-02
    9025.747     27.508   3.120  9.70528E-01  1.01035E+00 -3.98240E-02
    9026.704     28.465   3.160  9.48319E-01  1.00905E+00 -6.07330E-02
    9027.673     29.434   3.200  9.27509E-01  1.00774E+00 -8.02275E-02
    9028.654     30.415   3.240  9.10424E-01  1.00639E+00 -9.59693E-02
    9029.648     31.409   3.280  8.98238E-01  1.00505E+00 -1.06810E-01
    9030.654     32.415   3.320  8.91075E-01  1.00372E+00 -1.12646E-01
    9031.672     33.433   3.360  8.88353E-01  1.00238E+00 -1.14026E-01
    9032.702     34.463   3.400  8.89291E-01  1.00107E+00 -1.11775E-01
    9033.745     35.506   3.440  8.92996E-01  9.99785E-01 -1.06790E-01
    9034.799     36.560   3.480  8.98790E-01  9.98541E-01 -9.97509E-02
    9035.866     37.627   3.520  9.05997E-01  9.97312E-01 -9.13145E-02
    9036.945     38.706   3.560  9.13636E-01  9.96144E-01 -8.25081E-02
    9038.036     39.797   3.600  9.20363E-01  9.95021E-01 -7.46578E-02
    9039.140     40.901   3.640  9.24848E-01  9.93942E-01 -6.90936E-02
    9040.255     42.016   3.680  9.26326E-01  9.92930E-01 -6.66034E-02
    9041.383     43.144   3.720  9.24803E-01  9.91965E-01 -6.71622E-02
    9042.523     44.284   3.760  9.21287E-01  9.91049E-01 -6.97618E-02
    9043.675     45.436   3.800  9.17523E-01  9.90204E-01 -7.26804E-02
    9044.839     46.600   3.840  9.15453E-01  9.89432E-01 -7.39789E-02
    9046.016     47.777   3.880  9.16601E-01  9.88712E-01 -7.21110E-02
    9047.205     48.966   3.920  9.21679E-01  9.88065E-01 -6.63861E-02
    9048.405     50.166   3.960  9.30422E-01  9.87494E-01 -5.70722E-02
    9049.619     51.380   4.000  9.41863E-01  9.86997E-01 -4.51343E-02
    9050.844     52.605   4.040  9.54941E-01  9.86552E-01 -3.16103E-02
    9052.081     53.842   4.080  9.68794E-01  9.86179E-01 -1.73851E-02
    9053.331     55.092   4.120  9.82595E-01  9.85858E-01 -3.26288E-03
    9054.593     56.354   4.160  9.95709E-01  9.85611E-01  1.00984E-02
    9055.867     57.628   4.200  1.00764E+00  9.85437E-01  2.21981E-02
    9057.153     58.914   4.240  1.01802E+00  9.85335E-01  3.26858E-02
    9058.452     60.213   4.280  1.02666E+00  9.85261E-01  4.14021E-02
    9059.762     61.523   4.320  1.03362E+00  9.85279E-01  4.83378E-02
    9061.085     62.846   4.360  1.03889E+00  9.85345E-01  5.35440E-02
    9062.420     64.181   4.400  1.04244E+00  9.85455E-01  5.69895E-02
    9063.767     65.528   4.440  1.04432E+00  9.85612E-01  5.87089E-02
    9065.127     66.888   4.480  1.04447E+00  9.85834E-01  5.86310E-02
    9066.498     68.259   4.520  1.04279E+00  9.86100E-01  5.66917E-02
    9067.882     69.643   4.560  1.03947E+00  9.86408E-01  5.30576E-02
    9069.278     71.039   4.600  1.03500E+00  9.86755E-01  4.82426E-02
    9070.686     72.447   4.640  1.03018E+00  9.87142E-01  4.30366E-02
    9072.107     73.868   4.680  1.02580E+00  9.87565E-01  3.82350E-02
    9073.539     75.300   4.720  1.02224E+00  9.88024E-01  3.42171E-02
    9074.984     76.745   4.760  1.01936E+00  9.88495E-01  3.08660E-02
    9076.441     78.202   4.800  1.01687E+00  9.88996E-01  2.78716E-02
    9077.910     79.671   4.840  1.01464E+00  9.89506E-01  2.51310E-02
    9079.391     81.152   4.880  1.01301E+00  9.90044E-01  2.29647E-02
    9080.885     82.646   4.920  1.01248E+00  9.90589E-01  2.18925E-02
    9082.391     84.152   4.960  1.01328E+00  9.91137E-01  2.21451E-02
    9083.908     85.669   5.000  1.01520E+00  9.91708E-01  2.34884E-02
    9085.438     87.200   5.040  1.01784E+00  9.92258E-01  2.55776E-02
    9086.981     88.742   5.080  1.02122E+00  9.92829E-01  2.83942E-02
    9088.535     90.296   5.120  1.02559E+00  9.93375E-01  3.22102E-02
    9090.102     91.863   5.160  1.03092E+00  9.93915E-01  3.70025E-02
    9091.681     93.442   5.200  1.03629E+00  9.94452E-01  4.18350E-02
    9093.272     95.033   5.240  1.03983E+00  9.94981E-01  4.48533E-02
    9094.875     96.636   5.280  1.03961E+00  9.95478E-01  4.41343E-02
    9096.490     98.252   5.320  1.03487E+00  9.95941E-01  3.89331E-02
    9098.118     99.879   5.360  1.02647E+00  9.96393E-01  3.00766E-02
    9099.758    101.519   5.400  1.01598E+00  9.96809E-01  1.91692E-02
    9101.410    103.171   5.440  1.00457E+00  9.97189E-01  7.38388E-03
    9103.074    104.835   5.480  9.92544E-01  9.97554E-01 -5.01050E-03
    9104.751    106.512   5.520  9.79795E-01  9.97881E-01 -1.80860E-02
    9106.439    108.200   5.560  9.66674E-01  9.98146E-01 -3.14714E-02
    9108.140    109.901   5.600  9.54184E-01  9.98393E-01 -4.42092E-02
    9109.853    111.614   5.640  9.43442E-01  9.98602E-01 -5.51598E-02
    9111.578    113.339   5.680  9.35585E-01  9.98767E-01 -6.31820E-02
    9113.315    115.076   5.720  9.31633E-01  9.98868E-01 -6.72350E-02
    9115.065    116.826   5.760  9.32282E-01  9.98950E-01 -6.66683E-02
    9116.827    118.588   5.800  9.37202E-01  9.98968E-01 -6.17654E-02
    9118.601    120.362   5.840  9.45076E-01  9.98967E-01 -5.38914E-02
    9120.387    122.148   5.880  9.54051E-01  9.98902E-01 -4.48516E-02
    9122.185    123.946   5.920  9.62867E-01  9.98794E-01 -3.59272E-02
    9123.996    125.757   5.960  9.71033E-01  9.98639E-01 -2.76054E-02
    9125.818    127.579   6.000  9.78520E-01  9.98411E-01 -1.98910E-02
