# # comment:                                                     FEFF 9.9.1  
# # Source:
# # Structure
# # Reduced
# # space
# # abc:
# # angles:
# # sites:
# # POT  SCF 100  7.0000   0, screened core-hole, AFOLP (folp(0)= 1.150)
# # Abs   Z=29 Rmt= 1.248 Rnm= 1.338 K  shell
# # Pot 1 Z=26 Rmt= 1.327 Rnm= 1.431
# # Pot 2 Z=29 Rmt= 1.253 Rnm= 1.331
# # Pot 3 Z= 5 Rmt= 0.750 Rnm= 0.989
# # Pot 4 Z= 8 Rmt= 1.030 Rnm= 1.111
# # Gam_ch=1.729E+00 H-L exch Vi= 0.000E+00 Vr= 0.000E+00
# # Mu=-8.851E+00eV kf=2.225E+00 Vint=-1.685E+01eV Rs_int= 1.630
# FMS rfms= 9.0000
# # PATH  Rmax=-1.000,  Keep_limit= 0.00, Heap_limit 0.00  Pwcrit= 2.50%
#  S02=0.950  Temp=   0.00  Debye_temp=   0.00  Global_sig2= 0.00000
#  Energy zero shift, vr, vi    0.00000E+00   0.00000E+00
#  Curved wave amplitude ratio filter   4.000%
#     file         sig2 tot  cw amp ratio   deg  nlegs   reff  inp sig2
#     0/   0 paths used
#  xsedge+ 50, used to normalize mu           2.4764E-04
#  -----------------------------------------------------------------------
#  omega    e    k    mu    mu0     chi     @#
    8983.839    -12.661  -1.000  3.40304E-02  5.00169E-02 -1.59866E-02
    8984.138    -12.363  -0.960  3.55961E-02  5.35300E-02 -1.79338E-02
    8984.424    -12.076  -0.920  3.72568E-02  5.74236E-02 -2.01667E-02
    8984.699    -11.802  -0.880  3.90206E-02  6.17528E-02 -2.27322E-02
    8984.961    -11.540  -0.840  4.08966E-02  6.65818E-02 -2.56852E-02
    8985.211    -11.290  -0.800  4.28954E-02  7.19847E-02 -2.90894E-02
    8985.449    -11.052  -0.760  4.50286E-02  7.80466E-02 -3.30180E-02
    8985.674    -10.826  -0.720  4.73092E-02  8.48634E-02 -3.75542E-02
    8985.888    -10.613  -0.680  4.97509E-02  9.25405E-02 -4.27896E-02
    8986.089    -10.412  -0.640  5.23678E-02  1.01189E-01 -4.88213E-02
    8986.278    -10.223  -0.600  5.51724E-02  1.10918E-01 -5.57457E-02
    8986.454    -10.046  -0.560  5.81732E-02  1.21820E-01 -6.36468E-02
    8986.619     -9.882  -0.520  6.13706E-02  1.33949E-01 -7.25788E-02
    8986.771     -9.729  -0.480  6.47509E-02  1.47292E-01 -8.25413E-02
    8986.912     -9.589  -0.440  6.82803E-02  1.61732E-01 -9.34516E-02
    8987.040     -9.461  -0.400  7.18997E-02  1.77019E-01 -1.05120E-01
    8987.155     -9.345  -0.360  7.55250E-02  1.92764E-01 -1.17239E-01
    8987.259     -9.241  -0.320  7.90533E-02  2.08460E-01 -1.29406E-01
    8987.351     -9.150  -0.280  8.23770E-02  2.23542E-01 -1.41165E-01
    8987.430     -9.071  -0.240  8.53986E-02  2.37467E-01 -1.52068E-01
    8987.497     -9.004  -0.200  8.80416E-02  2.49780E-01 -1.61738E-01
    8987.552     -8.949  -0.160  9.02531E-02  2.60143E-01 -1.69890E-01
    8987.594     -8.906  -0.120  9.19998E-02  2.68341E-01 -1.76341E-01
    8987.625     -8.876  -0.080  9.32609E-02  2.74250E-01 -1.80990E-01
    8987.649     -8.851   0.000  9.42815E-02  2.79001E-01 -1.84720E-01
    8987.704     -8.796   0.120  9.66494E-02  2.89723E-01 -1.93074E-01
    8987.747     -8.754   0.160  9.84559E-02  2.98054E-01 -1.99598E-01
    8987.802     -8.699   0.200  1.00781E-01  3.08724E-01 -2.07943E-01
    8987.869     -8.632   0.240  1.03591E-01  3.21560E-01 -2.17968E-01
    8987.948     -8.553   0.280  1.06913E-01  3.36364E-01 -2.29451E-01
    8988.039     -8.461   0.320  1.10719E-01  3.52741E-01 -2.42022E-01
    8988.143     -8.358   0.360  1.15034E-01  3.70251E-01 -2.55216E-01
    8988.259     -8.242   0.400  1.19935E-01  3.88443E-01 -2.68507E-01
    8988.387     -8.114   0.440  1.25417E-01  4.06867E-01 -2.81450E-01
    8988.527     -7.974   0.480  1.31444E-01  4.25170E-01 -2.93727E-01
    8988.679     -7.821   0.520  1.37855E-01  4.43160E-01 -3.05305E-01
    8988.844     -7.657   0.560  1.44380E-01  4.60700E-01 -3.16320E-01
    8989.021     -7.480   0.600  1.50882E-01  4.77802E-01 -3.26920E-01
    8989.210     -7.291   0.640  1.57611E-01  4.94474E-01 -3.36863E-01
    8989.411     -7.090   0.680  1.65413E-01  5.10815E-01 -3.45402E-01
    8989.624     -6.876   0.720  1.75422E-01  5.26875E-01 -3.51453E-01
    8989.850     -6.651   0.760  1.88876E-01  5.42740E-01 -3.53863E-01
    8990.088     -6.413   0.800  2.06714E-01  5.58469E-01 -3.51755E-01
    8990.338     -6.163   0.840  2.29643E-01  5.74112E-01 -3.44469E-01
    8990.600     -5.901   0.880  2.58701E-01  5.89703E-01 -3.31002E-01
    8990.874     -5.627   0.920  2.95821E-01  6.05286E-01 -3.09465E-01
    8991.161     -5.340   0.960  3.42841E-01  6.20856E-01 -2.78015E-01
    8991.459     -5.041   1.000  3.98489E-01  6.36416E-01 -2.37927E-01
    8991.770     -4.730   1.040  4.55964E-01  6.51963E-01 -1.95998E-01
    8992.093     -4.407   1.080  5.06265E-01  6.67507E-01 -1.61242E-01
    8992.429     -4.072   1.120  5.47860E-01  6.82991E-01 -1.35131E-01
    8992.776     -3.725   1.160  5.88059E-01  6.98416E-01 -1.10356E-01
    8993.136     -3.365   1.200  6.27834E-01  7.13757E-01 -8.59225E-02
    8993.507     -2.993   1.240  6.53459E-01  7.28966E-01 -7.55070E-02
    8993.892     -2.609   1.280  6.51882E-01  7.44034E-01 -9.21527E-02
    8994.288     -2.213   1.320  6.32515E-01  7.58910E-01 -1.26396E-01
    8994.696     -1.804   1.360  6.18948E-01  7.73561E-01 -1.54612E-01
    8995.117     -1.384   1.400  6.24584E-01  7.87952E-01 -1.63368E-01
    8995.550     -0.951   1.440  6.48489E-01  8.02053E-01 -1.53564E-01
    8995.995     -0.506   1.480  6.82954E-01  8.15827E-01 -1.32873E-01
    8996.452     -0.049   1.520  7.24257E-01  8.29264E-01 -1.05007E-01
    8996.921      0.421   1.560  7.72160E-01  8.42288E-01 -7.01282E-02
    8997.403      0.902   1.600  8.23163E-01  8.54910E-01 -3.17475E-02
    8997.897      1.396   1.640  8.76645E-01  8.67099E-01  9.54620E-03
    8998.403      1.902   1.680  9.28896E-01  8.78844E-01  5.00521E-02
    8998.921      2.420   1.720  9.71697E-01  8.90076E-01  8.16218E-02
    8999.451      2.950   1.760  1.00802E+00  9.00850E-01  1.07173E-01
    8999.994      3.493   1.800  1.05172E+00  9.11098E-01  1.40625E-01
    9000.548      4.048   1.840  1.12003E+00  9.20818E-01  1.99208E-01
    9001.115      4.615   1.880  1.22050E+00  9.30026E-01  2.90470E-01
    9001.694      5.194   1.920  1.33843E+00  9.38701E-01  3.99728E-01
    9002.286      5.785   1.960  1.44158E+00  9.46863E-01  4.94715E-01
    9002.889      6.389   2.000  1.48041E+00  9.54473E-01  5.25933E-01
    9003.505      7.004   2.040  1.42539E+00  9.61574E-01  4.63819E-01
    9004.133      7.632   2.080  1.32195E+00  9.68149E-01  3.53799E-01
    9004.773      8.272   2.120  1.22750E+00  9.74224E-01  2.53277E-01
    9005.425      8.925   2.160  1.15247E+00  9.79803E-01  1.72669E-01
    9006.090      9.589   2.200  1.09114E+00  9.84873E-01  1.06271E-01
    9006.766     10.266   2.240  1.04407E+00  9.89503E-01  5.45642E-02
    9007.455     10.955   2.280  1.01745E+00  9.93660E-01  2.37914E-02
    9008.156     11.656   2.320  1.00920E+00  9.97393E-01  1.18088E-02
    9008.869     12.369   2.360  1.00562E+00  1.00069E+00  4.92959E-03
    9009.595     13.094   2.400  1.00137E+00  1.00358E+00 -2.20701E-03
    9010.332     13.832   2.440  1.00032E+00  1.00610E+00 -5.78142E-03
    9011.082     14.582   2.480  1.00499E+00  1.00825E+00 -3.25768E-03
    9011.844     15.344   2.520  1.01875E+00  1.01006E+00  8.68577E-03
    9012.618     16.118   2.560  1.04312E+00  1.01156E+00  3.15611E-02
    9013.405     16.904   2.600  1.07222E+00  1.01275E+00  5.94634E-02
    9014.203     17.703   2.640  1.09120E+00  1.01365E+00  7.75562E-02
    9015.014     18.514   2.680  1.09200E+00  1.01431E+00  7.76918E-02
    9015.837     19.336   2.720  1.08001E+00  1.01470E+00  6.53054E-02
    9016.672     20.172   2.760  1.05995E+00  1.01488E+00  4.50653E-02
    9017.520     21.019   2.800  1.03510E+00  1.01486E+00  2.02416E-02
    9018.379     21.878   2.840  1.00863E+00  1.01464E+00 -6.00926E-03
    9019.251     22.750   2.880  9.83307E-01  1.01428E+00 -3.09703E-02
    9020.135     23.634   2.920  9.60944E-01  1.01373E+00 -5.27904E-02
    9021.031     24.530   2.960  9.42496E-01  1.01308E+00 -7.05871E-02
    9021.939     25.439   3.000  9.27669E-01  1.01229E+00 -8.46228E-02
    9022.860     26.359   3.040  9.15810E-01  1.01143E+00 -9.56166E-02
    9023.792     27.292   3.080  9.06303E-01  1.01043E+00 -1.04132E-01
    9024.737     28.237   3.120  8.98632E-01  1.00940E+00 -1.10772E-01
    9025.694     29.194   3.160  8.92415E-01  1.00828E+00 -1.15865E-01
    9026.663     30.163   3.200  8.87619E-01  1.00713E+00 -1.19511E-01
    9027.645     31.144   3.240  8.84179E-01  1.00592E+00 -1.21738E-01
    9028.639     32.138   3.280  8.82112E-01  1.00469E+00 -1.22578E-01
    9029.644     33.144   3.320  8.81553E-01  1.00343E+00 -1.21881E-01
    9030.662     34.162   3.360  8.82861E-01  1.00219E+00 -1.19332E-01
    9031.693     35.192   3.400  8.86124E-01  1.00093E+00 -1.14807E-01
    9032.735     36.235   3.440  8.91391E-01  9.99691E-01 -1.08300E-01
    9033.790     37.289   3.480  8.98680E-01  9.98459E-01 -9.97784E-02
    9034.856     38.356   3.520  9.08012E-01  9.97236E-01 -8.92239E-02
    9035.935     39.435   3.560  9.19258E-01  9.96068E-01 -7.68097E-02
    9037.027     40.526   3.600  9.32128E-01  9.94915E-01 -6.27877E-02
    9038.130     41.629   3.640  9.46255E-01  9.93803E-01 -4.75483E-02
    9039.246     42.745   3.680  9.61119E-01  9.92754E-01 -3.16346E-02
    9040.373     43.873   3.720  9.76118E-01  9.91748E-01 -1.56301E-02
    9041.513     45.013   3.760  9.90786E-01  9.90787E-01 -9.36660E-07
    9042.665     46.165   3.800  1.00469E+00  9.89871E-01  1.48200E-02
    9043.830     47.329   3.840  1.01743E+00  9.89022E-01  2.84054E-02
    9045.006     48.506   3.880  1.02863E+00  9.88224E-01  4.04050E-02
    9046.195     49.694   3.920  1.03799E+00  9.87495E-01  5.04899E-02
    9047.396     50.895   3.960  1.04518E+00  9.86818E-01  5.83665E-02
    9048.609     52.108   4.000  1.05013E+00  9.86234E-01  6.38988E-02
    9049.834     53.334   4.040  1.05274E+00  9.85681E-01  6.70600E-02
    9051.072     54.571   4.080  1.05316E+00  9.85222E-01  6.79369E-02
    9052.321     55.821   4.120  1.05168E+00  9.84813E-01  6.68629E-02
    9053.583     57.083   4.160  1.04890E+00  9.84453E-01  6.44467E-02
    9054.857     58.357   4.200  1.04553E+00  9.84166E-01  6.13599E-02
    9056.144     59.643   4.240  1.04211E+00  9.83953E-01  5.81604E-02
    9057.442     60.941   4.280  1.03902E+00  9.83810E-01  5.52074E-02
    9058.753     62.252   4.320  1.03630E+00  9.83695E-01  5.26015E-02
    9060.076     63.575   4.360  1.03388E+00  9.83671E-01  5.02125E-02
    9061.411     64.910   4.400  1.03153E+00  9.83672E-01  4.78525E-02
    9062.758     66.257   4.440  1.02914E+00  9.83762E-01  4.53769E-02
    9064.117     67.617   4.480  1.02656E+00  9.83875E-01  4.26856E-02
    9065.489     68.988   4.520  1.02378E+00  9.84032E-01  3.97470E-02
    9066.873     70.372   4.560  1.02089E+00  9.84253E-01  3.66399E-02
    9068.269     71.768   4.600  1.01808E+00  9.84517E-01  3.35669E-02
    9069.677     73.176   4.640  1.01561E+00  9.84820E-01  3.07938E-02
    9071.097     74.596   4.680  1.01360E+00  9.85160E-01  2.84387E-02
    9072.530     76.029   4.720  1.01177E+00  9.85517E-01  2.62530E-02
    9073.974     77.474   4.760  1.00974E+00  9.85930E-01  2.38115E-02
    9075.431     78.931   4.800  1.00718E+00  9.86356E-01  2.08191E-02
    9076.900     80.400   4.840  1.00411E+00  9.86813E-01  1.72945E-02
    9078.382     81.881   4.880  1.00079E+00  9.87277E-01  1.35172E-02
    9079.875     83.375   4.920  9.97421E-01  9.87748E-01  9.67300E-03
    9081.381     84.880   4.960  9.93913E-01  9.88246E-01  5.66721E-03
    9082.899     86.398   5.000  9.89963E-01  9.88749E-01  1.21396E-03
    9084.429     87.928   5.040  9.85343E-01  9.89277E-01 -3.93392E-03
    9085.971     89.471   5.080  9.80004E-01  9.89784E-01 -9.77942E-03
    9087.526     91.025   5.120  9.74142E-01  9.90288E-01 -1.61458E-02
    9089.092     92.592   5.160  9.68016E-01  9.90812E-01 -2.27957E-02
    9090.671     94.171   5.200  9.61796E-01  9.91310E-01 -2.95137E-02
    9092.262     95.762   5.240  9.55643E-01  9.91779E-01 -3.61358E-02
    9093.866     97.365   5.280  9.49784E-01  9.92260E-01 -4.24769E-02
    9095.481     98.980   5.320  9.44313E-01  9.92691E-01 -4.83782E-02
    9097.109    100.608   5.360  9.39495E-01  9.93135E-01 -5.36406E-02
    9098.748    102.248   5.400  9.35450E-01  9.93546E-01 -5.80961E-02
    9100.400    103.900   5.440  9.32370E-01  9.93920E-01 -6.15504E-02
    9102.065    105.564   5.480  9.30487E-01  9.94259E-01 -6.37716E-02
    9103.741    107.240   5.520  9.30078E-01  9.94582E-01 -6.45039E-02
    9105.430    108.929   5.560  9.31252E-01  9.94845E-01 -6.35932E-02
    9107.130    110.630   5.600  9.34163E-01  9.95092E-01 -6.09289E-02
    9108.843    112.343   5.640  9.38935E-01  9.95301E-01 -5.63659E-02
    9110.568    114.068   5.680  9.45676E-01  9.95471E-01 -4.97942E-02
    9112.306    115.805   5.720  9.54227E-01  9.95601E-01 -4.13737E-02
    9114.055    117.555   5.760  9.63993E-01  9.95690E-01 -3.16969E-02
    9115.817    119.317   5.800  9.74007E-01  9.95738E-01 -2.17304E-02
    9117.591    121.090   5.840  9.83248E-01  9.95743E-01 -1.24953E-02
    9119.377    122.877   5.880  9.90981E-01  9.95684E-01 -4.70310E-03
    9121.175    124.675   5.920  9.97070E-01  9.95608E-01  1.46272E-03
    9122.986    126.485   5.960  1.00185E+00  9.95462E-01  6.38606E-03
    9124.809    128.308   6.000  1.00634E+00  9.95276E-01  1.10657E-02
