# # comment:                                                     FEFF 9.9.1  
# # Source:
# # Structure
# # Reduced
# # space
# # abc:
# # angles:153.298471
# # sites:
# # POT  SCF 100  7.0000   0, screened core-hole, AFOLP (folp(0)= 1.150)
# # Abs   Z=29 Rmt= 1.305 Rnm= 1.370 K  shell
# # Pot 1 Z=57 Rmt= 1.707 Rnm= 1.807
# # Pot 2 Z=29 Rmt= 1.311 Rnm= 1.372
# # Pot 3 Z=16 Rmt= 1.392 Rnm= 1.465
# # Pot 4 Z= 8 Rmt= 1.032 Rnm= 1.108
# # Gam_ch=1.729E+00 H-L exch Vi= 0.000E+00 Vr= 0.000E+00
# # Mu=-6.991E+00eV kf=1.974E+00 Vint=-1.652E+01eV Rs_int= 1.837
# FMS rfms= 9.0000
# # PATH  Rmax=-1.000,  Keep_limit= 0.00, Heap_limit 0.00  Pwcrit= 2.50%
#  S02=0.950  Temp=   0.00  Debye_temp=   0.00  Global_sig2= 0.00000
#  Energy zero shift, vr, vi    0.00000E+00   0.00000E+00
#  Curved wave amplitude ratio filter   4.000%
#     file         sig2 tot  cw amp ratio   deg  nlegs   reff  inp sig2
#     0/   0 paths used
#  xsedge+ 50, used to normalize mu           2.4537E-04
#  -----------------------------------------------------------------------
#  omega    e    k    mu    mu0     chi     @#
    8984.155    -10.801  -1.000  5.05628E-02  6.02179E-02 -9.65513E-03
    8984.454    -10.502  -0.960  5.37809E-02  6.47921E-02 -1.10112E-02
    8984.740    -10.216  -0.920  5.72978E-02  6.98914E-02 -1.25936E-02
    8985.014     -9.941  -0.880  6.11511E-02  7.55946E-02 -1.44435E-02
    8985.277     -9.679  -0.840  6.53839E-02  8.19934E-02 -1.66094E-02
    8985.527     -9.429  -0.800  7.00459E-02  8.91941E-02 -1.91482E-02
    8985.764     -9.191  -0.760  7.51931E-02  9.73191E-02 -2.21260E-02
    8985.990     -8.966  -0.720  8.08885E-02  1.06507E-01 -2.56183E-02
    8986.203     -8.753  -0.680  8.72003E-02  1.16910E-01 -2.97094E-02
    8986.404     -8.551  -0.640  9.41996E-02  1.28689E-01 -3.44894E-02
    8986.593     -8.362  -0.600  1.01955E-01  1.42004E-01 -4.00490E-02
    8986.770     -8.186  -0.560  1.10521E-01  1.56990E-01 -4.64690E-02
    8986.935     -8.021  -0.520  1.19925E-01  1.73729E-01 -5.38047E-02
    8987.087     -7.869  -0.480  1.30143E-01  1.92206E-01 -6.20636E-02
    8987.227     -7.728  -0.440  1.41078E-01  2.12259E-01 -7.11801E-02
    8987.355     -7.600  -0.400  1.52540E-01  2.33533E-01 -8.09931E-02
    8987.471     -7.485  -0.360  1.64236E-01  2.55474E-01 -9.12382E-02
    8987.575     -7.381  -0.320  1.75797E-01  2.77360E-01 -1.01563E-01
    8987.666     -7.290  -0.280  1.86820E-01  2.98391E-01 -1.11570E-01
    8987.745     -7.210  -0.240  1.96927E-01  3.17797E-01 -1.20870E-01
    8987.813     -7.143  -0.200  2.05808E-01  3.34937E-01 -1.29130E-01
    8987.867     -7.088  -0.160  2.13244E-01  3.49346E-01 -1.36102E-01
    8987.910     -7.046  -0.120  2.19101E-01  3.60728E-01 -1.41627E-01
    8987.941     -7.015  -0.080  2.23306E-01  3.68922E-01 -1.45616E-01
    8987.965     -6.991   0.000  2.26661E-01  3.75500E-01 -1.48839E-01
    8988.020     -6.936   0.120  2.34277E-01  3.90327E-01 -1.56050E-01
    8988.062     -6.893   0.160  2.40186E-01  4.01839E-01 -1.61653E-01
    8988.117     -6.838   0.200  2.47716E-01  4.16509E-01 -1.68793E-01
    8988.184     -6.771   0.240  2.56790E-01  4.34120E-01 -1.77330E-01
    8988.264     -6.692   0.280  2.67309E-01  4.54316E-01 -1.87008E-01
    8988.355     -6.601   0.320  2.79062E-01  4.76492E-01 -1.97430E-01
    8988.459     -6.497   0.360  2.91953E-01  4.99993E-01 -2.08040E-01
    8988.575     -6.381   0.400  3.06025E-01  5.24103E-01 -2.18077E-01
    8988.703     -6.253   0.440  3.21445E-01  5.48127E-01 -2.26682E-01
    8988.843     -6.113   0.480  3.38638E-01  5.71560E-01 -2.32923E-01
    8988.995     -5.961   0.520  3.58112E-01  5.94058E-01 -2.35946E-01
    8989.160     -5.796   0.560  3.80311E-01  6.15471E-01 -2.35160E-01
    8989.337     -5.619   0.600  4.05296E-01  6.35739E-01 -2.30443E-01
    8989.525     -5.430   0.640  4.32663E-01  6.54930E-01 -2.22268E-01
    8989.727     -5.229   0.680  4.61566E-01  6.73141E-01 -2.11575E-01
    8989.940     -5.016   0.720  4.90969E-01  6.90461E-01 -1.99492E-01
    8990.166     -4.790   0.760  5.19949E-01  7.07001E-01 -1.87052E-01
    8990.403     -4.552   0.800  5.47841E-01  7.22883E-01 -1.75042E-01
    8990.653     -4.302   0.840  5.74449E-01  7.38171E-01 -1.63722E-01
    8990.915     -4.040   0.880  6.00367E-01  7.52952E-01 -1.52585E-01
    8991.190     -3.766   0.920  6.26843E-01  7.67240E-01 -1.40397E-01
    8991.476     -3.480   0.960  6.55629E-01  7.81093E-01 -1.25464E-01
    8991.775     -3.181   1.000  6.88614E-01  7.94535E-01 -1.05922E-01
    8992.086     -2.870   1.040  7.28017E-01  8.07585E-01 -7.95686E-02
    8992.409     -2.547   1.080  7.76785E-01  8.20230E-01 -4.34443E-02
    8992.744     -2.212   1.120  8.37983E-01  8.32468E-01  5.51488E-03
    8993.092     -1.864   1.160  9.12095E-01  8.44335E-01  6.77592E-02
    8993.451     -1.504   1.200  9.92542E-01  8.55761E-01  1.36781E-01
    8993.823     -1.133   1.240  1.06204E+00  8.66797E-01  1.95248E-01
    8994.207     -0.749   1.280  1.09892E+00  8.77385E-01  2.21540E-01
    8994.603     -0.352   1.320  1.09778E+00  8.87549E-01  2.10231E-01
    8995.012      0.056   1.360  1.07440E+00  8.97274E-01  1.77123E-01
    8995.432      0.477   1.400  1.04633E+00  9.06520E-01  1.39810E-01
    8995.865      0.910   1.440  1.02130E+00  9.15310E-01  1.05989E-01
    8996.310      1.355   1.480  1.00085E+00  9.23647E-01  7.72026E-02
    8996.768      1.812   1.520  9.85297E-01  9.31513E-01  5.37844E-02
    8997.237      2.281   1.560  9.74525E-01  9.38891E-01  3.56338E-02
    8997.718      2.763   1.600  9.69188E-01  9.45806E-01  2.33820E-02
    8998.212      3.257   1.640  9.72420E-01  9.52261E-01  2.01590E-02
    8998.718      3.762   1.680  9.86611E-01  9.58263E-01  2.83480E-02
    8999.236      4.281   1.720  1.00714E+00  9.63798E-01  4.33463E-02
    8999.767      4.811   1.760  1.02470E+00  9.68893E-01  5.58065E-02
    9000.309      5.354   1.800  1.03621E+00  9.73574E-01  6.26320E-02
    9000.864      5.908   1.840  1.04708E+00  9.77831E-01  6.92447E-02
    9001.431      6.475   1.880  1.06151E+00  9.81671E-01  7.98428E-02
    9002.010      7.054   1.920  1.07469E+00  9.85146E-01  8.95486E-02
    9002.601      7.646   1.960  1.07752E+00  9.88245E-01  8.92782E-02
    9003.205      8.249   2.000  1.06823E+00  9.90995E-01  7.72335E-02
    9003.821      8.865   2.040  1.05182E+00  9.93410E-01  5.84127E-02
    9004.448      9.493   2.080  1.03426E+00  9.95517E-01  3.87451E-02
    9005.089     10.133   2.120  1.02027E+00  9.97328E-01  2.29372E-02
    9005.741     10.785   2.160  1.01291E+00  9.98856E-01  1.40532E-02
    9006.405     11.450   2.200  1.01609E+00  1.00015E+00  1.59418E-02
    9007.082     12.126   2.240  1.03449E+00  1.00119E+00  3.32985E-02
    9007.771     12.815   2.280  1.07004E+00  1.00203E+00  6.80156E-02
    9008.472     13.516   2.320  1.11470E+00  1.00265E+00  1.12049E-01
    9009.185     14.229   2.360  1.15287E+00  1.00310E+00  1.49773E-01
    9009.910     14.955   2.400  1.16243E+00  1.00338E+00  1.59044E-01
    9010.648     15.692   2.440  1.14499E+00  1.00353E+00  1.41458E-01
    9011.398     16.442   2.480  1.11635E+00  1.00355E+00  1.12800E-01
    9012.160     17.204   2.520  1.08545E+00  1.00344E+00  8.20097E-02
    9012.934     17.978   2.560  1.05570E+00  1.00325E+00  5.24561E-02
    9013.720     18.765   2.600  1.02856E+00  1.00294E+00  2.56209E-02
    9014.519     19.563   2.640  1.00464E+00  1.00260E+00  2.03420E-03
    9015.330     20.374   2.680  9.84267E-01  1.00219E+00 -1.79197E-02
    9016.153     21.197   2.720  9.67726E-01  1.00170E+00 -3.39792E-02
    9016.988     22.032   2.760  9.54853E-01  1.00120E+00 -4.63496E-02
    9017.835     22.879   2.800  9.45382E-01  1.00069E+00 -5.53049E-02
    9018.695     23.739   2.840  9.38845E-01  1.00014E+00 -6.12944E-02
    9019.566     24.611   2.880  9.34560E-01  9.99586E-01 -6.50257E-02
    9020.450     25.495   2.920  9.31210E-01  9.99030E-01 -6.78200E-02
    9021.346     26.391   2.960  9.27954E-01  9.98476E-01 -7.05220E-02
    9022.255     27.299   3.000  9.24952E-01  9.97948E-01 -7.29961E-02
    9023.175     28.220   3.040  9.22879E-01  9.97428E-01 -7.45484E-02
    9024.108     29.152   3.080  9.22542E-01  9.96940E-01 -7.43985E-02
    9025.053     30.097   3.120  9.24161E-01  9.96486E-01 -7.23252E-02
    9026.010     31.054   3.160  9.27769E-01  9.96047E-01 -6.82778E-02
    9026.979     32.023   3.200  9.33089E-01  9.95666E-01 -6.25764E-02
    9027.961     33.005   3.240  9.39559E-01  9.95303E-01 -5.57440E-02
    9028.954     33.999   3.280  9.46704E-01  9.95002E-01 -4.82989E-02
    9029.960     35.004   3.320  9.53928E-01  9.94744E-01 -4.08168E-02
    9030.978     36.022   3.360  9.60599E-01  9.94528E-01 -3.39290E-02
    9032.008     37.053   3.400  9.66182E-01  9.94354E-01 -2.81713E-02
    9033.051     38.095   3.440  9.70552E-01  9.94244E-01 -2.36922E-02
    9034.105     39.150   3.480  9.73851E-01  9.94157E-01 -2.03058E-02
    9035.172     40.216   3.520  9.76375E-01  9.94133E-01 -1.77585E-02
    9036.251     41.295   3.560  9.78414E-01  9.94154E-01 -1.57395E-02
    9037.342     42.387   3.600  9.80260E-01  9.94239E-01 -1.39789E-02
    9038.446     43.490   3.640  9.82147E-01  9.94345E-01 -1.21976E-02
    9039.561     44.606   3.680  9.84516E-01  9.94512E-01 -9.99642E-03
    9040.689     45.733   3.720  9.87814E-01  9.94699E-01 -6.88547E-03
    9041.829     46.873   3.760  9.92531E-01  9.94948E-01 -2.41707E-03
    9042.981     48.025   3.800  9.98917E-01  9.95236E-01  3.68127E-03
    9044.145     49.190   3.840  1.00701E+00  9.95541E-01  1.14729E-02
    9045.322     50.366   3.880  1.01674E+00  9.95903E-01  2.08379E-02
    9046.511     51.555   3.920  1.02782E+00  9.96279E-01  3.15386E-02
    9047.712     52.756   3.960  1.03974E+00  9.96690E-01  4.30474E-02
    9048.925     53.969   4.000  1.05164E+00  9.97133E-01  5.45037E-02
    9050.150     55.194   4.040  1.06242E+00  9.97587E-01  6.48291E-02
    9051.387     56.432   4.080  1.07096E+00  9.98069E-01  7.28896E-02
    9052.637     57.681   4.120  1.07631E+00  9.98558E-01  7.77515E-02
    9053.899     58.943   4.160  1.07792E+00  9.99052E-01  7.88684E-02
    9055.173     60.217   4.200  1.07565E+00  9.99571E-01  7.60803E-02
    9056.459     61.504   4.240  1.06972E+00  1.00009E+00  6.96305E-02
    9057.758     62.802   4.280  1.06075E+00  1.00062E+00  6.01360E-02
    9059.068     64.113   4.320  1.04959E+00  1.00114E+00  4.84508E-02
    9060.391     65.435   4.360  1.03725E+00  1.00166E+00  3.55904E-02
    9061.726     66.770   4.400  1.02462E+00  1.00218E+00  2.24435E-02
    9063.073     68.118   4.440  1.01242E+00  1.00269E+00  9.72816E-03
    9064.433     69.477   4.480  1.00114E+00  1.00317E+00 -2.03346E-03
    9065.804     70.849   4.520  9.91164E-01  1.00365E+00 -1.24844E-02
    9067.188     72.232   4.560  9.82703E-01  1.00411E+00 -2.14116E-02
    9068.584     73.628   4.600  9.75773E-01  1.00455E+00 -2.87748E-02
    9069.992     75.037   4.640  9.70280E-01  1.00495E+00 -3.46670E-02
    9071.413     76.457   4.680  9.66129E-01  1.00533E+00 -3.92049E-02
    9072.845     77.890   4.720  9.63215E-01  1.00569E+00 -4.24723E-02
    9074.290     79.334   4.760  9.61503E-01  1.00603E+00 -4.45237E-02
    9075.747     80.791   4.800  9.60955E-01  1.00633E+00 -4.53757E-02
    9077.216     82.260   4.840  9.61559E-01  1.00660E+00 -4.50375E-02
    9078.697     83.742   4.880  9.63293E-01  1.00682E+00 -4.35305E-02
    9080.191     85.235   4.920  9.66103E-01  1.00704E+00 -4.09327E-02
    9081.697     86.741   4.960  9.69730E-01  1.00721E+00 -3.74795E-02
    9083.215     88.259   5.000  9.73730E-01  1.00732E+00 -3.35898E-02
    9084.745     89.789   5.040  9.77638E-01  1.00741E+00 -2.97736E-02
    9086.287     91.331   5.080  9.81026E-01  1.00746E+00 -2.64381E-02
    9087.841     92.886   5.120  9.83736E-01  1.00748E+00 -2.37409E-02
    9089.408     94.452   5.160  9.85860E-01  1.00745E+00 -2.15905E-02
    9090.987     96.031   5.200  9.87617E-01  1.00738E+00 -1.97677E-02
    9092.578     97.622   5.240  9.89198E-01  1.00730E+00 -1.81035E-02
    9094.181     99.225   5.280  9.90580E-01  1.00716E+00 -1.65785E-02
    9095.797    100.841   5.320  9.91841E-01  1.00700E+00 -1.51553E-02
    9097.424    102.469   5.360  9.93225E-01  1.00677E+00 -1.35489E-02
    9099.064    104.108   5.400  9.95350E-01  1.00654E+00 -1.11869E-02
    9100.716    105.760   5.440  9.98859E-01  1.00629E+00 -7.42647E-03
    9102.380    107.425   5.480  1.00414E+00  1.00598E+00 -1.83776E-03
    9104.057    109.101   5.520  1.01125E+00  1.00565E+00  5.59761E-03
    9105.745    110.790   5.560  1.01967E+00  1.00529E+00  1.43758E-02
    9107.446    112.490   5.600  1.02844E+00  1.00490E+00  2.35383E-02
    9109.159    114.203   5.640  1.03644E+00  1.00449E+00  3.19419E-02
    9110.884    115.928   5.680  1.04273E+00  1.00406E+00  3.86773E-02
    9112.621    117.666   5.720  1.04698E+00  1.00361E+00  4.33702E-02
    9114.371    119.415   5.760  1.04931E+00  1.00314E+00  4.61786E-02
    9116.133    121.177   5.800  1.05021E+00  1.00265E+00  4.75518E-02
    9117.907    122.951   5.840  1.05014E+00  1.00217E+00  4.79734E-02
    9119.693    124.737   5.880  1.04943E+00  1.00166E+00  4.77720E-02
    9121.491    126.535   5.920  1.04810E+00  1.00112E+00  4.69754E-02
    9123.302    128.346   5.960  1.04586E+00  1.00062E+00  4.52391E-02
    9125.124    130.169   6.000  1.04182E+00  1.00009E+00  4.17303E-02
