# # comment:                                                     FEFF 9.9.1  
# # Source:
# # Structure
# # Reduced
# # space
# # abc:
# # angles:114.077447
# # sites:
# # POT  SCF 100  7.0000   0, screened core-hole, AFOLP (folp(0)= 1.150)
# # Abs   Z=29 Rmt= 1.218 Rnm= 1.298 K  shell
# # Pot 1 Z=56 Rmt= 1.945 Rnm= 2.005
# # Pot 2 Z=39 Rmt= 1.636 Rnm= 1.705
# # Pot 3 Z=29 Rmt= 1.217 Rnm= 1.298
# # Pot 4 Z= 8 Rmt= 1.055 Rnm= 1.108
# # Gam_ch=1.729E+00 H-L exch Vi= 0.000E+00 Vr= 0.000E+00
# # Mu=-7.986E+00eV kf=2.001E+00 Vint=-1.732E+01eV Rs_int= 1.812
# FMS rfms= 9.0000
# # PATH  Rmax=-1.000,  Keep_limit= 0.00, Heap_limit 0.00  Pwcrit= 2.50%
#  S02=0.950  Temp=   0.00  Debye_temp=   0.00  Global_sig2= 0.00000
#  Energy zero shift, vr, vi    0.00000E+00   0.00000E+00
#  Curved wave amplitude ratio filter   4.000%
#     file         sig2 tot  cw amp ratio   deg  nlegs   reff  inp sig2
#     0/   0 paths used
#  xsedge+ 50, used to normalize mu           2.4385E-04
#  -----------------------------------------------------------------------
#  omega    e    k    mu    mu0     chi     @#
    8984.966    -11.796  -1.000  4.47160E-02  5.90202E-02 -1.43042E-02
    8985.265    -11.498  -0.960  4.74172E-02  6.34465E-02 -1.60293E-02
    8985.551    -11.211  -0.920  5.03733E-02  6.83759E-02 -1.80026E-02
    8985.825    -10.937  -0.880  5.36190E-02  7.38832E-02 -2.02641E-02
    8986.087    -10.675  -0.840  5.71947E-02  8.00557E-02 -2.28610E-02
    8986.337    -10.425  -0.800  6.11469E-02  8.69946E-02 -2.58477E-02
    8986.575    -10.187  -0.760  6.55289E-02  9.48162E-02 -2.92873E-02
    8986.801     -9.961  -0.720  7.04006E-02  1.03652E-01 -3.32512E-02
    8987.014     -9.748  -0.680  7.58281E-02  1.13646E-01 -3.78183E-02
    8987.215     -9.547  -0.640  8.18806E-02  1.24953E-01 -4.30724E-02
    8987.404     -9.358  -0.600  8.86258E-02  1.37722E-01 -4.90965E-02
    8987.581     -9.181  -0.560  9.61209E-02  1.52083E-01 -5.59619E-02
    8987.746     -9.016  -0.520  1.04399E-01  1.68112E-01 -6.37126E-02
    8987.898     -8.864  -0.480  1.13452E-01  1.85794E-01 -7.23424E-02
    8988.038     -8.724  -0.440  1.23205E-01  2.04974E-01 -8.17696E-02
    8988.166     -8.596  -0.400  1.33500E-01  2.25315E-01 -9.18154E-02
    8988.282     -8.480  -0.360  1.44090E-01  2.46289E-01 -1.02199E-01
    8988.386     -8.376  -0.320  1.54649E-01  2.67208E-01 -1.12558E-01
    8988.477     -8.285  -0.280  1.64811E-01  2.87309E-01 -1.22497E-01
    8988.556     -8.206  -0.240  1.74216E-01  3.05859E-01 -1.31643E-01
    8988.623     -8.139  -0.200  1.82554E-01  3.22248E-01 -1.39694E-01
    8988.678     -8.084  -0.160  1.89591E-01  3.36028E-01 -1.46437E-01
    8988.721     -8.041  -0.120  1.95173E-01  3.46916E-01 -1.51743E-01
    8988.751     -8.011  -0.080  1.99209E-01  3.54756E-01 -1.55547E-01
    8988.776     -7.986   0.000  2.02471E-01  3.61052E-01 -1.58580E-01
    8988.831     -7.931   0.120  2.09686E-01  3.75249E-01 -1.65562E-01
    8988.873     -7.889   0.160  2.15289E-01  3.86265E-01 -1.70976E-01
    8988.928     -7.834   0.200  2.22440E-01  4.00323E-01 -1.77883E-01
    8988.995     -7.767   0.240  2.31040E-01  4.17221E-01 -1.86182E-01
    8989.075     -7.688   0.280  2.40848E-01  4.36588E-01 -1.95740E-01
    8989.166     -7.596   0.320  2.51594E-01  4.57911E-01 -2.06316E-01
    8989.270     -7.492   0.360  2.62906E-01  4.80557E-01 -2.17651E-01
    8989.385     -7.377   0.400  2.74350E-01  5.03810E-01 -2.29461E-01
    8989.513     -7.249   0.440  2.85699E-01  5.27077E-01 -2.41378E-01
    8989.654     -7.108   0.480  2.96853E-01  5.49861E-01 -2.53008E-01
    8989.806     -6.956   0.520  3.07997E-01  5.71838E-01 -2.63841E-01
    8989.971     -6.791   0.560  3.19568E-01  5.92865E-01 -2.73298E-01
    8990.147     -6.615   0.600  3.32122E-01  6.12887E-01 -2.80764E-01
    8990.336     -6.426   0.640  3.46344E-01  6.31967E-01 -2.85623E-01
    8990.538     -6.225   0.680  3.63097E-01  6.50195E-01 -2.87098E-01
    8990.751     -6.011   0.720  3.83537E-01  6.67674E-01 -2.84137E-01
    8990.976     -5.786   0.760  4.08699E-01  6.84507E-01 -2.75809E-01
    8991.214     -5.548   0.800  4.38135E-01  7.00787E-01 -2.62653E-01
    8991.464     -5.298   0.840  4.67854E-01  7.16572E-01 -2.48718E-01
    8991.726     -5.036   0.880  4.90028E-01  7.31943E-01 -2.41915E-01
    8992.001     -4.762   0.920  4.97206E-01  7.46946E-01 -2.49740E-01
    8992.287     -4.475   0.960  4.89182E-01  7.61575E-01 -2.72392E-01
    8992.586     -4.176   1.000  4.74166E-01  7.75890E-01 -3.01724E-01
    8992.897     -3.865   1.040  4.61441E-01  7.89881E-01 -3.28440E-01
    8993.220     -3.542   1.080  4.55533E-01  8.03554E-01 -3.48021E-01
    8993.555     -3.207   1.120  4.57186E-01  8.16901E-01 -3.59714E-01
    8993.903     -2.860   1.160  4.66564E-01  8.29893E-01 -3.63330E-01
    8994.262     -2.500   1.200  4.83862E-01  8.42517E-01 -3.58655E-01
    8994.634     -2.128   1.240  5.08861E-01  8.54796E-01 -3.45935E-01
    8995.018     -1.744   1.280  5.40631E-01  8.66670E-01 -3.26039E-01
    8995.414     -1.348   1.320  5.79069E-01  8.78117E-01 -2.99048E-01
    8995.823     -0.939   1.360  6.28251E-01  8.89158E-01 -2.60907E-01
    8996.243     -0.519   1.400  6.94453E-01  8.99750E-01 -2.05296E-01
    8996.676     -0.086   1.440  7.80347E-01  9.09889E-01 -1.29542E-01
    8997.121      0.359   1.480  8.83914E-01  9.19554E-01 -3.56396E-02
    8997.578      0.816   1.520  1.00726E+00  9.28743E-01  7.85124E-02
    8998.048      1.286   1.560  1.14383E+00  9.37436E-01  2.06391E-01
    8998.529      1.767   1.600  1.24814E+00  9.45630E-01  3.02511E-01
    8999.023      2.261   1.640  1.28197E+00  9.53329E-01  3.28637E-01
    8999.529      2.767   1.680  1.30793E+00  9.60514E-01  3.47415E-01
    9000.047      3.285   1.720  1.40028E+00  9.67229E-01  4.33055E-01
    9000.578      3.816   1.760  1.53802E+00  9.73436E-01  5.64586E-01
    9001.120      4.358   1.800  1.62491E+00  9.79141E-01  6.45772E-01
    9001.675      4.913   1.840  1.58323E+00  9.84391E-01  5.98837E-01
    9002.242      5.480   1.880  1.46424E+00  9.89172E-01  4.75069E-01
    9002.821      6.059   1.920  1.35824E+00  9.93513E-01  3.64731E-01
    9003.412      6.650   1.960  1.27952E+00  9.97401E-01  2.82121E-01
    9004.016      7.254   2.000  1.21439E+00  1.00086E+00  2.13527E-01
    9004.631      7.869   2.040  1.16959E+00  1.00393E+00  1.65658E-01
    9005.259      8.497   2.080  1.15363E+00  1.00662E+00  1.47007E-01
    9005.899      9.137   2.120  1.14936E+00  1.00893E+00  1.40428E-01
    9006.552      9.790   2.160  1.12787E+00  1.01090E+00  1.16972E-01
    9007.216     10.454   2.200  1.07904E+00  1.01254E+00  6.64993E-02
    9007.893     11.131   2.240  1.02344E+00  1.01387E+00  9.57046E-03
    9008.582     11.820   2.280  9.83639E-01  1.01491E+00 -3.12743E-02
    9009.283     12.521   2.320  9.69929E-01  1.01570E+00 -4.57685E-02
    9009.996     13.234   2.360  9.82154E-01  1.01623E+00 -3.40771E-02
    9010.721     13.959   2.400  1.01686E+00  1.01655E+00  3.11449E-04
    9011.459     14.697   2.440  1.06459E+00  1.01666E+00  4.79366E-02
    9012.209     15.447   2.480  1.09714E+00  1.01658E+00  8.05568E-02
    9012.971     16.209   2.520  1.11429E+00  1.01632E+00  9.79615E-02
    9013.745     16.983   2.560  1.11825E+00  1.01593E+00  1.02322E-01
    9014.531     17.769   2.600  1.11104E+00  1.01540E+00  9.56384E-02
    9015.330     18.568   2.640  1.09540E+00  1.01477E+00  8.06288E-02
    9016.141     19.379   2.680  1.07435E+00  1.01402E+00  6.03300E-02
    9016.964     20.202   2.720  1.05078E+00  1.01319E+00  3.75855E-02
    9017.799     21.037   2.760  1.02645E+00  1.01228E+00  1.41642E-02
    9018.646     21.884   2.800  1.00231E+00  1.01132E+00 -9.01332E-03
    9019.506     22.744   2.840  9.78874E-01  1.01032E+00 -3.14428E-02
    9020.377     23.615   2.880  9.56276E-01  1.00927E+00 -5.29962E-02
    9021.261     24.499   2.920  9.34162E-01  1.00822E+00 -7.40539E-02
    9022.157     25.395   2.960  9.12959E-01  1.00715E+00 -9.41943E-02
    9023.066     26.304   3.000  8.94113E-01  1.00607E+00 -1.11954E-01
    9023.986     27.224   3.040  8.79264E-01  1.00501E+00 -1.25742E-01
    9024.919     28.157   3.080  8.69196E-01  1.00397E+00 -1.34776E-01
    9025.864     29.102   3.120  8.64009E-01  1.00295E+00 -1.38940E-01
    9026.821     30.059   3.160  8.62719E-01  1.00196E+00 -1.39242E-01
    9027.790     31.028   3.200  8.63928E-01  1.00101E+00 -1.37083E-01
    9028.772     32.009   3.240  8.66246E-01  1.00010E+00 -1.33855E-01
    9029.765     33.003   3.280  8.68626E-01  9.99234E-01 -1.30608E-01
    9030.771     34.009   3.320  8.71021E-01  9.98432E-01 -1.27411E-01
    9031.789     35.027   3.360  8.74231E-01  9.97657E-01 -1.23426E-01
    9032.819     36.057   3.400  8.79573E-01  9.96974E-01 -1.17401E-01
    9033.862     37.100   3.440  8.87569E-01  9.96343E-01 -1.08774E-01
    9034.916     38.154   3.480  8.98463E-01  9.95783E-01 -9.73202E-02
    9035.983     39.221   3.520  9.12153E-01  9.95275E-01 -8.31222E-02
    9037.062     40.300   3.560  9.28295E-01  9.94842E-01 -6.65468E-02
    9038.153     41.391   3.600  9.46269E-01  9.94484E-01 -4.82149E-02
    9039.257     42.494   3.640  9.65068E-01  9.94180E-01 -2.91117E-02
    9040.372     43.610   3.680  9.83537E-01  9.93972E-01 -1.04352E-02
    9041.500     44.738   3.720  1.00020E+00  9.93798E-01  6.39817E-03
    9042.640     45.878   3.760  1.01406E+00  9.93720E-01  2.03352E-02
    9043.792     47.030   3.800  1.02459E+00  9.93717E-01  3.08746E-02
    9044.956     48.194   3.840  1.03173E+00  9.93766E-01  3.79646E-02
    9046.133     49.371   3.880  1.03601E+00  9.93866E-01  4.21412E-02
    9047.322     50.559   3.920  1.03819E+00  9.94060E-01  4.41298E-02
    9048.522     51.760   3.960  1.03893E+00  9.94283E-01  4.46444E-02
    9049.736     52.973   4.000  1.03898E+00  9.94598E-01  4.43795E-02
    9050.961     54.199   4.040  1.03895E+00  9.94939E-01  4.40089E-02
    9052.198     55.436   4.080  1.03931E+00  9.95349E-01  4.39653E-02
    9053.448     56.686   4.120  1.04012E+00  9.95826E-01  4.42955E-02
    9054.710     57.948   4.160  1.04102E+00  9.96324E-01  4.46985E-02
    9055.984     59.222   4.200  1.04143E+00  9.96884E-01  4.45411E-02
    9057.270     60.508   4.240  1.04092E+00  9.97464E-01  4.34592E-02
    9058.569     61.807   4.280  1.04006E+00  9.98103E-01  4.19532E-02
    9059.879     63.117   4.320  1.03992E+00  9.98757E-01  4.11673E-02
    9061.202     64.440   4.360  1.04156E+00  9.99445E-01  4.21114E-02
    9062.537     65.775   4.400  1.04549E+00  1.00017E+00  4.53218E-02
    9063.884     67.122   4.440  1.05201E+00  1.00089E+00  5.11142E-02
    9065.244     68.482   4.480  1.06119E+00  1.00163E+00  5.95656E-02
    9066.615     69.853   4.520  1.07263E+00  1.00239E+00  7.02378E-02
    9067.999     71.237   4.560  1.08499E+00  1.00316E+00  8.18315E-02
    9069.395     72.633   4.600  1.09598E+00  1.00392E+00  9.20601E-02
    9070.803     74.041   4.640  1.10291E+00  1.00469E+00  9.82196E-02
    9072.224     75.462   4.680  1.10366E+00  1.00545E+00  9.82050E-02
    9073.656     76.894   4.720  1.09739E+00  1.00621E+00  9.11744E-02
    9075.101     78.339   4.760  1.08442E+00  1.00697E+00  7.74510E-02
    9076.558     79.796   4.800  1.06588E+00  1.00769E+00  5.81933E-02
    9078.027     81.265   4.840  1.04364E+00  1.00840E+00  3.52396E-02
    9079.508     82.746   4.880  1.02009E+00  1.00908E+00  1.10108E-02
    9081.002     84.240   4.920  9.97851E-01  1.00972E+00 -1.18710E-02
    9082.508     85.745   4.960  9.79104E-01  1.01035E+00 -3.12461E-02
    9084.025     87.263   5.000  9.65153E-01  1.01094E+00 -4.57868E-02
    9085.556     88.793   5.040  9.56382E-01  1.01149E+00 -5.51082E-02
    9087.098     90.336   5.080  9.52347E-01  1.01200E+00 -5.96527E-02
    9088.652     91.890   5.120  9.51917E-01  1.01247E+00 -6.05485E-02
    9090.219     93.457   5.160  9.53692E-01  1.01289E+00 -5.91956E-02
    9091.798     95.036   5.200  9.56554E-01  1.01324E+00 -5.66896E-02
    9093.389     96.627   5.240  9.59915E-01  1.01358E+00 -5.36648E-02
    9094.992     98.230   5.280  9.63449E-01  1.01387E+00 -5.04222E-02
    9096.608     99.845   5.320  9.66871E-01  1.01409E+00 -4.72221E-02
    9098.235    101.473   5.360  9.69693E-01  1.01427E+00 -4.45738E-02
    9099.875    103.113   5.400  9.71475E-01  1.01437E+00 -4.28985E-02
    9101.527    104.765   5.440  9.72100E-01  1.01445E+00 -4.23544E-02
    9103.191    106.429   5.480  9.71742E-01  1.01447E+00 -4.27257E-02
    9104.868    108.105   5.520  9.70972E-01  1.01443E+00 -4.34607E-02
    9106.556    109.794   5.560  9.70502E-01  1.01433E+00 -4.38263E-02
    9108.257    111.495   5.600  9.71040E-01  1.01418E+00 -4.31387E-02
    9109.970    113.208   5.640  9.72993E-01  1.01398E+00 -4.09903E-02
    9111.695    114.933   5.680  9.76320E-01  1.01375E+00 -3.74258E-02
    9113.432    116.670   5.720  9.80482E-01  1.01347E+00 -3.29840E-02
    9115.182    118.420   5.760  9.84638E-01  1.01312E+00 -2.84806E-02
    9116.944    120.182   5.800  9.88010E-01  1.01275E+00 -2.47436E-02
    9118.718    121.956   5.840  9.90170E-01  1.01232E+00 -2.21534E-02
    9120.504    123.742   5.880  9.91491E-01  1.01186E+00 -2.03647E-02
    9122.302    125.540   5.920  9.92870E-01  1.01135E+00 -1.84851E-02
    9124.113    127.350   5.960  9.95413E-01  1.01084E+00 -1.54320E-02
    9125.935    129.173   6.000  1.00016E+00  1.01024E+00 -1.00869E-02
