# # comment:                                                     FEFF 9.9.1  
# # Source:
# # Structure
# # Reduced
# # space
# # abc:
# # angles:
# # sites:
# # POT  SCF 100  7.0000   0, screened core-hole, AFOLP (folp(0)= 1.150)
# # Abs   Z=29 Rmt= 1.186 Rnm= 1.278 K  shell
# # Pot 1 Z= 3 Rmt= 1.267 Rnm= 1.316
# # Pot 2 Z=25 Rmt= 1.226 Rnm= 1.343
# # Pot 3 Z=29 Rmt= 1.223 Rnm= 1.297
# # Pot 4 Z= 8 Rmt= 1.031 Rnm= 1.099
# # Gam_ch=1.729E+00 H-L exch Vi= 0.000E+00 Vr= 0.000E+00
# # Mu=-1.005E+01eV kf=2.113E+00 Vint=-1.786E+01eV Rs_int= 1.717
# FMS rfms= 9.0000
# # PATH  Rmax=-1.000,  Keep_limit= 0.00, Heap_limit 0.00  Pwcrit= 2.50%
#  S02=0.950  Temp=   0.00  Debye_temp=   0.00  Global_sig2= 0.00000
#  Energy zero shift, vr, vi    0.00000E+00   0.00000E+00
#  Curved wave amplitude ratio filter   4.000%
#     file         sig2 tot  cw amp ratio   deg  nlegs   reff  inp sig2
#     0/   0 paths used
#  xsedge+ 50, used to normalize mu           2.4656E-04
#  -----------------------------------------------------------------------
#  omega    e    k    mu    mu0     chi     @#
    8984.702    -13.859  -1.000  3.37054E-02  5.18803E-02 -1.81749E-02
    8985.001    -13.560  -0.960  3.52987E-02  5.55655E-02 -2.02668E-02
    8985.287    -13.273  -0.920  3.70020E-02  5.96522E-02 -2.26502E-02
    8985.561    -12.999  -0.880  3.88281E-02  6.41987E-02 -2.53706E-02
    8985.824    -12.737  -0.840  4.07919E-02  6.92728E-02 -2.84808E-02
    8986.073    -12.487  -0.800  4.29112E-02  7.49528E-02 -3.20416E-02
    8986.311    -12.249  -0.760  4.52065E-02  8.13286E-02 -3.61221E-02
    8986.537    -12.024  -0.720  4.77020E-02  8.85017E-02 -4.07997E-02
    8986.750    -11.810  -0.680  5.04244E-02  9.65833E-02 -4.61590E-02
    8986.951    -11.609  -0.640  5.34026E-02  1.05691E-01 -5.22886E-02
    8987.140    -11.420  -0.600  5.66646E-02  1.15940E-01 -5.92755E-02
    8987.317    -11.243  -0.560  6.02333E-02  1.27428E-01 -6.71950E-02
    8987.482    -11.079  -0.520  6.41178E-02  1.40213E-01 -7.60953E-02
    8987.634    -10.926  -0.480  6.83031E-02  1.54280E-01 -8.59769E-02
    8987.774    -10.786  -0.440  7.27377E-02  1.69506E-01 -9.67685E-02
    8987.902    -10.658  -0.400  7.73239E-02  1.85629E-01 -1.08305E-01
    8988.018    -10.542  -0.360  8.19188E-02  2.02236E-01 -1.20317E-01
    8988.122    -10.439  -0.320  8.63492E-02  2.18792E-01 -1.32443E-01
    8988.213    -10.347  -0.280  9.04414E-02  2.34703E-01 -1.44261E-01
    8988.292    -10.268  -0.240  9.40532E-02  2.49394E-01 -1.55341E-01
    8988.359    -10.201  -0.200  9.70953E-02  2.62384E-01 -1.65289E-01
    8988.414    -10.146  -0.160  9.95345E-02  2.73319E-01 -1.73785E-01
    8988.457    -10.104  -0.120  1.01379E-01  2.81969E-01 -1.80590E-01
    8988.487    -10.073  -0.080  1.02655E-01  2.88204E-01 -1.85549E-01
    8988.512    -10.049   0.000  1.03627E-01  2.93217E-01 -1.89589E-01
    8988.567     -9.994   0.120  1.05841E-01  3.04534E-01 -1.98693E-01
    8988.609     -9.951   0.160  1.07453E-01  3.13329E-01 -2.05876E-01
    8988.664     -9.896   0.200  1.09401E-01  3.24571E-01 -2.15170E-01
    8988.731     -9.829   0.240  1.11544E-01  3.38121E-01 -2.26576E-01
    8988.811     -9.750   0.280  1.13816E-01  3.53746E-01 -2.39930E-01
    8988.902     -9.659   0.320  1.16031E-01  3.71014E-01 -2.54983E-01
    8989.006     -9.555   0.360  1.18204E-01  3.89501E-01 -2.71297E-01
    8989.121     -9.439   0.400  1.20414E-01  4.08688E-01 -2.88274E-01
    8989.249     -9.311   0.440  1.22891E-01  4.28123E-01 -3.05231E-01
    8989.390     -9.171   0.480  1.25975E-01  4.47432E-01 -3.21457E-01
    8989.542     -9.018   0.520  1.30060E-01  4.66392E-01 -3.36332E-01
    8989.707     -8.854   0.560  1.35592E-01  4.84880E-01 -3.49288E-01
    8989.883     -8.677   0.600  1.42948E-01  5.02884E-01 -3.59936E-01
    8990.072     -8.488   0.640  1.52358E-01  5.20413E-01 -3.68055E-01
    8990.274     -8.287   0.680  1.63726E-01  5.37569E-01 -3.73843E-01
    8990.487     -8.074   0.720  1.76236E-01  5.54402E-01 -3.78166E-01
    8990.713     -7.848   0.760  1.88527E-01  5.71003E-01 -3.82476E-01
    8990.950     -7.610   0.800  1.99670E-01  5.87411E-01 -3.87741E-01
    8991.200     -7.360   0.840  2.10895E-01  6.03697E-01 -3.92803E-01
    8991.462     -7.098   0.880  2.25632E-01  6.19877E-01 -3.94245E-01
    8991.737     -6.824   0.920  2.48320E-01  6.35995E-01 -3.87674E-01
    8992.023     -6.537   0.960  2.83624E-01  6.52042E-01 -3.68418E-01
    8992.322     -6.239   1.000  3.36573E-01  6.68024E-01 -3.31451E-01
    8992.633     -5.928   1.040  4.12177E-01  6.83935E-01 -2.71758E-01
    8992.956     -5.605   1.080  5.12782E-01  6.99762E-01 -1.86980E-01
    8993.291     -5.269   1.120  6.29597E-01  7.15468E-01 -8.58713E-02
    8993.639     -4.922   1.160  7.27154E-01  7.31031E-01 -3.87748E-03
    8993.998     -4.562   1.200  7.59760E-01  7.46406E-01  1.33540E-02
    8994.370     -4.190   1.240  7.26453E-01  7.61582E-01 -3.51298E-02
    8994.754     -3.806   1.280  6.64704E-01  7.76532E-01 -1.11828E-01
    8995.150     -3.410   1.320  6.05071E-01  7.91181E-01 -1.86110E-01
    8995.559     -3.002   1.360  5.59671E-01  8.05539E-01 -2.45868E-01
    8995.979     -2.581   1.400  5.30396E-01  8.19529E-01 -2.89133E-01
    8996.412     -2.148   1.440  5.18265E-01  8.33162E-01 -3.14897E-01
    8996.857     -1.703   1.480  5.22922E-01  8.46363E-01 -3.23440E-01
    8997.314     -1.246   1.520  5.42320E-01  8.59121E-01 -3.16801E-01
    8997.784     -0.777   1.560  5.75481E-01  8.71427E-01 -2.95945E-01
    8998.265     -0.295   1.600  6.18560E-01  8.83250E-01 -2.64690E-01
    8998.759      0.199   1.640  6.61972E-01  8.94565E-01 -2.32593E-01
    8999.265      0.705   1.680  7.05080E-01  9.05360E-01 -2.00281E-01
    8999.783      1.223   1.720  7.64694E-01  9.15613E-01 -1.50919E-01
    9000.314      1.753   1.760  8.48976E-01  9.25320E-01 -7.63447E-02
    9000.856      2.296   1.800  9.58091E-01  9.34479E-01  2.36119E-02
    9001.411      2.850   1.840  1.09265E+00  9.43091E-01  1.49564E-01
    9001.978      3.417   1.880  1.24214E+00  9.51134E-01  2.91007E-01
    9002.557      3.996   1.920  1.37434E+00  9.58631E-01  4.15712E-01
    9003.148      4.588   1.960  1.45475E+00  9.65608E-01  4.89144E-01
    9003.752      5.191   2.000  1.47390E+00  9.72029E-01  5.01874E-01
    9004.367      5.807   2.040  1.45715E+00  9.77941E-01  4.79212E-01
    9004.995      6.435   2.080  1.44647E+00  9.83328E-01  4.63147E-01
    9005.635      7.075   2.120  1.45017E+00  9.88220E-01  4.61948E-01
    9006.288      7.727   2.160  1.43392E+00  9.92647E-01  4.41275E-01
    9006.952      8.392   2.200  1.36509E+00  9.96617E-01  3.68477E-01
    9007.629      9.068   2.240  1.25579E+00  1.00012E+00  2.55669E-01
    9008.318      9.757   2.280  1.14786E+00  1.00323E+00  1.44636E-01
    9009.019     10.458   2.320  1.06488E+00  1.00593E+00  5.89466E-02
    9009.732     11.171   2.360  1.00737E+00  1.00826E+00 -8.89690E-04
    9010.457     11.897   2.400  9.72200E-01  1.01022E+00 -3.80210E-02
    9011.195     12.634   2.440  9.56851E-01  1.01185E+00 -5.50031E-02
    9011.945     13.384   2.480  9.58496E-01  1.01319E+00 -5.46912E-02
    9012.707     14.146   2.520  9.76413E-01  1.01421E+00 -3.77965E-02
    9013.481     14.920   2.560  1.00427E+00  1.01497E+00 -1.06992E-02
    9014.267     15.707   2.600  1.03228E+00  1.01549E+00  1.67911E-02
    9015.066     16.505   2.640  1.05882E+00  1.01576E+00  4.30596E-02
    9015.877     17.316   2.680  1.08195E+00  1.01583E+00  6.61204E-02
    9016.700     18.139   2.720  1.09903E+00  1.01570E+00  8.33275E-02
    9017.535     18.974   2.760  1.10828E+00  1.01543E+00  9.28546E-02
    9018.382     19.822   2.800  1.10930E+00  1.01499E+00  9.43125E-02
    9019.242     20.681   2.840  1.10331E+00  1.01441E+00  8.89068E-02
    9020.113     21.553   2.880  1.09316E+00  1.01372E+00  7.94408E-02
    9020.997     22.437   2.920  1.08050E+00  1.01292E+00  6.75802E-02
    9021.893     23.333   2.960  1.06566E+00  1.01203E+00  5.36333E-02
    9022.802     24.241   3.000  1.04778E+00  1.01106E+00  3.67211E-02
    9023.722     25.162   3.040  1.02576E+00  1.01004E+00  1.57201E-02
    9024.655     26.094   3.080  9.98897E-01  1.00895E+00 -1.00573E-02
    9025.600     27.039   3.120  9.68057E-01  1.00785E+00 -3.97900E-02
    9026.557     27.996   3.160  9.35432E-01  1.00671E+00 -7.12742E-02
    9027.526     28.966   3.200  9.03883E-01  1.00556E+00 -1.01675E-01
    9028.508     29.947   3.240  8.76486E-01  1.00440E+00 -1.27918E-01
    9029.501     30.941   3.280  8.55365E-01  1.00323E+00 -1.47863E-01
    9030.507     31.947   3.320  8.41250E-01  1.00208E+00 -1.60827E-01
    9031.525     32.965   3.360  8.33590E-01  1.00095E+00 -1.67365E-01
    9032.555     33.995   3.400  8.31215E-01  9.99843E-01 -1.68628E-01
    9033.598     35.037   3.440  8.32434E-01  9.98766E-01 -1.66332E-01
    9034.652     36.092   3.480  8.36158E-01  9.97724E-01 -1.61566E-01
    9035.719     37.159   3.520  8.41756E-01  9.96699E-01 -1.54943E-01
    9036.798     38.238   3.560  8.48800E-01  9.95738E-01 -1.46938E-01
    9037.889     39.329   3.600  8.56804E-01  9.94821E-01 -1.38018E-01
    9038.993     40.432   3.640  8.65477E-01  9.93971E-01 -1.28494E-01
    9040.108     41.548   3.680  8.74717E-01  9.93166E-01 -1.18449E-01
    9041.236     42.675   3.720  8.84699E-01  9.92408E-01 -1.07709E-01
    9042.376     43.815   3.760  8.96048E-01  9.91698E-01 -9.56495E-02
    9043.528     44.968   3.800  9.09679E-01  9.91079E-01 -8.14000E-02
    9044.692     46.132   3.840  9.26244E-01  9.90489E-01 -6.42446E-02
    9045.869     47.308   3.880  9.46167E-01  9.89989E-01 -4.38224E-02
    9047.058     48.497   3.920  9.69309E-01  9.89520E-01 -2.02110E-02
    9048.259     49.698   3.960  9.94957E-01  9.89143E-01  5.81359E-03
    9049.472     50.911   4.000  1.02170E+00  9.88816E-01  3.28815E-02
    9050.697     52.136   4.040  1.04789E+00  9.88538E-01  5.93567E-02
    9051.934     53.374   4.080  1.07189E+00  9.88329E-01  8.35640E-02
    9053.184     54.624   4.120  1.09206E+00  9.88169E-01  1.03893E-01
    9054.446     55.885   4.160  1.10717E+00  9.88081E-01  1.19088E-01
    9055.720     57.159   4.200  1.11632E+00  9.88060E-01  1.28259E-01
    9057.006     58.446   4.240  1.11908E+00  9.88063E-01  1.31014E-01
    9058.305     59.744   4.280  1.11573E+00  9.88133E-01  1.27596E-01
    9059.615     61.055   4.320  1.10716E+00  9.88246E-01  1.18910E-01
    9060.938     62.378   4.360  1.09479E+00  9.88403E-01  1.06390E-01
    9062.273     63.713   4.400  1.08039E+00  9.88623E-01  9.17695E-02
    9063.620     65.060   4.440  1.06580E+00  9.88863E-01  7.69380E-02
    9064.980     66.419   4.480  1.05256E+00  9.89163E-01  6.33999E-02
    9066.351     67.791   4.520  1.04141E+00  9.89479E-01  5.19266E-02
    9067.735     69.175   4.560  1.03222E+00  9.89831E-01  4.23848E-02
    9069.131     70.571   4.600  1.02422E+00  9.90218E-01  3.40014E-02
    9070.539     71.979   4.640  1.01661E+00  9.90638E-01  2.59697E-02
    9071.960     73.399   4.680  1.00912E+00  9.91067E-01  1.80499E-02
    9073.392     74.832   4.720  1.00215E+00  9.91504E-01  1.06423E-02
    9074.837     76.276   4.760  9.96407E-01  9.91970E-01  4.43660E-03
    9076.294     77.733   4.800  9.92548E-01  9.92464E-01  8.36985E-05
    9077.763     79.203   4.840  9.90871E-01  9.92941E-01 -2.06922E-03
    9079.244     80.684   4.880  9.91370E-01  9.93439E-01 -2.06853E-03
    9080.738     82.177   4.920  9.93673E-01  9.93937E-01 -2.64412E-04
    9082.244     83.683   4.960  9.97209E-01  9.94412E-01  2.79732E-03
    9083.761     85.201   5.000  1.00134E+00  9.94906E-01  6.43866E-03
    9085.292     86.731   5.040  1.00525E+00  9.95374E-01  9.87637E-03
    9086.834     88.273   5.080  1.00815E+00  9.95837E-01  1.23177E-02
    9088.388     89.828   5.120  1.00944E+00  9.96295E-01  1.31448E-02
    9089.955     91.394   5.160  1.00875E+00  9.96746E-01  1.20091E-02
    9091.534     92.973   5.200  1.00595E+00  9.97164E-01  8.78636E-03
    9093.125     94.564   5.240  1.00103E+00  9.97549E-01  3.48202E-03
    9094.728     96.168   5.280  9.94124E-01  9.97922E-01 -3.79787E-03
    9096.344     97.783   5.320  9.85564E-01  9.98261E-01 -1.26963E-02
    9097.971     99.411   5.360  9.76119E-01  9.98585E-01 -2.24660E-02
    9099.611    101.050   5.400  9.66771E-01  9.98851E-01 -3.20804E-02
    9101.263    102.702   5.440  9.58541E-01  9.99101E-01 -4.05599E-02
    9102.927    104.367   5.480  9.52038E-01  9.99316E-01 -4.72778E-02
    9104.604    106.043   5.520  9.47460E-01  9.99514E-01 -5.20542E-02
    9106.292    107.732   5.560  9.44688E-01  9.99651E-01 -5.49635E-02
    9107.993    109.432   5.600  9.43771E-01  9.99749E-01 -5.59779E-02
    9109.706    111.145   5.640  9.44968E-01  9.99828E-01 -5.48595E-02
    9111.431    112.871   5.680  9.48449E-01  9.99845E-01 -5.13963E-02
    9113.168    114.608   5.720  9.54113E-01  9.99844E-01 -4.57305E-02
    9114.918    116.357   5.760  9.61369E-01  9.99781E-01 -3.84120E-02
    9116.680    118.119   5.800  9.69431E-01  9.99702E-01 -3.02705E-02
    9118.454    119.893   5.840  9.77333E-01  9.99559E-01 -2.22260E-02
    9120.240    121.679   5.880  9.84392E-01  9.99402E-01 -1.50104E-02
    9122.038    123.478   5.920  9.90189E-01  9.99185E-01 -8.99531E-03
    9123.849    125.288   5.960  9.94598E-01  9.98952E-01 -4.35465E-03
    9125.671    127.111   6.000  9.97368E-01  9.98660E-01 -1.29191E-03
