# # comment:                                                     FEFF 9.9.1  
# # Source:
# # Structure
# # Reduced
# # space
# # abc:
# # angles:
# # sites:
# # POT  SCF 100  7.0000   0, screened core-hole, AFOLP (folp(0)= 1.150)
# # Abs   Z=29 Rmt= 1.145 Rnm= 1.279 K  shell
# # Pot 1 Z=30 Rmt= 1.332 Rnm= 1.438
# # Pot 2 Z=29 Rmt= 1.145 Rnm= 1.279
# # Pot 3 Z= 6 Rmt= 0.672 Rnm= 0.926
# # Pot 4 Z= 8 Rmt= 1.017 Rnm= 1.129
# # Gam_ch=1.729E+00 H-L exch Vi= 0.000E+00 Vr= 0.000E+00
# # Mu=-1.026E+01eV kf=2.265E+00 Vint=-1.618E+01eV Rs_int= 1.601
# FMS rfms= 9.0000
# # PATH  Rmax=-1.000,  Keep_limit= 0.00, Heap_limit 0.00  Pwcrit= 2.50%
#  S02=0.950  Temp=   0.00  Debye_temp=   0.00  Global_sig2= 0.00000
#  Energy zero shift, vr, vi    0.00000E+00   0.00000E+00
#  Curved wave amplitude ratio filter   4.000%
#     file         sig2 tot  cw amp ratio   deg  nlegs   reff  inp sig2
#     0/   0 paths used
#  xsedge+ 50, used to normalize mu           2.4678E-04
#  -----------------------------------------------------------------------
#  omega    e    k    mu    mu0     chi     @#
    8983.665    -14.069  -1.000  2.62638E-02  4.66267E-02 -2.03628E-02
    8983.964    -13.770  -0.960  2.72106E-02  4.97358E-02 -2.25251E-02
    8984.250    -13.483  -0.920  2.81985E-02  5.31646E-02 -2.49661E-02
    8984.525    -13.209  -0.880  2.92303E-02  5.69577E-02 -2.77274E-02
    8984.787    -12.947  -0.840  3.03096E-02  6.11667E-02 -3.08571E-02
    8985.037    -12.697  -0.800  3.14405E-02  6.58512E-02 -3.44107E-02
    8985.274    -12.459  -0.760  3.26277E-02  7.10793E-02 -3.84516E-02
    8985.500    -12.234  -0.720  3.38765E-02  7.69272E-02 -4.30508E-02
    8985.713    -12.020  -0.680  3.51926E-02  8.34788E-02 -4.82862E-02
    8985.915    -11.819  -0.640  3.65821E-02  9.08218E-02 -5.42396E-02
    8986.104    -11.630  -0.600  3.80505E-02  9.90416E-02 -6.09911E-02
    8986.280    -11.453  -0.560  3.96018E-02  1.08210E-01 -6.86086E-02
    8986.445    -11.289  -0.520  4.12366E-02  1.18369E-01 -7.71323E-02
    8986.597    -11.136  -0.480  4.29500E-02  1.29503E-01 -8.65532E-02
    8986.737    -10.996  -0.440  4.47287E-02  1.41517E-01 -9.67882E-02
    8986.866    -10.868  -0.400  4.65487E-02  1.54208E-01 -1.07659E-01
    8986.981    -10.752  -0.360  4.83749E-02  1.67260E-01 -1.18885E-01
    8987.085    -10.649  -0.320  5.01626E-02  1.80264E-01 -1.30101E-01
    8987.176    -10.557  -0.280  5.18626E-02  1.92762E-01 -1.40900E-01
    8987.256    -10.478  -0.240  5.34272E-02  2.04313E-01 -1.50886E-01
    8987.323    -10.411  -0.200  5.48155E-02  2.14541E-01 -1.59725E-01
    8987.378    -10.356  -0.160  5.59944E-02  2.23164E-01 -1.67170E-01
    8987.420    -10.314  -0.120  5.69392E-02  2.29997E-01 -1.73058E-01
    8987.451    -10.283  -0.080  5.76340E-02  2.34931E-01 -1.77297E-01
    8987.475    -10.259   0.000  5.82309E-02  2.38904E-01 -1.80673E-01
    8987.530    -10.204   0.120  5.98648E-02  2.47880E-01 -1.88015E-01
    8987.573    -10.161   0.160  6.09973E-02  2.54883E-01 -1.93885E-01
    8987.628    -10.106   0.200  6.23908E-02  2.63865E-01 -2.01474E-01
    8987.695    -10.039   0.240  6.40039E-02  2.74739E-01 -2.10735E-01
    8987.774     -9.960   0.280  6.57861E-02  2.87341E-01 -2.21555E-01
    8987.865     -9.869   0.320  6.76710E-02  3.01415E-01 -2.33745E-01
    8987.969     -9.765   0.360  6.95884E-02  3.16642E-01 -2.47053E-01
    8988.085     -9.649   0.400  7.14570E-02  3.32660E-01 -2.61203E-01
    8988.213     -9.521   0.440  7.33091E-02  3.49173E-01 -2.75864E-01
    8988.353     -9.381   0.480  7.51072E-02  3.65893E-01 -2.90786E-01
    8988.505     -9.228   0.520  7.69167E-02  3.82706E-01 -3.05789E-01
    8988.670     -9.064   0.560  7.87514E-02  3.99500E-01 -3.20749E-01
    8988.847     -8.887   0.600  8.05724E-02  4.16269E-01 -3.35697E-01
    8989.036     -8.698   0.640  8.24263E-02  4.33029E-01 -3.50603E-01
    8989.237     -8.497   0.680  8.45005E-02  4.49856E-01 -3.65356E-01
    8989.450     -8.284   0.720  8.70029E-02  4.66774E-01 -3.79771E-01
    8989.676     -8.058   0.760  9.02194E-02  4.83823E-01 -3.93603E-01
    8989.913     -7.820   0.800  9.44307E-02  5.01055E-01 -4.06624E-01
    8990.163     -7.570   0.840  9.98735E-02  5.18473E-01 -4.18600E-01
    8990.426     -7.308   0.880  1.06892E-01  5.36110E-01 -4.29218E-01
    8990.700     -7.034   0.920  1.15866E-01  5.53969E-01 -4.38103E-01
    8990.986     -6.747   0.960  1.27147E-01  5.72001E-01 -4.44854E-01
    8991.285     -6.449   1.000  1.41099E-01  5.90213E-01 -4.49114E-01
    8991.596     -6.138   1.040  1.58084E-01  6.08583E-01 -4.50499E-01
    8991.919     -5.815   1.080  1.79130E-01  6.27042E-01 -4.47912E-01
    8992.254     -5.479   1.120  2.06097E-01  6.45558E-01 -4.39462E-01
    8992.602     -5.132   1.160  2.40561E-01  6.64095E-01 -4.23534E-01
    8992.961     -4.772   1.200  2.82895E-01  6.82591E-01 -3.99696E-01
    8993.333     -4.400   1.240  3.32772E-01  7.00985E-01 -3.68214E-01
    8993.717     -4.016   1.280  3.88965E-01  7.19233E-01 -3.30268E-01
    8994.114     -3.620   1.320  4.51730E-01  7.37270E-01 -2.85540E-01
    8994.522     -3.212   1.360  5.26283E-01  7.55029E-01 -2.28746E-01
    8994.943     -2.791   1.400  6.10940E-01  7.72466E-01 -1.61526E-01
    8995.375     -2.358   1.440  6.80980E-01  7.89536E-01 -1.08557E-01
    8995.820     -1.913   1.480  7.01615E-01  8.06175E-01 -1.04560E-01
    8996.278     -1.456   1.520  6.77397E-01  8.22340E-01 -1.44942E-01
    8996.747     -0.987   1.560  6.47402E-01  8.37970E-01 -1.90568E-01
    8997.229     -0.505   1.600  6.32187E-01  8.53047E-01 -2.20861E-01
    8997.722     -0.011   1.640  6.37146E-01  8.67535E-01 -2.30389E-01
    8998.228      0.495   1.680  6.61135E-01  8.81398E-01 -2.20264E-01
    8998.747      1.013   1.720  6.93817E-01  8.94605E-01 -2.00788E-01
    8999.277      1.543   1.760  7.28735E-01  9.07147E-01 -1.78412E-01
    8999.819      2.086   1.800  7.69687E-01  9.18997E-01 -1.49310E-01
    9000.374      2.640   1.840  8.15147E-01  9.30169E-01 -1.15022E-01
    9000.941      3.207   1.880  8.57152E-01  9.40622E-01 -8.34704E-02
    9001.520      3.786   1.920  8.95036E-01  9.50376E-01 -5.53403E-02
    9002.112      4.378   1.960  9.38439E-01  9.59454E-01 -2.10150E-02
    9002.715      4.981   2.000  1.00031E+00  9.67819E-01  3.24956E-02
    9003.331      5.597   2.040  1.08778E+00  9.75518E-01  1.12257E-01
    9003.959      6.225   2.080  1.19710E+00  9.82556E-01  2.14540E-01
    9004.599      6.865   2.120  1.30579E+00  9.88925E-01  3.16865E-01
    9005.251      7.517   2.160  1.37334E+00  9.94696E-01  3.78639E-01
    9005.915      8.182   2.200  1.38191E+00  9.99859E-01  3.82054E-01
    9006.592      8.858   2.240  1.35828E+00  1.00445E+00  3.53837E-01
    9007.281      9.547   2.280  1.32547E+00  1.00847E+00  3.16995E-01
    9007.982     10.248   2.320  1.29051E+00  1.01197E+00  2.78537E-01
    9008.695     10.961   2.360  1.25708E+00  1.01497E+00  2.42104E-01
    9009.421     11.687   2.400  1.22118E+00  1.01752E+00  2.03663E-01
    9010.158     12.424   2.440  1.18485E+00  1.01962E+00  1.65229E-01
    9010.908     13.174   2.480  1.15578E+00  1.02130E+00  1.34470E-01
    9011.670     13.936   2.520  1.13427E+00  1.02260E+00  1.11676E-01
    9012.444     14.710   2.560  1.11309E+00  1.02355E+00  8.95471E-02
    9013.231     15.497   2.600  1.09813E+00  1.02415E+00  7.39834E-02
    9014.029     16.295   2.640  1.10444E+00  1.02448E+00  7.99618E-02
    9014.840     17.106   2.680  1.13060E+00  1.02450E+00  1.06093E-01
    9015.663     17.929   2.720  1.15362E+00  1.02430E+00  1.29312E-01
    9016.498     18.764   2.760  1.16464E+00  1.02387E+00  1.40773E-01
    9017.345     19.612   2.800  1.16235E+00  1.02323E+00  1.39122E-01
    9018.205     20.471   2.840  1.14848E+00  1.02242E+00  1.26065E-01
    9019.077     21.343   2.880  1.12623E+00  1.02142E+00  1.04811E-01
    9019.961     22.227   2.920  1.09975E+00  1.02032E+00  7.94313E-02
    9020.857     23.123   2.960  1.07274E+00  1.01910E+00  5.36487E-02
    9021.765     24.031   3.000  1.04751E+00  1.01776E+00  2.97556E-02
    9022.685     24.952   3.040  1.02486E+00  1.01634E+00  8.51717E-03
    9023.618     25.884   3.080  1.00466E+00  1.01486E+00 -1.02037E-02
    9024.563     26.829   3.120  9.86262E-01  1.01332E+00 -2.70586E-02
    9025.520     27.786   3.160  9.69021E-01  1.01176E+00 -4.27367E-02
    9026.489     28.756   3.200  9.52669E-01  1.01014E+00 -5.74716E-02
    9027.471     29.737   3.240  9.37269E-01  1.00854E+00 -7.12670E-02
    9028.464     30.731   3.280  9.22999E-01  1.00693E+00 -8.39330E-02
    9029.470     31.737   3.320  9.10239E-01  1.00533E+00 -9.50918E-02
    9030.488     32.755   3.360  8.99528E-01  1.00374E+00 -1.04209E-01
    9031.519     33.785   3.400  8.91024E-01  1.00218E+00 -1.11151E-01
    9032.561     34.827   3.440  8.84710E-01  1.00065E+00 -1.15940E-01
    9033.616     35.882   3.480  8.80524E-01  9.99168E-01 -1.18644E-01
    9034.682     36.949   3.520  8.78226E-01  9.97750E-01 -1.19524E-01
    9035.761     38.028   3.560  8.77374E-01  9.96357E-01 -1.18983E-01
    9036.853     39.119   3.600  8.77677E-01  9.95054E-01 -1.17377E-01
    9037.956     40.222   3.640  8.78904E-01  9.93782E-01 -1.14878E-01
    9039.071     41.338   3.680  8.80996E-01  9.92604E-01 -1.11608E-01
    9040.199     42.465   3.720  8.83951E-01  9.91480E-01 -1.07529E-01
    9041.339     43.605   3.760  8.87904E-01  9.90433E-01 -1.02529E-01
    9042.491     44.758   3.800  8.92907E-01  9.89463E-01 -9.65565E-02
    9043.656     45.922   3.840  8.98856E-01  9.88573E-01 -8.97170E-02
    9044.832     47.098   3.880  9.05653E-01  9.87763E-01 -8.21102E-02
    9046.021     48.287   3.920  9.13200E-01  9.87034E-01 -7.38342E-02
    9047.222     49.488   3.960  9.21394E-01  9.86386E-01 -6.49914E-02
    9048.435     50.701   4.000  9.30203E-01  9.85819E-01 -5.56156E-02
    9049.660     51.926   4.040  9.39764E-01  9.85354E-01 -4.55895E-02
    9050.898     53.164   4.080  9.50183E-01  9.84948E-01 -3.47643E-02
    9052.147     54.414   4.120  9.61519E-01  9.84618E-01 -2.30999E-02
    9053.409     55.675   4.160  9.73681E-01  9.84367E-01 -1.06857E-02
    9054.683     56.949   4.200  9.86367E-01  9.84194E-01  2.17280E-03
    9055.969     58.236   4.240  9.99068E-01  9.84077E-01  1.49912E-02
    9057.268     59.534   4.280  1.01132E+00  9.84057E-01  2.72640E-02
    9058.579     60.845   4.320  1.02268E+00  9.84093E-01  3.85870E-02
    9059.901     62.168   4.360  1.03288E+00  9.84203E-01  4.86765E-02
    9061.236     63.503   4.400  1.04191E+00  9.84387E-01  5.75263E-02
    9062.584     64.850   4.440  1.04983E+00  9.84620E-01  6.52121E-02
    9063.943     66.209   4.480  1.05665E+00  9.84923E-01  7.17226E-02
    9065.315     67.581   4.520  1.06221E+00  9.85273E-01  7.69386E-02
    9066.698     68.965   4.560  1.06643E+00  9.85668E-01  8.07578E-02
    9068.094     70.361   4.600  1.06938E+00  9.86127E-01  8.32501E-02
    9069.503     71.769   4.640  1.07133E+00  9.86607E-01  8.47203E-02
    9070.923     73.189   4.680  1.07271E+00  9.87147E-01  8.55617E-02
    9072.355     74.622   4.720  1.07351E+00  9.87705E-01  8.58102E-02
    9073.800     76.066   4.760  1.07343E+00  9.88321E-01  8.51138E-02
    9075.257     77.523   4.800  1.07192E+00  9.88948E-01  8.29758E-02
    9076.726     78.993   4.840  1.06865E+00  9.89584E-01  7.90634E-02
    9078.208     80.474   4.880  1.06360E+00  9.90252E-01  7.33530E-02
    9079.701     81.967   4.920  1.05706E+00  9.90949E-01  6.61064E-02
    9081.207     83.473   4.960  1.04936E+00  9.91649E-01  5.77067E-02
    9082.725     84.991   5.000  1.04096E+00  9.92329E-01  4.86278E-02
    9084.255     86.521   5.040  1.03234E+00  9.93031E-01  3.93085E-02
    9085.797     88.063   5.080  1.02378E+00  9.93733E-01  3.00423E-02
    9087.352     89.618   5.120  1.01532E+00  9.94434E-01  2.08827E-02
    9088.918     91.184   5.160  1.00675E+00  9.95130E-01  1.16235E-02
    9090.497     92.763   5.200  9.97763E-01  9.95794E-01  1.96945E-03
    9092.088     94.354   5.240  9.88206E-01  9.96426E-01 -8.22035E-03
    9093.691     95.958   5.280  9.78356E-01  9.97071E-01 -1.87145E-02
    9095.307     97.573   5.320  9.68729E-01  9.97660E-01 -2.89308E-02
    9096.934     99.201   5.360  9.60112E-01  9.98234E-01 -3.81221E-02
    9098.574    100.840   5.400  9.53169E-01  9.98772E-01 -4.56036E-02
    9100.226    102.492   5.440  9.48387E-01  9.99270E-01 -5.08828E-02
    9101.890    104.157   5.480  9.46011E-01  9.99728E-01 -5.37167E-02
    9103.567    105.833   5.520  9.46007E-01  1.00014E+00 -5.41375E-02
    9105.255    107.522   5.560  9.48070E-01  1.00052E+00 -5.24499E-02
    9106.956    109.222   5.600  9.51686E-01  1.00085E+00 -4.91677E-02
    9108.669    110.935   5.640  9.56217E-01  1.00114E+00 -4.49278E-02
    9110.394    112.661   5.680  9.60977E-01  1.00139E+00 -4.04147E-02
    9112.132    114.398   5.720  9.65343E-01  1.00157E+00 -3.62277E-02
    9113.881    116.147   5.760  9.69059E-01  1.00170E+00 -3.26456E-02
    9115.643    117.909   5.800  9.72295E-01  1.00179E+00 -2.94988E-02
    9117.417    119.683   5.840  9.75547E-01  1.00184E+00 -2.62905E-02
    9119.203    121.469   5.880  9.79255E-01  1.00181E+00 -2.25557E-02
    9121.001    123.268   5.920  9.83507E-01  1.00171E+00 -1.82054E-02
    9122.812    125.078   5.960  9.87867E-01  1.00159E+00 -1.37209E-02
    9124.635    126.901   6.000  9.91389E-01  1.00135E+00 -9.96575E-03
