# # comment:                                                     FEFF 9.9.1  
# # Source:
# # Structure
# # Reduced
# # space
# # abc:
# # angles:
# # sites:
# # POT  SCF 100  7.0000   0, screened core-hole, AFOLP (folp(0)= 1.150)
# # Abs   Z=29 Rmt= 1.261 Rnm= 1.347 K  shell
# # Pot 1 Z=11 Rmt= 1.660 Rnm= 1.710
# # Pot 2 Z=29 Rmt= 1.268 Rnm= 1.355
# # Pot 3 Z=53 Rmt= 1.226 Rnm= 1.461
# # Pot 4 Z= 8 Rmt= 0.951 Rnm= 1.081
# # Gam_ch=1.729E+00 H-L exch Vi= 0.000E+00 Vr= 0.000E+00
# # Mu=-4.140E+00eV kf=2.233E+00 Vint=-1.498E+01eV Rs_int= 1.624
# FMS rfms= 9.0000
# # PATH  Rmax=-1.000,  Keep_limit= 0.00, Heap_limit 0.00  Pwcrit= 2.50%
#  S02=0.950  Temp=   0.00  Debye_temp=   0.00  Global_sig2= 0.00000
#  Energy zero shift, vr, vi    0.00000E+00   0.00000E+00
#  Curved wave amplitude ratio filter   4.000%
#     file         sig2 tot  cw amp ratio   deg  nlegs   reff  inp sig2
#     0/   0 paths used
#  xsedge+ 50, used to normalize mu           2.4486E-04
#  -----------------------------------------------------------------------
#  omega    e    k    mu    mu0     chi     @#
    8983.325     -7.950  -1.000  4.91675E-02  6.10669E-02 -1.18994E-02
    8983.624     -7.651  -0.960  5.21126E-02  6.57514E-02 -1.36388E-02
    8983.910     -7.365  -0.920  5.53102E-02  7.09793E-02 -1.56691E-02
    8984.185     -7.091  -0.880  5.87901E-02  7.68324E-02 -1.80424E-02
    8984.447     -6.828  -0.840  6.25863E-02  8.34066E-02 -2.08202E-02
    8984.697     -6.578  -0.800  6.67379E-02  9.08129E-02 -2.40749E-02
    8984.934     -6.341  -0.760  7.12888E-02  9.91791E-02 -2.78903E-02
    8985.160     -6.115  -0.720  7.62878E-02  1.08650E-01 -3.23621E-02
    8985.373     -5.902  -0.680  8.17880E-02  1.19385E-01 -3.75972E-02
    8985.574     -5.701  -0.640  8.78440E-02  1.31554E-01 -4.37097E-02
    8985.763     -5.512  -0.600  9.45082E-02  1.45322E-01 -5.08142E-02
    8985.940     -5.335  -0.560  1.01822E-01  1.60834E-01 -5.90119E-02
    8986.105     -5.170  -0.520  1.09806E-01  1.78175E-01 -6.83699E-02
    8986.257     -5.018  -0.480  1.18439E-01  1.97331E-01 -7.88922E-02
    8986.397     -4.878  -0.440  1.27646E-01  2.18132E-01 -9.04859E-02
    8986.525     -4.750  -0.400  1.37276E-01  2.40210E-01 -1.02933E-01
    8986.641     -4.634  -0.360  1.47103E-01  2.62985E-01 -1.15882E-01
    8986.745     -4.530  -0.320  1.56832E-01  2.85704E-01 -1.28872E-01
    8986.836     -4.439  -0.280  1.66142E-01  3.07532E-01 -1.41390E-01
    8986.916     -4.360  -0.240  1.74720E-01  3.27669E-01 -1.52949E-01
    8986.983     -4.292  -0.200  1.82301E-01  3.45448E-01 -1.63147E-01
    8987.037     -4.238  -0.160  1.88689E-01  3.60386E-01 -1.71697E-01
    8987.080     -4.195  -0.120  1.93752E-01  3.72180E-01 -1.78428E-01
    8987.111     -4.164  -0.080  1.97413E-01  3.80668E-01 -1.83254E-01
    8987.135     -4.140   0.000  2.00371E-01  3.87479E-01 -1.87107E-01
    8987.190     -4.085   0.120  2.06991E-01  4.02840E-01 -1.95849E-01
    8987.233     -4.043   0.160  2.12116E-01  4.14733E-01 -2.02617E-01
    8987.287     -3.988   0.200  2.18665E-01  4.29884E-01 -2.11220E-01
    8987.354     -3.921   0.240  2.26634E-01  4.48080E-01 -2.21446E-01
    8987.434     -3.841   0.280  2.35849E-01  4.68875E-01 -2.33026E-01
    8987.525     -3.750   0.320  2.46150E-01  4.91662E-01 -2.45511E-01
    8987.629     -3.646   0.360  2.57383E-01  5.15760E-01 -2.58377E-01
    8987.745     -3.530   0.400  2.69380E-01  5.40369E-01 -2.70989E-01
    8987.873     -3.402   0.440  2.82071E-01  5.64771E-01 -2.82699E-01
    8988.013     -3.262   0.480  2.95633E-01  5.88448E-01 -2.92814E-01
    8988.165     -3.110   0.520  3.10420E-01  6.11019E-01 -3.00599E-01
    8988.330     -2.945   0.560  3.27070E-01  6.32325E-01 -3.05255E-01
    8988.507     -2.768   0.600  3.46308E-01  6.52329E-01 -3.06021E-01
    8988.696     -2.580   0.640  3.68653E-01  6.71066E-01 -3.02412E-01
    8988.897     -2.378   0.680  3.94247E-01  6.88702E-01 -2.94455E-01
    8989.110     -2.165   0.720  4.22406E-01  7.05322E-01 -2.82916E-01
    8989.336     -1.939   0.760  4.52152E-01  7.21048E-01 -2.68896E-01
    8989.573     -1.702   0.800  4.83118E-01  7.36034E-01 -2.52917E-01
    8989.823     -1.452   0.840  5.16342E-01  7.50338E-01 -2.33996E-01
    8990.085     -1.190   0.880  5.54106E-01  7.64060E-01 -2.09954E-01
    8990.360     -0.915   0.920  5.98003E-01  7.77263E-01 -1.79260E-01
    8990.646     -0.629   0.960  6.47003E-01  7.90015E-01 -1.43012E-01
    8990.945     -0.330   1.000  6.96840E-01  8.02312E-01 -1.05471E-01
    8991.256     -0.019   1.040  7.42357E-01  8.14197E-01 -7.18402E-02
    8991.579      0.304   1.080  7.80152E-01  8.25706E-01 -4.55539E-02
    8991.914      0.639   1.120  8.08791E-01  8.36846E-01 -2.80548E-02
    8992.262      0.987   1.160  8.26948E-01  8.47599E-01 -2.06511E-02
    8992.621      1.346   1.200  8.36174E-01  8.57979E-01 -2.18050E-02
    8992.993      1.718   1.240  8.47389E-01  8.68002E-01 -2.06132E-02
    8993.377      2.102   1.280  8.73610E-01  8.77636E-01 -4.02668E-03
    8993.773      2.498   1.320  9.18043E-01  8.86869E-01  3.11747E-02
    8994.182      2.907   1.360  9.77972E-01  8.95745E-01  8.22266E-02
    8994.603      3.327   1.400  1.05064E+00  9.04210E-01  1.46427E-01
    8995.035      3.760   1.440  1.12539E+00  9.12289E-01  2.13103E-01
    8995.480      4.205   1.480  1.18092E+00  9.19965E-01  2.60953E-01
    8995.938      4.663   1.520  1.20745E+00  9.27241E-01  2.80204E-01
    8996.407      5.132   1.560  1.22182E+00  9.34122E-01  2.87699E-01
    8996.889      5.613   1.600  1.24967E+00  9.40611E-01  3.09056E-01
    8997.382      6.107   1.640  1.30106E+00  9.46672E-01  3.54392E-01
    8997.888      6.613   1.680  1.36478E+00  9.52370E-01  4.12414E-01
    8998.406      7.131   1.720  1.41636E+00  9.57670E-01  4.58695E-01
    8998.937      7.662   1.760  1.43082E+00  9.62577E-01  4.68242E-01
    8999.479      8.204   1.800  1.40057E+00  9.67119E-01  4.33455E-01
    9000.034      8.759   1.840  1.33873E+00  9.71301E-01  3.67434E-01
    9000.601      9.326   1.880  1.26550E+00  9.75108E-01  2.90392E-01
    9001.180      9.905   1.920  1.19660E+00  9.78590E-01  2.18009E-01
    9001.771     10.496   1.960  1.14013E+00  9.81756E-01  1.58372E-01
    9002.375     11.100   2.000  1.09660E+00  9.84593E-01  1.12002E-01
    9002.991     11.716   2.040  1.06535E+00  9.87149E-01  7.82014E-02
    9003.618     12.343   2.080  1.05048E+00  9.89411E-01  6.10686E-02
    9004.259     12.984   2.120  1.05267E+00  9.91389E-01  6.12845E-02
    9004.911     13.636   2.160  1.06144E+00  9.93131E-01  6.83141E-02
    9005.575     14.300   2.200  1.06880E+00  9.94645E-01  7.41574E-02
    9006.252     14.977   2.240  1.07880E+00  9.95921E-01  8.28784E-02
    9006.941     15.666   2.280  1.09012E+00  9.96986E-01  9.31357E-02
    9007.642     16.367   2.320  1.09065E+00  9.97869E-01  9.27817E-02
    9008.355     17.080   2.360  1.07815E+00  9.98579E-01  7.95664E-02
    9009.080     17.805   2.400  1.06274E+00  9.99124E-01  6.36165E-02
    9009.818     18.543   2.440  1.04326E+00  9.99531E-01  4.37332E-02
    9010.568     19.293   2.480  1.01658E+00  9.99807E-01  1.67736E-02
    9011.330     20.055   2.520  9.96720E-01  9.99960E-01 -3.23997E-03
    9012.104     20.829   2.560  9.91191E-01  1.00002E+00 -8.82586E-03
    9012.890     21.615   2.600  9.88173E-01  9.99963E-01 -1.17903E-02
    9013.689     22.414   2.640  9.81215E-01  9.99847E-01 -1.86323E-02
    9014.500     23.225   2.680  9.72609E-01  9.99655E-01 -2.70466E-02
    9015.323     24.048   2.720  9.64468E-01  9.99412E-01 -3.49434E-02
    9016.158     24.883   2.760  9.55920E-01  9.99124E-01 -4.32036E-02
    9017.005     25.730   2.800  9.44128E-01  9.98817E-01 -5.46892E-02
    9017.865     26.590   2.840  9.28297E-01  9.98474E-01 -7.01772E-02
    9018.736     27.461   2.880  9.11177E-01  9.98099E-01 -8.69212E-02
    9019.620     28.345   2.920  8.96312E-01  9.97716E-01 -1.01403E-01
    9020.517     29.241   2.960  8.85482E-01  9.97330E-01 -1.11848E-01
    9021.425     30.150   3.000  8.78891E-01  9.96966E-01 -1.18075E-01
    9022.345     31.070   3.040  8.76016E-01  9.96605E-01 -1.20590E-01
    9023.278     32.003   3.080  8.76649E-01  9.96251E-01 -1.19603E-01
    9024.223     32.948   3.120  8.80718E-01  9.95926E-01 -1.15207E-01
    9025.180     33.905   3.160  8.87173E-01  9.95610E-01 -1.08438E-01
    9026.149     34.874   3.200  8.94826E-01  9.95330E-01 -1.00504E-01
    9027.131     35.856   3.240  9.02736E-01  9.95106E-01 -9.23702E-02
    9028.124     36.849   3.280  9.10472E-01  9.94899E-01 -8.44269E-02
    9029.130     37.855   3.320  9.18261E-01  9.94730E-01 -7.64683E-02
    9030.148     38.873   3.360  9.26471E-01  9.94598E-01 -6.81274E-02
    9031.178     39.903   3.400  9.35172E-01  9.94507E-01 -5.93343E-02
    9032.221     40.946   3.440  9.43935E-01  9.94458E-01 -5.05227E-02
    9033.275     42.000   3.480  9.52213E-01  9.94471E-01 -4.22581E-02
    9034.342     43.067   3.520  9.59401E-01  9.94506E-01 -3.51045E-02
    9035.421     44.146   3.560  9.65294E-01  9.94603E-01 -2.93095E-02
    9036.512     45.237   3.600  9.70066E-01  9.94743E-01 -2.46763E-02
    9037.616     46.341   3.640  9.74260E-01  9.94924E-01 -2.06636E-02
    9038.731     47.456   3.680  9.78603E-01  9.95146E-01 -1.65427E-02
    9039.859     48.584   3.720  9.83779E-01  9.95409E-01 -1.16294E-02
    9040.999     49.724   3.760  9.90352E-01  9.95733E-01 -5.38105E-03
    9042.151     50.876   3.800  9.98497E-01  9.96075E-01  2.42192E-03
    9043.315     52.040   3.840  1.00791E+00  9.96454E-01  1.14602E-02
    9044.492     53.217   3.880  1.01782E+00  9.96870E-01  2.09487E-02
    9045.681     54.406   3.920  1.02730E+00  9.97322E-01  2.99793E-02
    9046.882     55.607   3.960  1.03566E+00  9.97788E-01  3.78741E-02
    9048.095     56.820   4.000  1.04274E+00  9.98310E-01  4.44282E-02
    9049.320     58.045   4.040  1.04868E+00  9.98841E-01  4.98394E-02
    9050.557     59.282   4.080  1.05370E+00  9.99382E-01  5.43158E-02
    9051.807     60.532   4.120  1.05780E+00  9.99953E-01  5.78440E-02
    9053.069     61.794   4.160  1.06094E+00  1.00055E+00  6.03847E-02
    9054.343     63.068   4.200  1.06314E+00  1.00113E+00  6.20062E-02
    9055.629     64.354   4.240  1.06463E+00  1.00174E+00  6.28924E-02
    9056.928     65.653   4.280  1.06557E+00  1.00237E+00  6.31924E-02
    9058.238     66.963   4.320  1.06586E+00  1.00298E+00  6.28750E-02
    9059.561     68.286   4.360  1.06529E+00  1.00359E+00  6.16931E-02
    9060.896     69.621   4.400  1.06358E+00  1.00420E+00  5.93818E-02
    9062.243     70.968   4.440  1.06076E+00  1.00480E+00  5.59540E-02
    9063.603     72.328   4.480  1.05708E+00  1.00540E+00  5.16770E-02
    9064.974     73.699   4.520  1.05297E+00  1.00599E+00  4.69746E-02
    9066.358     75.083   4.560  1.04882E+00  1.00655E+00  4.22642E-02
    9067.754     76.479   4.600  1.04485E+00  1.00708E+00  3.77743E-02
    9069.162     77.887   4.640  1.04115E+00  1.00759E+00  3.35545E-02
    9070.583     79.308   4.680  1.03768E+00  1.00810E+00  2.95860E-02
    9072.015     80.740   4.720  1.03439E+00  1.00857E+00  2.58217E-02
    9073.460     82.185   4.760  1.03117E+00  1.00900E+00  2.21695E-02
    9074.917     83.642   4.800  1.02784E+00  1.00939E+00  1.84515E-02
    9076.386     85.111   4.840  1.02414E+00  1.00975E+00  1.43987E-02
    9077.867     86.592   4.880  1.01979E+00  1.01009E+00  9.70028E-03
    9079.361     88.086   4.920  1.01446E+00  1.01038E+00  4.08136E-03
    9080.867     89.592   4.960  1.00798E+00  1.01062E+00 -2.63826E-03
    9082.385     91.110   5.000  1.00045E+00  1.01083E+00 -1.03828E-02
    9083.915     92.640   5.040  9.92275E-01  1.01101E+00 -1.87353E-02
    9085.457     94.182   5.080  9.84113E-01  1.01114E+00 -2.70295E-02
    9087.011     95.736   5.120  9.76662E-01  1.01121E+00 -3.45480E-02
    9088.578     97.303   5.160  9.70430E-01  1.01126E+00 -4.08291E-02
    9090.157     98.882   5.200  9.65568E-01  1.01126E+00 -4.56968E-02
    9091.748    100.473   5.240  9.61980E-01  1.01121E+00 -4.92249E-02
    9093.351    102.076   5.280  9.59498E-01  1.01112E+00 -5.16258E-02
    9094.967    103.692   5.320  9.57848E-01  1.01098E+00 -5.31306E-02
    9096.594    105.319   5.360  9.56865E-01  1.01079E+00 -5.39265E-02
    9098.234    106.959   5.400  9.56469E-01  1.01059E+00 -5.41166E-02
    9099.886    108.611   5.440  9.56530E-01  1.01032E+00 -5.37873E-02
    9101.550    110.275   5.480  9.57017E-01  1.01003E+00 -5.30140E-02
    9103.227    111.952   5.520  9.57857E-01  1.00968E+00 -5.18260E-02
    9104.915    113.640   5.560  9.59199E-01  1.00932E+00 -5.01190E-02
    9106.616    115.341   5.600  9.61263E-01  1.00892E+00 -4.76526E-02
    9108.329    117.054   5.640  9.64359E-01  1.00848E+00 -4.41176E-02
    9110.054    118.779   5.680  9.68736E-01  1.00800E+00 -3.92655E-02
    9111.792    120.517   5.720  9.74472E-01  1.00751E+00 -3.30422E-02
    9113.541    122.266   5.760  9.81382E-01  1.00699E+00 -2.56120E-02
    9115.303    124.028   5.800  9.89121E-01  1.00644E+00 -1.73212E-02
    9117.077    125.802   5.840  9.97266E-01  1.00588E+00 -8.61724E-03
    9118.863    127.588   5.880  1.00533E+00  1.00532E+00  3.72921E-06
    9120.661    129.386   5.920  1.01270E+00  1.00471E+00  7.98706E-03
    9122.472    131.197   5.960  1.01881E+00  1.00413E+00  1.46772E-02
    9124.294    133.019   6.000  1.02294E+00  1.00351E+00  1.94251E-02
