# # comment:                                                     FEFF 9.9.1  
# # Source:
# # Structure
# # Reduced
# # space
# # abc:
# # angles:
# # sites:
# # POT  SCF 100  7.0000   0, screened core-hole, AFOLP (folp(0)= 1.150)
# # Abs   Z=29 Rmt= 1.148 Rnm= 1.271 K  shell
# # Pot 1 Z=20 Rmt= 1.697 Rnm= 1.767
# # Pot 2 Z=29 Rmt= 1.148 Rnm= 1.271
# # Pot 3 Z= 6 Rmt= 0.688 Rnm= 0.924
# # Pot 4 Z= 8 Rmt= 0.998 Rnm= 1.081
# # Gam_ch=1.729E+00 H-L exch Vi= 0.000E+00 Vr= 0.000E+00
# # Mu=-1.030E+01eV kf=2.254E+00 Vint=-1.949E+01eV Rs_int= 1.609
# FMS rfms= 9.0000
# # PATH  Rmax=-1.000,  Keep_limit= 0.00, Heap_limit 0.00  Pwcrit= 2.50%
#  S02=0.950  Temp=   0.00  Debye_temp=   0.00  Global_sig2= 0.00000
#  Energy zero shift, vr, vi    0.00000E+00   0.00000E+00
#  Curved wave amplitude ratio filter   4.000%
#     file         sig2 tot  cw amp ratio   deg  nlegs   reff  inp sig2
#     0/   0 paths used
#  xsedge+ 50, used to normalize mu           2.4592E-04
#  -----------------------------------------------------------------------
#  omega    e    k    mu    mu0     chi     @#
    8986.000    -14.106  -1.000  3.74567E-02  5.43073E-02 -1.68506E-02
    8986.299    -13.807  -0.960  3.93247E-02  5.82643E-02 -1.89396E-02
    8986.585    -13.521  -0.920  4.13201E-02  6.26626E-02 -2.13425E-02
    8986.859    -13.246  -0.880  4.34550E-02  6.75672E-02 -2.41122E-02
    8987.122    -12.984  -0.840  4.57433E-02  7.30538E-02 -2.73105E-02
    8987.371    -12.734  -0.800  4.82006E-02  7.92103E-02 -3.10097E-02
    8987.609    -12.497  -0.760  5.08444E-02  8.61374E-02 -3.52930E-02
    8987.835    -12.271  -0.720  5.36940E-02  9.39490E-02 -4.02551E-02
    8988.048    -12.058  -0.680  5.67700E-02  1.02771E-01 -4.60006E-02
    8988.249    -11.856  -0.640  6.00935E-02  1.12735E-01 -5.26411E-02
    8988.438    -11.667  -0.600  6.36836E-02  1.23971E-01 -6.02875E-02
    8988.615    -11.491  -0.560  6.75537E-02  1.36591E-01 -6.90374E-02
    8988.780    -11.326  -0.520  7.17057E-02  1.50661E-01 -7.89552E-02
    8988.932    -11.174  -0.480  7.61218E-02  1.66166E-01 -9.00439E-02
    8989.072    -11.033  -0.440  8.07555E-02  1.82970E-01 -1.02214E-01
    8989.200    -10.905  -0.400  8.55248E-02  2.00780E-01 -1.15255E-01
    8989.316    -10.790  -0.360  9.03114E-02  2.19135E-01 -1.28824E-01
    8989.420    -10.686  -0.320  9.49709E-02  2.37439E-01 -1.42468E-01
    8989.511    -10.595  -0.280  9.93524E-02  2.55026E-01 -1.55674E-01
    8989.590    -10.515  -0.240  1.03321E-01  2.71259E-01 -1.67938E-01
    8989.657    -10.448  -0.200  1.06773E-01  2.85603E-01 -1.78830E-01
    8989.712    -10.393  -0.160  1.09643E-01  2.97668E-01 -1.88025E-01
    8989.755    -10.351  -0.120  1.11895E-01  3.07204E-01 -1.95310E-01
    8989.785    -10.320  -0.080  1.13510E-01  3.14074E-01 -2.00564E-01
    8989.810    -10.296   0.000  1.14806E-01  3.19593E-01 -2.04787E-01
    8989.865    -10.241   0.120  1.17765E-01  3.32025E-01 -2.14261E-01
    8989.907    -10.198   0.160  1.20031E-01  3.41698E-01 -2.21667E-01
    8989.962    -10.143   0.200  1.22894E-01  3.54038E-01 -2.31144E-01
    8990.029    -10.076   0.240  1.26340E-01  3.68875E-01 -2.42535E-01
    8990.109     -9.997   0.280  1.30332E-01  3.85911E-01 -2.55579E-01
    8990.200     -9.906   0.320  1.34892E-01  4.04709E-01 -2.69817E-01
    8990.304     -9.802   0.360  1.40040E-01  4.24707E-01 -2.84668E-01
    8990.419     -9.686   0.400  1.45930E-01  4.45328E-01 -2.99399E-01
    8990.547     -9.558   0.440  1.52821E-01  4.66046E-01 -3.13225E-01
    8990.688     -9.418   0.480  1.61070E-01  4.86430E-01 -3.25360E-01
    8990.840     -9.266   0.520  1.71130E-01  5.06225E-01 -3.35095E-01
    8991.005     -9.101   0.560  1.83446E-01  5.25290E-01 -3.41845E-01
    8991.181     -8.924   0.600  1.98440E-01  5.43594E-01 -3.45154E-01
    8991.370     -8.735   0.640  2.16553E-01  5.61215E-01 -3.44662E-01
    8991.572     -8.534   0.680  2.37971E-01  5.78206E-01 -3.40235E-01
    8991.785     -8.321   0.720  2.62460E-01  5.94658E-01 -3.32198E-01
    8992.010     -8.095   0.760  2.88765E-01  6.10680E-01 -3.21915E-01
    8992.248     -7.857   0.800  3.14369E-01  6.26348E-01 -3.11979E-01
    8992.498     -7.608   0.840  3.36794E-01  6.41707E-01 -3.04913E-01
    8992.760     -7.345   0.880  3.55435E-01  6.56850E-01 -3.01415E-01
    8993.035     -7.071   0.920  3.71218E-01  6.71794E-01 -3.00577E-01
    8993.321     -6.785   0.960  3.85533E-01  6.86564E-01 -3.01031E-01
    8993.620     -6.486   1.000  4.01207E-01  7.01175E-01 -2.99968E-01
    8993.931     -6.175   1.040  4.23992E-01  7.15633E-01 -2.91641E-01
    8994.254     -5.852   1.080  4.59925E-01  7.29935E-01 -2.70010E-01
    8994.589     -5.517   1.120  5.10333E-01  7.44054E-01 -2.33721E-01
    8994.937     -5.169   1.160  5.70895E-01  7.58016E-01 -1.87121E-01
    8995.296     -4.809   1.200  6.36290E-01  7.71763E-01 -1.35473E-01
    8995.668     -4.438   1.240  7.02407E-01  7.85295E-01 -8.28873E-02
    8996.052     -4.054   1.280  7.64431E-01  7.98587E-01 -3.41565E-02
    8996.448     -3.657   1.320  8.18041E-01  8.11616E-01  6.42518E-03
    8996.857     -3.249   1.360  8.59473E-01  8.24333E-01  3.51404E-02
    8997.277     -2.828   1.400  8.80347E-01  8.36732E-01  4.36151E-02
    8997.710     -2.395   1.440  8.71949E-01  8.48806E-01  2.31432E-02
    8998.155     -1.950   1.480  8.56171E-01  8.60505E-01 -4.33414E-03
    8998.612     -1.493   1.520  8.64601E-01  8.71824E-01 -7.22279E-03
    8999.082     -1.024   1.560  9.01763E-01  8.82733E-01  1.90294E-02
    8999.563     -0.542   1.600  9.63490E-01  8.93207E-01  7.02828E-02
    9000.057     -0.049   1.640  1.06095E+00  9.03242E-01  1.57711E-01
    9000.563      0.457   1.680  1.17992E+00  9.12832E-01  2.67087E-01
    9001.081      0.976   1.720  1.24368E+00  9.21973E-01  3.21706E-01
    9001.612      1.506   1.760  1.21049E+00  9.30624E-01  2.79864E-01
    9002.154      2.048   1.800  1.13656E+00  9.38822E-01  1.97742E-01
    9002.709      2.603   1.840  1.07828E+00  9.46528E-01  1.31755E-01
    9003.276      3.170   1.880  1.03905E+00  9.53763E-01  8.52839E-02
    9003.855      3.749   1.920  1.00908E+00  9.60507E-01  4.85683E-02
    9004.446      4.341   1.960  1.00505E+00  9.66806E-01  3.82473E-02
    9005.050      4.944   2.000  1.03433E+00  9.72622E-01  6.17097E-02
    9005.665      5.560   2.040  1.08122E+00  9.77981E-01  1.03239E-01
    9006.293      6.188   2.080  1.11736E+00  9.82909E-01  1.34452E-01
    9006.933      6.828   2.120  1.12005E+00  9.87412E-01  1.32634E-01
    9007.586      7.480   2.160  1.09081E+00  9.91476E-01  9.93344E-02
    9008.250      8.144   2.200  1.04909E+00  9.95150E-01  5.39387E-02
    9008.927      8.821   2.240  1.01331E+00  9.98421E-01  1.48864E-02
    9009.616      9.510   2.280  9.90224E-01  1.00132E+00 -1.10957E-02
    9010.317     10.211   2.320  9.79009E-01  1.00387E+00 -2.48628E-02
    9011.030     10.924   2.360  9.81169E-01  1.00607E+00 -2.48993E-02
    9011.755     11.650   2.400  1.00011E+00  1.00796E+00 -7.85058E-03
    9012.493     12.387   2.440  1.03337E+00  1.00953E+00  2.38380E-02
    9013.243     13.137   2.480  1.07480E+00  1.01084E+00  6.39604E-02
    9014.005     13.899   2.520  1.11859E+00  1.01187E+00  1.06715E-01
    9014.779     14.673   2.560  1.15713E+00  1.01265E+00  1.44481E-01
    9015.565     15.460   2.600  1.18208E+00  1.01321E+00  1.68870E-01
    9016.364     16.258   2.640  1.18134E+00  1.01354E+00  1.67801E-01
    9017.175     17.069   2.680  1.15385E+00  1.01369E+00  1.40157E-01
    9017.998     17.892   2.720  1.12216E+00  1.01365E+00  1.08514E-01
    9018.833     18.727   2.760  1.09279E+00  1.01346E+00  7.93292E-02
    9019.680     19.574   2.800  1.06641E+00  1.01312E+00  5.32930E-02
    9020.540     20.434   2.840  1.04254E+00  1.01265E+00  2.98937E-02
    9021.411     21.306   2.880  1.02086E+00  1.01206E+00  8.79688E-03
    9022.295     22.190   2.920  1.00100E+00  1.01138E+00 -1.03775E-02
    9023.191     23.086   2.960  9.82836E-01  1.01061E+00 -2.77724E-02
    9024.100     23.994   3.000  9.66812E-01  1.00976E+00 -4.29478E-02
    9025.020     24.914   3.040  9.53674E-01  1.00884E+00 -5.51648E-02
    9025.953     25.847   3.080  9.44251E-01  1.00789E+00 -6.36386E-02
    9026.898     26.792   3.120  9.38901E-01  1.00688E+00 -6.79791E-02
    9027.855     27.749   3.160  9.37102E-01  1.00585E+00 -6.87519E-02
    9028.824     28.718   3.200  9.37530E-01  1.00480E+00 -6.72657E-02
    9029.806     29.700   3.240  9.39037E-01  1.00373E+00 -6.46931E-02
    9030.799     30.693   3.280  9.40991E-01  1.00266E+00 -6.16727E-02
    9031.805     31.699   3.320  9.43229E-01  1.00162E+00 -5.83898E-02
    9032.823     32.717   3.360  9.45879E-01  1.00056E+00 -5.46798E-02
    9033.853     33.748   3.400  9.49388E-01  9.99528E-01 -5.01406E-02
    9034.896     34.790   3.440  9.54211E-01  9.98531E-01 -4.43203E-02
    9035.950     35.845   3.480  9.60730E-01  9.97569E-01 -3.68397E-02
    9037.017     36.911   3.520  9.69166E-01  9.96644E-01 -2.74774E-02
    9038.096     37.990   3.560  9.79364E-01  9.95737E-01 -1.63733E-02
    9039.187     39.082   3.600  9.90733E-01  9.94894E-01 -4.16095E-03
    9040.291     40.185   3.640  1.00243E+00  9.94094E-01  8.33453E-03
    9041.406     41.300   3.680  1.01333E+00  9.93339E-01  1.99920E-02
    9042.534     42.428   3.720  1.02207E+00  9.92650E-01  2.94161E-02
    9043.674     43.568   3.760  1.02713E+00  9.92011E-01  3.51210E-02
    9044.826     44.720   3.800  1.02727E+00  9.91442E-01  3.58246E-02
    9045.990     45.885   3.840  1.02181E+00  9.90922E-01  3.08908E-02
    9047.167     47.061   3.880  1.01121E+00  9.90471E-01  2.07344E-02
    9048.356     48.250   3.920  9.96968E-01  9.90072E-01  6.89576E-03
    9049.556     49.451   3.960  9.81288E-01  9.89742E-01 -8.45385E-03
    9050.770     50.664   4.000  9.66304E-01  9.89463E-01 -2.31591E-02
    9051.995     51.889   4.040  9.53304E-01  9.89254E-01 -3.59508E-02
    9053.232     53.127   4.080  9.42407E-01  9.89096E-01 -4.66886E-02
    9054.482     54.376   4.120  9.33041E-01  9.89008E-01 -5.59670E-02
    9055.744     55.638   4.160  9.24662E-01  9.88991E-01 -6.43297E-02
    9057.018     56.912   4.200  9.17272E-01  9.89002E-01 -7.17297E-02
    9058.304     58.199   4.240  9.11588E-01  9.89101E-01 -7.75125E-02
    9059.603     59.497   4.280  9.08567E-01  9.89225E-01 -8.06585E-02
    9060.913     60.808   4.320  9.09345E-01  9.89416E-01 -8.00708E-02
    9062.236     62.130   4.360  9.14668E-01  9.89653E-01 -7.49851E-02
    9063.571     63.465   4.400  9.24588E-01  9.89955E-01 -6.53668E-02
    9064.918     64.813   4.440  9.38432E-01  9.90278E-01 -5.18459E-02
    9066.278     66.172   4.480  9.55298E-01  9.90663E-01 -3.53642E-02
    9067.649     67.544   4.520  9.74244E-01  9.91065E-01 -1.68210E-02
    9069.033     68.927   4.560  9.94684E-01  9.91527E-01  3.15717E-03
    9070.429     70.323   4.600  1.01632E+00  9.92004E-01  2.43180E-02
    9071.837     71.732   4.640  1.03905E+00  9.92516E-01  4.65299E-02
    9073.258     73.152   4.680  1.06240E+00  9.93061E-01  6.93353E-02
    9074.690     74.584   4.720  1.08511E+00  9.93616E-01  9.14975E-02
    9076.135     76.029   4.760  1.10508E+00  9.94201E-01  1.10884E-01
    9077.592     77.486   4.800  1.11967E+00  9.94792E-01  1.24875E-01
    9079.061     78.955   4.840  1.12666E+00  9.95387E-01  1.31276E-01
    9080.542     80.437   4.880  1.12540E+00  9.96009E-01  1.29390E-01
    9082.036     81.930   4.920  1.11691E+00  9.96632E-01  1.20275E-01
    9083.542     83.436   4.960  1.10313E+00  9.97232E-01  1.05898E-01
    9085.059     84.954   5.000  1.08597E+00  9.97853E-01  8.81186E-02
    9086.590     86.484   5.040  1.06673E+00  9.98471E-01  6.82548E-02
    9088.132     88.026   5.080  1.04623E+00  9.99062E-01  4.71666E-02
    9089.686     89.581   5.120  1.02506E+00  9.99646E-01  2.54130E-02
    9091.253     91.147   5.160  1.00338E+00  1.00022E+00  3.15538E-03
    9092.832     92.726   5.200  9.81243E-01  1.00076E+00 -1.95220E-02
    9094.423     94.317   5.240  9.59224E-01  1.00127E+00 -4.20503E-02
    9096.026     95.920   5.280  9.38644E-01  1.00177E+00 -6.31266E-02
    9097.642     97.536   5.320  9.21212E-01  1.00223E+00 -8.10214E-02
    9099.269     99.163   5.360  9.08643E-01  1.00268E+00 -9.40386E-02
    9100.909    100.803   5.400  9.02306E-01  1.00307E+00 -1.00762E-01
    9102.561    102.455   5.440  9.03219E-01  1.00344E+00 -1.00221E-01
    9104.225    104.119   5.480  9.11760E-01  1.00377E+00 -9.20110E-02
    9105.902    105.796   5.520  9.27370E-01  1.00404E+00 -7.66675E-02
    9107.590    107.484   5.560  9.48355E-01  1.00429E+00 -5.59307E-02
    9109.291    109.185   5.600  9.71977E-01  1.00449E+00 -3.25154E-02
    9111.004    110.898   5.640  9.95311E-01  1.00463E+00 -9.32272E-03
    9112.729    112.623   5.680  1.01615E+00  1.00476E+00  1.13963E-02
    9114.466    114.361   5.720  1.03327E+00  1.00481E+00  2.84574E-02
    9116.216    116.110   5.760  1.04653E+00  1.00482E+00  4.17094E-02
    9117.978    117.872   5.800  1.05625E+00  1.00479E+00  5.14654E-02
    9119.752    119.646   5.840  1.06248E+00  1.00469E+00  5.77859E-02
    9121.538    121.432   5.880  1.06501E+00  1.00457E+00  6.04421E-02
    9123.336    123.230   5.920  1.06387E+00  1.00439E+00  5.94874E-02
    9125.147    125.041   5.960  1.05964E+00  1.00415E+00  5.54895E-02
    9126.969    126.864   6.000  1.05280E+00  1.00385E+00  4.89547E-02
