# # comment:                                                     FEFF 9.9.1  
# # Source:
# # Structure
# # Reduced
# # space
# # abc:
# # angles:
# # sites:
# # POT  SCF 100  7.0000   0, screened core-hole, AFOLP (folp(0)= 1.150)
# # Abs   Z=29 Rmt= 1.101 Rnm= 1.250 K  shell
# # Pot 1 Z=66 Rmt= 1.632 Rnm= 1.715
# # Pot 2 Z=29 Rmt= 1.103 Rnm= 1.255
# # Pot 3 Z=16 Rmt= 0.844 Rnm= 1.102
# # Pot 4 Z= 8 Rmt= 1.053 Rnm= 1.135
# # Gam_ch=1.729E+00 H-L exch Vi= 0.000E+00 Vr= 0.000E+00
# # Mu=-9.701E+00eV kf=2.271E+00 Vint=-1.596E+01eV Rs_int= 1.597
# FMS rfms= 9.0000
# # PATH  Rmax=-1.000,  Keep_limit= 0.00, Heap_limit 0.00  Pwcrit= 2.50%
#  S02=0.950  Temp=   0.00  Debye_temp=   0.00  Global_sig2= 0.00000
#  Energy zero shift, vr, vi    0.00000E+00   0.00000E+00
#  Curved wave amplitude ratio filter   4.000%
#     file         sig2 tot  cw amp ratio   deg  nlegs   reff  inp sig2
#     0/   0 paths used
#  xsedge+ 50, used to normalize mu           2.4725E-04
#  -----------------------------------------------------------------------
#  omega    e    k    mu    mu0     chi     @#
    8983.657    -13.511  -1.000  2.78734E-02  4.74065E-02 -1.95331E-02
    8983.956    -13.212  -0.960  2.91019E-02  5.05880E-02 -2.14861E-02
    8984.242    -12.925  -0.920  3.04249E-02  5.40988E-02 -2.36739E-02
    8984.516    -12.651  -0.880  3.18567E-02  5.79852E-02 -2.61285E-02
    8984.779    -12.389  -0.840  3.34145E-02  6.23007E-02 -2.88862E-02
    8985.029    -12.139  -0.800  3.51192E-02  6.71072E-02 -3.19881E-02
    8985.266    -11.901  -0.760  3.69954E-02  7.24753E-02 -3.54798E-02
    8985.492    -11.676  -0.720  3.90724E-02  7.84843E-02 -3.94118E-02
    8985.705    -11.462  -0.680  4.13836E-02  8.52213E-02 -4.38377E-02
    8985.906    -11.261  -0.640  4.39653E-02  9.27777E-02 -4.88123E-02
    8986.095    -11.072  -0.600  4.68549E-02  1.01243E-01 -5.43876E-02
    8986.272    -10.895  -0.560  5.00848E-02  1.10691E-01 -6.06061E-02
    8986.437    -10.731  -0.520  5.36751E-02  1.21166E-01 -6.74906E-02
    8986.589    -10.578  -0.480  5.76216E-02  1.32653E-01 -7.50314E-02
    8986.729    -10.438  -0.440  6.18822E-02  1.45053E-01 -8.31709E-02
    8986.857    -10.310  -0.400  6.63661E-02  1.58156E-01 -9.17903E-02
    8986.973    -10.194  -0.360  7.09312E-02  1.71635E-01 -1.00704E-01
    8987.077    -10.091  -0.320  7.53975E-02  1.85065E-01 -1.09668E-01
    8987.168     -9.999  -0.280  7.95752E-02  1.97973E-01 -1.18397E-01
    8987.247     -9.920  -0.240  8.33000E-02  2.09899E-01 -1.26599E-01
    8987.315     -9.853  -0.200  8.64601E-02  2.20456E-01 -1.33996E-01
    8987.369     -9.798  -0.160  8.90058E-02  2.29354E-01 -1.40349E-01
    8987.412     -9.755  -0.120  9.09406E-02  2.36403E-01 -1.45463E-01
    8987.443     -9.725  -0.080  9.22999E-02  2.41491E-01 -1.49192E-01
    8987.467     -9.701   0.000  9.34129E-02  2.45587E-01 -1.52174E-01
    8987.522     -9.646   0.120  9.58068E-02  2.54839E-01 -1.59032E-01
    8987.564     -9.603   0.160  9.74219E-02  2.62053E-01 -1.64631E-01
    8987.619     -9.548   0.200  9.92394E-02  2.71302E-01 -1.72063E-01
    8987.686     -9.481   0.240  1.01060E-01  2.82491E-01 -1.81431E-01
    8987.766     -9.402   0.280  1.02651E-01  2.95445E-01 -1.92794E-01
    8987.857     -9.310   0.320  1.03753E-01  3.09875E-01 -2.06122E-01
    8987.961     -9.207   0.360  1.04245E-01  3.25472E-01 -2.21227E-01
    8988.077     -9.091   0.400  1.04088E-01  3.41850E-01 -2.37762E-01
    8988.205     -8.963   0.440  1.03452E-01  3.58676E-01 -2.55224E-01
    8988.345     -8.823   0.480  1.02650E-01  3.75669E-01 -2.73019E-01
    8988.497     -8.670   0.520  1.02109E-01  3.92686E-01 -2.90577E-01
    8988.662     -8.506   0.560  1.02080E-01  4.09632E-01 -3.07552E-01
    8988.839     -8.329   0.600  1.02767E-01  4.26501E-01 -3.23734E-01
    8989.028     -8.140   0.640  1.04157E-01  4.43291E-01 -3.39134E-01
    8989.229     -7.939   0.680  1.06260E-01  4.60104E-01 -3.53844E-01
    8989.442     -7.726   0.720  1.08987E-01  4.76946E-01 -3.67959E-01
    8989.668     -7.500   0.760  1.12512E-01  4.93905E-01 -3.81393E-01
    8989.905     -7.262   0.800  1.17071E-01  5.10997E-01 -3.93926E-01
    8990.155     -7.012   0.840  1.23005E-01  5.28250E-01 -4.05245E-01
    8990.417     -6.750   0.880  1.30567E-01  5.45722E-01 -4.15156E-01
    8990.692     -6.476   0.920  1.39960E-01  5.63360E-01 -4.23400E-01
    8990.978     -6.189   0.960  1.51866E-01  5.81200E-01 -4.29334E-01
    8991.277     -5.891   1.000  1.67493E-01  5.99191E-01 -4.31698E-01
    8991.588     -5.580   1.040  1.88310E-01  6.17357E-01 -4.29048E-01
    8991.911     -5.257   1.080  2.14791E-01  6.35613E-01 -4.20822E-01
    8992.246     -4.921   1.120  2.46506E-01  6.53969E-01 -4.07463E-01
    8992.594     -4.574   1.160  2.83738E-01  6.72332E-01 -3.88594E-01
    8992.953     -4.214   1.200  3.27796E-01  6.90684E-01 -3.62888E-01
    8993.325     -3.842   1.240  3.77378E-01  7.08987E-01 -3.31609E-01
    8993.709     -3.458   1.280  4.28174E-01  7.27157E-01 -2.98983E-01
    8994.105     -3.062   1.320  4.78766E-01  7.45152E-01 -2.66386E-01
    8994.514     -2.654   1.360  5.31301E-01  7.62907E-01 -2.31606E-01
    8994.935     -2.233   1.400  5.87127E-01  7.80379E-01 -1.93251E-01
    8995.367     -1.800   1.440  6.44323E-01  7.97522E-01 -1.53200E-01
    8995.812     -1.355   1.480  6.90929E-01  8.14275E-01 -1.23347E-01
    8996.270     -0.898   1.520  7.05704E-01  8.30595E-01 -1.24891E-01
    8996.739     -0.429   1.560  6.75251E-01  8.46439E-01 -1.71188E-01
    8997.221      0.053   1.600  6.16333E-01  8.61749E-01 -2.45416E-01
    8997.714      0.547   1.640  5.60600E-01  8.76506E-01 -3.15906E-01
    8998.220      1.053   1.680  5.24653E-01  8.90675E-01 -3.66023E-01
    8998.738      1.571   1.720  5.12210E-01  9.04202E-01 -3.91992E-01
    8999.269      2.101   1.760  5.21227E-01  9.17095E-01 -3.95868E-01
    8999.811      2.644   1.800  5.44813E-01  9.29326E-01 -3.84513E-01
    9000.366      3.198   1.840  5.75004E-01  9.40866E-01 -3.65862E-01
    9000.933      3.765   1.880  6.12096E-01  9.51733E-01 -3.39637E-01
    9001.512      4.345   1.920  6.63615E-01  9.61883E-01 -2.98268E-01
    9002.103      4.936   1.960  7.34391E-01  9.71337E-01 -2.36946E-01
    9002.707      5.539   2.000  8.20135E-01  9.80115E-01 -1.59980E-01
    9003.323      6.155   2.040  9.15502E-01  9.88181E-01 -7.26796E-02
    9003.950      6.783   2.080  1.02588E+00  9.95582E-01  3.03013E-02
    9004.591      7.423   2.120  1.15544E+00  1.00232E+00  1.53120E-01
    9005.243      8.075   2.160  1.27262E+00  1.00841E+00  2.64207E-01
    9005.907      8.740   2.200  1.33053E+00  1.01386E+00  3.16663E-01
    9006.584      9.416   2.240  1.33824E+00  1.01870E+00  3.19536E-01
    9007.273     10.105   2.280  1.34612E+00  1.02296E+00  3.23162E-01
    9007.974     10.806   2.320  1.37856E+00  1.02665E+00  3.51911E-01
    9008.687     11.519   2.360  1.42210E+00  1.02981E+00  3.92291E-01
    9009.412     12.245   2.400  1.44729E+00  1.03248E+00  4.14811E-01
    9010.150     12.983   2.440  1.44364E+00  1.03465E+00  4.08985E-01
    9010.900     13.732   2.480  1.42477E+00  1.03636E+00  3.88412E-01
    9011.662     14.494   2.520  1.39714E+00  1.03766E+00  3.59481E-01
    9012.436     15.268   2.560  1.35767E+00  1.03855E+00  3.19126E-01
    9013.222     16.055   2.600  1.30536E+00  1.03906E+00  2.66300E-01
    9014.021     16.853   2.640  1.24519E+00  1.03924E+00  2.05948E-01
    9014.832     17.664   2.680  1.19398E+00  1.03910E+00  1.54887E-01
    9015.655     18.487   2.720  1.16258E+00  1.03867E+00  1.23916E-01
    9016.490     19.322   2.760  1.14382E+00  1.03798E+00  1.05834E-01
    9017.337     20.170   2.800  1.13122E+00  1.03705E+00  9.41694E-02
    9018.197     21.029   2.840  1.12127E+00  1.03589E+00  8.53765E-02
    9019.068     21.901   2.880  1.11154E+00  1.03456E+00  7.69865E-02
    9019.952     22.785   2.920  1.10016E+00  1.03303E+00  6.71348E-02
    9020.849     23.681   2.960  1.08684E+00  1.03137E+00  5.54717E-02
    9021.757     24.589   3.000  1.07258E+00  1.02958E+00  4.30038E-02
    9022.677     25.510   3.040  1.05839E+00  1.02767E+00  3.07142E-02
    9023.610     26.442   3.080  1.04462E+00  1.02568E+00  1.89437E-02
    9024.555     27.387   3.120  1.03118E+00  1.02360E+00  7.57689E-03
    9025.512     28.344   3.160  1.01739E+00  1.02146E+00 -4.06483E-03
    9026.481     29.314   3.200  1.00262E+00  1.01929E+00 -1.66617E-02
    9027.463     30.295   3.240  9.86333E-01  1.01706E+00 -3.07269E-02
    9028.456     31.289   3.280  9.68232E-01  1.01484E+00 -4.66109E-02
    9029.462     32.295   3.320  9.48414E-01  1.01260E+00 -6.41876E-02
    9030.480     33.313   3.360  9.27744E-01  1.01036E+00 -8.26191E-02
    9031.510     34.343   3.400  9.07481E-01  1.00815E+00 -1.00672E-01
    9032.553     35.385   3.440  8.88823E-01  1.00597E+00 -1.17152E-01
    9033.607     36.440   3.480  8.72801E-01  1.00381E+00 -1.31013E-01
    9034.674     37.507   3.520  8.60277E-01  1.00171E+00 -1.41438E-01
    9035.753     38.586   3.560  8.51398E-01  9.99659E-01 -1.48262E-01
    9036.844     39.677   3.600  8.46032E-01  9.97651E-01 -1.51620E-01
    9037.948     40.780   3.640  8.43967E-01  9.95716E-01 -1.51749E-01
    9039.063     41.896   3.680  8.44868E-01  9.93855E-01 -1.48987E-01
    9040.191     43.023   3.720  8.48256E-01  9.92051E-01 -1.43795E-01
    9041.331     44.163   3.760  8.53840E-01  9.90346E-01 -1.36506E-01
    9042.483     45.316   3.800  8.61357E-01  9.88723E-01 -1.27365E-01
    9043.647     46.480   3.840  8.70383E-01  9.87160E-01 -1.16777E-01
    9044.824     47.656   3.880  8.80626E-01  9.85702E-01 -1.05076E-01
    9046.013     48.845   3.920  8.91785E-01  9.84353E-01 -9.25677E-02
    9047.214     50.046   3.960  9.03471E-01  9.83067E-01 -7.95965E-02
    9048.427     51.259   4.000  9.15167E-01  9.81890E-01 -6.67228E-02
    9049.652     52.484   4.040  9.26342E-01  9.80822E-01 -5.44799E-02
    9050.889     53.722   4.080  9.36552E-01  9.79843E-01 -4.32904E-02
    9052.139     54.972   4.120  9.45685E-01  9.78950E-01 -3.32643E-02
    9053.401     56.233   4.160  9.54156E-01  9.78165E-01 -2.40091E-02
    9054.675     57.507   4.200  9.62650E-01  9.77468E-01 -1.48178E-02
    9055.961     58.794   4.240  9.71800E-01  9.76858E-01 -5.05722E-03
    9057.260     60.092   4.280  9.81976E-01  9.76355E-01  5.62158E-03
    9058.570     61.403   4.320  9.93207E-01  9.75939E-01  1.72687E-02
    9059.893     62.726   4.360  1.00523E+00  9.75608E-01  2.96212E-02
    9061.228     64.061   4.400  1.01753E+00  9.75383E-01  4.21452E-02
    9062.575     65.408   4.440  1.02948E+00  9.75244E-01  5.42377E-02
    9063.935     66.767   4.480  1.04032E+00  9.75186E-01  6.51344E-02
    9065.306     68.139   4.520  1.04921E+00  9.75210E-01  7.40015E-02
    9066.690     69.523   4.560  1.05538E+00  9.75314E-01  8.00664E-02
    9068.086     70.919   4.600  1.05817E+00  9.75495E-01  8.26745E-02
    9069.494     72.327   4.640  1.05718E+00  9.75754E-01  8.14265E-02
    9070.915     73.747   4.680  1.05256E+00  9.76067E-01  7.64918E-02
    9072.347     75.180   4.720  1.04506E+00  9.76475E-01  6.85837E-02
    9073.792     76.624   4.760  1.03587E+00  9.76913E-01  5.89575E-02
    9075.249     78.081   4.800  1.02659E+00  9.77440E-01  4.91506E-02
    9076.718     79.551   4.840  1.01864E+00  9.77993E-01  4.06422E-02
    9078.199     81.032   4.880  1.01320E+00  9.78612E-01  3.45860E-02
    9079.693     82.525   4.920  1.01093E+00  9.79274E-01  3.16578E-02
    9081.199     84.031   4.960  1.01191E+00  9.79977E-01  3.19353E-02
    9082.717     85.549   5.000  1.01557E+00  9.80718E-01  3.48477E-02
    9084.247     87.079   5.040  1.02077E+00  9.81495E-01  3.92725E-02
    9085.789     88.621   5.080  1.02610E+00  9.82285E-01  4.38169E-02
    9087.343     90.176   5.120  1.03032E+00  9.83107E-01  4.72155E-02
    9088.910     91.742   5.160  1.03261E+00  9.83960E-01  4.86499E-02
    9090.489     93.321   5.200  1.03271E+00  9.84819E-01  4.78910E-02
    9092.080     94.912   5.240  1.03092E+00  9.85680E-01  4.52392E-02
    9093.683     96.516   5.280  1.02779E+00  9.86542E-01  4.12482E-02
    9095.299     98.131   5.320  1.02386E+00  9.87403E-01  3.64591E-02
    9096.926     99.759   5.360  1.01940E+00  9.88263E-01  3.11353E-02
    9098.566    101.399   5.400  1.01443E+00  9.89119E-01  2.53129E-02
    9100.218    103.051   5.440  1.00878E+00  9.89968E-01  1.88149E-02
    9101.882    104.715   5.480  1.00220E+00  9.90786E-01  1.14129E-02
    9103.559    106.391   5.520  9.94606E-01  9.91570E-01  3.03617E-03
    9105.247    108.080   5.560  9.86306E-01  9.92341E-01 -6.03475E-03
    9106.948    109.780   5.600  9.77807E-01  9.93075E-01 -1.52682E-02
    9108.661    111.493   5.640  9.69716E-01  9.93771E-01 -2.40554E-02
    9110.386    113.219   5.680  9.62624E-01  9.94429E-01 -3.18050E-02
    9112.124    114.956   5.720  9.57042E-01  9.95068E-01 -3.80268E-02
    9113.873    116.706   5.760  9.53235E-01  9.95643E-01 -4.24076E-02
    9115.635    118.467   5.800  9.51322E-01  9.96170E-01 -4.48474E-02
    9117.409    120.241   5.840  9.51223E-01  9.96628E-01 -4.54050E-02
    9119.195    122.027   5.880  9.52795E-01  9.97062E-01 -4.42670E-02
    9120.993    123.826   5.920  9.55658E-01  9.97420E-01 -4.17612E-02
    9122.804    125.636   5.960  9.59293E-01  9.97689E-01 -3.83958E-02
    9124.626    127.459   6.000  9.63080E-01  9.97875E-01 -3.47944E-02
