# # comment:                                                     FEFF 9.9.1  
# # Source:
# # Structure
# # Reduced
# # space
# # abc:
# # angles:111.188249
# # sites:
# # POT  SCF 100  7.0000   0, screened core-hole, AFOLP (folp(0)= 1.150)
# # Abs   Z=29 Rmt= 1.284 Rnm= 1.351 K  shell
# # Pot 1 Z= 3 Rmt= 1.353 Rnm= 1.422
# # Pot 2 Z=29 Rmt= 1.284 Rnm= 1.351
# # Pot 3 Z= 6 Rmt= 0.706 Rnm= 0.924
# # Pot 4 Z= 8 Rmt= 0.849 Rnm= 1.020
# # Gam_ch=1.729E+00 H-L exch Vi= 0.000E+00 Vr= 0.000E+00
# # Mu=-7.122E+00eV kf=2.603E+00 Vint=-1.787E+01eV Rs_int= 1.393
# FMS rfms= 9.0000
# # PATH  Rmax=-1.000,  Keep_limit= 0.00, Heap_limit 0.00  Pwcrit= 2.50%
#  S02=0.950  Temp=   0.00  Debye_temp=   0.00  Global_sig2= 0.00000
#  Energy zero shift, vr, vi    0.00000E+00   0.00000E+00
#  Curved wave amplitude ratio filter   4.000%
#     file         sig2 tot  cw amp ratio   deg  nlegs   reff  inp sig2
#     0/   0 paths used
#  xsedge+ 50, used to normalize mu           2.5018E-04
#  -----------------------------------------------------------------------
#  omega    e    k    mu    mu0     chi     @#
    8983.339    -10.932  -1.000  3.92952E-02  5.01387E-02 -1.08435E-02
    8983.637    -10.633  -0.960  4.14056E-02  5.37285E-02 -1.23229E-02
    8983.924    -10.346  -0.920  4.36695E-02  5.77165E-02 -1.40469E-02
    8984.198    -10.072  -0.880  4.61006E-02  6.21616E-02 -1.60610E-02
    8984.460     -9.810  -0.840  4.87132E-02  6.71324E-02 -1.84192E-02
    8984.710     -9.560  -0.800  5.15231E-02  7.27085E-02 -2.11853E-02
    8984.948     -9.322  -0.760  5.45466E-02  7.89811E-02 -2.44345E-02
    8985.173     -9.097  -0.720  5.78005E-02  8.60536E-02 -2.82531E-02
    8985.387     -8.883  -0.680  6.13012E-02  9.40397E-02 -3.27385E-02
    8985.588     -8.682  -0.640  6.50640E-02  1.03060E-01 -3.79958E-02
    8985.777     -8.493  -0.600  6.91004E-02  1.13232E-01 -4.41316E-02
    8985.954     -8.317  -0.560  7.34163E-02  1.24657E-01 -5.12411E-02
    8986.118     -8.152  -0.520  7.80069E-02  1.37396E-01 -5.93890E-02
    8986.271     -8.000  -0.480  8.28527E-02  1.51435E-01 -6.85823E-02
    8986.411     -7.859  -0.440  8.79126E-02  1.66651E-01 -7.87383E-02
    8986.539     -7.731  -0.400  9.31198E-02  1.82778E-01 -8.96581E-02
    8986.655     -7.615  -0.360  9.83794E-02  1.99398E-01 -1.01019E-01
    8986.758     -7.512  -0.320  1.03572E-01  2.15969E-01 -1.12397E-01
    8986.850     -7.420  -0.280  1.08562E-01  2.31887E-01 -1.23325E-01
    8986.929     -7.341  -0.240  1.13210E-01  2.46576E-01 -1.33366E-01
    8986.996     -7.274  -0.200  1.17384E-01  2.59551E-01 -1.42167E-01
    8987.051     -7.219  -0.160  1.20968E-01  2.70461E-01 -1.49493E-01
    8987.094     -7.177  -0.120  1.23865E-01  2.79081E-01 -1.55216E-01
    8987.124     -7.146  -0.080  1.26000E-01  2.85289E-01 -1.59289E-01
    8987.149     -7.122   0.000  1.27771E-01  2.90275E-01 -1.62504E-01
    8987.203     -7.067   0.120  1.31826E-01  3.01504E-01 -1.69678E-01
    8987.246     -7.024   0.160  1.35012E-01  3.10231E-01 -1.75219E-01
    8987.301     -6.969   0.200  1.39208E-01  3.21380E-01 -1.82172E-01
    8987.368     -6.902   0.240  1.44437E-01  3.34749E-01 -1.90312E-01
    8987.447     -6.823   0.280  1.50859E-01  3.50102E-01 -1.99243E-01
    8987.539     -6.732   0.320  1.58523E-01  3.66991E-01 -2.08468E-01
    8987.642     -6.628   0.360  1.67648E-01  3.84959E-01 -2.17310E-01
    8987.758     -6.512   0.400  1.78390E-01  4.03432E-01 -2.25042E-01
    8987.886     -6.384   0.440  1.91005E-01  4.21927E-01 -2.30922E-01
    8988.026     -6.244   0.480  2.05890E-01  4.40090E-01 -2.34199E-01
    8988.179     -6.091   0.520  2.23479E-01  4.57665E-01 -2.34186E-01
    8988.343     -5.927   0.560  2.44332E-01  4.74529E-01 -2.30196E-01
    8988.520     -5.750   0.600  2.69066E-01  4.90691E-01 -2.21625E-01
    8988.709     -5.561   0.640  2.97907E-01  5.06169E-01 -2.08261E-01
    8988.910     -5.360   0.680  3.30376E-01  5.21097E-01 -1.90721E-01
    8989.124     -5.147   0.720  3.64737E-01  5.35522E-01 -1.70785E-01
    8989.349     -4.921   0.760  3.98643E-01  5.49587E-01 -1.50944E-01
    8989.587     -4.683   0.800  4.29864E-01  5.63332E-01 -1.33468E-01
    8989.837     -4.433   0.840  4.57250E-01  5.76880E-01 -1.19630E-01
    8990.099     -4.171   0.880  4.81388E-01  5.90245E-01 -1.08857E-01
    8990.373     -3.897   0.920  5.04670E-01  6.03527E-01 -9.88573E-02
    8990.660     -3.610   0.960  5.28605E-01  6.16716E-01 -8.81110E-02
    8990.959     -3.312   1.000  5.52115E-01  6.29871E-01 -7.77563E-02
    8991.269     -3.001   1.040  5.72962E-01  6.43004E-01 -7.00419E-02
    8991.593     -2.678   1.080  5.90016E-01  6.56117E-01 -6.61003E-02
    8991.928     -2.342   1.120  6.03245E-01  6.69207E-01 -6.59616E-02
    8992.275     -1.995   1.160  6.11559E-01  6.82288E-01 -7.07290E-02
    8992.635     -1.635   1.200  6.14413E-01  6.95347E-01 -8.09336E-02
    8993.007     -1.263   1.240  6.15621E-01  7.08368E-01 -9.27473E-02
    8993.391     -0.879   1.280  6.20476E-01  7.21350E-01 -1.00874E-01
    8993.787     -0.483   1.320  6.31896E-01  7.34254E-01 -1.02358E-01
    8994.196     -0.075   1.360  6.50791E-01  7.47076E-01 -9.62852E-02
    8994.616      0.346   1.400  6.76457E-01  7.59809E-01 -8.33525E-02
    8995.049      0.779   1.440  7.05889E-01  7.72409E-01 -6.65196E-02
    8995.494      1.224   1.480  7.34597E-01  7.84845E-01 -5.02487E-02
    8995.951      1.681   1.520  7.61504E-01  7.97133E-01 -3.56288E-02
    8996.421      2.150   1.560  7.91604E-01  8.09200E-01 -1.75953E-02
    8996.902      2.632   1.600  8.29484E-01  8.21058E-01  8.42620E-03
    8997.396      3.126   1.640  8.73832E-01  8.32679E-01  4.11528E-02
    8997.902      3.632   1.680  9.19754E-01  8.44034E-01  7.57203E-02
    8998.420      4.150   1.720  9.66558E-01  8.55092E-01  1.11466E-01
    8998.950      4.680   1.760  1.01826E+00  8.65865E-01  1.52396E-01
    8999.493      5.223   1.800  1.07299E+00  8.76305E-01  1.96685E-01
    9000.048      5.777   1.840  1.12274E+00  8.86405E-01  2.36334E-01
    9000.615      6.344   1.880  1.16042E+00  8.96136E-01  2.64282E-01
    9001.194      6.923   1.920  1.17723E+00  9.05494E-01  2.71737E-01
    9001.785      7.515   1.960  1.17358E+00  9.14492E-01  2.59084E-01
    9002.389      8.118   2.000  1.16115E+00  9.23065E-01  2.38087E-01
    9003.004      8.734   2.040  1.14935E+00  9.31249E-01  2.18100E-01
    9003.632      9.362   2.080  1.14282E+00  9.39024E-01  2.03797E-01
    9004.272     10.002   2.120  1.14346E+00  9.46363E-01  1.97097E-01
    9004.924     10.654   2.160  1.15590E+00  9.53308E-01  2.02597E-01
    9005.589     11.319   2.200  1.17872E+00  9.59818E-01  2.18901E-01
    9006.266     11.995   2.240  1.19984E+00  9.65892E-01  2.33944E-01
    9006.954     12.684   2.280  1.20700E+00  9.71572E-01  2.35430E-01
    9007.655     13.385   2.320  1.19825E+00  9.76821E-01  2.21429E-01
    9008.369     14.098   2.360  1.17901E+00  9.81660E-01  1.97349E-01
    9009.094     14.824   2.400  1.15444E+00  9.86092E-01  1.68345E-01
    9009.832     15.561   2.440  1.12840E+00  9.90123E-01  1.38274E-01
    9010.582     16.311   2.480  1.10477E+00  9.93757E-01  1.11011E-01
    9011.343     17.073   2.520  1.08417E+00  9.97040E-01  8.71259E-02
    9012.118     17.847   2.560  1.06236E+00  9.99935E-01  6.24262E-02
    9012.904     18.634   2.600  1.03775E+00  1.00247E+00  3.52725E-02
    9013.703     19.432   2.640  1.01385E+00  1.00468E+00  9.16863E-03
    9014.513     20.243   2.680  9.94525E-01  1.00656E+00 -1.20336E-02
    9015.336     21.066   2.720  9.81356E-01  1.00814E+00 -2.67862E-02
    9016.172     21.901   2.760  9.72406E-01  1.00941E+00 -3.70076E-02
    9017.019     22.749   2.800  9.61878E-01  1.01040E+00 -4.85238E-02
    9017.878     23.608   2.840  9.44048E-01  1.01111E+00 -6.70658E-02
    9018.750     24.480   2.880  9.18545E-01  1.01158E+00 -9.30358E-02
    9019.634     25.364   2.920  8.91421E-01  1.01183E+00 -1.20408E-01
    9020.530     26.260   2.960  8.70836E-01  1.01185E+00 -1.41011E-01
    9021.438     27.168   3.000  8.64892E-01  1.01166E+00 -1.46770E-01
    9022.359     28.089   3.040  8.63038E-01  1.01130E+00 -1.48264E-01
    9023.292     29.021   3.080  8.61220E-01  1.01076E+00 -1.49535E-01
    9024.236     29.966   3.120  8.60221E-01  1.01007E+00 -1.49849E-01
    9025.194     30.923   3.160  8.61601E-01  1.00923E+00 -1.47632E-01
    9026.163     31.893   3.200  8.65642E-01  1.00827E+00 -1.42628E-01
    9027.144     32.874   3.240  8.72070E-01  1.00719E+00 -1.35119E-01
    9028.138     33.868   3.280  8.80651E-01  1.00602E+00 -1.25367E-01
    9029.144     34.873   3.320  8.91162E-01  1.00474E+00 -1.13582E-01
    9030.162     35.891   3.360  9.03522E-01  1.00343E+00 -9.99110E-02
    9031.192     36.922   3.400  9.17401E-01  1.00203E+00 -8.46308E-02
    9032.234     37.964   3.440  9.32128E-01  1.00060E+00 -6.84764E-02
    9033.289     39.019   3.480  9.46774E-01  9.99118E-01 -5.23444E-02
    9034.356     40.086   3.520  9.60708E-01  9.97618E-01 -3.69099E-02
    9035.435     41.164   3.560  9.73271E-01  9.96110E-01 -2.28389E-02
    9036.526     42.256   3.600  9.84067E-01  9.94599E-01 -1.05319E-02
    9037.629     43.359   3.640  9.93110E-01  9.93066E-01  4.41376E-05
    9038.745     44.475   3.680  1.00070E+00  9.91557E-01  9.14426E-03
    9039.873     45.602   3.720  1.00726E+00  9.90079E-01  1.71817E-02
    9041.013     46.742   3.760  1.01319E+00  9.88612E-01  2.45779E-02
    9042.165     47.894   3.800  1.01874E+00  9.87182E-01  3.15559E-02
    9043.329     49.059   3.840  1.02383E+00  9.85789E-01  3.80424E-02
    9044.506     50.235   3.880  1.02832E+00  9.84459E-01  4.38582E-02
    9045.694     51.424   3.920  1.03200E+00  9.83153E-01  4.88452E-02
    9046.895     52.625   3.960  1.03481E+00  9.81914E-01  5.28924E-02
    9048.108     53.838   4.000  1.03667E+00  9.80744E-01  5.59214E-02
    9049.334     55.063   4.040  1.03752E+00  9.79622E-01  5.78965E-02
    9050.571     56.301   4.080  1.03736E+00  9.78552E-01  5.88118E-02
    9051.821     57.550   4.120  1.03631E+00  9.77577E-01  5.87302E-02
    9053.083     58.812   4.160  1.03453E+00  9.76656E-01  5.78733E-02
    9054.357     60.086   4.200  1.03232E+00  9.75813E-01  5.65078E-02
    9055.643     61.373   4.240  1.02986E+00  9.75069E-01  5.47924E-02
    9056.941     62.671   4.280  1.02710E+00  9.74379E-01  5.27255E-02
    9058.252     63.982   4.320  1.02395E+00  9.73743E-01  5.02083E-02
    9059.575     65.305   4.360  1.02031E+00  9.73206E-01  4.71073E-02
    9060.910     66.640   4.400  1.01615E+00  9.72750E-01  4.33984E-02
    9062.257     67.987   4.440  1.01162E+00  9.72370E-01  3.92487E-02
    9063.616     69.346   4.480  1.00691E+00  9.72045E-01  3.48689E-02
    9064.988     70.718   4.520  1.00226E+00  9.71818E-01  3.04413E-02
    9066.372     72.102   4.560  9.97729E-01  9.71646E-01  2.60828E-02
    9067.768     73.498   4.600  9.93344E-01  9.71548E-01  2.17958E-02
    9069.176     74.906   4.640  9.89011E-01  9.71523E-01  1.74872E-02
    9070.596     76.326   4.680  9.84544E-01  9.71551E-01  1.29928E-02
    9072.029     77.759   4.720  9.79788E-01  9.71651E-01  8.13651E-03
    9073.474     79.203   4.760  9.74676E-01  9.71822E-01  2.85456E-03
    9074.931     80.660   4.800  9.69299E-01  9.72039E-01 -2.74049E-03
    9076.400     82.129   4.840  9.63889E-01  9.72304E-01 -8.41460E-03
    9077.881     83.611   4.880  9.58740E-01  9.72634E-01 -1.38946E-02
    9079.375     85.104   4.920  9.54049E-01  9.73008E-01 -1.89596E-02
    9080.880     86.610   4.960  9.49948E-01  9.73423E-01 -2.34750E-02
    9082.398     88.128   5.000  9.46517E-01  9.73876E-01 -2.73591E-02
    9083.928     89.658   5.040  9.43806E-01  9.74366E-01 -3.05599E-02
    9085.471     91.200   5.080  9.41878E-01  9.74871E-01 -3.29931E-02
    9087.025     92.755   5.120  9.40891E-01  9.75431E-01 -3.45397E-02
    9088.592     94.321   5.160  9.40898E-01  9.76001E-01 -3.51033E-02
    9090.171     95.900   5.200  9.41924E-01  9.76579E-01 -3.46546E-02
    9091.762     97.491   5.240  9.43904E-01  9.77183E-01 -3.32788E-02
    9093.365     99.095   5.280  9.46658E-01  9.77790E-01 -3.11321E-02
    9094.980    100.710   5.320  9.49992E-01  9.78398E-01 -2.84054E-02
    9096.608    102.338   5.360  9.53729E-01  9.78981E-01 -2.52519E-02
    9098.248    103.977   5.400  9.57778E-01  9.79585E-01 -2.18071E-02
    9099.900    105.629   5.440  9.61959E-01  9.80187E-01 -1.82282E-02
    9101.564    107.294   5.480  9.66021E-01  9.80760E-01 -1.47396E-02
    9103.240    108.970   5.520  9.69721E-01  9.81324E-01 -1.16025E-02
    9104.929    110.659   5.560  9.72782E-01  9.81856E-01 -9.07381E-03
    9106.630    112.359   5.600  9.75035E-01  9.82377E-01 -7.34212E-03
    9108.343    114.072   5.640  9.76361E-01  9.82863E-01 -6.50136E-03
    9110.068    115.798   5.680  9.76823E-01  9.83310E-01 -6.48746E-03
    9111.805    117.535   5.720  9.76642E-01  9.83717E-01 -7.07497E-03
    9113.555    119.284   5.760  9.76157E-01  9.84085E-01 -7.92789E-03
    9115.316    121.046   5.800  9.75695E-01  9.84412E-01 -8.71675E-03
    9117.090    122.820   5.840  9.75514E-01  9.84698E-01 -9.18400E-03
    9118.876    124.606   5.880  9.75784E-01  9.84941E-01 -9.15649E-03
    9120.675    126.405   5.920  9.76584E-01  9.85137E-01 -8.55310E-03
    9122.485    128.215   5.960  9.77842E-01  9.85255E-01 -7.41278E-03
    9124.308    130.038   6.000  9.79441E-01  9.85298E-01 -5.85717E-03
