# # comment:                                                     FEFF 9.9.1  
# # Source:
# # Structure
# # Reduced
# # space
# # abc:
# # angles:
# # sites:
# # POT  SCF 100  7.0000   0, screened core-hole, AFOLP (folp(0)= 1.150)
# # Abs   Z=29 Rmt= 1.222 Rnm= 1.276 K  shell
# # Pot 1 Z= 3 Rmt= 1.271 Rnm= 1.309
# # Pot 2 Z=24 Rmt= 1.302 Rnm= 1.394
# # Pot 3 Z=29 Rmt= 1.223 Rnm= 1.278
# # Pot 4 Z= 8 Rmt= 1.042 Rnm= 1.095
# # Gam_ch=1.729E+00 H-L exch Vi= 0.000E+00 Vr= 0.000E+00
# # Mu=-1.080E+01eV kf=2.140E+00 Vint=-1.936E+01eV Rs_int= 1.695
# FMS rfms= 9.0000
# # PATH  Rmax=-1.000,  Keep_limit= 0.00, Heap_limit 0.00  Pwcrit= 2.50%
#  S02=0.950  Temp=   0.00  Debye_temp=   0.00  Global_sig2= 0.00000
#  Energy zero shift, vr, vi    0.00000E+00   0.00000E+00
#  Curved wave amplitude ratio filter   4.000%
#     file         sig2 tot  cw amp ratio   deg  nlegs   reff  inp sig2
#     0/   0 paths used
#  xsedge+ 50, used to normalize mu           2.4746E-04
#  -----------------------------------------------------------------------
#  omega    e    k    mu    mu0     chi     @#
    8985.502    -14.612  -1.000  3.02714E-02  5.04129E-02 -2.01415E-02
    8985.801    -14.313  -0.960  3.15189E-02  5.39925E-02 -2.24736E-02
    8986.087    -14.026  -0.920  3.28398E-02  5.79640E-02 -2.51243E-02
    8986.361    -13.752  -0.880  3.42430E-02  6.23849E-02 -2.81419E-02
    8986.624    -13.490  -0.840  3.57394E-02  6.73216E-02 -3.15822E-02
    8986.873    -13.240  -0.800  3.73420E-02  7.28514E-02 -3.55094E-02
    8987.111    -13.002  -0.760  3.90664E-02  7.90626E-02 -3.99962E-02
    8987.337    -12.777  -0.720  4.09311E-02  8.60552E-02 -4.51242E-02
    8987.550    -12.563  -0.680  4.29572E-02  9.39392E-02 -5.09820E-02
    8987.751    -12.362  -0.640  4.51676E-02  1.02830E-01 -5.76628E-02
    8987.940    -12.173  -0.600  4.75852E-02  1.12843E-01 -6.52573E-02
    8988.117    -11.997  -0.560  5.02287E-02  1.24073E-01 -7.38440E-02
    8988.282    -11.832  -0.520  5.31061E-02  1.36578E-01 -8.34718E-02
    8988.434    -11.680  -0.480  5.62059E-02  1.50345E-01 -9.41387E-02
    8988.574    -11.539  -0.440  5.94868E-02  1.65252E-01 -1.05765E-01
    8988.702    -11.411  -0.400  6.28706E-02  1.81042E-01 -1.18172E-01
    8988.818    -11.296  -0.360  6.62435E-02  1.97309E-01 -1.31066E-01
    8988.922    -11.192  -0.320  6.94702E-02  2.13527E-01 -1.44057E-01
    8989.013    -11.100  -0.280  7.24192E-02  2.29110E-01 -1.56691E-01
    8989.092    -11.021  -0.240  7.49889E-02  2.43495E-01 -1.68506E-01
    8989.159    -10.954  -0.200  7.71236E-02  2.56211E-01 -1.79087E-01
    8989.214    -10.899  -0.160  7.88121E-02  2.66909E-01 -1.88097E-01
    8989.257    -10.857  -0.120  8.00746E-02  2.75368E-01 -1.95293E-01
    8989.287    -10.826  -0.080  8.09429E-02  2.81462E-01 -2.00520E-01
    8989.312    -10.802   0.000  8.16102E-02  2.86359E-01 -2.04749E-01
    8989.367    -10.747   0.120  8.30667E-02  2.97415E-01 -2.14348E-01
    8989.409    -10.704   0.160  8.40863E-02  3.06003E-01 -2.21917E-01
    8989.464    -10.649   0.200  8.53045E-02  3.16973E-01 -2.31669E-01
    8989.531    -10.582   0.240  8.66149E-02  3.30201E-01 -2.43587E-01
    8989.611    -10.503   0.280  8.79351E-02  3.45392E-01 -2.57457E-01
    8989.702    -10.412   0.320  8.91989E-02  3.62189E-01 -2.72990E-01
    8989.806    -10.308   0.360  9.04056E-02  3.80105E-01 -2.89700E-01
    8989.921    -10.192   0.400  9.16562E-02  3.98664E-01 -3.07007E-01
    8990.049    -10.064   0.440  9.30366E-02  4.17368E-01 -3.24331E-01
    8990.190     -9.924   0.480  9.47875E-02  4.35887E-01 -3.41100E-01
    8990.342     -9.772   0.520  9.71066E-02  4.53978E-01 -3.56871E-01
    8990.507     -9.607   0.560  1.00116E-01  4.71537E-01 -3.71421E-01
    8990.683     -9.430   0.600  1.03866E-01  4.88516E-01 -3.84650E-01
    8990.872     -9.241   0.640  1.08246E-01  5.05006E-01 -3.96760E-01
    8991.074     -9.040   0.680  1.12887E-01  5.21052E-01 -4.08165E-01
    8991.287     -8.827   0.720  1.17330E-01  5.36725E-01 -4.19395E-01
    8991.513     -8.601   0.760  1.21416E-01  5.52101E-01 -4.30686E-01
    8991.750     -8.363   0.800  1.25556E-01  5.67285E-01 -4.41729E-01
    8992.000     -8.113   0.840  1.30695E-01  5.82311E-01 -4.51615E-01
    8992.262     -7.851   0.880  1.37940E-01  5.97219E-01 -4.59279E-01
    8992.537     -7.577   0.920  1.48346E-01  6.12058E-01 -4.63712E-01
    8992.823     -7.290   0.960  1.63033E-01  6.26827E-01 -4.63794E-01
    8993.122     -6.992   1.000  1.83528E-01  6.41556E-01 -4.58028E-01
    8993.433     -6.681   1.040  2.11814E-01  6.56224E-01 -4.44410E-01
    8993.756     -6.358   1.080  2.49963E-01  6.70843E-01 -4.20880E-01
    8994.091     -6.022   1.120  2.98663E-01  6.85404E-01 -3.86742E-01
    8994.439     -5.675   1.160  3.52841E-01  6.99869E-01 -3.47029E-01
    8994.798     -5.315   1.200  3.98016E-01  7.14218E-01 -3.16202E-01
    8995.170     -4.943   1.240  4.21172E-01  7.28447E-01 -3.07275E-01
    8995.554     -4.559   1.280  4.27171E-01  7.42510E-01 -3.15338E-01
    8995.950     -4.163   1.320  4.33470E-01  7.56397E-01 -3.22927E-01
    8996.359     -3.755   1.360  4.53992E-01  7.70082E-01 -3.16090E-01
    8996.779     -3.334   1.400  4.92277E-01  7.83493E-01 -2.91217E-01
    8997.212     -2.901   1.440  5.41020E-01  7.96661E-01 -2.55642E-01
    8997.657     -2.456   1.480  5.90336E-01  8.09516E-01 -2.19180E-01
    8998.114     -1.999   1.520  6.41724E-01  8.22045E-01 -1.80321E-01
    8998.584     -1.530   1.560  7.00173E-01  8.34240E-01 -1.34068E-01
    8999.065     -1.048   1.600  7.51393E-01  8.46051E-01 -9.46578E-02
    8999.559     -0.554   1.640  7.93312E-01  8.57469E-01 -6.41568E-02
    9000.065     -0.048   1.680  8.74480E-01  8.68487E-01  5.99307E-03
    9000.583      0.470   1.720  1.04407E+00  8.79078E-01  1.64992E-01
    9001.114      1.000   1.760  1.28556E+00  8.89216E-01  3.96345E-01
    9001.656      1.543   1.800  1.54699E+00  8.98917E-01  6.48075E-01
    9002.211      2.097   1.840  1.76878E+00  9.08137E-01  8.60647E-01
    9002.778      2.664   1.880  1.87800E+00  9.16914E-01  9.61083E-01
    9003.357      3.243   1.920  1.84908E+00  9.25208E-01  9.23876E-01
    9003.948      3.835   1.960  1.75506E+00  9.33038E-01  8.22023E-01
    9004.552      4.438   2.000  1.68323E+00  9.40405E-01  7.42820E-01
    9005.168      5.054   2.040  1.64618E+00  9.47292E-01  6.98891E-01
    9005.795      5.682   2.080  1.58682E+00  9.53722E-01  6.33101E-01
    9006.435      6.322   2.120  1.45013E+00  9.59719E-01  4.90412E-01
    9007.088      6.974   2.160  1.27050E+00  9.65249E-01  3.05248E-01
    9007.752      7.639   2.200  1.11738E+00  9.70356E-01  1.47022E-01
    9008.429      8.315   2.240  1.01164E+00  9.75047E-01  3.65912E-02
    9009.118      9.004   2.280  9.42051E-01  9.79329E-01 -3.72780E-02
    9009.819      9.705   2.320  8.95084E-01  9.83208E-01 -8.81234E-02
    9010.532     10.418   2.360  8.62654E-01  9.86713E-01 -1.24059E-01
    9011.257     11.144   2.400  8.40790E-01  9.89853E-01 -1.49064E-01
    9011.995     11.881   2.440  8.28370E-01  9.92656E-01 -1.64287E-01
    9012.745     12.631   2.480  8.29682E-01  9.95130E-01 -1.65448E-01
    9013.507     13.393   2.520  8.55630E-01  9.97285E-01 -1.41655E-01
    9014.281     14.167   2.560  9.13754E-01  9.99149E-01 -8.53947E-02
    9015.067     14.954   2.600  9.76974E-01  1.00073E+00 -2.37557E-02
    9015.866     15.752   2.640  1.02335E+00  1.00206E+00  2.12921E-02
    9016.677     16.563   2.680  1.04646E+00  1.00314E+00  4.33186E-02
    9017.500     17.386   2.720  1.04917E+00  1.00401E+00  4.51581E-02
    9018.335     18.221   2.760  1.03824E+00  1.00465E+00  3.35872E-02
    9019.182     19.069   2.800  1.01728E+00  1.00512E+00  1.21657E-02
    9020.042     19.928   2.840  9.87890E-01  1.00539E+00 -1.74978E-02
    9020.913     20.800   2.880  9.52627E-01  1.00552E+00 -5.28908E-02
    9021.797     21.684   2.920  9.13999E-01  1.00549E+00 -9.14923E-02
    9022.693     22.580   2.960  8.75767E-01  1.00534E+00 -1.29570E-01
    9023.602     23.488   3.000  8.41709E-01  1.00506E+00 -1.63353E-01
    9024.522     24.409   3.040  8.14598E-01  1.00467E+00 -1.90073E-01
    9025.455     25.341   3.080  7.96305E-01  1.00419E+00 -2.07890E-01
    9026.400     26.286   3.120  7.87755E-01  1.00366E+00 -2.15901E-01
    9027.357     27.243   3.160  7.87756E-01  1.00302E+00 -2.15267E-01
    9028.326     28.213   3.200  7.95495E-01  1.00236E+00 -2.06864E-01
    9029.308     29.194   3.240  8.09992E-01  1.00163E+00 -1.91638E-01
    9030.301     30.188   3.280  8.29093E-01  1.00086E+00 -1.71769E-01
    9031.307     31.193   3.320  8.49283E-01  1.00008E+00 -1.50796E-01
    9032.325     32.211   3.360  8.66573E-01  9.99287E-01 -1.32714E-01
    9033.355     33.242   3.400  8.78190E-01  9.98466E-01 -1.20276E-01
    9034.398     34.284   3.440  8.84045E-01  9.97641E-01 -1.13596E-01
    9035.452     35.339   3.480  8.86681E-01  9.96815E-01 -1.10134E-01
    9036.519     36.405   3.520  8.89445E-01  9.95992E-01 -1.06547E-01
    9037.598     37.484   3.560  8.94932E-01  9.95195E-01 -1.00263E-01
    9038.689     38.576   3.600  9.04569E-01  9.94408E-01 -8.98384E-02
    9039.793     39.679   3.640  9.18814E-01  9.93652E-01 -7.48375E-02
    9040.908     40.795   3.680  9.37563E-01  9.92908E-01 -5.53448E-02
    9042.036     41.922   3.720  9.60663E-01  9.92221E-01 -3.15572E-02
    9043.176     43.062   3.760  9.87817E-01  9.91551E-01 -3.73466E-03
    9044.328     44.214   3.800  1.01863E+00  9.90940E-01  2.76856E-02
    9045.492     45.379   3.840  1.05250E+00  9.90347E-01  6.21483E-02
    9046.669     46.555   3.880  1.08908E+00  9.89795E-01  9.92873E-02
    9047.858     47.744   3.920  1.12773E+00  9.89306E-01  1.38426E-01
    9049.059     48.945   3.960  1.16646E+00  9.88860E-01  1.77602E-01
    9050.272     50.158   4.000  1.20155E+00  9.88456E-01  2.13095E-01
    9051.497     51.383   4.040  1.22812E+00  9.88094E-01  2.40026E-01
    9052.734     52.621   4.080  1.24162E+00  9.87775E-01  2.53846E-01
    9053.984     53.870   4.120  1.23950E+00  9.87519E-01  2.51981E-01
    9055.246     55.132   4.160  1.22219E+00  9.87285E-01  2.34902E-01
    9056.520     56.406   4.200  1.19250E+00  9.87116E-01  2.05383E-01
    9057.806     57.693   4.240  1.15480E+00  9.86992E-01  1.67813E-01
    9059.105     58.991   4.280  1.11416E+00  9.86931E-01  1.27232E-01
    9060.415     60.302   4.320  1.07530E+00  9.86891E-01  8.84104E-02
    9061.738     61.625   4.360  1.04163E+00  9.86911E-01  5.47150E-02
    9063.073     62.960   4.400  1.01455E+00  9.86951E-01  2.75982E-02
    9064.420     64.307   4.440  9.93727E-01  9.87050E-01  6.67712E-03
    9065.780     65.666   4.480  9.77544E-01  9.87166E-01 -9.62272E-03
    9067.151     67.038   4.520  9.64230E-01  9.87321E-01 -2.30906E-02
    9068.535     68.422   4.560  9.52625E-01  9.87534E-01 -3.49082E-02
    9069.931     69.818   4.600  9.42308E-01  9.87760E-01 -4.54521E-02
    9071.339     71.226   4.640  9.33343E-01  9.88000E-01 -5.46569E-02
    9072.760     72.646   4.680  9.26021E-01  9.88293E-01 -6.22725E-02
    9074.192     74.079   4.720  9.20495E-01  9.88597E-01 -6.81018E-02
    9075.637     75.523   4.760  9.16980E-01  9.88910E-01 -7.19293E-02
    9077.094     76.980   4.800  9.15743E-01  9.89251E-01 -7.35086E-02
    9078.563     78.449   4.840  9.16902E-01  9.89622E-01 -7.27197E-02
    9080.044     79.931   4.880  9.20228E-01  9.89976E-01 -6.97475E-02
    9081.538     81.424   4.920  9.25110E-01  9.90353E-01 -6.52430E-02
    9083.044     82.930   4.960  9.30754E-01  9.90734E-01 -5.99806E-02
    9084.561     84.448   5.000  9.36838E-01  9.91116E-01 -5.42779E-02
    9086.092     85.978   5.040  9.43497E-01  9.91500E-01 -4.80025E-02
    9087.634     87.520   5.080  9.50672E-01  9.91904E-01 -4.12319E-02
    9089.188     89.075   5.120  9.57734E-01  9.92281E-01 -3.45474E-02
    9090.755     90.641   5.160  9.64190E-01  9.92631E-01 -2.84418E-02
    9092.334     92.220   5.200  9.70215E-01  9.92999E-01 -2.27842E-02
    9093.925     93.811   5.240  9.75958E-01  9.93341E-01 -1.73831E-02
    9095.528     95.415   5.280  9.81024E-01  9.93674E-01 -1.26501E-02
    9097.144     97.030   5.320  9.84452E-01  9.94000E-01 -9.54808E-03
    9098.771     98.658   5.360  9.85833E-01  9.94294E-01 -8.46043E-03
    9100.411    100.297   5.400  9.86199E-01  9.94553E-01 -8.35377E-03
    9102.063    101.949   5.440  9.87600E-01  9.94801E-01 -7.20099E-03
    9103.727    103.614   5.480  9.91538E-01  9.95016E-01 -3.47780E-03
    9105.404    105.290   5.520  9.97834E-01  9.95217E-01  2.61740E-03
    9107.092    106.979   5.560  1.00443E+00  9.95360E-01  9.06652E-03
    9108.793    108.679   5.600  1.00852E+00  9.95490E-01  1.30292E-02
    9110.506    110.392   5.640  1.00755E+00  9.95607E-01  1.19418E-02
    9112.231    112.118   5.680  9.99792E-01  9.95663E-01  4.12848E-03
    9113.968    113.855   5.720  9.85012E-01  9.95704E-01 -1.06922E-02
    9115.718    115.604   5.760  9.64972E-01  9.95684E-01 -3.07122E-02
    9117.480    117.366   5.800  9.43354E-01  9.95648E-01 -5.22939E-02
    9119.254    119.140   5.840  9.24140E-01  9.95576E-01 -7.14364E-02
    9121.040    120.926   5.880  9.10604E-01  9.95468E-01 -8.48640E-02
    9122.838    122.724   5.920  9.05076E-01  9.95324E-01 -9.02482E-02
    9124.649    124.535   5.960  9.09256E-01  9.95167E-01 -8.59104E-02
    9126.471    126.358   6.000  9.24803E-01  9.94924E-01 -7.01205E-02
