# # comment:                                                     FEFF 9.9.1  
# # Source:
# # Structure
# # Reduced
# # space
# # abc:
# # angles:
# # sites:
# # POT  SCF 100  7.0000   0, screened core-hole, AFOLP (folp(0)= 1.150)
# # Abs   Z=29 Rmt= 1.176 Rnm= 1.307 K  shell
# # Pot 1 Z= 3 Rmt= 1.362 Rnm= 1.419
# # Pot 2 Z=29 Rmt= 1.176 Rnm= 1.307
# # Pot 3 Z= 6 Rmt= 0.678 Rnm= 0.925
# # Pot 4 Z= 8 Rmt= 0.928 Rnm= 1.108
# # Gam_ch=1.729E+00 H-L exch Vi= 0.000E+00 Vr= 0.000E+00
# # Mu=-7.580E+00eV kf=2.347E+00 Vint=-1.523E+01eV Rs_int= 1.545
# FMS rfms= 9.0000
# # PATH  Rmax=-1.000,  Keep_limit= 0.00, Heap_limit 0.00  Pwcrit= 2.50%
#  S02=0.950  Temp=   0.00  Debye_temp=   0.00  Global_sig2= 0.00000
#  Energy zero shift, vr, vi    0.00000E+00   0.00000E+00
#  Curved wave amplitude ratio filter   4.000%
#     file         sig2 tot  cw amp ratio   deg  nlegs   reff  inp sig2
#     0/   0 paths used
#  xsedge+ 50, used to normalize mu           2.4562E-04
#  -----------------------------------------------------------------------
#  omega    e    k    mu    mu0     chi     @#
    8983.388    -11.390  -1.000  2.93222E-02  4.93713E-02 -2.00491E-02
    8983.686    -11.091  -0.960  3.04909E-02  5.28206E-02 -2.23296E-02
    8983.973    -10.805  -0.920  3.17137E-02  5.66417E-02 -2.49280E-02
    8984.247    -10.530  -0.880  3.29933E-02  6.08884E-02 -2.78950E-02
    8984.509    -10.268  -0.840  3.43325E-02  6.56230E-02 -3.12905E-02
    8984.759    -10.018  -0.800  3.57342E-02  7.09178E-02 -3.51836E-02
    8984.997     -9.781  -0.760  3.72014E-02  7.68554E-02 -3.96540E-02
    8985.222     -9.555  -0.720  3.87370E-02  8.35291E-02 -4.47921E-02
    8985.436     -9.342  -0.680  4.03439E-02  9.10415E-02 -5.06976E-02
    8985.637     -9.141  -0.640  4.20242E-02  9.95005E-02 -5.74763E-02
    8985.826     -8.952  -0.600  4.37789E-02  1.09012E-01 -6.52329E-02
    8986.003     -8.775  -0.560  4.56070E-02  1.19665E-01 -7.40583E-02
    8986.167     -8.610  -0.520  4.75039E-02  1.31514E-01 -8.40097E-02
    8986.320     -8.458  -0.480  4.94598E-02  1.44543E-01 -9.50831E-02
    8986.460     -8.318  -0.440  5.14574E-02  1.58639E-01 -1.07182E-01
    8986.588     -8.190  -0.400  5.34705E-02  1.73560E-01 -1.20090E-01
    8986.704     -8.074  -0.360  5.54637E-02  1.88926E-01 -1.33462E-01
    8986.807     -7.970  -0.320  5.73941E-02  2.04243E-01 -1.46849E-01
    8986.899     -7.879  -0.280  5.92153E-02  2.18961E-01 -1.59746E-01
    8986.978     -7.799  -0.240  6.08832E-02  2.32553E-01 -1.71670E-01
    8987.045     -7.732  -0.200  6.23589E-02  2.44572E-01 -1.82213E-01
    8987.100     -7.677  -0.160  6.36100E-02  2.54690E-01 -1.91080E-01
    8987.143     -7.635  -0.120  6.46083E-02  2.62695E-01 -1.98087E-01
    8987.173     -7.604  -0.080  6.53325E-02  2.68466E-01 -2.03134E-01
    8987.198     -7.580   0.000  6.59216E-02  2.73106E-01 -2.07184E-01
    8987.252     -7.525   0.120  6.76475E-02  2.83581E-01 -2.15933E-01
    8987.295     -7.482   0.160  6.88875E-02  2.91727E-01 -2.22840E-01
    8987.350     -7.428   0.200  7.04691E-02  3.02161E-01 -2.31692E-01
    8987.417     -7.361   0.240  7.23396E-02  3.14712E-01 -2.42373E-01
    8987.496     -7.281   0.280  7.45215E-02  3.29195E-01 -2.54673E-01
    8987.588     -7.190   0.320  7.69938E-02  3.45249E-01 -2.68255E-01
    8987.691     -7.086   0.360  7.97227E-02  3.62428E-01 -2.82706E-01
    8987.807     -6.970   0.400  8.27683E-02  3.80300E-01 -2.97532E-01
    8987.935     -6.842   0.440  8.61573E-02  3.98428E-01 -3.12271E-01
    8988.075     -6.702   0.480  8.99725E-02  4.16492E-01 -3.26519E-01
    8988.228     -6.550   0.520  9.43828E-02  4.34267E-01 -3.39884E-01
    8988.392     -6.385   0.560  9.95704E-02  4.51658E-01 -3.52088E-01
    8988.569     -6.208   0.600  1.05825E-01  4.68657E-01 -3.62832E-01
    8988.758     -6.019   0.640  1.13459E-01  4.85271E-01 -3.71812E-01
    8988.959     -5.818   0.680  1.22930E-01  5.01595E-01 -3.78665E-01
    8989.173     -5.605   0.720  1.34679E-01  5.17693E-01 -3.83014E-01
    8989.398     -5.379   0.760  1.49008E-01  5.33607E-01 -3.84599E-01
    8989.636     -5.142   0.800  1.65913E-01  5.49434E-01 -3.83521E-01
    8989.886     -4.892   0.840  1.84749E-01  5.65177E-01 -3.80428E-01
    8990.148     -4.630   0.880  2.04466E-01  5.80908E-01 -3.76442E-01
    8990.422     -4.355   0.920  2.24194E-01  5.96628E-01 -3.72434E-01
    8990.709     -4.069   0.960  2.44599E-01  6.12347E-01 -3.67749E-01
    8991.008     -3.770   1.000  2.67652E-01  6.28068E-01 -3.60416E-01
    8991.318     -3.459   1.040  2.93713E-01  6.43804E-01 -3.50091E-01
    8991.642     -3.136   1.080  3.19669E-01  6.59501E-01 -3.39831E-01
    8991.977     -2.801   1.120  3.43523E-01  6.75160E-01 -3.31637E-01
    8992.324     -2.453   1.160  3.71047E-01  6.90741E-01 -3.19694E-01
    8992.684     -2.094   1.200  4.12034E-01  7.06236E-01 -2.94202E-01
    8993.056     -1.722   1.240  4.69891E-01  7.21596E-01 -2.51705E-01
    8993.440     -1.338   1.280  5.35927E-01  7.36770E-01 -2.00842E-01
    8993.836     -0.941   1.320  5.91637E-01  7.51764E-01 -1.60127E-01
    8994.245     -0.533   1.360  6.21749E-01  7.66507E-01 -1.44759E-01
    8994.665     -0.112   1.400  6.29338E-01  7.80984E-01 -1.51646E-01
    8995.098      0.320   1.440  6.30306E-01  7.95140E-01 -1.64834E-01
    8995.543      0.765   1.480  6.34488E-01  8.08961E-01 -1.74473E-01
    8996.000      1.223   1.520  6.44878E-01  8.22394E-01 -1.77517E-01
    8996.470      1.692   1.560  6.65141E-01  8.35447E-01 -1.70306E-01
    8996.951      2.174   1.600  6.94114E-01  8.48067E-01 -1.53953E-01
    8997.445      2.667   1.640  7.27118E-01  8.60224E-01 -1.33106E-01
    8997.951      3.173   1.680  7.59974E-01  8.71909E-01 -1.11935E-01
    8998.469      3.691   1.720  7.91230E-01  8.83093E-01 -9.18635E-02
    8998.999      4.222   1.760  8.25099E-01  8.93791E-01 -6.86923E-02
    8999.542      4.764   1.800  8.66990E-01  9.03960E-01 -3.69704E-02
    9000.097      5.319   1.840  9.21441E-01  9.13615E-01  7.82639E-03
    9000.664      5.886   1.880  9.87288E-01  9.22733E-01  6.45547E-02
    9001.243      6.465   1.920  1.05408E+00  9.31336E-01  1.22745E-01
    9001.834      7.056   1.960  1.11149E+00  9.39381E-01  1.72105E-01
    9002.437      7.660   2.000  1.15078E+00  9.46914E-01  2.03866E-01
    9003.053      8.276   2.040  1.16062E+00  9.53917E-01  2.06703E-01
    9003.681      8.904   2.080  1.14717E+00  9.60416E-01  1.86749E-01
    9004.321      9.544   2.120  1.13623E+00  9.66418E-01  1.69811E-01
    9004.973     10.196   2.160  1.14469E+00  9.71926E-01  1.72769E-01
    9005.638     10.860   2.200  1.17048E+00  9.76969E-01  1.93514E-01
    9006.315     11.537   2.240  1.19356E+00  9.81536E-01  2.12028E-01
    9007.003     12.226   2.280  1.19777E+00  9.85676E-01  2.12091E-01
    9007.704     12.927   2.320  1.19467E+00  9.89377E-01  2.05289E-01
    9008.418     13.640   2.360  1.20659E+00  9.92689E-01  2.13905E-01
    9009.143     14.366   2.400  1.23741E+00  9.95602E-01  2.41803E-01
    9009.881     15.103   2.440  1.27234E+00  9.98169E-01  2.74170E-01
    9010.630     15.853   2.480  1.29644E+00  1.00038E+00  2.96066E-01
    9011.392     16.615   2.520  1.30347E+00  1.00226E+00  3.01216E-01
    9012.167     17.389   2.560  1.28669E+00  1.00384E+00  2.82849E-01
    9012.953     18.176   2.600  1.23481E+00  1.00514E+00  2.29675E-01
    9013.752     18.974   2.640  1.15966E+00  1.00616E+00  1.53495E-01
    9014.562     19.785   2.680  1.09821E+00  1.00696E+00  9.12556E-02
    9015.385     20.608   2.720  1.06250E+00  1.00752E+00  5.49816E-02
    9016.220     21.443   2.760  1.03697E+00  1.00789E+00  2.90813E-02
    9017.068     22.290   2.800  1.01125E+00  1.00805E+00  3.20280E-03
    9017.927     23.150   2.840  9.87667E-01  1.00806E+00 -2.03924E-02
    9018.799     24.022   2.880  9.67381E-01  1.00791E+00 -4.05320E-02
    9019.683     24.905   2.920  9.49484E-01  1.00763E+00 -5.81507E-02
    9020.579     25.802   2.960  9.33137E-01  1.00723E+00 -7.40955E-02
    9021.487     26.710   3.000  9.17813E-01  1.00672E+00 -8.89033E-02
    9022.408     27.630   3.040  9.03432E-01  1.00611E+00 -1.02683E-01
    9023.341     28.563   3.080  8.90813E-01  1.00545E+00 -1.14640E-01
    9024.285     29.508   3.120  8.80481E-01  1.00472E+00 -1.24234E-01
    9025.243     30.465   3.160  8.72831E-01  1.00391E+00 -1.31078E-01
    9026.212     31.434   3.200  8.68254E-01  1.00308E+00 -1.34830E-01
    9027.193     32.416   3.240  8.66763E-01  1.00222E+00 -1.35459E-01
    9028.187     33.409   3.280  8.68157E-01  1.00135E+00 -1.33192E-01
    9029.193     34.415   3.320  8.71998E-01  1.00045E+00 -1.28451E-01
    9030.211     35.433   3.360  8.77882E-01  9.99546E-01 -1.21664E-01
    9031.241     36.463   3.400  8.85166E-01  9.98666E-01 -1.13500E-01
    9032.283     37.506   3.440  8.93561E-01  9.97792E-01 -1.04231E-01
    9033.338     38.560   3.480  9.03030E-01  9.96928E-01 -9.38988E-02
    9034.405     39.627   3.520  9.13701E-01  9.96119E-01 -8.24180E-02
    9035.484     40.706   3.560  9.25624E-01  9.95323E-01 -6.96996E-02
    9036.575     41.797   3.600  9.38731E-01  9.94565E-01 -5.58344E-02
    9037.678     42.901   3.640  9.52587E-01  9.93846E-01 -4.12589E-02
    9038.794     44.016   3.680  9.66388E-01  9.93168E-01 -2.67798E-02
    9039.922     45.144   3.720  9.79416E-01  9.92535E-01 -1.31192E-02
    9041.062     46.284   3.760  9.91136E-01  9.91967E-01 -8.31661E-04
    9042.214     47.436   3.800  1.00108E+00  9.91446E-01  9.63291E-03
    9043.378     48.601   3.840  1.00895E+00  9.90971E-01  1.79792E-02
    9044.555     49.777   3.880  1.01464E+00  9.90565E-01  2.40761E-02
    9045.743     50.966   3.920  1.01812E+00  9.90209E-01  2.79123E-02
    9046.944     52.167   3.960  1.01960E+00  9.89924E-01  2.96794E-02
    9048.157     53.380   4.000  1.01940E+00  9.89709E-01  2.96908E-02
    9049.383     54.605   4.040  1.01780E+00  9.89524E-01  2.82806E-02
    9050.620     55.843   4.080  1.01523E+00  9.89430E-01  2.57958E-02
    9051.870     57.092   4.120  1.01206E+00  9.89385E-01  2.26730E-02
    9053.132     58.354   4.160  1.00876E+00  9.89387E-01  1.93695E-02
    9054.406     59.628   4.200  1.00583E+00  9.89460E-01  1.63668E-02
    9055.692     60.914   4.240  1.00369E+00  9.89582E-01  1.41116E-02
    9056.990     62.213   4.280  1.00270E+00  9.89771E-01  1.29318E-02
    9058.301     63.523   4.320  1.00299E+00  9.90006E-01  1.29802E-02
    9059.624     64.846   4.360  1.00450E+00  9.90284E-01  1.42171E-02
    9060.959     66.181   4.400  1.00707E+00  9.90606E-01  1.64669E-02
    9062.306     67.529   4.440  1.01046E+00  9.90992E-01  1.94661E-02
    9063.665     68.888   4.480  1.01432E+00  9.91398E-01  2.29179E-02
    9065.037     70.260   4.520  1.01841E+00  9.91864E-01  2.65464E-02
    9066.421     71.643   4.560  1.02247E+00  9.92348E-01  3.01210E-02
    9067.817     73.039   4.600  1.02633E+00  9.92890E-01  3.34374E-02
    9069.225     74.447   4.640  1.02975E+00  9.93446E-01  3.63035E-02
    9070.645     75.868   4.680  1.03258E+00  9.94014E-01  3.85684E-02
    9072.078     77.300   4.720  1.03469E+00  9.94634E-01  4.00557E-02
    9073.523     78.745   4.760  1.03585E+00  9.95264E-01  4.05836E-02
    9074.980     80.202   4.800  1.03589E+00  9.95901E-01  3.99878E-02
    9076.449     81.671   4.840  1.03461E+00  9.96541E-01  3.80732E-02
    9077.930     83.153   4.880  1.03182E+00  9.97207E-01  3.46127E-02
    9079.424     84.646   4.920  1.02733E+00  9.97876E-01  2.94489E-02
    9080.929     86.152   4.960  1.02120E+00  9.98546E-01  2.26571E-02
    9082.447     87.670   5.000  1.01393E+00  9.99214E-01  1.47140E-02
    9083.977     89.200   5.040  1.00630E+00  9.99877E-01  6.42575E-03
    9085.520     90.742   5.080  9.99216E-01  1.00051E+00 -1.29590E-03
    9087.074     92.296   5.120  9.93429E-01  1.00114E+00 -7.71217E-03
    9088.641     93.863   5.160  9.89321E-01  1.00176E+00 -1.24400E-02
    9090.220     95.442   5.200  9.86816E-01  1.00235E+00 -1.55354E-02
    9091.811     97.033   5.240  9.85418E-01  1.00293E+00 -1.75107E-02
    9093.414     98.636   5.280  9.84251E-01  1.00347E+00 -1.92206E-02
    9095.029    100.252   5.320  9.82380E-01  1.00398E+00 -2.15982E-02
    9096.657    101.879   5.360  9.79217E-01  1.00447E+00 -2.52523E-02
    9098.297    103.519   5.400  9.74730E-01  1.00490E+00 -3.01680E-02
    9099.949    105.171   5.440  9.69659E-01  1.00531E+00 -3.56497E-02
    9101.613    106.835   5.480  9.65091E-01  1.00566E+00 -4.05662E-02
    9103.289    108.512   5.520  9.62262E-01  1.00599E+00 -4.37236E-02
    9104.978    110.200   5.560  9.62004E-01  1.00625E+00 -4.42443E-02
    9106.679    111.901   5.600  9.64760E-01  1.00649E+00 -4.17330E-02
    9108.392    113.614   5.640  9.70426E-01  1.00667E+00 -3.62440E-02
    9110.117    115.339   5.680  9.78600E-01  1.00680E+00 -2.82003E-02
    9111.854    117.077   5.720  9.88469E-01  1.00686E+00 -1.83955E-02
    9113.604    118.826   5.760  9.98881E-01  1.00691E+00 -8.02554E-03
    9115.365    120.588   5.800  1.00831E+00  1.00688E+00  1.42316E-03
    9117.139    122.362   5.840  1.01537E+00  1.00681E+00  8.55464E-03
    9118.925    124.148   5.880  1.01926E+00  1.00670E+00  1.25587E-02
    9120.724    125.946   5.920  1.02003E+00  1.00652E+00  1.35100E-02
    9122.534    127.757   5.960  1.01848E+00  1.00629E+00  1.21943E-02
    9124.357    129.579   6.000  1.01562E+00  1.00598E+00  9.63966E-03
