# # comment:                                                     FEFF 9.9.1  
# # Source:
# # Structure
# # Reduced
# # space
# # abc:
# # angles:
# # sites:
# # POT  SCF 100  7.0000   0, screened core-hole, AFOLP (folp(0)= 1.150)
# # Abs   Z=29 Rmt= 1.174 Rnm= 1.295 K  shell
# # Pot 1 Z=29 Rmt= 1.174 Rnm= 1.295
# # Pot 2 Z= 6 Rmt= 0.673 Rnm= 0.925
# # Pot 3 Z= 8 Rmt= 1.009 Rnm= 1.118
# # Gam_ch=1.729E+00 H-L exch Vi= 0.000E+00 Vr= 0.000E+00
# # Mu=-7.689E+00eV kf=2.318E+00 Vint=-1.549E+01eV Rs_int= 1.565
# FMS rfms= 9.0000
# # PATH  Rmax=-1.000,  Keep_limit= 0.00, Heap_limit 0.00  Pwcrit= 2.50%
#  S02=0.950  Temp=   0.00  Debye_temp=   0.00  Global_sig2= 0.00000
#  Energy zero shift, vr, vi    0.00000E+00   0.00000E+00
#  Curved wave amplitude ratio filter   4.000%
#     file         sig2 tot  cw amp ratio   deg  nlegs   reff  inp sig2
#     0/   0 paths used
#  xsedge+ 50, used to normalize mu           2.4536E-04
#  -----------------------------------------------------------------------
#  omega    e    k    mu    mu0     chi     @#
    8983.442    -11.499  -1.000  3.12573E-02  5.24164E-02 -2.11590E-02
    8983.741    -11.200  -0.960  3.25622E-02  5.61449E-02 -2.35827E-02
    8984.027    -10.914  -0.920  3.39374E-02  6.02799E-02 -2.63425E-02
    8984.302    -10.639  -0.880  3.53890E-02  6.48803E-02 -2.94912E-02
    8984.564    -10.377  -0.840  3.69245E-02  7.00146E-02 -3.30901E-02
    8984.814    -10.127  -0.800  3.85524E-02  7.57621E-02 -3.72097E-02
    8985.051     -9.889  -0.760  4.02828E-02  8.22138E-02 -4.19310E-02
    8985.277     -9.664  -0.720  4.21272E-02  8.94722E-02 -4.73451E-02
    8985.490     -9.451  -0.680  4.40986E-02  9.76501E-02 -5.35516E-02
    8985.691     -9.249  -0.640  4.62106E-02  1.06866E-01 -6.06557E-02
    8985.880     -9.060  -0.600  4.84767E-02  1.17237E-01 -6.87607E-02
    8986.057     -8.884  -0.560  5.09070E-02  1.28862E-01 -7.79552E-02
    8986.222     -8.719  -0.520  5.35052E-02  1.41799E-01 -8.82936E-02
    8986.374     -8.567  -0.480  5.62630E-02  1.56033E-01 -9.97699E-02
    8986.514     -8.426  -0.440  5.91538E-02  1.71440E-01 -1.12286E-01
    8986.642     -8.298  -0.400  6.21277E-02  1.87754E-01 -1.25626E-01
    8986.758     -8.183  -0.360  6.51111E-02  2.04558E-01 -1.39447E-01
    8986.862     -8.079  -0.320  6.80123E-02  2.21311E-01 -1.53299E-01
    8986.953     -7.988  -0.280  7.07346E-02  2.37411E-01 -1.66676E-01
    8987.033     -7.908  -0.240  7.31913E-02  2.52277E-01 -1.79086E-01
    8987.100     -7.841  -0.200  7.53178E-02  2.65423E-01 -1.90105E-01
    8987.154     -7.786  -0.160  7.70755E-02  2.76488E-01 -1.99412E-01
    8987.197     -7.744  -0.120  7.84486E-02  2.85240E-01 -2.06792E-01
    8987.228     -7.713  -0.080  7.94348E-02  2.91550E-01 -2.12115E-01
    8987.252     -7.689   0.000  8.02418E-02  2.96623E-01 -2.16381E-01
    8987.307     -7.634   0.120  8.20191E-02  3.08076E-01 -2.26057E-01
    8987.350     -7.591   0.160  8.33159E-02  3.16983E-01 -2.33667E-01
    8987.404     -7.536   0.200  8.48730E-02  3.28362E-01 -2.43489E-01
    8987.471     -7.469   0.240  8.66554E-02  3.42073E-01 -2.55418E-01
    8987.551     -7.390   0.280  8.85879E-02  3.57883E-01 -2.69295E-01
    8987.642     -7.299   0.320  9.05204E-02  3.75373E-01 -2.84852E-01
    8987.746     -7.195   0.360  9.23903E-02  3.94094E-01 -3.01704E-01
    8987.862     -7.079   0.400  9.41228E-02  4.13524E-01 -3.19401E-01
    8987.990     -6.951   0.440  9.57569E-02  4.33203E-01 -3.37446E-01
    8988.130     -6.811   0.480  9.73920E-02  4.52755E-01 -3.55363E-01
    8988.282     -6.659   0.520  9.92399E-02  4.71954E-01 -3.72714E-01
    8988.447     -6.494   0.560  1.01558E-01  4.90696E-01 -3.89138E-01
    8988.624     -6.317   0.600  1.04543E-01  5.08928E-01 -4.04384E-01
    8988.813     -6.128   0.640  1.08457E-01  5.26700E-01 -4.18243E-01
    8989.014     -5.927   0.680  1.13516E-01  5.44094E-01 -4.30578E-01
    8989.227     -5.714   0.720  1.19992E-01  5.61161E-01 -4.41169E-01
    8989.453     -5.488   0.760  1.28224E-01  5.77993E-01 -4.49768E-01
    8989.690     -5.250   0.800  1.38642E-01  5.94650E-01 -4.56008E-01
    8989.940     -5.000   0.840  1.51790E-01  6.11162E-01 -4.59372E-01
    8990.202     -4.738   0.880  1.68422E-01  6.27585E-01 -4.59162E-01
    8990.477     -4.464   0.920  1.89579E-01  6.43922E-01 -4.54343E-01
    8990.763     -4.178   0.960  2.16785E-01  6.60187E-01 -4.43402E-01
    8991.062     -3.879   1.000  2.52219E-01  6.76403E-01 -4.24183E-01
    8991.373     -3.568   1.040  2.98506E-01  6.92524E-01 -3.94018E-01
    8991.696     -3.245   1.080  3.58073E-01  7.08536E-01 -3.50463E-01
    8992.031     -2.910   1.120  4.31050E-01  7.24444E-01 -2.93394E-01
    8992.379     -2.562   1.160  5.12497E-01  7.40203E-01 -2.27705E-01
    8992.738     -2.202   1.200  5.95216E-01  7.55745E-01 -1.60529E-01
    8993.110     -1.831   1.240  6.71112E-01  7.71103E-01 -9.99910E-02
    8993.494     -1.447   1.280  7.15407E-01  7.86186E-01 -7.07785E-02
    8993.890     -1.050   1.320  7.11233E-01  8.00980E-01 -8.97465E-02
    8994.299     -0.642   1.360  6.86567E-01  8.15431E-01 -1.28864E-01
    8994.720     -0.221   1.400  6.66198E-01  8.29527E-01 -1.63329E-01
    8995.152      0.212   1.440  6.50472E-01  8.43234E-01 -1.92762E-01
    8995.597      0.657   1.480  6.41482E-01  8.56499E-01 -2.15017E-01
    8996.055      1.114   1.520  6.47051E-01  8.69311E-01 -2.22260E-01
    8996.524      1.583   1.560  6.69313E-01  8.81638E-01 -2.12325E-01
    8997.006      2.065   1.600  7.05089E-01  8.93470E-01 -1.88382E-01
    8997.499      2.559   1.640  7.50918E-01  9.04760E-01 -1.53842E-01
    8998.005      3.064   1.680  8.00300E-01  9.15499E-01 -1.15199E-01
    8998.523      3.583   1.720  8.48405E-01  9.25684E-01 -7.72787E-02
    8999.054      4.113   1.760  8.99134E-01  9.35311E-01 -3.61772E-02
    8999.596      4.656   1.800  9.53040E-01  9.44358E-01  8.68124E-03
    9000.151      5.210   1.840  9.99727E-01  9.52846E-01  4.68808E-02
    9000.718      5.777   1.880  1.03691E+00  9.60756E-01  7.61533E-02
    9001.297      6.356   1.920  1.08239E+00  9.68089E-01  1.14302E-01
    9001.888      6.948   1.960  1.15381E+00  9.74872E-01  1.78939E-01
    9002.492      7.551   2.000  1.25717E+00  9.81108E-01  2.76065E-01
    9003.108      8.167   2.040  1.38936E+00  9.86806E-01  4.02558E-01
    9003.735      8.795   2.080  1.52286E+00  9.91973E-01  5.30892E-01
    9004.376      9.435   2.120  1.59580E+00  9.96637E-01  5.99161E-01
    9005.028     10.087   2.160  1.56201E+00  1.00081E+00  5.61202E-01
    9005.692     10.752   2.200  1.45686E+00  1.00452E+00  4.52340E-01
    9006.369     11.428   2.240  1.34636E+00  1.00777E+00  3.38593E-01
    9007.058     12.117   2.280  1.26285E+00  1.01059E+00  2.52265E-01
    9007.759     12.818   2.320  1.20543E+00  1.01301E+00  1.92418E-01
    9008.472     13.531   2.360  1.16165E+00  1.01506E+00  1.46592E-01
    9009.197     14.257   2.400  1.12237E+00  1.01674E+00  1.05629E-01
    9009.935     14.994   2.440  1.08370E+00  1.01807E+00  6.56291E-02
    9010.685     15.744   2.480  1.04199E+00  1.01909E+00  2.28935E-02
    9011.447     16.506   2.520  9.97597E-01  1.01983E+00 -2.22288E-02
    9012.221     17.280   2.560  9.62925E-01  1.02030E+00 -5.73782E-02
    9013.007     18.067   2.600  9.53113E-01  1.02053E+00 -6.74192E-02
    9013.806     18.865   2.640  9.71445E-01  1.02052E+00 -4.90770E-02
    9014.617     19.676   2.680  1.00972E+00  1.02031E+00 -1.05877E-02
    9015.440     20.499   2.720  1.05262E+00  1.01991E+00  3.27030E-02
    9016.275     21.334   2.760  1.08137E+00  1.01934E+00  6.20321E-02
    9017.122     22.181   2.800  1.09480E+00  1.01864E+00  7.61541E-02
    9017.982     23.041   2.840  1.09801E+00  1.01780E+00  8.02070E-02
    9018.854     23.913   2.880  1.09475E+00  1.01684E+00  7.79112E-02
    9019.737     24.797   2.920  1.08731E+00  1.01578E+00  7.15300E-02
    9020.634     25.693   2.960  1.07666E+00  1.01465E+00  6.20049E-02
    9021.542     26.601   3.000  1.06249E+00  1.01346E+00  4.90291E-02
    9022.462     27.522   3.040  1.04373E+00  1.01221E+00  3.15191E-02
    9023.395     28.454   3.080  1.02033E+00  1.01093E+00  9.40457E-03
    9024.340     29.399   3.120  9.93585E-01  1.00962E+00 -1.60324E-02
    9025.297     30.356   3.160  9.65556E-01  1.00828E+00 -4.27192E-02
    9026.266     31.325   3.200  9.38601E-01  1.00695E+00 -6.83483E-02
    9027.248     32.307   3.240  9.14560E-01  1.00560E+00 -9.10425E-02
    9028.241     33.301   3.280  8.94490E-01  1.00428E+00 -1.09793E-01
    9029.247     34.306   3.320  8.78565E-01  1.00299E+00 -1.24430E-01
    9030.265     35.324   3.360  8.66625E-01  1.00172E+00 -1.35094E-01
    9031.295     36.355   3.400  8.58406E-01  1.00048E+00 -1.42075E-01
    9032.338     37.397   3.440  8.53752E-01  9.99304E-01 -1.45552E-01
    9033.392     38.452   3.480  8.52541E-01  9.98148E-01 -1.45607E-01
    9034.459     39.518   3.520  8.54688E-01  9.97059E-01 -1.42371E-01
    9035.538     40.597   3.560  8.59749E-01  9.96018E-01 -1.36268E-01
    9036.629     41.689   3.600  8.67345E-01  9.95046E-01 -1.27701E-01
    9037.733     42.792   3.640  8.77043E-01  9.94125E-01 -1.17082E-01
    9038.848     43.908   3.680  8.88378E-01  9.93280E-01 -1.04902E-01
    9039.976     45.035   3.720  9.00846E-01  9.92508E-01 -9.16625E-02
    9041.116     46.175   3.760  9.13968E-01  9.91792E-01 -7.78234E-02
    9042.268     47.327   3.800  9.27357E-01  9.91173E-01 -6.38157E-02
    9043.432     48.492   3.840  9.40562E-01  9.90611E-01 -5.00490E-02
    9044.609     49.668   3.880  9.53407E-01  9.90127E-01 -3.67202E-02
    9045.798     50.857   3.920  9.65824E-01  9.89721E-01 -2.38969E-02
    9046.999     52.058   3.960  9.77777E-01  9.89392E-01 -1.16152E-02
    9048.212     53.271   4.000  9.89191E-01  9.89142E-01  4.93675E-05
    9049.437     54.496   4.040  9.99880E-01  9.88947E-01  1.09331E-02
    9050.674     55.734   4.080  1.00958E+00  9.88850E-01  2.07324E-02
    9051.924     56.983   4.120  1.01792E+00  9.88810E-01  2.91130E-02
    9053.186     58.245   4.160  1.02476E+00  9.88843E-01  3.59143E-02
    9054.460     59.519   4.200  1.03019E+00  9.88930E-01  4.12649E-02
    9055.746     60.806   4.240  1.03457E+00  9.89112E-01  4.54588E-02
    9057.045     62.104   4.280  1.03824E+00  9.89346E-01  4.88913E-02
    9058.355     63.415   4.320  1.04136E+00  9.89627E-01  5.17352E-02
    9059.678     64.737   4.360  1.04385E+00  9.89979E-01  5.38668E-02
    9061.013     66.072   4.400  1.04543E+00  9.90377E-01  5.50554E-02
    9062.360     67.420   4.440  1.04605E+00  9.90820E-01  5.52347E-02
    9063.720     68.779   4.480  1.04596E+00  9.91329E-01  5.46338E-02
    9065.091     70.151   4.520  1.04562E+00  9.91882E-01  5.37359E-02
    9066.475     71.534   4.560  1.04555E+00  9.92474E-01  5.30771E-02
    9067.871     72.930   4.600  1.04605E+00  9.93082E-01  5.29647E-02
    9069.279     74.339   4.640  1.04722E+00  9.93749E-01  5.34698E-02
    9070.700     75.759   4.680  1.04892E+00  9.94428E-01  5.44880E-02
    9072.132     77.192   4.720  1.05090E+00  9.95139E-01  5.57589E-02
    9073.577     78.636   4.760  1.05283E+00  9.95860E-01  5.69731E-02
    9075.034     80.093   4.800  1.05454E+00  9.96611E-01  5.79307E-02
    9076.503     81.562   4.840  1.05582E+00  9.97368E-01  5.84546E-02
    9077.984     83.044   4.880  1.05651E+00  9.98150E-01  5.83639E-02
    9079.478     84.537   4.920  1.05640E+00  9.98913E-01  5.74921E-02
    9080.984     86.043   4.960  1.05538E+00  9.99694E-01  5.56853E-02
    9082.502     87.561   5.000  1.05327E+00  1.00045E+00  5.28239E-02
    9084.032     89.091   5.040  1.04996E+00  1.00120E+00  4.87582E-02
    9085.574     90.633   5.080  1.04525E+00  1.00195E+00  4.32994E-02
    9087.128     92.188   5.120  1.03899E+00  1.00266E+00  3.63308E-02
    9088.695     93.754   5.160  1.03121E+00  1.00337E+00  2.78403E-02
    9090.274     95.333   5.200  1.02195E+00  1.00404E+00  1.79088E-02
    9091.865     96.924   5.240  1.01136E+00  1.00470E+00  6.65894E-03
    9093.468     98.527   5.280  9.99702E-01  1.00532E+00 -5.61766E-03
    9095.084    100.143   5.320  9.87560E-01  1.00590E+00 -1.83437E-02
    9096.711    101.771   5.360  9.75713E-01  1.00645E+00 -3.07324E-02
    9098.351    103.410   5.400  9.64893E-01  1.00695E+00 -4.20532E-02
    9100.003    105.062   5.440  9.55618E-01  1.00740E+00 -5.17847E-02
    9101.667    106.727   5.480  9.48098E-01  1.00779E+00 -5.96950E-02
    9103.344    108.403   5.520  9.42389E-01  1.00816E+00 -6.57731E-02
    9105.032    110.092   5.560  9.38355E-01  1.00846E+00 -7.01085E-02
    9106.733    111.792   5.600  9.35984E-01  1.00872E+00 -7.27370E-02
    9108.446    113.505   5.640  9.35240E-01  1.00893E+00 -7.36927E-02
    9110.171    115.230   5.680  9.35992E-01  1.00910E+00 -7.31065E-02
    9111.909    116.968   5.720  9.37891E-01  1.00919E+00 -7.13019E-02
    9113.658    118.717   5.760  9.40601E-01  1.00922E+00 -6.86156E-02
    9115.420    120.479   5.800  9.44067E-01  1.00921E+00 -6.51476E-02
    9117.194    122.253   5.840  9.48425E-01  1.00912E+00 -6.06972E-02
    9118.980    124.039   5.880  9.53911E-01  1.00901E+00 -5.50950E-02
    9120.778    125.837   5.920  9.60365E-01  1.00882E+00 -4.84553E-02
    9122.589    127.648   5.960  9.67491E-01  1.00858E+00 -4.10911E-02
    9124.411    129.471   6.000  9.75198E-01  1.00823E+00 -3.30312E-02
