# # comment:                                                     FEFF 9.9.1  
# # Source:
# # Structure
# # Reduced
# # space
# # abc:
# # angles:
# # sites:
# # POT  SCF 100  7.0000   0, screened core-hole, AFOLP (folp(0)= 1.150)
# # Abs   Z=29 Rmt= 1.277 Rnm= 1.321 K  shell
# # Pot 1 Z=12 Rmt= 1.353 Rnm= 1.418
# # Pot 2 Z=30 Rmt= 1.353 Rnm= 1.414
# # Pot 3 Z=29 Rmt= 1.277 Rnm= 1.322
# # Pot 4 Z= 8 Rmt= 1.051 Rnm= 1.100
# # Gam_ch=1.729E+00 H-L exch Vi= 0.000E+00 Vr= 0.000E+00
# # Mu=-1.074E+01eV kf=2.087E+00 Vint=-2.066E+01eV Rs_int= 1.738
# FMS rfms= 9.0000
# # PATH  Rmax=-1.000,  Keep_limit= 0.00, Heap_limit 0.00  Pwcrit= 2.50%
#  S02=0.950  Temp=   0.00  Debye_temp=   0.00  Global_sig2= 0.00000
#  Energy zero shift, vr, vi    0.00000E+00   0.00000E+00
#  Curved wave amplitude ratio filter   4.000%
#     file         sig2 tot  cw amp ratio   deg  nlegs   reff  inp sig2
#     0/   0 paths used
#  xsedge+ 50, used to normalize mu           2.4880E-04
#  -----------------------------------------------------------------------
#  omega    e    k    mu    mu0     chi     @#
    8985.839    -14.551  -1.000  3.43582E-02  4.89691E-02 -1.46110E-02
    8986.138    -14.252  -0.960  3.58813E-02  5.24451E-02 -1.65637E-02
    8986.425    -13.966  -0.920  3.74822E-02  5.63040E-02 -1.88218E-02
    8986.699    -13.692  -0.880  3.91647E-02  6.06023E-02 -2.14376E-02
    8986.961    -13.430  -0.840  4.09328E-02  6.54056E-02 -2.44728E-02
    8987.211    -13.180  -0.800  4.27904E-02  7.07899E-02 -2.79995E-02
    8987.449    -12.942  -0.760  4.47415E-02  7.68427E-02 -3.21012E-02
    8987.674    -12.716  -0.720  4.67898E-02  8.36625E-02 -3.68727E-02
    8987.888    -12.503  -0.680  4.89385E-02  9.13581E-02 -4.24196E-02
    8988.089    -12.302  -0.640  5.11899E-02  1.00044E-01 -4.88545E-02
    8988.278    -12.113  -0.600  5.35445E-02  1.09834E-01 -5.62895E-02
    8988.454    -11.936  -0.560  5.59999E-02  1.20823E-01 -6.48233E-02
    8988.619    -11.771  -0.520  5.85492E-02  1.33069E-01 -7.45200E-02
    8988.771    -11.619  -0.480  6.11785E-02  1.46559E-01 -8.53806E-02
    8988.912    -11.479  -0.440  6.38649E-02  1.61175E-01 -9.73097E-02
    8989.040    -11.351  -0.400  6.65741E-02  1.76661E-01 -1.10087E-01
    8989.156    -11.235  -0.360  6.92598E-02  1.92618E-01 -1.23359E-01
    8989.259    -11.131  -0.320  7.18663E-02  2.08527E-01 -1.36661E-01
    8989.351    -11.040  -0.280  7.43326E-02  2.23811E-01 -1.49479E-01
    8989.430    -10.961  -0.240  7.65984E-02  2.37916E-01 -1.61317E-01
    8989.497    -10.894  -0.200  7.86093E-02  2.50378E-01 -1.71769E-01
    8989.552    -10.839  -0.160  8.03191E-02  2.60859E-01 -1.80540E-01
    8989.594    -10.796  -0.120  8.16902E-02  2.69142E-01 -1.87452E-01
    8989.625    -10.766  -0.080  8.26935E-02  2.75109E-01 -1.92416E-01
    8989.649    -10.741   0.000  8.35201E-02  2.79903E-01 -1.96383E-01
    8989.704    -10.686   0.120  8.54791E-02  2.90699E-01 -2.05220E-01
    8989.747    -10.644   0.160  8.69758E-02  2.99101E-01 -2.12125E-01
    8989.802    -10.589   0.200  8.89050E-02  3.09807E-01 -2.20902E-01
    8989.869    -10.522   0.240  9.13056E-02  3.22690E-01 -2.31385E-01
    8989.948    -10.442   0.280  9.41770E-02  3.37487E-01 -2.43310E-01
    8990.039    -10.351   0.320  9.75230E-02  3.53795E-01 -2.56272E-01
    8990.143    -10.247   0.360  1.01396E-01  3.71143E-01 -2.69746E-01
    8990.259    -10.132   0.400  1.05893E-01  3.89046E-01 -2.83153E-01
    8990.387    -10.004   0.440  1.11051E-01  4.07007E-01 -2.95955E-01
    8990.527     -9.863   0.480  1.17034E-01  4.24693E-01 -3.07659E-01
    8990.680     -9.711   0.520  1.24026E-01  4.41859E-01 -3.17834E-01
    8990.844     -9.546   0.560  1.32292E-01  4.58405E-01 -3.26113E-01
    8991.021     -9.370   0.600  1.42139E-01  4.74324E-01 -3.32185E-01
    8991.210     -9.181   0.640  1.53966E-01  4.89649E-01 -3.35683E-01
    8991.411     -8.979   0.680  1.68281E-01  5.04467E-01 -3.36186E-01
    8991.624     -8.766   0.720  1.85819E-01  5.18859E-01 -3.33040E-01
    8991.850     -8.541   0.760  2.07669E-01  5.32943E-01 -3.25274E-01
    8992.088     -8.303   0.800  2.35266E-01  5.46769E-01 -3.11503E-01
    8992.338     -8.053   0.840  2.70070E-01  5.60396E-01 -2.90326E-01
    8992.600     -7.791   0.880  3.12569E-01  5.73913E-01 -2.61344E-01
    8992.874     -7.516   0.920  3.60485E-01  5.87355E-01 -2.26870E-01
    8993.161     -7.230   0.960  4.06849E-01  6.00747E-01 -1.93898E-01
    8993.459     -6.931   1.000  4.41805E-01  6.14104E-01 -1.72300E-01
    8993.770     -6.620   1.040  4.63477E-01  6.27453E-01 -1.63977E-01
    8994.093     -6.297   1.080  4.83359E-01  6.40795E-01 -1.57436E-01
    8994.429     -5.962   1.120  5.11437E-01  6.54124E-01 -1.42686E-01
    8994.776     -5.614   1.160  5.40211E-01  6.67429E-01 -1.27219E-01
    8995.136     -5.255   1.200  5.49496E-01  6.80717E-01 -1.31221E-01
    8995.508     -4.883   1.240  5.34412E-01  6.93968E-01 -1.59557E-01
    8995.892     -4.499   1.280  5.19233E-01  7.07163E-01 -1.87929E-01
    8996.288     -4.103   1.320  5.30157E-01  7.20277E-01 -1.90120E-01
    8996.696     -3.694   1.360  5.69827E-01  7.33305E-01 -1.63478E-01
    8997.117     -3.274   1.400  6.21072E-01  7.46222E-01 -1.25149E-01
    8997.550     -2.841   1.440  6.73002E-01  7.58980E-01 -8.59781E-02
    8997.995     -2.396   1.480  7.23925E-01  7.71589E-01 -4.76639E-02
    8998.452     -1.939   1.520  7.71012E-01  7.84001E-01 -1.29890E-02
    8998.921     -1.469   1.560  8.30484E-01  7.96188E-01  3.42961E-02
    8999.403     -0.988   1.600  9.21822E-01  8.08158E-01  1.13664E-01
    8999.897     -0.494   1.640  1.05232E+00  8.19864E-01  2.32454E-01
    9000.403      0.012   1.680  1.22676E+00  8.31297E-01  3.95466E-01
    9000.921      0.530   1.720  1.45313E+00  8.42428E-01  6.10698E-01
    9001.451      1.061   1.760  1.71532E+00  8.53247E-01  8.62070E-01
    9001.994      1.603   1.800  1.89575E+00  8.63729E-01  1.03202E+00
    9002.548      2.158   1.840  1.86703E+00  8.73846E-01  9.93186E-01
    9003.115      2.725   1.880  1.69287E+00  8.83610E-01  8.09258E-01
    9003.694      3.304   1.920  1.47540E+00  8.92998E-01  5.82406E-01
    9004.286      3.895   1.960  1.27612E+00  9.02005E-01  3.74120E-01
    9004.889      4.499   2.000  1.12742E+00  9.10606E-01  2.16812E-01
    9005.505      5.114   2.040  1.03386E+00  9.18798E-01  1.15063E-01
    9006.133      5.742   2.080  1.00301E+00  9.26600E-01  7.64089E-02
    9006.773      6.382   2.120  1.00709E+00  9.33972E-01  7.31160E-02
    9007.425      7.035   2.160  1.01182E+00  9.40931E-01  7.08869E-02
    9008.090      7.699   2.200  1.00731E+00  9.47499E-01  5.98121E-02
    9008.766      8.376   2.240  9.97967E-01  9.53638E-01  4.43289E-02
    9009.455      9.065   2.280  9.88986E-01  9.59369E-01  2.96163E-02
    9010.156      9.766   2.320  9.80280E-01  9.64716E-01  1.55645E-02
    9010.869     10.479   2.360  9.69992E-01  9.69661E-01  3.30738E-04
    9011.595     11.204   2.400  9.58919E-01  9.74230E-01 -1.53108E-02
    9012.332     11.942   2.440  9.46769E-01  9.78405E-01 -3.16355E-02
    9013.082     12.692   2.480  9.27077E-01  9.82212E-01 -5.51350E-02
    9013.844     13.454   2.520  8.96470E-01  9.85657E-01 -8.91873E-02
    9014.618     14.228   2.560  8.57888E-01  9.88787E-01 -1.30899E-01
    9015.405     15.014   2.600  8.21706E-01  9.91549E-01 -1.69842E-01
    9016.203     15.813   2.640  7.93669E-01  9.94007E-01 -2.00338E-01
    9017.014     16.624   2.680  7.73400E-01  9.96170E-01 -2.22771E-01
    9017.837     17.447   2.720  7.59296E-01  9.98025E-01 -2.38729E-01
    9018.672     18.282   2.760  7.49891E-01  9.99620E-01 -2.49729E-01
    9019.520     19.129   2.800  7.44101E-01  1.00094E+00 -2.56841E-01
    9020.379     19.989   2.840  7.41881E-01  1.00202E+00 -2.60137E-01
    9021.251     20.860   2.880  7.43445E-01  1.00288E+00 -2.59431E-01
    9022.135     21.744   2.920  7.48952E-01  1.00350E+00 -2.54551E-01
    9023.031     22.640   2.960  7.58953E-01  1.00393E+00 -2.44975E-01
    9023.939     23.549   3.000  7.73907E-01  1.00418E+00 -2.30271E-01
    9024.860     24.469   3.040  7.93429E-01  1.00426E+00 -2.10831E-01
    9025.792     25.402   3.080  8.16785E-01  1.00416E+00 -1.87374E-01
    9026.737     26.347   3.120  8.43144E-01  1.00392E+00 -1.60780E-01
    9027.694     27.304   3.160  8.70963E-01  1.00356E+00 -1.32597E-01
    9028.664     28.273   3.200  8.99666E-01  1.00308E+00 -1.03412E-01
    9029.645     29.255   3.240  9.29476E-01  1.00248E+00 -7.30041E-02
    9030.639     30.248   3.280  9.61154E-01  1.00179E+00 -4.06408E-02
    9031.644     31.254   3.320  9.95605E-01  1.00105E+00 -5.44390E-03
    9032.662     32.272   3.360  1.03370E+00  1.00021E+00  3.34948E-02
    9033.693     33.302   3.400  1.07605E+00  9.99310E-01  7.67375E-02
    9034.735     34.345   3.440  1.12264E+00  9.98370E-01  1.24272E-01
    9035.790     35.399   3.480  1.17177E+00  9.97391E-01  1.74383E-01
    9036.857     36.466   3.520  1.21835E+00  9.96396E-01  2.21951E-01
    9037.936     37.545   3.560  1.25410E+00  9.95348E-01  2.58747E-01
    9039.027     38.636   3.600  1.27082E+00  9.94315E-01  2.76506E-01
    9040.130     39.740   3.640  1.26464E+00  9.93278E-01  2.71366E-01
    9041.246     40.855   3.680  1.23785E+00  9.92221E-01  2.45628E-01
    9042.373     41.983   3.720  1.19720E+00  9.91189E-01  2.06015E-01
    9043.513     43.123   3.760  1.14966E+00  9.90184E-01  1.59475E-01
    9044.665     44.275   3.800  1.09988E+00  9.89187E-01  1.10692E-01
    9045.830     45.439   3.840  1.05075E+00  9.88203E-01  6.25512E-02
    9047.006     46.616   3.880  1.00529E+00  9.87275E-01  1.80105E-02
    9048.195     47.805   3.920  9.67162E-01  9.86364E-01 -1.92024E-02
    9049.396     49.005   3.960  9.40037E-01  9.85515E-01 -4.54776E-02
    9050.609     50.219   4.000  9.25872E-01  9.84706E-01 -5.88346E-02
    9051.834     51.444   4.040  9.23627E-01  9.83919E-01 -6.02927E-02
    9053.072     52.681   4.080  9.30010E-01  9.83218E-01 -5.32085E-02
    9054.321     53.931   4.120  9.40643E-01  9.82541E-01 -4.18978E-02
    9055.583     55.193   4.160  9.52066E-01  9.81930E-01 -2.98639E-02
    9056.857     56.467   4.200  9.62532E-01  9.81366E-01 -1.88340E-02
    9058.144     57.753   4.240  9.71887E-01  9.80870E-01 -8.98315E-03
    9059.442     59.052   4.280  9.80118E-01  9.80421E-01 -3.03189E-04
    9060.753     60.362   4.320  9.86541E-01  9.80019E-01  6.52187E-03
    9062.076     61.685   4.360  9.90441E-01  9.79687E-01  1.07542E-02
    9063.411     63.020   4.400  9.91951E-01  9.79423E-01  1.25272E-02
    9064.758     64.367   4.440  9.91623E-01  9.79187E-01  1.24360E-02
    9066.117     65.727   4.480  9.89817E-01  9.79042E-01  1.07757E-02
    9067.489     67.098   4.520  9.86580E-01  9.78943E-01  7.63673E-03
    9068.873     68.482   4.560  9.82113E-01  9.78889E-01  3.22403E-03
    9070.269     69.878   4.600  9.76350E-01  9.78879E-01 -2.52991E-03
    9071.677     71.286   4.640  9.68524E-01  9.78937E-01 -1.04122E-02
    9073.097     72.707   4.680  9.57542E-01  9.79038E-01 -2.14959E-02
    9074.530     74.139   4.720  9.43391E-01  9.79179E-01 -3.57883E-02
    9075.974     75.584   4.760  9.28245E-01  9.79361E-01 -5.11163E-02
    9077.431     77.041   4.800  9.15951E-01  9.79584E-01 -6.36330E-02
    9078.900     78.510   4.840  9.10396E-01  9.79845E-01 -6.94492E-02
    9080.382     79.991   4.880  9.14143E-01  9.80145E-01 -6.60021E-02
    9081.875     81.485   4.920  9.27797E-01  9.80482E-01 -5.26856E-02
    9083.381     82.991   4.960  9.49789E-01  9.80854E-01 -3.10645E-02
    9084.899     84.508   5.000  9.76067E-01  9.81237E-01 -5.16988E-03
    9086.429     86.039   5.040  1.00021E+00  9.81650E-01  1.85593E-02
    9087.971     87.581   5.080  1.01481E+00  9.82072E-01  3.27347E-02
    9089.526     89.135   5.120  1.01458E+00  9.82523E-01  3.20591E-02
    9091.092     90.702   5.160  9.99572E-01  9.82979E-01  1.65930E-02
    9092.671     92.281   5.200  9.75220E-01  9.83438E-01 -8.21769E-03
    9094.262     93.872   5.240  9.48814E-01  9.83920E-01 -3.51067E-02
    9095.866     95.475   5.280  9.25724E-01  9.84382E-01 -5.86582E-02
    9097.481     97.091   5.320  9.08396E-01  9.84841E-01 -7.64451E-02
    9099.109     98.718   5.360  8.97113E-01  9.85320E-01 -8.82070E-02
    9100.748    100.358   5.400  8.91257E-01  9.85772E-01 -9.45150E-02
    9102.400    102.010   5.440  8.90732E-01  9.86195E-01 -9.54628E-02
    9104.065    103.674   5.480  8.96571E-01  9.86632E-01 -9.00606E-02
    9105.741    105.351   5.520  9.10324E-01  9.87017E-01 -7.66929E-02
    9107.430    107.039   5.560  9.33104E-01  9.87413E-01 -5.43091E-02
    9109.130    108.740   5.600  9.64316E-01  9.87754E-01 -2.34380E-02
    9110.843    110.453   5.640  1.00136E+00  9.88083E-01  1.32718E-02
    9112.569    112.178   5.680  1.03983E+00  9.88400E-01  5.14294E-02
    9114.306    113.915   5.720  1.07506E+00  9.88657E-01  8.63983E-02
    9116.055    115.665   5.760  1.10353E+00  9.88897E-01  1.14634E-01
    9117.817    117.427   5.800  1.12258E+00  9.89076E-01  1.33500E-01
    9119.591    119.201   5.840  1.13046E+00  9.89239E-01  1.41225E-01
    9121.377    120.987   5.880  1.12744E+00  9.89361E-01  1.38079E-01
    9123.176    122.785   5.920  1.11595E+00  9.89418E-01  1.26536E-01
    9124.986    124.596   5.960  1.09931E+00  9.89453E-01  1.09858E-01
    9126.809    126.418   6.000  1.07981E+00  9.89398E-01  9.04135E-02
