# # comment:                                                     FEFF 9.9.1  
# # Source:
# # Structure
# # Reduced
# # space
# # abc:
# # angles:
# # sites:
# # POT  SCF 100  7.0000   0, screened core-hole, AFOLP (folp(0)= 1.150)
# # Abs   Z=29 Rmt= 1.335 Rnm= 1.394 K  shell
# # Pot 1 Z= 3 Rmt= 1.235 Rnm= 1.296
# # Pot 2 Z=29 Rmt= 1.338 Rnm= 1.398
# # Pot 3 Z=15 Rmt= 0.945 Rnm= 1.156
# # Pot 4 Z= 8 Rmt= 0.940 Rnm= 1.043
# # Gam_ch=1.729E+00 H-L exch Vi= 0.000E+00 Vr= 0.000E+00
# # Mu=-6.667E+00eV kf=2.373E+00 Vint=-1.766E+01eV Rs_int= 1.528
# FMS rfms= 9.0000
# # PATH  Rmax=-1.000,  Keep_limit= 0.00, Heap_limit 0.00  Pwcrit= 2.50%
#  S02=0.950  Temp=   0.00  Debye_temp=   0.00  Global_sig2= 0.00000
#  Energy zero shift, vr, vi    0.00000E+00   0.00000E+00
#  Curved wave amplitude ratio filter   4.000%
#     file         sig2 tot  cw amp ratio   deg  nlegs   reff  inp sig2
#     0/   0 paths used
#  xsedge+ 50, used to normalize mu           2.4675E-04
#  -----------------------------------------------------------------------
#  omega    e    k    mu    mu0     chi     @#
    8983.850    -10.477  -1.000  4.90779E-02  5.48489E-02 -5.77108E-03
    8984.149    -10.178  -0.960  5.22231E-02  5.88697E-02 -6.64658E-03
    8984.435     -9.892  -0.920  5.56745E-02  6.33424E-02 -7.66793E-03
    8984.710     -9.617  -0.880  5.94733E-02  6.83343E-02 -8.86104E-03
    8984.972     -9.355  -0.840  6.36671E-02  7.39236E-02 -1.02565E-02
    8985.222     -9.105  -0.800  6.83108E-02  8.02011E-02 -1.18903E-02
    8985.460     -8.868  -0.760  7.34667E-02  8.72710E-02 -1.38044E-02
    8985.685     -8.642  -0.720  7.92048E-02  9.52514E-02 -1.60467E-02
    8985.898     -8.429  -0.680  8.56013E-02  1.04272E-01 -1.86709E-02
    8986.100     -8.227  -0.640  9.27362E-02  1.14471E-01 -2.17348E-02
    8986.289     -8.038  -0.600  1.00687E-01  1.25983E-01 -2.52960E-02
    8986.465     -7.862  -0.560  1.09518E-01  1.38923E-01 -2.94052E-02
    8986.630     -7.697  -0.520  1.19267E-01  1.53362E-01 -3.40948E-02
    8986.782     -7.545  -0.480  1.29921E-01  1.69284E-01 -3.93633E-02
    8986.923     -7.405  -0.440  1.41392E-01  1.86549E-01 -4.51571E-02
    8987.051     -7.276  -0.400  1.53500E-01  2.04856E-01 -5.13560E-02
    8987.166     -7.161  -0.360  1.65957E-01  2.23727E-01 -5.77703E-02
    8987.270     -7.057  -0.320  1.78389E-01  2.42546E-01 -6.41568E-02
    8987.361     -6.966  -0.280  1.90371E-01  2.60624E-01 -7.02533E-02
    8987.441     -6.886  -0.240  2.01486E-01  2.77306E-01 -7.58202E-02
    8987.508     -6.819  -0.200  2.11367E-01  2.92040E-01 -8.06728E-02
    8987.563     -6.764  -0.160  2.19733E-01  3.04427E-01 -8.46946E-02
    8987.605     -6.722  -0.120  2.26384E-01  3.14214E-01 -8.78293E-02
    8987.636     -6.691  -0.080  2.31199E-01  3.21261E-01 -9.00613E-02
    8987.660     -6.667   0.000  2.35085E-01  3.26920E-01 -9.18352E-02
    8987.715     -6.612   0.120  2.43921E-01  3.39661E-01 -9.57407E-02
    8987.758     -6.569   0.160  2.50829E-01  3.49577E-01 -9.87480E-02
    8987.813     -6.515   0.200  2.59672E-01  3.62195E-01 -1.02522E-01
    8987.880     -6.447   0.240  2.70432E-01  3.77371E-01 -1.06939E-01
    8987.959     -6.368   0.280  2.82928E-01  3.94744E-01 -1.11816E-01
    8988.050     -6.277   0.320  2.96962E-01  4.13869E-01 -1.16906E-01
    8988.154     -6.173   0.360  3.12251E-01  4.34171E-01 -1.21920E-01
    8988.270     -6.057   0.400  3.28502E-01  4.55019E-01 -1.26518E-01
    8988.398     -5.929   0.440  3.45527E-01  4.75859E-01 -1.30332E-01
    8988.538     -5.789   0.480  3.63204E-01  4.96240E-01 -1.33036E-01
    8988.690     -5.637   0.520  3.81505E-01  5.15911E-01 -1.34406E-01
    8988.855     -5.472   0.560  4.00209E-01  5.34730E-01 -1.34521E-01
    8989.032     -5.295   0.600  4.18692E-01  5.52686E-01 -1.33994E-01
    8989.221     -5.106   0.640  4.35727E-01  5.69802E-01 -1.34075E-01
    8989.422     -4.905   0.680  4.49660E-01  5.86205E-01 -1.36544E-01
    8989.635     -4.692   0.720  4.58880E-01  6.01993E-01 -1.43113E-01
    8989.861     -4.466   0.760  4.63057E-01  6.17265E-01 -1.54208E-01
    8990.099     -4.229   0.800  4.64621E-01  6.32130E-01 -1.67509E-01
    8990.348     -3.979   0.840  4.68782E-01  6.46664E-01 -1.77882E-01
    8990.611     -3.716   0.880  4.81481E-01  6.60951E-01 -1.79470E-01
    8990.885     -3.442   0.920  5.06428E-01  6.75016E-01 -1.68589E-01
    8991.171     -3.156   0.960  5.42760E-01  6.88934E-01 -1.46174E-01
    8991.470     -2.857   1.000  5.84175E-01  7.02689E-01 -1.18514E-01
    8991.781     -2.546   1.040  6.21744E-01  7.16334E-01 -9.45900E-02
    8992.104     -2.223   1.080  6.49301E-01  7.29854E-01 -8.05538E-02
    8992.439     -1.888   1.120  6.66931E-01  7.43270E-01 -7.63385E-02
    8992.787     -1.540   1.160  6.80823E-01  7.56550E-01 -7.57270E-02
    8993.147     -1.181   1.200  7.00897E-01  7.69725E-01 -6.88287E-02
    8993.518     -0.809   1.240  7.35567E-01  7.82738E-01 -4.71709E-02
    8993.902     -0.425   1.280  7.85682E-01  7.95609E-01 -9.92699E-03
    8994.299     -0.028   1.320  8.42588E-01  8.08297E-01  3.42902E-02
    8994.707      0.380   1.360  8.97527E-01  8.20776E-01  7.67509E-02
    8995.128      0.801   1.400  9.49795E-01  8.33022E-01  1.16773E-01
    8995.561      1.233   1.440  1.00030E+00  8.45047E-01  1.55255E-01
    8996.006      1.678   1.480  1.05072E+00  8.56783E-01  1.93937E-01
    8996.463      2.136   1.520  1.10924E+00  8.68223E-01  2.41016E-01
    8996.932      2.605   1.560  1.17770E+00  8.79360E-01  2.98344E-01
    8997.414      3.087   1.600  1.24366E+00  8.90164E-01  3.53493E-01
    8997.907      3.580   1.640  1.29885E+00  9.00607E-01  3.98239E-01
    8998.413      4.086   1.680  1.34169E+00  9.10663E-01  4.31028E-01
    8998.932      4.605   1.720  1.35776E+00  9.20343E-01  4.37416E-01
    8999.462      5.135   1.760  1.32813E+00  9.29602E-01  3.98524E-01
    9000.004      5.677   1.800  1.25887E+00  9.38435E-01  3.20431E-01
    9000.559      6.232   1.840  1.17708E+00  9.46835E-01  2.30244E-01
    9001.126      6.799   1.880  1.10838E+00  9.54802E-01  1.53574E-01
    9001.705      7.378   1.920  1.06061E+00  9.62311E-01  9.83037E-02
    9002.297      7.970   1.960  1.03584E+00  9.69362E-01  6.64757E-02
    9002.900      8.573   2.000  1.03311E+00  9.75976E-01  5.71296E-02
    9003.516      9.189   2.040  1.04660E+00  9.82109E-01  6.44946E-02
    9004.144      9.817   2.080  1.06715E+00  9.87807E-01  7.93454E-02
    9004.784     10.457   2.120  1.08497E+00  9.93051E-01  9.19178E-02
    9005.436     11.109   2.160  1.09326E+00  9.97844E-01  9.54169E-02
    9006.100     11.773   2.200  1.08792E+00  1.00221E+00  8.57070E-02
    9006.777     12.450   2.240  1.07153E+00  1.00613E+00  6.53950E-02
    9007.466     13.139   2.280  1.05329E+00  1.00965E+00  4.36436E-02
    9008.167     13.840   2.320  1.03917E+00  1.01277E+00  2.63991E-02
    9008.880     14.553   2.360  1.02685E+00  1.01549E+00  1.13614E-02
    9009.606     15.279   2.400  1.01089E+00  1.01783E+00 -6.94373E-03
    9010.343     16.016   2.440  9.89686E-01  1.01982E+00 -3.01293E-02
    9011.093     16.766   2.480  9.68509E-01  1.02146E+00 -5.29501E-02
    9011.855     17.528   2.520  9.54244E-01  1.02278E+00 -6.85326E-02
    9012.629     18.302   2.560  9.48846E-01  1.02380E+00 -7.49496E-02
    9013.416     19.089   2.600  9.49997E-01  1.02453E+00 -7.45292E-02
    9014.214     19.887   2.640  9.54622E-01  1.02498E+00 -7.03528E-02
    9015.025     20.698   2.680  9.59919E-01  1.02517E+00 -6.52542E-02
    9015.848     21.521   2.720  9.61577E-01  1.02513E+00 -6.35538E-02
    9016.683     22.356   2.760  9.54583E-01  1.02488E+00 -7.02935E-02
    9017.530     23.203   2.800  9.41289E-01  1.02442E+00 -8.31311E-02
    9018.390     24.063   2.840  9.29456E-01  1.02379E+00 -9.43337E-02
    9019.262     24.935   2.880  9.22403E-01  1.02300E+00 -1.00594E-01
    9020.146     25.819   2.920  9.20381E-01  1.02207E+00 -1.01691E-01
    9021.042     26.715   2.960  9.21268E-01  1.02100E+00 -9.97292E-02
    9021.950     27.623   3.000  9.23477E-01  1.01983E+00 -9.63485E-02
    9022.870     28.543   3.040  9.26137E-01  1.01856E+00 -9.24277E-02
    9023.803     29.476   3.080  9.28898E-01  1.01720E+00 -8.83023E-02
    9024.748     30.421   3.120  9.31882E-01  1.01578E+00 -8.39003E-02
    9025.705     31.378   3.160  9.35277E-01  1.01432E+00 -7.90398E-02
    9026.674     32.347   3.200  9.39070E-01  1.01281E+00 -7.37407E-02
    9027.656     33.329   3.240  9.43389E-01  1.01129E+00 -6.79010E-02
    9028.649     34.322   3.280  9.48248E-01  1.00974E+00 -6.14924E-02
    9029.655     35.328   3.320  9.53651E-01  1.00819E+00 -5.45352E-02
    9030.673     36.346   3.360  9.59591E-01  1.00663E+00 -4.70424E-02
    9031.704     37.377   3.400  9.65992E-01  1.00509E+00 -3.90947E-02
    9032.746     38.419   3.440  9.72632E-01  1.00359E+00 -3.09613E-02
    9033.801     39.474   3.480  9.79162E-01  1.00211E+00 -2.29526E-02
    9034.867     40.540   3.520  9.85486E-01  1.00067E+00 -1.51887E-02
    9035.946     41.619   3.560  9.91825E-01  9.99279E-01 -7.45396E-03
    9037.038     42.710   3.600  9.98776E-01  9.97952E-01  8.23727E-04
    9038.141     43.814   3.640  1.00704E+00  9.96695E-01  1.03471E-02
    9039.256     44.929   3.680  1.01711E+00  9.95489E-01  2.16207E-02
    9040.384     46.057   3.720  1.02898E+00  9.94337E-01  3.46402E-02
    9041.524     47.197   3.760  1.04224E+00  9.93281E-01  4.89589E-02
    9042.676     48.349   3.800  1.05611E+00  9.92304E-01  6.38072E-02
    9043.841     49.514   3.840  1.06955E+00  9.91386E-01  7.81668E-02
    9045.017     50.690   3.880  1.08158E+00  9.90569E-01  9.10123E-02
    9046.206     51.879   3.920  1.09132E+00  9.89812E-01  1.01510E-01
    9047.407     53.080   3.960  1.09819E+00  9.89158E-01  1.09031E-01
    9048.620     54.293   4.000  1.10174E+00  9.88589E-01  1.13147E-01
    9049.845     55.518   4.040  1.10189E+00  9.88102E-01  1.13786E-01
    9051.083     56.756   4.080  1.09878E+00  9.87720E-01  1.11065E-01
    9052.332     58.005   4.120  1.09266E+00  9.87397E-01  1.05258E-01
    9053.594     59.267   4.160  1.08384E+00  9.87157E-01  9.66799E-02
    9054.868     60.541   4.200  1.07270E+00  9.87021E-01  8.56767E-02
    9056.155     61.827   4.240  1.05947E+00  9.86964E-01  7.25036E-02
    9057.453     63.126   4.280  1.04445E+00  9.86964E-01  5.74903E-02
    9058.764     64.437   4.320  1.02816E+00  9.87065E-01  4.10928E-02
    9060.086     65.759   4.360  1.01111E+00  9.87220E-01  2.38849E-02
    9061.421     67.094   4.400  9.94086E-01  9.87449E-01  6.63736E-03
    9062.769     68.442   4.440  9.77999E-01  9.87730E-01 -9.73160E-03
    9064.128     69.801   4.480  9.63690E-01  9.88105E-01 -2.44159E-02
    9065.500     71.173   4.520  9.51604E-01  9.88507E-01 -3.69028E-02
    9066.883     72.556   4.560  9.41895E-01  9.88975E-01 -4.70806E-02
    9068.279     73.952   4.600  9.34258E-01  9.89490E-01 -5.52322E-02
    9069.688     75.361   4.640  9.28271E-01  9.90068E-01 -6.17969E-02
    9071.108     76.781   4.680  9.23547E-01  9.90664E-01 -6.71168E-02
    9072.540     78.213   4.720  9.19894E-01  9.91297E-01 -7.14025E-02
    9073.985     79.658   4.760  9.17363E-01  9.91965E-01 -7.46024E-02
    9075.442     81.115   4.800  9.16241E-01  9.92667E-01 -7.64262E-02
    9076.911     82.584   4.840  9.16913E-01  9.93376E-01 -7.64634E-02
    9078.393     84.066   4.880  9.19806E-01  9.94091E-01 -7.42851E-02
    9079.886     85.559   4.920  9.25238E-01  9.94830E-01 -6.95912E-02
    9081.392     87.065   4.960  9.33167E-01  9.95547E-01 -6.23805E-02
    9082.910     88.583   5.000  9.43387E-01  9.96284E-01 -5.28975E-02
    9084.440     90.113   5.040  9.55308E-01  9.96996E-01 -4.16880E-02
    9085.982     91.655   5.080  9.68198E-01  9.97702E-01 -2.95039E-02
    9087.537     93.210   5.120  9.81225E-01  9.98400E-01 -1.71745E-02
    9089.103     94.776   5.160  9.93637E-01  9.99064E-01 -5.42701E-03
    9090.682     96.355   5.200  1.00493E+00  9.99692E-01  5.23601E-03
    9092.273     97.946   5.240  1.01480E+00  1.00030E+00  1.44918E-02
    9093.876     99.549   5.280  1.02296E+00  1.00086E+00  2.21003E-02
    9095.492    101.165   5.320  1.02922E+00  1.00139E+00  2.78260E-02
    9097.119    102.792   5.360  1.03328E+00  1.00188E+00  3.13946E-02
    9098.759    104.432   5.400  1.03479E+00  1.00230E+00  3.24858E-02
    9100.411    106.084   5.440  1.03348E+00  1.00268E+00  3.08016E-02
    9102.075    107.748   5.480  1.02927E+00  1.00299E+00  2.62794E-02
    9103.752    109.425   5.520  1.02258E+00  1.00327E+00  1.93130E-02
    9105.440    111.113   5.560  1.01420E+00  1.00345E+00  1.07455E-02
    9107.141    112.814   5.600  1.00530E+00  1.00361E+00  1.69087E-03
    9108.854    114.527   5.640  9.96997E-01  1.00368E+00 -6.68170E-03
    9110.579    116.252   5.680  9.90412E-01  1.00369E+00 -1.32807E-02
    9112.317    117.990   5.720  9.86455E-01  1.00366E+00 -1.72021E-02
    9114.066    119.739   5.760  9.85638E-01  1.00355E+00 -1.79112E-02
    9115.828    121.501   5.800  9.87954E-01  1.00337E+00 -1.54140E-02
    9117.602    123.275   5.840  9.92836E-01  1.00314E+00 -1.03019E-02
    9119.388    125.061   5.880  9.99240E-01  1.00284E+00 -3.59824E-03
    9121.186    126.859   5.920  1.00605E+00  1.00249E+00  3.55296E-03
    9122.997    128.670   5.960  1.01226E+00  1.00207E+00  1.01820E-02
    9124.820    130.493   6.000  1.01732E+00  1.00157E+00  1.57538E-02
