# # comment:                                                     FEFF 9.9.1  
# # Source:
# # Structure
# # Reduced
# # space
# # abc:
# # angles:
# # sites:
# # POT  SCF 100  7.0000   0, screened core-hole, AFOLP (folp(0)= 1.150)
# # Abs   Z=29 Rmt= 1.149 Rnm= 1.253 K  shell
# # Pot 1 Z=30 Rmt= 1.579 Rnm= 1.595
# # Pot 2 Z=24 Rmt= 1.274 Rnm= 1.390
# # Pot 3 Z=29 Rmt= 1.149 Rnm= 1.253
# # Pot 4 Z= 8 Rmt= 1.003 Rnm= 1.092
# # Gam_ch=1.729E+00 H-L exch Vi= 0.000E+00 Vr= 0.000E+00
# # Mu=-9.945E+00eV kf=2.218E+00 Vint=-1.830E+01eV Rs_int= 1.635
# FMS rfms= 9.0000
# # PATH  Rmax=-1.000,  Keep_limit= 0.00, Heap_limit 0.00  Pwcrit= 2.50%
#  S02=0.950  Temp=   0.00  Debye_temp=   0.00  Global_sig2= 0.00000
#  Energy zero shift, vr, vi    0.00000E+00   0.00000E+00
#  Curved wave amplitude ratio filter   4.000%
#     file         sig2 tot  cw amp ratio   deg  nlegs   reff  inp sig2
#     0/   0 paths used
#  xsedge+ 50, used to normalize mu           2.4707E-04
#  -----------------------------------------------------------------------
#  omega    e    k    mu    mu0     chi     @#
    8984.688    -13.755  -1.000  3.38496E-02  5.21769E-02 -1.83273E-02
    8984.987    -13.457  -0.960  3.54832E-02  5.59019E-02 -2.04188E-02
    8985.273    -13.170  -0.920  3.72299E-02  6.00352E-02 -2.28053E-02
    8985.548    -12.896  -0.880  3.91016E-02  6.46362E-02 -2.55346E-02
    8985.810    -12.634  -0.840  4.11121E-02  6.97744E-02 -2.86623E-02
    8986.060    -12.384  -0.800  4.32768E-02  7.55298E-02 -3.22529E-02
    8986.298    -12.146  -0.760  4.56138E-02  8.19944E-02 -3.63806E-02
    8986.523    -11.921  -0.720  4.81430E-02  8.92720E-02 -4.11290E-02
    8986.737    -11.707  -0.680  5.08863E-02  9.74769E-02 -4.65905E-02
    8986.938    -11.506  -0.640  5.38664E-02  1.06729E-01 -5.28630E-02
    8987.127    -11.317  -0.600  5.71048E-02  1.17148E-01 -6.00428E-02
    8987.303    -11.140  -0.560  6.06184E-02  1.28832E-01 -6.82139E-02
    8987.468    -10.976  -0.520  6.44132E-02  1.41843E-01 -7.74294E-02
    8987.620    -10.823  -0.480  6.84774E-02  1.56164E-01 -8.76868E-02
    8987.761    -10.683  -0.440  7.27716E-02  1.71672E-01 -9.89003E-02
    8987.889    -10.555  -0.400  7.72217E-02  1.88097E-01 -1.10875E-01
    8988.004    -10.439  -0.360  8.17175E-02  2.05018E-01 -1.23301E-01
    8988.108    -10.336  -0.320  8.61204E-02  2.21889E-01 -1.35768E-01
    8988.200    -10.244  -0.280  9.02818E-02  2.38100E-01 -1.47818E-01
    8988.279    -10.165  -0.240  9.40649E-02  2.53067E-01 -1.59002E-01
    8988.346    -10.098  -0.200  9.73626E-02  2.66298E-01 -1.68935E-01
    8988.401    -10.043  -0.160  1.00105E-01  2.77432E-01 -1.77327E-01
    8988.443    -10.000  -0.120  1.02253E-01  2.86237E-01 -1.83984E-01
    8988.474     -9.970  -0.080  1.03791E-01  2.92582E-01 -1.88792E-01
    8988.498     -9.945   0.000  1.05022E-01  2.97683E-01 -1.92661E-01
    8988.553     -9.891   0.120  1.07805E-01  3.09174E-01 -2.01369E-01
    8988.596     -9.848   0.160  1.09925E-01  3.18138E-01 -2.08213E-01
    8988.651     -9.793   0.200  1.12564E-01  3.29560E-01 -2.16996E-01
    8988.718     -9.726   0.240  1.15679E-01  3.43315E-01 -2.27636E-01
    8988.797     -9.647   0.280  1.19229E-01  3.59158E-01 -2.39929E-01
    8988.888     -9.555   0.320  1.23089E-01  3.76662E-01 -2.53573E-01
    8988.992     -9.452   0.360  1.27278E-01  3.95364E-01 -2.68086E-01
    8989.108     -9.336   0.400  1.31801E-01  4.14729E-01 -2.82928E-01
    8989.236     -9.208   0.440  1.36858E-01  4.34287E-01 -2.97429E-01
    8989.376     -9.068   0.480  1.42683E-01  4.53653E-01 -3.10970E-01
    8989.528     -8.915   0.520  1.49610E-01  4.72596E-01 -3.22986E-01
    8989.693     -8.751   0.560  1.57992E-01  4.91009E-01 -3.33017E-01
    8989.870     -8.574   0.600  1.68076E-01  5.08862E-01 -3.40786E-01
    8990.059     -8.385   0.640  1.79845E-01  5.26188E-01 -3.46343E-01
    8990.260     -8.184   0.680  1.92757E-01  5.43070E-01 -3.50314E-01
    8990.473     -7.970   0.720  2.05783E-01  5.59587E-01 -3.53804E-01
    8990.699     -7.745   0.760  2.17975E-01  5.75791E-01 -3.57816E-01
    8990.937     -7.507   0.800  2.29095E-01  5.91812E-01 -3.62717E-01
    8991.187     -7.257   0.840  2.39317E-01  6.07641E-01 -3.68324E-01
    8991.449     -6.995   0.880  2.49485E-01  6.23360E-01 -3.73875E-01
    8991.723     -6.721   0.920  2.61519E-01  6.38979E-01 -3.77460E-01
    8992.010     -6.434   0.960  2.79925E-01  6.54535E-01 -3.74610E-01
    8992.308     -6.135   1.000  3.11948E-01  6.70014E-01 -3.58066E-01
    8992.619     -5.825   1.040  3.66434E-01  6.85417E-01 -3.18983E-01
    8992.942     -5.501   1.080  4.52996E-01  7.00714E-01 -2.47718E-01
    8993.278     -5.166   1.120  5.77237E-01  7.15932E-01 -1.38696E-01
    8993.625     -4.819   1.160  7.22778E-01  7.31032E-01 -8.25447E-03
    8993.985     -4.459   1.200  8.34929E-01  7.45952E-01  8.89772E-02
    8994.356     -4.087   1.240  8.64196E-01  7.60725E-01  1.03471E-01
    8994.741     -3.703   1.280  8.25893E-01  7.75263E-01  5.06308E-02
    8995.137     -3.307   1.320  7.55273E-01  7.89557E-01 -3.42834E-02
    8995.545     -2.898   1.360  6.64850E-01  8.03595E-01 -1.38745E-01
    8995.966     -2.478   1.400  5.72262E-01  8.17306E-01 -2.45043E-01
    8996.399     -2.045   1.440  5.07119E-01  8.30679E-01 -3.23560E-01
    8996.844     -1.600   1.480  4.88311E-01  8.43701E-01 -3.55390E-01
    8997.301     -1.143   1.520  5.13029E-01  8.56324E-01 -3.43294E-01
    8997.770     -0.673   1.560  5.58760E-01  8.68514E-01 -3.09754E-01
    8998.252     -0.192   1.600  5.96821E-01  8.80283E-01 -2.83461E-01
    8998.746      0.302   1.640  6.23876E-01  8.91562E-01 -2.67686E-01
    8999.252      0.808   1.680  6.57104E-01  9.02364E-01 -2.45260E-01
    8999.770      1.326   1.720  6.97692E-01  9.12683E-01 -2.14991E-01
    9000.300      1.856   1.760  7.34260E-01  9.22496E-01 -1.88236E-01
    9000.843      2.399   1.800  7.80752E-01  9.31777E-01 -1.51025E-01
    9001.397      2.954   1.840  8.45328E-01  9.40545E-01 -9.52166E-02
    9001.964      3.521   1.880  8.98536E-01  9.48779E-01 -5.02425E-02
    9002.543      4.100   1.920  9.22646E-01  9.56500E-01 -3.38543E-02
    9003.135      4.691   1.960  9.37212E-01  9.63691E-01 -2.64796E-02
    9003.738      5.295   2.000  9.89966E-01  9.70356E-01  1.96101E-02
    9004.354      5.910   2.040  1.10147E+00  9.76537E-01  1.24935E-01
    9004.982      6.538   2.080  1.23197E+00  9.82199E-01  2.49773E-01
    9005.622      7.178   2.120  1.32900E+00  9.87371E-01  3.41628E-01
    9006.274      7.830   2.160  1.39149E+00  9.92079E-01  3.99412E-01
    9006.939      8.495   2.200  1.42326E+00  9.96330E-01  4.26933E-01
    9007.615      9.172   2.240  1.41627E+00  1.00011E+00  4.16154E-01
    9008.304      9.860   2.280  1.38458E+00  1.00350E+00  3.81077E-01
    9009.005     10.561   2.320  1.36563E+00  1.00647E+00  3.59153E-01
    9009.718     11.275   2.360  1.37850E+00  1.00905E+00  3.69448E-01
    9010.444     12.000   2.400  1.40143E+00  1.01126E+00  3.90174E-01
    9011.181     12.738   2.440  1.40311E+00  1.01313E+00  3.89987E-01
    9011.931     13.488   2.480  1.37174E+00  1.01464E+00  3.57096E-01
    9012.693     14.250   2.520  1.30693E+00  1.01589E+00  2.91042E-01
    9013.467     15.024   2.560  1.22246E+00  1.01682E+00  2.05641E-01
    9014.254     15.810   2.600  1.14499E+00  1.01749E+00  1.27498E-01
    9015.052     16.609   2.640  1.10077E+00  1.01790E+00  8.28713E-02
    9015.863     17.419   2.680  1.08029E+00  1.01809E+00  6.21944E-02
    9016.686     18.242   2.720  1.06076E+00  1.01807E+00  4.26914E-02
    9017.521     19.078   2.760  1.03847E+00  1.01788E+00  2.05951E-02
    9018.369     19.925   2.800  1.01898E+00  1.01749E+00  1.48840E-03
    9019.228     20.784   2.840  1.00698E+00  1.01695E+00 -9.96340E-03
    9020.100     21.656   2.880  1.00159E+00  1.01627E+00 -1.46776E-02
    9020.984     22.540   2.920  9.98164E-01  1.01546E+00 -1.72991E-02
    9021.880     23.436   2.960  9.92533E-01  1.01455E+00 -2.20122E-02
    9022.788     24.344   3.000  9.82975E-01  1.01356E+00 -3.05846E-02
    9023.709     25.265   3.040  9.69259E-01  1.01247E+00 -4.32115E-02
    9024.641     26.198   3.080  9.52006E-01  1.01131E+00 -5.93004E-02
    9025.586     27.143   3.120  9.32345E-01  1.01011E+00 -7.77688E-02
    9026.543     28.100   3.160  9.12086E-01  1.00886E+00 -9.67731E-02
    9027.512     29.069   3.200  8.93558E-01  1.00759E+00 -1.14030E-01
    9028.494     30.050   3.240  8.78860E-01  1.00628E+00 -1.27425E-01
    9029.488     31.044   3.280  8.68472E-01  1.00497E+00 -1.36502E-01
    9030.493     32.050   3.320  8.61965E-01  1.00366E+00 -1.41695E-01
    9031.511     33.068   3.360  8.58869E-01  1.00235E+00 -1.43479E-01
    9032.542     34.098   3.400  8.58479E-01  1.00104E+00 -1.42561E-01
    9033.584     35.140   3.440  8.59789E-01  9.99765E-01 -1.39976E-01
    9034.639     36.195   3.480  8.62069E-01  9.98522E-01 -1.36454E-01
    9035.705     37.262   3.520  8.65380E-01  9.97315E-01 -1.31935E-01
    9036.784     38.341   3.560  8.69964E-01  9.96127E-01 -1.26162E-01
    9037.876     39.432   3.600  8.76433E-01  9.94999E-01 -1.18566E-01
    9038.979     40.535   3.640  8.85346E-01  9.93916E-01 -1.08570E-01
    9040.095     41.651   3.680  8.96927E-01  9.92878E-01 -9.59510E-02
    9041.222     42.779   3.720  9.10678E-01  9.91906E-01 -8.12276E-02
    9042.362     43.919   3.760  9.25569E-01  9.90982E-01 -6.54126E-02
    9043.514     45.071   3.800  9.40369E-01  9.90107E-01 -4.97381E-02
    9044.679     46.235   3.840  9.54068E-01  9.89325E-01 -3.52565E-02
    9045.855     47.412   3.880  9.65858E-01  9.88572E-01 -2.27141E-02
    9047.044     48.600   3.920  9.75148E-01  9.87914E-01 -1.27657E-02
    9048.245     49.801   3.960  9.81117E-01  9.87308E-01 -6.19089E-03
    9049.458     51.014   4.000  9.83034E-01  9.86775E-01 -3.74035E-03
    9050.683     52.240   4.040  9.80784E-01  9.86293E-01 -5.50881E-03
    9051.921     53.477   4.080  9.75602E-01  9.85885E-01 -1.02823E-02
    9053.170     54.727   4.120  9.69995E-01  9.85549E-01 -1.55547E-02
    9054.432     55.989   4.160  9.67003E-01  9.85266E-01 -1.82626E-02
    9055.706     57.263   4.200  9.69397E-01  9.85057E-01 -1.56602E-02
    9056.993     58.549   4.240  9.78636E-01  9.84919E-01 -6.28374E-03
    9058.291     59.847   4.280  9.94362E-01  9.84831E-01  9.53131E-03
    9059.602     61.158   4.320  1.01444E+00  9.84814E-01  2.96271E-02
    9060.925     62.481   4.360  1.03553E+00  9.84844E-01  5.06902E-02
    9062.260     63.816   4.400  1.05434E+00  9.84920E-01  6.94221E-02
    9063.607     65.163   4.440  1.06846E+00  9.85064E-01  8.33958E-02
    9064.966     66.522   4.480  1.07650E+00  9.85255E-01  9.12486E-02
    9066.338     67.894   4.520  1.07793E+00  9.85510E-01  9.24197E-02
    9067.722     69.278   4.560  1.07307E+00  9.85787E-01  8.72805E-02
    9069.118     70.674   4.600  1.06348E+00  9.86124E-01  7.73516E-02
    9070.526     72.082   4.640  1.05192E+00  9.86482E-01  6.54349E-02
    9071.946     73.502   4.680  1.04164E+00  9.86897E-01  5.47383E-02
    9073.379     74.935   4.720  1.03508E+00  9.87328E-01  4.77499E-02
    9074.823     76.380   4.760  1.03346E+00  9.87794E-01  4.56696E-02
    9076.280     77.837   4.800  1.03664E+00  9.88292E-01  4.83464E-02
    9077.749     79.306   4.840  1.04340E+00  9.88802E-01  5.45936E-02
    9079.231     80.787   4.880  1.05213E+00  9.89341E-01  6.27870E-02
    9080.724     82.281   4.920  1.06100E+00  9.89887E-01  7.11094E-02
    9082.230     83.786   4.960  1.06791E+00  9.90459E-01  7.74490E-02
    9083.748     85.304   5.000  1.07064E+00  9.91012E-01  7.96278E-02
    9085.278     86.834   5.040  1.06801E+00  9.91588E-01  7.64265E-02
    9086.820     88.377   5.080  1.06044E+00  9.92164E-01  6.82773E-02
    9088.375     89.931   5.120  1.04942E+00  9.92716E-01  5.67053E-02
    9089.941     91.498   5.160  1.03646E+00  9.93285E-01  4.31796E-02
    9091.520     93.077   5.200  1.02226E+00  9.93830E-01  2.84286E-02
    9093.111     94.668   5.240  1.00684E+00  9.94368E-01  1.24749E-02
    9094.715     96.271   5.280  9.90210E-01  9.94899E-01 -4.68896E-03
    9096.330     97.886   5.320  9.72862E-01  9.95399E-01 -2.25370E-02
    9097.958     99.514   5.360  9.55913E-01  9.95886E-01 -3.99722E-02
    9099.597    101.154   5.400  9.40550E-01  9.96317E-01 -5.57675E-02
    9101.249    102.806   5.440  9.27555E-01  9.96757E-01 -6.92019E-02
    9102.914    104.470   5.480  9.16988E-01  9.97140E-01 -8.01517E-02
    9104.590    106.146   5.520  9.09046E-01  9.97508E-01 -8.84618E-02
    9106.279    107.835   5.560  9.04337E-01  9.97838E-01 -9.35013E-02
    9107.979    109.536   5.600  9.03728E-01  9.98128E-01 -9.44001E-02
    9109.692    111.249   5.640  9.07724E-01  9.98376E-01 -9.06524E-02
    9111.417    112.974   5.680  9.16019E-01  9.98561E-01 -8.25413E-02
    9113.155    114.711   5.720  9.27658E-01  9.98726E-01 -7.10678E-02
    9114.904    116.461   5.760  9.41463E-01  9.98853E-01 -5.73905E-02
    9116.666    118.222   5.800  9.56766E-01  9.98938E-01 -4.21719E-02
    9118.440    119.996   5.840  9.73526E-01  9.98958E-01 -2.54313E-02
    9120.226    121.783   5.880  9.91770E-01  9.98958E-01 -7.18821E-03
    9122.024    123.581   5.920  1.01052E+00  9.98891E-01  1.16333E-02
    9123.835    125.391   5.960  1.02759E+00  9.98776E-01  2.88104E-02
    9125.658    127.214   6.000  1.03981E+00  9.98587E-01  4.12225E-02
