# # comment:                                                     FEFF 9.9.1  
# # Source:
# # Structure
# # Reduced
# # space
# # abc:
# # angles:109.782817
# # sites:
# # POT  SCF 100  7.0000   0, screened core-hole, AFOLP (folp(0)= 1.150)
# # Abs   Z=29 Rmt= 1.232 Rnm= 1.306 K  shell
# # Pot 1 Z=13 Rmt= 1.548 Rnm= 1.574
# # Pot 2 Z=23 Rmt= 1.241 Rnm= 1.372
# # Pot 3 Z=29 Rmt= 1.247 Rnm= 1.316
# # Pot 4 Z= 8 Rmt= 1.005 Rnm= 1.093
# # Gam_ch=1.729E+00 H-L exch Vi= 0.000E+00 Vr= 0.000E+00
# # Mu=-9.818E+00eV kf=2.221E+00 Vint=-1.866E+01eV Rs_int= 1.633
# FMS rfms= 9.0000
# # PATH  Rmax=-1.000,  Keep_limit= 0.00, Heap_limit 0.00  Pwcrit= 2.50%
#  S02=0.950  Temp=   0.00  Debye_temp=   0.00  Global_sig2= 0.00000
#  Energy zero shift, vr, vi    0.00000E+00   0.00000E+00
#  Curved wave amplitude ratio filter   4.000%
#     file         sig2 tot  cw amp ratio   deg  nlegs   reff  inp sig2
#     0/   0 paths used
#  xsedge+ 50, used to normalize mu           2.4796E-04
#  -----------------------------------------------------------------------
#  omega    e    k    mu    mu0     chi     @#
    8984.784    -13.627  -1.000  3.73919E-02  5.11054E-02 -1.37135E-02
    8985.082    -13.329  -0.960  3.93313E-02  5.47535E-02 -1.54222E-02
    8985.369    -13.042  -0.920  4.14117E-02  5.88027E-02 -1.73910E-02
    8985.643    -12.768  -0.880  4.36475E-02  6.33118E-02 -1.96644E-02
    8985.905    -12.506  -0.840  4.60549E-02  6.83493E-02 -2.22944E-02
    8986.155    -12.256  -0.800  4.86524E-02  7.39943E-02 -2.53419E-02
    8986.393    -12.018  -0.760  5.14607E-02  8.03376E-02 -2.88769E-02
    8986.618    -11.793  -0.720  5.45028E-02  8.74818E-02 -3.29791E-02
    8986.832    -11.579  -0.680  5.78033E-02  9.55400E-02 -3.77367E-02
    8987.033    -11.378  -0.640  6.13875E-02  1.04631E-01 -4.32437E-02
    8987.222    -11.189  -0.600  6.52792E-02  1.14872E-01 -4.95933E-02
    8987.399    -11.012  -0.560  6.94965E-02  1.26363E-01 -5.68669E-02
    8987.563    -10.848  -0.520  7.40458E-02  1.39163E-01 -6.51172E-02
    8987.716    -10.695  -0.480  7.89136E-02  1.53258E-01 -7.43441E-02
    8987.856    -10.555  -0.440  8.40565E-02  1.68524E-01 -8.44671E-02
    8987.984    -10.427  -0.400  8.93937E-02  1.84696E-01 -9.53022E-02
    8988.100    -10.311  -0.360  9.48042E-02  2.01359E-01 -1.06554E-01
    8988.203    -10.208  -0.320  1.00134E-01  2.17971E-01 -1.17837E-01
    8988.295    -10.116  -0.280  1.05213E-01  2.33933E-01 -1.28720E-01
    8988.374    -10.037  -0.240  1.09880E-01  2.48668E-01 -1.38788E-01
    8988.441     -9.970  -0.200  1.13996E-01  2.61690E-01 -1.47694E-01
    8988.496     -9.915  -0.160  1.17461E-01  2.72646E-01 -1.55185E-01
    8988.539     -9.872  -0.120  1.20207E-01  2.81308E-01 -1.61101E-01
    8988.569     -9.842  -0.080  1.22196E-01  2.87549E-01 -1.65353E-01
    8988.593     -9.818   0.000  1.23813E-01  2.92565E-01 -1.68751E-01
    8988.648     -9.763   0.120  1.27361E-01  3.03877E-01 -1.76515E-01
    8988.691     -9.720   0.160  1.30118E-01  3.12676E-01 -1.82558E-01
    8988.746     -9.665   0.200  1.33594E-01  3.23892E-01 -1.90298E-01
    8988.813     -9.598   0.240  1.37774E-01  3.37416E-01 -1.99642E-01
    8988.892     -9.519   0.280  1.42553E-01  3.52943E-01 -2.10391E-01
    8988.984     -9.427   0.320  1.47798E-01  3.70106E-01 -2.22308E-01
    8989.087     -9.324   0.360  1.53319E-01  3.88399E-01 -2.35079E-01
    8989.203     -9.208   0.400  1.58920E-01  4.07307E-01 -2.48387E-01
    8989.331     -9.080   0.440  1.64504E-01  4.26343E-01 -2.61839E-01
    8989.471     -8.940   0.480  1.70160E-01  4.45163E-01 -2.75003E-01
    8989.624     -8.787   0.520  1.76250E-01  4.63517E-01 -2.87267E-01
    8989.788     -8.623   0.560  1.83451E-01  4.81299E-01 -2.97848E-01
    8989.965     -8.446   0.600  1.92581E-01  4.98459E-01 -3.05879E-01
    8990.154     -8.257   0.640  2.04797E-01  5.15092E-01 -3.10295E-01
    8990.355     -8.056   0.680  2.21285E-01  5.31202E-01 -3.09916E-01
    8990.569     -7.842   0.720  2.43388E-01  5.46948E-01 -3.03560E-01
    8990.794     -7.617   0.760  2.71658E-01  5.62349E-01 -2.90691E-01
    8991.032     -7.379   0.800  3.05372E-01  5.77531E-01 -2.72159E-01
    8991.282     -7.129   0.840  3.42739E-01  5.92511E-01 -2.49772E-01
    8991.544     -6.867   0.880  3.83196E-01  6.07373E-01 -2.24177E-01
    8991.818     -6.593   0.920  4.29080E-01  6.22131E-01 -1.93051E-01
    8992.105     -6.306   0.960  4.84998E-01  6.36803E-01 -1.51805E-01
    8992.403     -6.008   1.000  5.54728E-01  6.51421E-01 -9.66928E-02
    8992.714     -5.697   1.040  6.36533E-01  6.65986E-01 -2.94531E-02
    8993.037     -5.374   1.080  7.17307E-01  6.80475E-01  3.68315E-02
    8993.373     -5.038   1.120  7.68463E-01  6.94877E-01  7.35869E-02
    8993.720     -4.691   1.160  7.66809E-01  7.09194E-01  5.76144E-02
    8994.080     -4.331   1.200  7.25673E-01  7.23390E-01  2.28214E-03
    8994.452     -3.959   1.240  6.73686E-01  7.37462E-01 -6.37767E-02
    8994.836     -3.575   1.280  6.21018E-01  7.51363E-01 -1.30345E-01
    8995.232     -3.179   1.320  5.67504E-01  7.65088E-01 -1.97584E-01
    8995.640     -2.771   1.360  5.28511E-01  7.78587E-01 -2.50077E-01
    8996.061     -2.350   1.400  5.28945E-01  7.91851E-01 -2.62906E-01
    8996.494     -1.917   1.440  5.83435E-01  8.04831E-01 -2.21395E-01
    8996.939     -1.472   1.480  6.89149E-01  8.17516E-01 -1.28368E-01
    8997.396     -1.015   1.520  8.17968E-01  8.29898E-01 -1.19298E-02
    8997.865     -0.546   1.560  9.21394E-01  8.41924E-01  7.94701E-02
    8998.347     -0.064   1.600  9.61890E-01  8.53568E-01  1.08322E-01
    8998.841      0.430   1.640  9.42006E-01  8.64841E-01  7.71645E-02
    8999.347      0.936   1.680  8.83783E-01  8.75695E-01  8.08802E-03
    8999.865      1.454   1.720  8.19083E-01  8.86123E-01 -6.70405E-02
    9000.395      1.984   1.760  7.83418E-01  8.96121E-01 -1.12702E-01
    9000.938      2.527   1.800  7.84909E-01  9.05683E-01 -1.20774E-01
    9001.493      3.082   1.840  8.10788E-01  9.14766E-01 -1.03977E-01
    9002.060      3.648   1.880  8.62052E-01  9.23408E-01 -6.13558E-02
    9002.639      4.228   1.920  9.38210E-01  9.31568E-01  6.64222E-03
    9003.230      4.819   1.960  1.02393E+00  9.39265E-01  8.46648E-02
    9003.833      5.422   2.000  1.10404E+00  9.46501E-01  1.57538E-01
    9004.449      6.038   2.040  1.15950E+00  9.53259E-01  2.06241E-01
    9005.077      6.666   2.080  1.19634E+00  9.59581E-01  2.36757E-01
    9005.717      7.306   2.120  1.23261E+00  9.65430E-01  2.67180E-01
    9006.369      7.958   2.160  1.26668E+00  9.70851E-01  2.95831E-01
    9007.034      8.623   2.200  1.28737E+00  9.75831E-01  3.11538E-01
    9007.710      9.299   2.240  1.29994E+00  9.80395E-01  3.19541E-01
    9008.399      9.988   2.280  1.33068E+00  9.84549E-01  3.46133E-01
    9009.100     10.689   2.320  1.38773E+00  9.88301E-01  3.99428E-01
    9009.814     11.403   2.360  1.44023E+00  9.91679E-01  4.48550E-01
    9010.539     12.128   2.400  1.44792E+00  9.94691E-01  4.53229E-01
    9011.277     12.866   2.440  1.39780E+00  9.97367E-01  4.00430E-01
    9012.026     13.615   2.480  1.30149E+00  9.99713E-01  3.01781E-01
    9012.788     14.377   2.520  1.18576E+00  1.00174E+00  1.84022E-01
    9013.563     15.152   2.560  1.08082E+00  1.00347E+00  7.73458E-02
    9014.349     15.938   2.600  1.00479E+00  1.00493E+00 -1.34487E-04
    9015.148     16.737   2.640  9.60043E-01  1.00610E+00 -4.60597E-02
    9015.958     17.547   2.680  9.30589E-01  1.00705E+00 -7.64650E-02
    9016.781     18.370   2.720  9.07784E-01  1.00777E+00 -9.99843E-02
    9017.616     19.205   2.760  8.92573E-01  1.00828E+00 -1.15702E-01
    9018.464     20.053   2.800  8.85036E-01  1.00858E+00 -1.23547E-01
    9019.323     20.912   2.840  8.82828E-01  1.00872E+00 -1.25888E-01
    9020.195     21.784   2.880  8.82045E-01  1.00867E+00 -1.26623E-01
    9021.079     22.668   2.920  8.79392E-01  1.00850E+00 -1.29111E-01
    9021.975     23.564   2.960  8.73571E-01  1.00819E+00 -1.34619E-01
    9022.883     24.472   3.000  8.65484E-01  1.00775E+00 -1.42270E-01
    9023.804     25.393   3.040  8.56780E-01  1.00720E+00 -1.50424E-01
    9024.737     26.326   3.080  8.48809E-01  1.00659E+00 -1.57777E-01
    9025.681     27.270   3.120  8.42292E-01  1.00587E+00 -1.63574E-01
    9026.638     28.227   3.160  8.37626E-01  1.00509E+00 -1.67463E-01
    9027.608     29.197   3.200  8.35517E-01  1.00424E+00 -1.68725E-01
    9028.589     30.178   3.240  8.37171E-01  1.00335E+00 -1.66177E-01
    9029.583     31.172   3.280  8.43110E-01  1.00241E+00 -1.59304E-01
    9030.589     32.178   3.320  8.53643E-01  1.00147E+00 -1.47823E-01
    9031.607     33.196   3.360  8.68849E-01  1.00049E+00 -1.31638E-01
    9032.637     34.226   3.400  8.88193E-01  9.99500E-01 -1.11307E-01
    9033.679     35.268   3.440  9.10232E-01  9.98510E-01 -8.82783E-02
    9034.734     36.323   3.480  9.33121E-01  9.97520E-01 -6.43995E-02
    9035.801     37.390   3.520  9.55005E-01  9.96532E-01 -4.15266E-02
    9036.880     38.469   3.560  9.74501E-01  9.95549E-01 -2.10484E-02
    9037.971     39.560   3.600  9.91263E-01  9.94597E-01 -3.33447E-03
    9039.074     40.663   3.640  1.00571E+00  9.93679E-01  1.20317E-02
    9040.190     41.779   3.680  1.01842E+00  9.92795E-01  2.56199E-02
    9041.318     42.907   3.720  1.02976E+00  9.91927E-01  3.78333E-02
    9042.458     44.047   3.760  1.03982E+00  9.91117E-01  4.87024E-02
    9043.610     45.199   3.800  1.04794E+00  9.90326E-01  5.76145E-02
    9044.774     46.363   3.840  1.05312E+00  9.89596E-01  6.35197E-02
    9045.951     47.540   3.880  1.05418E+00  9.88886E-01  6.52960E-02
    9047.139     48.728   3.920  1.05024E+00  9.88240E-01  6.19958E-02
    9048.340     49.929   3.960  1.04078E+00  9.87640E-01  5.31441E-02
    9049.553     51.142   4.000  1.02640E+00  9.87106E-01  3.92981E-02
    9050.779     52.368   4.040  1.00903E+00  9.86617E-01  2.24124E-02
    9052.016     53.605   4.080  9.91865E-01  9.86172E-01  5.69343E-03
    9053.266     54.855   4.120  9.78503E-01  9.85770E-01 -7.26692E-03
    9054.528     56.117   4.160  9.71991E-01  9.85436E-01 -1.34445E-02
    9055.802     57.391   4.200  9.74115E-01  9.85146E-01 -1.10310E-02
    9057.088     58.677   4.240  9.84796E-01  9.84899E-01 -1.03183E-04
    9058.386     59.975   4.280  1.00178E+00  9.84698E-01  1.70781E-02
    9059.697     61.286   4.320  1.02124E+00  9.84561E-01  3.66757E-02
    9061.020     62.609   4.360  1.03931E+00  9.84468E-01  5.48438E-02
    9062.355     63.944   4.400  1.05359E+00  9.84420E-01  6.91711E-02
    9063.702     65.291   4.440  1.06318E+00  9.84435E-01  7.87401E-02
    9065.061     66.650   4.480  1.06754E+00  9.84471E-01  8.30676E-02
    9066.433     68.022   4.520  1.06611E+00  9.84567E-01  8.15450E-02
    9067.817     69.406   4.560  1.05880E+00  9.84681E-01  7.41235E-02
    9069.213     70.802   4.600  1.04685E+00  9.84855E-01  6.19938E-02
    9070.621     72.210   4.640  1.03269E+00  9.85043E-01  4.76453E-02
    9072.041     73.630   4.680  1.01937E+00  9.85267E-01  3.41046E-02
    9073.474     75.063   4.720  1.00953E+00  9.85525E-01  2.40086E-02
    9074.919     76.508   4.760  1.00473E+00  9.85795E-01  1.89394E-02
    9076.376     77.965   4.800  1.00515E+00  9.86097E-01  1.90526E-02
    9077.845     79.434   4.840  1.00969E+00  9.86430E-01  2.32633E-02
    9079.326     80.915   4.880  1.01656E+00  9.86771E-01  2.97883E-02
    9080.819     82.408   4.920  1.02355E+00  9.87117E-01  3.64354E-02
    9082.325     83.914   4.960  1.02830E+00  9.87491E-01  4.08072E-02
    9083.843     85.432   5.000  1.02875E+00  9.87870E-01  4.08828E-02
    9085.373     86.962   5.040  1.02391E+00  9.88253E-01  3.56597E-02
    9086.915     88.504   5.080  1.01399E+00  9.88657E-01  2.53359E-02
    9088.470     90.059   5.120  9.99758E-01  9.89040E-01  1.07180E-02
    9090.037     91.626   5.160  9.82227E-01  9.89422E-01 -7.19433E-03
    9091.615     93.204   5.200  9.62710E-01  9.89822E-01 -2.71121E-02
    9093.207     94.796   5.240  9.42756E-01  9.90197E-01 -4.74410E-02
    9094.810     96.399   5.280  9.24028E-01  9.90543E-01 -6.65149E-02
    9096.425     98.014   5.320  9.07837E-01  9.90905E-01 -8.30684E-02
    9098.053     99.642   5.360  8.94911E-01  9.91237E-01 -9.63259E-02
    9099.693    101.282   5.400  8.85660E-01  9.91536E-01 -1.05877E-01
    9101.345    102.934   5.440  8.80401E-01  9.91828E-01 -1.11428E-01
    9103.009    104.598   5.480  8.79341E-01  9.92111E-01 -1.12770E-01
    9104.685    106.274   5.520  8.82396E-01  9.92359E-01 -1.09963E-01
    9106.374    107.963   5.560  8.89178E-01  9.92571E-01 -1.03393E-01
    9108.075    109.664   5.600  8.99261E-01  9.92749E-01 -9.34882E-02
    9109.788    111.377   5.640  9.12564E-01  9.92914E-01 -8.03498E-02
    9111.513    113.102   5.680  9.29175E-01  9.93044E-01 -6.38694E-02
    9113.250    114.839   5.720  9.48999E-01  9.93160E-01 -4.41618E-02
    9115.000    116.589   5.760  9.71333E-01  9.93217E-01 -2.18844E-02
    9116.761    118.350   5.800  9.94816E-01  9.93257E-01  1.55988E-03
    9118.535    120.124   5.840  1.01734E+00  9.93236E-01  2.41050E-02
    9120.321    121.910   5.880  1.03689E+00  9.93201E-01  4.36900E-02
    9122.120    123.709   5.920  1.05232E+00  9.93130E-01  5.91865E-02
    9123.930    125.519   5.960  1.06340E+00  9.93019E-01  7.03777E-02
    9125.753    127.342   6.000  1.06969E+00  9.92846E-01  7.68394E-02
