# # comment:                                                     FEFF 9.9.1  
# # Source:
# # Structure
# # Reduced
# # space
# # abc:
# # angles:
# # sites:
# # POT  SCF 100  7.0000   0, screened core-hole, AFOLP (folp(0)= 1.150)
# # Abs   Z=29 Rmt= 1.354 Rnm= 1.419 K  shell
# # Pot 1 Z= 3 Rmt= 1.273 Rnm= 1.333
# # Pot 2 Z=29 Rmt= 1.358 Rnm= 1.418
# # Pot 3 Z=15 Rmt= 0.947 Rnm= 1.157
# # Pot 4 Z= 8 Rmt= 0.934 Rnm= 1.035
# # Gam_ch=1.729E+00 H-L exch Vi= 0.000E+00 Vr= 0.000E+00
# # Mu=-5.870E+00eV kf=2.385E+00 Vint=-1.694E+01eV Rs_int= 1.520
# FMS rfms= 9.0000
# # PATH  Rmax=-1.000,  Keep_limit= 0.00, Heap_limit 0.00  Pwcrit= 2.50%
#  S02=0.950  Temp=   0.00  Debye_temp=   0.00  Global_sig2= 0.00000
#  Energy zero shift, vr, vi    0.00000E+00   0.00000E+00
#  Curved wave amplitude ratio filter   4.000%
#     file         sig2 tot  cw amp ratio   deg  nlegs   reff  inp sig2
#     0/   0 paths used
#  xsedge+ 50, used to normalize mu           2.4676E-04
#  -----------------------------------------------------------------------
#  omega    e    k    mu    mu0     chi     @#
    8983.464     -9.680  -1.000  5.23260E-02  5.48571E-02 -2.53112E-03
    8983.762     -9.382  -0.960  5.59262E-02  5.88757E-02 -2.94949E-03
    8984.049     -9.095  -0.920  5.99112E-02  6.33458E-02 -3.43462E-03
    8984.323     -8.821  -0.880  6.43376E-02  6.83345E-02 -3.99689E-03
    8984.585     -8.559  -0.840  6.92718E-02  7.39200E-02 -4.64825E-03
    8984.835     -8.309  -0.800  7.47905E-02  8.01929E-02 -5.40240E-03
    8985.073     -8.071  -0.760  8.09825E-02  8.72573E-02 -6.27488E-03
    8985.299     -7.846  -0.720  8.79481E-02  9.52312E-02 -7.28305E-03
    8985.512     -7.632  -0.680  9.57984E-02  1.04244E-01 -8.44587E-03
    8985.713     -7.431  -0.640  1.04651E-01  1.14434E-01 -9.78313E-03
    8985.902     -7.242  -0.600  1.14621E-01  1.25935E-01 -1.13141E-02
    8986.079     -7.065  -0.560  1.25808E-01  1.38863E-01 -1.30548E-02
    8986.244     -6.901  -0.520  1.38273E-01  1.53287E-01 -1.50142E-02
    8986.396     -6.748  -0.480  1.52004E-01  1.69193E-01 -1.71889E-02
    8986.536     -6.608  -0.440  1.66884E-01  1.86440E-01 -1.95564E-02
    8986.664     -6.480  -0.400  1.82657E-01  2.04728E-01 -2.20708E-02
    8986.780     -6.364  -0.360  1.98918E-01  2.23579E-01 -2.46608E-02
    8986.884     -6.261  -0.320  2.15141E-01  2.42377E-01 -2.72357E-02
    8986.975     -6.169  -0.280  2.30739E-01  2.60436E-01 -2.96969E-02
    8987.054     -6.090  -0.240  2.45146E-01  2.77099E-01 -3.19524E-02
    8987.121     -6.023  -0.200  2.57888E-01  2.91816E-01 -3.39285E-02
    8987.176     -5.968  -0.160  2.68615E-01  3.04190E-01 -3.55743E-02
    8987.219     -5.925  -0.120  2.77105E-01  3.13965E-01 -3.68602E-02
    8987.249     -5.895  -0.080  2.83229E-01  3.21003E-01 -3.77748E-02
    8987.274     -5.870   0.000  2.88153E-01  3.26656E-01 -3.85036E-02
    8987.329     -5.816   0.120  2.99022E-01  3.39405E-01 -4.03835E-02
    8987.371     -5.773   0.160  3.07526E-01  3.49292E-01 -4.17661E-02
    8987.426     -5.718   0.200  3.18412E-01  3.61898E-01 -4.34862E-02
    8987.493     -5.651   0.240  3.31593E-01  3.77061E-01 -4.54681E-02
    8987.572     -5.572   0.280  3.46811E-01  3.94419E-01 -4.76079E-02
    8987.664     -5.480   0.320  3.63770E-01  4.13527E-01 -4.97573E-02
    8987.768     -5.377   0.360  3.82037E-01  4.33791E-01 -5.17547E-02
    8987.883     -5.261   0.400  4.01159E-01  4.54624E-01 -5.34647E-02
    8988.011     -5.133   0.440  4.20521E-01  4.75448E-01 -5.49264E-02
    8988.152     -4.993   0.480  4.39280E-01  4.95814E-01 -5.65347E-02
    8988.304     -4.840   0.520  4.56234E-01  5.15473E-01 -5.92396E-02
    8988.469     -4.676   0.560  4.69897E-01  5.34282E-01 -6.43849E-02
    8988.645     -4.499   0.600  4.79048E-01  5.52209E-01 -7.31612E-02
    8988.834     -4.310   0.640  4.83485E-01  5.69341E-01 -8.58565E-02
    8989.035     -4.109   0.680  4.84198E-01  5.85742E-01 -1.01543E-01
    8989.249     -3.895   0.720  4.83041E-01  6.01529E-01 -1.18488E-01
    8989.474     -3.670   0.760  4.82266E-01  6.16824E-01 -1.34558E-01
    8989.712     -3.432   0.800  4.84458E-01  6.31695E-01 -1.47237E-01
    8989.962     -3.182   0.840  4.92493E-01  6.46259E-01 -1.53766E-01
    8990.224     -2.920   0.880  5.08335E-01  6.60558E-01 -1.52223E-01
    8990.499     -2.646   0.920  5.31504E-01  6.74658E-01 -1.43153E-01
    8990.785     -2.359   0.960  5.58559E-01  6.88594E-01 -1.30034E-01
    8991.084     -2.060   1.000  5.85159E-01  7.02410E-01 -1.17252E-01
    8991.395     -1.750   1.040  6.09074E-01  7.16101E-01 -1.07028E-01
    8991.718     -1.426   1.080  6.31079E-01  7.29690E-01 -9.86116E-02
    8992.053     -1.091   1.120  6.52991E-01  7.43157E-01 -9.01664E-02
    8992.400     -0.744   1.160  6.76893E-01  7.56513E-01 -7.96206E-02
    8992.760     -0.384   1.200  7.07375E-01  7.69768E-01 -6.23932E-02
    8993.132     -0.012   1.240  7.50652E-01  7.82865E-01 -3.22129E-02
    8993.516      0.372   1.280  8.09435E-01  7.95823E-01  1.36124E-02
    8993.912      0.768   1.320  8.79492E-01  8.08600E-01  7.08914E-02
    8994.321      1.176   1.360  9.50113E-01  8.21193E-01  1.28921E-01
    8994.741      1.597   1.400  1.01112E+00  8.33574E-01  1.77550E-01
    8995.174      2.030   1.440  1.05909E+00  8.45697E-01  2.13391E-01
    8995.619      2.475   1.480  1.09759E+00  8.57555E-01  2.40033E-01
    8996.076      2.932   1.520  1.13940E+00  8.69118E-01  2.70280E-01
    8996.546      3.402   1.560  1.19170E+00  8.80378E-01  3.11320E-01
    8997.027      3.883   1.600  1.24234E+00  8.91307E-01  3.51035E-01
    8997.521      4.377   1.640  1.28045E+00  9.01876E-01  3.78577E-01
    8998.027      4.883   1.680  1.30396E+00  9.12078E-01  3.91878E-01
    8998.545      5.401   1.720  1.30923E+00  9.21885E-01  3.87349E-01
    8999.076      5.931   1.760  1.29178E+00  9.31268E-01  3.60511E-01
    8999.618      6.474   1.800  1.24892E+00  9.40224E-01  3.08697E-01
    9000.173      7.029   1.840  1.18492E+00  9.48746E-01  2.36172E-01
    9000.740      7.596   1.880  1.11574E+00  9.56833E-01  1.58905E-01
    9001.319      8.175   1.920  1.06423E+00  9.64460E-01  9.97695E-02
    9001.910      8.766   1.960  1.04356E+00  9.71625E-01  7.19379E-02
    9002.514      9.369   2.000  1.04650E+00  9.78329E-01  6.81744E-02
    9003.129      9.985   2.040  1.04905E+00  9.84569E-01  6.44834E-02
    9003.757     10.613   2.080  1.03578E+00  9.90328E-01  4.54554E-02
    9004.397     11.253   2.120  1.01209E+00  9.95650E-01  1.64401E-02
    9005.050     11.905   2.160  9.87457E-01  1.00052E+00 -1.30584E-02
    9005.714     12.570   2.200  9.67167E-01  1.00493E+00 -3.77632E-02
    9006.391     13.247   2.240  9.56536E-01  1.00890E+00 -5.23621E-02
    9007.080     13.935   2.280  9.58768E-01  1.01245E+00 -5.36775E-02
    9007.781     14.636   2.320  9.70298E-01  1.01560E+00 -4.53022E-02
    9008.494     15.350   2.360  9.82848E-01  1.01833E+00 -3.54794E-02
    9009.219     16.075   2.400  9.91373E-01  1.02068E+00 -2.93031E-02
    9009.957     16.813   2.440  9.97636E-01  1.02265E+00 -2.50182E-02
    9010.707     17.562   2.480  1.00207E+00  1.02429E+00 -2.22257E-02
    9011.469     18.324   2.520  1.00048E+00  1.02558E+00 -2.50916E-02
    9012.243     19.099   2.560  9.90829E-01  1.02656E+00 -3.57272E-02
    9013.029     19.885   2.600  9.78262E-01  1.02724E+00 -4.89817E-02
    9013.828     20.684   2.640  9.69539E-01  1.02765E+00 -5.81081E-02
    9014.639     21.494   2.680  9.65394E-01  1.02778E+00 -6.23822E-02
    9015.462     22.317   2.720  9.62364E-01  1.02768E+00 -6.53157E-02
    9016.297     23.152   2.760  9.59511E-01  1.02735E+00 -6.78355E-02
    9017.144     24.000   2.800  9.59759E-01  1.02681E+00 -6.70500E-02
    9018.004     24.859   2.840  9.60614E-01  1.02610E+00 -6.54828E-02
    9018.875     25.731   2.880  9.60916E-01  1.02522E+00 -6.43023E-02
    9019.759     26.615   2.920  9.60859E-01  1.02418E+00 -6.33228E-02
    9020.655     27.511   2.960  9.60332E-01  1.02302E+00 -6.26842E-02
    9021.564     28.419   3.000  9.59123E-01  1.02173E+00 -6.26071E-02
    9022.484     29.340   3.040  9.57033E-01  1.02035E+00 -6.33199E-02
    9023.417     30.273   3.080  9.54222E-01  1.01889E+00 -6.46702E-02
    9024.362     31.217   3.120  9.51437E-01  1.01736E+00 -6.59187E-02
    9025.319     32.175   3.160  9.49591E-01  1.01577E+00 -6.61804E-02
    9026.288     33.144   3.200  9.49207E-01  1.01415E+00 -6.49388E-02
    9027.269     34.125   3.240  9.50478E-01  1.01250E+00 -6.20259E-02
    9028.263     35.119   3.280  9.53366E-01  1.01083E+00 -5.74681E-02
    9029.269     36.125   3.320  9.57998E-01  1.00916E+00 -5.11622E-02
    9030.287     37.143   3.360  9.64769E-01  1.00749E+00 -4.27196E-02
    9031.317     38.173   3.400  9.74062E-01  1.00585E+00 -3.17840E-02
    9032.360     39.215   3.440  9.85802E-01  1.00424E+00 -1.84349E-02
    9033.414     40.270   3.480  9.99232E-01  1.00264E+00 -3.41167E-03
    9034.481     41.337   3.520  1.01322E+00  1.00111E+00  1.21098E-02
    9035.560     42.416   3.560  1.02656E+00  9.99624E-01  2.69354E-02
    9036.651     43.507   3.600  1.03859E+00  9.98184E-01  4.04099E-02
    9037.755     44.610   3.640  1.04933E+00  9.96816E-01  5.25116E-02
    9038.870     45.726   3.680  1.05895E+00  9.95521E-01  6.34308E-02
    9039.998     46.854   3.720  1.06733E+00  9.94283E-01  7.30506E-02
    9041.138     47.994   3.760  1.07405E+00  9.93143E-01  8.09040E-02
    9042.290     49.146   3.800  1.07835E+00  9.92063E-01  8.62893E-02
    9043.454     50.310   3.840  1.07961E+00  9.91085E-01  8.85289E-02
    9044.631     51.487   3.880  1.07742E+00  9.90168E-01  8.72516E-02
    9045.819     52.675   3.920  1.07172E+00  9.89357E-01  8.23626E-02
    9047.020     53.876   3.960  1.06267E+00  9.88653E-01  7.40156E-02
    9048.233     55.089   4.000  1.05073E+00  9.88013E-01  6.27167E-02
    9049.459     56.315   4.040  1.03699E+00  9.87477E-01  4.95171E-02
    9050.696     57.552   4.080  1.02274E+00  9.87028E-01  3.57172E-02
    9051.946     58.802   4.120  1.00923E+00  9.86664E-01  2.25620E-02
    9053.208     60.064   4.160  9.97331E-01  9.86405E-01  1.09259E-02
    9054.482     61.338   4.200  9.87393E-01  9.86229E-01  1.16479E-03
    9055.768     62.624   4.240  9.79252E-01  9.86114E-01 -6.86182E-03
    9057.067     63.922   4.280  9.72582E-01  9.86102E-01 -1.35200E-02
    9058.377     65.233   4.320  9.67016E-01  9.86171E-01 -1.91549E-02
    9059.700     66.556   4.360  9.62360E-01  9.86321E-01 -2.39610E-02
    9061.035     67.891   4.400  9.58569E-01  9.86549E-01 -2.79802E-02
    9062.382     69.238   4.440  9.55686E-01  9.86853E-01 -3.11670E-02
    9063.742     70.597   4.480  9.53774E-01  9.87209E-01 -3.34343E-02
    9065.113     71.969   4.520  9.53017E-01  9.87636E-01 -3.46186E-02
    9066.497     73.353   4.560  9.53633E-01  9.88112E-01 -3.44791E-02
    9067.893     74.749   4.600  9.55889E-01  9.88656E-01 -3.27676E-02
    9069.301     76.157   4.640  9.59890E-01  9.89244E-01 -2.93541E-02
    9070.722     77.577   4.680  9.65576E-01  9.89873E-01 -2.42968E-02
    9072.154     79.010   4.720  9.72551E-01  9.90518E-01 -1.79672E-02
    9073.599     80.455   4.760  9.80273E-01  9.91223E-01 -1.09506E-02
    9075.056     81.912   4.800  9.88032E-01  9.91963E-01 -3.93120E-03
    9076.525     83.381   4.840  9.95119E-01  9.92713E-01  2.40600E-03
    9078.006     84.862   4.880  1.00091E+00  9.93469E-01  7.44371E-03
    9079.500     86.356   4.920  1.00493E+00  9.94250E-01  1.06804E-02
    9081.005     87.861   4.960  1.00689E+00  9.95034E-01  1.18540E-02
    9082.523     89.379   5.000  1.00685E+00  9.95795E-01  1.10576E-02
    9084.053     90.909   5.040  1.00525E+00  9.96575E-01  8.67812E-03
    9085.596     92.452   5.080  1.00260E+00  9.97350E-01  5.25213E-03
    9087.150     94.006   5.120  9.99403E-01  9.98073E-01  1.32985E-03
    9088.717     95.573   5.160  9.96196E-01  9.98806E-01 -2.61018E-03
    9090.296     97.152   5.200  9.93278E-01  9.99505E-01 -6.22783E-03
    9091.887     98.743   5.240  9.90793E-01  1.00017E+00 -9.37173E-03
    9093.490    100.346   5.280  9.88639E-01  1.00076E+00 -1.21225E-02
    9095.105    101.961   5.320  9.86636E-01  1.00134E+00 -1.47039E-02
    9096.733    103.589   5.360  9.84522E-01  1.00188E+00 -1.73538E-02
    9098.373    105.229   5.400  9.82192E-01  1.00237E+00 -2.01767E-02
    9100.025    106.881   5.440  9.79732E-01  1.00279E+00 -2.30599E-02
    9101.689    108.545   5.480  9.77549E-01  1.00317E+00 -2.56159E-02
    9103.365    110.221   5.520  9.76193E-01  1.00347E+00 -2.72747E-02
    9105.054    111.910   5.560  9.76234E-01  1.00372E+00 -2.74883E-02
    9106.755    113.611   5.600  9.78044E-01  1.00393E+00 -2.58817E-02
    9108.468    115.324   5.640  9.81741E-01  1.00403E+00 -2.22909E-02
    9110.193    117.049   5.680  9.87309E-01  1.00409E+00 -1.67776E-02
    9111.930    118.786   5.720  9.94385E-01  1.00409E+00 -9.70645E-03
    9113.680    120.536   5.760  1.00227E+00  1.00402E+00 -1.74974E-03
    9115.442    122.297   5.800  1.01016E+00  1.00388E+00  6.28242E-03
    9117.216    124.071   5.840  1.01734E+00  1.00366E+00  1.36785E-02
    9119.002    125.857   5.880  1.02336E+00  1.00339E+00  1.99645E-02
    9120.800    127.656   5.920  1.02798E+00  1.00305E+00  2.49228E-02
    9122.610    129.466   5.960  1.03120E+00  1.00267E+00  2.85316E-02
    9124.433    131.289   6.000  1.03315E+00  1.00216E+00  3.09880E-02
