# # comment:                                                     FEFF 9.9.1  
# # Source:
# # Structure
# # Reduced
# # space
# # abc:
# # angles:
# # sites:
# # POT  SCF 100  7.0000   0, screened core-hole, AFOLP (folp(0)= 1.150)
# # Abs   Z=29 Rmt= 1.239 Rnm= 1.308 K  shell
# # Pot 1 Z=56 Rmt= 2.084 Rnm= 2.145
# # Pot 2 Z=29 Rmt= 1.239 Rnm= 1.309
# # Pot 3 Z= 6 Rmt= 0.726 Rnm= 0.946
# # Pot 4 Z= 8 Rmt= 0.886 Rnm= 1.017
# # Gam_ch=1.729E+00 H-L exch Vi= 0.000E+00 Vr= 0.000E+00
# # Mu=-9.052E+00eV kf=2.587E+00 Vint=-1.947E+01eV Rs_int= 1.402
# FMS rfms= 9.0000
# # PATH  Rmax=-1.000,  Keep_limit= 0.00, Heap_limit 0.00  Pwcrit= 2.50%
#  S02=0.950  Temp=   0.00  Debye_temp=   0.00  Global_sig2= 0.00000
#  Energy zero shift, vr, vi    0.00000E+00   0.00000E+00
#  Curved wave amplitude ratio filter   4.000%
#     file         sig2 tot  cw amp ratio   deg  nlegs   reff  inp sig2
#     0/   0 paths used
#  xsedge+ 50, used to normalize mu           2.5349E-04
#  -----------------------------------------------------------------------
#  omega    e    k    mu    mu0     chi     @#
    8983.333    -12.862  -1.000  3.34654E-02  4.52964E-02 -1.18309E-02
    8983.632    -12.563  -0.960  3.52458E-02  4.84162E-02 -1.31704E-02
    8983.918    -12.277  -0.920  3.71743E-02  5.18736E-02 -1.46992E-02
    8984.193    -12.002  -0.880  3.92690E-02  5.57179E-02 -1.64490E-02
    8984.455    -11.740  -0.840  4.15501E-02  6.00066E-02 -1.84565E-02
    8984.705    -11.490  -0.800  4.40412E-02  6.48063E-02 -2.07651E-02
    8984.942    -11.253  -0.760  4.67683E-02  7.01934E-02 -2.34251E-02
    8985.168    -11.027  -0.720  4.97604E-02  7.62542E-02 -2.64938E-02
    8985.381    -10.814  -0.680  5.30489E-02  8.30839E-02 -3.00350E-02
    8985.583    -10.613  -0.640  5.66657E-02  9.07828E-02 -3.41171E-02
    8985.772    -10.424  -0.600  6.06413E-02  9.94494E-02 -3.88081E-02
    8985.948    -10.247  -0.560  6.50000E-02  1.09168E-01 -4.41677E-02
    8986.113    -10.082  -0.520  6.97536E-02  1.19987E-01 -5.02337E-02
    8986.265     -9.930  -0.480  7.48921E-02  1.31897E-01 -5.70045E-02
    8986.406     -9.790  -0.440  8.03736E-02  1.44791E-01 -6.44174E-02
    8986.534     -9.662  -0.400  8.61154E-02  1.58447E-01 -7.23313E-02
    8986.649     -9.546  -0.360  9.19901E-02  1.72512E-01 -8.05220E-02
    8986.753     -9.442  -0.320  9.78329E-02  1.86531E-01 -8.86985E-02
    8986.844     -9.351  -0.280  1.03457E-01  1.99998E-01 -9.65406E-02
    8986.924     -9.271  -0.240  1.08678E-01  2.12425E-01 -1.03747E-01
    8986.991     -9.204  -0.200  1.13330E-01  2.23404E-01 -1.10074E-01
    8987.046     -9.150  -0.160  1.17285E-01  2.32639E-01 -1.15355E-01
    8987.088     -9.107  -0.120  1.20447E-01  2.39939E-01 -1.19492E-01
    8987.119     -9.076  -0.080  1.22755E-01  2.45197E-01 -1.22442E-01
    8987.143     -9.052   0.000  1.24650E-01  2.49423E-01 -1.24773E-01
    8987.198     -8.997   0.120  1.28874E-01  2.58951E-01 -1.30077E-01
    8987.241     -8.954   0.160  1.32155E-01  2.66346E-01 -1.34190E-01
    8987.296     -8.900   0.200  1.36397E-01  2.75795E-01 -1.39398E-01
    8987.363     -8.833   0.240  1.41583E-01  2.87171E-01 -1.45588E-01
    8987.442     -8.753   0.280  1.47653E-01  3.00223E-01 -1.52570E-01
    8987.533     -8.662   0.320  1.54594E-01  3.14641E-01 -1.60046E-01
    8987.637     -8.558   0.360  1.62281E-01  3.29989E-01 -1.67708E-01
    8987.753     -8.442   0.400  1.70637E-01  3.45829E-01 -1.75192E-01
    8987.881     -8.314   0.440  1.79624E-01  3.61782E-01 -1.82158E-01
    8988.021     -8.174   0.480  1.89228E-01  3.77520E-01 -1.88292E-01
    8988.173     -8.022   0.520  1.99475E-01  3.92829E-01 -1.93354E-01
    8988.338     -7.857   0.560  2.10588E-01  4.07663E-01 -1.97075E-01
    8988.515     -7.680   0.600  2.22804E-01  4.21999E-01 -1.99195E-01
    8988.704     -7.491   0.640  2.36376E-01  4.35868E-01 -1.99492E-01
    8988.905     -7.290   0.680  2.51410E-01  4.49348E-01 -1.97938E-01
    8989.118     -7.077   0.720  2.67528E-01  4.62530E-01 -1.95002E-01
    8989.344     -6.851   0.760  2.83810E-01  4.75505E-01 -1.91695E-01
    8989.582     -6.614   0.800  2.99391E-01  4.88353E-01 -1.88962E-01
    8989.831     -6.364   0.840  3.14001E-01  5.01130E-01 -1.87129E-01
    8990.094     -6.102   0.880  3.27752E-01  5.13900E-01 -1.86148E-01
    8990.368     -5.827   0.920  3.40660E-01  5.26711E-01 -1.86052E-01
    8990.654     -5.541   0.960  3.52887E-01  5.39590E-01 -1.86702E-01
    8990.953     -5.242   1.000  3.65372E-01  5.52550E-01 -1.87178E-01
    8991.264     -4.931   1.040  3.79478E-01  5.65638E-01 -1.86160E-01
    8991.587     -4.608   1.080  3.95663E-01  5.78837E-01 -1.83174E-01
    8991.922     -4.273   1.120  4.12904E-01  5.92181E-01 -1.79276E-01
    8992.270     -3.925   1.160  4.28805E-01  6.05661E-01 -1.76855E-01
    8992.630     -3.566   1.200  4.40320E-01  6.19264E-01 -1.78943E-01
    8993.001     -3.194   1.240  4.45334E-01  6.32974E-01 -1.87640E-01
    8993.385     -2.810   1.280  4.45513E-01  6.46791E-01 -2.01278E-01
    8993.782     -2.413   1.320  4.46441E-01  6.60694E-01 -2.14253E-01
    8994.190     -2.005   1.360  4.52835E-01  6.74658E-01 -2.21824E-01
    8994.611     -1.584   1.400  4.65327E-01  6.88697E-01 -2.23370E-01
    8995.044     -1.152   1.440  4.82772E-01  7.02744E-01 -2.19972E-01
    8995.489     -0.707   1.480  5.04535E-01  7.16790E-01 -2.12255E-01
    8995.946     -0.249   1.520  5.30261E-01  7.30824E-01 -2.00563E-01
    8996.415      0.220   1.560  5.60691E-01  7.44815E-01 -1.84123E-01
    8996.897      0.702   1.600  5.99952E-01  7.58710E-01 -1.58758E-01
    8997.390      1.195   1.640  6.51849E-01  7.72497E-01 -1.20648E-01
    8997.896      1.701   1.680  7.11338E-01  7.86143E-01 -7.48049E-02
    8998.415      2.219   1.720  7.65045E-01  7.99613E-01 -3.45674E-02
    8998.945      2.750   1.760  8.03663E-01  8.12894E-01 -9.23085E-03
    8999.487      3.292   1.800  8.28978E-01  8.25933E-01  3.04480E-03
    9000.042      3.847   1.840  8.49030E-01  8.38716E-01  1.03138E-02
    9000.609      4.414   1.880  8.74354E-01  8.51210E-01  2.31437E-02
    9001.188      4.993   1.920  9.15285E-01  8.63401E-01  5.18838E-02
    9001.780      5.584   1.960  9.75305E-01  8.75235E-01  1.00070E-01
    9002.383      6.188   2.000  1.05136E+00  8.86702E-01  1.64657E-01
    9002.999      6.804   2.040  1.13497E+00  8.97770E-01  2.37198E-01
    9003.627      7.432   2.080  1.20851E+00  9.08427E-01  3.00080E-01
    9004.267      8.072   2.120  1.24911E+00  9.18645E-01  3.30465E-01
    9004.919      8.724   2.160  1.24572E+00  9.28415E-01  3.17309E-01
    9005.583      9.388   2.200  1.20968E+00  9.37689E-01  2.71992E-01
    9006.260     10.065   2.240  1.16474E+00  9.46500E-01  2.18236E-01
    9006.949     10.754   2.280  1.13010E+00  9.54823E-01  1.75277E-01
    9007.650     11.455   2.320  1.11549E+00  9.62635E-01  1.52857E-01
    9008.363     12.168   2.360  1.12329E+00  9.69932E-01  1.53354E-01
    9009.089     12.894   2.400  1.14556E+00  9.76710E-01  1.68846E-01
    9009.826     13.631   2.440  1.16614E+00  9.82970E-01  1.83167E-01
    9010.576     14.381   2.480  1.16984E+00  9.88712E-01  1.81130E-01
    9011.338     15.143   2.520  1.15850E+00  9.93937E-01  1.64560E-01
    9012.112     15.917   2.560  1.14576E+00  9.98650E-01  1.47106E-01
    9012.899     16.703   2.600  1.13985E+00  1.00287E+00  1.36977E-01
    9013.697     17.502   2.640  1.14153E+00  1.00659E+00  1.34938E-01
    9014.508     18.313   2.680  1.14753E+00  1.00985E+00  1.37672E-01
    9015.331     19.136   2.720  1.15030E+00  1.01262E+00  1.37674E-01
    9016.166     19.971   2.760  1.14189E+00  1.01497E+00  1.26921E-01
    9017.013     20.818   2.800  1.12233E+00  1.01686E+00  1.05478E-01
    9017.873     21.678   2.840  1.10096E+00  1.01834E+00  8.26250E-02
    9018.745     22.550   2.880  1.08428E+00  1.01942E+00  6.48629E-02
    9019.629     23.433   2.920  1.06875E+00  1.02011E+00  4.86421E-02
    9020.525     24.330   2.960  1.04847E+00  1.02044E+00  2.80318E-02
    9021.433     25.238   3.000  1.02149E+00  1.02045E+00  1.03735E-03
    9022.353     26.158   3.040  9.91166E-01  1.02014E+00 -2.89719E-02
    9023.286     27.091   3.080  9.61597E-01  1.01954E+00 -5.79448E-02
    9024.231     28.036   3.120  9.35392E-01  1.01865E+00 -8.32565E-02
    9025.188     28.993   3.160  9.13178E-01  1.01753E+00 -1.04352E-01
    9026.157     29.962   3.200  8.94317E-01  1.01616E+00 -1.21841E-01
    9027.139     30.944   3.240  8.78202E-01  1.01460E+00 -1.36402E-01
    9028.132     31.937   3.280  8.64773E-01  1.01286E+00 -1.48085E-01
    9029.138     32.943   3.320  8.53831E-01  1.01095E+00 -1.57118E-01
    9030.156     33.961   3.360  8.45215E-01  1.00889E+00 -1.63672E-01
    9031.187     34.991   3.400  8.38970E-01  1.00670E+00 -1.67734E-01
    9032.229     36.034   3.440  8.35136E-01  1.00443E+00 -1.69292E-01
    9033.284     37.088   3.480  8.33736E-01  1.00205E+00 -1.68312E-01
    9034.350     38.155   3.520  8.35063E-01  9.99615E-01 -1.64552E-01
    9035.429     39.234   3.560  8.39408E-01  9.97137E-01 -1.57729E-01
    9036.521     40.325   3.600  8.46633E-01  9.94620E-01 -1.47987E-01
    9037.624     41.429   3.640  8.56791E-01  9.92071E-01 -1.35281E-01
    9038.739     42.544   3.680  8.69847E-01  9.89519E-01 -1.19672E-01
    9039.867     43.672   3.720  8.85597E-01  9.86991E-01 -1.01394E-01
    9041.007     44.812   3.760  9.03689E-01  9.84473E-01 -8.07836E-02
    9042.159     45.964   3.800  9.23662E-01  9.81990E-01 -5.83272E-02
    9043.324     47.129   3.840  9.44682E-01  9.79549E-01 -3.48669E-02
    9044.500     48.305   3.880  9.65578E-01  9.77174E-01 -1.15956E-02
    9045.689     49.494   3.920  9.85118E-01  9.74850E-01  1.02680E-02
    9046.890     50.695   3.960  1.00211E+00  9.72602E-01  2.95085E-02
    9048.103     51.908   4.000  1.01571E+00  9.70453E-01  4.52605E-02
    9049.328     53.133   4.040  1.02553E+00  9.68367E-01  5.71666E-02
    9050.566     54.371   4.080  1.03171E+00  9.66389E-01  6.53226E-02
    9051.815     55.620   4.120  1.03459E+00  9.64521E-01  7.00700E-02
    9053.077     56.882   4.160  1.03482E+00  9.62766E-01  7.20573E-02
    9054.351     58.156   4.200  1.03314E+00  9.61103E-01  7.20363E-02
    9055.638     59.442   4.240  1.03035E+00  9.59554E-01  7.07989E-02
    9056.936     60.741   4.280  1.02725E+00  9.58125E-01  6.91208E-02
    9058.247     62.051   4.320  1.02439E+00  9.56835E-01  6.75564E-02
    9059.569     63.374   4.360  1.02193E+00  9.55643E-01  6.62842E-02
    9060.904     64.709   4.400  1.01970E+00  9.54592E-01  6.51095E-02
    9062.252     66.057   4.440  1.01728E+00  9.53640E-01  6.36354E-02
    9063.611     67.416   4.480  1.01427E+00  9.52829E-01  6.14433E-02
    9064.983     68.787   4.520  1.01048E+00  9.52138E-01  5.83459E-02
    9066.366     70.171   4.560  1.00608E+00  9.51569E-01  5.45161E-02
    9067.762     71.567   4.600  1.00147E+00  9.51140E-01  5.03251E-02
    9069.171     72.975   4.640  9.97023E-01  9.50808E-01  4.62153E-02
    9070.591     74.396   4.680  9.93161E-01  9.50592E-01  4.25695E-02
    9072.023     75.828   4.720  9.90115E-01  9.50493E-01  3.96228E-02
    9073.468     77.273   4.760  9.87937E-01  9.50508E-01  3.74287E-02
    9074.925     78.730   4.800  9.86507E-01  9.50638E-01  3.58699E-02
    9076.394     80.199   4.840  9.85509E-01  9.50878E-01  3.46308E-02
    9077.876     81.680   4.880  9.84386E-01  9.51185E-01  3.32011E-02
    9079.369     83.174   4.920  9.82574E-01  9.51619E-01  3.09548E-02
    9080.875     84.680   4.960  9.79387E-01  9.52116E-01  2.72705E-02
    9082.393     86.198   5.000  9.74452E-01  9.52714E-01  2.17376E-02
    9083.923     87.728   5.040  9.67726E-01  9.53392E-01  1.43345E-02
    9085.465     89.270   5.080  9.59548E-01  9.54124E-01  5.42374E-03
    9087.020     90.824   5.120  9.50641E-01  9.54949E-01 -4.30764E-03
    9088.586     92.391   5.160  9.41740E-01  9.55803E-01 -1.40631E-02
    9090.165     93.970   5.200  9.33609E-01  9.56744E-01 -2.31346E-02
    9091.756     95.561   5.240  9.26645E-01  9.57705E-01 -3.10596E-02
    9093.359     97.164   5.280  9.21101E-01  9.58704E-01 -3.76034E-02
    9094.975     98.780   5.320  9.17047E-01  9.59739E-01 -4.26920E-02
    9096.602    100.407   5.360  9.14487E-01  9.60806E-01 -4.63191E-02
    9098.242    102.047   5.400  9.13335E-01  9.61880E-01 -4.85446E-02
    9099.894    103.699   5.440  9.13528E-01  9.62958E-01 -4.94300E-02
    9101.558    105.363   5.480  9.14993E-01  9.64036E-01 -4.90428E-02
    9103.235    107.040   5.520  9.17690E-01  9.65134E-01 -4.74446E-02
    9104.923    108.728   5.560  9.21500E-01  9.66206E-01 -4.47059E-02
    9106.624    110.429   5.600  9.26366E-01  9.67245E-01 -4.08785E-02
    9108.337    112.142   5.640  9.32176E-01  9.68271E-01 -3.60946E-02
    9110.062    113.867   5.680  9.38621E-01  9.69258E-01 -3.06370E-02
    9111.800    115.605   5.720  9.45199E-01  9.70183E-01 -2.49833E-02
    9113.549    117.354   5.760  9.51373E-01  9.71086E-01 -1.97129E-02
    9115.311    119.116   5.800  9.56544E-01  9.71922E-01 -1.53773E-02
    9117.085    120.890   5.840  9.60400E-01  9.72709E-01 -1.23098E-02
    9118.871    122.676   5.880  9.62900E-01  9.73443E-01 -1.05438E-02
    9120.669    124.474   5.920  9.64248E-01  9.74071E-01 -9.82287E-03
    9122.480    126.285   5.960  9.64906E-01  9.74622E-01 -9.71579E-03
    9124.303    128.107   6.000  9.65317E-01  9.75053E-01 -9.73576E-03
