# # comment:                                                     FEFF 9.9.1  
# # Source:
# # Structure
# # Reduced
# # space
# # abc:
# # angles:
# # sites:
# # POT  SCF 100  7.0000   0, screened core-hole, AFOLP (folp(0)= 1.150)
# # Abs   Z=29 Rmt= 1.243 Rnm= 1.306 K  shell
# # Pot 1 Z=56 Rmt= 1.928 Rnm= 1.987
# # Pot 2 Z=67 Rmt= 1.574 Rnm= 1.650
# # Pot 3 Z=29 Rmt= 1.244 Rnm= 1.308
# # Pot 4 Z= 8 Rmt= 1.055 Rnm= 1.108
# # Gam_ch=1.729E+00 H-L exch Vi= 0.000E+00 Vr= 0.000E+00
# # Mu=-7.942E+00eV kf=2.007E+00 Vint=-1.798E+01eV Rs_int= 1.807
# FMS rfms= 9.0000
# # PATH  Rmax=-1.000,  Keep_limit= 0.00, Heap_limit 0.00  Pwcrit= 2.50%
#  S02=0.950  Temp=   0.00  Debye_temp=   0.00  Global_sig2= 0.00000
#  Energy zero shift, vr, vi    0.00000E+00   0.00000E+00
#  Curved wave amplitude ratio filter   4.000%
#     file         sig2 tot  cw amp ratio   deg  nlegs   reff  inp sig2
#     0/   0 paths used
#  xsedge+ 50, used to normalize mu           2.4471E-04
#  -----------------------------------------------------------------------
#  omega    e    k    mu    mu0     chi     @#
    8985.219    -11.752  -1.000  4.62751E-02  5.96178E-02 -1.33426E-02
    8985.518    -11.454  -0.960  4.90650E-02  6.41404E-02 -1.50754E-02
    8985.804    -11.167  -0.920  5.21136E-02  6.91826E-02 -1.70690E-02
    8986.078    -10.893  -0.880  5.54562E-02  7.48225E-02 -1.93662E-02
    8986.341    -10.631  -0.840  5.91338E-02  8.11509E-02 -2.20171E-02
    8986.590    -10.381  -0.800  6.31938E-02  8.82733E-02 -2.50795E-02
    8986.828    -10.143  -0.760  6.76909E-02  9.63109E-02 -2.86201E-02
    8987.054     -9.918  -0.720  7.26870E-02  1.05401E-01 -3.27141E-02
    8987.267     -9.704  -0.680  7.82506E-02  1.15695E-01 -3.74445E-02
    8987.468     -9.503  -0.640  8.44537E-02  1.27353E-01 -4.28994E-02
    8987.657     -9.314  -0.600  9.13670E-02  1.40533E-01 -4.91656E-02
    8987.834     -9.137  -0.560  9.90501E-02  1.55369E-01 -5.63188E-02
    8987.999     -8.973  -0.520  1.07536E-01  1.71943E-01 -6.44072E-02
    8988.151     -8.820  -0.480  1.16811E-01  1.90240E-01 -7.34294E-02
    8988.291     -8.680  -0.440  1.26790E-01  2.10099E-01 -8.33091E-02
    8988.419     -8.552  -0.400  1.37297E-01  2.31169E-01 -9.38725E-02
    8988.535     -8.436  -0.360  1.48059E-01  2.52901E-01 -1.04842E-01
    8988.639     -8.333  -0.320  1.58726E-01  2.74577E-01 -1.15851E-01
    8988.730     -8.241  -0.280  1.68915E-01  2.95405E-01 -1.26490E-01
    8988.809     -8.162  -0.240  1.78262E-01  3.14622E-01 -1.36359E-01
    8988.876     -8.095  -0.200  1.86474E-01  3.31593E-01 -1.45119E-01
    8988.931     -8.040  -0.160  1.93345E-01  3.45858E-01 -1.52513E-01
    8988.974     -7.997  -0.120  1.98752E-01  3.57125E-01 -1.58373E-01
    8989.004     -7.967  -0.080  2.02633E-01  3.65235E-01 -1.62602E-01
    8989.029     -7.942   0.000  2.05733E-01  3.71746E-01 -1.66013E-01
    8989.084     -7.888   0.120  2.12590E-01  3.86417E-01 -1.73827E-01
    8989.126     -7.845   0.160  2.17916E-01  3.97803E-01 -1.79887E-01
    8989.181     -7.790   0.200  2.24681E-01  4.12310E-01 -1.87629E-01
    8989.248     -7.723   0.240  2.32794E-01  4.29744E-01 -1.96950E-01
    8989.328     -7.644   0.280  2.42035E-01  4.49683E-01 -2.07648E-01
    8989.419     -7.552   0.320  2.52184E-01  4.71584E-01 -2.19400E-01
    8989.523     -7.449   0.360  2.63021E-01  4.94794E-01 -2.31774E-01
    8989.638     -7.333   0.400  2.74273E-01  5.18559E-01 -2.44286E-01
    8989.766     -7.205   0.440  2.85816E-01  5.42227E-01 -2.56411E-01
    8989.907     -7.065   0.480  2.97579E-01  5.65272E-01 -2.67693E-01
    8990.059     -6.912   0.520  3.09628E-01  5.87374E-01 -2.77747E-01
    8990.224     -6.748   0.560  3.22062E-01  6.08364E-01 -2.86302E-01
    8990.400     -6.571   0.600  3.35019E-01  6.28183E-01 -2.93165E-01
    8990.589     -6.382   0.640  3.48617E-01  6.46943E-01 -2.98326E-01
    8990.791     -6.181   0.680  3.62629E-01  6.64679E-01 -3.02050E-01
    8991.004     -5.967   0.720  3.76815E-01  6.81544E-01 -3.04729E-01
    8991.230     -5.742   0.760  3.91015E-01  6.97651E-01 -3.06636E-01
    8991.467     -5.504   0.800  4.05452E-01  7.13083E-01 -3.07632E-01
    8991.717     -5.254   0.840  4.21125E-01  7.27947E-01 -3.06822E-01
    8991.979     -4.992   0.880  4.39735E-01  7.42311E-01 -3.02577E-01
    8992.254     -4.718   0.920  4.62724E-01  7.56213E-01 -2.93489E-01
    8992.540     -4.431   0.960  4.89673E-01  7.69712E-01 -2.80039E-01
    8992.839     -4.132   1.000  5.17672E-01  7.82815E-01 -2.65144E-01
    8993.150     -3.822   1.040  5.43370E-01  7.95541E-01 -2.52171E-01
    8993.473     -3.498   1.080  5.65927E-01  8.07918E-01 -2.41991E-01
    8993.808     -3.163   1.120  5.87978E-01  8.19950E-01 -2.31972E-01
    8994.156     -2.816   1.160  6.12634E-01  8.31611E-01 -2.18976E-01
    8994.515     -2.456   1.200  6.38579E-01  8.42913E-01 -2.04335E-01
    8994.887     -2.084   1.240  6.60320E-01  8.53846E-01 -1.93526E-01
    8995.271     -1.700   1.280  6.76188E-01  8.64395E-01 -1.88207E-01
    8995.667     -1.304   1.320  6.94937E-01  8.74564E-01 -1.79627E-01
    8996.076     -0.895   1.360  7.29334E-01  8.84337E-01 -1.55002E-01
    8996.496     -0.475   1.400  7.82633E-01  8.93693E-01 -1.11060E-01
    8996.929     -0.042   1.440  8.51197E-01  9.02616E-01 -5.14189E-02
    8997.374      0.403   1.480  9.42760E-01  9.11146E-01  3.16131E-02
    8997.831      0.860   1.520  1.07174E+00  9.19226E-01  1.52517E-01
    8998.301      1.330   1.560  1.23481E+00  9.26876E-01  3.07932E-01
    8998.782      1.811   1.600  1.39838E+00  9.34099E-01  4.64277E-01
    8999.276      2.305   1.640  1.52823E+00  9.40879E-01  5.87350E-01
    8999.782      2.811   1.680  1.61139E+00  9.47241E-01  6.64150E-01
    9000.300      3.329   1.720  1.63302E+00  9.53167E-01  6.79853E-01
    9000.831      3.859   1.760  1.60556E+00  9.58661E-01  6.46895E-01
    9001.373      4.402   1.800  1.57225E+00  9.63773E-01  6.08482E-01
    9001.928      4.957   1.840  1.53828E+00  9.68467E-01  5.69809E-01
    9002.495      5.524   1.880  1.48534E+00  9.72770E-01  5.12573E-01
    9003.074      6.103   1.920  1.41197E+00  9.76711E-01  4.35257E-01
    9003.665      6.694   1.960  1.32705E+00  9.80277E-01  3.46770E-01
    9004.269      7.298   2.000  1.23917E+00  9.83495E-01  2.55679E-01
    9004.885      7.913   2.040  1.15613E+00  9.86375E-01  1.69753E-01
    9005.512      8.541   2.080  1.08903E+00  9.88948E-01  1.00081E-01
    9006.152      9.181   2.120  1.04545E+00  9.91220E-01  5.42332E-02
    9006.805      9.833   2.160  1.02038E+00  9.93201E-01  2.71749E-02
    9007.469     10.498   2.200  1.00628E+00  9.94922E-01  1.13552E-02
    9008.146     11.175   2.240  9.97088E-01  9.96391E-01  6.97540E-04
    9008.835     11.863   2.280  9.85626E-01  9.97637E-01 -1.20111E-02
    9009.536     12.564   2.320  9.67080E-01  9.98670E-01 -3.15901E-02
    9010.249     13.278   2.360  9.48071E-01  9.99498E-01 -5.14272E-02
    9010.974     14.003   2.400  9.39019E-01  1.00015E+00 -6.11328E-02
    9011.712     14.741   2.440  9.46339E-01  1.00064E+00 -5.42981E-02
    9012.462     15.490   2.480  9.55415E-01  1.00098E+00 -4.55689E-02
    9013.224     16.252   2.520  9.59715E-01  1.00118E+00 -4.14642E-02
    9013.998     17.027   2.560  9.59100E-01  1.00127E+00 -4.21702E-02
    9014.784     17.813   2.600  9.55322E-01  1.00125E+00 -4.59242E-02
    9015.583     18.612   2.640  9.49618E-01  1.00113E+00 -5.15144E-02
    9016.394     19.422   2.680  9.42694E-01  1.00096E+00 -5.82646E-02
    9017.217     20.245   2.720  9.35305E-01  1.00071E+00 -6.54020E-02
    9018.052     21.080   2.760  9.27816E-01  1.00039E+00 -7.25701E-02
    9018.899     21.928   2.800  9.20633E-01  1.00004E+00 -7.94086E-02
    9019.759     22.787   2.840  9.14446E-01  9.99659E-01 -8.52130E-02
    9020.630     23.659   2.880  9.09494E-01  9.99261E-01 -8.97665E-02
    9021.514     24.543   2.920  9.05395E-01  9.98833E-01 -9.34380E-02
    9022.410     25.439   2.960  9.01605E-01  9.98399E-01 -9.67943E-02
    9023.319     26.347   3.000  8.97614E-01  9.97963E-01 -1.00349E-01
    9024.239     27.268   3.040  8.93291E-01  9.97528E-01 -1.04237E-01
    9025.172     28.201   3.080  8.89050E-01  9.97119E-01 -1.08070E-01
    9026.117     29.145   3.120  8.85710E-01  9.96720E-01 -1.11009E-01
    9027.074     30.103   3.160  8.83825E-01  9.96351E-01 -1.12526E-01
    9028.043     31.072   3.200  8.83946E-01  9.96017E-01 -1.12071E-01
    9029.025     32.053   3.240  8.86324E-01  9.95718E-01 -1.09394E-01
    9030.018     33.047   3.280  8.90778E-01  9.95434E-01 -1.04656E-01
    9031.024     34.053   3.320  8.97109E-01  9.95189E-01 -9.80802E-02
    9032.042     35.071   3.360  9.05217E-01  9.95005E-01 -8.97883E-02
    9033.072     36.101   3.400  9.14994E-01  9.94861E-01 -7.98666E-02
    9034.115     37.143   3.440  9.26088E-01  9.94736E-01 -6.86485E-02
    9035.169     38.198   3.480  9.38331E-01  9.94676E-01 -5.63451E-02
    9036.236     39.265   3.520  9.51502E-01  9.94657E-01 -4.31556E-02
    9037.315     40.344   3.560  9.65468E-01  9.94682E-01 -2.92144E-02
    9038.406     41.435   3.600  9.80264E-01  9.94770E-01 -1.45065E-02
    9039.510     42.538   3.640  9.96005E-01  9.94881E-01  1.12442E-03
    9040.625     43.654   3.680  1.01280E+00  9.95054E-01  1.77466E-02
    9041.753     44.782   3.720  1.03042E+00  9.95269E-01  3.51548E-02
    9042.893     45.922   3.760  1.04839E+00  9.95525E-01  5.28674E-02
    9044.045     47.074   3.800  1.06573E+00  9.95822E-01  6.99120E-02
    9045.209     48.238   3.840  1.08090E+00  9.96159E-01  8.47398E-02
    9046.386     49.415   3.880  1.09245E+00  9.96534E-01  9.59158E-02
    9047.575     50.603   3.920  1.09926E+00  9.96947E-01  1.02312E-01
    9048.776     51.804   3.960  1.10078E+00  9.97395E-01  1.03384E-01
    9049.989     53.017   4.000  1.09727E+00  9.97856E-01  9.94097E-02
    9051.214     54.243   4.040  1.08985E+00  9.98351E-01  9.15008E-02
    9052.451     55.480   4.080  1.08022E+00  9.98880E-01  8.13443E-02
    9053.701     56.730   4.120  1.07028E+00  9.99442E-01  7.08401E-02
    9054.963     57.992   4.160  1.06169E+00  1.00001E+00  6.16821E-02
    9056.237     59.266   4.200  1.05530E+00  1.00058E+00  5.47173E-02
    9057.523     60.552   4.240  1.05105E+00  1.00116E+00  4.98910E-02
    9058.822     61.850   4.280  1.04823E+00  1.00176E+00  4.64715E-02
    9060.132     63.161   4.320  1.04577E+00  1.00237E+00  4.33993E-02
    9061.455     64.484   4.360  1.04268E+00  1.00297E+00  3.97069E-02
    9062.790     65.819   4.400  1.03848E+00  1.00358E+00  3.49008E-02
    9064.137     67.166   4.440  1.03326E+00  1.00418E+00  2.90805E-02
    9065.497     68.525   4.480  1.02750E+00  1.00477E+00  2.27304E-02
    9066.868     69.897   4.520  1.02181E+00  1.00534E+00  1.64635E-02
    9068.252     71.281   4.560  1.01672E+00  1.00593E+00  1.07887E-02
    9069.648     72.677   4.600  1.01245E+00  1.00646E+00  5.98947E-03
    9071.056     74.085   4.640  1.00911E+00  1.00700E+00  2.11221E-03
    9072.477     75.505   4.680  1.00652E+00  1.00749E+00 -9.65625E-04
    9073.909     76.938   4.720  1.00452E+00  1.00799E+00 -3.47314E-03
    9075.354     78.383   4.760  1.00278E+00  1.00843E+00 -5.64920E-03
    9076.811     79.840   4.800  1.00113E+00  1.00885E+00 -7.72471E-03
    9078.280     81.309   4.840  9.99224E-01  1.00924E+00 -1.00178E-02
    9079.761     82.790   4.880  9.96626E-01  1.00959E+00 -1.29644E-02
    9081.255     84.284   4.920  9.92844E-01  1.00990E+00 -1.70563E-02
    9082.761     85.789   4.960  9.87586E-01  1.01019E+00 -2.26074E-02
    9084.278     87.307   5.000  9.80923E-01  1.01042E+00 -2.95002E-02
    9085.809     88.837   5.040  9.73481E-01  1.01063E+00 -3.71518E-02
    9087.351     90.380   5.080  9.66108E-01  1.01078E+00 -4.46724E-02
    9088.905     91.934   5.120  9.59815E-01  1.01091E+00 -5.10920E-02
    9090.472     93.501   5.160  9.55403E-01  1.01097E+00 -5.55663E-02
    9092.051     95.080   5.200  9.53546E-01  1.01099E+00 -5.74432E-02
    9093.642     96.671   5.240  9.54607E-01  1.01099E+00 -5.63818E-02
    9095.245     98.274   5.280  9.58541E-01  1.01092E+00 -5.23836E-02
    9096.861     99.889   5.320  9.64993E-01  1.01082E+00 -4.58264E-02
    9098.488    101.517   5.360  9.73268E-01  1.01069E+00 -3.74265E-02
    9100.128    103.157   5.400  9.82359E-01  1.01051E+00 -2.81498E-02
    9101.780    104.809   5.440  9.91288E-01  1.01030E+00 -1.90159E-02
    9103.444    106.473   5.480  9.99145E-01  1.01003E+00 -1.08898E-02
    9105.121    108.149   5.520  1.00536E+00  1.00975E+00 -4.38436E-03
    9106.809    109.838   5.560  1.00951E+00  1.00940E+00  1.10489E-04
    9108.510    111.539   5.600  1.01142E+00  1.00904E+00  2.38685E-03
    9110.223    113.252   5.640  1.01095E+00  1.00864E+00  2.31110E-03
    9111.948    114.977   5.680  1.00820E+00  1.00820E+00  3.10260E-06
    9113.685    116.714   5.720  1.00374E+00  1.00775E+00 -4.01570E-03
    9115.435    118.464   5.760  9.98527E-01  1.00727E+00 -8.74776E-03
    9117.197    120.225   5.800  9.93866E-01  1.00676E+00 -1.28945E-02
    9118.971    121.999   5.840  9.90995E-01  1.00624E+00 -1.52447E-02
    9120.757    123.785   5.880  9.90604E-01  1.00569E+00 -1.50875E-02
    9122.555    125.584   5.920  9.92795E-01  1.00514E+00 -1.23466E-02
    9124.366    127.394   5.960  9.97125E-01  1.00457E+00 -7.44794E-03
    9126.188    129.217   6.000  1.00319E+00  1.00399E+00 -7.97045E-04
