# # comment:                                                     FEFF 9.9.1  
# # Source:
# # Structure
# # Reduced
# # space
# # abc:
# # angles:
# # sites:
# # POT  SCF 100  7.0000   0, screened core-hole, AFOLP (folp(0)= 1.150)
# # Abs   Z=29 Rmt= 1.093 Rnm= 1.208 K  shell
# # Pot 1 Z=56 Rmt= 1.973 Rnm= 2.048
# # Pot 2 Z=29 Rmt= 1.093 Rnm= 1.208
# # Pot 3 Z= 8 Rmt= 1.108 Rnm= 1.160
# # Gam_ch=1.729E+00 H-L exch Vi= 0.000E+00 Vr= 0.000E+00
# # Mu=-1.047E+01eV kf=1.872E+00 Vint=-1.521E+01eV Rs_int= 1.937
# FMS rfms= 9.0000
# # PATH  Rmax=-1.000,  Keep_limit= 0.00, Heap_limit 0.00  Pwcrit= 2.50%
#  S02=0.950  Temp=   0.00  Debye_temp=   0.00  Global_sig2= 0.00000
#  Energy zero shift, vr, vi    0.00000E+00   0.00000E+00
#  Curved wave amplitude ratio filter   4.000%
#     file         sig2 tot  cw amp ratio   deg  nlegs   reff  inp sig2
#     0/   0 paths used
#  xsedge+ 50, used to normalize mu           2.4275E-04
#  -----------------------------------------------------------------------
#  omega    e    k    mu    mu0     chi     @#
    8984.735    -14.279  -1.000  2.55568E-02  5.16950E-02 -2.61382E-02
    8985.033    -13.981  -0.960  2.64959E-02  5.51257E-02 -2.86298E-02
    8985.320    -13.694  -0.920  2.74914E-02  5.88996E-02 -3.14082E-02
    8985.594    -13.420  -0.880  2.85508E-02  6.30632E-02 -3.45125E-02
    8985.856    -13.158  -0.840  2.96828E-02  6.76701E-02 -3.79873E-02
    8986.106    -12.908  -0.800  3.08978E-02  7.27817E-02 -4.18839E-02
    8986.344    -12.670  -0.760  3.22080E-02  7.84679E-02 -4.62599E-02
    8986.569    -12.444  -0.720  3.36274E-02  8.48072E-02 -5.11797E-02
    8986.783    -12.231  -0.680  3.51717E-02  9.18848E-02 -5.67131E-02
    8986.984    -12.030  -0.640  3.68577E-02  9.97901E-02 -6.29324E-02
    8987.173    -11.841  -0.600  3.87018E-02  1.08609E-01 -6.99075E-02
    8987.350    -11.664  -0.560  4.07177E-02  1.18414E-01 -7.76966E-02
    8987.514    -11.500  -0.520  4.29127E-02  1.29245E-01 -8.63321E-02
    8987.667    -11.347  -0.480  4.52822E-02  1.41084E-01 -9.58017E-02
    8987.807    -11.207  -0.440  4.78037E-02  1.53830E-01 -1.06026E-01
    8987.935    -11.079  -0.400  5.04320E-02  1.67272E-01 -1.16840E-01
    8988.051    -10.963  -0.360  5.30990E-02  1.81084E-01 -1.27985E-01
    8988.154    -10.859  -0.320  5.57197E-02  1.94840E-01 -1.39121E-01
    8988.246    -10.768  -0.280  5.82043E-02  2.08068E-01 -1.49863E-01
    8988.325    -10.689  -0.240  6.04723E-02  2.20304E-01 -1.59832E-01
    8988.392    -10.622  -0.200  6.24617E-02  2.31153E-01 -1.68692E-01
    8988.447    -10.567  -0.160  6.41321E-02  2.40316E-01 -1.76184E-01
    8988.490    -10.524  -0.120  6.54607E-02  2.47588E-01 -1.82127E-01
    8988.520    -10.494  -0.080  6.64376E-02  2.52847E-01 -1.86409E-01
    8988.545    -10.469   0.000  6.72870E-02  2.57088E-01 -1.89801E-01
    8988.599    -10.414   0.120  6.93850E-02  2.66679E-01 -1.97294E-01
    8988.642    -10.372   0.160  7.08295E-02  2.74183E-01 -2.03354E-01
    8988.697    -10.317   0.200  7.25759E-02  2.83834E-01 -2.11258E-01
    8988.764    -10.250   0.240  7.45609E-02  2.95567E-01 -2.21006E-01
    8988.843    -10.171   0.280  7.67014E-02  3.09239E-01 -2.32538E-01
    8988.935    -10.079   0.320  7.88837E-02  3.24622E-01 -2.45738E-01
    8989.038     -9.976   0.360  8.09823E-02  3.41411E-01 -2.60428E-01
    8989.154     -9.860   0.400  8.28979E-02  3.59287E-01 -2.76389E-01
    8989.282     -9.732   0.440  8.45197E-02  3.77952E-01 -2.93432E-01
    8989.422     -9.592   0.480  8.57763E-02  3.97149E-01 -3.11373E-01
    8989.575     -9.439   0.520  8.67644E-02  4.16753E-01 -3.29989E-01
    8989.739     -9.275   0.560  8.76481E-02  4.36697E-01 -3.49049E-01
    8989.916     -9.098   0.600  8.86211E-02  4.56912E-01 -3.68291E-01
    8990.105     -8.909   0.640  9.00233E-02  4.77469E-01 -3.87446E-01
    8990.306     -8.708   0.680  9.21467E-02  4.98400E-01 -4.06253E-01
    8990.520     -8.494   0.720  9.52283E-02  5.19695E-01 -4.24466E-01
    8990.745     -8.269   0.760  9.96439E-02  5.41423E-01 -4.41779E-01
    8990.983     -8.031   0.800  1.05748E-01  5.63563E-01 -4.57816E-01
    8991.233     -7.781   0.840  1.14096E-01  5.86121E-01 -4.72024E-01
    8991.495     -7.519   0.880  1.25174E-01  6.09089E-01 -4.83915E-01
    8991.769     -7.245   0.920  1.38757E-01  6.32410E-01 -4.93653E-01
    8992.056     -6.958   0.960  1.52775E-01  6.56033E-01 -5.03258E-01
    8992.355     -6.659   1.000  1.63106E-01  6.79880E-01 -5.16774E-01
    8992.665     -6.348   1.040  1.67519E-01  7.03903E-01 -5.36384E-01
    8992.988     -6.025   1.080  1.68807E-01  7.27986E-01 -5.59179E-01
    8993.324     -5.690   1.120  1.70729E-01  7.52050E-01 -5.81321E-01
    8993.671     -5.343   1.160  1.74414E-01  7.75990E-01 -6.01577E-01
    8994.031     -4.983   1.200  1.79726E-01  7.99719E-01 -6.19994E-01
    8994.403     -4.611   1.240  1.86574E-01  8.23086E-01 -6.36511E-01
    8994.787     -4.227   1.280  1.94827E-01  8.46022E-01 -6.51195E-01
    8995.183     -3.831   1.320  2.03597E-01  8.68438E-01 -6.64841E-01
    8995.591     -3.422   1.360  2.11379E-01  8.90185E-01 -6.78806E-01
    8996.012     -3.002   1.400  2.17745E-01  9.11199E-01 -6.93454E-01
    8996.445     -2.569   1.440  2.24476E-01  9.31418E-01 -7.06943E-01
    8996.890     -2.124   1.480  2.34835E-01  9.50723E-01 -7.15888E-01
    8997.347     -1.667   1.520  2.51398E-01  9.69062E-01 -7.17664E-01
    8997.816     -1.197   1.560  2.74463E-01  9.86387E-01 -7.11924E-01
    8998.298     -0.716   1.600  3.02182E-01  1.00263E+00 -7.00452E-01
    8998.792     -0.222   1.640  3.31821E-01  1.01781E+00 -6.85988E-01
    8999.298      0.284   1.680  3.62559E-01  1.03184E+00 -6.69279E-01
    8999.816      0.802   1.720  3.99938E-01  1.04473E+00 -6.44795E-01
    9000.346      1.332   1.760  4.52553E-01  1.05648E+00 -6.03923E-01
    9000.889      1.875   1.800  5.29599E-01  1.06709E+00 -5.37489E-01
    9001.444      2.430   1.840  6.38871E-01  1.07658E+00 -4.37708E-01
    9002.011      2.997   1.880  7.84863E-01  1.08498E+00 -3.00117E-01
    9002.590      3.576   1.920  9.70227E-01  1.09231E+00 -1.22079E-01
    9003.181      4.167   1.960  1.19914E+00  1.09858E+00  1.00563E-01
    9003.784      4.771   2.000  1.46811E+00  1.10387E+00  3.64241E-01
    9004.400      5.386   2.040  1.72809E+00  1.10822E+00  6.19870E-01
    9005.028      6.014   2.080  1.90903E+00  1.11168E+00  7.97357E-01
    9005.668      6.654   2.120  1.98916E+00  1.11428E+00  8.74887E-01
    9006.320      7.307   2.160  1.97746E+00  1.11606E+00  8.61399E-01
    9006.985      7.971   2.200  1.90826E+00  1.11712E+00  7.91132E-01
    9007.661      8.648   2.240  1.82499E+00  1.11749E+00  7.07497E-01
    9008.350      9.336   2.280  1.73834E+00  1.11723E+00  6.21114E-01
    9009.051     10.038   2.320  1.63904E+00  1.11638E+00  5.22659E-01
    9009.765     10.751   2.360  1.55070E+00  1.11500E+00  4.35693E-01
    9010.490     11.476   2.400  1.48236E+00  1.11313E+00  3.69225E-01
    9011.228     12.214   2.440  1.43413E+00  1.11084E+00  3.23287E-01
    9011.977     12.964   2.480  1.39761E+00  1.10817E+00  2.89446E-01
    9012.739     13.726   2.520  1.36598E+00  1.10514E+00  2.60837E-01
    9013.514     14.500   2.560  1.33576E+00  1.10184E+00  2.33921E-01
    9014.300     15.286   2.600  1.30552E+00  1.09826E+00  2.07261E-01
    9015.099     16.085   2.640  1.27566E+00  1.09446E+00  1.81192E-01
    9015.909     16.895   2.680  1.24664E+00  1.09048E+00  1.56166E-01
    9016.732     17.718   2.720  1.21796E+00  1.08635E+00  1.31613E-01
    9017.567     18.554   2.760  1.18905E+00  1.08210E+00  1.06947E-01
    9018.415     19.401   2.800  1.15995E+00  1.07776E+00  8.21880E-02
    9019.274     20.260   2.840  1.13091E+00  1.07337E+00  5.75423E-02
    9020.146     21.132   2.880  1.10257E+00  1.06892E+00  3.36553E-02
    9021.030     22.016   2.920  1.07573E+00  1.06445E+00  1.12851E-02
    9021.926     22.912   2.960  1.05051E+00  1.05999E+00 -9.48414E-03
    9022.834     23.821   3.000  1.02650E+00  1.05556E+00 -2.90623E-02
    9023.755     24.741   3.040  1.00356E+00  1.05117E+00 -4.76109E-02
    9024.688     25.674   3.080  9.81757E-01  1.04682E+00 -6.50649E-02
    9025.632     26.619   3.120  9.61342E-01  1.04255E+00 -8.12108E-02
    9026.589     27.576   3.160  9.42534E-01  1.03837E+00 -9.58328E-02
    9027.559     28.545   3.200  9.25560E-01  1.03426E+00 -1.08703E-01
    9028.540     29.526   3.240  9.10150E-01  1.03028E+00 -1.20131E-01
    9029.534     30.520   3.280  8.95689E-01  1.02642E+00 -1.30730E-01
    9030.540     31.526   3.320  8.81548E-01  1.02267E+00 -1.41125E-01
    9031.558     32.544   3.360  8.67248E-01  1.01906E+00 -1.51808E-01
    9032.588     33.574   3.400  8.52612E-01  1.01557E+00 -1.62955E-01
    9033.630     34.616   3.440  8.37934E-01  1.01223E+00 -1.74301E-01
    9034.685     35.671   3.480  8.24048E-01  1.00905E+00 -1.85004E-01
    9035.752     36.738   3.520  8.11972E-01  1.00601E+00 -1.94037E-01
    9036.831     37.817   3.560  8.02635E-01  1.00313E+00 -2.00496E-01
    9037.922     38.908   3.600  7.96912E-01  1.00039E+00 -2.03478E-01
    9039.025     40.011   3.640  7.95559E-01  9.97825E-01 -2.02267E-01
    9040.141     41.127   3.680  7.98540E-01  9.95420E-01 -1.96880E-01
    9041.269     42.255   3.720  8.05481E-01  9.93188E-01 -1.87706E-01
    9042.409     43.395   3.760  8.15719E-01  9.91101E-01 -1.75382E-01
    9043.561     44.547   3.800  8.28558E-01  9.89195E-01 -1.60638E-01
    9044.725     45.711   3.840  8.43067E-01  9.87455E-01 -1.44389E-01
    9045.902     46.888   3.880  8.58719E-01  9.85854E-01 -1.27135E-01
    9047.090     48.076   3.920  8.75294E-01  9.84437E-01 -1.09143E-01
    9048.291     49.277   3.960  8.92559E-01  9.83163E-01 -9.06041E-02
    9049.504     50.490   4.000  9.10529E-01  9.82068E-01 -7.15392E-02
    9050.730     51.716   4.040  9.29232E-01  9.81114E-01 -5.18826E-02
    9051.967     52.953   4.080  9.48460E-01  9.80320E-01 -3.18601E-02
    9053.217     54.203   4.120  9.67653E-01  9.79684E-01 -1.20307E-02
    9054.479     55.465   4.160  9.86137E-01  9.79182E-01  6.95502E-03
    9055.753     56.739   4.200  1.00345E+00  9.78834E-01  2.46152E-02
    9057.039     58.025   4.240  1.01930E+00  9.78619E-01  4.06819E-02
    9058.337     59.323   4.280  1.03380E+00  9.78554E-01  5.52466E-02
    9059.648     60.634   4.320  1.04705E+00  9.78597E-01  6.84545E-02
    9060.971     61.957   4.360  1.05923E+00  9.78808E-01  8.04256E-02
    9062.306     63.292   4.400  1.07034E+00  9.79122E-01  9.12150E-02
    9063.653     64.639   4.440  1.08021E+00  9.79556E-01  1.00649E-01
    9065.012     65.999   4.480  1.08832E+00  9.80086E-01  1.08236E-01
    9066.384     67.370   4.520  1.09417E+00  9.80756E-01  1.13413E-01
    9067.768     68.754   4.560  1.09754E+00  9.81518E-01  1.16018E-01
    9069.164     70.150   4.600  1.09865E+00  9.82369E-01  1.16278E-01
    9070.572     71.558   4.640  1.09811E+00  9.83330E-01  1.14785E-01
    9071.992     72.978   4.680  1.09665E+00  9.84374E-01  1.12277E-01
    9073.425     74.411   4.720  1.09479E+00  9.85476E-01  1.09315E-01
    9074.870     75.856   4.760  1.09274E+00  9.86677E-01  1.06064E-01
    9076.327     77.313   4.800  1.09035E+00  9.87931E-01  1.02422E-01
    9077.796     78.782   4.840  1.08730E+00  9.89235E-01  9.80610E-02
    9079.277     80.263   4.880  1.08340E+00  9.90607E-01  9.27966E-02
    9080.771     81.757   4.920  1.07884E+00  9.92023E-01  8.68145E-02
    9082.276     83.262   4.960  1.07416E+00  9.93480E-01  8.06811E-02
    9083.794     84.780   5.000  1.07009E+00  9.94973E-01  7.51190E-02
    9085.324     86.310   5.040  1.06706E+00  9.96478E-01  7.05777E-02
    9086.866     87.853   5.080  1.06496E+00  9.98011E-01  6.69494E-02
    9088.421     89.407   5.120  1.06319E+00  9.99549E-01  6.36448E-02
    9089.988     90.974   5.160  1.06082E+00  1.00109E+00  5.97301E-02
    9091.566     92.553   5.200  1.05683E+00  1.00263E+00  5.41993E-02
    9093.158     94.144   5.240  1.05035E+00  1.00416E+00  4.61925E-02
    9094.761     95.747   5.280  1.04090E+00  1.00566E+00  3.52365E-02
    9096.376     97.362   5.320  1.02857E+00  1.00715E+00  2.14197E-02
    9098.004     98.990   5.360  1.01396E+00  1.00861E+00  5.35188E-03
    9099.644    100.630   5.400  9.98072E-01  1.01002E+00 -1.19478E-02
    9101.296    102.282   5.440  9.82181E-01  1.01139E+00 -2.92099E-02
    9102.960    103.946   5.480  9.67497E-01  1.01272E+00 -4.52216E-02
    9104.636    105.622   5.520  9.55171E-01  1.01400E+00 -5.88282E-02
    9106.325    107.311   5.560  9.45954E-01  1.01521E+00 -6.92507E-02
    9108.026    109.012   5.600  9.40196E-01  1.01634E+00 -7.61392E-02
    9109.739    110.725   5.640  9.37703E-01  1.01741E+00 -7.97068E-02
    9111.464    112.450   5.680  9.37784E-01  1.01841E+00 -8.06212E-02
    9113.201    114.187   5.720  9.39521E-01  1.01932E+00 -7.97969E-02
    9114.951    115.937   5.760  9.42115E-01  1.02012E+00 -7.80077E-02
    9116.712    117.699   5.800  9.44829E-01  1.02087E+00 -7.60379E-02
    9118.486    119.472   5.840  9.47096E-01  1.02152E+00 -7.44292E-02
    9120.272    121.259   5.880  9.48600E-01  1.02207E+00 -7.34675E-02
    9122.071    123.057   5.920  9.49405E-01  1.02251E+00 -7.31097E-02
    9123.881    124.867   5.960  9.49973E-01  1.02285E+00 -7.28749E-02
    9125.704    126.690   6.000  9.51365E-01  1.02302E+00 -7.16596E-02
