# # comment:                                                     FEFF 9.9.1  
# # Source:
# # Structure
# # Reduced
# # space
# # abc:
# # angles:
# # sites:
# # POT  SCF 100  7.0000   0, screened core-hole, AFOLP (folp(0)= 1.150)
# # Abs   Z=29 Rmt= 1.205 Rnm= 1.295 K  shell
# # Pot 1 Z=29 Rmt= 1.201 Rnm= 1.293
# # Pot 2 Z=50 Rmt= 1.419 Rnm= 1.514
# # Pot 3 Z=15 Rmt= 0.941 Rnm= 1.156
# # Pot 4 Z= 8 Rmt= 0.872 Rnm= 1.039
# # Gam_ch=1.729E+00 H-L exch Vi= 0.000E+00 Vr= 0.000E+00
# # Mu=-6.388E+00eV kf=2.505E+00 Vint=-1.731E+01eV Rs_int= 1.448
# FMS rfms= 9.0000
# # PATH  Rmax=-1.000,  Keep_limit= 0.00, Heap_limit 0.00  Pwcrit= 2.50%
#  S02=0.950  Temp=   0.00  Debye_temp=   0.00  Global_sig2= 0.00000
#  Energy zero shift, vr, vi    0.00000E+00   0.00000E+00
#  Curved wave amplitude ratio filter   4.000%
#     file         sig2 tot  cw amp ratio   deg  nlegs   reff  inp sig2
#     0/   0 paths used
#  xsedge+ 50, used to normalize mu           2.4885E-04
#  -----------------------------------------------------------------------
#  omega    e    k    mu    mu0     chi     @#
    8983.300    -10.198  -1.000  3.76533E-02  5.15258E-02 -1.38725E-02
    8983.599     -9.899  -0.960  3.97075E-02  5.52717E-02 -1.55642E-02
    8983.886     -9.613  -0.920  4.19242E-02  5.94380E-02 -1.75138E-02
    8984.160     -9.339  -0.880  4.43205E-02  6.40870E-02 -1.97665E-02
    8984.422     -9.076  -0.840  4.69154E-02  6.92917E-02 -2.23762E-02
    8984.672     -8.827  -0.800  4.97300E-02  7.51365E-02 -2.54065E-02
    8984.910     -8.589  -0.760  5.27871E-02  8.17186E-02 -2.89315E-02
    8985.135     -8.363  -0.720  5.61115E-02  8.91477E-02 -3.30362E-02
    8985.349     -8.150  -0.680  5.97288E-02  9.75450E-02 -3.78162E-02
    8985.550     -7.949  -0.640  6.36642E-02  1.07038E-01 -4.33743E-02
    8985.739     -7.760  -0.600  6.79403E-02  1.17754E-01 -4.98136E-02
    8985.916     -7.583  -0.560  7.25731E-02  1.29799E-01 -5.72261E-02
    8986.080     -7.418  -0.520  7.75664E-02  1.43239E-01 -6.56724E-02
    8986.233     -7.266  -0.480  8.29044E-02  1.58059E-01 -7.51550E-02
    8986.373     -7.126  -0.440  8.85432E-02  1.74131E-01 -8.55874E-02
    8986.501     -6.998  -0.400  9.44037E-02  1.91171E-01 -9.67670E-02
    8986.617     -6.882  -0.360  1.00368E-01  2.08736E-01 -1.08368E-01
    8986.720     -6.778  -0.320  1.06286E-01  2.26252E-01 -1.19967E-01
    8986.812     -6.687  -0.280  1.11985E-01  2.43079E-01 -1.31095E-01
    8986.891     -6.608  -0.240  1.17291E-01  2.58605E-01 -1.41313E-01
    8986.958     -6.541  -0.200  1.22046E-01  2.72317E-01 -1.50271E-01
    8987.013     -6.486  -0.160  1.26113E-01  2.83845E-01 -1.57731E-01
    8987.056     -6.443  -0.120  1.29388E-01  2.92952E-01 -1.63564E-01
    8987.086     -6.413  -0.080  1.31792E-01  2.99509E-01 -1.67717E-01
    8987.110     -6.388   0.000  1.33779E-01  3.04775E-01 -1.70997E-01
    8987.165     -6.333   0.120  1.38282E-01  3.16628E-01 -1.78346E-01
    8987.208     -6.291   0.160  1.41827E-01  3.25851E-01 -1.84025E-01
    8987.263     -6.236   0.200  1.46404E-01  3.37588E-01 -1.91184E-01
    8987.330     -6.169   0.240  1.52113E-01  3.51705E-01 -1.99592E-01
    8987.409     -6.089   0.280  1.58976E-01  3.67863E-01 -2.08887E-01
    8987.501     -5.998   0.320  1.67052E-01  3.85648E-01 -2.18596E-01
    8987.604     -5.894   0.360  1.76394E-01  4.04504E-01 -2.28109E-01
    8987.720     -5.779   0.400  1.87108E-01  4.23878E-01 -2.36770E-01
    8987.848     -5.651   0.440  1.99300E-01  4.43236E-01 -2.43935E-01
    8987.988     -5.510   0.480  2.13072E-01  4.62156E-01 -2.49084E-01
    8988.141     -5.358   0.520  2.28551E-01  4.80404E-01 -2.51853E-01
    8988.305     -5.193   0.560  2.45689E-01  4.97825E-01 -2.52136E-01
    8988.482     -5.017   0.600  2.64330E-01  5.14451E-01 -2.50121E-01
    8988.671     -4.828   0.640  2.84122E-01  5.30282E-01 -2.46160E-01
    8988.872     -4.626   0.680  3.04861E-01  5.45437E-01 -2.40577E-01
    8989.086     -4.413   0.720  3.26771E-01  5.60027E-01 -2.33256E-01
    8989.311     -4.188   0.760  3.50798E-01  5.74124E-01 -2.23325E-01
    8989.549     -3.950   0.800  3.78499E-01  5.87831E-01 -2.09332E-01
    8989.799     -3.700   0.840  4.11315E-01  6.01238E-01 -1.89923E-01
    8990.061     -3.438   0.880  4.49426E-01  6.14403E-01 -1.64977E-01
    8990.335     -3.163   0.920  4.90155E-01  6.27390E-01 -1.37235E-01
    8990.622     -2.877   0.960  5.26520E-01  6.40211E-01 -1.13692E-01
    8990.920     -2.578   1.000  5.49302E-01  6.52910E-01 -1.03607E-01
    8991.231     -2.267   1.040  5.53111E-01  6.65518E-01 -1.12407E-01
    8991.554     -1.944   1.080  5.40010E-01  6.78020E-01 -1.38010E-01
    8991.890     -1.609   1.120  5.17581E-01  6.90438E-01 -1.72856E-01
    8992.237     -1.261   1.160  4.94354E-01  7.02784E-01 -2.08430E-01
    8992.597     -0.902   1.200  4.77361E-01  7.15007E-01 -2.37646E-01
    8992.969     -0.530   1.240  4.72335E-01  7.27152E-01 -2.54817E-01
    8993.353     -0.146   1.280  4.81630E-01  7.39184E-01 -2.57555E-01
    8993.749      0.250   1.320  5.03388E-01  7.51083E-01 -2.47695E-01
    8994.157      0.659   1.360  5.33865E-01  7.62845E-01 -2.28980E-01
    8994.578      1.079   1.400  5.70302E-01  7.74429E-01 -2.04128E-01
    8995.011      1.512   1.440  6.10707E-01  7.85852E-01 -1.75145E-01
    8995.456      1.957   1.480  6.50062E-01  7.97086E-01 -1.47024E-01
    8995.913      2.414   1.520  6.84099E-01  8.08088E-01 -1.23989E-01
    8996.382      2.884   1.560  7.16439E-01  8.18871E-01 -1.02432E-01
    8996.864      3.365   1.600  7.52130E-01  8.29409E-01 -7.72789E-02
    8997.358      3.859   1.640  7.93446E-01  8.39676E-01 -4.62297E-02
    8997.864      4.365   1.680  8.44752E-01  8.49668E-01 -4.91605E-03
    8998.382      4.883   1.720  9.04032E-01  8.59377E-01  4.46548E-02
    8998.912      5.414   1.760  9.63921E-01  8.68759E-01  9.51623E-02
    8999.455      5.956   1.800  1.01404E+00  8.77850E-01  1.36191E-01
    9000.010      6.511   1.840  1.04033E+00  8.86585E-01  1.53747E-01
    9000.576      7.078   1.880  1.04586E+00  8.95002E-01  1.50855E-01
    9001.156      7.657   1.920  1.04913E+00  9.03057E-01  1.46069E-01
    9001.747      8.248   1.960  1.05912E+00  9.10789E-01  1.48333E-01
    9002.350      8.852   2.000  1.07167E+00  9.18134E-01  1.53541E-01
    9002.966      9.467   2.040  1.08095E+00  9.25154E-01  1.55794E-01
    9003.594     10.095   2.080  1.08821E+00  9.31788E-01  1.56419E-01
    9004.234     10.735   2.120  1.09864E+00  9.38078E-01  1.60563E-01
    9004.886     11.388   2.160  1.11402E+00  9.44024E-01  1.69999E-01
    9005.551     12.052   2.200  1.13254E+00  9.49607E-01  1.82934E-01
    9006.227     12.729   2.240  1.14496E+00  9.54830E-01  1.90134E-01
    9006.916     13.418   2.280  1.14432E+00  9.59716E-01  1.84600E-01
    9007.617     14.119   2.320  1.14543E+00  9.64269E-01  1.81164E-01
    9008.331     14.832   2.360  1.16733E+00  9.68492E-01  1.98839E-01
    9009.056     15.557   2.400  1.20938E+00  9.72390E-01  2.36990E-01
    9009.794     16.295   2.440  1.25194E+00  9.75968E-01  2.75973E-01
    9010.543     17.045   2.480  1.27832E+00  9.79251E-01  2.99073E-01
    9011.305     17.807   2.520  1.28842E+00  9.82242E-01  3.06179E-01
    9012.080     18.581   2.560  1.28181E+00  9.84930E-01  2.96876E-01
    9012.866     19.367   2.600  1.25534E+00  9.87379E-01  2.67961E-01
    9013.665     20.166   2.640  1.21593E+00  9.89556E-01  2.26376E-01
    9014.475     20.977   2.680  1.17486E+00  9.91466E-01  1.83391E-01
    9015.298     21.800   2.720  1.13675E+00  9.93175E-01  1.43571E-01
    9016.133     22.635   2.760  1.09950E+00  9.94630E-01  1.04867E-01
    9016.981     23.482   2.800  1.06369E+00  9.95896E-01  6.77930E-02
    9017.840     24.342   2.840  1.03056E+00  9.96940E-01  3.36175E-02
    9018.712     25.213   2.880  9.99631E-01  9.97809E-01  1.82168E-03
    9019.596     26.097   2.920  9.74398E-01  9.98511E-01 -2.41126E-02
    9020.492     26.993   2.960  9.51142E-01  9.99049E-01 -4.79067E-02
    9021.400     27.902   3.000  9.27644E-01  9.99429E-01 -7.17856E-02
    9022.321     28.822   3.040  9.06312E-01  9.99679E-01 -9.33669E-02
    9023.254     29.755   3.080  8.88597E-01  9.99803E-01 -1.11207E-01
    9024.198     30.700   3.120  8.74541E-01  9.99807E-01 -1.25267E-01
    9025.155     31.657   3.160  8.63869E-01  9.99695E-01 -1.35826E-01
    9026.125     32.626   3.200  8.55596E-01  9.99494E-01 -1.43898E-01
    9027.106     33.608   3.240  8.48803E-01  9.99209E-01 -1.50406E-01
    9028.100     34.601   3.280  8.43237E-01  9.98842E-01 -1.55604E-01
    9029.106     35.607   3.320  8.38972E-01  9.98400E-01 -1.59428E-01
    9030.124     36.625   3.360  8.36401E-01  9.97908E-01 -1.61507E-01
    9031.154     37.655   3.400  8.36105E-01  9.97371E-01 -1.61266E-01
    9032.196     38.698   3.440  8.38504E-01  9.96792E-01 -1.58289E-01
    9033.251     39.752   3.480  8.43503E-01  9.96174E-01 -1.52671E-01
    9034.318     40.819   3.520  8.50834E-01  9.95520E-01 -1.44685E-01
    9035.397     41.898   3.560  8.60096E-01  9.94854E-01 -1.34759E-01
    9036.488     42.989   3.600  8.70635E-01  9.94182E-01 -1.23547E-01
    9037.591     44.093   3.640  8.81959E-01  9.93485E-01 -1.11526E-01
    9038.707     45.208   3.680  8.93853E-01  9.92805E-01 -9.89518E-02
    9039.835     46.336   3.720  9.06189E-01  9.92105E-01 -8.59160E-02
    9040.975     47.476   3.760  9.19019E-01  9.91428E-01 -7.24086E-02
    9042.127     48.628   3.800  9.32525E-01  9.90756E-01 -5.82310E-02
    9043.291     49.792   3.840  9.46851E-01  9.90110E-01 -4.32590E-02
    9044.468     50.969   3.880  9.61980E-01  9.89474E-01 -2.74937E-02
    9045.656     52.158   3.920  9.77778E-01  9.88845E-01 -1.10668E-02
    9046.857     53.358   3.960  9.93875E-01  9.88248E-01  5.62729E-03
    9048.070     54.572   4.000  1.00947E+00  9.87685E-01  2.17892E-02
    9049.296     55.797   4.040  1.02366E+00  9.87158E-01  3.65057E-02
    9050.533     57.034   4.080  1.03577E+00  9.86667E-01  4.90991E-02
    9051.783     58.284   4.120  1.04544E+00  9.86190E-01  5.92511E-02
    9053.045     59.546   4.160  1.05277E+00  9.85751E-01  6.70203E-02
    9054.319     60.820   4.200  1.05800E+00  9.85369E-01  7.26259E-02
    9055.605     62.106   4.240  1.06118E+00  9.85005E-01  7.61738E-02
    9056.903     63.405   4.280  1.06234E+00  9.84678E-01  7.76649E-02
    9058.214     64.715   4.320  1.06163E+00  9.84389E-01  7.72391E-02
    9059.537     66.038   4.360  1.05924E+00  9.84139E-01  7.50958E-02
    9060.872     67.373   4.400  1.05542E+00  9.83929E-01  7.14932E-02
    9062.219     68.720   4.440  1.05065E+00  9.83777E-01  6.68777E-02
    9063.578     70.080   4.480  1.04548E+00  9.83622E-01  6.18623E-02
    9064.950     71.451   4.520  1.04065E+00  9.83525E-01  5.71230E-02
    9066.334     72.835   4.560  1.03662E+00  9.83466E-01  5.31563E-02
    9067.730     74.231   4.600  1.03348E+00  9.83447E-01  5.00377E-02
    9069.138     75.639   4.640  1.03086E+00  9.83462E-01  4.73938E-02
    9070.558     77.060   4.680  1.02817E+00  9.83490E-01  4.46842E-02
    9071.991     78.492   4.720  1.02503E+00  9.83553E-01  4.14778E-02
    9073.436     79.937   4.760  1.02119E+00  9.83651E-01  3.75346E-02
    9074.893     81.394   4.800  1.01670E+00  9.83782E-01  3.29203E-02
    9076.362     82.863   4.840  1.01185E+00  9.83924E-01  2.79307E-02
    9077.843     84.344   4.880  1.00702E+00  9.84074E-01  2.29431E-02
    9079.336     85.838   4.920  1.00256E+00  9.84277E-01  1.82862E-02
    9080.842     87.344   4.960  9.98595E-01  9.84467E-01  1.41281E-02
    9082.360     88.861   5.000  9.95179E-01  9.84706E-01  1.04729E-02
    9083.890     90.392   5.040  9.92149E-01  9.84932E-01  7.21736E-03
    9085.432     91.934   5.080  9.89393E-01  9.85182E-01  4.21090E-03
    9086.987     93.488   5.120  9.86778E-01  9.85436E-01  1.34182E-03
    9088.554     95.055   5.160  9.84260E-01  9.85694E-01 -1.43423E-03
    9090.132     96.634   5.200  9.81920E-01  9.85975E-01 -4.05472E-03
    9091.723     98.225   5.240  9.79879E-01  9.86234E-01 -6.35470E-03
    9093.327     99.828   5.280  9.78347E-01  9.86492E-01 -8.14510E-03
    9094.942    101.444   5.320  9.77406E-01  9.86770E-01 -9.36391E-03
    9096.570    103.071   5.360  9.76764E-01  9.87024E-01 -1.02595E-02
    9098.210    104.711   5.400  9.75890E-01  9.87273E-01 -1.13838E-02
    9099.862    106.363   5.440  9.74145E-01  9.87518E-01 -1.33724E-02
    9101.526    108.027   5.480  9.71080E-01  9.87734E-01 -1.66536E-02
    9103.202    109.704   5.520  9.66632E-01  9.87943E-01 -2.13112E-02
    9104.891    111.392   5.560  9.61023E-01  9.88145E-01 -2.71220E-02
    9106.592    113.093   5.600  9.54665E-01  9.88317E-01 -3.36519E-02
    9108.305    114.806   5.640  9.48192E-01  9.88480E-01 -4.02880E-02
    9110.030    116.531   5.680  9.42374E-01  9.88610E-01 -4.62367E-02
    9111.767    118.268   5.720  9.38076E-01  9.88731E-01 -5.06543E-02
    9113.517    120.018   5.760  9.35899E-01  9.88818E-01 -5.29194E-02
    9115.278    121.780   5.800  9.35996E-01  9.88871E-01 -5.28745E-02
    9117.052    123.554   5.840  9.38093E-01  9.88912E-01 -5.08193E-02
    9118.838    125.340   5.880  9.41642E-01  9.88919E-01 -4.72766E-02
    9120.637    127.138   5.920  9.46128E-01  9.88889E-01 -4.27610E-02
    9122.447    128.949   5.960  9.51199E-01  9.88820E-01 -3.76209E-02
    9124.270    130.771   6.000  9.56907E-01  9.88726E-01 -3.18192E-02
