# # comment:                                                     FEFF 9.9.1  
# # Source:
# # Structure
# # Reduced
# # space
# # abc:
# # angles:
# # sites:
# # POT  SCF 100  7.0000   0, screened core-hole, AFOLP (folp(0)= 1.150)
# # Abs   Z=29 Rmt= 1.238 Rnm= 1.323 K  shell
# # Pot 1 Z=71 Rmt= 1.521 Rnm= 1.617
# # Pot 2 Z=29 Rmt= 1.238 Rnm= 1.323
# # Pot 3 Z= 8 Rmt= 1.042 Rnm= 1.109
# # Gam_ch=1.729E+00 H-L exch Vi= 0.000E+00 Vr= 0.000E+00
# # Mu=-7.857E+00eV kf=2.116E+00 Vint=-1.639E+01eV Rs_int= 1.714
# FMS rfms= 9.0000
# # PATH  Rmax=-1.000,  Keep_limit= 0.00, Heap_limit 0.00  Pwcrit= 2.50%
#  S02=0.950  Temp=   0.00  Debye_temp=   0.00  Global_sig2= 0.00000
#  Energy zero shift, vr, vi    0.00000E+00   0.00000E+00
#  Curved wave amplitude ratio filter   4.000%
#     file         sig2 tot  cw amp ratio   deg  nlegs   reff  inp sig2
#     0/   0 paths used
#  xsedge+ 50, used to normalize mu           2.4589E-04
#  -----------------------------------------------------------------------
#  omega    e    k    mu    mu0     chi     @#
    8983.918    -11.667  -1.000  3.75511E-02  5.23414E-02 -1.47903E-02
    8984.217    -11.368  -0.960  3.95373E-02  5.61022E-02 -1.65649E-02
    8984.503    -11.082  -0.920  4.16738E-02  6.02778E-02 -1.86040E-02
    8984.778    -10.807  -0.880  4.39752E-02  6.49289E-02 -2.09538E-02
    8985.040    -10.545  -0.840  4.64575E-02  7.01263E-02 -2.36689E-02
    8985.290    -10.295  -0.800  4.91378E-02  7.59518E-02 -2.68140E-02
    8985.528    -10.058  -0.760  5.20345E-02  8.24994E-02 -3.04650E-02
    8985.753     -9.832  -0.720  5.51660E-02  8.98751E-02 -3.47091E-02
    8985.966     -9.619  -0.680  5.85508E-02  9.81956E-02 -3.96449E-02
    8986.168     -9.418  -0.640  6.22058E-02  1.07584E-01 -4.53784E-02
    8986.357     -9.229  -0.600  6.61446E-02  1.18162E-01 -5.20170E-02
    8986.533     -9.052  -0.560  7.03748E-02  1.30031E-01 -5.96561E-02
    8986.698     -8.887  -0.520  7.48942E-02  1.43253E-01 -6.83589E-02
    8986.850     -8.735  -0.480  7.96867E-02  1.57814E-01 -7.81272E-02
    8986.991     -8.595  -0.440  8.47169E-02  1.73586E-01 -8.88689E-02
    8987.119     -8.467  -0.400  8.99257E-02  1.90295E-01 -1.00369E-01
    8987.234     -8.351  -0.360  9.52279E-02  2.07512E-01 -1.12284E-01
    8987.338     -8.247  -0.320  1.00513E-01  2.24678E-01 -1.24165E-01
    8987.429     -8.156  -0.280  1.05652E-01  2.41173E-01 -1.35522E-01
    8987.509     -8.076  -0.240  1.10501E-01  2.56401E-01 -1.45900E-01
    8987.576     -8.009  -0.200  1.14916E-01  2.69860E-01 -1.54944E-01
    8987.631     -7.955  -0.160  1.18760E-01  2.81185E-01 -1.62424E-01
    8987.673     -7.912  -0.120  1.21908E-01  2.90138E-01 -1.68230E-01
    8987.704     -7.881  -0.080  1.24256E-01  2.96591E-01 -1.72334E-01
    8987.728     -7.857   0.000  1.26237E-01  3.01775E-01 -1.75538E-01
    8987.783     -7.802   0.120  1.30797E-01  3.13460E-01 -1.82664E-01
    8987.826     -7.759   0.160  1.34433E-01  3.22565E-01 -1.88132E-01
    8987.881     -7.705   0.200  1.39244E-01  3.34174E-01 -1.94930E-01
    8987.948     -7.638   0.240  1.45397E-01  3.48136E-01 -2.02739E-01
    8988.027     -7.558   0.280  1.53122E-01  3.64200E-01 -2.11078E-01
    8988.118     -7.467   0.320  1.62697E-01  3.81964E-01 -2.19266E-01
    8988.222     -7.363   0.360  1.74424E-01  4.00891E-01 -2.26467E-01
    8988.338     -7.247   0.400  1.88696E-01  4.20451E-01 -2.31755E-01
    8988.466     -7.119   0.440  2.05935E-01  4.40181E-01 -2.34246E-01
    8988.606     -6.979   0.480  2.26340E-01  4.59686E-01 -2.33346E-01
    8988.758     -6.827   0.520  2.49602E-01  4.78706E-01 -2.29104E-01
    8988.923     -6.662   0.560  2.74492E-01  4.97133E-01 -2.22641E-01
    8989.100     -6.485   0.600  2.98500E-01  5.14935E-01 -2.16435E-01
    8989.289     -6.296   0.640  3.18648E-01  5.32144E-01 -2.13496E-01
    8989.490     -6.095   0.680  3.33154E-01  5.48868E-01 -2.15714E-01
    8989.703     -5.882   0.720  3.42606E-01  5.65167E-01 -2.22561E-01
    8989.929     -5.656   0.760  3.49371E-01  5.81099E-01 -2.31727E-01
    8990.167     -5.419   0.800  3.56025E-01  5.96792E-01 -2.40767E-01
    8990.417     -5.169   0.840  3.63486E-01  6.12262E-01 -2.48777E-01
    8990.679     -4.907   0.880  3.70152E-01  6.27575E-01 -2.57423E-01
    8990.953     -4.632   0.920  3.73544E-01  6.42739E-01 -2.69196E-01
    8991.239     -4.346   0.960  3.73883E-01  6.57795E-01 -2.83912E-01
    8991.538     -4.047   1.000  3.75004E-01  6.72733E-01 -2.97729E-01
    8991.849     -3.736   1.040  3.81318E-01  6.87573E-01 -3.06255E-01
    8992.172     -3.413   1.080  3.93988E-01  7.02288E-01 -3.08300E-01
    8992.507     -3.078   1.120  4.11347E-01  7.16888E-01 -3.05541E-01
    8992.855     -2.730   1.160  4.32374E-01  7.31315E-01 -2.98941E-01
    8993.215     -2.371   1.200  4.57612E-01  7.45588E-01 -2.87976E-01
    8993.586     -1.999   1.240  4.86960E-01  7.59663E-01 -2.72704E-01
    8993.970     -1.615   1.280  5.18355E-01  7.73494E-01 -2.55139E-01
    8994.367     -1.218   1.320  5.50173E-01  7.87094E-01 -2.36921E-01
    8994.775     -0.810   1.360  5.84517E-01  8.00394E-01 -2.15876E-01
    8995.196     -0.389   1.400  6.24835E-01  8.13403E-01 -1.88568E-01
    8995.629      0.043   1.440  6.69381E-01  8.26074E-01 -1.56694E-01
    8996.074      0.488   1.480  7.11422E-01  8.38376E-01 -1.26955E-01
    8996.531      0.946   1.520  7.49664E-01  8.50280E-01 -1.00616E-01
    8997.000      1.415   1.560  7.92361E-01  8.61799E-01 -6.94375E-02
    8997.482      1.897   1.600  8.45881E-01  8.72883E-01 -2.70019E-02
    8997.976      2.390   1.640  9.09175E-01  8.83527E-01  2.56483E-02
    8998.481      2.896   1.680  9.77844E-01  8.93726E-01  8.41179E-02
    8999.000      3.414   1.720  1.05514E+00  9.03433E-01  1.51708E-01
    8999.530      3.945   1.760  1.14864E+00  9.12667E-01  2.35969E-01
    9000.073      4.487   1.800  1.24833E+00  9.21426E-01  3.26909E-01
    9000.627      5.042   1.840  1.32376E+00  9.29709E-01  3.94048E-01
    9001.194      5.609   1.880  1.35290E+00  9.37475E-01  4.15427E-01
    9001.773      6.188   1.920  1.34371E+00  9.44789E-01  3.98925E-01
    9002.365      6.779   1.960  1.31901E+00  9.51591E-01  3.67423E-01
    9002.968      7.383   2.000  1.29736E+00  9.57946E-01  3.39417E-01
    9003.584      7.999   2.040  1.28179E+00  9.63818E-01  3.17974E-01
    9004.212      8.626   2.080  1.25571E+00  9.69233E-01  2.86481E-01
    9004.852      9.267   2.120  1.20774E+00  9.74219E-01  2.33518E-01
    9005.504      9.919   2.160  1.15218E+00  9.78761E-01  1.73416E-01
    9006.168     10.583   2.200  1.10648E+00  9.82887E-01  1.23595E-01
    9006.845     11.260   2.240  1.07615E+00  9.86607E-01  8.95424E-02
    9007.534     11.949   2.280  1.06355E+00  9.89969E-01  7.35852E-02
    9008.235     12.650   2.320  1.07154E+00  9.92941E-01  7.86016E-02
    9008.948     13.363   2.360  1.09680E+00  9.95573E-01  1.01228E-01
    9009.674     14.088   2.400  1.12168E+00  9.97875E-01  1.23804E-01
    9010.411     14.826   2.440  1.12561E+00  9.99878E-01  1.25732E-01
    9011.161     15.576   2.480  1.10978E+00  1.00157E+00  1.08215E-01
    9011.923     16.338   2.520  1.08719E+00  1.00300E+00  8.41884E-02
    9012.697     17.112   2.560  1.06898E+00  1.00418E+00  6.48091E-02
    9013.484     17.898   2.600  1.05570E+00  1.00511E+00  5.05897E-02
    9014.282     18.697   2.640  1.04307E+00  1.00581E+00  3.72554E-02
    9015.093     19.508   2.680  1.02949E+00  1.00633E+00  2.31643E-02
    9015.916     20.331   2.720  1.01496E+00  1.00667E+00  8.29186E-03
    9016.751     21.166   2.760  9.99930E-01  1.00683E+00 -6.89737E-03
    9017.598     22.013   2.800  9.84579E-01  1.00684E+00 -2.22656E-02
    9018.458     22.873   2.840  9.69082E-01  1.00671E+00 -3.76289E-02
    9019.330     23.745   2.880  9.53570E-01  1.00648E+00 -5.29055E-02
    9020.214     24.628   2.920  9.37999E-01  1.00612E+00 -6.81246E-02
    9021.110     25.525   2.960  9.22617E-01  1.00568E+00 -8.30669E-02
    9022.018     26.433   3.000  9.07880E-01  1.00516E+00 -9.72809E-02
    9022.939     27.353   3.040  8.94449E-01  1.00456E+00 -1.10112E-01
    9023.871     28.286   3.080  8.82924E-01  1.00391E+00 -1.20989E-01
    9024.816     29.231   3.120  8.73678E-01  1.00322E+00 -1.29542E-01
    9025.773     30.188   3.160  8.66405E-01  1.00249E+00 -1.36084E-01
    9026.742     31.157   3.200  8.60841E-01  1.00174E+00 -1.40903E-01
    9027.724     32.139   3.240  8.56961E-01  1.00097E+00 -1.44007E-01
    9028.718     33.132   3.280  8.54934E-01  1.00019E+00 -1.45253E-01
    9029.723     34.138   3.320  8.55164E-01  9.99404E-01 -1.44240E-01
    9030.741     35.156   3.360  8.58200E-01  9.98624E-01 -1.40424E-01
    9031.772     36.186   3.400  8.64470E-01  9.97871E-01 -1.33400E-01
    9032.814     37.229   3.440  8.73705E-01  9.97126E-01 -1.23421E-01
    9033.869     38.283   3.480  8.85509E-01  9.96413E-01 -1.10904E-01
    9034.935     39.350   3.520  8.99257E-01  9.95734E-01 -9.64766E-02
    9036.014     40.429   3.560  9.14230E-01  9.95071E-01 -8.08407E-02
    9037.106     41.520   3.600  9.29967E-01  9.94465E-01 -6.44984E-02
    9038.209     42.624   3.640  9.46216E-01  9.93878E-01 -4.76620E-02
    9039.325     43.739   3.680  9.62947E-01  9.93353E-01 -3.04064E-02
    9040.452     44.867   3.720  9.79950E-01  9.92849E-01 -1.28988E-02
    9041.592     46.007   3.760  9.97015E-01  9.92408E-01  4.60756E-03
    9042.744     47.159   3.800  1.01354E+00  9.92012E-01  2.15277E-02
    9043.909     48.323   3.840  1.02864E+00  9.91682E-01  3.69582E-02
    9045.085     49.500   3.880  1.04151E+00  9.91376E-01  5.01315E-02
    9046.274     50.689   3.920  1.05176E+00  9.91136E-01  6.06231E-02
    9047.475     51.890   3.960  1.05932E+00  9.90962E-01  6.83560E-02
    9048.688     53.103   4.000  1.06438E+00  9.90813E-01  7.35705E-02
    9049.913     54.328   4.040  1.06741E+00  9.90730E-01  7.66830E-02
    9051.151     55.566   4.080  1.06886E+00  9.90691E-01  7.81733E-02
    9052.400     56.815   4.120  1.06917E+00  9.90717E-01  7.84531E-02
    9053.662     58.077   4.160  1.06875E+00  9.90767E-01  7.79823E-02
    9054.936     59.351   4.200  1.06789E+00  9.90880E-01  7.70139E-02
    9056.223     60.637   4.240  1.06666E+00  9.91034E-01  7.56273E-02
    9057.521     61.936   4.280  1.06503E+00  9.91231E-01  7.37981E-02
    9058.832     63.246   4.320  1.06294E+00  9.91467E-01  7.14758E-02
    9060.154     64.569   4.360  1.06036E+00  9.91741E-01  6.86162E-02
    9061.489     65.904   4.400  1.05727E+00  9.92053E-01  6.52201E-02
    9062.837     67.251   4.440  1.05373E+00  9.92380E-01  6.13482E-02
    9064.196     68.611   4.480  1.04968E+00  9.92763E-01  5.69190E-02
    9065.568     69.982   4.520  1.04500E+00  9.93160E-01  5.18413E-02
    9066.951     71.366   4.560  1.03969E+00  9.93589E-01  4.60981E-02
    9068.347     72.762   4.600  1.03383E+00  9.94027E-01  3.98041E-02
    9069.756     74.170   4.640  1.02769E+00  9.94494E-01  3.31949E-02
    9071.176     75.591   4.680  1.02146E+00  9.94969E-01  2.64947E-02
    9072.609     77.023   4.720  1.01527E+00  9.95470E-01  1.98011E-02
    9074.053     78.468   4.760  1.00903E+00  9.95952E-01  1.30751E-02
    9075.510     79.925   4.800  1.00271E+00  9.96458E-01  6.24756E-03
    9076.979     81.394   4.840  9.96312E-01  9.96964E-01 -6.52015E-04
    9078.461     82.875   4.880  9.90027E-01  9.97472E-01 -7.44419E-03
    9079.954     84.369   4.920  9.84060E-01  9.97977E-01 -1.39171E-02
    9081.460     85.875   4.960  9.78497E-01  9.98477E-01 -1.99806E-02
    9082.978     87.393   5.000  9.73295E-01  9.98950E-01 -2.56552E-02
    9084.508     88.923   5.040  9.68500E-01  9.99416E-01 -3.09160E-02
    9086.050     90.465   5.080  9.64288E-01  9.99877E-01 -3.55890E-02
    9087.605     92.019   5.120  9.60878E-01  1.00033E+00 -3.94492E-02
    9089.171     93.586   5.160  9.58308E-01  1.00072E+00 -4.24158E-02
    9090.750     95.165   5.200  9.56614E-01  1.00113E+00 -4.45159E-02
    9092.341     96.756   5.240  9.55623E-01  1.00148E+00 -4.58567E-02
    9093.944     98.359   5.280  9.55295E-01  1.00182E+00 -4.65218E-02
    9095.560     99.975   5.320  9.55588E-01  1.00214E+00 -4.65535E-02
    9097.187    101.602   5.360  9.56543E-01  1.00241E+00 -4.58628E-02
    9098.827    103.242   5.400  9.58395E-01  1.00265E+00 -4.42576E-02
    9100.479    104.894   5.440  9.61309E-01  1.00284E+00 -4.15299E-02
    9102.144    106.558   5.480  9.65461E-01  1.00301E+00 -3.75462E-02
    9103.820    108.235   5.520  9.70873E-01  1.00314E+00 -3.22648E-02
    9105.508    109.923   5.560  9.77425E-01  1.00323E+00 -2.58039E-02
    9107.209    111.624   5.600  9.84764E-01  1.00328E+00 -1.85166E-02
    9108.922    113.337   5.640  9.92251E-01  1.00329E+00 -1.10404E-02
    9110.647    115.062   5.680  9.99074E-01  1.00326E+00 -4.18918E-03
    9112.385    116.800   5.720  1.00442E+00  1.00322E+00  1.20221E-03
    9114.134    118.549   5.760  1.00759E+00  1.00311E+00  4.47581E-03
    9115.896    120.311   5.800  1.00823E+00  1.00296E+00  5.27075E-03
    9117.670    122.085   5.840  1.00641E+00  1.00277E+00  3.63527E-03
    9119.456    123.871   5.880  1.00261E+00  1.00255E+00  6.85070E-05
    9121.254    125.669   5.920  9.97668E-01  1.00228E+00 -4.61492E-03
    9123.065    127.480   5.960  9.92532E-01  1.00201E+00 -9.47632E-03
    9124.888    129.302   6.000  9.88038E-01  1.00165E+00 -1.36075E-02
