# # comment:                                                     FEFF 9.9.1  
# # Source:
# # Structure
# # Reduced
# # space
# # abc:
# # angles:
# # sites:
# # POT  SCF 100  7.0000   0, screened core-hole, AFOLP (folp(0)= 1.150)
# # Abs   Z=29 Rmt= 1.257 Rnm= 1.326 K  shell
# # Pot 1 Z= 3 Rmt= 1.228 Rnm= 1.293
# # Pot 2 Z=29 Rmt= 1.257 Rnm= 1.326
# # Pot 3 Z=14 Rmt= 1.010 Rnm= 1.217
# # Pot 4 Z= 8 Rmt= 0.963 Rnm= 1.072
# # Gam_ch=1.729E+00 H-L exch Vi= 0.000E+00 Vr= 0.000E+00
# # Mu=-7.214E+00eV kf=2.257E+00 Vint=-1.758E+01eV Rs_int= 1.607
# FMS rfms= 9.0000
# # PATH  Rmax=-1.000,  Keep_limit= 0.00, Heap_limit 0.00  Pwcrit= 2.50%
#  S02=0.950  Temp=   0.00  Debye_temp=   0.00  Global_sig2= 0.00000
#  Energy zero shift, vr, vi    0.00000E+00   0.00000E+00
#  Curved wave amplitude ratio filter   4.000%
#     file         sig2 tot  cw amp ratio   deg  nlegs   reff  inp sig2
#     0/   0 paths used
#  xsedge+ 50, used to normalize mu           2.4682E-04
#  -----------------------------------------------------------------------
#  omega    e    k    mu    mu0     chi     @#
    8984.038    -11.024  -1.000  4.85056E-02  5.66650E-02 -8.15939E-03
    8984.337    -10.726  -0.960  5.18588E-02  6.08777E-02 -9.01899E-03
    8984.623    -10.439  -0.920  5.55902E-02  6.55681E-02 -9.97796E-03
    8984.897    -10.165  -0.880  5.97586E-02  7.08074E-02 -1.10488E-02
    8985.160     -9.903  -0.840  6.44327E-02  7.66784E-02 -1.22457E-02
    8985.410     -9.653  -0.800  6.96920E-02  8.32776E-02 -1.35856E-02
    8985.647     -9.415  -0.760  7.56279E-02  9.07154E-02 -1.50876E-02
    8985.873     -9.189  -0.720  8.23434E-02  9.91171E-02 -1.67737E-02
    8986.086     -8.976  -0.680  8.99521E-02  1.08621E-01 -1.86685E-02
    8986.287     -8.775  -0.640  9.85740E-02  1.19372E-01 -2.07978E-02
    8986.476     -8.586  -0.600  1.08328E-01  1.31514E-01 -2.31858E-02
    8986.653     -8.409  -0.560  1.19321E-01  1.45170E-01 -2.58492E-02
    8986.818     -8.245  -0.520  1.31626E-01  1.60414E-01 -2.87882E-02
    8986.970     -8.092  -0.480  1.45258E-01  1.77231E-01 -3.19728E-02
    8987.110     -7.952  -0.440  1.60144E-01  1.95473E-01 -3.53285E-02
    8987.238     -7.824  -0.400  1.76092E-01  2.14819E-01 -3.87270E-02
    8987.354     -7.708  -0.360  1.92775E-01  2.34766E-01 -4.19916E-02
    8987.458     -7.604  -0.320  2.09735E-01  2.54660E-01 -4.49247E-02
    8987.549     -7.513  -0.280  2.26419E-01  2.73773E-01 -4.73538E-02
    8987.628     -7.434  -0.240  2.42232E-01  2.91409E-01 -4.91773E-02
    8987.696     -7.367  -0.200  2.56598E-01  3.06987E-01 -5.03893E-02
    8987.750     -7.312  -0.160  2.69012E-01  3.20083E-01 -5.10703E-02
    8987.793     -7.269  -0.120  2.79078E-01  3.30428E-01 -5.13508E-02
    8987.824     -7.239  -0.080  2.86504E-01  3.37878E-01 -5.13738E-02
    8987.848     -7.214   0.000  2.92664E-01  3.43861E-01 -5.11964E-02
    8987.903     -7.159   0.120  3.05952E-01  3.57331E-01 -5.13790E-02
    8987.945     -7.117   0.160  3.16574E-01  3.67811E-01 -5.12364E-02
    8988.000     -7.062   0.200  3.30402E-01  3.81152E-01 -5.07496E-02
    8988.067     -6.995   0.240  3.47456E-01  3.97178E-01 -4.97219E-02
    8988.147     -6.916   0.280  3.67487E-01  4.15528E-01 -4.80408E-02
    8988.238     -6.824   0.320  3.89860E-01  4.35728E-01 -4.58679E-02
    8988.342     -6.721   0.360  4.13233E-01  4.57129E-01 -4.38961E-02
    8988.458     -6.605   0.400  4.35555E-01  4.79125E-01 -4.35693E-02
    8988.586     -6.477   0.440  4.53998E-01  5.01061E-01 -4.70630E-02
    8988.726     -6.337   0.480  4.65845E-01  5.22524E-01 -5.66790E-02
    8988.878     -6.184   0.520  4.69387E-01  5.43164E-01 -7.37772E-02
    8989.043     -6.020   0.560  4.64934E-01  5.62888E-01 -9.79532E-02
    8989.220     -5.843   0.600  4.54413E-01  5.81620E-01 -1.27207E-01
    8989.408     -5.654   0.640  4.40485E-01  5.99449E-01 -1.58965E-01
    8989.610     -5.453   0.680  4.25382E-01  6.16463E-01 -1.91081E-01
    8989.823     -5.239   0.720  4.10650E-01  6.32765E-01 -2.22116E-01
    8990.049     -5.014   0.760  3.96955E-01  6.48459E-01 -2.51505E-01
    8990.286     -4.776   0.800  3.83854E-01  6.63658E-01 -2.79804E-01
    8990.536     -4.526   0.840  3.70121E-01  6.78440E-01 -3.08319E-01
    8990.798     -4.264   0.880  3.55535E-01  6.92870E-01 -3.37334E-01
    8991.073     -3.990   0.920  3.42488E-01  7.06976E-01 -3.64489E-01
    8991.359     -3.703   0.960  3.35316E-01  7.20836E-01 -3.85520E-01
    8991.658     -3.404   1.000  3.37831E-01  7.34453E-01 -3.96622E-01
    8991.969     -3.093   1.040  3.51548E-01  7.47841E-01 -3.96293E-01
    8992.292     -2.770   1.080  3.74508E-01  7.61027E-01 -3.86519E-01
    8992.627     -2.435   1.120  4.01150E-01  7.73987E-01 -3.72837E-01
    8992.975     -2.088   1.160  4.25234E-01  7.86717E-01 -3.61482E-01
    8993.334     -1.728   1.200  4.44046E-01  7.99225E-01 -3.55179E-01
    8993.706     -1.356   1.240  4.59957E-01  8.11495E-01 -3.51538E-01
    8994.090     -0.972   1.280  4.79484E-01  8.23489E-01 -3.44004E-01
    8994.486     -0.576   1.320  5.11581E-01  8.35207E-01 -3.23626E-01
    8994.895     -0.167   1.360  5.65413E-01  8.46647E-01 -2.81235E-01
    8995.315      0.253   1.400  6.46913E-01  8.57767E-01 -2.10854E-01
    8995.748      0.686   1.440  7.58695E-01  8.68542E-01 -1.09847E-01
    8996.193      1.131   1.480  9.02324E-01  8.78989E-01  2.33345E-02
    8996.650      1.588   1.520  1.07262E+00  8.89063E-01  1.83561E-01
    8997.120      2.058   1.560  1.25099E+00  8.98779E-01  3.52210E-01
    8997.601      2.539   1.600  1.40609E+00  9.08076E-01  4.98014E-01
    8998.095      3.033   1.640  1.51696E+00  9.16991E-01  5.99974E-01
    8998.601      3.539   1.680  1.59459E+00  9.25499E-01  6.69094E-01
    8999.119      4.057   1.720  1.63899E+00  9.33579E-01  7.05415E-01
    8999.650      4.587   1.760  1.64351E+00  9.41251E-01  7.02255E-01
    9000.192      5.130   1.800  1.59977E+00  9.48472E-01  6.51295E-01
    9000.747      5.685   1.840  1.48078E+00  9.55286E-01  5.25492E-01
    9001.314      6.252   1.880  1.32307E+00  9.61673E-01  3.61401E-01
    9001.893      6.831   1.920  1.18564E+00  9.67615E-01  2.18022E-01
    9002.484      7.422   1.960  1.08692E+00  9.73156E-01  1.13760E-01
    9003.088      8.026   2.000  1.02097E+00  9.78280E-01  4.26865E-02
    9003.704      8.641   2.040  9.77890E-01  9.82992E-01 -5.10119E-03
    9004.331      9.269   2.080  9.52433E-01  9.87316E-01 -3.48832E-02
    9004.971      9.909   2.120  9.45572E-01  9.91259E-01 -4.56869E-02
    9005.624     10.562   2.160  9.60377E-01  9.94827E-01 -3.44501E-02
    9006.288     11.226   2.200  9.93816E-01  9.98026E-01 -4.21068E-03
    9006.965     11.903   2.240  1.03615E+00  1.00086E+00  3.52825E-02
    9007.654     12.591   2.280  1.07631E+00  1.00339E+00  7.29250E-02
    9008.355     13.293   2.320  1.10564E+00  1.00559E+00  1.00054E-01
    9009.068     14.006   2.360  1.12059E+00  1.00749E+00  1.13101E-01
    9009.793     14.731   2.400  1.12190E+00  1.00911E+00  1.12799E-01
    9010.531     15.469   2.440  1.11397E+00  1.01044E+00  1.03532E-01
    9011.281     16.219   2.480  1.10181E+00  1.01152E+00  9.02891E-02
    9012.043     16.981   2.520  1.08843E+00  1.01238E+00  7.60510E-02
    9012.817     17.755   2.560  1.07500E+00  1.01300E+00  6.19996E-02
    9013.603     18.541   2.600  1.06368E+00  1.01342E+00  5.02624E-02
    9014.402     19.340   2.640  1.05916E+00  1.01365E+00  4.55056E-02
    9015.213     20.151   2.680  1.05686E+00  1.01370E+00  4.31612E-02
    9016.036     20.973   2.720  1.05040E+00  1.01360E+00  3.67948E-02
    9016.871     21.809   2.760  1.03908E+00  1.01335E+00  2.57283E-02
    9017.718     22.656   2.800  1.02301E+00  1.01297E+00  1.00473E-02
    9018.578     23.515   2.840  1.00224E+00  1.01246E+00 -1.02232E-02
    9019.449     24.387   2.880  9.79274E-01  1.01184E+00 -3.25691E-02
    9020.333     25.271   2.920  9.57065E-01  1.01116E+00 -5.40915E-02
    9021.229     26.167   2.960  9.37279E-01  1.01037E+00 -7.30885E-02
    9022.138     27.076   3.000  9.20213E-01  1.00952E+00 -8.93107E-02
    9023.058     27.996   3.040  9.04991E-01  1.00863E+00 -1.03638E-01
    9023.991     28.929   3.080  8.91053E-01  1.00767E+00 -1.16617E-01
    9024.936     29.874   3.120  8.78651E-01  1.00669E+00 -1.28043E-01
    9025.893     30.831   3.160  8.68089E-01  1.00568E+00 -1.37593E-01
    9026.862     31.800   3.200  8.59813E-01  1.00466E+00 -1.44848E-01
    9027.844     32.781   3.240  8.53887E-01  1.00363E+00 -1.49748E-01
    9028.837     33.775   3.280  8.50026E-01  1.00261E+00 -1.52580E-01
    9029.843     34.781   3.320  8.47811E-01  1.00156E+00 -1.53746E-01
    9030.861     35.799   3.360  8.47241E-01  1.00055E+00 -1.53312E-01
    9031.891     36.829   3.400  8.48622E-01  9.99539E-01 -1.50917E-01
    9032.934     37.872   3.440  8.52345E-01  9.98576E-01 -1.46231E-01
    9033.988     38.926   3.480  8.58643E-01  9.97627E-01 -1.38984E-01
    9035.055     39.993   3.520  8.67810E-01  9.96713E-01 -1.28903E-01
    9036.134     41.072   3.560  8.80082E-01  9.95836E-01 -1.15754E-01
    9037.225     42.163   3.600  8.95608E-01  9.95000E-01 -9.93920E-02
    9038.329     43.266   3.640  9.14675E-01  9.94204E-01 -7.95289E-02
    9039.444     44.382   3.680  9.37590E-01  9.93451E-01 -5.58614E-02
    9040.572     45.510   3.720  9.64328E-01  9.92764E-01 -2.84364E-02
    9041.712     46.650   3.760  9.94236E-01  9.92122E-01  2.11449E-03
    9042.864     47.802   3.800  1.02596E+00  9.91526E-01  3.44352E-02
    9044.028     48.966   3.840  1.05724E+00  9.90997E-01  6.62384E-02
    9045.205     50.143   3.880  1.08531E+00  9.90514E-01  9.47957E-02
    9046.394     51.331   3.920  1.10765E+00  9.90078E-01  1.17577E-01
    9047.595     52.532   3.960  1.12240E+00  9.89709E-01  1.32694E-01
    9048.808     53.745   4.000  1.12862E+00  9.89389E-01  1.39230E-01
    9050.033     54.971   4.040  1.12674E+00  9.89138E-01  1.37601E-01
    9051.270     56.208   4.080  1.11826E+00  9.88932E-01  1.29332E-01
    9052.520     57.458   4.120  1.10544E+00  9.88773E-01  1.16669E-01
    9053.782     58.720   4.160  1.09075E+00  9.88682E-01  1.02065E-01
    9055.056     59.994   4.200  1.07626E+00  9.88637E-01  8.76254E-02
    9056.342     61.280   4.240  1.06340E+00  9.88658E-01  7.47438E-02
    9057.641     62.578   4.280  1.05285E+00  9.88700E-01  6.41537E-02
    9058.951     63.889   4.320  1.04481E+00  9.88807E-01  5.60055E-02
    9060.274     65.212   4.360  1.03882E+00  9.88956E-01  4.98602E-02
    9061.609     66.547   4.400  1.03408E+00  9.89144E-01  4.49331E-02
    9062.956     67.894   4.440  1.02974E+00  9.89371E-01  4.03718E-02
    9064.316     69.254   4.480  1.02514E+00  9.89615E-01  3.55210E-02
    9065.687     70.625   4.520  1.02009E+00  9.89918E-01  3.01683E-02
    9067.071     72.009   4.560  1.01483E+00  9.90258E-01  2.45681E-02
    9068.467     73.405   4.600  1.00978E+00  9.90609E-01  1.91678E-02
    9069.875     74.813   4.640  1.00526E+00  9.90994E-01  1.42694E-02
    9071.296     76.233   4.680  1.00120E+00  9.91387E-01  9.81732E-03
    9072.728     77.666   4.720  9.97194E-01  9.91810E-01  5.38478E-03
    9074.173     79.111   4.760  9.92645E-01  9.92240E-01  4.05576E-04
    9075.630     80.568   4.800  9.87179E-01  9.92699E-01 -5.51986E-03
    9077.099     82.037   4.840  9.80820E-01  9.93161E-01 -1.23415E-02
    9078.580     83.518   4.880  9.74151E-01  9.93625E-01 -1.94736E-02
    9080.074     85.012   4.920  9.68132E-01  9.94088E-01 -2.59555E-02
    9081.580     86.517   4.960  9.63703E-01  9.94550E-01 -3.08476E-02
    9083.098     88.035   5.000  9.61494E-01  9.95012E-01 -3.35172E-02
    9084.628     89.565   5.040  9.61621E-01  9.95471E-01 -3.38501E-02
    9086.170     91.108   5.080  9.63592E-01  9.95925E-01 -3.23329E-02
    9087.724     92.662   5.120  9.66403E-01  9.96349E-01 -2.99456E-02
    9089.291     94.229   5.160  9.68855E-01  9.96763E-01 -2.79079E-02
    9090.870     95.808   5.200  9.69955E-01  9.97148E-01 -2.71926E-02
    9092.461     97.399   5.240  9.69351E-01  9.97524E-01 -2.81734E-02
    9094.064     99.002   5.280  9.67314E-01  9.97889E-01 -3.05752E-02
    9095.680    100.617   5.320  9.64469E-01  9.98198E-01 -3.37296E-02
    9097.307    102.245   5.360  9.61575E-01  9.98515E-01 -3.69405E-02
    9098.947    103.885   5.400  9.59152E-01  9.98774E-01 -3.96220E-02
    9100.599    105.537   5.440  9.57672E-01  9.98994E-01 -4.13230E-02
    9102.263    107.201   5.480  9.57485E-01  9.99200E-01 -4.17157E-02
    9103.940    108.877   5.520  9.58711E-01  9.99369E-01 -4.06576E-02
    9105.628    110.566   5.560  9.61256E-01  9.99499E-01 -3.82425E-02
    9107.329    112.267   5.600  9.64767E-01  9.99589E-01 -3.48212E-02
    9109.042    113.980   5.640  9.68687E-01  9.99637E-01 -3.09498E-02
    9110.767    115.705   5.680  9.72341E-01  9.99646E-01 -2.73048E-02
    9112.504    117.442   5.720  9.75102E-01  9.99615E-01 -2.45130E-02
    9114.254    119.192   5.760  9.76686E-01  9.99545E-01 -2.28585E-02
    9116.016    120.954   5.800  9.77367E-01  9.99433E-01 -2.20664E-02
    9117.790    122.727   5.840  9.77954E-01  9.99283E-01 -2.13290E-02
    9119.576    124.514   5.880  9.79491E-01  9.99094E-01 -1.96031E-02
    9121.374    126.312   5.920  9.82841E-01  9.98868E-01 -1.60265E-02
    9123.185    128.122   5.960  9.88342E-01  9.98603E-01 -1.02609E-02
    9125.007    129.945   6.000  9.95887E-01  9.98301E-01 -2.41308E-03
