# # comment:                                                     FEFF 9.9.1  
# # Source:
# # Structure
# # Reduced
# # space
# # abc:
# # angles:
# # sites:
# # POT  SCF 100  7.0000   0, screened core-hole, AFOLP (folp(0)= 1.150)
# # Abs   Z=29 Rmt= 1.240 Rnm= 1.331 K  shell
# # Pot 1 Z=29 Rmt= 1.234 Rnm= 1.337
# # Pot 2 Z=42 Rmt= 1.142 Rnm= 1.356
# # Pot 3 Z=16 Rmt= 0.860 Rnm= 1.104
# # Pot 4 Z= 8 Rmt= 0.998 Rnm= 1.098
# # Gam_ch=1.729E+00 H-L exch Vi= 0.000E+00 Vr= 0.000E+00
# # Mu=-7.112E+00eV kf=2.319E+00 Vint=-1.613E+01eV Rs_int= 1.564
# FMS rfms= 9.0000
# # PATH  Rmax=-1.000,  Keep_limit= 0.00, Heap_limit 0.00  Pwcrit= 2.50%
#  S02=0.950  Temp=   0.00  Debye_temp=   0.00  Global_sig2= 0.00000
#  Energy zero shift, vr, vi    0.00000E+00   0.00000E+00
#  Curved wave amplitude ratio filter   4.000%
#     file         sig2 tot  cw amp ratio   deg  nlegs   reff  inp sig2
#     0/   0 paths used
#  xsedge+ 50, used to normalize mu           2.4741E-04
#  -----------------------------------------------------------------------
#  omega    e    k    mu    mu0     chi     @#
    8983.445    -10.922  -1.000  3.29756E-02  5.08650E-02 -1.78894E-02
    8983.743    -10.624  -0.960  3.44260E-02  5.44998E-02 -2.00738E-02
    8984.030    -10.337  -0.920  3.59586E-02  5.85353E-02 -2.25767E-02
    8984.304    -10.063  -0.880  3.75801E-02  6.30300E-02 -2.54500E-02
    8984.566     -9.801  -0.840  3.92979E-02  6.80525E-02 -2.87547E-02
    8984.816     -9.551  -0.800  4.11203E-02  7.36820E-02 -3.25617E-02
    8985.054     -9.313  -0.760  4.30566E-02  8.00094E-02 -3.69528E-02
    8985.280     -9.088  -0.720  4.51167E-02  8.71374E-02 -4.20207E-02
    8985.493     -8.874  -0.680  4.73110E-02  9.51791E-02 -4.78681E-02
    8985.694     -8.673  -0.640  4.96499E-02  1.04254E-01 -5.46040E-02
    8985.883     -8.484  -0.600  5.21422E-02  1.14479E-01 -6.23366E-02
    8986.060     -8.307  -0.560  5.47939E-02  1.25954E-01 -7.11600E-02
    8986.224     -8.143  -0.520  5.76047E-02  1.38738E-01 -8.11336E-02
    8986.377     -7.990  -0.480  6.05646E-02  1.52818E-01 -9.22537E-02
    8986.517     -7.850  -0.440  6.36496E-02  1.68071E-01 -1.04421E-01
    8986.645     -7.722  -0.400  6.68178E-02  1.84230E-01 -1.17412E-01
    8986.761     -7.606  -0.360  7.00082E-02  2.00880E-01 -1.30872E-01
    8986.865     -7.503  -0.320  7.31441E-02  2.17481E-01 -1.44337E-01
    8986.956     -7.411  -0.280  7.61397E-02  2.33431E-01 -1.57291E-01
    8987.035     -7.332  -0.240  7.89099E-02  2.48153E-01 -1.69244E-01
    8987.102     -7.265  -0.200  8.13784E-02  2.61164E-01 -1.79786E-01
    8987.157     -7.210  -0.160  8.34821E-02  2.72110E-01 -1.88628E-01
    8987.200     -7.167  -0.120  8.51717E-02  2.80763E-01 -1.95591E-01
    8987.230     -7.137  -0.080  8.64105E-02  2.86997E-01 -2.00586E-01
    8987.255     -7.112   0.000  8.74357E-02  2.92006E-01 -2.04571E-01
    8987.310     -7.058   0.120  8.98514E-02  3.03308E-01 -2.13457E-01
    8987.352     -7.015   0.160  9.16924E-02  3.12088E-01 -2.20396E-01
    8987.407     -6.960   0.200  9.40723E-02  3.23288E-01 -2.29216E-01
    8987.474     -6.893   0.240  9.70130E-02  3.36778E-01 -2.39765E-01
    8987.553     -6.814   0.280  1.00504E-01  3.52271E-01 -2.51767E-01
    8987.645     -6.722   0.320  1.04572E-01  3.69377E-01 -2.64805E-01
    8987.748     -6.619   0.360  1.09251E-01  3.87608E-01 -2.78357E-01
    8987.864     -6.503   0.400  1.14554E-01  4.06448E-01 -2.91894E-01
    8987.992     -6.375   0.440  1.20477E-01  4.25405E-01 -3.04928E-01
    8988.133     -6.235   0.480  1.27032E-01  4.44114E-01 -3.17082E-01
    8988.285     -6.082   0.520  1.34078E-01  4.62324E-01 -3.28246E-01
    8988.450     -5.918   0.560  1.41395E-01  4.79929E-01 -3.38534E-01
    8988.626     -5.741   0.600  1.48602E-01  4.96919E-01 -3.48317E-01
    8988.815     -5.552   0.640  1.55404E-01  5.13329E-01 -3.57924E-01
    8989.016     -5.351   0.680  1.61855E-01  5.29245E-01 -3.67389E-01
    8989.230     -5.137   0.720  1.68484E-01  5.44725E-01 -3.76241E-01
    8989.455     -4.912   0.760  1.76222E-01  5.59889E-01 -3.83667E-01
    8989.693     -4.674   0.800  1.85847E-01  5.74786E-01 -3.88939E-01
    8989.943     -4.424   0.840  1.97912E-01  5.89494E-01 -3.91582E-01
    8990.205     -4.162   0.880  2.12911E-01  6.04057E-01 -3.91146E-01
    8990.479     -3.888   0.920  2.31398E-01  6.18509E-01 -3.87111E-01
    8990.766     -3.601   0.960  2.53766E-01  6.32892E-01 -3.79125E-01
    8991.065     -3.302   1.000  2.80269E-01  6.47175E-01 -3.66906E-01
    8991.376     -2.992   1.040  3.11498E-01  6.61426E-01 -3.49929E-01
    8991.699     -2.668   1.080  3.47258E-01  6.75579E-01 -3.28321E-01
    8992.034     -2.333   1.120  3.85814E-01  6.89683E-01 -3.03869E-01
    8992.381     -1.986   1.160  4.24981E-01  7.03686E-01 -2.78705E-01
    8992.741     -1.626   1.200  4.63793E-01  7.17570E-01 -2.53777E-01
    8993.113     -1.254   1.240  5.02788E-01  7.31353E-01 -2.28564E-01
    8993.497     -0.870   1.280  5.46305E-01  7.44969E-01 -1.98664E-01
    8993.893     -0.474   1.320  6.01707E-01  7.58392E-01 -1.56685E-01
    8994.302     -0.066   1.360  6.71161E-01  7.71637E-01 -1.00476E-01
    8994.722      0.355   1.400  7.46091E-01  7.84654E-01 -3.85631E-02
    8995.155      0.788   1.440  8.11099E-01  7.97395E-01  1.37043E-02
    8995.600      1.233   1.480  8.55703E-01  8.09872E-01  4.58310E-02
    8996.057      1.690   1.520  8.86016E-01  8.22052E-01  6.39643E-02
    8996.527      2.160   1.560  9.22408E-01  8.33908E-01  8.85004E-02
    8997.008      2.641   1.600  9.83016E-01  8.45411E-01  1.37605E-01
    8997.502      3.135   1.640  1.06773E+00  8.56533E-01  2.11201E-01
    8998.008      3.641   1.680  1.15912E+00  8.67288E-01  2.91835E-01
    8998.526      4.159   1.720  1.23119E+00  8.77648E-01  3.53543E-01
    8999.057      4.689   1.760  1.26548E+00  8.87567E-01  3.77916E-01
    8999.599      5.232   1.800  1.26912E+00  8.97083E-01  3.72038E-01
    9000.154      5.787   1.840  1.25234E+00  9.06169E-01  3.46171E-01
    9000.721      6.354   1.880  1.21582E+00  9.14784E-01  3.01038E-01
    9001.300      6.933   1.920  1.17542E+00  9.22988E-01  2.52432E-01
    9001.891      7.524   1.960  1.15579E+00  9.30720E-01  2.25071E-01
    9002.495      8.127   2.000  1.16915E+00  9.38020E-01  2.31127E-01
    9003.110      8.743   2.040  1.20167E+00  9.44870E-01  2.56795E-01
    9003.738      9.371   2.080  1.22116E+00  9.51293E-01  2.69865E-01
    9004.378     10.011   2.120  1.21460E+00  9.57272E-01  2.57331E-01
    9005.031     10.663   2.160  1.19348E+00  9.62811E-01  2.30673E-01
    9005.695     11.328   2.200  1.16775E+00  9.67956E-01  1.99797E-01
    9006.372     12.005   2.240  1.14097E+00  9.72690E-01  1.68284E-01
    9007.061     12.693   2.280  1.11312E+00  9.77021E-01  1.36097E-01
    9007.762     13.394   2.320  1.08831E+00  9.80954E-01  1.07358E-01
    9008.475     14.108   2.360  1.07617E+00  9.84539E-01  9.16282E-02
    9009.200     14.833   2.400  1.07194E+00  9.87764E-01  8.41800E-02
    9009.938     15.571   2.440  1.06019E+00  9.90653E-01  6.95419E-02
    9010.688     16.320   2.480  1.03549E+00  9.93217E-01  4.22757E-02
    9011.450     17.082   2.520  9.99661E-01  9.95484E-01  4.17666E-03
    9012.224     17.857   2.560  9.60851E-01  9.97441E-01 -3.65898E-02
    9013.010     18.643   2.600  9.30391E-01  9.99136E-01 -6.87446E-02
    9013.809     19.442   2.640  9.15238E-01  1.00056E+00 -8.53203E-02
    9014.620     20.252   2.680  9.14776E-01  1.00176E+00 -8.69818E-02
    9015.442     21.075   2.720  9.23470E-01  1.00272E+00 -7.92501E-02
    9016.278     21.910   2.760  9.28663E-01  1.00347E+00 -7.48110E-02
    9017.125     22.758   2.800  9.26134E-01  1.00403E+00 -7.78954E-02
    9017.985     23.617   2.840  9.20121E-01  1.00441E+00 -8.42911E-02
    9018.856     24.489   2.880  9.14349E-01  1.00463E+00 -9.02807E-02
    9019.740     25.373   2.920  9.10379E-01  1.00469E+00 -9.43124E-02
    9020.636     26.269   2.960  9.08572E-01  1.00462E+00 -9.60501E-02
    9021.545     27.177   3.000  9.08614E-01  1.00443E+00 -9.58166E-02
    9022.465     28.098   3.040  9.09832E-01  1.00414E+00 -9.43127E-02
    9023.398     29.031   3.080  9.11777E-01  1.00375E+00 -9.19707E-02
    9024.343     29.975   3.120  9.14362E-01  1.00327E+00 -8.89036E-02
    9025.300     30.933   3.160  9.17513E-01  1.00271E+00 -8.51923E-02
    9026.269     31.902   3.200  9.21360E-01  1.00209E+00 -8.07345E-02
    9027.250     32.883   3.240  9.26108E-01  1.00144E+00 -7.53296E-02
    9028.244     33.877   3.280  9.31661E-01  1.00074E+00 -6.90768E-02
    9029.250     34.883   3.320  9.37959E-01  9.99999E-01 -6.20398E-02
    9030.268     35.901   3.360  9.44954E-01  9.99226E-01 -5.42723E-02
    9031.298     36.931   3.400  9.52513E-01  9.98444E-01 -4.59318E-02
    9032.341     37.973   3.440  9.60399E-01  9.97658E-01 -3.72589E-02
    9033.395     39.028   3.480  9.68508E-01  9.96869E-01 -2.83617E-02
    9034.462     40.095   3.520  9.76826E-01  9.96080E-01 -1.92542E-02
    9035.541     41.174   3.560  9.85358E-01  9.95297E-01 -9.93904E-03
    9036.632     42.265   3.600  9.94164E-01  9.94541E-01 -3.76790E-04
    9037.735     43.368   3.640  1.00305E+00  9.93793E-01  9.26002E-03
    9038.851     44.484   3.680  1.01144E+00  9.93079E-01  1.83608E-02
    9039.979     45.612   3.720  1.01844E+00  9.92400E-01  2.60415E-02
    9041.119     46.752   3.760  1.02323E+00  9.91755E-01  3.14747E-02
    9042.271     47.904   3.800  1.02547E+00  9.91127E-01  3.43426E-02
    9043.435     49.068   3.840  1.02567E+00  9.90558E-01  3.51143E-02
    9044.612     50.245   3.880  1.02488E+00  9.90006E-01  3.48729E-02
    9045.800     51.433   3.920  1.02423E+00  9.89516E-01  3.47167E-02
    9047.001     52.634   3.960  1.02434E+00  9.89045E-01  3.52902E-02
    9048.214     53.847   4.000  1.02533E+00  9.88639E-01  3.66938E-02
    9049.440     55.073   4.040  1.02684E+00  9.88275E-01  3.85689E-02
    9050.677     56.310   4.080  1.02830E+00  9.87954E-01  4.03478E-02
    9051.927     57.560   4.120  1.02918E+00  9.87697E-01  4.14785E-02
    9053.189     58.822   4.160  1.02899E+00  9.87461E-01  4.15315E-02
    9054.463     60.096   4.200  1.02746E+00  9.87289E-01  4.01719E-02
    9055.749     61.382   4.240  1.02428E+00  9.87161E-01  3.71202E-02
    9057.048     62.680   4.280  1.01931E+00  9.87074E-01  3.22384E-02
    9058.358     63.991   4.320  1.01264E+00  9.87029E-01  2.56092E-02
    9059.681     65.314   4.360  1.00466E+00  9.87046E-01  1.76157E-02
    9061.016     66.649   4.400  9.96007E-01  9.87083E-01  8.92392E-03
    9062.363     67.996   4.440  9.87498E-01  9.87158E-01  3.40083E-04
    9063.723     69.355   4.480  9.79905E-01  9.87293E-01 -7.38838E-03
    9065.094     70.727   4.520  9.73736E-01  9.87445E-01 -1.37094E-02
    9066.478     72.111   4.560  9.69276E-01  9.87632E-01 -1.83567E-02
    9067.874     73.507   4.600  9.66521E-01  9.87854E-01 -2.13337E-02
    9069.282     74.915   4.640  9.65281E-01  9.88088E-01 -2.28067E-02
    9070.702     76.335   4.680  9.65387E-01  9.88355E-01 -2.29686E-02
    9072.135     77.768   4.720  9.66725E-01  9.88655E-01 -2.19300E-02
    9073.580     79.213   4.760  9.69279E-01  9.88964E-01 -1.96850E-02
    9075.037     80.670   4.800  9.73082E-01  9.89304E-01 -1.62215E-02
    9076.506     82.139   4.840  9.78023E-01  9.89652E-01 -1.16281E-02
    9077.987     83.620   4.880  9.83904E-01  9.90026E-01 -6.12210E-03
    9079.481     85.114   4.920  9.90396E-01  9.90405E-01 -8.70613E-06
    9080.986     86.619   4.960  9.97191E-01  9.90786E-01  6.40537E-03
    9082.504     88.137   5.000  1.00402E+00  9.91167E-01  1.28560E-02
    9084.034     89.667   5.040  1.01064E+00  9.91548E-01  1.90881E-02
    9085.577     91.210   5.080  1.01668E+00  9.91928E-01  2.47543E-02
    9087.131     92.764   5.120  1.02164E+00  9.92306E-01  2.93308E-02
    9088.698     94.331   5.160  1.02487E+00  9.92681E-01  3.21859E-02
    9090.277     95.910   5.200  1.02583E+00  9.93050E-01  3.27796E-02
    9091.868     97.501   5.240  1.02429E+00  9.93391E-01  3.08995E-02
    9093.471     99.104   5.280  1.02048E+00  9.93724E-01  2.67516E-02
    9095.086    100.719   5.320  1.01488E+00  9.94025E-01  2.08543E-02
    9096.714    102.347   5.360  1.00811E+00  9.94319E-01  1.37887E-02
    9098.354    103.987   5.400  1.00065E+00  9.94604E-01  6.04831E-03
    9100.006    105.639   5.440  9.92942E-01  9.94855E-01 -1.91258E-03
    9101.670    107.303   5.480  9.85482E-01  9.95071E-01 -9.58841E-03
    9103.346    108.979   5.520  9.78783E-01  9.95274E-01 -1.64902E-02
    9105.035    110.668   5.560  9.73123E-01  9.95419E-01 -2.22956E-02
    9106.736    112.369   5.600  9.68676E-01  9.95572E-01 -2.68965E-02
    9108.449    114.082   5.640  9.65364E-01  9.95667E-01 -3.03030E-02
    9110.174    115.807   5.680  9.63213E-01  9.95723E-01 -3.25097E-02
    9111.911    117.544   5.720  9.62256E-01  9.95766E-01 -3.35103E-02
    9113.661    119.294   5.760  9.62374E-01  9.95773E-01 -3.33988E-02
    9115.423    121.055   5.800  9.63328E-01  9.95742E-01 -3.24140E-02
    9117.196    122.829   5.840  9.64832E-01  9.95671E-01 -3.08391E-02
    9118.983    124.615   5.880  9.66701E-01  9.95566E-01 -2.88648E-02
    9120.781    126.414   5.920  9.68941E-01  9.95448E-01 -2.65069E-02
    9122.591    128.224   5.960  9.71632E-01  9.95266E-01 -2.36335E-02
    9124.414    130.047   6.000  9.75108E-01  9.95021E-01 -1.99133E-02
