# # comment:                                                     FEFF 9.9.1  
# # Source:
# # Structure
# # Reduced
# # space
# # abc:
# # angles:
# # sites:
# # POT  SCF 100  7.0000   0, screened core-hole, AFOLP (folp(0)= 1.150)
# # Abs   Z=29 Rmt= 1.330 Rnm= 1.401 K  shell
# # Pot 1 Z=30 Rmt= 1.386 Rnm= 1.460
# # Pot 2 Z=29 Rmt= 1.329 Rnm= 1.400
# # Pot 3 Z=42 Rmt= 1.166 Rnm= 1.365
# # Pot 4 Z= 8 Rmt= 0.940 Rnm= 1.080
# # Gam_ch=1.729E+00 H-L exch Vi= 0.000E+00 Vr= 0.000E+00
# # Mu=-5.662E+00eV kf=2.271E+00 Vint=-1.573E+01eV Rs_int= 1.597
# FMS rfms= 9.0000
# # PATH  Rmax=-1.000,  Keep_limit= 0.00, Heap_limit 0.00  Pwcrit= 2.50%
#  S02=0.950  Temp=   0.00  Debye_temp=   0.00  Global_sig2= 0.00000
#  Energy zero shift, vr, vi    0.00000E+00   0.00000E+00
#  Curved wave amplitude ratio filter   4.000%
#     file         sig2 tot  cw amp ratio   deg  nlegs   reff  inp sig2
#     0/   0 paths used
#  xsedge+ 50, used to normalize mu           2.4595E-04
#  -----------------------------------------------------------------------
#  omega    e    k    mu    mu0     chi     @#
    8983.472     -9.472  -1.000  5.16071E-02  5.72890E-02 -5.68197E-03
    8983.771     -9.173  -0.960  5.50328E-02  6.15546E-02 -6.52173E-03
    8984.057     -8.887  -0.920  5.88082E-02  6.63037E-02 -7.49546E-03
    8984.331     -8.613  -0.880  6.29832E-02  7.16083E-02 -8.62517E-03
    8984.594     -8.350  -0.840  6.76162E-02  7.75526E-02 -9.93639E-03
    8984.844     -8.101  -0.800  7.27751E-02  8.42337E-02 -1.14585E-02
    8985.081     -7.863  -0.760  7.85384E-02  9.17635E-02 -1.32252E-02
    8985.307     -7.637  -0.720  8.49947E-02  1.00269E-01 -1.52740E-02
    8985.520     -7.424  -0.680  9.22424E-02  1.09889E-01 -1.76462E-02
    8985.721     -7.223  -0.640  1.00385E-01  1.20771E-01 -2.03853E-02
    8985.910     -7.034  -0.600  1.09526E-01  1.33060E-01 -2.35340E-02
    8986.087     -6.857  -0.560  1.19750E-01  1.46880E-01 -2.71299E-02
    8986.252     -6.692  -0.520  1.31109E-01  1.62306E-01 -3.11973E-02
    8986.404     -6.540  -0.480  1.43585E-01  1.79323E-01 -3.57378E-02
    8986.544     -6.400  -0.440  1.57063E-01  1.97781E-01 -4.07180E-02
    8986.672     -6.272  -0.400  1.71296E-01  2.17356E-01 -4.60591E-02
    8986.788     -6.156  -0.360  1.85907E-01  2.37538E-01 -5.16313E-02
    8986.892     -6.052  -0.320  2.00407E-01  2.57666E-01 -5.72596E-02
    8986.983     -5.961  -0.280  2.14266E-01  2.77006E-01 -6.27406E-02
    8987.062     -5.882  -0.240  2.26985E-01  2.94852E-01 -6.78679E-02
    8987.130     -5.815  -0.200  2.38160E-01  3.10617E-01 -7.24565E-02
    8987.184     -5.760  -0.160  2.47512E-01  3.23870E-01 -7.63581E-02
    8987.227     -5.717  -0.120  2.54875E-01  3.34341E-01 -7.94669E-02
    8987.258     -5.687  -0.080  2.60163E-01  3.41882E-01 -8.17183E-02
    8987.282     -5.662   0.000  2.64396E-01  3.47938E-01 -8.35418E-02
    8987.337     -5.607   0.120  2.73662E-01  3.61581E-01 -8.79192E-02
    8987.379     -5.565   0.160  2.80900E-01  3.72170E-01 -9.12708E-02
    8987.434     -5.510   0.200  2.90131E-01  3.85687E-01 -9.55564E-02
    8987.501     -5.443   0.240  3.01237E-01  4.01915E-01 -1.00678E-01
    8987.581     -5.363   0.280  3.14004E-01  4.20510E-01 -1.06506E-01
    8987.672     -5.272   0.320  3.28193E-01  4.40977E-01 -1.12784E-01
    8987.776     -5.168   0.360  3.43515E-01  4.62680E-01 -1.19165E-01
    8987.892     -5.053   0.400  3.59732E-01  4.84988E-01 -1.25256E-01
    8988.020     -4.925   0.440  3.76539E-01  5.07264E-01 -1.30725E-01
    8988.160     -4.784   0.480  3.93537E-01  5.29048E-01 -1.35511E-01
    8988.312     -4.632   0.520  4.09967E-01  5.50049E-01 -1.40082E-01
    8988.477     -4.467   0.560  4.24681E-01  5.70111E-01 -1.45429E-01
    8988.654     -4.291   0.600  4.36472E-01  5.89199E-01 -1.52728E-01
    8988.842     -4.102   0.640  4.44802E-01  6.07381E-01 -1.62579E-01
    8989.044     -3.900   0.680  4.50318E-01  6.24743E-01 -1.74425E-01
    8989.257     -3.687   0.720  4.55000E-01  6.41408E-01 -1.86408E-01
    8989.483     -3.462   0.760  4.61832E-01  6.57442E-01 -1.95610E-01
    8989.720     -3.224   0.800  4.74384E-01  6.72977E-01 -1.98593E-01
    8989.970     -2.974   0.840  4.95560E-01  6.88089E-01 -1.92529E-01
    8990.232     -2.712   0.880  5.25542E-01  7.02844E-01 -1.77302E-01
    8990.507     -2.437   0.920  5.60159E-01  7.17267E-01 -1.57108E-01
    8990.793     -2.151   0.960  5.93174E-01  7.31414E-01 -1.38239E-01
    8991.092     -1.852   1.000  6.21987E-01  7.45309E-01 -1.23322E-01
    8991.403     -1.541   1.040  6.50206E-01  7.58944E-01 -1.08738E-01
    8991.726     -1.218   1.080  6.83489E-01  7.72345E-01 -8.88565E-02
    8992.061     -0.883   1.120  7.22907E-01  7.85508E-01 -6.26019E-02
    8992.409     -0.535   1.160  7.62234E-01  7.98427E-01 -3.61924E-02
    8992.768     -0.176   1.200  7.92801E-01  8.11087E-01 -1.82861E-02
    8993.140      0.196   1.240  8.10172E-01  8.23454E-01 -1.32817E-02
    8993.524      0.580   1.280  8.18988E-01  8.35547E-01 -1.65589E-02
    8993.920      0.976   1.320  8.34944E-01  8.47306E-01 -1.23620E-02
    8994.329      1.385   1.360  8.71511E-01  8.58750E-01  1.27615E-02
    8994.749      1.805   1.400  9.29890E-01  8.69854E-01  6.00363E-02
    8995.182      2.238   1.440  1.00969E+00  8.80576E-01  1.29114E-01
    8995.627      2.683   1.480  1.10963E+00  8.90930E-01  2.18697E-01
    8996.084      3.140   1.520  1.21640E+00  9.00873E-01  3.15532E-01
    8996.554      3.610   1.560  1.30798E+00  9.10420E-01  3.97559E-01
    8997.035      4.091   1.600  1.36418E+00  9.19529E-01  4.44654E-01
    8997.529      4.585   1.640  1.37719E+00  9.28197E-01  4.48994E-01
    8998.035      5.091   1.680  1.35951E+00  9.36443E-01  4.23068E-01
    8998.553      5.609   1.720  1.32997E+00  9.44225E-01  3.85741E-01
    8999.084      6.140   1.760  1.29251E+00  9.51565E-01  3.40948E-01
    8999.626      6.682   1.800  1.24654E+00  9.58464E-01  2.88079E-01
    9000.181      7.237   1.840  1.20210E+00  9.64902E-01  2.37202E-01
    9000.748      7.804   1.880  1.16727E+00  9.70902E-01  1.96363E-01
    9001.327      8.383   1.920  1.14155E+00  9.76449E-01  1.65106E-01
    9001.918      8.974   1.960  1.12148E+00  9.81566E-01  1.39911E-01
    9002.522      9.578   2.000  1.10487E+00  9.86260E-01  1.18605E-01
    9003.138     10.193   2.040  1.09205E+00  9.90558E-01  1.01491E-01
    9003.765     10.821   2.080  1.08652E+00  9.94425E-01  9.20923E-02
    9004.406     11.461   2.120  1.09026E+00  9.97928E-01  9.23334E-02
    9005.058     12.114   2.160  1.09665E+00  1.00103E+00  9.56140E-02
    9005.722     12.778   2.200  1.09947E+00  1.00379E+00  9.56801E-02
    9006.399     13.455   2.240  1.09929E+00  1.00622E+00  9.30723E-02
    9007.088     14.144   2.280  1.09077E+00  1.00831E+00  8.24592E-02
    9007.789     14.845   2.320  1.06756E+00  1.01010E+00  5.74575E-02
    9008.502     15.558   2.360  1.03518E+00  1.01158E+00  2.36038E-02
    9009.227     16.283   2.400  1.00067E+00  1.01281E+00 -1.21487E-02
    9009.965     17.021   2.440  9.67297E-01  1.01378E+00 -4.64805E-02
    9010.715     17.771   2.480  9.37882E-01  1.01450E+00 -7.66140E-02
    9011.477     18.533   2.520  9.15676E-01  1.01500E+00 -9.93231E-02
    9012.251     19.307   2.560  9.02115E-01  1.01529E+00 -1.13180E-01
    9013.037     20.093   2.600  8.96667E-01  1.01539E+00 -1.18727E-01
    9013.836     20.892   2.640  8.97296E-01  1.01534E+00 -1.18047E-01
    9014.647     21.703   2.680  8.99104E-01  1.01513E+00 -1.16028E-01
    9015.470     22.526   2.720  8.99924E-01  1.01477E+00 -1.14846E-01
    9016.305     23.361   2.760  9.02052E-01  1.01430E+00 -1.12251E-01
    9017.152     24.208   2.800  9.04982E-01  1.01372E+00 -1.08737E-01
    9018.012     25.068   2.840  9.07945E-01  1.01305E+00 -1.05101E-01
    9018.883     25.939   2.880  9.10698E-01  1.01229E+00 -1.01591E-01
    9019.767     26.823   2.920  9.13534E-01  1.01145E+00 -9.79210E-02
    9020.663     27.719   2.960  9.16961E-01  1.01057E+00 -9.36097E-02
    9021.572     28.628   3.000  9.21189E-01  1.00964E+00 -8.84527E-02
    9022.492     29.548   3.040  9.26319E-01  1.00867E+00 -8.23558E-02
    9023.425     30.481   3.080  9.32473E-01  1.00769E+00 -7.52219E-02
    9024.370     31.426   3.120  9.39300E-01  1.00669E+00 -6.73856E-02
    9025.327     32.383   3.160  9.46320E-01  1.00569E+00 -5.93726E-02
    9026.296     33.352   3.200  9.53158E-01  1.00468E+00 -5.15205E-02
    9027.278     34.334   3.240  9.59714E-01  1.00369E+00 -4.39751E-02
    9028.271     35.327   3.280  9.66088E-01  1.00271E+00 -3.66183E-02
    9029.277     36.333   3.320  9.72639E-01  1.00175E+00 -2.91144E-02
    9030.295     37.351   3.360  9.79684E-01  1.00081E+00 -2.11298E-02
    9031.325     38.381   3.400  9.87396E-01  9.99931E-01 -1.25344E-02
    9032.368     39.424   3.440  9.95667E-01  9.99065E-01 -3.39809E-03
    9033.422     40.478   3.480  1.00436E+00  9.98240E-01  6.12153E-03
    9034.489     41.545   3.520  1.01327E+00  9.97480E-01  1.57875E-02
    9035.568     42.624   3.560  1.02228E+00  9.96763E-01  2.55152E-02
    9036.659     43.715   3.600  1.03138E+00  9.96092E-01  3.52836E-02
    9037.763     44.819   3.640  1.04054E+00  9.95491E-01  4.50446E-02
    9038.878     45.934   3.680  1.04940E+00  9.94936E-01  5.44590E-02
    9040.006     47.062   3.720  1.05742E+00  9.94451E-01  6.29731E-02
    9041.146     48.202   3.760  1.06392E+00  9.94015E-01  6.99089E-02
    9042.298     49.354   3.800  1.06834E+00  9.93649E-01  7.46963E-02
    9043.462     50.518   3.840  1.07048E+00  9.93330E-01  7.71450E-02
    9044.639     51.695   3.880  1.07037E+00  9.93060E-01  7.73071E-02
    9045.828     52.884   3.920  1.06809E+00  9.92861E-01  7.52253E-02
    9047.029     54.084   3.960  1.06357E+00  9.92732E-01  7.08336E-02
    9048.242     55.298   4.000  1.05688E+00  9.92650E-01  6.42321E-02
    9049.467     56.523   4.040  1.04826E+00  9.92616E-01  5.56457E-02
    9050.704     57.760   4.080  1.03818E+00  9.92650E-01  4.55305E-02
    9051.954     59.010   4.120  1.02739E+00  9.92730E-01  3.46602E-02
    9053.216     60.272   4.160  1.01683E+00  9.92876E-01  2.39562E-02
    9054.490     61.546   4.200  1.00721E+00  9.93045E-01  1.41684E-02
    9055.776     62.832   4.240  9.99027E-01  9.93278E-01  5.74939E-03
    9057.075     64.131   4.280  9.92363E-01  9.93553E-01 -1.19030E-03
    9058.385     65.441   4.320  9.87104E-01  9.93866E-01 -6.76273E-03
    9059.708     66.764   4.360  9.83079E-01  9.94218E-01 -1.11388E-02
    9061.043     68.099   4.400  9.80154E-01  9.94585E-01 -1.44309E-02
    9062.390     69.446   4.440  9.78247E-01  9.95008E-01 -1.67612E-02
    9063.750     70.806   4.480  9.77221E-01  9.95444E-01 -1.82223E-02
    9065.121     72.177   4.520  9.76980E-01  9.95889E-01 -1.89091E-02
    9066.505     73.561   4.560  9.77400E-01  9.96385E-01 -1.89857E-02
    9067.901     74.957   4.600  9.78191E-01  9.96868E-01 -1.86764E-02
    9069.309     76.365   4.640  9.79122E-01  9.97376E-01 -1.82544E-02
    9070.730     77.786   4.680  9.79832E-01  9.97889E-01 -1.80568E-02
    9072.162     79.218   4.720  9.79942E-01  9.98404E-01 -1.84620E-02
    9073.607     80.663   4.760  9.79153E-01  9.98942E-01 -1.97890E-02
    9075.064     82.120   4.800  9.77332E-01  9.99456E-01 -2.21236E-02
    9076.533     83.589   4.840  9.74790E-01  9.99965E-01 -2.51750E-02
    9078.014     85.070   4.880  9.72134E-01  1.00047E+00 -2.83358E-02
    9079.508     86.564   4.920  9.70020E-01  1.00097E+00 -3.09500E-02
    9081.014     88.070   4.960  9.68944E-01  1.00144E+00 -3.24956E-02
    9082.532     89.587   5.000  9.69282E-01  1.00190E+00 -3.26175E-02
    9084.062     91.118   5.040  9.71236E-01  1.00233E+00 -3.10916E-02
    9085.604     92.660   5.080  9.74940E-01  1.00274E+00 -2.78021E-02
    9087.158     94.214   5.120  9.80321E-01  1.00312E+00 -2.28012E-02
    9088.725     95.781   5.160  9.87099E-01  1.00346E+00 -1.63641E-02
    9090.304     97.360   5.200  9.94818E-01  1.00377E+00 -8.95087E-03
    9091.895     98.951   5.240  1.00290E+00  1.00406E+00 -1.16172E-03
    9093.498    100.554   5.280  1.01069E+00  1.00431E+00  6.38004E-03
    9095.114    102.170   5.320  1.01759E+00  1.00449E+00  1.30964E-02
    9096.741    103.797   5.360  1.02317E+00  1.00466E+00  1.85063E-02
    9098.381    105.437   5.400  1.02708E+00  1.00479E+00  2.22898E-02
    9100.033    107.089   5.440  1.02918E+00  1.00485E+00  2.43320E-02
    9101.697    108.753   5.480  1.02959E+00  1.00489E+00  2.46931E-02
    9103.374    110.430   5.520  1.02839E+00  1.00487E+00  2.35136E-02
    9105.062    112.118   5.560  1.02585E+00  1.00483E+00  2.10182E-02
    9106.763    113.819   5.600  1.02225E+00  1.00472E+00  1.75219E-02
    9108.476    115.532   5.640  1.01798E+00  1.00458E+00  1.34069E-02
    9110.201    117.257   5.680  1.01344E+00  1.00441E+00  9.02814E-03
    9111.938    118.994   5.720  1.00887E+00  1.00418E+00  4.68933E-03
    9113.688    120.744   5.760  1.00457E+00  1.00391E+00  6.57698E-04
    9115.450    122.506   5.800  1.00079E+00  1.00360E+00 -2.81035E-03
    9117.224    124.280   5.840  9.97764E-01  1.00325E+00 -5.48177E-03
    9119.010    126.066   5.880  9.95665E-01  1.00286E+00 -7.19273E-03
    9120.808    127.864   5.920  9.94531E-01  1.00244E+00 -7.90505E-03
    9122.619    129.675   5.960  9.94223E-01  1.00198E+00 -7.75774E-03
    9124.441    131.497   6.000  9.94501E-01  1.00149E+00 -6.99087E-03
