# # comment:                                                     FEFF 9.9.1  
# # Source:
# # Structure
# # Reduced
# # space
# # abc:
# # angles:
# # sites:
# # POT  SCF 100  7.0000   0, screened core-hole, AFOLP (folp(0)= 1.150)
# # Abs   Z=29 Rmt= 1.262 Rnm= 1.321 K  shell
# # Pot 1 Z=26 Rmt= 1.323 Rnm= 1.415
# # Pot 2 Z=29 Rmt= 1.255 Rnm= 1.339
# # Pot 3 Z= 8 Rmt= 1.029 Rnm= 1.104
# # Gam_ch=1.729E+00 H-L exch Vi= 0.000E+00 Vr= 0.000E+00
# # Mu=-1.060E+01eV kf=2.147E+00 Vint=-1.727E+01eV Rs_int= 1.689
# FMS rfms= 9.0000
# # PATH  Rmax=-1.000,  Keep_limit= 0.00, Heap_limit 0.00  Pwcrit= 2.50%
#  S02=0.950  Temp=   0.00  Debye_temp=   0.00  Global_sig2= 0.00000
#  Energy zero shift, vr, vi    0.00000E+00   0.00000E+00
#  Curved wave amplitude ratio filter   4.000%
#     file         sig2 tot  cw amp ratio   deg  nlegs   reff  inp sig2
#     0/   0 paths used
#  xsedge+ 50, used to normalize mu           2.4643E-04
#  -----------------------------------------------------------------------
#  omega    e    k    mu    mu0     chi     @#
    8984.650    -14.406  -1.000  3.01065E-02  4.87208E-02 -1.86143E-02
    8984.949    -14.107  -0.960  3.13832E-02  5.20719E-02 -2.06888E-02
    8985.235    -13.821  -0.920  3.27435E-02  5.57780E-02 -2.30345E-02
    8985.510    -13.546  -0.880  3.41985E-02  5.98894E-02 -2.56909E-02
    8985.772    -13.284  -0.840  3.57614E-02  6.44649E-02 -2.87036E-02
    8986.022    -13.034  -0.800  3.74478E-02  6.95722E-02 -3.21245E-02
    8986.260    -12.797  -0.760  3.92763E-02  7.52887E-02 -3.60125E-02
    8986.485    -12.571  -0.720  4.12684E-02  8.17018E-02 -4.04333E-02
    8986.698    -12.358  -0.680  4.34486E-02  8.89070E-02 -4.54584E-02
    8986.900    -12.157  -0.640  4.58432E-02  9.70051E-02 -5.11619E-02
    8987.089    -11.968  -0.600  4.84786E-02  1.06094E-01 -5.76159E-02
    8987.265    -11.791  -0.560  5.13776E-02  1.16258E-01 -6.48806E-02
    8987.430    -11.626  -0.520  5.45538E-02  1.27545E-01 -7.29907E-02
    8987.582    -11.474  -0.480  5.80034E-02  1.39939E-01 -8.19360E-02
    8987.723    -11.334  -0.440  6.16959E-02  1.53335E-01 -9.16390E-02
    8987.851    -11.206  -0.400  6.55663E-02  1.67503E-01 -1.01936E-01
    8987.966    -11.090  -0.360  6.95128E-02  1.82086E-01 -1.12573E-01
    8988.070    -10.986  -0.320  7.34048E-02  1.96620E-01 -1.23215E-01
    8988.161    -10.895  -0.280  7.70998E-02  2.10588E-01 -1.33489E-01
    8988.241    -10.815  -0.240  8.04656E-02  2.23493E-01 -1.43027E-01
    8988.308    -10.748  -0.200  8.33984E-02  2.34911E-01 -1.51513E-01
    8988.363    -10.694  -0.160  8.58310E-02  2.44531E-01 -1.58700E-01
    8988.405    -10.651  -0.120  8.77295E-02  2.52146E-01 -1.64417E-01
    8988.436    -10.620  -0.080  8.90827E-02  2.57641E-01 -1.68558E-01
    8988.460    -10.596   0.000  9.01594E-02  2.62060E-01 -1.71901E-01
    8988.515    -10.541   0.120  9.25619E-02  2.72044E-01 -1.79482E-01
    8988.558    -10.498   0.160  9.43654E-02  2.79812E-01 -1.85447E-01
    8988.613    -10.444   0.200  9.65975E-02  2.89781E-01 -1.93183E-01
    8988.680    -10.377   0.240  9.91421E-02  3.01799E-01 -2.02657E-01
    8988.759    -10.297   0.280  1.01871E-01  3.15705E-01 -2.13834E-01
    8988.850    -10.206   0.320  1.04549E-01  3.31155E-01 -2.26605E-01
    8988.954    -10.102   0.360  1.07001E-01  3.47784E-01 -2.40784E-01
    8989.070     -9.986   0.400  1.09060E-01  3.65184E-01 -2.56124E-01
    8989.198     -9.858   0.440  1.10625E-01  3.82936E-01 -2.72311E-01
    8989.338     -9.718   0.480  1.11821E-01  4.00770E-01 -2.88949E-01
    8989.490     -9.566   0.520  1.12847E-01  4.18499E-01 -3.05652E-01
    8989.655     -9.401   0.560  1.13828E-01  4.35997E-01 -3.22169E-01
    8989.832     -9.224   0.600  1.14844E-01  4.53275E-01 -3.38431E-01
    8990.021     -9.035   0.640  1.15698E-01  4.70335E-01 -3.54637E-01
    8990.222     -8.834   0.680  1.16370E-01  4.87261E-01 -3.70892E-01
    8990.435     -8.621   0.720  1.17031E-01  5.04069E-01 -3.87039E-01
    8990.661     -8.395   0.760  1.18310E-01  5.20851E-01 -4.02541E-01
    8990.899     -8.158   0.800  1.20906E-01  5.37650E-01 -4.16744E-01
    8991.148     -7.908   0.840  1.25347E-01  5.54459E-01 -4.29112E-01
    8991.411     -7.646   0.880  1.32002E-01  5.71342E-01 -4.39339E-01
    8991.685     -7.371   0.920  1.40865E-01  5.88308E-01 -4.47443E-01
    8991.971     -7.085   0.960  1.51703E-01  6.05318E-01 -4.53615E-01
    8992.270     -6.786   1.000  1.64591E-01  6.22365E-01 -4.57774E-01
    8992.581     -6.475   1.040  1.80349E-01  6.39455E-01 -4.59106E-01
    8992.904     -6.152   1.080  2.00524E-01  6.56526E-01 -4.56002E-01
    8993.239     -5.817   1.120  2.26507E-01  6.73571E-01 -4.47064E-01
    8993.587     -5.469   1.160  2.58523E-01  6.90541E-01 -4.32018E-01
    8993.947     -5.110   1.200  2.95488E-01  7.07381E-01 -4.11893E-01
    8994.318     -4.738   1.240  3.35117E-01  7.24058E-01 -3.88941E-01
    8994.702     -4.354   1.280  3.73014E-01  7.40531E-01 -3.67517E-01
    8995.099     -3.957   1.320  4.06938E-01  7.56745E-01 -3.49807E-01
    8995.507     -3.549   1.360  4.42567E-01  7.72659E-01 -3.30092E-01
    8995.928     -3.128   1.400  4.87836E-01  7.88215E-01 -3.00379E-01
    8996.361     -2.696   1.440  5.46273E-01  8.03394E-01 -2.57120E-01
    8996.806     -2.251   1.480  6.15286E-01  8.18158E-01 -2.02871E-01
    8997.263     -1.793   1.520  6.89231E-01  8.32432E-01 -1.43201E-01
    8997.732     -1.324   1.560  7.67813E-01  8.46222E-01 -7.84095E-02
    8998.214     -0.842   1.600  8.54373E-01  8.59493E-01 -5.11980E-03
    8998.707     -0.349   1.640  9.42084E-01  8.72214E-01  6.98692E-02
    8999.213      0.157   1.680  1.01943E+00  8.84357E-01  1.35071E-01
    8999.732      0.675   1.720  1.09012E+00  8.95933E-01  1.94188E-01
    9000.262      1.206   1.760  1.15633E+00  9.06877E-01  2.49449E-01
    9000.805      1.748   1.800  1.21217E+00  9.17227E-01  2.94946E-01
    9001.359      2.303   1.840  1.27250E+00  9.26979E-01  3.45519E-01
    9001.926      2.870   1.880  1.37256E+00  9.36096E-01  4.36467E-01
    9002.505      3.449   1.920  1.55351E+00  9.44618E-01  6.08892E-01
    9003.097      4.040   1.960  1.80778E+00  9.52529E-01  8.55249E-01
    9003.700      4.644   2.000  2.00148E+00  9.59856E-01  1.04163E+00
    9004.316      5.260   2.040  1.96873E+00  9.66605E-01  1.00213E+00
    9004.944      5.888   2.080  1.76222E+00  9.72782E-01  7.89442E-01
    9005.584      6.528   2.120  1.51373E+00  9.78397E-01  5.35337E-01
    9006.236      7.180   2.160  1.27804E+00  9.83501E-01  2.94541E-01
    9006.900      7.844   2.200  1.09923E+00  9.88084E-01  1.11146E-01
    9007.577      8.521   2.240  9.93849E-01  9.92198E-01  1.65116E-03
    9008.266      9.210   2.280  9.40001E-01  9.95833E-01 -5.58320E-02
    9008.967      9.911   2.320  9.10411E-01  9.99021E-01 -8.86107E-02
    9009.680     10.624   2.360  8.91068E-01  1.00180E+00 -1.10729E-01
    9010.406     11.350   2.400  8.77772E-01  1.00419E+00 -1.26419E-01
    9011.143     12.087   2.440  8.66897E-01  1.00622E+00 -1.39322E-01
    9011.893     12.837   2.480  8.60971E-01  1.00789E+00 -1.46920E-01
    9012.655     13.599   2.520  8.75532E-01  1.00926E+00 -1.33727E-01
    9013.429     14.373   2.560  9.24469E-01  1.01031E+00 -8.58460E-02
    9014.216     15.160   2.600  9.79970E-01  1.01111E+00 -3.11437E-02
    9015.014     15.958   2.640  1.01583E+00  1.01167E+00  4.16788E-03
    9015.825     16.769   2.680  1.03140E+00  1.01200E+00  1.93973E-02
    9016.648     17.592   2.720  1.03183E+00  1.01211E+00  1.97208E-02
    9017.483     18.427   2.760  1.01903E+00  1.01204E+00  6.98370E-03
    9018.330     19.274   2.800  9.94316E-01  1.01181E+00 -1.74972E-02
    9019.190     20.134   2.840  9.62108E-01  1.01143E+00 -4.93199E-02
    9020.062     21.006   2.880  9.27359E-01  1.01094E+00 -8.35774E-02
    9020.946     21.889   2.920  8.94491E-01  1.01031E+00 -1.15815E-01
    9021.842     22.786   2.960  8.66659E-01  1.00961E+00 -1.42948E-01
    9022.750     23.694   3.000  8.45065E-01  1.00881E+00 -1.63741E-01
    9023.671     24.614   3.040  8.29852E-01  1.00795E+00 -1.78099E-01
    9024.603     25.547   3.080  8.20641E-01  1.00705E+00 -1.86407E-01
    9025.548     26.492   3.120  8.15800E-01  1.00608E+00 -1.90281E-01
    9026.505     27.449   3.160  8.14368E-01  1.00510E+00 -1.90732E-01
    9027.474     28.418   3.200  8.16025E-01  1.00411E+00 -1.88084E-01
    9028.456     29.400   3.240  8.20770E-01  1.00309E+00 -1.82323E-01
    9029.449     30.393   3.280  8.28881E-01  1.00210E+00 -1.73216E-01
    9030.455     31.399   3.320  8.40556E-01  1.00110E+00 -1.60547E-01
    9031.473     32.417   3.360  8.55657E-01  1.00012E+00 -1.44460E-01
    9032.504     33.447   3.400  8.73104E-01  9.99160E-01 -1.26057E-01
    9033.546     34.490   3.440  8.91968E-01  9.98216E-01 -1.06247E-01
    9034.601     35.544   3.480  9.11617E-01  9.97308E-01 -8.56908E-02
    9035.667     36.611   3.520  9.31839E-01  9.96461E-01 -6.46225E-02
    9036.746     37.690   3.560  9.52835E-01  9.95635E-01 -4.27996E-02
    9037.838     38.781   3.600  9.75066E-01  9.94872E-01 -1.98063E-02
    9038.941     39.885   3.640  9.98684E-01  9.94153E-01  4.53102E-03
    9040.056     41.000   3.680  1.02350E+00  9.93480E-01  3.00149E-02
    9041.184     42.128   3.720  1.04895E+00  9.92877E-01  5.60779E-02
    9042.324     43.268   3.760  1.07389E+00  9.92320E-01  8.15695E-02
    9043.476     44.420   3.800  1.09652E+00  9.91833E-01  1.04685E-01
    9044.641     45.585   3.840  1.11526E+00  9.91396E-01  1.23865E-01
    9045.817     46.761   3.880  1.12944E+00  9.91028E-01  1.38408E-01
    9047.006     47.950   3.920  1.13947E+00  9.90708E-01  1.48764E-01
    9048.207     49.151   3.960  1.14661E+00  9.90435E-01  1.56180E-01
    9049.420     50.364   4.000  1.15197E+00  9.90231E-01  1.61734E-01
    9050.645     51.589   4.040  1.15553E+00  9.90097E-01  1.65434E-01
    9051.883     52.827   4.080  1.15605E+00  9.89990E-01  1.66058E-01
    9053.132     54.076   4.120  1.15191E+00  9.89971E-01  1.61935E-01
    9054.394     55.338   4.160  1.14173E+00  9.89978E-01  1.51754E-01
    9055.668     56.612   4.200  1.12539E+00  9.90050E-01  1.35336E-01
    9056.955     57.898   4.240  1.10407E+00  9.90165E-01  1.13906E-01
    9058.253     59.197   4.280  1.07993E+00  9.90324E-01  8.96030E-02
    9059.564     60.507   4.320  1.05512E+00  9.90546E-01  6.45786E-02
    9060.886     61.830   4.360  1.03128E+00  9.90785E-01  4.04987E-02
    9062.221     63.165   4.400  1.00951E+00  9.91063E-01  1.84461E-02
    9063.569     64.513   4.440  9.90282E-01  9.91378E-01 -1.09614E-03
    9064.928     65.872   4.480  9.73505E-01  9.91729E-01 -1.82239E-02
    9066.300     67.244   4.520  9.58739E-01  9.92115E-01 -3.33755E-02
    9067.683     68.627   4.560  9.45691E-01  9.92512E-01 -4.68215E-02
    9069.079     70.023   4.600  9.34548E-01  9.92940E-01 -5.83928E-02
    9070.488     71.431   4.640  9.25746E-01  9.93376E-01 -6.76309E-02
    9071.908     72.852   4.680  9.19688E-01  9.93839E-01 -7.41511E-02
    9073.341     74.284   4.720  9.16407E-01  9.94308E-01 -7.79012E-02
    9074.785     75.729   4.760  9.15681E-01  9.94782E-01 -7.91007E-02
    9076.242     77.186   4.800  9.17138E-01  9.95278E-01 -7.81396E-02
    9077.711     78.655   4.840  9.20274E-01  9.95752E-01 -7.54777E-02
    9079.193     80.137   4.880  9.24702E-01  9.96224E-01 -7.15216E-02
    9080.686     81.630   4.920  9.30103E-01  9.96716E-01 -6.66124E-02
    9082.192     83.136   4.960  9.36236E-01  9.97181E-01 -6.09447E-02
    9083.710     84.654   5.000  9.42985E-01  9.97617E-01 -5.46318E-02
    9085.240     86.184   5.040  9.50339E-01  9.98068E-01 -4.77293E-02
    9086.782     87.726   5.080  9.58193E-01  9.98489E-01 -4.02959E-02
    9088.337     89.280   5.120  9.66358E-01  9.98876E-01 -3.25175E-02
    9089.903     90.847   5.160  9.74799E-01  9.99252E-01 -2.44538E-02
    9091.482     92.426   5.200  9.83781E-01  9.99596E-01 -1.58147E-02
    9093.073     94.017   5.240  9.93777E-01  9.99927E-01 -6.15022E-03
    9094.676     95.620   5.280  1.00475E+00  1.00022E+00  4.52115E-03
    9096.292     97.236   5.320  1.01583E+00  1.00048E+00  1.53499E-02
    9097.919     98.863   5.360  1.02564E+00  1.00073E+00  2.49098E-02
    9099.559    100.503   5.400  1.03254E+00  1.00091E+00  3.16295E-02
    9101.211    102.155   5.440  1.03528E+00  1.00107E+00  3.42037E-02
    9102.876    103.819   5.480  1.03317E+00  1.00118E+00  3.19931E-02
    9104.552    105.496   5.520  1.02660E+00  1.00126E+00  2.53416E-02
    9106.240    107.184   5.560  1.01658E+00  1.00131E+00  1.52687E-02
    9107.941    108.885   5.600  1.00406E+00  1.00131E+00  2.74890E-03
    9109.654    110.598   5.640  9.89721E-01  1.00126E+00 -1.15354E-02
    9111.379    112.323   5.680  9.74395E-01  1.00118E+00 -2.67857E-02
    9113.117    114.061   5.720  9.59500E-01  1.00107E+00 -4.15675E-02
    9114.866    115.810   5.760  9.47120E-01  1.00092E+00 -5.37948E-02
    9116.628    117.572   5.800  9.39441E-01  1.00072E+00 -6.12824E-02
    9118.402    119.346   5.840  9.37972E-01  1.00049E+00 -6.25219E-02
    9120.188    121.132   5.880  9.43029E-01  1.00023E+00 -5.71981E-02
    9121.986    122.930   5.920  9.53723E-01  9.99926E-01 -4.62027E-02
    9123.797    124.741   5.960  9.68479E-01  9.99615E-01 -3.11359E-02
    9125.620    126.563   6.000  9.85995E-01  9.99218E-01 -1.32230E-02
