# # comment:                                                     FEFF 9.9.1  
# # Source:
# # Structure
# # Reduced
# # space
# # abc:
# # angles:109.159356
# # sites:
# # POT  SCF 100  7.0000   0, screened core-hole, AFOLP (folp(0)= 1.150)
# # Abs   Z=29 Rmt= 1.328 Rnm= 1.393 K  shell
# # Pot 1 Z=12 Rmt= 1.666 Rnm= 1.689
# # Pot 2 Z=29 Rmt= 1.316 Rnm= 1.383
# # Pot 3 Z=74 Rmt= 1.382 Rnm= 1.503
# # Pot 4 Z= 8 Rmt= 1.003 Rnm= 1.083
# # Gam_ch=1.729E+00 H-L exch Vi= 0.000E+00 Vr= 0.000E+00
# # Mu=-6.225E+00eV kf=2.206E+00 Vint=-1.614E+01eV Rs_int= 1.644
# FMS rfms= 9.0000
# # PATH  Rmax=-1.000,  Keep_limit= 0.00, Heap_limit 0.00  Pwcrit= 2.50%
#  S02=0.950  Temp=   0.00  Debye_temp=   0.00  Global_sig2= 0.00000
#  Energy zero shift, vr, vi    0.00000E+00   0.00000E+00
#  Curved wave amplitude ratio filter   4.000%
#     file         sig2 tot  cw amp ratio   deg  nlegs   reff  inp sig2
#     0/   0 paths used
#  xsedge+ 50, used to normalize mu           2.4564E-04
#  -----------------------------------------------------------------------
#  omega    e    k    mu    mu0     chi     @#
    8983.545    -10.035  -1.000  5.34984E-02  5.72430E-02 -3.74455E-03
    8983.844     -9.736  -0.960  5.70811E-02  6.14918E-02 -4.41071E-03
    8984.131     -9.449  -0.920  6.10129E-02  6.62209E-02 -5.20796E-03
    8984.405     -9.175  -0.880  6.53380E-02  7.15015E-02 -6.16353E-03
    8984.667     -8.913  -0.840  7.01066E-02  7.74170E-02 -7.31036E-03
    8984.917     -8.663  -0.800  7.53757E-02  8.40637E-02 -8.68798E-03
    8985.155     -8.425  -0.760  8.12091E-02  9.15525E-02 -1.03433E-02
    8985.380     -8.200  -0.720  8.76772E-02  1.00009E-01 -1.23313E-02
    8985.594     -7.986  -0.680  9.48555E-02  1.09570E-01 -1.47145E-02
    8985.795     -7.785  -0.640  1.02821E-01  1.20383E-01 -1.75614E-02
    8985.984     -7.596  -0.600  1.11648E-01  1.32590E-01 -2.09426E-02
    8986.161     -7.420  -0.560  1.21393E-01  1.46316E-01 -2.49229E-02
    8986.325     -7.255  -0.520  1.32083E-01  1.61632E-01 -2.95491E-02
    8986.478     -7.103  -0.480  1.43692E-01  1.78524E-01 -3.48327E-02
    8986.618     -6.962  -0.440  1.56114E-01  1.96844E-01 -4.07298E-02
    8986.746     -6.834  -0.400  1.69146E-01  2.16270E-01 -4.71236E-02
    8986.862     -6.718  -0.360  1.82479E-01  2.36298E-01 -5.38191E-02
    8986.965     -6.615  -0.320  1.95714E-01  2.56271E-01 -6.05578E-02
    8987.057     -6.523  -0.280  2.08410E-01  2.75463E-01 -6.70522E-02
    8987.136     -6.444  -0.240  2.20141E-01  2.93173E-01 -7.30317E-02
    8987.203     -6.377  -0.200  2.30539E-01  3.08818E-01 -7.82787E-02
    8987.258     -6.322  -0.160  2.39324E-01  3.21972E-01 -8.26475E-02
    8987.301     -6.280  -0.120  2.46304E-01  3.32365E-01 -8.60609E-02
    8987.331     -6.249  -0.080  2.51356E-01  3.39849E-01 -8.84932E-02
    8987.355     -6.225   0.000  2.55427E-01  3.45859E-01 -9.04322E-02
    8987.410     -6.170   0.120  2.64611E-01  3.59411E-01 -9.48002E-02
    8987.453     -6.127   0.160  2.71802E-01  3.69922E-01 -9.81200E-02
    8987.508     -6.072   0.200  2.81091E-01  3.83336E-01 -1.02244E-01
    8987.575     -6.005   0.240  2.92486E-01  3.99459E-01 -1.06973E-01
    8987.654     -5.926   0.280  3.05939E-01  4.17955E-01 -1.12016E-01
    8987.746     -5.835   0.320  3.21375E-01  4.38293E-01 -1.16918E-01
    8987.849     -5.731   0.360  3.38844E-01  4.59908E-01 -1.21064E-01
    8987.965     -5.615   0.400  3.58476E-01  4.82115E-01 -1.23640E-01
    8988.093     -5.487   0.440  3.80698E-01  5.04328E-01 -1.23630E-01
    8988.233     -5.347   0.480  4.06312E-01  5.26071E-01 -1.19759E-01
    8988.386     -5.194   0.520  4.36569E-01  5.47077E-01 -1.10508E-01
    8988.550     -5.030   0.560  4.73048E-01  5.67172E-01 -9.41231E-02
    8988.727     -4.853   0.600  5.17187E-01  5.86321E-01 -6.91348E-02
    8988.916     -4.664   0.640  5.69014E-01  6.04611E-01 -3.55970E-02
    8989.117     -4.463   0.680  6.24908E-01  6.22108E-01  2.80013E-03
    8989.330     -4.250   0.720  6.76606E-01  6.38934E-01  3.76726E-02
    8989.556     -4.024   0.760  7.14300E-01  6.55188E-01  5.91118E-02
    8989.794     -3.786   0.800  7.33259E-01  6.70964E-01  6.22949E-02
    8990.044     -3.536   0.840  7.35483E-01  6.86315E-01  4.91680E-02
    8990.306     -3.274   0.880  7.23730E-01  7.01345E-01  2.23854E-02
    8990.580     -3.000   0.920  6.99355E-01  7.16080E-01 -1.67251E-02
    8990.867     -2.713   0.960  6.68774E-01  7.30531E-01 -6.17566E-02
    8991.165     -2.415   1.000  6.43739E-01  7.44762E-01 -1.01023E-01
    8991.476     -2.104   1.040  6.33061E-01  7.58764E-01 -1.25703E-01
    8991.799     -1.781   1.080  6.39102E-01  7.72539E-01 -1.33438E-01
    8992.135     -1.445   1.120  6.60034E-01  7.86064E-01 -1.26030E-01
    8992.482     -1.098   1.160  6.95256E-01  7.99370E-01 -1.04115E-01
    8992.842     -0.738   1.200  7.47384E-01  8.12403E-01 -6.50188E-02
    8993.214     -0.366   1.240  8.19460E-01  8.25184E-01 -5.72386E-03
    8993.598      0.018   1.280  9.10938E-01  8.37655E-01  7.32828E-02
    8993.994      0.414   1.320  1.01113E+00  8.49832E-01  1.61298E-01
    8994.402      0.822   1.360  1.08740E+00  8.61652E-01  2.25748E-01
    8994.823      1.243   1.400  1.10073E+00  8.73130E-01  2.27597E-01
    8995.256      1.676   1.440  1.05441E+00  8.84242E-01  1.70170E-01
    8995.701      2.121   1.480  9.90108E-01  8.94939E-01  9.51690E-02
    8996.158      2.578   1.520  9.39958E-01  9.05240E-01  3.47177E-02
    8996.627      3.047   1.560  9.12906E-01  9.15119E-01 -2.21299E-03
    8997.109      3.529   1.600  9.08872E-01  9.24552E-01 -1.56797E-02
    8997.603      4.023   1.640  9.32214E-01  9.33535E-01 -1.32032E-03
    8998.109      4.529   1.680  9.85484E-01  9.42045E-01  4.34390E-02
    8998.627      5.047   1.720  1.05238E+00  9.50102E-01  1.02275E-01
    8999.157      5.577   1.760  1.10670E+00  9.57683E-01  1.49018E-01
    8999.700      6.120   1.800  1.13924E+00  9.64791E-01  1.74450E-01
    9000.254      6.674   1.840  1.15633E+00  9.71407E-01  1.84921E-01
    9000.821      7.241   1.880  1.17176E+00  9.77573E-01  1.94188E-01
    9001.401      7.820   1.920  1.19464E+00  9.83273E-01  2.11367E-01
    9001.992      8.412   1.960  1.22071E+00  9.88511E-01  2.32200E-01
    9002.595      9.015   2.000  1.24106E+00  9.93291E-01  2.47771E-01
    9003.211      9.631   2.040  1.25084E+00  9.97642E-01  2.53201E-01
    9003.839     10.259   2.080  1.25012E+00  1.00157E+00  2.48552E-01
    9004.479     10.899   2.120  1.24548E+00  1.00506E+00  2.40417E-01
    9005.131     11.551   2.160  1.24893E+00  1.00819E+00  2.40744E-01
    9005.796     12.216   2.200  1.26914E+00  1.01091E+00  2.58224E-01
    9006.472     12.892   2.240  1.29759E+00  1.01329E+00  2.84302E-01
    9007.161     13.581   2.280  1.30272E+00  1.01530E+00  2.87416E-01
    9007.862     14.282   2.320  1.25782E+00  1.01698E+00  2.40837E-01
    9008.575     14.995   2.360  1.17257E+00  1.01837E+00  1.54208E-01
    9009.301     15.721   2.400  1.07633E+00  1.01946E+00  5.68772E-02
    9010.039     16.458   2.440  9.91388E-01  1.02029E+00 -2.89002E-02
    9010.788     17.208   2.480  9.25708E-01  1.02085E+00 -9.51380E-02
    9011.550     17.970   2.520  8.76578E-01  1.02118E+00 -1.44605E-01
    9012.324     18.744   2.560  8.41981E-01  1.02131E+00 -1.79325E-01
    9013.111     19.531   2.600  8.25690E-01  1.02123E+00 -1.95536E-01
    9013.909     20.329   2.640  8.33084E-01  1.02095E+00 -1.87869E-01
    9014.720     21.140   2.680  8.44579E-01  1.02053E+00 -1.75954E-01
    9015.543     21.963   2.720  8.51967E-01  1.01996E+00 -1.67991E-01
    9016.378     22.798   2.760  8.53819E-01  1.01925E+00 -1.65436E-01
    9017.226     23.646   2.800  8.53290E-01  1.01845E+00 -1.65163E-01
    9018.085     24.505   2.840  8.53308E-01  1.01754E+00 -1.64231E-01
    9018.957     25.377   2.880  8.54551E-01  1.01654E+00 -1.61992E-01
    9019.841     26.261   2.920  8.56544E-01  1.01549E+00 -1.58942E-01
    9020.737     27.157   2.960  8.59233E-01  1.01436E+00 -1.55128E-01
    9021.645     28.065   3.000  8.62882E-01  1.01319E+00 -1.50310E-01
    9022.566     28.986   3.040  8.68201E-01  1.01200E+00 -1.43803E-01
    9023.498     29.918   3.080  8.76051E-01  1.01078E+00 -1.34732E-01
    9024.443     30.863   3.120  8.87289E-01  1.00953E+00 -1.22244E-01
    9025.400     31.820   3.160  9.02437E-01  1.00830E+00 -1.05866E-01
    9026.370     32.790   3.200  9.21845E-01  1.00708E+00 -8.52301E-02
    9027.351     33.771   3.240  9.45271E-01  1.00587E+00 -6.06034E-02
    9028.345     34.765   3.280  9.71383E-01  1.00468E+00 -3.32992E-02
    9029.351     35.770   3.320  9.98366E-01  1.00350E+00 -5.13909E-03
    9030.369     36.789   3.360  1.02413E+00  1.00238E+00  2.17454E-02
    9031.399     37.819   3.400  1.04673E+00  1.00130E+00  4.54283E-02
    9032.441     38.861   3.440  1.06540E+00  1.00027E+00  6.51345E-02
    9033.496     39.916   3.480  1.08023E+00  9.99276E-01  8.09514E-02
    9034.563     40.983   3.520  1.09114E+00  9.98354E-01  9.27893E-02
    9035.642     42.062   3.560  1.09731E+00  9.97501E-01  9.98142E-02
    9036.733     43.153   3.600  1.09749E+00  9.96677E-01  1.00809E-01
    9037.836     44.256   3.640  1.09106E+00  9.95946E-01  9.51131E-02
    9038.952     45.372   3.680  1.07850E+00  9.95267E-01  8.32366E-02
    9040.079     46.499   3.720  1.06174E+00  9.94663E-01  6.70739E-02
    9041.219     47.639   3.760  1.04348E+00  9.94113E-01  4.93638E-02
    9042.372     48.791   3.800  1.02668E+00  9.93658E-01  3.30202E-02
    9043.536     49.956   3.840  1.01380E+00  9.93258E-01  2.05453E-02
    9044.712     51.132   3.880  1.00643E+00  9.92933E-01  1.34997E-02
    9045.901     52.321   3.920  1.00510E+00  9.92662E-01  1.24381E-02
    9047.102     53.522   3.960  1.00954E+00  9.92488E-01  1.70471E-02
    9048.315     54.735   4.000  1.01854E+00  9.92366E-01  2.61735E-02
    9049.540     55.960   4.040  1.03024E+00  9.92296E-01  3.79468E-02
    9050.778     57.198   4.080  1.04240E+00  9.92320E-01  5.00760E-02
    9052.028     58.448   4.120  1.05256E+00  9.92396E-01  6.01632E-02
    9053.289     59.709   4.160  1.05899E+00  9.92520E-01  6.64716E-02
    9054.564     60.983   4.200  1.06051E+00  9.92714E-01  6.78001E-02
    9055.850     62.270   4.240  1.05652E+00  9.92956E-01  6.35596E-02
    9057.148     63.568   4.280  1.04734E+00  9.93262E-01  5.40801E-02
    9058.459     64.879   4.320  1.03436E+00  9.93592E-01  4.07671E-02
    9059.782     66.202   4.360  1.01968E+00  9.93985E-01  2.56928E-02
    9061.117     67.537   4.400  1.00547E+00  9.94420E-01  1.10529E-02
    9062.464     68.884   4.440  9.93511E-01  9.94894E-01 -1.38275E-03
    9063.823     70.243   4.480  9.84894E-01  9.95404E-01 -1.05107E-02
    9065.195     71.615   4.520  9.80039E-01  9.95927E-01 -1.58885E-02
    9066.579     72.999   4.560  9.78605E-01  9.96484E-01 -1.78794E-02
    9067.975     74.395   4.600  9.79706E-01  9.97073E-01 -1.73666E-02
    9069.383     75.803   4.640  9.82248E-01  9.97670E-01 -1.54220E-02
    9070.803     77.223   4.680  9.85203E-01  9.98293E-01 -1.30897E-02
    9072.236     78.656   4.720  9.87600E-01  9.98897E-01 -1.12970E-02
    9073.680     80.100   4.760  9.88656E-01  9.99525E-01 -1.08696E-02
    9075.137     81.557   4.800  9.87546E-01  1.00015E+00 -1.26078E-02
    9076.607     83.026   4.840  9.83601E-01  1.00078E+00 -1.71777E-02
    9078.088     84.508   4.880  9.76650E-01  1.00138E+00 -2.47256E-02
    9079.581     86.001   4.920  9.67362E-01  1.00197E+00 -3.46042E-02
    9081.087     87.507   4.960  9.57052E-01  1.00255E+00 -4.54961E-02
    9082.605     89.025   5.000  9.47131E-01  1.00310E+00 -5.59702E-02
    9084.135     90.555   5.040  9.38717E-01  1.00364E+00 -6.49257E-02
    9085.677     92.097   5.080  9.32547E-01  1.00415E+00 -7.16032E-02
    9087.232     93.652   5.120  9.29140E-01  1.00464E+00 -7.55029E-02
    9088.798     95.218   5.160  9.28807E-01  1.00508E+00 -7.62688E-02
    9090.377     96.797   5.200  9.31798E-01  1.00549E+00 -7.36927E-02
    9091.968     98.388   5.240  9.38115E-01  1.00587E+00 -6.77503E-02
    9093.572     99.992   5.280  9.47581E-01  1.00618E+00 -5.85948E-02
    9095.187    101.607   5.320  9.60013E-01  1.00647E+00 -4.64543E-02
    9096.815    103.235   5.360  9.75064E-01  1.00671E+00 -3.16509E-02
    9098.455    104.874   5.400  9.92166E-01  1.00690E+00 -1.47291E-02
    9100.107    106.526   5.440  1.01036E+00  1.00703E+00  3.33064E-03
    9101.771    108.191   5.480  1.02812E+00  1.00712E+00  2.09978E-02
    9103.447    109.867   5.520  1.04358E+00  1.00717E+00  3.64089E-02
    9105.136    111.556   5.560  1.05523E+00  1.00714E+00  4.80913E-02
    9106.836    113.256   5.600  1.06272E+00  1.00707E+00  5.56451E-02
    9108.549    114.969   5.640  1.06661E+00  1.00696E+00  5.96531E-02
    9110.275    116.695   5.680  1.06761E+00  1.00680E+00  6.08086E-02
    9112.012    118.432   5.720  1.06569E+00  1.00658E+00  5.91128E-02
    9113.762    120.181   5.760  1.06033E+00  1.00630E+00  5.40306E-02
    9115.523    121.943   5.800  1.05157E+00  1.00599E+00  4.55737E-02
    9117.297    123.717   5.840  1.04076E+00  1.00564E+00  3.51275E-02
    9119.083    125.503   5.880  1.03010E+00  1.00522E+00  2.48847E-02
    9120.882    127.302   5.920  1.02130E+00  1.00479E+00  1.65097E-02
    9122.692    129.112   5.960  1.01464E+00  1.00430E+00  1.03472E-02
    9124.515    130.935   6.000  1.00922E+00  1.00376E+00  5.46114E-03
