# # comment:                                                     FEFF 9.9.1  
# # Source:
# # Structure
# # Reduced
# # space
# # abc:
# # angles:126.058214
# # sites:
# # POT  SCF 100  7.0000   0, screened core-hole, AFOLP (folp(0)= 1.150)
# # Abs   Z=29 Rmt= 1.154 Rnm= 1.345 K  shell
# # Pot 1 Z=81 Rmt= 1.746 Rnm= 1.831
# # Pot 2 Z=29 Rmt= 1.242 Rnm= 1.338
# # Pot 3 Z= 8 Rmt= 1.016 Rnm= 1.113
# # Gam_ch=1.729E+00 H-L exch Vi= 0.000E+00 Vr= 0.000E+00
# # Mu=-6.222E+00eV kf=1.988E+00 Vint=-1.384E+01eV Rs_int= 1.824
# FMS rfms= 9.0000
# # PATH  Rmax=-1.000,  Keep_limit= 0.00, Heap_limit 0.00  Pwcrit= 2.50%
#  S02=0.950  Temp=   0.00  Debye_temp=   0.00  Global_sig2= 0.00000
#  Energy zero shift, vr, vi    0.00000E+00   0.00000E+00
#  Curved wave amplitude ratio filter   4.000%
#     file         sig2 tot  cw amp ratio   deg  nlegs   reff  inp sig2
#     0/   0 paths used
#  xsedge+ 50, used to normalize mu           2.4220E-04
#  -----------------------------------------------------------------------
#  omega    e    k    mu    mu0     chi     @#
    8983.524    -10.032  -1.000  4.83287E-02  5.78796E-02 -9.55088E-03
    8983.822     -9.733  -0.960  5.15304E-02  6.21113E-02 -1.05809E-02
    8984.109     -9.447  -0.920  5.50653E-02  6.68113E-02 -1.17460E-02
    8984.383     -9.172  -0.880  5.89815E-02  7.20479E-02 -1.30664E-02
    8984.645     -8.910  -0.840  6.33353E-02  7.79005E-02 -1.45653E-02
    8984.895     -8.660  -0.800  6.81919E-02  8.44612E-02 -1.62694E-02
    8985.133     -8.422  -0.760  7.36262E-02  9.18353E-02 -1.82091E-02
    8985.359     -8.197  -0.720  7.97231E-02  1.00142E-01 -2.04185E-02
    8985.572     -7.984  -0.680  8.65761E-02  1.09511E-01 -2.29348E-02
    8985.773     -7.782  -0.640  9.42843E-02  1.20081E-01 -2.57968E-02
    8985.962     -7.593  -0.600  1.02946E-01  1.31987E-01 -2.90417E-02
    8986.139     -7.417  -0.560  1.12645E-01  1.45344E-01 -3.26999E-02
    8986.303     -7.252  -0.520  1.23435E-01  1.60221E-01 -3.67860E-02
    8986.456     -7.100  -0.480  1.35312E-01  1.76599E-01 -4.12872E-02
    8986.596     -6.959  -0.440  1.48187E-01  1.94337E-01 -4.61503E-02
    8986.724     -6.831  -0.400  1.61857E-01  2.13128E-01 -5.12715E-02
    8986.840     -6.716  -0.360  1.75994E-01  2.32490E-01 -5.64959E-02
    8986.943     -6.612  -0.320  1.90164E-01  2.51797E-01 -6.16330E-02
    8987.035     -6.521  -0.280  2.03869E-01  2.70354E-01 -6.64842E-02
    8987.114     -6.441  -0.240  2.16614E-01  2.87490E-01 -7.08757E-02
    8987.181     -6.374  -0.200  2.27963E-01  3.02643E-01 -7.46793E-02
    8987.236     -6.319  -0.160  2.37579E-01  3.15397E-01 -7.78174E-02
    8987.279     -6.277  -0.120  2.45233E-01  3.25485E-01 -8.02516E-02
    8987.309     -6.246  -0.080  2.50786E-01  3.32756E-01 -8.19702E-02
    8987.334     -6.222   0.000  2.55295E-01  3.38600E-01 -8.33053E-02
    8987.388     -6.167   0.120  2.65147E-01  3.51785E-01 -8.66374E-02
    8987.431     -6.124   0.160  2.72850E-01  3.62050E-01 -8.91998E-02
    8987.486     -6.069   0.200  2.82674E-01  3.75155E-01 -9.24810E-02
    8987.553     -6.002   0.240  2.94482E-01  3.90957E-01 -9.64754E-02
    8987.632     -5.923   0.280  3.07962E-01  4.09161E-01 -1.01199E-01
    8987.724     -5.832   0.320  3.22545E-01  4.29290E-01 -1.06745E-01
    8987.827     -5.728   0.360  3.37477E-01  4.50797E-01 -1.13320E-01
    8987.943     -5.612   0.400  3.51833E-01  4.73121E-01 -1.21288E-01
    8988.071     -5.484   0.440  3.64638E-01  4.95688E-01 -1.31050E-01
    8988.211     -5.344   0.480  3.75191E-01  5.18083E-01 -1.42892E-01
    8988.364     -5.192   0.520  3.83320E-01  5.40019E-01 -1.56699E-01
    8988.528     -5.027   0.560  3.89526E-01  5.61353E-01 -1.71827E-01
    8988.705     -4.850   0.600  3.94872E-01  5.82067E-01 -1.87195E-01
    8988.894     -4.661   0.640  4.00600E-01  6.02152E-01 -2.01552E-01
    8989.095     -4.460   0.680  4.08014E-01  6.21739E-01 -2.13725E-01
    8989.309     -4.247   0.720  4.18237E-01  6.40848E-01 -2.22610E-01
    8989.534     -4.021   0.760  4.32450E-01  6.59578E-01 -2.27128E-01
    8989.772     -3.783   0.800  4.51650E-01  6.77977E-01 -2.26327E-01
    8990.022     -3.533   0.840  4.76347E-01  6.96122E-01 -2.19775E-01
    8990.284     -3.271   0.880  5.06142E-01  7.14010E-01 -2.07868E-01
    8990.558     -2.997   0.920  5.39737E-01  7.31668E-01 -1.91931E-01
    8990.845     -2.711   0.960  5.74908E-01  7.49087E-01 -1.74178E-01
    8991.144     -2.412   1.000  6.08524E-01  7.66291E-01 -1.57767E-01
    8991.454     -2.101   1.040  6.36718E-01  7.83211E-01 -1.46493E-01
    8991.778     -1.778   1.080  6.56443E-01  7.99852E-01 -1.43409E-01
    8992.113     -1.443   1.120  6.67541E-01  8.16196E-01 -1.48655E-01
    8992.460     -1.095   1.160  6.73509E-01  8.32155E-01 -1.58646E-01
    8992.820     -0.735   1.200  6.79919E-01  8.47742E-01 -1.67823E-01
    8993.192     -0.364   1.240  6.92579E-01  8.62886E-01 -1.70307E-01
    8993.576      0.020   1.280  7.17237E-01  8.77555E-01 -1.60318E-01
    8993.972      0.417   1.320  7.57342E-01  8.91716E-01 -1.34374E-01
    8994.381      0.825   1.360  8.09156E-01  9.05338E-01 -9.61826E-02
    8994.801      1.246   1.400  8.59763E-01  9.18390E-01 -5.86277E-02
    8995.234      1.679   1.440  8.92884E-01  9.30840E-01 -3.79560E-02
    8995.679      2.124   1.480  9.01335E-01  9.42638E-01 -4.13030E-02
    8996.136      2.581   1.520  8.94598E-01  9.53821E-01 -5.92226E-02
    8996.606      3.050   1.560  8.88229E-01  9.64298E-01 -7.60697E-02
    8997.087      3.532   1.600  8.89265E-01  9.74129E-01 -8.48646E-02
    8997.581      4.026   1.640  8.95923E-01  9.83273E-01 -8.73507E-02
    8998.087      4.531   1.680  9.06373E-01  9.91731E-01 -8.53584E-02
    8998.605      5.050   1.720  9.21449E-01  9.99505E-01 -7.80561E-02
    8999.135      5.580   1.760  9.42193E-01  1.00660E+00 -6.44076E-02
    8999.678      6.123   1.800  9.69332E-01  1.01304E+00 -4.37118E-02
    9000.233      6.677   1.840  1.00386E+00  1.01884E+00 -1.49869E-02
    9000.800      7.244   1.880  1.04616E+00  1.02399E+00  2.21705E-02
    9001.379      7.823   1.920  1.09814E+00  1.02855E+00  6.95853E-02
    9001.970      8.415   1.960  1.16347E+00  1.03251E+00  1.30957E-01
    9002.574      9.018   2.000  1.22855E+00  1.03591E+00  1.92639E-01
    9003.189      9.634   2.040  1.25686E+00  1.03879E+00  2.18076E-01
    9003.817     10.262   2.080  1.22988E+00  1.04114E+00  1.88743E-01
    9004.457     10.902   2.120  1.16823E+00  1.04301E+00  1.25218E-01
    9005.109     11.554   2.160  1.10798E+00  1.04446E+00  6.35255E-02
    9005.774     12.219   2.200  1.07364E+00  1.04546E+00  2.81760E-02
    9006.451     12.895   2.240  1.06929E+00  1.04608E+00  2.32181E-02
    9007.139     13.584   2.280  1.09072E+00  1.04634E+00  4.43789E-02
    9007.840     14.285   2.320  1.12881E+00  1.04628E+00  8.25342E-02
    9008.554     14.998   2.360  1.17044E+00  1.04589E+00  1.24551E-01
    9009.279     15.724   2.400  1.20005E+00  1.04524E+00  1.54810E-01
    9010.017     16.461   2.440  1.20840E+00  1.04434E+00  1.64063E-01
    9010.767     17.211   2.480  1.20534E+00  1.04322E+00  1.62112E-01
    9011.529     17.973   2.520  1.19831E+00  1.04193E+00  1.56385E-01
    9012.303     18.747   2.560  1.18898E+00  1.04044E+00  1.48538E-01
    9013.089     19.534   2.600  1.17661E+00  1.03881E+00  1.37795E-01
    9013.888     20.332   2.640  1.16061E+00  1.03706E+00  1.23554E-01
    9014.698     21.143   2.680  1.14052E+00  1.03519E+00  1.05333E-01
    9015.521     21.966   2.720  1.11661E+00  1.03325E+00  8.33532E-02
    9016.357     22.801   2.760  1.09035E+00  1.03124E+00  5.91127E-02
    9017.204     23.648   2.800  1.06357E+00  1.02916E+00  3.44044E-02
    9018.063     24.508   2.840  1.03807E+00  1.02706E+00  1.10061E-02
    9018.935     25.380   2.880  1.01586E+00  1.02496E+00 -9.09639E-03
    9019.819     26.264   2.920  9.97937E-01  1.02285E+00 -2.49109E-02
    9020.715     27.160   2.960  9.84218E-01  1.02074E+00 -3.65237E-02
    9021.623     28.068   3.000  9.73831E-01  1.01864E+00 -4.48131E-02
    9022.544     28.989   3.040  9.65755E-01  1.01660E+00 -5.08497E-02
    9023.477     29.921   3.080  9.59297E-01  1.01458E+00 -5.52877E-02
    9024.422     30.866   3.120  9.54542E-01  1.01263E+00 -5.80901E-02
    9025.379     31.823   3.160  9.51756E-01  1.01075E+00 -5.89949E-02
    9026.348     32.792   3.200  9.51189E-01  1.00892E+00 -5.77352E-02
    9027.329     33.774   3.240  9.52783E-01  1.00717E+00 -5.43907E-02
    9028.323     34.768   3.280  9.55903E-01  1.00550E+00 -4.96002E-02
    9029.329     35.773   3.320  9.59602E-01  1.00392E+00 -4.43136E-02
    9030.347     36.791   3.360  9.62992E-01  1.00242E+00 -3.94238E-02
    9031.377     37.822   3.400  9.65476E-01  1.00102E+00 -3.55489E-02
    9032.419     38.864   3.440  9.66756E-01  9.99723E-01 -3.29679E-02
    9033.474     39.919   3.480  9.66998E-01  9.98535E-01 -3.15371E-02
    9034.541     40.985   3.520  9.66413E-01  9.97438E-01 -3.10253E-02
    9035.620     42.064   3.560  9.64991E-01  9.96457E-01 -3.14654E-02
    9036.711     43.156   3.600  9.62407E-01  9.95569E-01 -3.31617E-02
    9037.814     44.259   3.640  9.58419E-01  9.94817E-01 -3.63978E-02
    9038.930     45.375   3.680  9.53265E-01  9.94139E-01 -4.08741E-02
    9040.058     46.502   3.720  9.47890E-01  9.93599E-01 -4.57094E-02
    9041.198     47.642   3.760  9.43491E-01  9.93153E-01 -4.96615E-02
    9042.350     48.794   3.800  9.41052E-01  9.92820E-01 -5.17683E-02
    9043.514     49.959   3.840  9.40781E-01  9.92582E-01 -5.18008E-02
    9044.691     51.135   3.880  9.42253E-01  9.92458E-01 -5.02051E-02
    9045.879     52.324   3.920  9.44748E-01  9.92425E-01 -4.76768E-02
    9047.080     53.525   3.960  9.47633E-01  9.92504E-01 -4.48710E-02
    9048.293     54.738   4.000  9.50450E-01  9.92695E-01 -4.22443E-02
    9049.519     55.963   4.040  9.52933E-01  9.92952E-01 -4.00187E-02
    9050.756     57.201   4.080  9.55159E-01  9.93316E-01 -3.81573E-02
    9052.006     58.450   4.120  9.57472E-01  9.93765E-01 -3.62927E-02
    9053.268     59.712   4.160  9.60470E-01  9.94297E-01 -3.38271E-02
    9054.542     60.986   4.200  9.64790E-01  9.94910E-01 -3.01197E-02
    9055.828     62.273   4.240  9.71110E-01  9.95602E-01 -2.44927E-02
    9057.126     63.571   4.280  9.80094E-01  9.96372E-01 -1.62777E-02
    9058.437     64.882   4.320  9.92105E-01  9.97194E-01 -5.08833E-03
    9059.760     66.204   4.360  1.00688E+00  9.98086E-01  8.78937E-03
    9061.095     67.539   4.400  1.02316E+00  9.99026E-01  2.41306E-02
    9062.442     68.887   4.440  1.03910E+00  1.00001E+00  3.90826E-02
    9063.802     70.246   4.480  1.05269E+00  1.00106E+00  5.16233E-02
    9065.173     71.618   4.520  1.06218E+00  1.00213E+00  6.00406E-02
    9066.557     73.001   4.560  1.06683E+00  1.00327E+00  6.35646E-02
    9067.953     74.397   4.600  1.06678E+00  1.00441E+00  6.23672E-02
    9069.361     75.806   4.640  1.06298E+00  1.00559E+00  5.73871E-02
    9070.781     77.226   4.680  1.05695E+00  1.00677E+00  5.01804E-02
    9072.214     78.659   4.720  1.05065E+00  1.00799E+00  4.26655E-02
    9073.659     80.103   4.760  1.04588E+00  1.00920E+00  3.66766E-02
    9075.116     81.560   4.800  1.04383E+00  1.01039E+00  3.34403E-02
    9076.585     83.029   4.840  1.04476E+00  1.01161E+00  3.31559E-02
    9078.066     84.511   4.880  1.04781E+00  1.01279E+00  3.50250E-02
    9079.560     86.004   4.920  1.05165E+00  1.01397E+00  3.76838E-02
    9081.065     87.510   4.960  1.05494E+00  1.01513E+00  3.98106E-02
    9082.583     89.028   5.000  1.05685E+00  1.01627E+00  4.05885E-02
    9084.113     90.558   5.040  1.05712E+00  1.01736E+00  3.97634E-02
    9085.656     92.100   5.080  1.05579E+00  1.01841E+00  3.73746E-02
    9087.210     93.655   5.120  1.05296E+00  1.01942E+00  3.35409E-02
    9088.777     95.221   5.160  1.04890E+00  1.02039E+00  2.85100E-02
    9090.356     96.800   5.200  1.04402E+00  1.02131E+00  2.27104E-02
    9091.947     98.391   5.240  1.03883E+00  1.02216E+00  1.66703E-02
    9093.550     99.994   5.280  1.03369E+00  1.02295E+00  1.07389E-02
    9095.165    101.610   5.320  1.02853E+00  1.02368E+00  4.85505E-03
    9096.793    103.237   5.360  1.02300E+00  1.02435E+00 -1.35393E-03
    9098.433    104.877   5.400  1.01688E+00  1.02497E+00 -8.08753E-03
    9100.085    106.529   5.440  1.01056E+00  1.02549E+00 -1.49335E-02
    9101.749    108.194   5.480  1.00512E+00  1.02595E+00 -2.08339E-02
    9103.425    109.870   5.520  1.00182E+00  1.02631E+00 -2.44867E-02
    9105.114    111.558   5.560  1.00154E+00  1.02661E+00 -2.50697E-02
    9106.815    113.259   5.600  1.00396E+00  1.02683E+00 -2.28689E-02
    9108.528    114.972   5.640  1.00778E+00  1.02700E+00 -1.92190E-02
    9110.253    116.697   5.680  1.01123E+00  1.02706E+00 -1.58249E-02
    9111.990    118.435   5.720  1.01299E+00  1.02704E+00 -1.40531E-02
    9113.740    120.184   5.760  1.01221E+00  1.02696E+00 -1.47554E-02
    9115.501    121.946   5.800  1.00843E+00  1.02679E+00 -1.83568E-02
    9117.275    123.720   5.840  1.00193E+00  1.02655E+00 -2.46200E-02
    9119.062    125.506   5.880  9.93869E-01  1.02624E+00 -3.23750E-02
    9120.860    127.304   5.920  9.85951E-01  1.02586E+00 -3.99059E-02
    9122.670    129.115   5.960  9.79850E-01  1.02538E+00 -4.55353E-02
    9124.493    130.938   6.000  9.77054E-01  1.02480E+00 -4.77489E-02
