# # comment:                                                     FEFF 9.9.1  
# # Source:
# # Structure
# # Reduced
# # space
# # abc:
# # angles:119.808936
# # sites:
# # POT  SCF 100  7.0000   0, screened core-hole, AFOLP (folp(0)= 1.150)
# # Abs   Z=29 Rmt= 1.359 Rnm= 1.422 K  shell
# # Pot 1 Z= 3 Rmt= 1.274 Rnm= 1.331
# # Pot 2 Z=29 Rmt= 1.359 Rnm= 1.422
# # Pot 3 Z= 6 Rmt= 0.713 Rnm= 0.925
# # Pot 4 Z= 8 Rmt= 0.874 Rnm= 1.012
# # Gam_ch=1.729E+00 H-L exch Vi= 0.000E+00 Vr= 0.000E+00
# # Mu=-6.788E+00eV kf=2.529E+00 Vint=-1.825E+01eV Rs_int= 1.434
# FMS rfms= 9.0000
# # PATH  Rmax=-1.000,  Keep_limit= 0.00, Heap_limit 0.00  Pwcrit= 2.50%
#  S02=0.950  Temp=   0.00  Debye_temp=   0.00  Global_sig2= 0.00000
#  Energy zero shift, vr, vi    0.00000E+00   0.00000E+00
#  Curved wave amplitude ratio filter   4.000%
#     file         sig2 tot  cw amp ratio   deg  nlegs   reff  inp sig2
#     0/   0 paths used
#  xsedge+ 50, used to normalize mu           2.4752E-04
#  -----------------------------------------------------------------------
#  omega    e    k    mu    mu0     chi     @#
    8983.692    -10.598  -1.000  5.49007E-02  5.27110E-02  2.18976E-03
    8983.991    -10.299  -0.960  5.89128E-02  5.65091E-02  2.40362E-03
    8984.278    -10.013  -0.920  6.33776E-02  6.07297E-02  2.64795E-03
    8984.552     -9.738  -0.880  6.83634E-02  6.54350E-02  2.92842E-03
    8984.814     -9.476  -0.840  7.39496E-02  7.06979E-02  3.25167E-03
    8985.064     -9.226  -0.800  8.02284E-02  7.66029E-02  3.62549E-03
    8985.302     -8.989  -0.760  8.73056E-02  8.32468E-02  4.05878E-03
    8985.527     -8.763  -0.720  9.53008E-02  9.07392E-02  4.56159E-03
    8985.741     -8.550  -0.680  1.04346E-01  9.92011E-02  5.14494E-03
    8985.942     -8.348  -0.640  1.14581E-01  1.08760E-01  5.82062E-03
    8986.131     -8.159  -0.600  1.26142E-01  1.19541E-01  6.60066E-03
    8986.308     -7.983  -0.560  1.39150E-01  1.31653E-01  7.49681E-03
    8986.472     -7.818  -0.520  1.53678E-01  1.45158E-01  8.51972E-03
    8986.625     -7.666  -0.480  1.69721E-01  1.60043E-01  9.67800E-03
    8986.765     -7.526  -0.440  1.87154E-01  1.76177E-01  1.09769E-02
    8986.893     -7.397  -0.400  2.05695E-01  1.93278E-01  1.24162E-02
    8987.009     -7.282  -0.360  2.24890E-01  2.10903E-01  1.39872E-02
    8987.112     -7.178  -0.320  2.44144E-01  2.28476E-01  1.56680E-02
    8987.204     -7.087  -0.280  2.62776E-01  2.45357E-01  1.74192E-02
    8987.283     -7.007  -0.240  2.80115E-01  2.60933E-01  1.91818E-02
    8987.350     -6.940  -0.200  2.95571E-01  2.74691E-01  2.08798E-02
    8987.405     -6.885  -0.160  3.08688E-01  2.86259E-01  2.24290E-02
    8987.447     -6.843  -0.120  3.19147E-01  2.95399E-01  2.37485E-02
    8987.478     -6.812  -0.080  3.26748E-01  3.01980E-01  2.47678E-02
    8987.502     -6.788   0.000  3.32926E-01  3.07266E-01  2.56601E-02
    8987.557     -6.733   0.120  3.46431E-01  3.19184E-01  2.72464E-02
    8987.600     -6.690   0.160  3.57075E-01  3.28435E-01  2.86396E-02
    8987.655     -6.636   0.200  3.70789E-01  3.40224E-01  3.05655E-02
    8987.722     -6.568   0.240  3.87528E-01  3.54420E-01  3.31084E-02
    8987.801     -6.489   0.280  4.06988E-01  3.70667E-01  3.63213E-02
    8987.892     -6.398   0.320  4.28746E-01  3.88573E-01  4.01734E-02
    8987.996     -6.294   0.360  4.51994E-01  4.07583E-01  4.44111E-02
    8988.112     -6.178   0.400  4.75580E-01  4.27134E-01  4.84458E-02
    8988.240     -6.050   0.440  4.97961E-01  4.46732E-01  5.12285E-02
    8988.380     -5.910   0.480  5.17253E-01  4.65918E-01  5.13352E-02
    8988.533     -5.758   0.520  5.31885E-01  4.84482E-01  4.74030E-02
    8988.697     -5.593   0.560  5.41183E-01  5.02313E-01  3.88699E-02
    8988.874     -5.416   0.600  5.45965E-01  5.19361E-01  2.66037E-02
    8989.063     -5.227   0.640  5.48560E-01  5.35709E-01  1.28501E-02
    8989.264     -5.026   0.680  5.51680E-01  5.51418E-01  2.62669E-04
    8989.477     -4.813   0.720  5.57236E-01  5.66640E-01 -9.40377E-03
    8989.703     -4.587   0.760  5.65444E-01  5.81447E-01 -1.60035E-02
    8989.941     -4.350   0.800  5.75072E-01  5.95945E-01 -2.08728E-02
    8990.191     -4.100   0.840  5.83876E-01  6.10204E-01 -2.63282E-02
    8990.453     -3.837   0.880  5.89787E-01  6.24323E-01 -3.45361E-02
    8990.727     -3.563   0.920  5.92601E-01  6.38307E-01 -4.57059E-02
    8991.014     -3.277   0.960  5.94802E-01  6.52227E-01 -5.74253E-02
    8991.312     -2.978   1.000  6.00709E-01  6.66126E-01 -6.54174E-02
    8991.623     -2.667   1.040  6.15303E-01  6.79978E-01 -6.46751E-02
    8991.946     -2.344   1.080  6.42165E-01  6.93847E-01 -5.16815E-02
    8992.282     -2.009   1.120  6.79844E-01  7.07690E-01 -2.78461E-02
    8992.629     -1.661   1.160  7.20884E-01  7.21521E-01 -6.36736E-04
    8992.989     -1.302   1.200  7.56142E-01  7.35324E-01  2.08174E-02
    8993.361     -0.930   1.240  7.82991E-01  7.49107E-01  3.38841E-02
    8993.745     -0.546   1.280  8.08064E-01  7.62847E-01  4.52173E-02
    8994.141     -0.149   1.320  8.38523E-01  7.76501E-01  6.20223E-02
    8994.549      0.259   1.360  8.74023E-01  7.90061E-01  8.39618E-02
    8994.970      0.680   1.400  9.10845E-01  8.03483E-01  1.07362E-01
    8995.403      1.112   1.440  9.49297E-01  8.16778E-01  1.32520E-01
    8995.848      1.557   1.480  9.90535E-01  8.29892E-01  1.60643E-01
    8996.305      2.015   1.520  1.03095E+00  8.42796E-01  1.88158E-01
    8996.774      2.484   1.560  1.05696E+00  8.55479E-01  2.01477E-01
    8997.256      2.966   1.600  1.05611E+00  8.67867E-01  1.88239E-01
    8997.750      3.459   1.640  1.04074E+00  8.79988E-01  1.60748E-01
    8998.256      3.965   1.680  1.02910E+00  8.91770E-01  1.37335E-01
    8998.774      4.484   1.720  1.02576E+00  9.03199E-01  1.22557E-01
    8999.304      5.014   1.760  1.03213E+00  9.14267E-01  1.17866E-01
    8999.847      5.556   1.800  1.04296E+00  9.24921E-01  1.18036E-01
    9000.401      6.111   1.840  1.04778E+00  9.35171E-01  1.12607E-01
    9000.968      6.678   1.880  1.04625E+00  9.44967E-01  1.01280E-01
    9001.547      7.257   1.920  1.04007E+00  9.54301E-01  8.57737E-02
    9002.139      7.849   1.960  1.03053E+00  9.63145E-01  6.73808E-02
    9002.742      8.452   2.000  1.02060E+00  9.71515E-01  4.90882E-02
    9003.358      9.068   2.040  1.01580E+00  9.79384E-01  3.64142E-02
    9003.986      9.696   2.080  1.02213E+00  9.86731E-01  3.53992E-02
    9004.626     10.336   2.120  1.03930E+00  9.93573E-01  4.57233E-02
    9005.278     10.988   2.160  1.06449E+00  9.99889E-01  6.45991E-02
    9005.943     11.652   2.200  1.09345E+00  1.00570E+00  8.77465E-02
    9006.619     12.329   2.240  1.12112E+00  1.01101E+00  1.10117E-01
    9007.308     13.018   2.280  1.14460E+00  1.01579E+00  1.28807E-01
    9008.009     13.719   2.320  1.16009E+00  1.02008E+00  1.40009E-01
    9008.722     14.432   2.360  1.16296E+00  1.02388E+00  1.39077E-01
    9009.448     15.158   2.400  1.14797E+00  1.02719E+00  1.20779E-01
    9010.185     15.895   2.440  1.11135E+00  1.03005E+00  8.12993E-02
    9010.935     16.645   2.480  1.06161E+00  1.03245E+00  2.91644E-02
    9011.697     17.407   2.520  1.01544E+00  1.03441E+00 -1.89706E-02
    9012.471     18.181   2.560  9.81606E-01  1.03596E+00 -5.43545E-02
    9013.258     18.968   2.600  9.57668E-01  1.03713E+00 -7.94601E-02
    9014.056     19.766   2.640  9.39038E-01  1.03790E+00 -9.88667E-02
    9014.867     20.577   2.680  9.25539E-01  1.03834E+00 -1.12802E-01
    9015.690     21.400   2.720  9.18864E-01  1.03845E+00 -1.19585E-01
    9016.525     22.235   2.760  9.18421E-01  1.03824E+00 -1.19816E-01
    9017.373     23.082   2.800  9.21941E-01  1.03774E+00 -1.15798E-01
    9018.232     23.942   2.840  9.27562E-01  1.03699E+00 -1.09425E-01
    9019.104     24.814   2.880  9.33787E-01  1.03599E+00 -1.02202E-01
    9019.988     25.698   2.920  9.38522E-01  1.03476E+00 -9.62371E-02
    9020.884     26.594   2.960  9.40346E-01  1.03335E+00 -9.30039E-02
    9021.792     27.502   3.000  9.41474E-01  1.03177E+00 -9.02965E-02
    9022.713     28.422   3.040  9.43703E-01  1.03001E+00 -8.63091E-02
    9023.645     29.355   3.080  9.47611E-01  1.02815E+00 -8.05351E-02
    9024.590     30.300   3.120  9.53035E-01  1.02616E+00 -7.31269E-02
    9025.547     31.257   3.160  9.59829E-01  1.02409E+00 -6.42603E-02
    9026.517     32.226   3.200  9.67782E-01  1.02194E+00 -5.41554E-02
    9027.498     33.208   3.240  9.76648E-01  1.01971E+00 -4.30664E-02
    9028.492     34.201   3.280  9.86129E-01  1.01747E+00 -3.13419E-02
    9029.497     35.207   3.320  9.95639E-01  1.01519E+00 -1.95551E-02
    9030.516     36.225   3.360  1.00470E+00  1.01291E+00 -8.20718E-03
    9031.546     37.256   3.400  1.01314E+00  1.01063E+00  2.51131E-03
    9032.588     38.298   3.440  1.02086E+00  1.00835E+00  1.25116E-02
    9033.643     39.353   3.480  1.02780E+00  1.00613E+00  2.16708E-02
    9034.710     40.419   3.520  1.03373E+00  1.00393E+00  2.97975E-02
    9035.789     41.498   3.560  1.03843E+00  1.00180E+00  3.66255E-02
    9036.880     42.589   3.600  1.04170E+00  9.99718E-01  4.19803E-02
    9037.983     43.693   3.640  1.04359E+00  9.97732E-01  4.58618E-02
    9039.099     44.808   3.680  1.04417E+00  9.95803E-01  4.83616E-02
    9040.226     45.936   3.720  1.04358E+00  9.93958E-01  4.96195E-02
    9041.366     47.076   3.760  1.04213E+00  9.92220E-01  4.99116E-02
    9042.518     48.228   3.800  1.04011E+00  9.90570E-01  4.95432E-02
    9043.683     49.393   3.840  1.03781E+00  9.89035E-01  4.87750E-02
    9044.859     50.569   3.880  1.03537E+00  9.87612E-01  4.77559E-02
    9046.048     51.758   3.920  1.03268E+00  9.86285E-01  4.63940E-02
    9047.249     52.959   3.960  1.02946E+00  9.85076E-01  4.43827E-02
    9048.462     54.172   4.000  1.02539E+00  9.84006E-01  4.13848E-02
    9049.687     55.397   4.040  1.02033E+00  9.83036E-01  3.72932E-02
    9050.925     56.635   4.080  1.01445E+00  9.82184E-01  3.22623E-02
    9052.175     57.884   4.120  1.00808E+00  9.81451E-01  2.66300E-02
    9053.436     59.146   4.160  1.00164E+00  9.80841E-01  2.07960E-02
    9054.710     60.420   4.200  9.95483E-01  9.80372E-01  1.51104E-02
    9055.997     61.706   4.240  9.89858E-01  9.80000E-01  9.85788E-03
    9057.295     63.005   4.280  9.85050E-01  9.79745E-01  5.30456E-03
    9058.606     64.316   4.320  9.81252E-01  9.79586E-01  1.66642E-03
    9059.929     65.638   4.360  9.78575E-01  9.79562E-01 -9.86646E-04
    9061.264     66.973   4.400  9.76886E-01  9.79633E-01 -2.74717E-03
    9062.611     68.321   4.440  9.75982E-01  9.79816E-01 -3.83392E-03
    9063.970     69.680   4.480  9.75565E-01  9.80088E-01 -4.52291E-03
    9065.342     71.052   4.520  9.75390E-01  9.80469E-01 -5.07906E-03
    9066.726     72.435   4.560  9.75205E-01  9.80932E-01 -5.72714E-03
    9068.122     73.831   4.600  9.74767E-01  9.81455E-01 -6.68827E-03
    9069.530     75.240   4.640  9.73951E-01  9.82080E-01 -8.12909E-03
    9070.950     76.660   4.680  9.72657E-01  9.82781E-01 -1.01247E-02
    9072.383     78.092   4.720  9.70863E-01  9.83535E-01 -1.26719E-02
    9073.827     79.537   4.760  9.68685E-01  9.84358E-01 -1.56730E-02
    9075.284     80.994   4.800  9.66326E-01  9.85227E-01 -1.89011E-02
    9076.753     82.463   4.840  9.64086E-01  9.86137E-01 -2.20509E-02
    9078.235     83.945   4.880  9.62357E-01  9.87085E-01 -2.47277E-02
    9079.728     85.438   4.920  9.61507E-01  9.88069E-01 -2.65624E-02
    9081.234     86.944   4.960  9.61752E-01  9.89063E-01 -2.73119E-02
    9082.752     88.462   5.000  9.63199E-01  9.90086E-01 -2.68872E-02
    9084.282     89.992   5.040  9.65745E-01  9.91113E-01 -2.53687E-02
    9085.824     91.534   5.080  9.69175E-01  9.92140E-01 -2.29652E-02
    9087.379     93.089   5.120  9.73184E-01  9.93162E-01 -1.99781E-02
    9088.945     94.655   5.160  9.77380E-01  9.94155E-01 -1.67755E-02
    9090.524     96.234   5.200  9.81432E-01  9.95137E-01 -1.37056E-02
    9092.115     97.825   5.240  9.85079E-01  9.96086E-01 -1.10068E-02
    9093.719     99.428   5.280  9.88272E-01  9.97018E-01 -8.74646E-03
    9095.334    101.044   5.320  9.91048E-01  9.97888E-01 -6.83932E-03
    9096.962    102.671   5.360  9.93595E-01  9.98711E-01 -5.11631E-03
    9098.601    104.311   5.400  9.96104E-01  9.99488E-01 -3.38404E-03
    9100.253    105.963   5.440  9.98748E-01  1.00019E+00 -1.44725E-03
    9101.918    107.627   5.480  1.00169E+00  1.00085E+00  8.43980E-04
    9103.594    109.304   5.520  1.00494E+00  1.00143E+00  3.51480E-03
    9105.283    110.992   5.560  1.00831E+00  1.00193E+00  6.38397E-03
    9106.983    112.693   5.600  1.01142E+00  1.00235E+00  9.06909E-03
    9108.696    114.406   5.640  1.01383E+00  1.00269E+00  1.11366E-02
    9110.422    116.131   5.680  1.01532E+00  1.00298E+00  1.23428E-02
    9112.159    117.869   5.720  1.01593E+00  1.00316E+00  1.27735E-02
    9113.908    119.618   5.760  1.01602E+00  1.00325E+00  1.27671E-02
    9115.670    121.380   5.800  1.01595E+00  1.00324E+00  1.27072E-02
    9117.444    123.154   5.840  1.01603E+00  1.00318E+00  1.28544E-02
    9119.230    124.940   5.880  1.01628E+00  1.00303E+00  1.32566E-02
    9121.029    126.738   5.920  1.01648E+00  1.00277E+00  1.37092E-02
    9122.839    128.549   5.960  1.01623E+00  1.00243E+00  1.37993E-02
    9124.662    130.372   6.000  1.01503E+00  1.00197E+00  1.30625E-02
