# # comment:                                                     FEFF 9.9.1  
# # Source:
# # Structure
# # Reduced
# # space
# # abc:
# # angles:131.266443
# # sites:
# # POT  SCF 100  7.0000   0, screened core-hole, AFOLP (folp(0)= 1.150)
# # Abs   Z=29 Rmt= 1.294 Rnm= 1.364 K  shell
# # Pot 1 Z=23 Rmt= 1.137 Rnm= 1.338
# # Pot 2 Z=29 Rmt= 1.305 Rnm= 1.374
# # Pot 3 Z= 8 Rmt= 0.994 Rnm= 1.093
# # Gam_ch=1.729E+00 H-L exch Vi= 0.000E+00 Vr= 0.000E+00
# # Mu=-7.693E+00eV kf=2.195E+00 Vint=-1.685E+01eV Rs_int= 1.652
# FMS rfms= 9.0000
# # PATH  Rmax=-1.000,  Keep_limit= 0.00, Heap_limit 0.00  Pwcrit= 2.50%
#  S02=0.950  Temp=   0.00  Debye_temp=   0.00  Global_sig2= 0.00000
#  Energy zero shift, vr, vi    0.00000E+00   0.00000E+00
#  Curved wave amplitude ratio filter   4.000%
#     file         sig2 tot  cw amp ratio   deg  nlegs   reff  inp sig2
#     0/   0 paths used
#  xsedge+ 50, used to normalize mu           2.4639E-04
#  -----------------------------------------------------------------------
#  omega    e    k    mu    mu0     chi     @#
    8984.081    -11.503  -1.000  4.34443E-02  5.52908E-02 -1.18465E-02
    8984.380    -11.204  -0.960  4.60186E-02  5.93446E-02 -1.33261E-02
    8984.667    -10.918  -0.920  4.88342E-02  6.38521E-02 -1.50179E-02
    8984.941    -10.643  -0.880  5.19258E-02  6.88804E-02 -1.69546E-02
    8985.203    -10.381  -0.840  5.53340E-02  7.45076E-02 -1.91736E-02
    8985.453    -10.131  -0.800  5.91066E-02  8.08240E-02 -2.17174E-02
    8985.691     -9.894  -0.760  6.32992E-02  8.79336E-02 -2.46344E-02
    8985.916     -9.668  -0.720  6.79759E-02  9.59537E-02 -2.79778E-02
    8986.130     -9.455  -0.680  7.32080E-02  1.05014E-01 -3.18055E-02
    8986.331     -9.253  -0.640  7.90721E-02  1.15250E-01 -3.61776E-02
    8986.520     -9.064  -0.600  8.56437E-02  1.26796E-01 -4.11525E-02
    8986.697     -8.888  -0.560  9.29872E-02  1.39768E-01 -4.67805E-02
    8986.861     -8.723  -0.520  1.01138E-01  1.54232E-01 -5.30940E-02
    8987.014     -8.571  -0.480  1.10082E-01  1.70176E-01 -6.00940E-02
    8987.154     -8.431  -0.440  1.19722E-01  1.87457E-01 -6.77350E-02
    8987.282     -8.302  -0.400  1.29866E-01  2.05776E-01 -7.59098E-02
    8987.398     -8.187  -0.360  1.40216E-01  2.24657E-01 -8.44417E-02
    8987.501     -8.083  -0.320  1.50399E-01  2.43486E-01 -9.30876E-02
    8987.593     -7.992  -0.280  1.60021E-01  2.61578E-01 -1.01557E-01
    8987.672     -7.912  -0.240  1.68733E-01  2.78277E-01 -1.09545E-01
    8987.739     -7.845  -0.200  1.76274E-01  2.93033E-01 -1.16759E-01
    8987.794     -7.790  -0.160  1.82490E-01  3.05443E-01 -1.22952E-01
    8987.837     -7.748  -0.120  1.87317E-01  3.15251E-01 -1.27934E-01
    8987.867     -7.717  -0.080  1.90745E-01  3.22316E-01 -1.31571E-01
    8987.891     -7.693   0.000  1.93455E-01  3.27990E-01 -1.34536E-01
    8987.946     -7.638   0.120  1.99290E-01  3.40784E-01 -1.41494E-01
    8987.989     -7.595   0.160  2.03788E-01  3.50725E-01 -1.46937E-01
    8988.044     -7.541   0.200  2.09428E-01  3.63423E-01 -1.53995E-01
    8988.111     -7.473   0.240  2.16034E-01  3.78681E-01 -1.62647E-01
    8988.190     -7.394   0.280  2.23411E-01  3.96191E-01 -1.72780E-01
    8988.282     -7.303   0.320  2.31319E-01  4.15501E-01 -1.84182E-01
    8988.385     -7.199   0.360  2.39527E-01  4.36052E-01 -1.96525E-01
    8988.501     -7.083   0.400  2.47815E-01  4.57228E-01 -2.09413E-01
    8988.629     -6.955   0.440  2.56017E-01  4.78466E-01 -2.22448E-01
    8988.769     -6.815   0.480  2.63924E-01  4.99385E-01 -2.35460E-01
    8988.922     -6.663   0.520  2.71178E-01  5.19637E-01 -2.48458E-01
    8989.086     -6.498   0.560  2.77436E-01  5.39138E-01 -2.61702E-01
    8989.263     -6.321   0.600  2.82579E-01  5.57857E-01 -2.75278E-01
    8989.452     -6.132   0.640  2.87143E-01  5.75811E-01 -2.88669E-01
    8989.653     -5.931   0.680  2.92715E-01  5.93119E-01 -3.00404E-01
    8989.867     -5.718   0.720  3.01333E-01  6.09852E-01 -3.08519E-01
    8990.092     -5.492   0.760  3.14969E-01  6.26100E-01 -3.11131E-01
    8990.330     -5.255   0.800  3.35013E-01  6.41945E-01 -3.06932E-01
    8990.580     -5.005   0.840  3.62164E-01  6.57493E-01 -2.95329E-01
    8990.842     -4.742   0.880  3.95555E-01  6.72737E-01 -2.77182E-01
    8991.116     -4.468   0.920  4.32029E-01  6.87777E-01 -2.55747E-01
    8991.403     -4.182   0.960  4.66752E-01  7.02598E-01 -2.35846E-01
    8991.701     -3.883   1.000  4.96398E-01  7.17217E-01 -2.20819E-01
    8992.012     -3.572   1.040  5.20135E-01  7.31640E-01 -2.11505E-01
    8992.335     -3.249   1.080  5.37778E-01  7.45885E-01 -2.08108E-01
    8992.671     -2.914   1.120  5.51198E-01  7.59925E-01 -2.08727E-01
    8993.018     -2.566   1.160  5.65446E-01  7.73746E-01 -2.08301E-01
    8993.378     -2.207   1.200  5.84484E-01  7.87332E-01 -2.02847E-01
    8993.750     -1.835   1.240  6.08879E-01  8.00639E-01 -1.91761E-01
    8994.134     -1.451   1.280  6.38163E-01  8.13690E-01 -1.75526E-01
    8994.530     -1.054   1.320  6.72552E-01  8.26436E-01 -1.53884E-01
    8994.938     -0.646   1.360  7.12322E-01  8.38832E-01 -1.26510E-01
    8995.359     -0.225   1.400  7.58543E-01  8.50894E-01 -9.23501E-02
    8995.792      0.207   1.440  8.18214E-01  8.62592E-01 -4.43781E-02
    8996.237      0.652   1.480  9.07418E-01  8.73881E-01  3.35371E-02
    8996.694      1.110   1.520  1.04405E+00  8.84754E-01  1.59295E-01
    8997.163      1.579   1.560  1.23016E+00  8.95206E-01  3.34955E-01
    8997.645      2.061   1.600  1.42852E+00  9.05212E-01  5.23305E-01
    8998.139      2.554   1.640  1.56601E+00  9.14747E-01  6.51262E-01
    8998.645      3.060   1.680  1.58834E+00  9.23829E-01  6.64514E-01
    8999.163      3.579   1.720  1.50397E+00  9.32415E-01  5.71552E-01
    8999.693      4.109   1.760  1.37031E+00  9.40545E-01  4.29764E-01
    9000.236      4.651   1.800  1.24636E+00  9.48178E-01  2.98181E-01
    9000.791      5.206   1.840  1.16570E+00  9.55316E-01  2.10382E-01
    9001.357      5.773   1.880  1.12939E+00  9.62004E-01  1.67383E-01
    9001.937      6.352   1.920  1.11465E+00  9.68201E-01  1.46447E-01
    9002.528      6.944   1.960  1.09877E+00  9.73933E-01  1.24839E-01
    9003.131      7.547   2.000  1.07680E+00  9.79208E-01  9.75926E-02
    9003.747      8.163   2.040  1.05637E+00  9.84028E-01  7.23404E-02
    9004.375      8.791   2.080  1.04581E+00  9.88424E-01  5.73903E-02
    9005.015      9.431   2.120  1.05134E+00  9.92402E-01  5.89378E-02
    9005.667     10.083   2.160  1.07188E+00  9.95990E-01  7.58937E-02
    9006.332     10.747   2.200  1.09574E+00  9.99157E-01  9.65847E-02
    9007.008     11.424   2.240  1.11041E+00  1.00197E+00  1.08440E-01
    9007.697     12.113   2.280  1.11258E+00  1.00444E+00  1.08139E-01
    9008.398     12.814   2.320  1.10994E+00  1.00656E+00  1.03383E-01
    9009.112     13.527   2.360  1.10205E+00  1.00837E+00  9.36767E-02
    9009.837     14.253   2.400  1.08416E+00  1.00987E+00  7.42850E-02
    9010.575     14.990   2.440  1.06394E+00  1.01111E+00  5.28321E-02
    9011.324     15.740   2.480  1.05940E+00  1.01209E+00  4.73082E-02
    9012.086     16.502   2.520  1.07483E+00  1.01282E+00  6.20107E-02
    9012.861     17.276   2.560  1.08408E+00  1.01332E+00  7.07554E-02
    9013.647     18.063   2.600  1.05885E+00  1.01361E+00  4.52356E-02
    9014.446     18.861   2.640  1.01483E+00  1.01373E+00  1.10310E-03
    9015.256     19.672   2.680  9.77761E-01  1.01367E+00 -3.59118E-02
    9016.079     20.495   2.720  9.49878E-01  1.01346E+00 -6.35789E-02
    9016.914     21.330   2.760  9.27479E-01  1.01311E+00 -8.56321E-02
    9017.762     22.177   2.800  9.08183E-01  1.01262E+00 -1.04437E-01
    9018.621     23.037   2.840  8.91862E-01  1.01205E+00 -1.20189E-01
    9019.493     23.909   2.880  8.78784E-01  1.01135E+00 -1.32569E-01
    9020.377     24.793   2.920  8.69146E-01  1.01059E+00 -1.41447E-01
    9021.273     25.689   2.960  8.62561E-01  1.00978E+00 -1.47216E-01
    9022.181     26.597   3.000  8.57679E-01  1.00889E+00 -1.51214E-01
    9023.102     27.517   3.040  8.53584E-01  1.00796E+00 -1.54379E-01
    9024.034     28.450   3.080  8.50388E-01  1.00699E+00 -1.56607E-01
    9024.979     29.395   3.120  8.49111E-01  1.00601E+00 -1.56901E-01
    9025.936     30.352   3.160  8.50948E-01  1.00500E+00 -1.54054E-01
    9026.906     31.321   3.200  8.57017E-01  1.00401E+00 -1.46991E-01
    9027.887     32.303   3.240  8.67621E-01  1.00299E+00 -1.35372E-01
    9028.881     33.296   3.280  8.81814E-01  1.00200E+00 -1.20187E-01
    9029.887     34.302   3.320  8.98346E-01  1.00102E+00 -1.02670E-01
    9030.905     35.320   3.360  9.16025E-01  1.00006E+00 -8.40344E-02
    9031.935     36.351   3.400  9.34096E-01  9.99115E-01 -6.50196E-02
    9032.977     37.393   3.440  9.52645E-01  9.98207E-01 -4.55626E-02
    9034.032     38.448   3.480  9.72367E-01  9.97338E-01 -2.49707E-02
    9035.099     39.514   3.520  9.94002E-01  9.96529E-01 -2.52710E-03
    9036.178     40.593   3.560  1.01773E+00  9.95741E-01  2.19850E-02
    9037.269     41.684   3.600  1.04308E+00  9.95016E-01  4.80607E-02
    9038.372     42.788   3.640  1.06840E+00  9.94315E-01  7.40806E-02
    9039.488     43.903   3.680  1.09086E+00  9.93700E-01  9.71605E-02
    9040.616     45.031   3.720  1.10695E+00  9.93110E-01  1.13840E-01
    9041.755     46.171   3.760  1.11387E+00  9.92588E-01  1.21284E-01
    9042.908     47.323   3.800  1.11057E+00  9.92113E-01  1.18457E-01
    9044.072     48.488   3.840  1.09839E+00  9.91707E-01  1.06679E-01
    9045.248     49.664   3.880  1.08035E+00  9.91350E-01  8.89991E-02
    9046.437     50.853   3.920  1.05994E+00  9.91062E-01  6.88822E-02
    9047.638     52.054   3.960  1.04021E+00  9.90822E-01  4.93863E-02
    9048.851     53.267   4.000  1.02337E+00  9.90649E-01  3.27238E-02
    9050.076     54.492   4.040  1.01055E+00  9.90502E-01  2.00525E-02
    9051.314     55.730   4.080  1.00212E+00  9.90443E-01  1.16799E-02
    9052.564     56.979   4.120  9.97649E-01  9.90408E-01  7.24013E-03
    9053.826     58.241   4.160  9.96165E-01  9.90439E-01  5.72587E-03
    9055.100     59.515   4.200  9.96198E-01  9.90514E-01  5.68458E-03
    9056.386     60.801   4.240  9.96390E-01  9.90630E-01  5.75945E-03
    9057.684     62.100   4.280  9.96270E-01  9.90789E-01  5.48064E-03
    9058.995     63.411   4.320  9.96500E-01  9.91011E-01  5.48977E-03
    9060.318     64.733   4.360  9.98364E-01  9.91249E-01  7.11503E-03
    9061.653     66.068   4.400  1.00306E+00  9.91525E-01  1.15398E-02
    9063.000     67.416   4.440  1.01084E+00  9.91839E-01  1.90021E-02
    9064.359     68.775   4.480  1.02057E+00  9.92188E-01  2.83799E-02
    9065.731     70.147   4.520  1.03023E+00  9.92572E-01  3.76614E-02
    9067.115     71.530   4.560  1.03795E+00  9.92967E-01  4.49848E-02
    9068.511     72.926   4.600  1.04279E+00  9.93391E-01  4.94001E-02
    9069.919     74.335   4.640  1.04482E+00  9.93822E-01  5.09995E-02
    9071.339     75.755   4.680  1.04481E+00  9.94259E-01  5.05539E-02
    9072.772     77.187   4.720  1.04365E+00  9.94722E-01  4.89242E-02
    9074.217     78.632   4.760  1.04184E+00  9.95189E-01  4.66491E-02
    9075.673     80.089   4.800  1.03932E+00  9.95658E-01  4.36672E-02
    9077.143     81.558   4.840  1.03543E+00  9.96128E-01  3.93013E-02
    9078.624     83.040   4.880  1.02917E+00  9.96620E-01  3.25553E-02
    9080.117     84.533   4.920  1.01948E+00  9.97086E-01  2.23960E-02
    9081.623     86.039   4.960  1.00564E+00  9.97545E-01  8.09253E-03
    9083.141     87.557   5.000  9.87658E-01  9.97976E-01 -1.03176E-02
    9084.671     89.087   5.040  9.66691E-01  9.98400E-01 -3.17089E-02
    9086.213     90.629   5.080  9.44809E-01  9.98819E-01 -5.40100E-02
    9087.768     92.184   5.120  9.24293E-01  9.99226E-01 -7.49335E-02
    9089.335     93.750   5.160  9.06929E-01  9.99580E-01 -9.26511E-02
    9090.913     95.329   5.200  8.93764E-01  9.99943E-01 -1.06179E-01
    9092.504     96.920   5.240  8.84800E-01  1.00025E+00 -1.15449E-01
    9094.108     98.523   5.280  8.79656E-01  1.00054E+00 -1.20885E-01
    9095.723    100.139   5.320  8.78059E-01  1.00080E+00 -1.22738E-01
    9097.351    101.766   5.360  8.80494E-01  1.00102E+00 -1.20522E-01
    9098.991    103.406   5.400  8.88137E-01  1.00122E+00 -1.13081E-01
    9100.643    105.058   5.440  9.02001E-01  1.00136E+00 -9.93591E-02
    9102.307    106.722   5.480  9.22074E-01  1.00149E+00 -7.94128E-02
    9103.983    108.399   5.520  9.46609E-01  1.00157E+00 -5.49654E-02
    9105.672    110.087   5.560  9.72454E-01  1.00162E+00 -2.91673E-02
    9107.373    111.788   5.600  9.96191E-01  1.00163E+00 -5.43608E-03
    9109.086    113.501   5.640  1.01558E+00  1.00157E+00  1.40068E-02
    9110.811    115.226   5.680  1.03038E+00  1.00149E+00  2.88875E-02
    9112.548    116.964   5.720  1.04153E+00  1.00138E+00  4.01553E-02
    9114.298    118.713   5.760  1.04993E+00  1.00122E+00  4.87065E-02
    9116.059    120.475   5.800  1.05586E+00  1.00103E+00  5.48218E-02
    9117.833    122.249   5.840  1.05952E+00  1.00080E+00  5.87169E-02
    9119.619    124.035   5.880  1.06196E+00  1.00054E+00  6.14209E-02
    9121.418    125.833   5.920  1.06501E+00  1.00023E+00  6.47779E-02
    9123.228    127.644   5.960  1.07017E+00  9.99921E-01  7.02495E-02
    9125.051    129.467   6.000  1.07729E+00  9.99521E-01  7.77652E-02
