# # comment:                                                     FEFF 9.9.1  
# # Source:
# # Structure
# # Reduced
# # space
# # abc:
# # angles:
# # sites:
# # POT  SCF 100  7.0000   0, screened core-hole, AFOLP (folp(0)= 1.150)
# # Abs   Z=29 Rmt= 1.249 Rnm= 1.317 K  shell
# # Pot 1 Z=29 Rmt= 1.249 Rnm= 1.317
# # Pot 2 Z=28 Rmt= 1.347 Rnm= 1.417
# # Pot 3 Z= 8 Rmt= 1.036 Rnm= 1.090
# # Gam_ch=1.729E+00 H-L exch Vi= 0.000E+00 Vr= 0.000E+00
# # Mu=-9.599E+00eV kf=2.161E+00 Vint=-1.802E+01eV Rs_int= 1.678
# FMS rfms= 9.0000
# # PATH  Rmax=-1.000,  Keep_limit= 0.00, Heap_limit 0.00  Pwcrit= 2.50%
#  S02=0.950  Temp=   0.00  Debye_temp=   0.00  Global_sig2= 0.00000
#  Energy zero shift, vr, vi    0.00000E+00   0.00000E+00
#  Curved wave amplitude ratio filter   4.000%
#     file         sig2 tot  cw amp ratio   deg  nlegs   reff  inp sig2
#     0/   0 paths used
#  xsedge+ 50, used to normalize mu           2.4690E-04
#  -----------------------------------------------------------------------
#  omega    e    k    mu    mu0     chi     @#
    8984.476    -13.409  -1.000  3.81206E-02  5.34594E-02 -1.53389E-02
    8984.775    -13.110  -0.960  4.00577E-02  5.73100E-02 -1.72523E-02
    8985.061    -12.824  -0.920  4.21340E-02  6.15852E-02 -1.94513E-02
    8985.336    -12.550  -0.880  4.43643E-02  6.63471E-02 -2.19827E-02
    8985.598    -12.288  -0.840  4.67661E-02  7.16679E-02 -2.49017E-02
    8985.848    -12.038  -0.800  4.93595E-02  7.76313E-02 -2.82717E-02
    8986.085    -11.800  -0.760  5.21677E-02  8.43333E-02 -3.21655E-02
    8986.311    -11.574  -0.720  5.52172E-02  9.18822E-02 -3.66650E-02
    8986.524    -11.361  -0.680  5.85372E-02  1.00397E-01 -4.18602E-02
    8986.725    -11.160  -0.640  6.21584E-02  1.10005E-01 -4.78461E-02
    8986.914    -10.971  -0.600  6.61102E-02  1.20827E-01 -5.47168E-02
    8987.091    -10.794  -0.560  7.04146E-02  1.32970E-01 -6.25555E-02
    8987.256    -10.629  -0.520  7.50774E-02  1.46496E-01 -7.14185E-02
    8987.408    -10.477  -0.480  8.00756E-02  1.61390E-01 -8.13143E-02
    8987.548    -10.337  -0.440  8.53433E-02  1.77522E-01 -9.21782E-02
    8987.676    -10.209  -0.400  9.07619E-02  1.94611E-01 -1.03849E-01
    8987.792    -10.093  -0.360  9.61619E-02  2.12219E-01 -1.16057E-01
    8987.896     -9.989  -0.320  1.01343E-01  2.29776E-01 -1.28433E-01
    8987.987     -9.898  -0.280  1.06107E-01  2.46646E-01 -1.40539E-01
    8988.067     -9.819  -0.240  1.10298E-01  2.62221E-01 -1.51923E-01
    8988.134     -9.752  -0.200  1.13820E-01  2.75988E-01 -1.62168E-01
    8988.188     -9.697  -0.160  1.16641E-01  2.87573E-01 -1.70932E-01
    8988.231     -9.654  -0.120  1.18771E-01  2.96733E-01 -1.77962E-01
    8988.262     -9.624  -0.080  1.20239E-01  3.03333E-01 -1.83095E-01
    8988.286     -9.599   0.000  1.21337E-01  3.08638E-01 -1.87302E-01
    8988.341     -9.544   0.120  1.23901E-01  3.20600E-01 -1.96699E-01
    8988.384     -9.502   0.160  1.25837E-01  3.29899E-01 -2.04062E-01
    8988.438     -9.447   0.200  1.28225E-01  3.41787E-01 -2.13563E-01
    8988.505     -9.380   0.240  1.30932E-01  3.56092E-01 -2.25159E-01
    8988.585     -9.300   0.280  1.33888E-01  3.72534E-01 -2.38646E-01
    8988.676     -9.209   0.320  1.36990E-01  3.90730E-01 -2.53740E-01
    8988.780     -9.105   0.360  1.40217E-01  4.10131E-01 -2.69914E-01
    8988.896     -8.990   0.400  1.43668E-01  4.30199E-01 -2.86531E-01
    8989.024     -8.862   0.440  1.47609E-01  4.50439E-01 -3.02830E-01
    8989.164     -8.721   0.480  1.52447E-01  4.70471E-01 -3.18024E-01
    8989.316     -8.569   0.520  1.58642E-01  4.90032E-01 -3.31390E-01
    8989.481     -8.404   0.560  1.66791E-01  5.08989E-01 -3.42198E-01
    8989.658     -8.228   0.600  1.77554E-01  5.27330E-01 -3.49776E-01
    8989.847     -8.039   0.640  1.91794E-01  5.45090E-01 -3.53296E-01
    8990.048     -7.837   0.680  2.10613E-01  5.62356E-01 -3.51743E-01
    8990.261     -7.624   0.720  2.35408E-01  5.79190E-01 -3.43782E-01
    8990.487     -7.399   0.760  2.68142E-01  5.95689E-01 -3.27547E-01
    8990.724     -7.161   0.800  3.11335E-01  6.11923E-01 -3.00588E-01
    8990.974     -6.911   0.840  3.67980E-01  6.27951E-01 -2.59971E-01
    8991.236     -6.649   0.880  4.39713E-01  6.43794E-01 -2.04081E-01
    8991.511     -6.374   0.920  5.21573E-01  6.59505E-01 -1.37932E-01
    8991.797     -6.088   0.960  5.96462E-01  6.75101E-01 -7.86390E-02
    8992.096     -5.789   1.000  6.41663E-01  6.90573E-01 -4.89099E-02
    8992.407     -5.478   1.040  6.46731E-01  7.05938E-01 -5.92073E-02
    8992.730     -5.155   1.080  6.20138E-01  7.21173E-01 -1.01035E-01
    8993.065     -4.820   1.120  5.80895E-01  7.36240E-01 -1.55345E-01
    8993.413     -4.472   1.160  5.47227E-01  7.51162E-01 -2.03935E-01
    8993.772     -4.113   1.200  5.28275E-01  7.65879E-01 -2.37603E-01
    8994.144     -3.741   1.240  5.22605E-01  7.80363E-01 -2.57758E-01
    8994.528     -3.357   1.280  5.24642E-01  7.94589E-01 -2.69947E-01
    8994.925     -2.961   1.320  5.35444E-01  8.08546E-01 -2.73102E-01
    8995.333     -2.552   1.360  5.62436E-01  8.22186E-01 -2.59749E-01
    8995.754     -2.132   1.400  6.07051E-01  8.35478E-01 -2.28427E-01
    8996.186     -1.699   1.440  6.61007E-01  8.48390E-01 -1.87383E-01
    8996.631     -1.254   1.480  7.14989E-01  8.60892E-01 -1.45904E-01
    8997.089     -0.797   1.520  7.66678E-01  8.72977E-01 -1.06299E-01
    8997.558     -0.327   1.560  8.19978E-01  8.84613E-01 -6.46342E-02
    8998.040      0.154   1.600  8.79292E-01  8.95773E-01 -1.64811E-02
    8998.533      0.648   1.640  9.49374E-01  9.06451E-01  4.29222E-02
    8999.039      1.154   1.680  1.02958E+00  9.16620E-01  1.12956E-01
    8999.557      1.672   1.720  1.11528E+00  9.26278E-01  1.89000E-01
    9000.088      2.203   1.760  1.21220E+00  9.35421E-01  2.76780E-01
    9000.630      2.745   1.800  1.33286E+00  9.44026E-01  3.88832E-01
    9001.185      3.300   1.840  1.46026E+00  9.52114E-01  5.08142E-01
    9001.752      3.867   1.880  1.53765E+00  9.59667E-01  5.77985E-01
    9002.331      4.446   1.920  1.52808E+00  9.66687E-01  5.61396E-01
    9002.922      5.037   1.960  1.45366E+00  9.73197E-01  4.80468E-01
    9003.526      5.641   2.000  1.38398E+00  9.79204E-01  4.04776E-01
    9004.142      6.256   2.040  1.34745E+00  9.84691E-01  3.62755E-01
    9004.770      6.884   2.080  1.29663E+00  9.89707E-01  3.06919E-01
    9005.410      7.524   2.120  1.20399E+00  9.94261E-01  2.09727E-01
    9006.062      8.177   2.160  1.10453E+00  9.98337E-01  1.06192E-01
    9006.726      8.841   2.200  1.02943E+00  1.00199E+00  2.74458E-02
    9007.403      9.518   2.240  9.82657E-01  1.00520E+00 -2.25430E-02
    9008.092     10.207   2.280  9.66015E-01  1.00803E+00 -4.20099E-02
    9008.793     10.908   2.320  9.75948E-01  1.01045E+00 -3.45051E-02
    9009.506     11.621   2.360  9.96917E-01  1.01254E+00 -1.56190E-02
    9010.232     12.346   2.400  1.01716E+00  1.01426E+00  2.89183E-03
    9010.969     13.084   2.440  1.03997E+00  1.01568E+00  2.42890E-02
    9011.719     13.834   2.480  1.07072E+00  1.01679E+00  5.39311E-02
    9012.481     14.596   2.520  1.10382E+00  1.01764E+00  8.61890E-02
    9013.255     15.370   2.560  1.12358E+00  1.01820E+00  1.05370E-01
    9014.042     16.156   2.600  1.11621E+00  1.01853E+00  9.76775E-02
    9014.840     16.955   2.640  1.09294E+00  1.01864E+00  7.42949E-02
    9015.651     17.766   2.680  1.06207E+00  1.01855E+00  4.35190E-02
    9016.474     18.589   2.720  1.03090E+00  1.01829E+00  1.26152E-02
    9017.309     19.424   2.760  1.00561E+00  1.01786E+00 -1.22512E-02
    9018.156     20.271   2.800  9.88114E-01  1.01727E+00 -2.91577E-02
    9019.016     21.131   2.840  9.76606E-01  1.01656E+00 -3.99538E-02
    9019.888     22.002   2.880  9.67006E-01  1.01575E+00 -4.87436E-02
    9020.771     22.886   2.920  9.55660E-01  1.01483E+00 -5.91668E-02
    9021.668     23.782   2.960  9.41315E-01  1.01382E+00 -7.25045E-02
    9022.576     24.691   3.000  9.24610E-01  1.01273E+00 -8.81246E-02
    9023.496     25.611   3.040  9.07283E-01  1.01160E+00 -1.04316E-01
    9024.429     26.544   3.080  8.91410E-01  1.01042E+00 -1.19010E-01
    9025.374     27.489   3.120  8.78258E-01  1.00920E+00 -1.30945E-01
    9026.331     28.446   3.160  8.68078E-01  1.00797E+00 -1.39893E-01
    9027.300     29.415   3.200  8.60778E-01  1.00671E+00 -1.45932E-01
    9028.282     30.397   3.240  8.56344E-01  1.00545E+00 -1.49102E-01
    9029.275     31.390   3.280  8.54769E-01  1.00418E+00 -1.49413E-01
    9030.281     32.396   3.320  8.56318E-01  1.00294E+00 -1.46627E-01
    9031.299     33.414   3.360  8.61299E-01  1.00172E+00 -1.40419E-01
    9032.329     34.444   3.400  8.69662E-01  1.00052E+00 -1.30860E-01
    9033.372     35.487   3.440  8.80862E-01  9.99361E-01 -1.18499E-01
    9034.426     36.541   3.480  8.94107E-01  9.98238E-01 -1.04131E-01
    9035.493     37.608   3.520  9.08242E-01  9.97133E-01 -8.88911E-02
    9036.572     38.687   3.560  9.21968E-01  9.96091E-01 -7.41236E-02
    9037.663     39.778   3.600  9.34427E-01  9.95095E-01 -6.06679E-02
    9038.767     40.882   3.640  9.45713E-01  9.94166E-01 -4.84531E-02
    9039.882     41.997   3.680  9.56717E-01  9.93283E-01 -3.65659E-02
    9041.010     43.125   3.720  9.68722E-01  9.92449E-01 -2.37272E-02
    9042.150     44.265   3.760  9.82811E-01  9.91686E-01 -8.87479E-03
    9043.302     45.417   3.800  9.99178E-01  9.90994E-01  8.18480E-03
    9044.467     46.581   3.840  1.01700E+00  9.90352E-01  2.66513E-02
    9045.643     47.758   3.880  1.03504E+00  9.89783E-01  4.52540E-02
    9046.832     48.947   3.920  1.05209E+00  9.89263E-01  6.28238E-02
    9048.033     50.147   3.960  1.06756E+00  9.88815E-01  7.87484E-02
    9049.246     51.361   4.000  1.08145E+00  9.88419E-01  9.30326E-02
    9050.471     52.586   4.040  1.09379E+00  9.88116E-01  1.05673E-01
    9051.709     53.823   4.080  1.10407E+00  9.87843E-01  1.16223E-01
    9052.958     55.073   4.120  1.11160E+00  9.87662E-01  1.23938E-01
    9054.220     56.335   4.160  1.11558E+00  9.87508E-01  1.28077E-01
    9055.494     57.609   4.200  1.11529E+00  9.87445E-01  1.27847E-01
    9056.780     58.895   4.240  1.11018E+00  9.87409E-01  1.22774E-01
    9058.079     60.194   4.280  1.10054E+00  9.87440E-01  1.13098E-01
    9059.389     61.504   4.320  1.08709E+00  9.87539E-01  9.95490E-02
    9060.712     62.827   4.360  1.07066E+00  9.87661E-01  8.30032E-02
    9062.047     64.162   4.400  1.05227E+00  9.87846E-01  6.44250E-02
    9063.395     65.509   4.440  1.03320E+00  9.88074E-01  4.51212E-02
    9064.754     66.869   4.480  1.01505E+00  9.88343E-01  2.67052E-02
    9066.126     68.240   4.520  9.99499E-01  9.88650E-01  1.08487E-02
    9067.509     69.624   4.560  9.87782E-01  9.88993E-01 -1.21102E-03
    9068.905     71.020   4.600  9.80364E-01  9.89349E-01 -8.98507E-03
    9070.313     72.428   4.640  9.77004E-01  9.89740E-01 -1.27359E-02
    9071.734     73.849   4.680  9.76798E-01  9.90166E-01 -1.33675E-02
    9073.166     75.281   4.720  9.78606E-01  9.90623E-01 -1.20175E-02
    9074.611     76.726   4.760  9.81538E-01  9.91088E-01 -9.54992E-03
    9076.068     78.183   4.800  9.85055E-01  9.91558E-01 -6.50284E-03
    9077.537     79.652   4.840  9.88404E-01  9.92054E-01 -3.65027E-03
    9079.018     81.133   4.880  9.90177E-01  9.92531E-01 -2.35360E-03
    9080.512     82.627   4.920  9.88979E-01  9.93030E-01 -4.05117E-03
    9082.018     84.133   4.960  9.84465E-01  9.93531E-01 -9.06571E-03
    9083.536     85.650   5.000  9.77693E-01  9.94030E-01 -1.63365E-02
    9085.066     87.181   5.040  9.70334E-01  9.94525E-01 -2.41909E-02
    9086.608     88.723   5.080  9.63683E-01  9.94993E-01 -3.13103E-02
    9088.162     90.277   5.120  9.58142E-01  9.95455E-01 -3.73132E-02
    9089.729     91.844   5.160  9.53334E-01  9.95908E-01 -4.25739E-02
    9091.308     93.423   5.200  9.48885E-01  9.96331E-01 -4.74454E-02
    9092.899     95.014   5.240  9.45114E-01  9.96743E-01 -5.16295E-02
    9094.502     96.617   5.280  9.42755E-01  9.97125E-01 -5.43700E-02
    9096.118     98.233   5.320  9.42217E-01  9.97493E-01 -5.52766E-02
    9097.745     99.860   5.360  9.43257E-01  9.97826E-01 -5.45692E-02
    9099.385    101.500   5.400  9.45406E-01  9.98123E-01 -5.27162E-02
    9101.037    103.152   5.440  9.48499E-01  9.98382E-01 -4.98831E-02
    9102.701    104.816   5.480  9.52874E-01  9.98626E-01 -4.57515E-02
    9104.378    106.493   5.520  9.59034E-01  9.98831E-01 -3.97968E-02
    9106.066    108.181   5.560  9.67039E-01  9.98973E-01 -3.19345E-02
    9107.767    109.882   5.600  9.76366E-01  9.99099E-01 -2.27333E-02
    9109.480    111.595   5.640  9.86062E-01  9.99186E-01 -1.31242E-02
    9111.205    113.320   5.680  9.95262E-01  9.99230E-01 -3.96863E-03
    9112.943    115.057   5.720  1.00337E+00  9.99211E-01  4.16331E-03
    9114.692    116.807   5.760  1.01006E+00  9.99174E-01  1.08827E-02
    9116.454    118.569   5.800  1.01486E+00  9.99098E-01  1.57639E-02
    9118.228    120.343   5.840  1.01726E+00  9.98957E-01  1.83068E-02
    9120.014    122.129   5.880  1.01686E+00  9.98801E-01  1.80577E-02
    9121.812    123.927   5.920  1.01351E+00  9.98583E-01  1.49277E-02
    9123.623    125.738   5.960  1.00814E+00  9.98349E-01  9.78641E-03
    9125.445    127.560   6.000  1.00262E+00  9.98053E-01  4.56789E-03
