# # comment:                                                     FEFF 9.9.1  
# # Source:
# # Structure
# # Reduced
# # space
# # abc:
# # angles:
# # sites:
# # POT  SCF 100  7.0000   0, screened core-hole, AFOLP (folp(0)= 1.150)
# # Abs   Z=29 Rmt= 1.342 Rnm= 1.401 K  shell
# # Pot 1 Z= 3 Rmt= 1.270 Rnm= 1.332
# # Pot 2 Z=29 Rmt= 1.310 Rnm= 1.382
# # Pot 3 Z=15 Rmt= 0.942 Rnm= 1.155
# # Pot 4 Z= 8 Rmt= 0.938 Rnm= 1.040
# # Gam_ch=1.729E+00 H-L exch Vi= 0.000E+00 Vr= 0.000E+00
# # Mu=-6.070E+00eV kf=2.390E+00 Vint=-1.743E+01eV Rs_int= 1.518
# FMS rfms= 9.0000
# # PATH  Rmax=-1.000,  Keep_limit= 0.00, Heap_limit 0.00  Pwcrit= 2.50%
#  S02=0.950  Temp=   0.00  Debye_temp=   0.00  Global_sig2= 0.00000
#  Energy zero shift, vr, vi    0.00000E+00   0.00000E+00
#  Curved wave amplitude ratio filter   4.000%
#     file         sig2 tot  cw amp ratio   deg  nlegs   reff  inp sig2
#     0/   0 paths used
#  xsedge+ 50, used to normalize mu           2.4677E-04
#  -----------------------------------------------------------------------
#  omega    e    k    mu    mu0     chi     @#
    8983.654     -9.880  -1.000  5.24987E-02  5.52657E-02 -2.76693E-03
    8983.953     -9.581  -0.960  5.60830E-02  5.93321E-02 -3.24912E-03
    8984.239     -9.295  -0.920  6.00412E-02  6.38572E-02 -3.81598E-03
    8984.514     -9.020  -0.880  6.44265E-02  6.89092E-02 -4.48273E-03
    8984.776     -8.758  -0.840  6.93002E-02  7.45676E-02 -5.26738E-03
    8985.026     -8.508  -0.800  7.47337E-02  8.09249E-02 -6.19114E-03
    8985.264     -8.271  -0.760  8.08083E-02  8.80871E-02 -7.27876E-03
    8985.489     -8.045  -0.720  8.76155E-02  9.61742E-02 -8.55870E-03
    8985.702     -7.832  -0.680  9.52556E-02  1.05319E-01 -1.00629E-02
    8985.904     -7.631  -0.640  1.03834E-01  1.15660E-01 -1.18259E-02
    8986.093     -7.442  -0.600  1.13454E-01  1.27337E-01 -1.38822E-02
    8986.269     -7.265  -0.560  1.24203E-01  1.40466E-01 -1.62624E-02
    8986.434     -7.100  -0.520  1.36132E-01  1.55118E-01 -1.89862E-02
    8986.586     -6.948  -0.480  1.49227E-01  1.71280E-01 -2.20526E-02
    8986.727     -6.808  -0.440  1.63379E-01  1.88808E-01 -2.54290E-02
    8986.855     -6.680  -0.400  1.78353E-01  2.07395E-01 -2.90418E-02
    8986.970     -6.564  -0.360  1.93783E-01  2.26558E-01 -3.27741E-02
    8987.074     -6.460  -0.320  2.09191E-01  2.45666E-01 -3.64756E-02
    8987.166     -6.369  -0.280  2.24040E-01  2.64024E-01 -3.99842E-02
    8987.245     -6.289  -0.240  2.37808E-01  2.80962E-01 -4.31535E-02
    8987.312     -6.222  -0.200  2.50046E-01  2.95921E-01 -4.58755E-02
    8987.367     -6.168  -0.160  2.60407E-01  3.08496E-01 -4.80893E-02
    8987.409     -6.125  -0.120  2.68653E-01  3.18430E-01 -4.97764E-02
    8987.440     -6.094  -0.080  2.74634E-01  3.25582E-01 -5.09477E-02
    8987.464     -6.070   0.000  2.79478E-01  3.31326E-01 -5.18482E-02
    8987.519     -6.015   0.120  2.90283E-01  3.44266E-01 -5.39827E-02
    8987.562     -5.972   0.160  2.98772E-01  3.54310E-01 -5.55386E-02
    8987.617     -5.918   0.200  3.09738E-01  3.67121E-01 -5.73826E-02
    8987.684     -5.851   0.240  3.23136E-01  3.82488E-01 -5.93523E-02
    8987.763     -5.771   0.280  3.38910E-01  4.00124E-01 -6.12143E-02
    8987.854     -5.680   0.320  3.56802E-01  4.19492E-01 -6.26899E-02
    8987.958     -5.576   0.360  3.76545E-01  4.40042E-01 -6.34975E-02
    8988.074     -5.460   0.400  3.97680E-01  4.61133E-01 -6.34529E-02
    8988.202     -5.332   0.440  4.19521E-01  4.82177E-01 -6.26553E-02
    8988.342     -5.192   0.480  4.41079E-01  5.02756E-01 -6.16772E-02
    8988.494     -5.040   0.520  4.60897E-01  5.22571E-01 -6.16744E-02
    8988.659     -4.875   0.560  4.77220E-01  5.41477E-01 -6.42569E-02
    8988.836     -4.698   0.600  4.88531E-01  5.59484E-01 -7.09535E-02
    8989.025     -4.509   0.640  4.94271E-01  5.76618E-01 -8.23466E-02
    8989.226     -4.308   0.680  4.95576E-01  5.93006E-01 -9.74299E-02
    8989.439     -4.095   0.720  4.95027E-01  6.08729E-01 -1.13702E-01
    8989.665     -3.869   0.760  4.95954E-01  6.23910E-01 -1.27957E-01
    8989.903     -3.632   0.800  5.01387E-01  6.38663E-01 -1.37276E-01
    8990.153     -3.382   0.840  5.13052E-01  6.53065E-01 -1.40013E-01
    8990.415     -3.120   0.880  5.30906E-01  6.67181E-01 -1.36275E-01
    8990.689     -2.845   0.920  5.53872E-01  6.81080E-01 -1.27208E-01
    8990.976     -2.559   0.960  5.81315E-01  6.94778E-01 -1.13463E-01
    8991.274     -2.260   1.000  6.13641E-01  7.08342E-01 -9.47014E-02
    8991.585     -1.949   1.040  6.51208E-01  7.21768E-01 -7.05593E-02
    8991.908     -1.626   1.080  6.94191E-01  7.35059E-01 -4.08682E-02
    8992.243     -1.291   1.120  7.42897E-01  7.48217E-01 -5.31999E-03
    8992.591     -0.943   1.160  7.95555E-01  7.61278E-01  3.42769E-02
    8992.951     -0.584   1.200  8.45584E-01  7.74189E-01  7.13951E-02
    8993.322     -0.212   1.240  8.86690E-01  7.86974E-01  9.97165E-02
    8993.707      0.172   1.280  9.19260E-01  7.99575E-01  1.19685E-01
    8994.103      0.569   1.320  9.44160E-01  8.12012E-01  1.32148E-01
    8994.511      0.977   1.360  9.57740E-01  8.24261E-01  1.33479E-01
    8994.932      1.398   1.400  9.61872E-01  8.36278E-01  1.25594E-01
    8995.365      1.830   1.440  9.66370E-01  8.48056E-01  1.18315E-01
    8995.810      2.275   1.480  9.79916E-01  8.59588E-01  1.20328E-01
    8996.267      2.733   1.520  1.00422E+00  8.70807E-01  1.33409E-01
    8996.736      3.202   1.560  1.03562E+00  8.81725E-01  1.53891E-01
    8997.218      3.684   1.600  1.07028E+00  8.92335E-01  1.77948E-01
    8997.712      4.177   1.640  1.10245E+00  9.02589E-01  1.99861E-01
    8998.218      4.683   1.680  1.12294E+00  9.12458E-01  2.10483E-01
    8998.736      5.201   1.720  1.13051E+00  9.21959E-01  2.08550E-01
    8999.266      5.732   1.760  1.13346E+00  9.31063E-01  2.02394E-01
    8999.809      6.274   1.800  1.13702E+00  9.39767E-01  1.97250E-01
    9000.363      6.829   1.840  1.13821E+00  9.48045E-01  1.90165E-01
    9000.930      7.396   1.880  1.13382E+00  9.55874E-01  1.77945E-01
    9001.509      7.975   1.920  1.13044E+00  9.63270E-01  1.67174E-01
    9002.101      8.566   1.960  1.13715E+00  9.70234E-01  1.66911E-01
    9002.704      9.170   2.000  1.15479E+00  9.76744E-01  1.78050E-01
    9003.320      9.786   2.040  1.17717E+00  9.82820E-01  1.94354E-01
    9003.948     10.414   2.080  1.19198E+00  9.88424E-01  2.03555E-01
    9004.588     11.054   2.120  1.18988E+00  9.93619E-01  1.96261E-01
    9005.240     11.706   2.160  1.17173E+00  9.98347E-01  1.73387E-01
    9005.905     12.370   2.200  1.14113E+00  1.00267E+00  1.38456E-01
    9006.581     13.047   2.240  1.10247E+00  1.00656E+00  9.59108E-02
    9007.270     13.736   2.280  1.06341E+00  1.01003E+00  5.33709E-02
    9007.971     14.437   2.320  1.02809E+00  1.01312E+00  1.49611E-02
    9008.684     15.150   2.360  9.95631E-01  1.01584E+00 -2.02046E-02
    9009.410     15.876   2.400  9.68345E-01  1.01816E+00 -4.98110E-02
    9010.147     16.613   2.440  9.49799E-01  1.02013E+00 -7.03344E-02
    9010.897     17.363   2.480  9.39831E-01  1.02178E+00 -8.19443E-02
    9011.659     18.125   2.520  9.34442E-01  1.02309E+00 -8.86489E-02
    9012.433     18.899   2.560  9.28962E-01  1.02411E+00 -9.51468E-02
    9013.220     19.686   2.600  9.20776E-01  1.02482E+00 -1.04042E-01
    9014.018     20.484   2.640  9.10957E-01  1.02527E+00 -1.14309E-01
    9014.829     21.295   2.680  9.03287E-01  1.02547E+00 -1.22178E-01
    9015.652     22.118   2.720  8.99508E-01  1.02542E+00 -1.25916E-01
    9016.487     22.953   2.760  8.98506E-01  1.02517E+00 -1.26665E-01
    9017.335     23.800   2.800  9.04010E-01  1.02474E+00 -1.20726E-01
    9018.194     24.660   2.840  9.13470E-01  1.02409E+00 -1.10616E-01
    9019.066     25.532   2.880  9.24910E-01  1.02329E+00 -9.83843E-02
    9019.950     26.415   2.920  9.37025E-01  1.02237E+00 -8.53426E-02
    9020.846     27.312   2.960  9.48913E-01  1.02129E+00 -7.23812E-02
    9021.754     28.220   3.000  9.60184E-01  1.02012E+00 -5.99368E-02
    9022.675     29.140   3.040  9.70414E-01  1.01884E+00 -4.84232E-02
    9023.607     30.073   3.080  9.79200E-01  1.01749E+00 -3.82910E-02
    9024.552     31.018   3.120  9.86118E-01  1.01607E+00 -2.99509E-02
    9025.509     31.975   3.160  9.90806E-01  1.01458E+00 -2.37715E-02
    9026.478     32.944   3.200  9.93100E-01  1.01306E+00 -1.99644E-02
    9027.460     33.926   3.240  9.93218E-01  1.01152E+00 -1.82980E-02
    9028.454     34.919   3.280  9.91695E-01  1.00994E+00 -1.82415E-02
    9029.459     35.925   3.320  9.89429E-01  1.00837E+00 -1.89463E-02
    9030.477     36.943   3.360  9.87430E-01  1.00681E+00 -1.93847E-02
    9031.508     37.973   3.400  9.86725E-01  1.00526E+00 -1.85353E-02
    9032.550     39.016   3.440  9.88073E-01  1.00374E+00 -1.56631E-02
    9033.605     40.070   3.480  9.91812E-01  1.00223E+00 -1.04148E-02
    9034.671     41.137   3.520  9.98013E-01  1.00078E+00 -2.76444E-03
    9035.750     42.216   3.560  1.00623E+00  9.99371E-01  6.85970E-03
    9036.842     43.307   3.600  1.01558E+00  9.98011E-01  1.75699E-02
    9037.945     44.411   3.640  1.02493E+00  9.96720E-01  2.82119E-02
    9039.061     45.526   3.680  1.03311E+00  9.95480E-01  3.76307E-02
    9040.188     46.654   3.720  1.03920E+00  9.94314E-01  4.48848E-02
    9041.328     47.794   3.760  1.04284E+00  9.93225E-01  4.96117E-02
    9042.480     48.946   3.800  1.04408E+00  9.92215E-01  5.18619E-02
    9043.645     50.111   3.840  1.04320E+00  9.91284E-01  5.19116E-02
    9044.821     51.287   3.880  1.04062E+00  9.90434E-01  5.01887E-02
    9046.010     52.476   3.920  1.03687E+00  9.89665E-01  4.72042E-02
    9047.211     53.677   3.960  1.03244E+00  9.88978E-01  4.34607E-02
    9048.424     54.890   4.000  1.02781E+00  9.88375E-01  3.94368E-02
    9049.649     56.115   4.040  1.02345E+00  9.87876E-01  3.55699E-02
    9050.887     57.353   4.080  1.01959E+00  9.87460E-01  3.21272E-02
    9052.136     58.602   4.120  1.01632E+00  9.87104E-01  2.92191E-02
    9053.398     59.864   4.160  1.01363E+00  9.86851E-01  2.67838E-02
    9054.672     61.138   4.200  1.01126E+00  9.86681E-01  2.45837E-02
    9055.959     62.424   4.240  1.00887E+00  9.86592E-01  2.22786E-02
    9057.257     63.723   4.280  1.00615E+00  9.86583E-01  1.95709E-02
    9058.568     65.033   4.320  1.00292E+00  9.86654E-01  1.62702E-02
    9059.890     66.356   4.360  9.99105E-01  9.86802E-01  1.23028E-02
    9061.226     67.691   4.400  9.94771E-01  9.87025E-01  7.74539E-03
    9062.573     69.039   4.440  9.90186E-01  9.87301E-01  2.88472E-03
    9063.932     70.398   4.480  9.85853E-01  9.87649E-01 -1.79648E-03
    9065.304     71.770   4.520  9.82361E-01  9.88047E-01 -5.68596E-03
    9066.688     73.153   4.560  9.80298E-01  9.88513E-01 -8.21405E-03
    9068.083     74.549   4.600  9.79954E-01  9.89026E-01 -9.07204E-03
    9069.492     75.957   4.640  9.81251E-01  9.89603E-01 -8.35135E-03
    9070.912     77.378   4.680  9.83703E-01  9.90198E-01 -6.49495E-03
    9072.345     78.810   4.720  9.86653E-01  9.90832E-01 -4.17833E-03
    9073.789     80.255   4.760  9.89413E-01  9.91501E-01 -2.08711E-03
    9075.246     81.712   4.800  9.91452E-01  9.92202E-01 -7.49956E-04
    9076.715     83.181   4.840  9.92450E-01  9.92912E-01 -4.61848E-04
    9078.197     84.662   4.880  9.92324E-01  9.93629E-01 -1.30415E-03
    9079.690     86.156   4.920  9.91147E-01  9.94371E-01 -3.22352E-03
    9081.196     87.662   4.960  9.89006E-01  9.95116E-01 -6.10992E-03
    9082.714     89.180   5.000  9.86092E-01  9.95859E-01 -9.76656E-03
    9084.244     90.710   5.040  9.82705E-01  9.96577E-01 -1.38719E-02
    9085.786     92.252   5.080  9.79349E-01  9.97311E-01 -1.79618E-02
    9087.341     93.806   5.120  9.76494E-01  9.98015E-01 -2.15212E-02
    9088.907     95.373   5.160  9.74447E-01  9.98686E-01 -2.42386E-02
    9090.486     96.952   5.200  9.73120E-01  9.99343E-01 -2.62235E-02
    9092.077     98.543   5.240  9.71998E-01  9.99965E-01 -2.79671E-02
    9093.680    100.146   5.280  9.70570E-01  1.00055E+00 -2.99769E-02
    9095.296    101.762   5.320  9.68699E-01  1.00109E+00 -3.23897E-02
    9096.924    103.389   5.360  9.66678E-01  1.00159E+00 -3.49104E-02
    9098.563    105.029   5.400  9.65041E-01  1.00204E+00 -3.70043E-02
    9100.215    106.681   5.440  9.64353E-01  1.00246E+00 -3.81028E-02
    9101.880    108.345   5.480  9.65104E-01  1.00280E+00 -3.76925E-02
    9103.556    110.022   5.520  9.67734E-01  1.00309E+00 -3.53541E-02
    9105.245    111.710   5.560  9.72452E-01  1.00331E+00 -3.08575E-02
    9106.945    113.411   5.600  9.79221E-01  1.00348E+00 -2.42577E-02
    9108.658    115.124   5.640  9.87664E-01  1.00358E+00 -1.59135E-02
    9110.383    116.849   5.680  9.97219E-01  1.00363E+00 -6.40784E-03
    9112.121    118.587   5.720  1.00717E+00  1.00360E+00  3.56562E-03
    9113.870    120.336   5.760  1.01683E+00  1.00353E+00  1.33027E-02
    9115.632    122.098   5.800  1.02554E+00  1.00338E+00  2.21629E-02
    9117.406    123.872   5.840  1.03279E+00  1.00316E+00  2.96243E-02
    9119.192    125.658   5.880  1.03823E+00  1.00289E+00  3.53312E-02
    9120.990    127.456   5.920  1.04173E+00  1.00256E+00  3.91703E-02
    9122.801    129.267   5.960  1.04337E+00  1.00217E+00  4.12059E-02
    9124.624    131.089   6.000  1.04309E+00  1.00167E+00  4.14198E-02
