# # comment:                                                     FEFF 9.9.1  
# # Source:
# # Structure
# # Reduced
# # space
# # abc:
# # angles:
# # sites:
# # POT  SCF 100  7.0000   0, screened core-hole, AFOLP (folp(0)= 1.150)
# # Abs   Z=29 Rmt= 1.237 Rnm= 1.309 K  shell
# # Pot 1 Z=62 Rmt= 1.684 Rnm= 1.732
# # Pot 2 Z=23 Rmt= 1.246 Rnm= 1.381
# # Pot 3 Z=29 Rmt= 1.234 Rnm= 1.307
# # Pot 4 Z= 8 Rmt= 0.987 Rnm= 1.095
# # Gam_ch=1.729E+00 H-L exch Vi= 0.000E+00 Vr= 0.000E+00
# # Mu=-9.923E+00eV kf=2.204E+00 Vint=-1.852E+01eV Rs_int= 1.645
# FMS rfms= 9.0000
# # PATH  Rmax=-1.000,  Keep_limit= 0.00, Heap_limit 0.00  Pwcrit= 2.50%
#  S02=0.950  Temp=   0.00  Debye_temp=   0.00  Global_sig2= 0.00000
#  Energy zero shift, vr, vi    0.00000E+00   0.00000E+00
#  Curved wave amplitude ratio filter   4.000%
#     file         sig2 tot  cw amp ratio   deg  nlegs   reff  inp sig2
#     0/   0 paths used
#  xsedge+ 50, used to normalize mu           2.4751E-04
#  -----------------------------------------------------------------------
#  omega    e    k    mu    mu0     chi     @#
    8984.813    -13.733  -1.000  3.77083E-02  5.13774E-02 -1.36691E-02
    8985.112    -13.434  -0.960  3.96679E-02  5.50438E-02 -1.53760E-02
    8985.399    -13.147  -0.920  4.17709E-02  5.91129E-02 -1.73420E-02
    8985.673    -12.873  -0.880  4.40322E-02  6.36434E-02 -1.96113E-02
    8985.935    -12.611  -0.840  4.64687E-02  6.87040E-02 -2.22353E-02
    8986.185    -12.361  -0.800  4.90996E-02  7.43738E-02 -2.52743E-02
    8986.423    -12.123  -0.760  5.19465E-02  8.07439E-02 -2.87975E-02
    8986.648    -11.898  -0.720  5.50334E-02  8.79171E-02 -3.28836E-02
    8986.862    -11.684  -0.680  5.83863E-02  9.60062E-02 -3.76199E-02
    8987.063    -11.483  -0.640  6.20319E-02  1.05131E-01 -4.30988E-02
    8987.252    -11.294  -0.600  6.59953E-02  1.15407E-01 -4.94122E-02
    8987.429    -11.117  -0.560  7.02960E-02  1.26936E-01 -5.66403E-02
    8987.593    -10.953  -0.520  7.49415E-02  1.39776E-01 -6.48345E-02
    8987.746    -10.800  -0.480  7.99186E-02  1.53913E-01 -7.39941E-02
    8987.886    -10.660  -0.440  8.51836E-02  1.69223E-01 -8.40390E-02
    8988.014    -10.532  -0.400  9.06532E-02  1.85440E-01 -9.47869E-02
    8988.130    -10.416  -0.360  9.62025E-02  2.02149E-01 -1.05946E-01
    8988.233    -10.313  -0.320  1.01672E-01  2.18807E-01 -1.17135E-01
    8988.325    -10.221  -0.280  1.06884E-01  2.34813E-01 -1.27930E-01
    8988.404    -10.142  -0.240  1.11670E-01  2.49590E-01 -1.37920E-01
    8988.471    -10.075  -0.200  1.15886E-01  2.62650E-01 -1.46765E-01
    8988.526    -10.020  -0.160  1.19428E-01  2.73639E-01 -1.54212E-01
    8988.569     -9.977  -0.120  1.22230E-01  2.82328E-01 -1.60098E-01
    8988.599     -9.947  -0.080  1.24257E-01  2.88589E-01 -1.64333E-01
    8988.623     -9.923   0.000  1.25903E-01  2.93620E-01 -1.67717E-01
    8988.678     -9.868   0.120  1.29489E-01  3.04966E-01 -1.75476E-01
    8988.721     -9.825   0.160  1.32272E-01  3.13803E-01 -1.81531E-01
    8988.776     -9.770   0.200  1.35745E-01  3.25059E-01 -1.89313E-01
    8988.843     -9.703   0.240  1.39928E-01  3.38644E-01 -1.98716E-01
    8988.922     -9.624   0.280  1.44642E-01  3.54237E-01 -2.09595E-01
    8989.014     -9.532   0.320  1.49767E-01  3.71471E-01 -2.21704E-01
    8989.117     -9.429   0.360  1.55103E-01  3.89863E-01 -2.34760E-01
    8989.233     -9.313   0.400  1.60524E-01  4.08902E-01 -2.48377E-01
    8989.361     -9.185   0.440  1.65897E-01  4.28080E-01 -2.62183E-01
    8989.501     -9.045   0.480  1.71414E-01  4.47074E-01 -2.75660E-01
    8989.654     -8.892   0.520  1.77498E-01  4.65592E-01 -2.88095E-01
    8989.818     -8.728   0.560  1.85063E-01  4.83572E-01 -2.98509E-01
    8989.995     -8.551   0.600  1.95323E-01  5.00963E-01 -3.05640E-01
    8990.184     -8.362   0.640  2.09683E-01  5.17797E-01 -3.08114E-01
    8990.385     -8.161   0.680  2.29597E-01  5.34179E-01 -3.04582E-01
    8990.599     -7.948   0.720  2.56013E-01  5.50166E-01 -2.94153E-01
    8990.824     -7.722   0.760  2.88569E-01  5.65855E-01 -2.77286E-01
    8991.062     -7.484   0.800  3.24639E-01  5.81312E-01 -2.56673E-01
    8991.312     -7.234   0.840  3.60180E-01  5.96593E-01 -2.36414E-01
    8991.574     -6.972   0.880  3.93057E-01  6.11740E-01 -2.18683E-01
    8991.848     -6.698   0.920  4.25090E-01  6.26784E-01 -2.01694E-01
    8992.135     -6.411   0.960  4.59122E-01  6.41764E-01 -1.82642E-01
    8992.433     -6.113   1.000  4.95125E-01  6.56668E-01 -1.61543E-01
    8992.744     -5.802   1.040  5.32104E-01  6.71498E-01 -1.39394E-01
    8993.067     -5.479   1.080  5.76771E-01  6.86269E-01 -1.09498E-01
    8993.403     -5.143   1.120  6.45383E-01  7.00947E-01 -5.55634E-02
    8993.750     -4.796   1.160  7.43607E-01  7.15495E-01  2.81118E-02
    8994.110     -4.436   1.200  8.36558E-01  7.29934E-01  1.06624E-01
    8994.482     -4.064   1.240  8.50714E-01  7.44220E-01  1.06494E-01
    8994.866     -3.680   1.280  7.62631E-01  7.58326E-01  4.30435E-03
    8995.262     -3.284   1.320  6.46919E-01  7.72203E-01 -1.25283E-01
    8995.670     -2.876   1.360  5.72435E-01  7.85863E-01 -2.13429E-01
    8996.091     -2.455   1.400  5.55107E-01  7.99237E-01 -2.44130E-01
    8996.524     -2.022   1.440  5.91078E-01  8.12332E-01 -2.21254E-01
    8996.969     -1.577   1.480  6.70400E-01  8.25079E-01 -1.54680E-01
    8997.426     -1.120   1.520  7.70893E-01  8.37489E-01 -6.65963E-02
    8997.895     -0.651   1.560  8.59283E-01  8.49531E-01  9.75234E-03
    8998.377     -0.169   1.600  9.17929E-01  8.61175E-01  5.67541E-02
    8998.871      0.325   1.640  9.52578E-01  8.72394E-01  8.01840E-02
    8999.377      0.831   1.680  9.56988E-01  8.83180E-01  7.38083E-02
    8999.895      1.349   1.720  9.13010E-01  8.93529E-01  1.94809E-02
    9000.425      1.879   1.760  8.55993E-01  9.03413E-01 -4.74203E-02
    9000.968      2.422   1.800  8.44075E-01  9.12809E-01 -6.87344E-02
    9001.523      2.976   1.840  8.78929E-01  9.21735E-01 -4.28057E-02
    9002.089      3.543   1.880  9.33487E-01  9.30190E-01  3.29746E-03
    9002.669      4.122   1.920  9.96243E-01  9.38153E-01  5.80896E-02
    9003.260      4.714   1.960  1.07005E+00  9.45625E-01  1.24424E-01
    9003.863      5.317   2.000  1.14896E+00  9.52628E-01  1.96331E-01
    9004.479      5.933   2.040  1.20539E+00  9.59145E-01  2.46249E-01
    9005.107      6.561   2.080  1.23094E+00  9.65201E-01  2.65736E-01
    9005.747      7.201   2.120  1.23846E+00  9.70799E-01  2.67661E-01
    9006.399      7.853   2.160  1.24423E+00  9.75926E-01  2.68308E-01
    9007.064      8.518   2.200  1.26498E+00  9.80628E-01  2.84355E-01
    9007.740      9.194   2.240  1.29570E+00  9.84913E-01  3.10785E-01
    9008.429      9.883   2.280  1.31345E+00  9.88788E-01  3.24666E-01
    9009.130     10.584   2.320  1.31893E+00  9.92262E-01  3.26664E-01
    9009.844     11.297   2.360  1.32638E+00  9.95362E-01  3.31013E-01
    9010.569     12.023   2.400  1.32682E+00  9.98118E-01  3.28699E-01
    9011.307     12.760   2.440  1.29614E+00  1.00052E+00  2.95623E-01
    9012.056     13.510   2.480  1.22451E+00  1.00259E+00  2.21920E-01
    9012.818     14.272   2.520  1.13232E+00  1.00435E+00  1.27969E-01
    9013.593     15.046   2.560  1.05027E+00  1.00584E+00  4.44269E-02
    9014.379     15.833   2.600  9.97529E-01  1.00705E+00 -9.52099E-03
    9015.177     16.631   2.640  9.72593E-01  1.00801E+00 -3.54190E-02
    9015.988     17.442   2.680  9.55273E-01  1.00873E+00 -5.34607E-02
    9016.811     18.265   2.720  9.40549E-01  1.00925E+00 -6.86958E-02
    9017.646     19.100   2.760  9.29930E-01  1.00955E+00 -7.96242E-02
    9018.494     19.948   2.800  9.23421E-01  1.00969E+00 -8.62689E-02
    9019.353     20.807   2.840  9.19662E-01  1.00966E+00 -8.99986E-02
    9020.225     21.679   2.880  9.16162E-01  1.00947E+00 -9.33111E-02
    9021.109     22.563   2.920  9.10465E-01  1.00913E+00 -9.86693E-02
    9022.005     23.459   2.960  9.01580E-01  1.00869E+00 -1.07112E-01
    9022.913     24.367   3.000  8.90135E-01  1.00814E+00 -1.18003E-01
    9023.834     25.288   3.040  8.77574E-01  1.00749E+00 -1.29919E-01
    9024.766     26.220   3.080  8.65611E-01  1.00677E+00 -1.41157E-01
    9025.711     27.165   3.120  8.55918E-01  1.00599E+00 -1.50069E-01
    9026.668     28.122   3.160  8.49579E-01  1.00514E+00 -1.55558E-01
    9027.638     29.092   3.200  8.47185E-01  1.00424E+00 -1.57055E-01
    9028.619     30.073   3.240  8.49072E-01  1.00330E+00 -1.54230E-01
    9029.613     31.067   3.280  8.54602E-01  1.00233E+00 -1.47727E-01
    9030.619     32.073   3.320  8.63285E-01  1.00135E+00 -1.38062E-01
    9031.637     33.091   3.360  8.74707E-01  1.00036E+00 -1.25653E-01
    9032.667     34.121   3.400  8.88162E-01  9.99371E-01 -1.11209E-01
    9033.709     35.163   3.440  9.02537E-01  9.98381E-01 -9.58446E-02
    9034.764     36.218   3.480  9.16826E-01  9.97397E-01 -8.05707E-02
    9035.831     37.285   3.520  9.30500E-01  9.96441E-01 -6.59413E-02
    9036.910     38.364   3.560  9.43604E-01  9.95497E-01 -5.18928E-02
    9038.001     39.455   3.600  9.57052E-01  9.94606E-01 -3.75542E-02
    9039.104     40.558   3.640  9.71868E-01  9.93729E-01 -2.18608E-02
    9040.220     41.674   3.680  9.88676E-01  9.92867E-01 -4.19097E-03
    9041.348     42.801   3.720  1.00736E+00  9.92067E-01  1.52896E-02
    9042.487     43.941   3.760  1.02679E+00  9.91309E-01  3.54847E-02
    9043.640     45.094   3.800  1.04492E+00  9.90614E-01  5.43062E-02
    9044.804     46.258   3.840  1.05910E+00  9.89941E-01  6.91611E-02
    9045.980     47.434   3.880  1.06711E+00  9.89333E-01  7.77779E-02
    9047.169     48.623   3.920  1.06747E+00  9.88768E-01  7.87043E-02
    9048.370     49.824   3.960  1.06007E+00  9.88246E-01  7.18238E-02
    9049.583     51.037   4.000  1.04651E+00  9.87772E-01  5.87390E-02
    9050.808     52.262   4.040  1.02975E+00  9.87364E-01  4.23823E-02
    9052.046     53.500   4.080  1.01334E+00  9.87024E-01  2.63199E-02
    9053.296     54.750   4.120  1.00060E+00  9.86710E-01  1.38900E-02
    9054.557     56.011   4.160  9.94003E-01  9.86462E-01  7.54115E-03
    9055.832     57.285   4.200  9.94722E-01  9.86281E-01  8.44120E-03
    9057.118     58.572   4.240  1.00236E+00  9.86123E-01  1.62378E-02
    9058.416     59.870   4.280  1.01522E+00  9.86029E-01  2.91929E-02
    9059.727     61.181   4.320  1.03054E+00  9.85980E-01  4.45633E-02
    9061.050     62.504   4.360  1.04518E+00  9.85974E-01  5.92086E-02
    9062.385     63.839   4.400  1.05635E+00  9.86032E-01  7.03151E-02
    9063.732     65.186   4.440  1.06200E+00  9.86110E-01  7.58917E-02
    9065.091     66.545   4.480  1.06124E+00  9.86248E-01  7.49940E-02
    9066.463     67.917   4.520  1.05440E+00  9.86405E-01  6.79965E-02
    9067.847     69.301   4.560  1.04339E+00  9.86620E-01  5.67697E-02
    9069.243     70.697   4.600  1.03091E+00  9.86851E-01  4.40616E-02
    9070.651     72.105   4.640  1.01991E+00  9.87117E-01  3.27978E-02
    9072.071     73.525   4.680  1.01261E+00  9.87417E-01  2.51893E-02
    9073.504     74.958   4.720  1.00978E+00  9.87729E-01  2.20499E-02
    9074.949     76.402   4.760  1.01077E+00  9.88073E-01  2.27004E-02
    9076.405     77.859   4.800  1.01390E+00  9.88447E-01  2.54487E-02
    9077.875     79.329   4.840  1.01726E+00  9.88829E-01  2.84330E-02
    9079.356     80.810   4.880  1.01951E+00  9.89216E-01  3.02991E-02
    9080.849     82.303   4.920  1.01997E+00  9.89627E-01  3.03402E-02
    9082.355     83.809   4.960  1.01833E+00  9.90020E-01  2.83069E-02
    9083.873     85.327   5.000  1.01468E+00  9.90436E-01  2.42436E-02
    9085.403     86.857   5.040  1.00900E+00  9.90853E-01  1.81419E-02
    9086.945     88.399   5.080  1.00105E+00  9.91271E-01  9.77521E-03
    9088.500     89.954   5.120  9.90367E-01  9.91684E-01 -1.31734E-03
    9090.067     91.520   5.160  9.76689E-01  9.92072E-01 -1.53831E-02
    9091.645     93.099   5.200  9.60473E-01  9.92477E-01 -3.20041E-02
    9093.236     94.690   5.240  9.42795E-01  9.92856E-01 -5.00604E-02
    9094.840     96.294   5.280  9.25162E-01  9.93226E-01 -6.80631E-02
    9096.455     97.909   5.320  9.09012E-01  9.93564E-01 -8.45523E-02
    9098.083     99.537   5.360  8.95584E-01  9.93892E-01 -9.83080E-02
    9099.723    101.177   5.400  8.85743E-01  9.94186E-01 -1.08443E-01
    9101.375    102.829   5.440  8.80105E-01  9.94445E-01 -1.14340E-01
    9103.039    104.493   5.480  8.79067E-01  9.94693E-01 -1.15626E-01
    9104.715    106.169   5.520  8.82742E-01  9.94909E-01 -1.12167E-01
    9106.404    107.858   5.560  8.91065E-01  9.95110E-01 -1.04046E-01
    9108.105    109.558   5.600  9.03845E-01  9.95274E-01 -9.14290E-02
    9109.817    111.271   5.640  9.20927E-01  9.95378E-01 -7.44511E-02
    9111.543    112.997   5.680  9.42206E-01  9.95467E-01 -5.32611E-02
    9113.280    114.734   5.720  9.67131E-01  9.95541E-01 -2.84099E-02
    9115.030    116.483   5.760  9.94229E-01  9.95555E-01 -1.32616E-03
    9116.791    118.245   5.800  1.02117E+00  9.95530E-01  2.56387E-02
    9118.565    120.019   5.840  1.04551E+00  9.95489E-01  5.00252E-02
    9120.351    121.805   5.880  1.06554E+00  9.95388E-01  7.01510E-02
    9122.150    123.604   5.920  1.08035E+00  9.95272E-01  8.50802E-02
    9123.960    125.414   5.960  1.08878E+00  9.95090E-01  9.36847E-02
    9125.783    127.237   6.000  1.08882E+00  9.94874E-01  9.39465E-02
