# # comment:                                                     FEFF 9.9.1  
# # Source:
# # Structure
# # Reduced
# # space
# # abc:
# # angles:
# # sites:
# # POT  SCF 100  7.0000   0, screened core-hole, AFOLP (folp(0)= 1.150)
# # Abs   Z=29 Rmt= 1.216 Rnm= 1.363 K  shell
# # Pot 1 Z=81 Rmt= 1.958 Rnm= 2.000
# # Pot 2 Z=29 Rmt= 1.288 Rnm= 1.358
# # Pot 3 Z=15 Rmt= 0.942 Rnm= 1.157
# # Pot 4 Z= 8 Rmt= 0.872 Rnm= 1.038
# # Gam_ch=1.729E+00 H-L exch Vi= 0.000E+00 Vr= 0.000E+00
# # Mu=-5.797E+00eV kf=2.436E+00 Vint=-1.640E+01eV Rs_int= 1.489
# FMS rfms= 9.0000
# # PATH  Rmax=-1.000,  Keep_limit= 0.00, Heap_limit 0.00  Pwcrit= 2.50%
#  S02=0.950  Temp=   0.00  Debye_temp=   0.00  Global_sig2= 0.00000
#  Energy zero shift, vr, vi    0.00000E+00   0.00000E+00
#  Curved wave amplitude ratio filter   4.000%
#     file         sig2 tot  cw amp ratio   deg  nlegs   reff  inp sig2
#     0/   0 paths used
#  xsedge+ 50, used to normalize mu           2.4818E-04
#  -----------------------------------------------------------------------
#  omega    e    k    mu    mu0     chi     @#
    8983.309     -9.607  -1.000  5.05429E-02  5.46241E-02 -4.08117E-03
    8983.607     -9.308  -0.960  5.41660E-02  5.86493E-02 -4.48325E-03
    8983.894     -9.021  -0.920  5.81986E-02  6.31288E-02 -4.93020E-03
    8984.168     -8.747  -0.880  6.27030E-02  6.81304E-02 -5.42740E-03
    8984.430     -8.485  -0.840  6.77521E-02  7.37329E-02 -5.98087E-03
    8984.680     -8.235  -0.800  7.34305E-02  8.00278E-02 -6.59731E-03
    8984.918     -7.997  -0.760  7.98361E-02  8.71202E-02 -7.28411E-03
    8985.144     -7.772  -0.720  8.70797E-02  9.51290E-02 -8.04926E-03
    8985.357     -7.558  -0.680  9.52840E-02  1.04185E-01 -8.90119E-03
    8985.558     -7.357  -0.640  1.04579E-01  1.14427E-01 -9.84834E-03
    8985.747     -7.168  -0.600  1.15094E-01  1.25992E-01 -1.08984E-02
    8985.924     -6.991  -0.560  1.26938E-01  1.38996E-01 -1.20572E-02
    8986.088     -6.827  -0.520  1.40182E-01  1.53508E-01 -1.33265E-02
    8986.241     -6.674  -0.480  1.54814E-01  1.69516E-01 -1.47018E-02
    8986.381     -6.534  -0.440  1.70708E-01  1.86877E-01 -1.61691E-02
    8986.509     -6.406  -0.400  1.87584E-01  2.05287E-01 -1.77029E-02
    8986.625     -6.290  -0.360  2.05003E-01  2.24268E-01 -1.92652E-02
    8986.728     -6.187  -0.320  2.22388E-01  2.43196E-01 -2.08085E-02
    8986.820     -6.095  -0.280  2.39100E-01  2.61381E-01 -2.22807E-02
    8986.899     -6.016  -0.240  2.54528E-01  2.78160E-01 -2.36325E-02
    8986.966     -5.949  -0.200  2.68157E-01  2.92980E-01 -2.48231E-02
    8987.021     -5.894  -0.160  2.79616E-01  3.05439E-01 -2.58224E-02
    8987.064     -5.851  -0.120  2.88670E-01  3.15281E-01 -2.66106E-02
    8987.094     -5.821  -0.080  2.95191E-01  3.22367E-01 -2.71755E-02
    8987.119     -5.797   0.000  3.00435E-01  3.28057E-01 -2.76217E-02
    8987.174     -5.742   0.120  3.12155E-01  3.40876E-01 -2.87209E-02
    8987.216     -5.699   0.160  3.21271E-01  3.50840E-01 -2.95690E-02
    8987.271     -5.644   0.200  3.32884E-01  3.63538E-01 -3.06536E-02
    8987.338     -5.577   0.240  3.46831E-01  3.78786E-01 -3.19546E-02
    8987.417     -5.498   0.280  3.62806E-01  3.96260E-01 -3.34541E-02
    8987.509     -5.406   0.320  3.80347E-01  4.15468E-01 -3.51209E-02
    8987.612     -5.303   0.360  3.98907E-01  4.35852E-01 -3.69447E-02
    8987.728     -5.187   0.400  4.17806E-01  4.56775E-01 -3.89693E-02
    8987.856     -5.059   0.440  4.36330E-01  4.77679E-01 -4.13483E-02
    8987.996     -4.919   0.480  4.53703E-01  4.98107E-01 -4.44043E-02
    8988.149     -4.766   0.520  4.69127E-01  5.17787E-01 -4.86599E-02
    8988.313     -4.602   0.560  4.81855E-01  5.36591E-01 -5.47363E-02
    8988.490     -4.425   0.600  4.91381E-01  5.54489E-01 -6.31082E-02
    8988.679     -4.236   0.640  4.97770E-01  5.71526E-01 -7.37559E-02
    8988.880     -4.035   0.680  5.01899E-01  5.87804E-01 -8.59048E-02
    8989.094     -3.821   0.720  5.05371E-01  6.03444E-01 -9.80724E-02
    8989.319     -3.596   0.760  5.10113E-01  6.18524E-01 -1.08410E-01
    8989.557     -3.358   0.800  5.17912E-01  6.33152E-01 -1.15241E-01
    8989.807     -3.108   0.840  5.29797E-01  6.47405E-01 -1.17609E-01
    8990.069     -2.846   0.880  5.45697E-01  6.61365E-01 -1.15668E-01
    8990.343     -2.572   0.920  5.64301E-01  6.75060E-01 -1.10759E-01
    8990.630     -2.285   0.960  5.83809E-01  6.88563E-01 -1.04754E-01
    8990.929     -1.987   1.000  6.02896E-01  7.01856E-01 -9.89600E-02
    8991.240     -1.676   1.040  6.21121E-01  7.14995E-01 -9.38739E-02
    8991.563     -1.353   1.080  6.38117E-01  7.27966E-01 -8.98495E-02
    8991.898     -1.017   1.120  6.53618E-01  7.40787E-01 -8.71690E-02
    8992.245     -0.670   1.160  6.67454E-01  7.53430E-01 -8.59755E-02
    8992.605     -0.310   1.200  6.78498E-01  7.65906E-01 -8.74077E-02
    8992.977      0.062   1.240  6.85628E-01  7.78199E-01 -9.25716E-02
    8993.361      0.446   1.280  6.90593E-01  7.90313E-01 -9.97204E-02
    8993.757      0.842   1.320  6.95758E-01  8.02186E-01 -1.06427E-01
    8994.166      1.250   1.360  7.01845E-01  8.13855E-01 -1.12009E-01
    8994.586      1.671   1.400  7.09589E-01  8.25258E-01 -1.15669E-01
    8995.019      2.104   1.440  7.20180E-01  8.36392E-01 -1.16213E-01
    8995.464      2.549   1.480  7.35055E-01  8.47252E-01 -1.12197E-01
    8995.921      3.006   1.520  7.54382E-01  8.57811E-01 -1.03429E-01
    8996.391      3.475   1.560  7.74715E-01  8.68065E-01 -9.33502E-02
    8996.872      3.957   1.600  7.93560E-01  8.77970E-01 -8.44104E-02
    8997.366      4.451   1.640  8.12519E-01  8.87520E-01 -7.50014E-02
    8997.872      4.957   1.680  8.36667E-01  8.96731E-01 -6.00639E-02
    8998.390      5.475   1.720  8.67666E-01  9.05559E-01 -3.78930E-02
    8998.920      6.005   1.760  9.01377E-01  9.14003E-01 -1.26261E-02
    8999.463      6.548   1.800  9.33865E-01  9.22059E-01  1.18062E-02
    9000.018      7.102   1.840  9.62480E-01  9.29726E-01  3.27538E-02
    9000.585      7.669   1.880  9.85535E-01  9.37003E-01  4.85323E-02
    9001.164      8.249   1.920  1.00656E+00  9.43891E-01  6.26713E-02
    9001.755      8.840   1.960  1.03190E+00  9.50371E-01  8.15333E-02
    9002.359      9.443   2.000  1.06185E+00  9.56443E-01  1.05405E-01
    9002.974     10.059   2.040  1.08985E+00  9.62130E-01  1.27719E-01
    9003.602     10.687   2.080  1.10830E+00  9.67435E-01  1.40865E-01
    9004.242     11.327   2.120  1.11434E+00  9.72362E-01  1.41977E-01
    9004.895     11.979   2.160  1.11006E+00  9.76915E-01  1.33146E-01
    9005.559     12.644   2.200  1.10043E+00  9.81079E-01  1.19349E-01
    9006.236     13.320   2.240  1.09282E+00  9.84920E-01  1.07902E-01
    9006.924     14.009   2.280  1.09236E+00  9.88401E-01  1.03955E-01
    9007.626     14.710   2.320  1.09656E+00  9.91529E-01  1.05026E-01
    9008.339     15.423   2.360  1.10002E+00  9.94353E-01  1.05665E-01
    9009.064     16.149   2.400  1.10152E+00  9.96879E-01  1.04642E-01
    9009.802     16.887   2.440  1.10325E+00  9.99092E-01  1.04161E-01
    9010.552     17.636   2.480  1.10630E+00  1.00104E+00  1.05259E-01
    9011.314     18.398   2.520  1.10910E+00  1.00271E+00  1.06385E-01
    9012.088     19.173   2.560  1.10933E+00  1.00413E+00  1.05191E-01
    9012.874     19.959   2.600  1.10629E+00  1.00531E+00  1.00973E-01
    9013.673     20.757   2.640  1.10235E+00  1.00628E+00  9.60750E-02
    9014.483     21.568   2.680  1.09948E+00  1.00701E+00  9.24693E-02
    9015.306     22.391   2.720  1.09289E+00  1.00756E+00  8.53246E-02
    9016.142     23.226   2.760  1.07620E+00  1.00793E+00  6.82779E-02
    9016.989     24.074   2.800  1.05244E+00  1.00814E+00  4.42974E-02
    9017.848     24.933   2.840  1.03246E+00  1.00818E+00  2.42848E-02
    9018.720     25.805   2.880  1.02047E+00  1.00810E+00  1.23739E-02
    9019.604     26.689   2.920  1.01307E+00  1.00788E+00  5.19729E-03
    9020.500     27.585   2.960  1.00760E+00  1.00753E+00  6.63207E-05
    9021.408     28.493   3.000  1.00205E+00  1.00710E+00 -5.04965E-03
    9022.329     29.414   3.040  9.95285E-01  1.00657E+00 -1.12850E-02
    9023.262     30.346   3.080  9.87093E-01  1.00594E+00 -1.88486E-02
    9024.207     31.291   3.120  9.77940E-01  1.00526E+00 -2.73154E-02
    9025.164     32.248   3.160  9.68471E-01  1.00452E+00 -3.60492E-02
    9026.133     33.218   3.200  9.59309E-01  1.00372E+00 -4.44079E-02
    9027.114     34.199   3.240  9.51100E-01  1.00289E+00 -5.17916E-02
    9028.108     35.193   3.280  9.44357E-01  1.00201E+00 -5.76498E-02
    9029.114     36.199   3.320  9.39315E-01  1.00111E+00 -6.17940E-02
    9030.132     37.217   3.360  9.35867E-01  1.00020E+00 -6.43348E-02
    9031.162     38.247   3.400  9.33742E-01  9.99268E-01 -6.55266E-02
    9032.204     39.289   3.440  9.32444E-01  9.98352E-01 -6.59073E-02
    9033.259     40.344   3.480  9.31412E-01  9.97414E-01 -6.60024E-02
    9034.326     41.411   3.520  9.30448E-01  9.96501E-01 -6.60531E-02
    9035.405     42.490   3.560  9.29655E-01  9.95594E-01 -6.59395E-02
    9036.496     43.581   3.600  9.29344E-01  9.94716E-01 -6.53717E-02
    9037.599     44.684   3.640  9.29857E-01  9.93847E-01 -6.39901E-02
    9038.715     45.800   3.680  9.31413E-01  9.93012E-01 -6.15993E-02
    9039.843     46.927   3.720  9.33951E-01  9.92211E-01 -5.82603E-02
    9040.983     48.067   3.760  9.37233E-01  9.91447E-01 -5.42136E-02
    9042.135     49.220   3.800  9.41040E-01  9.90699E-01 -4.96586E-02
    9043.299     50.384   3.840  9.45187E-01  9.90009E-01 -4.48220E-02
    9044.476     51.560   3.880  9.49359E-01  9.89339E-01 -3.99800E-02
    9045.664     52.749   3.920  9.53400E-01  9.88731E-01 -3.53315E-02
    9046.865     53.950   3.960  9.57239E-01  9.88166E-01 -3.09269E-02
    9048.078     55.163   4.000  9.61011E-01  9.87642E-01 -2.66302E-02
    9049.304     56.388   4.040  9.65010E-01  9.87161E-01 -2.21511E-02
    9050.541     57.626   4.080  9.69624E-01  9.86745E-01 -1.71206E-02
    9051.791     58.876   4.120  9.75112E-01  9.86371E-01 -1.12590E-02
    9053.053     60.137   4.160  9.81594E-01  9.86018E-01 -4.42350E-03
    9054.327     61.412   4.200  9.89112E-01  9.85729E-01  3.38356E-03
    9055.613     62.698   4.240  9.97499E-01  9.85504E-01  1.19951E-02
    9056.911     63.996   4.280  1.00634E+00  9.85302E-01  2.10357E-02
    9058.222     65.307   4.320  1.01520E+00  9.85162E-01  3.00425E-02
    9059.545     66.630   4.360  1.02362E+00  9.85041E-01  3.85797E-02
    9060.880     67.965   4.400  1.03121E+00  9.84983E-01  4.62304E-02
    9062.227     69.312   4.440  1.03763E+00  9.84967E-01  5.26644E-02
    9063.587     70.671   4.480  1.04261E+00  9.84990E-01  5.76170E-02
    9064.958     72.043   4.520  1.04590E+00  9.85050E-01  6.08453E-02
    9066.342     73.427   4.560  1.04733E+00  9.85127E-01  6.22044E-02
    9067.738     74.823   4.600  1.04693E+00  9.85261E-01  6.16672E-02
    9069.146     76.231   4.640  1.04471E+00  9.85412E-01  5.92938E-02
    9070.566     77.651   4.680  1.04085E+00  9.85618E-01  5.52335E-02
    9071.999     79.084   4.720  1.03557E+00  9.85814E-01  4.97518E-02
    9073.444     80.529   4.760  1.02919E+00  9.86064E-01  4.31262E-02
    9074.901     81.985   4.800  1.02201E+00  9.86324E-01  3.56824E-02
    9076.370     83.455   4.840  1.01440E+00  9.86591E-01  2.78050E-02
    9077.851     84.936   4.880  1.00680E+00  9.86889E-01  1.99118E-02
    9079.345     86.429   4.920  9.99686E-01  9.87214E-01  1.24719E-02
    9080.850     87.935   4.960  9.93473E-01  9.87523E-01  5.95099E-03
    9082.368     89.453   5.000  9.88569E-01  9.87856E-01  7.13125E-04
    9083.898     90.983   5.040  9.85133E-01  9.88192E-01 -3.05939E-03
    9085.441     92.525   5.080  9.83088E-01  9.88527E-01 -5.43983E-03
    9086.995     94.080   5.120  9.82128E-01  9.88863E-01 -6.73492E-03
    9088.562     95.647   5.160  9.81809E-01  9.89198E-01 -7.38841E-03
    9090.141     97.225   5.200  9.81679E-01  9.89531E-01 -7.85160E-03
    9091.732     98.816   5.240  9.81428E-01  9.89862E-01 -8.43426E-03
    9093.335    100.420   5.280  9.80770E-01  9.90189E-01 -9.41882E-03
    9094.950    102.035   5.320  9.79961E-01  9.90486E-01 -1.05249E-02
    9096.578    103.663   5.360  9.79110E-01  9.90776E-01 -1.16662E-02
    9098.218    105.303   5.400  9.78421E-01  9.91059E-01 -1.26376E-02
    9099.870    106.955   5.440  9.78143E-01  9.91310E-01 -1.31668E-02
    9101.534    108.619   5.480  9.78515E-01  9.91527E-01 -1.30126E-02
    9103.210    110.295   5.520  9.79670E-01  9.91735E-01 -1.20646E-02
    9104.899    111.984   5.560  9.81596E-01  9.91932E-01 -1.03365E-02
    9106.600    113.685   5.600  9.83677E-01  9.92073E-01 -8.39641E-03
    9108.313    115.397   5.640  9.85740E-01  9.92200E-01 -6.46064E-03
    9110.038    117.123   5.680  9.87430E-01  9.92316E-01 -4.88612E-03
    9111.775    118.860   5.720  9.88420E-01  9.92373E-01 -3.95282E-03
    9113.525    120.610   5.760  9.88532E-01  9.92416E-01 -3.88410E-03
    9115.287    122.371   5.800  9.87552E-01  9.92422E-01 -4.87078E-03
    9117.060    124.145   5.840  9.85353E-01  9.92391E-01 -7.03845E-03
    9118.847    125.931   5.880  9.81977E-01  9.92325E-01 -1.03485E-02
    9120.645    127.730   5.920  9.77688E-01  9.92245E-01 -1.45570E-02
    9122.455    129.540   5.960  9.72921E-01  9.92101E-01 -1.91799E-02
    9124.278    131.363   6.000  9.68423E-01  9.91924E-01 -2.35012E-02
