# # comment:                                                     FEFF 9.9.1  
# # Source:
# # Structure
# # Reduced
# # space
# # abc:
# # angles:102.699270
# # sites:
# # POT  SCF 100  7.0000   0, screened core-hole, AFOLP (folp(0)= 1.150)
# # Abs   Z=29 Rmt= 1.233 Rnm= 1.305 K  shell
# # Pot 1 Z=38 Rmt= 1.780 Rnm= 1.848
# # Pot 2 Z=13 Rmt= 1.157 Rnm= 1.327
# # Pot 3 Z=29 Rmt= 1.232 Rnm= 1.305
# # Pot 4 Z= 8 Rmt= 1.012 Rnm= 1.091
# # Gam_ch=1.729E+00 H-L exch Vi= 0.000E+00 Vr= 0.000E+00
# # Mu=-8.095E+00eV kf=2.081E+00 Vint=-1.700E+01eV Rs_int= 1.743
# FMS rfms= 9.0000
# # PATH  Rmax=-1.000,  Keep_limit= 0.00, Heap_limit 0.00  Pwcrit= 2.50%
#  S02=0.950  Temp=   0.00  Debye_temp=   0.00  Global_sig2= 0.00000
#  Energy zero shift, vr, vi    0.00000E+00   0.00000E+00
#  Curved wave amplitude ratio filter   4.000%
#     file         sig2 tot  cw amp ratio   deg  nlegs   reff  inp sig2
#     0/   0 paths used
#  xsedge+ 50, used to normalize mu           2.4503E-04
#  -----------------------------------------------------------------------
#  omega    e    k    mu    mu0     chi     @#
    8984.288    -11.905  -1.000  3.93685E-02  5.61797E-02 -1.68112E-02
    8984.587    -11.606  -0.960  4.14255E-02  6.03150E-02 -1.88895E-02
    8984.873    -11.320  -0.920  4.36318E-02  6.49139E-02 -2.12821E-02
    8985.148    -11.045  -0.880  4.60021E-02  7.00449E-02 -2.40428E-02
    8985.410    -10.783  -0.840  4.85524E-02  7.57878E-02 -2.72354E-02
    8985.660    -10.533  -0.800  5.13007E-02  8.22349E-02 -3.09342E-02
    8985.898    -10.295  -0.760  5.42668E-02  8.94923E-02 -3.52255E-02
    8986.123    -10.070  -0.720  5.74721E-02  9.76800E-02 -4.02079E-02
    8986.337     -9.856  -0.680  6.09390E-02  1.06930E-01 -4.59908E-02
    8986.538     -9.655  -0.640  6.46898E-02  1.17381E-01 -5.26916E-02
    8986.727     -9.466  -0.600  6.87441E-02  1.29171E-01 -6.04274E-02
    8986.903     -9.290  -0.560  7.31149E-02  1.42417E-01 -6.93023E-02
    8987.068     -9.125  -0.520  7.78022E-02  1.57188E-01 -7.93859E-02
    8987.220     -8.973  -0.480  8.27847E-02  1.73469E-01 -9.06846E-02
    8987.361     -8.832  -0.440  8.80104E-02  1.91118E-01 -1.03107E-01
    8987.489     -8.704  -0.400  9.33891E-02  2.09825E-01 -1.16436E-01
    8987.604     -8.589  -0.360  9.87927E-02  2.29109E-01 -1.30316E-01
    8987.708     -8.485  -0.320  1.04065E-01  2.48339E-01 -1.44274E-01
    8987.800     -8.393  -0.280  1.09041E-01  2.66817E-01 -1.57776E-01
    8987.879     -8.314  -0.240  1.13572E-01  2.83873E-01 -1.70301E-01
    8987.946     -8.247  -0.200  1.17539E-01  2.98945E-01 -1.81406E-01
    8988.001     -8.192  -0.160  1.20860E-01  3.11622E-01 -1.90763E-01
    8988.043     -8.150  -0.120  1.23482E-01  3.21642E-01 -1.98161E-01
    8988.074     -8.119  -0.080  1.25374E-01  3.28860E-01 -2.03486E-01
    8988.098     -8.095   0.000  1.26906E-01  3.34657E-01 -2.07751E-01
    8988.153     -8.040   0.120  1.30406E-01  3.47734E-01 -2.17328E-01
    8988.196     -7.997   0.160  1.33094E-01  3.57889E-01 -2.24795E-01
    8988.251     -7.942   0.200  1.36525E-01  3.70850E-01 -2.34325E-01
    8988.318     -7.875   0.240  1.40723E-01  3.86459E-01 -2.45736E-01
    8988.397     -7.796   0.280  1.45639E-01  4.04361E-01 -2.58722E-01
    8988.488     -7.705   0.320  1.51277E-01  4.24097E-01 -2.72820E-01
    8988.592     -7.601   0.360  1.57690E-01  4.45096E-01 -2.87406E-01
    8988.708     -7.485   0.400  1.64986E-01  4.66754E-01 -3.01768E-01
    8988.836     -7.357   0.440  1.73381E-01  4.88514E-01 -3.15133E-01
    8988.976     -7.217   0.480  1.83191E-01  5.09909E-01 -3.26718E-01
    8989.128     -7.065   0.520  1.94926E-01  5.30643E-01 -3.35717E-01
    8989.293     -6.900   0.560  2.09435E-01  5.50632E-01 -3.41197E-01
    8989.470     -6.723   0.600  2.27811E-01  5.69800E-01 -3.41989E-01
    8989.659     -6.534   0.640  2.51541E-01  5.88206E-01 -3.36665E-01
    8989.860     -6.333   0.680  2.82425E-01  6.05908E-01 -3.23483E-01
    8990.073     -6.120   0.720  3.22389E-01  6.23059E-01 -3.00670E-01
    8990.299     -5.894   0.760  3.72654E-01  6.39688E-01 -2.67034E-01
    8990.537     -5.656   0.800  4.32506E-01  6.55898E-01 -2.23392E-01
    8990.787     -5.406   0.840  4.96658E-01  6.71775E-01 -1.75117E-01
    8991.049     -5.144   0.880  5.53307E-01  6.87351E-01 -1.34044E-01
    8991.323     -4.870   0.920  5.87138E-01  7.02666E-01 -1.15528E-01
    8991.610     -4.583   0.960  5.88525E-01  7.17725E-01 -1.29200E-01
    8991.908     -4.285   1.000  5.61818E-01  7.32583E-01 -1.70765E-01
    8992.219     -3.974   1.040  5.23092E-01  7.47185E-01 -2.24093E-01
    8992.542     -3.651   1.080  4.88881E-01  7.61587E-01 -2.72706E-01
    8992.877     -3.315   1.120  4.67374E-01  7.75722E-01 -3.08348E-01
    8993.225     -2.968   1.160  4.60327E-01  7.89596E-01 -3.29269E-01
    8993.585     -2.608   1.200  4.67464E-01  8.03210E-01 -3.35746E-01
    8993.956     -2.237   1.240  4.86082E-01  8.16503E-01 -3.30420E-01
    8994.341     -1.852   1.280  5.10450E-01  8.29472E-01 -3.19021E-01
    8994.737     -1.456   1.320  5.35976E-01  8.42093E-01 -3.06117E-01
    8995.145     -1.048   1.360  5.60064E-01  8.54340E-01 -2.94277E-01
    8995.566     -0.627   1.400  5.79755E-01  8.66187E-01 -2.86431E-01
    8995.999     -0.194   1.440  5.98344E-01  8.77626E-01 -2.79281E-01
    8996.444      0.251   1.480  6.26083E-01  8.88611E-01 -2.62528E-01
    8996.901      0.708   1.520  6.72484E-01  8.99139E-01 -2.26655E-01
    8997.370      1.177   1.560  7.41991E-01  9.09204E-01 -1.67213E-01
    8997.852      1.659   1.600  8.36737E-01  9.18783E-01 -8.20465E-02
    8998.346      2.153   1.640  9.62263E-01  9.27873E-01  3.43894E-02
    8998.852      2.659   1.680  1.11046E+00  9.36473E-01  1.73986E-01
    8999.370      3.177   1.720  1.25447E+00  9.44562E-01  3.09912E-01
    8999.900      3.707   1.760  1.38370E+00  9.52140E-01  4.31564E-01
    9000.443      4.250   1.800  1.48645E+00  9.59210E-01  5.27236E-01
    9000.997      4.804   1.840  1.53496E+00  9.65797E-01  5.69158E-01
    9001.564      5.371   1.880  1.52757E+00  9.71882E-01  5.55684E-01
    9002.143      5.950   1.920  1.49750E+00  9.77493E-01  5.20009E-01
    9002.735      6.542   1.960  1.48353E+00  9.82638E-01  5.00895E-01
    9003.338      7.145   2.000  1.49108E+00  9.87299E-01  5.03776E-01
    9003.954      7.761   2.040  1.49173E+00  9.91528E-01  5.00207E-01
    9004.582      8.389   2.080  1.45780E+00  9.95333E-01  4.62464E-01
    9005.222      9.029   2.120  1.38800E+00  9.98722E-01  3.89279E-01
    9005.874      9.681   2.160  1.29860E+00  1.00173E+00  2.96877E-01
    9006.539     10.346   2.200  1.20717E+00  1.00435E+00  2.02820E-01
    9007.215     11.022   2.240  1.12809E+00  1.00662E+00  1.21477E-01
    9007.904     11.711   2.280  1.06831E+00  1.00854E+00  5.97729E-02
    9008.605     12.412   2.320  1.02521E+00  1.01014E+00  1.50690E-02
    9009.318     13.125   2.360  9.91071E-01  1.01147E+00 -2.03987E-02
    9010.044     13.851   2.400  9.62029E-01  1.01251E+00 -5.04852E-02
    9010.781     14.588   2.440  9.39987E-01  1.01328E+00 -7.32979E-02
    9011.531     15.338   2.480  9.27164E-01  1.01385E+00 -8.66893E-02
    9012.293     16.100   2.520  9.27275E-01  1.01419E+00 -8.69138E-02
    9013.067     16.874   2.560  9.31084E-01  1.01432E+00 -8.32350E-02
    9013.854     17.661   2.600  9.37309E-01  1.01428E+00 -7.69670E-02
    9014.652     18.459   2.640  9.44293E-01  1.01407E+00 -6.97757E-02
    9015.463     19.270   2.680  9.50021E-01  1.01371E+00 -6.36842E-02
    9016.286     20.093   2.720  9.52940E-01  1.01324E+00 -6.02952E-02
    9017.121     20.928   2.760  9.52680E-01  1.01265E+00 -5.99661E-02
    9017.969     21.776   2.800  9.50344E-01  1.01197E+00 -6.16232E-02
    9018.828     22.635   2.840  9.47635E-01  1.01118E+00 -6.35485E-02
    9019.700     23.507   2.880  9.46061E-01  1.01036E+00 -6.43030E-02
    9020.584     24.391   2.920  9.46140E-01  1.00945E+00 -6.33122E-02
    9021.480     25.287   2.960  9.47827E-01  1.00852E+00 -6.06907E-02
    9022.388     26.195   3.000  9.51016E-01  1.00755E+00 -5.65300E-02
    9023.309     27.116   3.040  9.55451E-01  1.00656E+00 -5.11114E-02
    9024.241     28.048   3.080  9.60778E-01  1.00555E+00 -4.47725E-02
    9025.186     28.993   3.120  9.66248E-01  1.00456E+00 -3.83071E-02
    9026.143     29.950   3.160  9.70399E-01  1.00354E+00 -3.31428E-02
    9027.112     30.919   3.200  9.71922E-01  1.00255E+00 -3.06310E-02
    9028.094     31.901   3.240  9.69984E-01  1.00157E+00 -3.15902E-02
    9029.088     32.895   3.280  9.64533E-01  1.00065E+00 -3.61160E-02
    9030.093     33.900   3.320  9.56277E-01  9.99740E-01 -4.34626E-02
    9031.111     34.918   3.360  9.46526E-01  9.98868E-01 -5.23422E-02
    9032.142     35.949   3.400  9.36708E-01  9.98036E-01 -6.13281E-02
    9033.184     36.991   3.440  9.28009E-01  9.97246E-01 -6.92373E-02
    9034.239     38.046   3.480  9.21388E-01  9.96522E-01 -7.51342E-02
    9035.305     39.112   3.520  9.17489E-01  9.95824E-01 -7.83343E-02
    9036.384     40.191   3.560  9.16607E-01  9.95215E-01 -7.86076E-02
    9037.476     41.283   3.600  9.18459E-01  9.94655E-01 -7.61963E-02
    9038.579     42.386   3.640  9.22838E-01  9.94145E-01 -7.13063E-02
    9039.695     43.502   3.680  9.29663E-01  9.93703E-01 -6.40397E-02
    9040.822     44.629   3.720  9.38757E-01  9.93313E-01 -5.45560E-02
    9041.962     45.769   3.760  9.49719E-01  9.92996E-01 -4.32766E-02
    9043.114     46.921   3.800  9.61556E-01  9.92751E-01 -3.11946E-02
    9044.279     48.086   3.840  9.72587E-01  9.92556E-01 -1.99688E-02
    9045.455     49.262   3.880  9.81156E-01  9.92432E-01 -1.12766E-02
    9046.644     50.451   3.920  9.86475E-01  9.92359E-01 -5.88476E-03
    9047.845     51.652   3.960  9.89050E-01  9.92357E-01 -3.30656E-03
    9049.058     52.865   4.000  9.90433E-01  9.92404E-01 -1.97033E-03
    9050.283     54.090   4.040  9.92538E-01  9.92519E-01  1.92678E-05
    9051.521     55.328   4.080  9.96935E-01  9.92680E-01  4.25533E-03
    9052.770     56.577   4.120  1.00454E+00  9.92887E-01  1.16500E-02
    9054.032     57.839   4.160  1.01559E+00  9.93159E-01  2.24321E-02
    9055.306     59.113   4.200  1.02967E+00  9.93453E-01  3.62191E-02
    9056.593     60.400   4.240  1.04589E+00  9.93811E-01  5.20751E-02
    9057.891     61.698   4.280  1.06282E+00  9.94211E-01  6.86096E-02
    9059.202     63.009   4.320  1.07902E+00  9.94651E-01  8.43663E-02
    9060.525     64.332   4.360  1.09332E+00  9.95130E-01  9.81890E-02
    9061.860     65.667   4.400  1.10526E+00  9.95643E-01  1.09614E-01
    9063.207     67.014   4.440  1.11494E+00  9.96169E-01  1.18772E-01
    9064.566     68.373   4.480  1.12232E+00  9.96729E-01  1.25595E-01
    9065.938     69.745   4.520  1.12639E+00  9.97320E-01  1.29067E-01
    9067.322     71.129   4.560  1.12542E+00  9.97918E-01  1.27506E-01
    9068.718     72.525   4.600  1.11821E+00  9.98522E-01  1.19684E-01
    9070.126     73.933   4.640  1.10489E+00  9.99153E-01  1.05733E-01
    9071.546     75.353   4.680  1.08707E+00  9.99785E-01  8.72882E-02
    9072.979     76.786   4.720  1.06705E+00  1.00042E+00  6.66316E-02
    9074.423     78.230   4.760  1.04660E+00  1.00103E+00  4.55718E-02
    9075.880     79.687   4.800  1.02680E+00  1.00165E+00  2.51479E-02
    9077.349     81.156   4.840  1.00819E+00  1.00228E+00  5.90972E-03
    9078.831     82.638   4.880  9.91222E-01  1.00288E+00 -1.16549E-02
    9080.324     84.131   4.920  9.76370E-01  1.00347E+00 -2.70960E-02
    9081.830     85.637   4.960  9.63770E-01  1.00405E+00 -4.02771E-02
    9083.348     87.155   5.000  9.53251E-01  1.00460E+00 -5.13442E-02
    9084.878     88.685   5.040  9.44598E-01  1.00511E+00 -6.05098E-02
    9086.420     90.227   5.080  9.37702E-01  1.00560E+00 -6.79030E-02
    9087.975     91.782   5.120  9.32494E-01  1.00604E+00 -7.35511E-02
    9089.541     93.348   5.160  9.29096E-01  1.00649E+00 -7.73962E-02
    9091.120     94.927   5.200  9.27540E-01  1.00688E+00 -7.93381E-02
    9092.711     96.518   5.240  9.27797E-01  1.00722E+00 -7.94277E-02
    9094.315     98.122   5.280  9.29799E-01  1.00755E+00 -7.77540E-02
    9095.930     99.737   5.320  9.33653E-01  1.00782E+00 -7.41672E-02
    9097.558    101.365   5.360  9.39773E-01  1.00807E+00 -6.82926E-02
    9099.197    103.004   5.400  9.48292E-01  1.00824E+00 -5.99529E-02
    9100.849    104.656   5.440  9.58863E-01  1.00838E+00 -4.95173E-02
    9102.514    106.321   5.480  9.70665E-01  1.00847E+00 -3.78079E-02
    9104.190    107.997   5.520  9.82690E-01  1.00852E+00 -2.58343E-02
    9105.879    109.686   5.560  9.93863E-01  1.00853E+00 -1.46713E-02
    9107.579    111.386   5.600  1.00304E+00  1.00850E+00 -5.45598E-03
    9109.292    113.099   5.640  1.00925E+00  1.00842E+00  8.30967E-04
    9111.017    114.824   5.680  1.01206E+00  1.00828E+00  3.78478E-03
    9112.755    116.562   5.720  1.01186E+00  1.00809E+00  3.77147E-03
    9114.504    118.311   5.760  1.00969E+00  1.00786E+00  1.83563E-03
    9116.266    120.073   5.800  1.00700E+00  1.00761E+00 -6.08311E-04
    9118.040    121.847   5.840  1.00503E+00  1.00731E+00 -2.27096E-03
    9119.826    123.633   5.880  1.00451E+00  1.00696E+00 -2.45038E-03
    9121.624    125.431   5.920  1.00538E+00  1.00657E+00 -1.19477E-03
    9123.435    127.242   5.960  1.00737E+00  1.00615E+00  1.22251E-03
    9125.258    129.065   6.000  1.00978E+00  1.00566E+00  4.11798E-03
