# # comment:                                                     FEFF 9.9.1  
# # Source:
# # Structure
# # Reduced
# # space
# # abc:
# # angles:
# # sites:
# # POT  SCF 100  7.0000   0, screened core-hole, AFOLP (folp(0)= 1.150)
# # Abs   Z=29 Rmt= 1.358 Rnm= 1.393 K  shell
# # Pot 1 Z=29 Rmt= 1.273 Rnm= 1.335
# # Pot 2 Z= 8 Rmt= 0.948 Rnm= 1.057
# # Gam_ch=1.729E+00 H-L exch Vi= 0.000E+00 Vr= 0.000E+00
# # Mu=-6.872E+00eV kf=2.204E+00 Vint=-1.736E+01eV Rs_int= 1.645
# FMS rfms= 9.0000
# # PATH  Rmax=-1.000,  Keep_limit= 0.00, Heap_limit 0.00  Pwcrit= 2.50%
#  S02=0.950  Temp=   0.00  Debye_temp=   0.00  Global_sig2= 0.00000
#  Energy zero shift, vr, vi    0.00000E+00   0.00000E+00
#  Curved wave amplitude ratio filter   4.000%
#     file         sig2 tot  cw amp ratio   deg  nlegs   reff  inp sig2
#     0/   0 paths used
#  xsedge+ 50, used to normalize mu           2.4648E-04
#  -----------------------------------------------------------------------
#  omega    e    k    mu    mu0     chi     @#
    8984.667    -10.682  -1.000  4.98899E-02  5.88831E-02 -8.99318E-03
    8984.965    -10.383  -0.960  5.33737E-02  6.33662E-02 -9.99253E-03
    8985.252    -10.097  -0.920  5.72458E-02  6.83671E-02 -1.11212E-02
    8985.526     -9.822  -0.880  6.15660E-02  7.39636E-02 -1.23976E-02
    8985.788     -9.560  -0.840  6.64042E-02  8.02468E-02 -1.38426E-02
    8986.038     -9.310  -0.800  7.18424E-02  8.73223E-02 -1.54799E-02
    8986.276     -9.073  -0.760  7.79753E-02  9.53115E-02 -1.73362E-02
    8986.501     -8.847  -0.720  8.49109E-02  1.04352E-01 -1.94410E-02
    8986.715     -8.634  -0.680  9.27691E-02  1.14595E-01 -2.18262E-02
    8986.916     -8.433  -0.640  1.01678E-01  1.26202E-01 -2.45246E-02
    8987.105     -8.244  -0.600  1.11763E-01  1.39331E-01 -2.75675E-02
    8987.282     -8.067  -0.560  1.23136E-01  1.54117E-01 -3.09806E-02
    8987.446     -7.902  -0.520  1.35865E-01  1.70642E-01 -3.47774E-02
    8987.599     -7.750  -0.480  1.49942E-01  1.88892E-01 -3.89506E-02
    8987.739     -7.610  -0.440  1.65244E-01  2.08706E-01 -4.34620E-02
    8987.867     -7.482  -0.400  1.81499E-01  2.29733E-01 -4.82342E-02
    8987.983     -7.366  -0.360  1.98275E-01  2.51423E-01 -5.31481E-02
    8988.086     -7.262  -0.320  2.15009E-01  2.73058E-01 -5.80498E-02
    8988.178     -7.171  -0.280  2.31077E-01  2.93846E-01 -6.27687E-02
    8988.257     -7.091  -0.240  2.45884E-01  3.13023E-01 -6.71389E-02
    8988.324     -7.024  -0.200  2.58938E-01  3.29956E-01 -7.10183E-02
    8988.379     -6.970  -0.160  2.69888E-01  3.44186E-01 -7.42982E-02
    8988.422     -6.927  -0.120  2.78519E-01  3.55423E-01 -7.69042E-02
    8988.452     -6.896  -0.080  2.84721E-01  3.63511E-01 -7.87900E-02
    8988.476     -6.872   0.000  2.89691E-01  3.70005E-01 -8.03137E-02
    8988.531     -6.817   0.120  3.00819E-01  3.84624E-01 -8.38046E-02
    8988.574     -6.774   0.160  3.09425E-01  3.95956E-01 -8.65307E-02
    8988.629     -6.720   0.200  3.20357E-01  4.10417E-01 -9.00591E-02
    8988.696     -6.653   0.240  3.33390E-01  4.27763E-01 -9.43734E-02
    8988.775     -6.573   0.280  3.48129E-01  4.47592E-01 -9.94633E-02
    8988.867     -6.482   0.320  3.64049E-01  4.69351E-01 -1.05302E-01
    8988.970     -6.378   0.360  3.80490E-01  4.92360E-01 -1.11869E-01
    8989.086     -6.262   0.400  3.96715E-01  5.15895E-01 -1.19179E-01
    8989.214     -6.134   0.440  4.11967E-01  5.39258E-01 -1.27291E-01
    8989.354     -5.994   0.480  4.25599E-01  5.61941E-01 -1.36342E-01
    8989.507     -5.842   0.520  4.37137E-01  5.83619E-01 -1.46482E-01
    8989.671     -5.677   0.560  4.46250E-01  6.04121E-01 -1.57871E-01
    8989.848     -5.500   0.600  4.52847E-01  6.23412E-01 -1.70565E-01
    8990.037     -5.311   0.640  4.57097E-01  6.41544E-01 -1.84448E-01
    8990.238     -5.110   0.680  4.59481E-01  6.58634E-01 -1.99153E-01
    8990.452     -4.897   0.720  4.60756E-01  6.74799E-01 -2.14043E-01
    8990.677     -4.671   0.760  4.61955E-01  6.90157E-01 -2.28202E-01
    8990.915     -4.434   0.800  4.64273E-01  7.04791E-01 -2.40518E-01
    8991.165     -4.184   0.840  4.69033E-01  7.18834E-01 -2.49801E-01
    8991.427     -3.922   0.880  4.77420E-01  7.32339E-01 -2.54919E-01
    8991.701     -3.647   0.920  4.90341E-01  7.45362E-01 -2.55021E-01
    8991.988     -3.361   0.960  5.08116E-01  7.57971E-01 -2.49855E-01
    8992.286     -3.062   1.000  5.30365E-01  7.70177E-01 -2.39812E-01
    8992.597     -2.751   1.040  5.56351E-01  7.82000E-01 -2.25649E-01
    8992.920     -2.428   1.080  5.85503E-01  7.93494E-01 -2.07990E-01
    8993.256     -2.093   1.120  6.17009E-01  8.04623E-01 -1.87614E-01
    8993.603     -1.745   1.160  6.48704E-01  8.15409E-01 -1.66705E-01
    8993.963     -1.386   1.200  6.76867E-01  8.25865E-01 -1.48998E-01
    8994.335     -1.014   1.240  6.98588E-01  8.35964E-01 -1.37376E-01
    8994.719     -0.630   1.280  7.14701E-01  8.45736E-01 -1.31035E-01
    8995.115     -0.234   1.320  7.29375E-01  8.55144E-01 -1.25769E-01
    8995.523      0.175   1.360  7.47317E-01  8.64197E-01 -1.16880E-01
    8995.944      0.596   1.400  7.71809E-01  8.72876E-01 -1.01067E-01
    8996.377      1.028   1.440  8.05227E-01  8.81188E-01 -7.59604E-02
    8996.822      1.473   1.480  8.49870E-01  8.89134E-01 -3.92641E-02
    8997.279      1.931   1.520  9.07237E-01  8.96720E-01  1.05175E-02
    8997.748      2.400   1.560  9.75640E-01  9.03926E-01  7.17140E-02
    8998.230      2.882   1.600  1.04766E+00  9.10756E-01  1.36907E-01
    8998.724      3.375   1.640  1.10968E+00  9.17216E-01  1.92464E-01
    8999.230      3.881   1.680  1.14780E+00  9.23310E-01  2.24488E-01
    8999.748      4.399   1.720  1.15846E+00  9.29040E-01  2.29421E-01
    9000.278      4.930   1.760  1.14928E+00  9.34413E-01  2.14866E-01
    9000.821      5.472   1.800  1.12815E+00  9.39435E-01  1.88720E-01
    9001.376      6.027   1.840  1.09834E+00  9.44111E-01  1.54227E-01
    9001.942      6.594   1.880  1.06287E+00  9.48469E-01  1.14405E-01
    9002.522      7.173   1.920  1.02728E+00  9.52513E-01  7.47696E-02
    9003.113      7.764   1.960  9.97447E-01  9.56233E-01  4.12138E-02
    9003.716      8.368   2.000  9.77587E-01  9.59674E-01  1.79126E-02
    9004.332      8.984   2.040  9.70899E-01  9.62824E-01  8.07543E-03
    9004.960      9.611   2.080  9.81219E-01  9.65712E-01  1.55073E-02
    9005.600     10.252   2.120  1.01171E+00  9.68345E-01  4.33671E-02
    9006.252     10.904   2.160  1.05972E+00  9.70751E-01  8.89699E-02
    9006.917     11.568   2.200  1.11143E+00  9.72917E-01  1.38511E-01
    9007.593     12.245   2.240  1.14590E+00  9.74891E-01  1.71004E-01
    9008.282     12.934   2.280  1.15109E+00  9.76641E-01  1.74446E-01
    9008.983     13.635   2.320  1.13428E+00  9.78234E-01  1.56047E-01
    9009.697     14.348   2.360  1.11144E+00  9.79637E-01  1.31806E-01
    9010.422     15.073   2.400  1.08877E+00  9.80899E-01  1.07875E-01
    9011.160     15.811   2.440  1.05713E+00  9.82025E-01  7.51049E-02
    9011.909     16.561   2.480  1.00893E+00  9.83024E-01  2.59080E-02
    9012.671     17.323   2.520  9.52233E-01  9.83900E-01 -3.16668E-02
    9013.446     18.097   2.560  9.04719E-01  9.84658E-01 -7.99397E-02
    9014.232     18.883   2.600  8.76797E-01  9.85326E-01 -1.08530E-01
    9015.031     19.682   2.640  8.73132E-01  9.85931E-01 -1.12799E-01
    9015.841     20.493   2.680  8.81596E-01  9.86436E-01 -1.04840E-01
    9016.664     21.316   2.720  8.94551E-01  9.86907E-01 -9.23559E-02
    9017.499     22.151   2.760  9.07908E-01  9.87308E-01 -7.93999E-02
    9018.347     22.998   2.800  9.20698E-01  9.87664E-01 -6.69661E-02
    9019.206     23.858   2.840  9.33014E-01  9.87976E-01 -5.49623E-02
    9020.078     24.730   2.880  9.45470E-01  9.88252E-01 -4.27825E-02
    9020.962     25.613   2.920  9.58524E-01  9.88514E-01 -2.99900E-02
    9021.858     26.510   2.960  9.71992E-01  9.88766E-01 -1.67746E-02
    9022.766     27.418   3.000  9.85731E-01  9.88990E-01 -3.25820E-03
    9023.687     28.338   3.040  9.99480E-01  9.89208E-01  1.02727E-02
    9024.620     29.271   3.080  1.01277E+00  9.89443E-01  2.33298E-02
    9025.564     30.216   3.120  1.02479E+00  9.89656E-01  3.51295E-02
    9026.521     31.173   3.160  1.03469E+00  9.89869E-01  4.48167E-02
    9027.491     32.142   3.200  1.04185E+00  9.90105E-01  5.17448E-02
    9028.472     33.124   3.240  1.04582E+00  9.90344E-01  5.54769E-02
    9029.466     34.117   3.280  1.04661E+00  9.90588E-01  5.60259E-02
    9030.472     35.123   3.320  1.04424E+00  9.90857E-01  5.33801E-02
    9031.490     36.141   3.360  1.03854E+00  9.91132E-01  4.74045E-02
    9032.520     37.171   3.400  1.02957E+00  9.91414E-01  3.81528E-02
    9033.562     38.214   3.440  1.01769E+00  9.91722E-01  2.59715E-02
    9034.617     39.268   3.480  1.00378E+00  9.92059E-01  1.17240E-02
    9035.684     40.335   3.520  9.88955E-01  9.92382E-01 -3.42668E-03
    9036.763     41.414   3.560  9.74375E-01  9.92752E-01 -1.83771E-02
    9037.854     42.505   3.600  9.60844E-01  9.93108E-01 -3.22640E-02
    9038.957     43.609   3.640  9.49185E-01  9.93491E-01 -4.43057E-02
    9040.073     44.724   3.680  9.40062E-01  9.93900E-01 -5.38374E-02
    9041.201     45.852   3.720  9.34001E-01  9.94292E-01 -6.02906E-02
    9042.341     46.992   3.760  9.31388E-01  9.94710E-01 -6.33224E-02
    9043.493     48.144   3.800  9.32049E-01  9.95153E-01 -6.31045E-02
    9044.657     49.308   3.840  9.35157E-01  9.95577E-01 -6.04199E-02
    9045.834     50.485   3.880  9.39552E-01  9.96022E-01 -5.64694E-02
    9047.022     51.674   3.920  9.44338E-01  9.96447E-01 -5.21094E-02
    9048.223     52.875   3.960  9.49212E-01  9.96894E-01 -4.76820E-02
    9049.436     54.088   4.000  9.54253E-01  9.97339E-01 -4.30861E-02
    9050.662     55.313   4.040  9.59776E-01  9.97782E-01 -3.80054E-02
    9051.899     56.550   4.080  9.65995E-01  9.98200E-01 -3.22056E-02
    9053.149     57.800   4.120  9.72796E-01  9.98634E-01 -2.58381E-02
    9054.411     59.062   4.160  9.79492E-01  9.99042E-01 -1.95506E-02
    9055.685     60.336   4.200  9.85197E-01  9.99444E-01 -1.42467E-02
    9056.971     61.622   4.240  9.89286E-01  9.99838E-01 -1.05523E-02
    9058.269     62.921   4.280  9.91807E-01  1.00020E+00 -8.39510E-03
    9059.580     64.231   4.320  9.93429E-01  1.00056E+00 -7.12691E-03
    9060.903     65.554   4.360  9.94896E-01  1.00088E+00 -5.98140E-03
    9062.238     66.889   4.400  9.96739E-01  1.00119E+00 -4.45069E-03
    9063.585     68.236   4.440  9.99223E-01  1.00147E+00 -2.24513E-03
    9064.944     69.596   4.480  1.00275E+00  1.00174E+00  1.00958E-03
    9066.316     70.967   4.520  1.00788E+00  1.00199E+00  5.88499E-03
    9067.700     72.351   4.560  1.01519E+00  1.00219E+00  1.30017E-02
    9069.096     73.747   4.600  1.02516E+00  1.00238E+00  2.27788E-02
    9070.504     75.155   4.640  1.03772E+00  1.00253E+00  3.51914E-02
    9071.924     76.576   4.680  1.05229E+00  1.00266E+00  4.96352E-02
    9073.357     78.008   4.720  1.06788E+00  1.00273E+00  6.51440E-02
    9074.802     79.453   4.760  1.08362E+00  1.00280E+00  8.08263E-02
    9076.259     80.910   4.800  1.09879E+00  1.00284E+00  9.59481E-02
    9077.728     82.379   4.840  1.11206E+00  1.00283E+00  1.09232E-01
    9079.209     83.860   4.880  1.12093E+00  1.00280E+00  1.18125E-01
    9080.702     85.354   4.920  1.12207E+00  1.00274E+00  1.19332E-01
    9082.208     86.860   4.960  1.11334E+00  1.00266E+00  1.10675E-01
    9083.726     88.378   5.000  1.09501E+00  1.00253E+00  9.24825E-02
    9085.256     89.908   5.040  1.07010E+00  1.00238E+00  6.77209E-02
    9086.798     91.450   5.080  1.04294E+00  1.00219E+00  4.07507E-02
    9088.353     93.004   5.120  1.01743E+00  1.00199E+00  1.54414E-02
    9089.920     94.571   5.160  9.95707E-01  1.00176E+00 -6.05235E-03
    9091.498     96.150   5.200  9.78127E-01  1.00149E+00 -2.33653E-02
    9093.090     97.741   5.240  9.63820E-01  1.00122E+00 -3.73953E-02
    9094.693     99.344   5.280  9.51366E-01  1.00093E+00 -4.95618E-02
    9096.308    100.960   5.320  9.39482E-01  1.00059E+00 -6.11042E-02
    9097.936    102.587   5.360  9.27659E-01  1.00025E+00 -7.25955E-02
    9099.576    104.227   5.400  9.15986E-01  9.99872E-01 -8.38860E-02
    9101.228    105.879   5.440  9.05013E-01  9.99503E-01 -9.44906E-02
    9102.892    107.543   5.480  8.95157E-01  9.99106E-01 -1.03948E-01
    9104.568    109.220   5.520  8.87078E-01  9.98701E-01 -1.11623E-01
    9106.257    110.908   5.560  8.81817E-01  9.98270E-01 -1.16453E-01
    9107.958    112.609   5.600  8.80505E-01  9.97857E-01 -1.17352E-01
    9109.671    114.322   5.640  8.83417E-01  9.97418E-01 -1.14001E-01
    9111.396    116.047   5.680  8.90134E-01  9.96974E-01 -1.06840E-01
    9113.133    117.785   5.720  9.00263E-01  9.96505E-01 -9.62415E-02
    9114.883    119.534   5.760  9.14143E-01  9.96059E-01 -8.19159E-02
    9116.644    121.296   5.800  9.32345E-01  9.95614E-01 -6.32689E-02
    9118.418    123.070   5.840  9.54740E-01  9.95147E-01 -4.04067E-02
    9120.204    124.856   5.880  9.79821E-01  9.94707E-01 -1.48855E-02
    9122.003    126.654   5.920  1.00430E+00  9.94275E-01  1.00247E-02
    9123.813    128.465   5.960  1.02427E+00  9.93832E-01  3.04353E-02
    9125.636    130.287   6.000  1.03851E+00  9.93422E-01  4.50895E-02
