# # comment:                                                     FEFF 9.9.1  
# # Source:
# # Structure
# # Reduced
# # space
# # abc:
# # angles:
# # sites:
# # POT  SCF 100  7.0000   0, screened core-hole, AFOLP (folp(0)= 1.150)
# # Abs   Z=29 Rmt= 1.239 Rnm= 1.342 K  shell
# # Pot 1 Z=29 Rmt= 1.220 Rnm= 1.329
# # Pot 2 Z=34 Rmt= 1.095 Rnm= 1.335
# # Pot 3 Z= 8 Rmt= 1.019 Rnm= 1.110
# # Gam_ch=1.729E+00 H-L exch Vi= 0.000E+00 Vr= 0.000E+00
# # Mu=-6.744E+00eV kf=2.226E+00 Vint=-1.518E+01eV Rs_int= 1.629
# FMS rfms= 9.0000
# # PATH  Rmax=-1.000,  Keep_limit= 0.00, Heap_limit 0.00  Pwcrit= 2.50%
#  S02=0.950  Temp=   0.00  Debye_temp=   0.00  Global_sig2= 0.00000
#  Energy zero shift, vr, vi    0.00000E+00   0.00000E+00
#  Curved wave amplitude ratio filter   4.000%
#     file         sig2 tot  cw amp ratio   deg  nlegs   reff  inp sig2
#     0/   0 paths used
#  xsedge+ 50, used to normalize mu           2.4575E-04
#  -----------------------------------------------------------------------
#  omega    e    k    mu    mu0     chi     @#
    8983.379    -10.554  -1.000  3.76919E-02  5.39651E-02 -1.62732E-02
    8983.678    -10.255  -0.960  3.96201E-02  5.78798E-02 -1.82597E-02
    8983.965     -9.969  -0.920  4.16870E-02  6.22287E-02 -2.05417E-02
    8984.239     -9.695  -0.880  4.39061E-02  6.70754E-02 -2.31692E-02
    8984.501     -9.432  -0.840  4.62929E-02  7.24941E-02 -2.62012E-02
    8984.751     -9.183  -0.800  4.88645E-02  7.85707E-02 -2.97062E-02
    8984.989     -8.945  -0.760  5.16396E-02  8.54037E-02 -3.37641E-02
    8985.214     -8.719  -0.720  5.46387E-02  9.31044E-02 -3.84658E-02
    8985.428     -8.506  -0.680  5.78831E-02  1.01795E-01 -4.39122E-02
    8985.629     -8.305  -0.640  6.13941E-02  1.11606E-01 -5.02115E-02
    8985.818     -8.116  -0.600  6.51907E-02  1.22662E-01 -5.74713E-02
    8985.995     -7.939  -0.560  6.92866E-02  1.35073E-01 -6.57863E-02
    8986.159     -7.774  -0.520  7.36850E-02  1.48902E-01 -7.52173E-02
    8986.312     -7.622  -0.480  7.83717E-02  1.64136E-01 -8.57638E-02
    8986.452     -7.482  -0.440  8.33081E-02  1.80639E-01 -9.73310E-02
    8986.580     -7.354  -0.400  8.84239E-02  1.98126E-01 -1.09702E-01
    8986.696     -7.238  -0.360  9.36155E-02  2.16147E-01 -1.22531E-01
    8986.799     -7.134  -0.320  9.87502E-02  2.34115E-01 -1.35365E-01
    8986.891     -7.043  -0.280  1.03679E-01  2.51383E-01 -1.47704E-01
    8986.970     -6.964  -0.240  1.08252E-01  2.67323E-01 -1.59071E-01
    8987.037     -6.897  -0.200  1.12335E-01  2.81413E-01 -1.69078E-01
    8987.092     -6.842  -0.160  1.15816E-01  2.93267E-01 -1.77451E-01
    8987.135     -6.799  -0.120  1.18611E-01  3.02640E-01 -1.84029E-01
    8987.165     -6.769  -0.080  1.20660E-01  3.09394E-01 -1.88734E-01
    8987.189     -6.744   0.000  1.22356E-01  3.14821E-01 -1.92465E-01
    8987.244     -6.689   0.120  1.26251E-01  3.27065E-01 -2.00814E-01
    8987.287     -6.647   0.160  1.29243E-01  3.36580E-01 -2.07337E-01
    8987.342     -6.592   0.200  1.33101E-01  3.48723E-01 -2.15622E-01
    8987.409     -6.525   0.240  1.37863E-01  3.63355E-01 -2.25492E-01
    8987.488     -6.445   0.280  1.43509E-01  3.80148E-01 -2.36639E-01
    8987.580     -6.354   0.320  1.50084E-01  3.98724E-01 -2.48640E-01
    8987.683     -6.250   0.360  1.57550E-01  4.18520E-01 -2.60970E-01
    8987.799     -6.135   0.400  1.65921E-01  4.38979E-01 -2.73058E-01
    8987.927     -6.007   0.440  1.75259E-01  4.59574E-01 -2.84314E-01
    8988.067     -5.866   0.480  1.85707E-01  4.79930E-01 -2.94224E-01
    8988.220     -5.714   0.520  1.97407E-01  4.99757E-01 -3.02350E-01
    8988.384     -5.549   0.560  2.10619E-01  5.18958E-01 -3.08338E-01
    8988.561     -5.373   0.600  2.25426E-01  5.37459E-01 -3.12033E-01
    8988.750     -5.184   0.640  2.41794E-01  5.55336E-01 -3.13542E-01
    8988.951     -4.982   0.680  2.59354E-01  5.72658E-01 -3.13303E-01
    8989.164     -4.769   0.720  2.77512E-01  5.89507E-01 -3.11996E-01
    8989.390     -4.543   0.760  2.95778E-01  6.05966E-01 -3.10188E-01
    8989.628     -4.306   0.800  3.14222E-01  6.22105E-01 -3.07883E-01
    8989.878     -4.056   0.840  3.33615E-01  6.37983E-01 -3.04368E-01
    8990.140     -3.794   0.880  3.54934E-01  6.53626E-01 -2.98692E-01
    8990.414     -3.519   0.920  3.78797E-01  6.69106E-01 -2.90309E-01
    8990.701     -3.233   0.960  4.05152E-01  6.84401E-01 -2.79249E-01
    8990.999     -2.934   1.000  4.34126E-01  6.99543E-01 -2.65417E-01
    8991.310     -2.623   1.040  4.66246E-01  7.14512E-01 -2.48266E-01
    8991.633     -2.300   1.080  5.02123E-01  7.29322E-01 -2.27199E-01
    8991.969     -1.965   1.120  5.41716E-01  7.43919E-01 -2.02203E-01
    8992.316     -1.617   1.160  5.83581E-01  7.58309E-01 -1.74729E-01
    8992.676     -1.258   1.200  6.24223E-01  7.72469E-01 -1.48246E-01
    8993.048     -0.886   1.240  6.59157E-01  7.86354E-01 -1.27197E-01
    8993.432     -0.502   1.280  6.85999E-01  7.99940E-01 -1.13941E-01
    8993.828     -0.106   1.320  7.07654E-01  8.13239E-01 -1.05585E-01
    8994.236      0.303   1.360  7.28865E-01  8.26164E-01 -9.72996E-02
    8994.657      0.723   1.400  7.49007E-01  8.38726E-01 -8.97192E-02
    8995.090      1.156   1.440  7.61543E-01  8.50896E-01 -8.93534E-02
    8995.535      1.601   1.480  7.62285E-01  8.62648E-01 -1.00363E-01
    8995.992      2.058   1.520  7.55189E-01  8.73952E-01 -1.18763E-01
    8996.461      2.528   1.560  7.49368E-01  8.84802E-01 -1.35434E-01
    8996.943      3.009   1.600  7.54383E-01  8.95194E-01 -1.40811E-01
    8997.437      3.503   1.640  7.76333E-01  9.05082E-01 -1.28749E-01
    8997.943      4.009   1.680  8.19841E-01  9.14463E-01 -9.46228E-02
    8998.461      4.527   1.720  8.90189E-01  9.23358E-01 -3.31698E-02
    8998.991      5.058   1.760  9.87794E-01  9.31744E-01  5.60498E-02
    8999.534      5.600   1.800  1.10225E+00  9.39643E-01  1.62611E-01
    9000.088      6.155   1.840  1.21454E+00  9.47016E-01  2.67529E-01
    9000.655      6.722   1.880  1.31128E+00  9.53885E-01  3.57396E-01
    9001.235      7.301   1.920  1.39228E+00  9.60277E-01  4.32000E-01
    9001.826      7.892   1.960  1.45448E+00  9.66177E-01  4.88306E-01
    9002.429      8.496   2.000  1.48306E+00  9.71611E-01  5.11448E-01
    9003.045      9.112   2.040  1.46592E+00  9.76585E-01  4.89338E-01
    9003.673      9.739   2.080  1.40268E+00  9.81109E-01  4.21570E-01
    9004.313     10.379   2.120  1.30869E+00  9.85210E-01  3.23484E-01
    9004.965     11.032   2.160  1.21157E+00  9.88898E-01  2.22677E-01
    9005.630     11.696   2.200  1.13330E+00  9.92202E-01  1.41100E-01
    9006.306     12.373   2.240  1.08197E+00  9.95133E-01  8.68404E-02
    9006.995     13.062   2.280  1.05597E+00  9.97701E-01  5.82684E-02
    9007.696     13.763   2.320  1.04705E+00  9.99934E-01  4.71191E-02
    9008.409     14.476   2.360  1.04515E+00  1.00186E+00  4.32856E-02
    9009.135     15.201   2.400  1.04549E+00  1.00348E+00  4.20082E-02
    9009.873     15.939   2.440  1.04903E+00  1.00483E+00  4.41970E-02
    9010.622     16.689   2.480  1.05869E+00  1.00591E+00  5.27711E-02
    9011.384     17.451   2.520  1.07150E+00  1.00677E+00  6.47256E-02
    9012.159     18.225   2.560  1.07791E+00  1.00742E+00  7.04854E-02
    9012.945     19.011   2.600  1.07250E+00  1.00786E+00  6.46385E-02
    9013.743     19.810   2.640  1.05833E+00  1.00811E+00  5.02136E-02
    9014.554     20.621   2.680  1.04337E+00  1.00822E+00  3.51470E-02
    9015.377     21.444   2.720  1.02923E+00  1.00817E+00  2.10578E-02
    9016.212     22.279   2.760  1.01560E+00  1.00799E+00  7.61160E-03
    9017.060     23.126   2.800  1.00235E+00  1.00771E+00 -5.36753E-03
    9017.919     23.986   2.840  9.89256E-01  1.00732E+00 -1.80666E-02
    9018.791     24.857   2.880  9.76319E-01  1.00685E+00 -3.05259E-02
    9019.675     25.741   2.920  9.63535E-01  1.00629E+00 -4.27536E-02
    9020.571     26.637   2.960  9.50970E-01  1.00566E+00 -5.46901E-02
    9021.479     27.546   3.000  9.38657E-01  1.00501E+00 -6.63482E-02
    9022.400     28.466   3.040  9.26433E-01  1.00431E+00 -7.78768E-02
    9023.332     29.399   3.080  9.14443E-01  1.00358E+00 -8.91348E-02
    9024.277     30.344   3.120  9.03377E-01  1.00281E+00 -9.94374E-02
    9025.234     31.301   3.160  8.93848E-01  1.00207E+00 -1.08218E-01
    9026.204     32.270   3.200  8.86154E-01  1.00130E+00 -1.15141E-01
    9027.185     33.252   3.240  8.80391E-01  1.00054E+00 -1.20154E-01
    9028.179     34.245   3.280  8.76284E-01  9.99800E-01 -1.23516E-01
    9029.185     35.251   3.320  8.73581E-01  9.99063E-01 -1.25481E-01
    9030.203     36.269   3.360  8.72232E-01  9.98356E-01 -1.26124E-01
    9031.233     37.299   3.400  8.72444E-01  9.97683E-01 -1.25240E-01
    9032.275     38.342   3.440  8.74352E-01  9.97025E-01 -1.22674E-01
    9033.330     39.396   3.480  8.78313E-01  9.96426E-01 -1.18113E-01
    9034.397     40.463   3.520  8.84577E-01  9.95867E-01 -1.11290E-01
    9035.476     41.542   3.560  8.93137E-01  9.95328E-01 -1.02191E-01
    9036.567     42.633   3.600  9.03843E-01  9.94851E-01 -9.10073E-02
    9037.670     43.737   3.640  9.16348E-01  9.94417E-01 -7.80685E-02
    9038.786     44.852   3.680  9.30248E-01  9.94028E-01 -6.37797E-02
    9039.913     45.980   3.720  9.44986E-01  9.93705E-01 -4.87186E-02
    9041.053     47.120   3.760  9.60103E-01  9.93425E-01 -3.33222E-02
    9042.206     48.272   3.800  9.75162E-01  9.93191E-01 -1.80294E-02
    9043.370     49.436   3.840  9.89666E-01  9.93002E-01 -3.33564E-03
    9044.546     50.613   3.880  1.00322E+00  9.92879E-01  1.03422E-02
    9045.735     51.802   3.920  1.01552E+00  9.92801E-01  2.27234E-02
    9046.936     53.003   3.960  1.02640E+00  9.92767E-01  3.36374E-02
    9048.149     54.216   4.000  1.03592E+00  9.92797E-01  4.31217E-02
    9049.374     55.441   4.040  1.04428E+00  9.92850E-01  5.14311E-02
    9050.612     56.678   4.080  1.05187E+00  9.92966E-01  5.89010E-02
    9051.862     57.928   4.120  1.05888E+00  9.93123E-01  6.57608E-02
    9053.123     59.190   4.160  1.06556E+00  9.93320E-01  7.22382E-02
    9054.398     60.464   4.200  1.07191E+00  9.93556E-01  7.83535E-02
    9055.684     61.750   4.240  1.07777E+00  9.93808E-01  8.39645E-02
    9056.982     63.049   4.280  1.08295E+00  9.94118E-01  8.88368E-02
    9058.293     64.359   4.320  1.08712E+00  9.94443E-01  9.26749E-02
    9059.616     65.682   4.360  1.08995E+00  9.94824E-01  9.51227E-02
    9060.951     67.017   4.400  1.09101E+00  9.95197E-01  9.58159E-02
    9062.298     68.364   4.440  1.09019E+00  9.95622E-01  9.45731E-02
    9063.657     69.724   4.480  1.08741E+00  9.96055E-01  9.13587E-02
    9065.029     71.095   4.520  1.08285E+00  9.96497E-01  8.63492E-02
    9066.413     72.479   4.560  1.07680E+00  9.96964E-01  7.98313E-02
    9067.809     73.875   4.600  1.06944E+00  9.97436E-01  7.20052E-02
    9069.217     75.283   4.640  1.06085E+00  9.97910E-01  6.29438E-02
    9070.637     76.704   4.680  1.05109E+00  9.98385E-01  5.27021E-02
    9072.070     78.136   4.720  1.04023E+00  9.98860E-01  4.13698E-02
    9073.514     79.581   4.760  1.02851E+00  9.99357E-01  2.91506E-02
    9074.971     81.038   4.800  1.01623E+00  9.99829E-01  1.63985E-02
    9076.441     82.507   4.840  1.00386E+00  1.00030E+00  3.56720E-03
    9077.922     83.988   4.880  9.91938E-01  1.00076E+00 -8.82167E-03
    9079.415     85.482   4.920  9.80910E-01  1.00119E+00 -2.02815E-02
    9080.921     86.988   4.960  9.71195E-01  1.00162E+00 -3.04206E-02
    9082.439     88.505   5.000  9.63091E-01  1.00203E+00 -3.89405E-02
    9083.969     90.036   5.040  9.56722E-01  1.00241E+00 -4.56915E-02
    9085.511     91.578   5.080  9.52066E-01  1.00276E+00 -5.06966E-02
    9087.066     93.132   5.120  9.48993E-01  1.00310E+00 -5.41055E-02
    9088.633     94.699   5.160  9.47277E-01  1.00340E+00 -5.61229E-02
    9090.211     96.278   5.200  9.46790E-01  1.00369E+00 -5.68977E-02
    9091.802     97.869   5.240  9.47322E-01  1.00392E+00 -5.65941E-02
    9093.406     99.472   5.280  9.48762E-01  1.00413E+00 -5.53668E-02
    9095.021    101.088   5.320  9.50954E-01  1.00431E+00 -5.33526E-02
    9096.649    102.715   5.360  9.53913E-01  1.00447E+00 -5.05534E-02
    9098.289    104.355   5.400  9.57620E-01  1.00456E+00 -4.69439E-02
    9099.941    106.007   5.440  9.61999E-01  1.00462E+00 -4.26221E-02
    9101.605    107.671   5.480  9.66734E-01  1.00466E+00 -3.79275E-02
    9103.281    109.348   5.520  9.71281E-01  1.00464E+00 -3.33607E-02
    9104.970    111.036   5.560  9.75201E-01  1.00460E+00 -2.94036E-02
    9106.670    112.737   5.600  9.78254E-01  1.00453E+00 -2.62748E-02
    9108.383    114.450   5.640  9.80554E-01  1.00441E+00 -2.38605E-02
    9110.109    116.175   5.680  9.82468E-01  1.00426E+00 -2.17930E-02
    9111.846    117.912   5.720  9.84427E-01  1.00407E+00 -1.96401E-02
    9113.596    119.662   5.760  9.86813E-01  1.00383E+00 -1.70207E-02
    9115.357    121.424   5.800  9.89887E-01  1.00356E+00 -1.36755E-02
    9117.131    123.198   5.840  9.93769E-01  1.00326E+00 -9.48749E-03
    9118.917    124.984   5.880  9.98386E-01  1.00294E+00 -4.55566E-03
    9120.716    126.782   5.920  1.00334E+00  1.00259E+00  7.44313E-04
    9122.526    128.593   5.960  1.00802E+00  1.00221E+00  5.80394E-03
    9124.349    130.415   6.000  1.01178E+00  1.00178E+00  1.00082E-02
