# # comment:                                                     FEFF 9.9.1  
# # Source:
# # Structure
# # Reduced
# # space
# # abc:
# # angles:
# # sites:
# # POT  SCF 100  7.0000   0, screened core-hole, AFOLP (folp(0)= 1.150)
# # Abs   Z=29 Rmt= 1.178 Rnm= 1.289 K  shell
# # Pot 1 Z=56 Rmt= 1.927 Rnm= 1.986
# # Pot 2 Z=66 Rmt= 1.631 Rnm= 1.710
# # Pot 3 Z=29 Rmt= 1.178 Rnm= 1.289
# # Pot 4 Z= 8 Rmt= 1.087 Rnm= 1.136
# # Gam_ch=1.729E+00 H-L exch Vi= 0.000E+00 Vr= 0.000E+00
# # Mu=-9.314E+00eV kf=1.979E+00 Vint=-1.778E+01eV Rs_int= 1.833
# FMS rfms= 9.0000
# # PATH  Rmax=-1.000,  Keep_limit= 0.00, Heap_limit 0.00  Pwcrit= 2.50%
#  S02=0.950  Temp=   0.00  Debye_temp=   0.00  Global_sig2= 0.00000
#  Energy zero shift, vr, vi    0.00000E+00   0.00000E+00
#  Curved wave amplitude ratio filter   4.000%
#     file         sig2 tot  cw amp ratio   deg  nlegs   reff  inp sig2
#     0/   0 paths used
#  xsedge+ 50, used to normalize mu           2.4508E-04
#  -----------------------------------------------------------------------
#  omega    e    k    mu    mu0     chi     @#
    8985.175    -13.124  -1.000  3.89174E-02  5.70734E-02 -1.81559E-02
    8985.474    -12.826  -0.960  4.11210E-02  6.12770E-02 -2.01560E-02
    8985.761    -12.539  -0.920  4.35368E-02  6.59509E-02 -2.24142E-02
    8986.035    -12.265  -0.880  4.61972E-02  7.11643E-02 -2.49671E-02
    8986.297    -12.003  -0.840  4.91411E-02  7.69979E-02 -2.78568E-02
    8986.547    -11.753  -0.800  5.24141E-02  8.35449E-02 -3.11308E-02
    8986.785    -11.515  -0.760  5.60698E-02  9.09127E-02 -3.48429E-02
    8987.010    -11.289  -0.720  6.01699E-02  9.92221E-02 -3.90522E-02
    8987.224    -11.076  -0.680  6.47838E-02  1.08607E-01 -4.38228E-02
    8987.425    -10.875  -0.640  6.99865E-02  1.19207E-01 -4.92203E-02
    8987.614    -10.686  -0.600  7.58533E-02  1.31161E-01 -5.53074E-02
    8987.791    -10.509  -0.560  8.24513E-02  1.44586E-01 -6.21351E-02
    8987.955    -10.345  -0.520  8.98249E-02  1.59554E-01 -6.97289E-02
    8988.108    -10.192  -0.480  9.79755E-02  1.76047E-01 -7.80720E-02
    8988.248    -10.052  -0.440  1.06839E-01  1.93923E-01 -8.70840E-02
    8988.376     -9.924  -0.400  1.16263E-01  2.12868E-01 -9.66050E-02
    8988.492     -9.808  -0.360  1.26004E-01  2.32395E-01 -1.06391E-01
    8988.595     -9.705  -0.320  1.35737E-01  2.51869E-01 -1.16132E-01
    8988.687     -9.613  -0.280  1.45097E-01  2.70583E-01 -1.25486E-01
    8988.766     -9.534  -0.240  1.53730E-01  2.87858E-01 -1.34129E-01
    8988.833     -9.467  -0.200  1.61341E-01  3.03127E-01 -1.41786E-01
    8988.888     -9.412  -0.160  1.67719E-01  3.15973E-01 -1.48254E-01
    8988.930     -9.369  -0.120  1.72735E-01  3.26128E-01 -1.53393E-01
    8988.961     -9.339  -0.080  1.76325E-01  3.33445E-01 -1.57120E-01
    8988.985     -9.314   0.000  1.79172E-01  3.39325E-01 -1.60153E-01
    8989.040     -9.260   0.120  1.85561E-01  3.52569E-01 -1.67007E-01
    8989.083     -9.217   0.160  1.90512E-01  3.62879E-01 -1.72368E-01
    8989.138     -9.162   0.200  1.96689E-01  3.76034E-01 -1.79345E-01
    8989.205     -9.095   0.240  2.03898E-01  3.91878E-01 -1.87981E-01
    8989.284     -9.016   0.280  2.11684E-01  4.10057E-01 -1.98373E-01
    8989.375     -8.924   0.320  2.19460E-01  4.30135E-01 -2.10675E-01
    8989.479     -8.821   0.360  2.26384E-01  4.51519E-01 -2.25136E-01
    8989.595     -8.705   0.400  2.31482E-01  4.73604E-01 -2.42122E-01
    8989.723     -8.577   0.440  2.33893E-01  4.95814E-01 -2.61921E-01
    8989.863     -8.437   0.480  2.33191E-01  5.17718E-01 -2.84527E-01
    8990.016     -8.284   0.520  2.29667E-01  5.39002E-01 -3.09335E-01
    8990.180     -8.120   0.560  2.24448E-01  5.59557E-01 -3.35109E-01
    8990.357     -7.943   0.600  2.18984E-01  5.79348E-01 -3.60364E-01
    8990.546     -7.754   0.640  2.14606E-01  5.98392E-01 -3.83786E-01
    8990.747     -7.553   0.680  2.12267E-01  6.16765E-01 -4.04497E-01
    8990.960     -7.339   0.720  2.12590E-01  6.34597E-01 -4.22008E-01
    8991.186     -7.114   0.760  2.15838E-01  6.51917E-01 -4.36079E-01
    8991.424     -6.876   0.800  2.22245E-01  6.68844E-01 -4.46599E-01
    8991.674     -6.626   0.840  2.31908E-01  6.85441E-01 -4.53533E-01
    8991.936     -6.364   0.880  2.44977E-01  7.01718E-01 -4.56742E-01
    8992.210     -6.090   0.920  2.62038E-01  7.17731E-01 -4.55693E-01
    8992.497     -5.803   0.960  2.84452E-01  7.33502E-01 -4.49050E-01
    8992.795     -5.504   1.000  3.14026E-01  7.49001E-01 -4.34975E-01
    8993.106     -5.193   1.040  3.52400E-01  7.64273E-01 -4.11873E-01
    8993.429     -4.870   1.080  3.99634E-01  7.79269E-01 -3.79636E-01
    8993.765     -4.535   1.120  4.53976E-01  7.93980E-01 -3.40004E-01
    8994.112     -4.188   1.160  5.12933E-01  8.08388E-01 -2.95455E-01
    8994.472     -3.828   1.200  5.73838E-01  8.22472E-01 -2.48634E-01
    8994.844     -3.456   1.240  6.28693E-01  8.36189E-01 -2.07496E-01
    8995.228     -3.072   1.280  6.61696E-01  8.49535E-01 -1.87839E-01
    8995.624     -2.676   1.320  6.68742E-01  8.62462E-01 -1.93719E-01
    8996.032     -2.267   1.360  6.64925E-01  8.74943E-01 -2.10018E-01
    8996.453     -1.847   1.400  6.64295E-01  8.86971E-01 -2.22676E-01
    8996.886     -1.414   1.440  6.77416E-01  8.98521E-01 -2.21105E-01
    8997.331     -0.969   1.480  7.11836E-01  9.09565E-01 -1.97729E-01
    8997.788     -0.512   1.520  7.62658E-01  9.20098E-01 -1.57440E-01
    8998.257     -0.042   1.560  8.01448E-01  9.30076E-01 -1.28628E-01
    8998.739      0.439   1.600  7.99833E-01  9.39516E-01 -1.39683E-01
    8999.233      0.933   1.640  7.86514E-01  9.48418E-01 -1.61904E-01
    8999.739      1.439   1.680  8.15623E-01  9.56739E-01 -1.41116E-01
    9000.257      1.957   1.720  9.16997E-01  9.64522E-01 -4.75245E-02
    9000.787      2.487   1.760  1.09277E+00  9.71729E-01  1.21041E-01
    9001.330      3.030   1.800  1.31532E+00  9.78405E-01  3.36915E-01
    9001.884      3.585   1.840  1.50704E+00  9.84537E-01  5.22499E-01
    9002.451      4.152   1.880  1.59808E+00  9.90149E-01  6.07933E-01
    9003.030      4.731   1.920  1.60254E+00  9.95229E-01  6.07311E-01
    9003.622      5.322   1.960  1.53499E+00  9.99806E-01  5.35185E-01
    9004.225      5.926   2.000  1.40982E+00  1.00391E+00  4.05915E-01
    9004.841      6.541   2.040  1.28160E+00  1.00753E+00  2.74070E-01
    9005.469      7.169   2.080  1.19663E+00  1.01074E+00  1.85895E-01
    9006.109      7.809   2.120  1.17143E+00  1.01348E+00  1.57945E-01
    9006.761      8.461   2.160  1.18227E+00  1.01586E+00  1.66417E-01
    9007.426      9.126   2.200  1.18757E+00  1.01783E+00  1.69741E-01
    9008.102      9.803   2.240  1.17037E+00  1.01946E+00  1.50909E-01
    9008.791     10.491   2.280  1.14161E+00  1.02074E+00  1.20867E-01
    9009.492     11.192   2.320  1.11779E+00  1.02172E+00  9.60708E-02
    9010.205     11.906   2.360  1.10731E+00  1.02242E+00  8.48934E-02
    9010.931     12.631   2.400  1.11027E+00  1.02285E+00  8.74252E-02
    9011.668     13.369   2.440  1.11980E+00  1.02302E+00  9.67804E-02
    9012.418     14.119   2.480  1.13802E+00  1.02296E+00  1.15060E-01
    9013.180     14.881   2.520  1.15832E+00  1.02272E+00  1.35602E-01
    9013.954     15.655   2.560  1.16646E+00  1.02230E+00  1.44157E-01
    9014.741     16.441   2.600  1.15449E+00  1.02172E+00  1.32764E-01
    9015.539     17.240   2.640  1.12519E+00  1.02098E+00  1.04207E-01
    9016.350     18.050   2.680  1.08713E+00  1.02012E+00  6.70094E-02
    9017.173     18.873   2.720  1.04868E+00  1.01916E+00  2.95177E-02
    9018.008     19.709   2.760  1.01459E+00  1.01811E+00 -3.51871E-03
    9018.856     20.556   2.800  9.86070E-01  1.01698E+00 -3.09141E-02
    9019.715     21.415   2.840  9.63429E-01  1.01578E+00 -5.23543E-02
    9020.587     22.287   2.880  9.46634E-01  1.01456E+00 -6.79216E-02
    9021.471     23.171   2.920  9.34975E-01  1.01327E+00 -7.82936E-02
    9022.367     24.067   2.960  9.27466E-01  1.01197E+00 -8.45018E-02
    9023.275     24.975   3.000  9.22694E-01  1.01066E+00 -8.79664E-02
    9024.196     25.896   3.040  9.19364E-01  1.00935E+00 -8.99879E-02
    9025.128     26.829   3.080  9.16520E-01  1.00805E+00 -9.15259E-02
    9026.073     27.774   3.120  9.13633E-01  1.00677E+00 -9.31336E-02
    9027.030     28.731   3.160  9.10260E-01  1.00550E+00 -9.52380E-02
    9028.000     29.700   3.200  9.06041E-01  1.00426E+00 -9.82223E-02
    9028.981     30.681   3.240  9.00756E-01  1.00307E+00 -1.02311E-01
    9029.975     31.675   3.280  8.94283E-01  1.00191E+00 -1.07630E-01
    9030.981     32.681   3.320  8.86899E-01  1.00080E+00 -1.13903E-01
    9031.999     33.699   3.360  8.79450E-01  9.99758E-01 -1.20308E-01
    9033.029     34.729   3.400  8.73149E-01  9.98764E-01 -1.25614E-01
    9034.071     35.771   3.440  8.69026E-01  9.97841E-01 -1.28815E-01
    9035.126     36.826   3.480  8.67929E-01  9.96990E-01 -1.29062E-01
    9036.193     37.893   3.520  8.70400E-01  9.96192E-01 -1.25791E-01
    9037.272     38.972   3.560  8.76482E-01  9.95445E-01 -1.18963E-01
    9038.363     40.063   3.600  8.85969E-01  9.94794E-01 -1.08825E-01
    9039.466     41.166   3.640  8.98599E-01  9.94199E-01 -9.55994E-02
    9040.582     42.282   3.680  9.14093E-01  9.93680E-01 -7.95877E-02
    9041.709     43.410   3.720  9.31967E-01  9.93240E-01 -6.12729E-02
    9042.849     44.550   3.760  9.51513E-01  9.92875E-01 -4.13619E-02
    9044.002     45.702   3.800  9.71535E-01  9.92587E-01 -2.10517E-02
    9045.166     46.866   3.840  9.90358E-01  9.92352E-01 -1.99454E-03
    9046.342     48.043   3.880  1.00642E+00  9.92192E-01  1.42303E-02
    9047.531     49.231   3.920  1.01885E+00  9.92106E-01  2.67415E-02
    9048.732     50.432   3.960  1.02758E+00  9.92072E-01  3.55067E-02
    9049.945     51.645   4.000  1.03347E+00  9.92109E-01  4.13613E-02
    9051.170     52.871   4.040  1.03792E+00  9.92197E-01  4.57239E-02
    9052.408     54.108   4.080  1.04247E+00  9.92357E-01  5.01159E-02
    9053.658     55.358   4.120  1.04819E+00  9.92588E-01  5.56028E-02
    9054.919     56.620   4.160  1.05529E+00  9.92865E-01  6.24228E-02
    9056.193     57.894   4.200  1.06274E+00  9.93185E-01  6.95510E-02
    9057.480     59.180   4.240  1.06842E+00  9.93547E-01  7.48746E-02
    9058.778     60.478   4.280  1.07014E+00  9.93949E-01  7.61922E-02
    9060.089     61.789   4.320  1.06673E+00  9.94391E-01  7.23362E-02
    9061.412     63.112   4.360  1.05861E+00  9.94871E-01  6.37426E-02
    9062.747     64.447   4.400  1.04770E+00  9.95389E-01  5.23128E-02
    9064.094     65.794   4.440  1.03657E+00  9.95942E-01  4.06299E-02
    9065.453     67.154   4.480  1.02763E+00  9.96507E-01  3.11190E-02
    9066.825     68.525   4.520  1.02268E+00  9.97103E-01  2.55822E-02
    9068.209     69.909   4.560  1.02274E+00  9.97727E-01  2.50135E-02
    9069.605     71.305   4.600  1.02776E+00  9.98335E-01  2.94206E-02
    9071.013     72.713   4.640  1.03679E+00  9.98968E-01  3.78262E-02
    9072.433     74.133   4.680  1.04811E+00  9.99602E-01  4.85062E-02
    9073.866     75.566   4.720  1.05956E+00  1.00024E+00  5.93231E-02
    9075.310     77.011   4.760  1.06897E+00  1.00087E+00  6.80986E-02
    9076.767     78.468   4.800  1.07451E+00  1.00150E+00  7.30198E-02
    9078.237     79.937   4.840  1.07512E+00  1.00209E+00  7.30224E-02
    9079.718     81.418   4.880  1.07050E+00  1.00269E+00  6.78116E-02
    9081.211     82.912   4.920  1.06099E+00  1.00327E+00  5.77191E-02
    9082.717     84.417   4.960  1.04751E+00  1.00382E+00  4.36883E-02
    9084.235     85.935   5.000  1.03168E+00  1.00436E+00  2.73203E-02
    9085.765     87.465   5.040  1.01543E+00  1.00487E+00  1.05586E-02
    9087.307     89.008   5.080  1.00050E+00  1.00534E+00 -4.83452E-03
    9088.862     90.562   5.120  9.88096E-01  1.00579E+00 -1.76948E-02
    9090.428     92.129   5.160  9.78435E-01  1.00618E+00 -2.77466E-02
    9092.007     93.708   5.200  9.70996E-01  1.00655E+00 -3.55577E-02
    9093.598     95.299   5.240  9.64720E-01  1.00686E+00 -4.21446E-02
    9095.202     96.902   5.280  9.58796E-01  1.00716E+00 -4.83606E-02
    9096.817     98.517   5.320  9.53029E-01  1.00741E+00 -5.43772E-02
    9098.445    100.145   5.360  9.48066E-01  1.00759E+00 -5.95243E-02
    9100.084    101.785   5.400  9.45042E-01  1.00775E+00 -6.27107E-02
    9101.736    103.437   5.440  9.44706E-01  1.00785E+00 -6.31441E-02
    9103.401    105.101   5.480  9.47035E-01  1.00790E+00 -6.08688E-02
    9105.077    106.777   5.520  9.51303E-01  1.00791E+00 -5.66104E-02
    9106.766    108.466   5.560  9.56710E-01  1.00788E+00 -5.11700E-02
    9108.466    110.167   5.600  9.62899E-01  1.00780E+00 -4.49022E-02
    9110.179    111.880   5.640  9.69735E-01  1.00766E+00 -3.79203E-02
    9111.905    113.605   5.680  9.77081E-01  1.00747E+00 -3.03874E-02
    9113.642    115.342   5.720  9.84688E-01  1.00726E+00 -2.25748E-02
    9115.391    117.092   5.760  9.91821E-01  1.00699E+00 -1.51716E-02
    9117.153    118.853   5.800  9.97427E-01  1.00668E+00 -9.25483E-03
    9118.927    120.627   5.840  1.00021E+00  1.00633E+00 -6.12807E-03
    9120.713    122.414   5.880  9.99435E-01  1.00597E+00 -6.53713E-03
    9122.512    124.212   5.920  9.95768E-01  1.00555E+00 -9.78426E-03
    9124.322    126.022   5.960  9.91472E-01  1.00510E+00 -1.36235E-02
    9126.145    127.845   6.000  9.88410E-01  1.00460E+00 -1.61942E-02
