# # comment:                                                     FEFF 9.9.1  
# # Source:
# # Structure
# # Reduced
# # space
# # abc:
# # angles:
# # sites:
# # POT  SCF 100  7.0000   0, screened core-hole, AFOLP (folp(0)= 1.150)
# # Abs   Z=29 Rmt= 1.358 Rnm= 1.480 K  shell
# # Pot 1 Z=19 Rmt= 1.870 Rnm= 1.962
# # Pot 2 Z=29 Rmt= 1.358 Rnm= 1.480
# # Pot 3 Z=53 Rmt= 1.768 Rnm= 1.865
# # Pot 4 Z= 8 Rmt= 1.249 Rnm= 1.345
# # Gam_ch=1.729E+00 H-L exch Vi= 0.000E+00 Vr= 0.000E+00
# # Mu=-7.048E+00eV kf=1.471E+00 Vint=-1.076E+01eV Rs_int= 2.465
# FMS rfms= 9.0000
# # PATH  Rmax=-1.000,  Keep_limit= 0.00, Heap_limit 0.00  Pwcrit= 2.50%
#  S02=0.950  Temp=   0.00  Debye_temp=   0.00  Global_sig2= 0.00000
#  Energy zero shift, vr, vi    0.00000E+00   0.00000E+00
#  Curved wave amplitude ratio filter   4.000%
#     file         sig2 tot  cw amp ratio   deg  nlegs   reff  inp sig2
#     0/   0 paths used
#  xsedge+ 50, used to normalize mu           2.4022E-04
#  -----------------------------------------------------------------------
#  omega    e    k    mu    mu0     chi     @#
    8983.649    -10.858  -1.000  5.07340E-02  6.34111E-02 -1.26771E-02
    8983.948    -10.560  -0.960  5.37390E-02  6.80631E-02 -1.43241E-02
    8984.234    -10.273  -0.920  5.69773E-02  7.32124E-02 -1.62351E-02
    8984.508     -9.999  -0.880  6.04700E-02  7.89277E-02 -1.84577E-02
    8984.770     -9.737  -0.840  6.42399E-02  8.52883E-02 -2.10484E-02
    8985.020     -9.487  -0.800  6.83115E-02  9.23849E-02 -2.40734E-02
    8985.258     -9.249  -0.760  7.27106E-02  1.00321E-01 -2.76103E-02
    8985.484     -9.023  -0.720  7.74642E-02  1.09212E-01 -3.17477E-02
    8985.697     -8.810  -0.680  8.25988E-02  1.19184E-01 -3.65848E-02
    8985.898     -8.609  -0.640  8.81391E-02  1.30367E-01 -4.22284E-02
    8986.087     -8.420  -0.600  9.41048E-02  1.42891E-01 -4.87859E-02
    8986.264     -8.243  -0.560  1.00506E-01  1.56860E-01 -5.63533E-02
    8986.429     -8.078  -0.520  1.07338E-01  1.72334E-01 -6.49962E-02
    8986.581     -7.926  -0.480  1.14569E-01  1.89292E-01 -7.47230E-02
    8986.721     -7.786  -0.440  1.22133E-01  2.07587E-01 -8.54542E-02
    8986.849     -7.658  -0.400  1.29924E-01  2.26920E-01 -9.69957E-02
    8986.965     -7.542  -0.360  1.37789E-01  2.46818E-01 -1.09029E-01
    8987.069     -7.438  -0.320  1.45536E-01  2.66669E-01 -1.21133E-01
    8987.160     -7.347  -0.280  1.52954E-01  2.85786E-01 -1.32833E-01
    8987.239     -7.268  -0.240  1.59829E-01  3.03498E-01 -1.43669E-01
    8987.306     -7.201  -0.200  1.65967E-01  3.19224E-01 -1.53256E-01
    8987.361     -7.146  -0.160  1.71206E-01  3.32523E-01 -1.61316E-01
    8987.404     -7.103  -0.120  1.75416E-01  3.43091E-01 -1.67675E-01
    8987.434     -7.073  -0.080  1.78499E-01  3.50742E-01 -1.72243E-01
    8987.459     -7.048   0.000  1.81038E-01  3.56919E-01 -1.75881E-01
    8987.514     -6.993   0.120  1.86938E-01  3.70860E-01 -1.83922E-01
    8987.556     -6.951   0.160  1.91555E-01  3.81808E-01 -1.90252E-01
    8987.611     -6.896   0.200  1.97574E-01  3.95889E-01 -1.98315E-01
    8987.678     -6.829   0.240  2.05085E-01  4.13049E-01 -2.07963E-01
    8987.757     -6.750   0.280  2.14218E-01  4.33099E-01 -2.18880E-01
    8987.849     -6.658   0.320  2.25087E-01  4.55689E-01 -2.30602E-01
    8987.953     -6.554   0.360  2.37903E-01  4.80436E-01 -2.42533E-01
    8988.068     -6.439   0.400  2.52938E-01  5.06825E-01 -2.53888E-01
    8988.196     -6.311   0.440  2.70699E-01  5.34451E-01 -2.63753E-01
    8988.337     -6.170   0.480  2.91783E-01  5.62885E-01 -2.71101E-01
    8988.489     -6.018   0.520  3.17223E-01  5.91888E-01 -2.74664E-01
    8988.654     -5.853   0.560  3.48290E-01  6.21219E-01 -2.72929E-01
    8988.830     -5.677   0.600  3.86671E-01  6.50775E-01 -2.64104E-01
    8989.019     -5.488   0.640  4.34030E-01  6.80472E-01 -2.46442E-01
    8989.221     -5.286   0.680  4.91070E-01  7.10186E-01 -2.19116E-01
    8989.434     -5.073   0.720  5.55814E-01  7.39809E-01 -1.83995E-01
    8989.659     -4.848   0.760  6.21257E-01  7.69246E-01 -1.47989E-01
    8989.897     -4.610   0.800  6.75304E-01  7.98344E-01 -1.23040E-01
    8990.147     -4.360   0.840  7.07131E-01  8.26915E-01 -1.19783E-01
    8990.409     -4.098   0.880  7.16356E-01  8.54816E-01 -1.38460E-01
    8990.684     -3.823   0.920  7.13167E-01  8.81818E-01 -1.68651E-01
    8990.970     -3.537   0.960  7.09369E-01  9.07745E-01 -1.98376E-01
    8991.269     -3.238   1.000  7.12120E-01  9.32443E-01 -2.20323E-01
    8991.580     -2.927   1.040  7.25539E-01  9.55699E-01 -2.30160E-01
    8991.903     -2.604   1.080  7.54201E-01  9.77391E-01 -2.23190E-01
    8992.238     -2.269   1.120  8.02607E-01  9.97408E-01 -1.94801E-01
    8992.585     -1.922   1.160  8.73216E-01  1.01563E+00 -1.42413E-01
    8992.945     -1.562   1.200  9.65052E-01  1.03201E+00 -6.69583E-02
    8993.317     -1.190   1.240  1.07077E+00  1.04652E+00  2.42457E-02
    8993.701     -0.806   1.280  1.17222E+00  1.05917E+00  1.13051E-01
    8994.097     -0.410   1.320  1.24272E+00  1.06997E+00  1.72749E-01
    8994.506     -0.001   1.360  1.26337E+00  1.07895E+00  1.84419E-01
    8994.926      0.419   1.400  1.23905E+00  1.08622E+00  1.52824E-01
    8995.359      0.852   1.440  1.19425E+00  1.09187E+00  1.02382E-01
    8995.804      1.297   1.480  1.16231E+00  1.09598E+00  6.63258E-02
    8996.261      1.754   1.520  1.16907E+00  1.09869E+00  7.03739E-02
    8996.731      2.224   1.560  1.20014E+00  1.10012E+00  1.00021E-01
    8997.212      2.705   1.600  1.22262E+00  1.10038E+00  1.22245E-01
    8997.706      3.199   1.640  1.22008E+00  1.09958E+00  1.20497E-01
    8998.212      3.705   1.680  1.19047E+00  1.09788E+00  9.25910E-02
    8998.730      4.223   1.720  1.14093E+00  1.09538E+00  4.55591E-02
    8999.261      4.754   1.760  1.08361E+00  1.09219E+00 -8.57726E-03
    8999.803      5.296   1.800  1.03265E+00  1.08841E+00 -5.57626E-02
    9000.358      5.851   1.840  1.00825E+00  1.08416E+00 -7.59080E-02
    9000.925      6.418   1.880  1.02162E+00  1.07950E+00 -5.78883E-02
    9001.504      6.997   1.920  1.05316E+00  1.07457E+00 -2.14033E-02
    9002.095      7.588   1.960  1.07108E+00  1.06938E+00  1.69366E-03
    9002.699      8.192   2.000  1.07865E+00  1.06406E+00  1.45958E-02
    9003.314      8.807   2.040  1.07618E+00  1.05862E+00  1.75587E-02
    9003.942      9.435   2.080  1.06205E+00  1.05315E+00  8.89732E-03
    9004.582     10.075   2.120  1.03959E+00  1.04769E+00 -8.09979E-03
    9005.235     10.728   2.160  1.01392E+00  1.04227E+00 -2.83573E-02
    9005.899     11.392   2.200  9.89653E-01  1.03694E+00 -4.72867E-02
    9006.576     12.069   2.240  9.69360E-01  1.03175E+00 -6.23878E-02
    9007.265     12.758   2.280  9.53121E-01  1.02669E+00 -7.35701E-02
    9007.966     13.459   2.320  9.41742E-01  1.02180E+00 -8.00607E-02
    9008.679     14.172   2.360  9.36425E-01  1.01712E+00 -8.06897E-02
    9009.404     14.897   2.400  9.38695E-01  1.01264E+00 -7.39404E-02
    9010.142     15.635   2.440  9.51445E-01  1.00840E+00 -5.69526E-02
    9010.892     16.385   2.480  9.76775E-01  1.00440E+00 -2.76257E-02
    9011.654     17.147   2.520  1.01375E+00  1.00063E+00  1.31178E-02
    9012.428     17.921   2.560  1.05733E+00  9.97134E-01  6.01915E-02
    9013.214     18.707   2.600  1.09833E+00  9.93889E-01  1.04440E-01
    9014.013     19.506   2.640  1.12879E+00  9.90904E-01  1.37886E-01
    9014.824     20.317   2.680  1.14308E+00  9.88201E-01  1.54875E-01
    9015.647     21.140   2.720  1.13817E+00  9.85769E-01  1.52399E-01
    9016.482     21.975   2.760  1.11602E+00  9.83572E-01  1.32449E-01
    9017.329     22.822   2.800  1.08374E+00  9.81680E-01  1.02063E-01
    9018.189     23.682   2.840  1.05142E+00  9.80021E-01  7.14033E-02
    9019.060     24.553   2.880  1.02678E+00  9.78638E-01  4.81454E-02
    9019.944     25.437   2.920  1.01120E+00  9.77507E-01  3.36888E-02
    9020.840     26.333   2.960  1.00156E+00  9.76624E-01  2.49367E-02
    9021.749     27.242   3.000  9.93263E-01  9.75990E-01  1.72732E-02
    9022.669     28.162   3.040  9.83328E-01  9.75599E-01  7.72845E-03
    9023.602     29.095   3.080  9.71261E-01  9.75428E-01 -4.16668E-03
    9024.547     30.040   3.120  9.57963E-01  9.75493E-01 -1.75297E-02
    9025.504     30.997   3.160  9.44424E-01  9.75770E-01 -3.13465E-02
    9026.473     31.966   3.200  9.31659E-01  9.76255E-01 -4.45956E-02
    9027.454     32.947   3.240  9.20728E-01  9.76941E-01 -5.62130E-02
    9028.448     33.941   3.280  9.12665E-01  9.77806E-01 -6.51402E-02
    9029.454     34.947   3.320  9.08325E-01  9.78864E-01 -7.05382E-02
    9030.472     35.965   3.360  9.08029E-01  9.80088E-01 -7.20590E-02
    9031.502     36.995   3.400  9.11776E-01  9.81453E-01 -6.96770E-02
    9032.545     38.038   3.440  9.19526E-01  9.82975E-01 -6.34486E-02
    9033.599     39.092   3.480  9.31215E-01  9.84648E-01 -5.34335E-02
    9034.666     40.159   3.520  9.46648E-01  9.86425E-01 -3.97772E-02
    9035.745     41.238   3.560  9.65228E-01  9.88342E-01 -2.31142E-02
    9036.836     42.329   3.600  9.85273E-01  9.90329E-01 -5.05626E-03
    9037.940     43.433   3.640  1.00412E+00  9.92422E-01  1.16965E-02
    9039.055     44.548   3.680  1.01891E+00  9.94594E-01  2.43171E-02
    9040.183     45.676   3.720  1.02780E+00  9.96818E-01  3.09850E-02
    9041.323     46.816   3.760  1.03053E+00  9.99108E-01  3.14183E-02
    9042.475     47.968   3.800  1.02812E+00  1.00142E+00  2.67016E-02
    9043.639     49.132   3.840  1.02259E+00  1.00375E+00  1.88326E-02
    9044.816     50.309   3.880  1.01602E+00  1.00610E+00  9.92594E-03
    9046.005     51.498   3.920  1.01017E+00  1.00844E+00  1.73393E-03
    9047.205     52.698   3.960  1.00614E+00  1.01077E+00 -4.63049E-03
    9048.419     53.912   4.000  1.00420E+00  1.01307E+00 -8.87784E-03
    9049.644     55.137   4.040  1.00408E+00  1.01536E+00 -1.12727E-02
    9050.881     56.374   4.080  1.00572E+00  1.01757E+00 -1.18554E-02
    9052.131     57.624   4.120  1.00972E+00  1.01974E+00 -1.00182E-02
    9053.393     58.886   4.160  1.01665E+00  1.02182E+00 -5.17025E-03
    9054.667     60.160   4.200  1.02611E+00  1.02385E+00  2.26117E-03
    9055.953     61.446   4.240  1.03654E+00  1.02577E+00  1.07683E-02
    9057.252     62.745   4.280  1.04641E+00  1.02759E+00  1.88167E-02
    9058.562     64.055   4.320  1.05520E+00  1.02930E+00  2.58960E-02
    9059.885     65.378   4.360  1.06336E+00  1.03091E+00  3.24492E-02
    9061.220     66.713   4.400  1.07130E+00  1.03238E+00  3.89241E-02
    9062.567     68.060   4.440  1.07890E+00  1.03374E+00  4.51652E-02
    9063.927     69.420   4.480  1.08525E+00  1.03497E+00  5.02814E-02
    9065.298     70.791   4.520  1.08864E+00  1.03605E+00  5.25915E-02
    9066.682     72.175   4.560  1.08707E+00  1.03700E+00  5.00762E-02
    9068.078     73.571   4.600  1.07912E+00  1.03781E+00  4.13014E-02
    9069.486     74.979   4.640  1.06453E+00  1.03850E+00  2.60327E-02
    9070.907     76.400   4.680  1.04417E+00  1.03903E+00  5.14263E-03
    9072.339     77.832   4.720  1.01970E+00  1.03943E+00 -1.97242E-02
    9073.784     79.277   4.760  9.93640E-01  1.03970E+00 -4.60566E-02
    9075.241     80.734   4.800  9.69409E-01  1.03981E+00 -7.04028E-02
    9076.710     82.203   4.840  9.51029E-01  1.03982E+00 -8.87924E-02
    9078.191     83.684   4.880  9.42084E-01  1.03968E+00 -9.75981E-02
    9079.685     85.178   4.920  9.44916E-01  1.03944E+00 -9.45230E-02
    9081.190     86.683   4.960  9.59655E-01  1.03905E+00 -7.93955E-02
    9082.708     88.201   5.000  9.84016E-01  1.03857E+00 -5.45513E-02
    9084.238     89.731   5.040  1.01365E+00  1.03799E+00 -2.43424E-02
    9085.781     91.274   5.080  1.04320E+00  1.03730E+00  5.90407E-03
    9087.335     92.828   5.120  1.06752E+00  1.03652E+00  3.10014E-02
    9088.902     94.395   5.160  1.08254E+00  1.03566E+00  4.68794E-02
    9090.481     95.974   5.200  1.08655E+00  1.03475E+00  5.18015E-02
    9092.072     97.565   5.240  1.08096E+00  1.03376E+00  4.72002E-02
    9093.675     99.168   5.280  1.06961E+00  1.03269E+00  3.69143E-02
    9095.290    100.783   5.320  1.05692E+00  1.03160E+00  2.53167E-02
    9096.918    102.411   5.360  1.04644E+00  1.03045E+00  1.59854E-02
    9098.558    104.051   5.400  1.04032E+00  1.02929E+00  1.10353E-02
    9100.210    105.703   5.440  1.03848E+00  1.02809E+00  1.03982E-02
    9101.874    107.367   5.480  1.03838E+00  1.02688E+00  1.15060E-02
    9103.551    109.044   5.520  1.03620E+00  1.02564E+00  1.05544E-02
    9105.239    110.732   5.560  1.02942E+00  1.02443E+00  4.99117E-03
    9106.940    112.433   5.600  1.01819E+00  1.02322E+00 -5.02910E-03
    9108.653    114.146   5.640  1.00488E+00  1.02202E+00 -1.71411E-02
    9110.378    115.871   5.680  9.92762E-01  1.02082E+00 -2.80610E-02
    9112.115    117.608   5.720  9.84918E-01  1.01969E+00 -3.47706E-02
    9113.865    119.358   5.760  9.83230E-01  1.01857E+00 -3.53426E-02
    9115.627    121.120   5.800  9.87802E-01  1.01750E+00 -2.96935E-02
    9117.401    122.894   5.840  9.97372E-01  1.01647E+00 -1.90935E-02
    9119.187    124.680   5.880  1.01050E+00  1.01549E+00 -4.98600E-03
    9120.985    126.478   5.920  1.02612E+00  1.01457E+00  1.15527E-02
    9122.796    128.289   5.960  1.04250E+00  1.01375E+00  2.87442E-02
    9124.618    130.111   6.000  1.05618E+00  1.01303E+00  4.31449E-02
