# # comment:                                                     FEFF 9.9.1  
# # Source:
# # Structure
# # Reduced
# # space
# # abc:
# # angles:
# # sites:
# # POT  SCF 100  7.0000   0, screened core-hole, AFOLP (folp(0)= 1.150)
# # Abs   Z=29 Rmt= 1.248 Rnm= 1.319 K  shell
# # Pot 1 Z=12 Rmt= 1.344 Rnm= 1.416
# # Pot 2 Z=29 Rmt= 1.237 Rnm= 1.316
# # Pot 3 Z= 8 Rmt= 1.046 Rnm= 1.102
# # Gam_ch=1.729E+00 H-L exch Vi= 0.000E+00 Vr= 0.000E+00
# # Mu=-9.420E+00eV kf=2.140E+00 Vint=-1.840E+01eV Rs_int= 1.695
# FMS rfms= 9.0000
# # PATH  Rmax=-1.000,  Keep_limit= 0.00, Heap_limit 0.00  Pwcrit= 2.50%
#  S02=0.950  Temp=   0.00  Debye_temp=   0.00  Global_sig2= 0.00000
#  Energy zero shift, vr, vi    0.00000E+00   0.00000E+00
#  Curved wave amplitude ratio filter   4.000%
#     file         sig2 tot  cw amp ratio   deg  nlegs   reff  inp sig2
#     0/   0 paths used
#  xsedge+ 50, used to normalize mu           2.4787E-04
#  -----------------------------------------------------------------------
#  omega    e    k    mu    mu0     chi     @#
    8984.539    -13.229  -1.000  3.72388E-02  5.15379E-02 -1.42992E-02
    8984.837    -12.931  -0.960  3.91763E-02  5.52224E-02 -1.60462E-02
    8985.124    -12.644  -0.920  4.12593E-02  5.93125E-02 -1.80532E-02
    8985.398    -12.370  -0.880  4.35029E-02  6.38676E-02 -2.03647E-02
    8985.660    -12.108  -0.840  4.59239E-02  6.89569E-02 -2.30330E-02
    8985.910    -11.858  -0.800  4.85410E-02  7.46605E-02 -2.61195E-02
    8986.148    -11.620  -0.760  5.13746E-02  8.10703E-02 -2.96957E-02
    8986.374    -11.395  -0.720  5.44466E-02  8.82902E-02 -3.38436E-02
    8986.587    -11.181  -0.680  5.77796E-02  9.64345E-02 -3.86549E-02
    8986.788    -10.980  -0.640  6.13961E-02  1.05624E-01 -4.42276E-02
    8986.977    -10.791  -0.600  6.53160E-02  1.15976E-01 -5.06603E-02
    8987.154    -10.614  -0.560  6.95532E-02  1.27593E-01 -5.80399E-02
    8987.318    -10.450  -0.520  7.41113E-02  1.40534E-01 -6.64228E-02
    8987.471    -10.297  -0.480  7.89765E-02  1.54785E-01 -7.58086E-02
    8987.611    -10.157  -0.440  8.41110E-02  1.70221E-01 -8.61104E-02
    8987.739    -10.029  -0.400  8.94460E-02  1.86575E-01 -9.71288E-02
    8987.855     -9.913  -0.360  9.48798E-02  2.03424E-01 -1.08545E-01
    8987.958     -9.810  -0.320  1.00281E-01  2.20223E-01 -1.19942E-01
    8988.050     -9.718  -0.280  1.05500E-01  2.36364E-01 -1.30865E-01
    8988.129     -9.639  -0.240  1.10380E-01  2.51263E-01 -1.40883E-01
    8988.196     -9.572  -0.200  1.14775E-01  2.64431E-01 -1.49656E-01
    8988.251     -9.517  -0.160  1.18556E-01  2.75508E-01 -1.56952E-01
    8988.294     -9.474  -0.120  1.21616E-01  2.84266E-01 -1.62650E-01
    8988.324     -9.444  -0.080  1.23871E-01  2.90576E-01 -1.66704E-01
    8988.349     -9.420   0.000  1.25739E-01  2.95646E-01 -1.69907E-01
    8988.403     -9.365   0.120  1.30021E-01  3.07085E-01 -1.77064E-01
    8988.446     -9.322   0.160  1.33372E-01  3.15963E-01 -1.82591E-01
    8988.501     -9.267   0.200  1.37818E-01  3.27325E-01 -1.89507E-01
    8988.568     -9.200   0.240  1.43365E-01  3.40978E-01 -1.97613E-01
    8988.647     -9.121   0.280  1.50134E-01  3.56673E-01 -2.06539E-01
    8988.739     -9.029   0.320  1.58167E-01  3.74017E-01 -2.15850E-01
    8988.842     -8.926   0.360  1.67496E-01  3.92479E-01 -2.24983E-01
    8988.958     -8.810   0.400  1.78195E-01  4.11577E-01 -2.33383E-01
    8989.086     -8.682   0.440  1.90189E-01  4.30797E-01 -2.40608E-01
    8989.226     -8.542   0.480  2.03496E-01  4.49789E-01 -2.46293E-01
    8989.379     -8.389   0.520  2.18080E-01  4.68301E-01 -2.50221E-01
    8989.543     -8.225   0.560  2.33812E-01  4.86206E-01 -2.52393E-01
    8989.720     -8.048   0.600  2.50396E-01  5.03494E-01 -2.53097E-01
    8989.909     -7.859   0.640  2.67257E-01  5.20219E-01 -2.52962E-01
    8990.110     -7.658   0.680  2.83715E-01  5.36448E-01 -2.52734E-01
    8990.324     -7.444   0.720  2.99294E-01  5.52264E-01 -2.52970E-01
    8990.549     -7.219   0.760  3.13676E-01  5.67765E-01 -2.54088E-01
    8990.787     -6.981   0.800  3.26471E-01  5.82999E-01 -2.56528E-01
    8991.037     -6.731   0.840  3.37883E-01  5.98066E-01 -2.60183E-01
    8991.299     -6.469   0.880  3.49324E-01  6.12990E-01 -2.63667E-01
    8991.573     -6.195   0.920  3.62811E-01  6.27825E-01 -2.65014E-01
    8991.860     -5.908   0.960  3.79700E-01  6.42572E-01 -2.62872E-01
    8992.159     -5.610   1.000  4.00511E-01  6.57243E-01 -2.56732E-01
    8992.469     -5.299   1.040  4.24400E-01  6.71862E-01 -2.47462E-01
    8992.793     -4.976   1.080  4.48701E-01  6.86424E-01 -2.37722E-01
    8993.128     -4.640   1.120  4.70343E-01  7.00919E-01 -2.30576E-01
    8993.475     -4.293   1.160  4.87395E-01  7.15312E-01 -2.27918E-01
    8993.835     -3.933   1.200  4.99896E-01  7.29604E-01 -2.29708E-01
    8994.207     -3.561   1.240  5.10612E-01  7.43773E-01 -2.33161E-01
    8994.591     -3.177   1.280  5.23136E-01  7.57773E-01 -2.34637E-01
    8994.987     -2.781   1.320  5.40170E-01  7.71577E-01 -2.31407E-01
    8995.396     -2.373   1.360  5.64685E-01  7.85197E-01 -2.20511E-01
    8995.816     -1.952   1.400  5.99772E-01  7.98564E-01 -1.98791E-01
    8996.249     -1.519   1.440  6.46659E-01  8.11667E-01 -1.65008E-01
    8996.694     -1.074   1.480  7.00163E-01  8.24454E-01 -1.24291E-01
    8997.151     -0.617   1.520  7.53526E-01  8.36937E-01 -8.34115E-02
    8997.621     -0.148   1.560  8.10016E-01  8.49087E-01 -3.90708E-02
    8998.102      0.334   1.600  8.76257E-01  8.60853E-01  1.54036E-02
    8998.596      0.828   1.640  9.50475E-01  8.72224E-01  7.82504E-02
    8999.102      1.334   1.680  1.02655E+00  8.83174E-01  1.43377E-01
    8999.620      1.852   1.720  1.09997E+00  8.93715E-01  2.06254E-01
    9000.150      2.382   1.760  1.17190E+00  9.03802E-01  2.68099E-01
    9000.693      2.925   1.800  1.24686E+00  9.13428E-01  3.33434E-01
    9001.248      3.480   1.840  1.31710E+00  9.22591E-01  3.94513E-01
    9001.815      4.047   1.880  1.37622E+00  9.31288E-01  4.44935E-01
    9002.394      4.626   1.920  1.41623E+00  9.39495E-01  4.76731E-01
    9002.985      5.217   1.960  1.42198E+00  9.47235E-01  4.74745E-01
    9003.589      5.820   2.000  1.39013E+00  9.54508E-01  4.35622E-01
    9004.204      6.436   2.040  1.34227E+00  9.61273E-01  3.80998E-01
    9004.832      7.064   2.080  1.29531E+00  9.67575E-01  3.27740E-01
    9005.472      7.704   2.120  1.24605E+00  9.73416E-01  2.72630E-01
    9006.124      8.356   2.160  1.19281E+00  9.78802E-01  2.14007E-01
    9006.789      9.021   2.200  1.14505E+00  9.83739E-01  1.61306E-01
    9007.466      9.697   2.240  1.11065E+00  9.88232E-01  1.22415E-01
    9008.154     10.386   2.280  1.08653E+00  9.92307E-01  9.42252E-02
    9008.855     11.087   2.320  1.06676E+00  9.95971E-01  7.07930E-02
    9009.569     11.801   2.360  1.05108E+00  9.99233E-01  5.18510E-02
    9010.294     12.526   2.400  1.04165E+00  1.00212E+00  3.95303E-02
    9011.032     13.264   2.440  1.03829E+00  1.00465E+00  3.36430E-02
    9011.782     14.013   2.480  1.03398E+00  1.00683E+00  2.71488E-02
    9012.544     14.775   2.520  1.02079E+00  1.00869E+00  1.21003E-02
    9013.318     15.550   2.560  9.99228E-01  1.01023E+00 -1.10053E-02
    9014.104     16.336   2.600  9.77028E-01  1.01148E+00 -3.44559E-02
    9014.903     17.135   2.640  9.58546E-01  1.01245E+00 -5.39087E-02
    9015.713     17.945   2.680  9.44514E-01  1.01317E+00 -6.86601E-02
    9016.536     18.768   2.720  9.34207E-01  1.01367E+00 -7.94670E-02
    9017.372     19.603   2.760  9.26431E-01  1.01394E+00 -8.75108E-02
    9018.219     20.451   2.800  9.20502E-01  1.01400E+00 -9.35014E-02
    9019.078     21.310   2.840  9.16360E-01  1.01387E+00 -9.75099E-02
    9019.950     22.182   2.880  9.14221E-01  1.01359E+00 -9.93696E-02
    9020.834     23.066   2.920  9.13867E-01  1.01313E+00 -9.92642E-02
    9021.730     23.962   2.960  9.15166E-01  1.01256E+00 -9.73957E-02
    9022.638     24.870   3.000  9.17731E-01  1.01185E+00 -9.41180E-02
    9023.559     25.791   3.040  9.20969E-01  1.01104E+00 -9.00725E-02
    9024.492     26.724   3.080  9.23945E-01  1.01012E+00 -8.61785E-02
    9025.437     27.668   3.120  9.25980E-01  1.00914E+00 -8.31634E-02
    9026.394     28.625   3.160  9.26299E-01  1.00809E+00 -8.17894E-02
    9027.363     29.595   3.200  9.24845E-01  1.00696E+00 -8.21177E-02
    9028.344     30.576   3.240  9.22234E-01  1.00581E+00 -8.35787E-02
    9029.338     31.570   3.280  9.19293E-01  1.00460E+00 -8.53120E-02
    9030.344     32.576   3.320  9.16923E-01  1.00340E+00 -8.64806E-02
    9031.362     33.594   3.360  9.15822E-01  1.00215E+00 -8.63313E-02
    9032.392     34.624   3.400  9.16861E-01  1.00092E+00 -8.40590E-02
    9033.434     35.666   3.440  9.20242E-01  9.99686E-01 -7.94444E-02
    9034.489     36.721   3.480  9.26119E-01  9.98454E-01 -7.23355E-02
    9035.556     37.788   3.520  9.34490E-01  9.97230E-01 -6.27395E-02
    9036.635     38.867   3.560  9.45108E-01  9.96036E-01 -5.09280E-02
    9037.726     39.958   3.600  9.57430E-01  9.94877E-01 -3.74477E-02
    9038.829     41.061   3.640  9.70876E-01  9.93757E-01 -2.28814E-02
    9039.945     42.177   3.680  9.84670E-01  9.92675E-01 -8.00494E-03
    9041.073     43.305   3.720  9.97708E-01  9.91633E-01  6.07503E-03
    9042.213     44.445   3.760  1.00878E+00  9.90634E-01  1.81487E-02
    9043.365     45.597   3.800  1.01687E+00  9.89678E-01  2.71908E-02
    9044.529     46.761   3.840  1.02144E+00  9.88789E-01  3.26521E-02
    9045.706     47.938   3.880  1.02290E+00  9.87949E-01  3.49471E-02
    9046.894     49.126   3.920  1.02235E+00  9.87178E-01  3.51713E-02
    9048.095     50.327   3.960  1.02104E+00  9.86456E-01  3.45793E-02
    9049.308     51.540   4.000  1.02003E+00  9.85803E-01  3.42283E-02
    9050.534     52.766   4.040  1.01997E+00  9.85201E-01  3.47733E-02
    9051.771     54.003   4.080  1.02112E+00  9.84672E-01  3.64493E-02
    9053.021     55.253   4.120  1.02341E+00  9.84193E-01  3.92203E-02
    9054.283     56.515   4.160  1.02691E+00  9.83807E-01  4.31079E-02
    9055.557     57.789   4.200  1.03157E+00  9.83451E-01  4.81201E-02
    9056.843     59.075   4.240  1.03732E+00  9.83189E-01  5.41266E-02
    9058.141     60.373   4.280  1.04376E+00  9.82976E-01  6.07860E-02
    9059.452     61.684   4.320  1.05039E+00  9.82811E-01  6.75770E-02
    9060.775     63.007   4.360  1.05656E+00  9.82715E-01  7.38483E-02
    9062.110     64.342   4.400  1.06144E+00  9.82667E-01  7.87735E-02
    9063.457     65.689   4.440  1.06406E+00  9.82688E-01  8.13763E-02
    9064.817     67.048   4.480  1.06348E+00  9.82754E-01  8.07224E-02
    9066.188     68.420   4.520  1.05929E+00  9.82865E-01  7.64240E-02
    9067.572     69.804   4.560  1.05189E+00  9.83041E-01  6.88489E-02
    9068.968     71.200   4.600  1.04211E+00  9.83238E-01  5.88724E-02
    9070.376     72.608   4.640  1.03090E+00  9.83498E-01  4.74052E-02
    9071.796     74.028   4.680  1.01896E+00  9.83799E-01  3.51602E-02
    9073.229     75.461   4.720  1.00690E+00  9.84138E-01  2.27617E-02
    9074.674     76.906   4.760  9.95309E-01  9.84492E-01  1.08177E-02
    9076.131     78.363   4.800  9.84703E-01  9.84901E-01 -1.98134E-04
    9077.600     79.832   4.840  9.75298E-01  9.85322E-01 -1.00237E-02
    9079.081     81.313   4.880  9.67232E-01  9.85753E-01 -1.85212E-02
    9080.575     82.806   4.920  9.60613E-01  9.86215E-01 -2.56020E-02
    9082.080     84.312   4.960  9.55428E-01  9.86707E-01 -3.12788E-02
    9083.598     85.830   5.000  9.51469E-01  9.87204E-01 -3.57347E-02
    9085.128     87.360   5.040  9.48379E-01  9.87703E-01 -3.93234E-02
    9086.671     88.902   5.080  9.45722E-01  9.88204E-01 -4.24822E-02
    9088.225     90.457   5.120  9.43125E-01  9.88705E-01 -4.55798E-02
    9089.792     92.024   5.160  9.40423E-01  9.89206E-01 -4.87824E-02
    9091.371     93.602   5.200  9.37885E-01  9.89726E-01 -5.18405E-02
    9092.962     95.194   5.240  9.36018E-01  9.90198E-01 -5.41795E-02
    9094.565     96.797   5.280  9.35457E-01  9.90684E-01 -5.52274E-02
    9096.180     98.412   5.320  9.36316E-01  9.91143E-01 -5.48271E-02
    9097.808    100.040   5.360  9.38480E-01  9.91593E-01 -5.31127E-02
    9099.448    101.680   5.400  9.41804E-01  9.92011E-01 -5.02070E-02
    9101.100    103.332   5.440  9.46389E-01  9.92418E-01 -4.60295E-02
    9102.764    104.996   5.480  9.52377E-01  9.92791E-01 -4.04141E-02
    9104.440    106.672   5.520  9.59934E-01  9.93128E-01 -3.31949E-02
    9106.129    108.361   5.560  9.69149E-01  9.93451E-01 -2.43024E-02
    9107.830    110.062   5.600  9.79808E-01  9.93736E-01 -1.39280E-02
    9109.543    111.775   5.640  9.91341E-01  9.93959E-01 -2.61726E-03
    9111.268    113.500   5.680  1.00296E+00  9.94164E-01  8.79562E-03
    9113.005    115.237   5.720  1.01344E+00  9.94332E-01  1.91063E-02
    9114.755    116.987   5.760  1.02122E+00  9.94457E-01  2.67600E-02
    9116.516    118.748   5.800  1.02474E+00  9.94519E-01  3.02242E-02
    9118.290    120.522   5.840  1.02315E+00  9.94563E-01  2.85884E-02
    9120.077    122.308   5.880  1.01654E+00  9.94567E-01  2.19755E-02
    9121.875    124.107   5.920  1.00625E+00  9.94506E-01  1.17457E-02
    9123.685    125.917   5.960  9.94663E-01  9.94423E-01  2.40399E-04
    9125.508    127.740   6.000  9.84007E-01  9.94246E-01 -1.02388E-02
