# # comment:                                                     FEFF 9.9.1  
# # Source:
# # Structure
# # Reduced
# # space
# # abc:
# # angles:
# # sites:
# # POT  SCF 100  7.0000   0, screened core-hole, AFOLP (folp(0)= 1.150)
# # Abs   Z=29 Rmt= 1.247 Rnm= 1.322 K  shell
# # Pot 1 Z=60 Rmt= 1.706 Rnm= 1.793
# # Pot 2 Z=29 Rmt= 1.247 Rnm= 1.323
# # Pot 3 Z=32 Rmt= 1.167 Rnm= 1.323
# # Pot 4 Z= 8 Rmt= 1.020 Rnm= 1.088
# # Gam_ch=1.729E+00 H-L exch Vi= 0.000E+00 Vr= 0.000E+00
# # Mu=-7.879E+00eV kf=2.154E+00 Vint=-1.780E+01eV Rs_int= 1.684
# FMS rfms= 9.0000
# # PATH  Rmax=-1.000,  Keep_limit= 0.00, Heap_limit 0.00  Pwcrit= 2.50%
#  S02=0.950  Temp=   0.00  Debye_temp=   0.00  Global_sig2= 0.00000
#  Energy zero shift, vr, vi    0.00000E+00   0.00000E+00
#  Curved wave amplitude ratio filter   4.000%
#     file         sig2 tot  cw amp ratio   deg  nlegs   reff  inp sig2
#     0/   0 paths used
#  xsedge+ 50, used to normalize mu           2.4772E-04
#  -----------------------------------------------------------------------
#  omega    e    k    mu    mu0     chi     @#
    8984.101    -11.689  -1.000  4.06960E-02  5.29571E-02 -1.22611E-02
    8984.399    -11.390  -0.960  4.29775E-02  5.68031E-02 -1.38256E-02
    8984.686    -11.103  -0.920  4.54481E-02  6.10783E-02 -1.56302E-02
    8984.960    -10.829  -0.880  4.81301E-02  6.58463E-02 -1.77161E-02
    8985.222    -10.567  -0.840  5.10487E-02  7.11809E-02 -2.01322E-02
    8985.472    -10.317  -0.800  5.42326E-02  7.71680E-02 -2.29354E-02
    8985.710    -10.079  -0.760  5.77140E-02  8.39059E-02 -2.61919E-02
    8985.935     -9.854  -0.720  6.15284E-02  9.15060E-02 -2.99776E-02
    8986.149     -9.640  -0.680  6.57141E-02  1.00091E-01 -3.43767E-02
    8986.350     -9.439  -0.640  7.03104E-02  1.09790E-01 -3.94795E-02
    8986.539     -9.250  -0.600  7.53545E-02  1.20731E-01 -4.53762E-02
    8986.716     -9.073  -0.560  8.08762E-02  1.33022E-01 -5.21455E-02
    8986.880     -8.909  -0.520  8.68904E-02  1.46728E-01 -5.98377E-02
    8987.033     -8.756  -0.480  9.33857E-02  1.61836E-01 -6.84501E-02
    8987.173     -8.616  -0.440  1.00313E-01  1.78212E-01 -7.78994E-02
    8987.301     -8.488  -0.400  1.07572E-01  1.95571E-01 -8.79985E-02
    8987.417     -8.372  -0.360  1.15011E-01  2.13462E-01 -9.84512E-02
    8987.520     -8.269  -0.320  1.22427E-01  2.31302E-01 -1.08875E-01
    8987.612     -8.177  -0.280  1.29591E-01  2.48442E-01 -1.18852E-01
    8987.691     -8.098  -0.240  1.36265E-01  2.64260E-01 -1.27995E-01
    8987.758     -8.031  -0.200  1.42238E-01  2.78235E-01 -1.35997E-01
    8987.813     -7.976  -0.160  1.47333E-01  2.89986E-01 -1.42653E-01
    8987.856     -7.934  -0.120  1.51421E-01  2.99273E-01 -1.47852E-01
    8987.886     -7.903  -0.080  1.54411E-01  3.05961E-01 -1.51550E-01
    8987.910     -7.879   0.000  1.56874E-01  3.11334E-01 -1.54460E-01
    8987.965     -7.824   0.120  1.62332E-01  3.23449E-01 -1.61117E-01
    8988.008     -7.781   0.160  1.66574E-01  3.32842E-01 -1.66268E-01
    8988.063     -7.726   0.200  1.72093E-01  3.44854E-01 -1.72761E-01
    8988.130     -7.659   0.240  1.78820E-01  3.59276E-01 -1.80456E-01
    8988.209     -7.580   0.280  1.86743E-01  3.75830E-01 -1.89087E-01
    8988.301     -7.488   0.320  1.95725E-01  3.94063E-01 -1.98338E-01
    8988.404     -7.385   0.360  2.05571E-01  4.13440E-01 -2.07869E-01
    8988.520     -7.269   0.400  2.16016E-01  4.33392E-01 -2.17376E-01
    8988.648     -7.141   0.440  2.26795E-01  4.53378E-01 -2.26583E-01
    8988.788     -7.001   0.480  2.37714E-01  4.73018E-01 -2.35305E-01
    8988.941     -6.848   0.520  2.48741E-01  4.92019E-01 -2.43278E-01
    8989.105     -6.684   0.560  2.60268E-01  5.10284E-01 -2.50016E-01
    8989.282     -6.507   0.600  2.73052E-01  5.27783E-01 -2.54731E-01
    8989.471     -6.318   0.640  2.88058E-01  5.44554E-01 -2.56496E-01
    8989.672     -6.117   0.680  3.06013E-01  5.60695E-01 -2.54682E-01
    8989.886     -5.904   0.720  3.26807E-01  5.76296E-01 -2.49489E-01
    8990.111     -5.678   0.760  3.49359E-01  5.91445E-01 -2.42087E-01
    8990.349     -5.440   0.800  3.72043E-01  6.06244E-01 -2.34201E-01
    8990.599     -5.190   0.840  3.93507E-01  6.20781E-01 -2.27273E-01
    8990.861     -4.928   0.880  4.13439E-01  6.35088E-01 -2.21649E-01
    8991.135     -4.654   0.920  4.33055E-01  6.49206E-01 -2.16151E-01
    8991.422     -4.367   0.960  4.54447E-01  6.63185E-01 -2.08738E-01
    8991.720     -4.069   1.000  4.78399E-01  6.77064E-01 -1.98665E-01
    8992.031     -3.758   1.040  5.02870E-01  6.90808E-01 -1.87938E-01
    8992.354     -3.435   1.080  5.25456E-01  7.04443E-01 -1.78988E-01
    8992.690     -3.099   1.120  5.48101E-01  7.17984E-01 -1.69883E-01
    8993.037     -2.752   1.160  5.76892E-01  7.31397E-01 -1.54505E-01
    8993.397     -2.392   1.200  6.14756E-01  7.44670E-01 -1.29914E-01
    8993.769     -2.020   1.240  6.55244E-01  7.57804E-01 -1.02560E-01
    8994.153     -1.636   1.280  6.86801E-01  7.70780E-01 -8.39795E-02
    8994.549     -1.240   1.320  7.06409E-01  7.83552E-01 -7.71435E-02
    8994.957     -0.832   1.360  7.24231E-01  7.96136E-01 -7.19049E-02
    8995.378     -0.411   1.400  7.52573E-01  8.08467E-01 -5.58939E-02
    8995.811      0.022   1.440  7.95535E-01  8.20557E-01 -2.50225E-02
    8996.256      0.467   1.480  8.45678E-01  8.32360E-01  1.33177E-02
    8996.713      0.924   1.520  8.87441E-01  8.43887E-01  4.35541E-02
    8997.182      1.393   1.560  9.16578E-01  8.55070E-01  6.15074E-02
    8997.664      1.875   1.600  9.47343E-01  8.65924E-01  8.14194E-02
    8998.158      2.369   1.640  9.94429E-01  8.76440E-01  1.17989E-01
    8998.664      2.875   1.680  1.05733E+00  8.86553E-01  1.70782E-01
    8999.182      3.393   1.720  1.12087E+00  8.96295E-01  2.24579E-01
    8999.712      3.923   1.760  1.17122E+00  9.05643E-01  2.65575E-01
    9000.255      4.466   1.800  1.21072E+00  9.14573E-01  2.96147E-01
    9000.810      5.020   1.840  1.24331E+00  9.23081E-01  3.20227E-01
    9001.377      5.587   1.880  1.25891E+00  9.31166E-01  3.27746E-01
    9001.956      6.166   1.920  1.25386E+00  9.38825E-01  3.15034E-01
    9002.547      6.758   1.960  1.23495E+00  9.46037E-01  2.88912E-01
    9003.150      7.361   2.000  1.20747E+00  9.52826E-01  2.54647E-01
    9003.766      7.977   2.040  1.17808E+00  9.59191E-01  2.18886E-01
    9004.394      8.605   2.080  1.15233E+00  9.65136E-01  1.87197E-01
    9005.034      9.245   2.120  1.12949E+00  9.70642E-01  1.58851E-01
    9005.686      9.897   2.160  1.10478E+00  9.75734E-01  1.29051E-01
    9006.351     10.562   2.200  1.07304E+00  9.80436E-01  9.26000E-02
    9007.027     11.238   2.240  1.03650E+00  9.84735E-01  5.17639E-02
    9007.716     11.927   2.280  1.00545E+00  9.88634E-01  1.68128E-02
    9008.417     12.628   2.320  9.89638E-01  9.92181E-01 -2.54318E-03
    9009.131     13.341   2.360  9.91857E-01  9.95343E-01 -3.48646E-03
    9009.856     14.067   2.400  1.00954E+00  9.98187E-01  1.13569E-02
    9010.594     14.804   2.440  1.03725E+00  1.00068E+00  3.65675E-02
    9011.343     15.554   2.480  1.06693E+00  1.00285E+00  6.40797E-02
    9012.105     16.316   2.520  1.08937E+00  1.00472E+00  8.46511E-02
    9012.880     17.090   2.560  1.09594E+00  1.00631E+00  8.96335E-02
    9013.666     17.877   2.600  1.08621E+00  1.00764E+00  7.85777E-02
    9014.465     18.675   2.640  1.06984E+00  1.00869E+00  6.11506E-02
    9015.275     19.486   2.680  1.05137E+00  1.00953E+00  4.18431E-02
    9016.098     20.309   2.720  1.03207E+00  1.01013E+00  2.19435E-02
    9016.933     21.144   2.760  1.01226E+00  1.01052E+00  1.74466E-03
    9017.781     21.992   2.800  9.91916E-01  1.01071E+00 -1.87976E-02
    9018.640     22.851   2.840  9.71620E-01  1.01074E+00 -3.91160E-02
    9019.512     23.723   2.880  9.52841E-01  1.01060E+00 -5.77552E-02
    9020.396     24.607   2.920  9.36611E-01  1.01032E+00 -7.37099E-02
    9021.292     25.503   2.960  9.23465E-01  1.00990E+00 -8.64318E-02
    9022.200     26.411   3.000  9.13537E-01  1.00937E+00 -9.58349E-02
    9023.121     27.332   3.040  9.06316E-01  1.00873E+00 -1.02415E-01
    9024.054     28.264   3.080  9.01274E-01  1.00798E+00 -1.06707E-01
    9024.998     29.209   3.120  8.98106E-01  1.00717E+00 -1.09064E-01
    9025.955     30.166   3.160  8.96238E-01  1.00628E+00 -1.10046E-01
    9026.925     31.136   3.200  8.95474E-01  1.00535E+00 -1.09874E-01
    9027.906     32.117   3.240  8.95732E-01  1.00437E+00 -1.08635E-01
    9028.900     33.111   3.280  8.96911E-01  1.00335E+00 -1.06435E-01
    9029.906     34.117   3.320  8.98876E-01  1.00229E+00 -1.03414E-01
    9030.924     35.135   3.360  9.01602E-01  1.00122E+00 -9.96194E-02
    9031.954     36.165   3.400  9.05198E-01  1.00012E+00 -9.49271E-02
    9032.996     37.207   3.440  9.09680E-01  9.99047E-01 -8.93669E-02
    9034.051     38.262   3.480  9.15044E-01  9.97950E-01 -8.29063E-02
    9035.118     39.329   3.520  9.21362E-01  9.96879E-01 -7.55165E-02
    9036.197     40.408   3.560  9.28649E-01  9.95836E-01 -6.71871E-02
    9037.288     41.499   3.600  9.36916E-01  9.94804E-01 -5.78877E-02
    9038.391     42.602   3.640  9.46316E-01  9.93804E-01 -4.74885E-02
    9039.507     43.718   3.680  9.56903E-01  9.92819E-01 -3.59156E-02
    9040.635     44.845   3.720  9.68591E-01  9.91893E-01 -2.33016E-02
    9041.775     45.985   3.760  9.81109E-01  9.91006E-01 -9.89720E-03
    9042.927     47.138   3.800  9.94154E-01  9.90140E-01  4.01398E-03
    9044.091     48.302   3.840  1.00733E+00  9.89338E-01  1.79947E-02
    9045.268     49.478   3.880  1.02019E+00  9.88601E-01  3.15897E-02
    9046.456     50.667   3.920  1.03225E+00  9.87889E-01  4.43589E-02
    9047.657     51.868   3.960  1.04316E+00  9.87245E-01  5.59196E-02
    9048.870     53.081   4.000  1.05268E+00  9.86670E-01  6.60075E-02
    9050.096     54.306   4.040  1.06056E+00  9.86142E-01  7.44211E-02
    9051.333     55.544   4.080  1.06651E+00  9.85661E-01  8.08513E-02
    9052.583     56.794   4.120  1.07009E+00  9.85249E-01  8.48404E-02
    9053.845     58.055   4.160  1.07095E+00  9.84885E-01  8.60667E-02
    9055.119     59.329   4.200  1.06908E+00  9.84591E-01  8.44920E-02
    9056.405     60.616   4.240  1.06481E+00  9.84345E-01  8.04618E-02
    9057.703     61.914   4.280  1.05879E+00  9.84168E-01  7.46258E-02
    9059.014     63.225   4.320  1.05172E+00  9.84037E-01  6.76787E-02
    9060.337     64.548   4.360  1.04405E+00  9.83952E-01  6.00981E-02
    9061.672     65.883   4.400  1.03613E+00  9.83932E-01  5.21981E-02
    9063.019     67.230   4.440  1.02831E+00  9.83958E-01  4.43531E-02
    9064.378     68.589   4.480  1.02103E+00  9.84028E-01  3.70058E-02
    9065.750     69.961   4.520  1.01476E+00  9.84139E-01  3.06222E-02
    9067.134     71.345   4.560  1.00985E+00  9.84315E-01  2.55362E-02
    9068.530     72.741   4.600  1.00628E+00  9.84510E-01  2.17650E-02
    9069.938     74.149   4.640  1.00371E+00  9.84766E-01  1.89439E-02
    9071.358     75.569   4.680  1.00147E+00  9.85039E-01  1.64337E-02
    9072.791     77.002   4.720  9.98848E-01  9.85371E-01  1.34769E-02
    9074.236     78.446   4.760  9.95138E-01  9.85718E-01  9.42046E-03
    9075.693     79.903   4.800  9.90054E-01  9.86095E-01  3.95894E-03
    9077.162     81.373   4.840  9.83755E-01  9.86483E-01 -2.72844E-03
    9078.643     82.854   4.880  9.76897E-01  9.86903E-01 -1.00053E-02
    9080.136     84.347   4.920  9.70312E-01  9.87330E-01 -1.70181E-02
    9081.642     85.853   4.960  9.64701E-01  9.87786E-01 -2.30850E-02
    9083.160     87.371   5.000  9.60342E-01  9.88249E-01 -2.79064E-02
    9084.690     88.901   5.040  9.57167E-01  9.88736E-01 -3.15685E-02
    9086.232     90.443   5.080  9.54876E-01  9.89203E-01 -3.43278E-02
    9087.787     91.998   5.120  9.53358E-01  9.89691E-01 -3.63326E-02
    9089.354     93.564   5.160  9.52605E-01  9.90153E-01 -3.75484E-02
    9090.932     95.143   5.200  9.52834E-01  9.90613E-01 -3.77792E-02
    9092.524     96.734   5.240  9.54223E-01  9.91069E-01 -3.68466E-02
    9094.127     98.338   5.280  9.56844E-01  9.91520E-01 -3.46760E-02
    9095.742     99.953   5.320  9.60563E-01  9.91940E-01 -3.13776E-02
    9097.370    101.581   5.360  9.65048E-01  9.92354E-01 -2.73057E-02
    9099.010    103.220   5.400  9.69701E-01  9.92759E-01 -2.30580E-02
    9100.662    104.873   5.440  9.73773E-01  9.93131E-01 -1.93571E-02
    9102.326    106.537   5.480  9.76652E-01  9.93468E-01 -1.68162E-02
    9104.002    108.213   5.520  9.78079E-01  9.93790E-01 -1.57112E-02
    9105.691    109.902   5.560  9.78156E-01  9.94052E-01 -1.58964E-02
    9107.392    111.602   5.600  9.77414E-01  9.94300E-01 -1.68855E-02
    9109.105    113.315   5.640  9.76449E-01  9.94510E-01 -1.80608E-02
    9110.830    115.041   5.680  9.75791E-01  9.94684E-01 -1.88922E-02
    9112.567    116.778   5.720  9.75740E-01  9.94840E-01 -1.91000E-02
    9114.317    118.527   5.760  9.76257E-01  9.94934E-01 -1.86764E-02
    9116.078    120.289   5.800  9.77217E-01  9.94987E-01 -1.77699E-02
    9117.852    122.063   5.840  9.78539E-01  9.95001E-01 -1.64620E-02
    9119.638    123.849   5.880  9.80361E-01  9.94999E-01 -1.46381E-02
    9121.437    125.648   5.920  9.82848E-01  9.94932E-01 -1.20839E-02
    9123.247    127.458   5.960  9.86097E-01  9.94821E-01 -8.72316E-03
    9125.070    129.281   6.000  9.90049E-01  9.94641E-01 -4.59254E-03
