# # comment:                                                     FEFF 9.9.1  
# # Source:
# # Structure
# # Reduced
# # space
# # abc:
# # angles:
# # sites:
# # POT  SCF 100  7.0000   0, screened core-hole, AFOLP (folp(0)= 1.150)
# # Abs   Z=29 Rmt= 1.202 Rnm= 1.328 K  shell
# # Pot 1 Z=29 Rmt= 1.233 Rnm= 1.340
# # Pot 2 Z= 8 Rmt= 0.987 Rnm= 1.119
# # Pot 3 Z= 9 Rmt= 1.029 Rnm= 1.128
# # Gam_ch=1.729E+00 H-L exch Vi= 0.000E+00 Vr= 0.000E+00
# # Mu=-6.533E+00eV kf=1.994E+00 Vint=-1.259E+01eV Rs_int= 1.819
# FMS rfms= 9.0000
# # PATH  Rmax=-1.000,  Keep_limit= 0.00, Heap_limit 0.00  Pwcrit= 2.50%
#  S02=0.950  Temp=   0.00  Debye_temp=   0.00  Global_sig2= 0.00000
#  Energy zero shift, vr, vi    0.00000E+00   0.00000E+00
#  Curved wave amplitude ratio filter   4.000%
#     file         sig2 tot  cw amp ratio   deg  nlegs   reff  inp sig2
#     0/   0 paths used
#  xsedge+ 50, used to normalize mu           2.4082E-04
#  -----------------------------------------------------------------------
#  omega    e    k    mu    mu0     chi     @#
    8983.311    -10.343  -1.000  3.46290E-02  5.65355E-02 -2.19065E-02
    8983.610    -10.044  -0.960  3.61284E-02  6.05814E-02 -2.44529E-02
    8983.897     -9.758  -0.920  3.77105E-02  6.50638E-02 -2.73533E-02
    8984.171     -9.483  -0.880  3.93822E-02  7.00451E-02 -3.06629E-02
    8984.433     -9.221  -0.840  4.11519E-02  7.55975E-02 -3.44456E-02
    8984.683     -8.971  -0.800  4.30289E-02  8.18045E-02 -3.87757E-02
    8984.921     -8.734  -0.760  4.50241E-02  8.87615E-02 -4.37374E-02
    8985.146     -8.508  -0.720  4.71498E-02  9.65758E-02 -4.94261E-02
    8985.360     -8.295  -0.680  4.94195E-02  1.05365E-01 -5.59457E-02
    8985.561     -8.093  -0.640  5.18473E-02  1.15253E-01 -6.34062E-02
    8985.750     -7.904  -0.600  5.44465E-02  1.26361E-01 -7.19150E-02
    8985.927     -7.728  -0.560  5.72269E-02  1.38791E-01 -8.15646E-02
    8986.091     -7.563  -0.520  6.01913E-02  1.52603E-01 -9.24115E-02
    8986.244     -7.411  -0.480  6.33297E-02  1.67778E-01 -1.04449E-01
    8986.384     -7.270  -0.440  6.66130E-02  1.84186E-01 -1.17573E-01
    8986.512     -7.142  -0.400  6.99882E-02  2.01547E-01 -1.31559E-01
    8986.628     -7.027  -0.360  7.33771E-02  2.19423E-01 -1.46046E-01
    8986.731     -6.923  -0.320  7.66822E-02  2.37246E-01 -1.60564E-01
    8986.823     -6.832  -0.280  7.97988E-02  2.54382E-01 -1.74583E-01
    8986.902     -6.752  -0.240  8.26307E-02  2.70218E-01 -1.87587E-01
    8986.969     -6.685  -0.200  8.51014E-02  2.84235E-01 -1.99134E-01
    8987.024     -6.630  -0.160  8.71598E-02  2.96049E-01 -2.08889E-01
    8987.066     -6.588  -0.120  8.87766E-02  3.05405E-01 -2.16629E-01
    8987.097     -6.557  -0.080  8.99384E-02  3.12157E-01 -2.22219E-01
    8987.121     -6.533   0.000  9.08791E-02  3.17590E-01 -2.26711E-01
    8987.176     -6.478   0.120  9.30726E-02  3.29865E-01 -2.36792E-01
    8987.219     -6.435   0.160  9.46856E-02  3.39437E-01 -2.44751E-01
    8987.274     -6.380   0.200  9.66862E-02  3.51688E-01 -2.55002E-01
    8987.341     -6.313   0.240  9.90279E-02  3.66491E-01 -2.67463E-01
    8987.420     -6.234   0.280  1.01653E-01  3.83625E-01 -2.81972E-01
    8987.512     -6.143   0.320  1.04421E-01  4.02684E-01 -2.98263E-01
    8987.615     -6.039   0.360  1.07277E-01  4.23228E-01 -3.15951E-01
    8987.731     -5.923   0.400  1.10149E-01  4.44717E-01 -3.34569E-01
    8987.859     -5.795   0.440  1.13093E-01  4.66715E-01 -3.53622E-01
    8987.999     -5.655   0.480  1.16267E-01  4.88824E-01 -3.72557E-01
    8988.152     -5.503   0.520  1.19879E-01  5.10815E-01 -3.90935E-01
    8988.316     -5.338   0.560  1.24248E-01  5.32555E-01 -4.08307E-01
    8988.493     -5.161   0.600  1.29631E-01  5.54005E-01 -4.24374E-01
    8988.682     -4.972   0.640  1.36254E-01  5.75163E-01 -4.38909E-01
    8988.883     -4.771   0.680  1.44328E-01  5.96077E-01 -4.51748E-01
    8989.096     -4.558   0.720  1.54023E-01  6.16803E-01 -4.62780E-01
    8989.322     -4.332   0.760  1.65412E-01  6.37375E-01 -4.71963E-01
    8989.560     -4.094   0.800  1.78628E-01  6.57816E-01 -4.79188E-01
    8989.810     -3.845   0.840  1.94095E-01  6.78155E-01 -4.84060E-01
    8990.072     -3.582   0.880  2.12654E-01  6.98343E-01 -4.85689E-01
    8990.346     -3.308   0.920  2.35707E-01  7.18405E-01 -4.82698E-01
    8990.633     -3.022   0.960  2.64662E-01  7.38310E-01 -4.73647E-01
    8990.931     -2.723   1.000  3.00351E-01  7.57977E-01 -4.57625E-01
    8991.242     -2.412   1.040  3.42316E-01  7.77379E-01 -4.35062E-01
    8991.565     -2.089   1.080  3.88853E-01  7.96440E-01 -4.07587E-01
    8991.901     -1.754   1.120  4.39456E-01  8.15125E-01 -3.75669E-01
    8992.248     -1.406   1.160  4.96723E-01  8.33349E-01 -3.36625E-01
    8992.608     -1.046   1.200  5.62121E-01  8.51050E-01 -2.88929E-01
    8992.980     -0.675   1.240  6.28837E-01  8.68185E-01 -2.39348E-01
    8993.364     -0.291   1.280  6.84147E-01  8.84691E-01 -2.00544E-01
    8993.760      0.106   1.320  7.20709E-01  9.00484E-01 -1.79775E-01
    8994.168      0.514   1.360  7.38681E-01  9.15567E-01 -1.76886E-01
    8994.589      0.935   1.400  7.43403E-01  9.29862E-01 -1.86459E-01
    8995.022      1.368   1.440  7.50365E-01  9.43377E-01 -1.93012E-01
    8995.467      1.813   1.480  7.74506E-01  9.56038E-01 -1.81532E-01
    8995.924      2.270   1.520  8.14771E-01  9.67839E-01 -1.53068E-01
    8996.393      2.739   1.560  8.63534E-01  9.78778E-01 -1.15243E-01
    8996.875      3.221   1.600  9.22798E-01  9.88874E-01 -6.60752E-02
    8997.369      3.714   1.640  1.00308E+00  9.98090E-01  4.99267E-03
    8997.875      4.220   1.680  1.11263E+00  1.00645E+00  1.06177E-01
    8998.393      4.739   1.720  1.24626E+00  1.01397E+00  2.32293E-01
    8998.923      5.269   1.760  1.37559E+00  1.02068E+00  3.54914E-01
    8999.466      5.811   1.800  1.45720E+00  1.02660E+00  4.30592E-01
    9000.020      6.366   1.840  1.47571E+00  1.03175E+00  4.43958E-01
    9000.587      6.933   1.880  1.46496E+00  1.03620E+00  4.28768E-01
    9001.166      7.512   1.920  1.46580E+00  1.03993E+00  4.25870E-01
    9001.758      8.104   1.960  1.47907E+00  1.04301E+00  4.36056E-01
    9002.361      8.707   2.000  1.48675E+00  1.04548E+00  4.41264E-01
    9002.977      9.323   2.040  1.47419E+00  1.04739E+00  4.26799E-01
    9003.605      9.951   2.080  1.42698E+00  1.04874E+00  3.78237E-01
    9004.245     10.591   2.120  1.35714E+00  1.04964E+00  3.07505E-01
    9004.897     11.243   2.160  1.30604E+00  1.05005E+00  2.55991E-01
    9005.562     11.907   2.200  1.28271E+00  1.05007E+00  2.32642E-01
    9006.238     12.584   2.240  1.24926E+00  1.04972E+00  1.99548E-01
    9006.927     13.273   2.280  1.18163E+00  1.04902E+00  1.32606E-01
    9007.628     13.974   2.320  1.10929E+00  1.04803E+00  6.12598E-02
    9008.341     14.687   2.360  1.06339E+00  1.04676E+00  1.66313E-02
    9009.067     15.413   2.400  1.03989E+00  1.04529E+00 -5.40655E-03
    9009.804     16.150   2.440  1.02884E+00  1.04360E+00 -1.47583E-02
    9010.554     16.900   2.480  1.02564E+00  1.04176E+00 -1.61168E-02
    9011.316     17.662   2.520  1.02595E+00  1.03979E+00 -1.38350E-02
    9012.090     18.436   2.560  1.02532E+00  1.03769E+00 -1.23733E-02
    9012.877     19.223   2.600  1.02190E+00  1.03549E+00 -1.35878E-02
    9013.675     20.021   2.640  1.01544E+00  1.03325E+00 -1.78130E-02
    9014.486     20.832   2.680  1.00659E+00  1.03095E+00 -2.43562E-02
    9015.309     21.655   2.720  9.96757E-01  1.02863E+00 -3.18729E-02
    9016.144     22.490   2.760  9.87247E-01  1.02631E+00 -3.90632E-02
    9016.992     23.337   2.800  9.79109E-01  1.02399E+00 -4.48852E-02
    9017.851     24.197   2.840  9.73131E-01  1.02171E+00 -4.85788E-02
    9018.723     25.069   2.880  9.69417E-01  1.01944E+00 -5.00267E-02
    9019.607     25.953   2.920  9.67413E-01  1.01727E+00 -4.98532E-02
    9020.503     26.849   2.960  9.65749E-01  1.01512E+00 -4.93706E-02
    9021.411     27.757   3.000  9.62915E-01  1.01307E+00 -5.01539E-02
    9022.332     28.677   3.040  9.57654E-01  1.01108E+00 -5.34257E-02
    9023.264     29.610   3.080  9.49863E-01  1.00920E+00 -5.93350E-02
    9024.209     30.555   3.120  9.40428E-01  1.00741E+00 -6.69776E-02
    9025.166     31.512   3.160  9.30696E-01  1.00573E+00 -7.50307E-02
    9026.136     32.481   3.200  9.21807E-01  1.00414E+00 -8.23351E-02
    9027.117     33.463   3.240  9.14738E-01  1.00268E+00 -8.79374E-02
    9028.111     34.456   3.280  9.10011E-01  1.00133E+00 -9.13187E-02
    9029.117     35.462   3.320  9.07752E-01  1.00011E+00 -9.23537E-02
    9030.135     36.480   3.360  9.07542E-01  9.99006E-01 -9.14638E-02
    9031.165     37.511   3.400  9.08817E-01  9.98028E-01 -8.92112E-02
    9032.207     38.553   3.440  9.10877E-01  9.97174E-01 -8.62970E-02
    9033.262     39.608   3.480  9.13219E-01  9.96444E-01 -8.32248E-02
    9034.329     40.674   3.520  9.15690E-01  9.95838E-01 -8.01481E-02
    9035.408     41.753   3.560  9.18549E-01  9.95355E-01 -7.68056E-02
    9036.499     42.845   3.600  9.22423E-01  9.94995E-01 -7.25720E-02
    9037.602     43.948   3.640  9.28059E-01  9.94759E-01 -6.66997E-02
    9038.718     45.063   3.680  9.35939E-01  9.94643E-01 -5.87042E-02
    9039.845     46.191   3.720  9.46100E-01  9.94647E-01 -4.85476E-02
    9040.985     47.331   3.760  9.58159E-01  9.94750E-01 -3.65910E-02
    9042.138     48.483   3.800  9.71429E-01  9.94990E-01 -2.35610E-02
    9043.302     49.648   3.840  9.84847E-01  9.95302E-01 -1.04550E-02
    9044.478     50.824   3.880  9.97516E-01  9.95748E-01  1.76768E-03
    9045.667     52.013   3.920  1.00872E+00  9.96262E-01  1.24544E-02
    9046.868     53.214   3.960  1.01825E+00  9.96884E-01  2.13665E-02
    9048.081     54.427   4.000  1.02624E+00  9.97592E-01  2.86463E-02
    9049.306     55.652   4.040  1.03308E+00  9.98383E-01  3.47007E-02
    9050.544     56.890   4.080  1.03923E+00  9.99254E-01  3.99769E-02
    9051.794     58.139   4.120  1.04500E+00  1.00020E+00  4.47970E-02
    9053.055     59.401   4.160  1.05047E+00  1.00120E+00  4.92630E-02
    9054.329     60.675   4.200  1.05548E+00  1.00228E+00  5.32096E-02
    9055.616     61.962   4.240  1.05966E+00  1.00339E+00  5.62620E-02
    9056.914     63.260   4.280  1.06245E+00  1.00456E+00  5.78955E-02
    9058.225     64.571   4.320  1.06338E+00  1.00578E+00  5.75922E-02
    9059.548     65.893   4.360  1.06208E+00  1.00703E+00  5.50512E-02
    9060.883     67.228   4.400  1.05877E+00  1.00830E+00  5.04658E-02
    9062.230     68.576   4.440  1.05416E+00  1.00958E+00  4.45767E-02
    9063.589     69.935   4.480  1.04940E+00  1.01089E+00  3.85018E-02
    9064.961     71.307   4.520  1.04554E+00  1.01219E+00  3.33522E-02
    9066.345     72.690   4.560  1.04344E+00  1.01350E+00  2.99376E-02
    9067.741     74.086   4.600  1.04344E+00  1.01481E+00  2.86231E-02
    9069.149     75.495   4.640  1.04558E+00  1.01612E+00  2.94637E-02
    9070.569     76.915   4.680  1.04968E+00  1.01740E+00  3.22892E-02
    9072.002     78.347   4.720  1.05524E+00  1.01863E+00  3.66016E-02
    9073.446     79.792   4.760  1.06133E+00  1.01986E+00  4.14757E-02
    9074.903     81.249   4.800  1.06679E+00  1.02104E+00  4.57433E-02
    9076.373     82.718   4.840  1.07053E+00  1.02219E+00  4.83396E-02
    9077.854     84.200   4.880  1.07187E+00  1.02326E+00  4.86132E-02
    9079.347     85.693   4.920  1.07071E+00  1.02431E+00  4.64029E-02
    9080.853     87.199   4.960  1.06712E+00  1.02529E+00  4.18269E-02
    9082.371     88.717   5.000  1.06125E+00  1.02619E+00  3.50536E-02
    9083.901     90.247   5.040  1.05334E+00  1.02707E+00  2.62726E-02
    9085.443     91.789   5.080  1.04369E+00  1.02785E+00  1.58428E-02
    9086.998     93.344   5.120  1.03305E+00  1.02857E+00  4.48621E-03
    9088.564     94.910   5.160  1.02252E+00  1.02921E+00 -6.68726E-03
    9090.143     96.489   5.200  1.01335E+00  1.02976E+00 -1.64179E-02
    9091.734     98.080   5.240  1.00641E+00  1.03024E+00 -2.38353E-02
    9093.338     99.683   5.280  1.00175E+00  1.03064E+00 -2.88885E-02
    9094.953    101.299   5.320  9.98634E-01  1.03097E+00 -3.23369E-02
    9096.581    102.926   5.360  9.95905E-01  1.03120E+00 -3.52950E-02
    9098.220    104.566   5.400  9.92762E-01  1.03135E+00 -3.85846E-02
    9099.873    106.218   5.440  9.89096E-01  1.03143E+00 -4.23373E-02
    9101.537    107.882   5.480  9.85370E-01  1.03142E+00 -4.60449E-02
    9103.213    109.559   5.520  9.82464E-01  1.03134E+00 -4.88716E-02
    9104.902    111.247   5.560  9.81169E-01  1.03115E+00 -4.99849E-02
    9106.602    112.948   5.600  9.81918E-01  1.03091E+00 -4.89964E-02
    9108.315    114.661   5.640  9.84262E-01  1.03060E+00 -4.63342E-02
    9110.041    116.386   5.680  9.87123E-01  1.03020E+00 -4.30782E-02
    9111.778    118.124   5.720  9.89477E-01  1.02975E+00 -4.02767E-02
    9113.527    119.873   5.760  9.90922E-01  1.02923E+00 -3.83090E-02
    9115.289    121.635   5.800  9.91847E-01  1.02864E+00 -3.67884E-02
    9117.063    123.409   5.840  9.93093E-01  1.02800E+00 -3.49022E-02
    9118.849    125.195   5.880  9.95384E-01  1.02731E+00 -3.19288E-02
    9120.648    126.993   5.920  9.98880E-01  1.02657E+00 -2.76883E-02
    9122.458    128.804   5.960  1.00311E+00  1.02579E+00 -2.26820E-02
    9124.281    130.627   6.000  1.00735E+00  1.02496E+00 -1.76091E-02
