# # comment:                                                     FEFF 9.9.1  
# # Source:
# # Structure
# # Reduced
# # space
# # abc:
# # angles:
# # sites:
# # POT  SCF 100  7.0000   0, screened core-hole, AFOLP (folp(0)= 1.150)
# # Abs   Z=29 Rmt= 1.230 Rnm= 1.316 K  shell
# # Pot 1 Z= 3 Rmt= 1.251 Rnm= 1.296
# # Pot 2 Z=25 Rmt= 1.221 Rnm= 1.338
# # Pot 3 Z=29 Rmt= 1.229 Rnm= 1.316
# # Pot 4 Z= 8 Rmt= 1.010 Rnm= 1.091
# # Gam_ch=1.729E+00 H-L exch Vi= 0.000E+00 Vr= 0.000E+00
# # Mu=-1.089E+01eV kf=2.199E+00 Vint=-1.841E+01eV Rs_int= 1.649
# FMS rfms= 9.0000
# # PATH  Rmax=-1.000,  Keep_limit= 0.00, Heap_limit 0.00  Pwcrit= 2.50%
#  S02=0.950  Temp=   0.00  Debye_temp=   0.00  Global_sig2= 0.00000
#  Energy zero shift, vr, vi    0.00000E+00   0.00000E+00
#  Curved wave amplitude ratio filter   4.000%
#     file         sig2 tot  cw amp ratio   deg  nlegs   reff  inp sig2
#     0/   0 paths used
#  xsedge+ 50, used to normalize mu           2.5046E-04
#  -----------------------------------------------------------------------
#  omega    e    k    mu    mu0     chi     @#
    8984.283    -14.698  -1.000  3.02637E-02  4.54177E-02 -1.51540E-02
    8984.582    -14.399  -0.960  3.16848E-02  4.84983E-02 -1.68135E-02
    8984.868    -14.112  -0.920  3.32122E-02  5.19047E-02 -1.86925E-02
    8985.142    -13.838  -0.880  3.48595E-02  5.56835E-02 -2.08240E-02
    8985.404    -13.576  -0.840  3.66427E-02  5.98889E-02 -2.32461E-02
    8985.654    -13.326  -0.800  3.85807E-02  6.45835E-02 -2.60027E-02
    8985.892    -13.088  -0.760  4.06955E-02  6.98391E-02 -2.91436E-02
    8986.118    -12.863  -0.720  4.30122E-02  7.57365E-02 -3.27243E-02
    8986.331    -12.649  -0.680  4.55591E-02  8.23645E-02 -3.68055E-02
    8986.532    -12.448  -0.640  4.83661E-02  8.98167E-02 -4.14506E-02
    8986.721    -12.259  -0.600  5.14626E-02  9.81845E-02 -4.67219E-02
    8986.898    -12.082  -0.560  5.48723E-02  1.07545E-01 -5.26731E-02
    8987.063    -11.918  -0.520  5.86055E-02  1.17944E-01 -5.93389E-02
    8987.215    -11.765  -0.480  6.26488E-02  1.29369E-01 -6.67203E-02
    8987.355    -11.625  -0.440  6.69525E-02  1.41720E-01 -7.47671E-02
    8987.483    -11.497  -0.400  7.14221E-02  1.54785E-01 -8.33626E-02
    8987.599    -11.381  -0.360  7.59180E-02  1.68233E-01 -9.23151E-02
    8987.703    -11.278  -0.320  8.02710E-02  1.81635E-01 -1.01364E-01
    8987.794    -11.186  -0.280  8.43099E-02  1.94513E-01 -1.10203E-01
    8987.873    -11.107  -0.240  8.78926E-02  2.06404E-01 -1.18512E-01
    8987.940    -11.040  -0.200  9.09269E-02  2.16922E-01 -1.25995E-01
    8987.995    -10.985  -0.160  9.33735E-02  2.25778E-01 -1.32405E-01
    8988.038    -10.942  -0.120  9.52314E-02  2.32786E-01 -1.37555E-01
    8988.068    -10.912  -0.080  9.65184E-02  2.37840E-01 -1.41322E-01
    8988.093    -10.888   0.000  9.74898E-02  2.41904E-01 -1.44415E-01
    8988.148    -10.833   0.120  9.98027E-02  2.51070E-01 -1.51267E-01
    8988.190    -10.790   0.160  1.01545E-01  2.58214E-01 -1.56669E-01
    8988.245    -10.735   0.200  1.03673E-01  2.67350E-01 -1.63677E-01
    8988.312    -10.668   0.240  1.06116E-01  2.78392E-01 -1.72276E-01
    8988.392    -10.589   0.280  1.08733E-01  2.91102E-01 -1.82369E-01
    8988.483    -10.497   0.320  1.11463E-01  3.05211E-01 -1.93748E-01
    8988.587    -10.394   0.360  1.14288E-01  3.20351E-01 -2.06063E-01
    8988.702    -10.278   0.400  1.17351E-01  3.36136E-01 -2.18785E-01
    8988.830    -10.150   0.440  1.20952E-01  3.52187E-01 -2.31235E-01
    8988.971    -10.010   0.480  1.25572E-01  3.68248E-01 -2.42677E-01
    8989.123     -9.857   0.520  1.31765E-01  3.84107E-01 -2.52343E-01
    8989.288     -9.693   0.560  1.40194E-01  3.99724E-01 -2.59530E-01
    8989.464     -9.516   0.600  1.51336E-01  4.15033E-01 -2.63697E-01
    8989.653     -9.327   0.640  1.65336E-01  4.30118E-01 -2.64782E-01
    8989.855     -9.126   0.680  1.81316E-01  4.45005E-01 -2.63689E-01
    8990.068     -8.912   0.720  1.96707E-01  4.59791E-01 -2.63084E-01
    8990.293     -8.687   0.760  2.07376E-01  4.74509E-01 -2.67133E-01
    8990.531     -8.449   0.800  2.10115E-01  4.89228E-01 -2.79113E-01
    8990.781     -8.199   0.840  2.05970E-01  5.03985E-01 -2.98015E-01
    8991.043     -7.937   0.880  2.00197E-01  5.18827E-01 -3.18630E-01
    8991.318     -7.663   0.920  1.98660E-01  5.33772E-01 -3.35112E-01
    8991.604     -7.376   0.960  2.05290E-01  5.48829E-01 -3.43539E-01
    8991.903     -7.078   1.000  2.22368E-01  5.63999E-01 -3.41631E-01
    8992.214     -6.767   1.040  2.52201E-01  5.79295E-01 -3.27095E-01
    8992.537     -6.444   1.080  2.97751E-01  5.94666E-01 -2.96915E-01
    8992.872     -6.108   1.120  3.60278E-01  6.10152E-01 -2.49874E-01
    8993.220     -5.761   1.160  4.30265E-01  6.25674E-01 -1.95409E-01
    8993.579     -5.401   1.200  4.79704E-01  6.41246E-01 -1.61542E-01
    8993.951     -5.029   1.240  4.79273E-01  6.56822E-01 -1.77549E-01
    8994.335     -4.645   1.280  4.39461E-01  6.72369E-01 -2.32908E-01
    8994.731     -4.249   1.320  4.02658E-01  6.87856E-01 -2.85198E-01
    8995.140     -3.841   1.360  3.90443E-01  7.03250E-01 -3.12807E-01
    8995.560     -3.420   1.400  3.97263E-01  7.18537E-01 -3.21274E-01
    8995.993     -2.987   1.440  4.15861E-01  7.33642E-01 -3.17781E-01
    8996.438     -2.542   1.480  4.49462E-01  7.48549E-01 -2.99086E-01
    8996.895     -2.085   1.520  5.04807E-01  7.63202E-01 -2.58395E-01
    8997.365     -1.616   1.560  5.83538E-01  7.77606E-01 -1.94068E-01
    8997.846     -1.134   1.600  6.81707E-01  7.91708E-01 -1.10001E-01
    8998.340     -0.640   1.640  7.88723E-01  8.05473E-01 -1.67496E-02
    8998.846     -0.134   1.680  8.75654E-01  8.18867E-01  5.67868E-02
    8999.364      0.384   1.720  8.97975E-01  8.31878E-01  6.60969E-02
    8999.895      0.914   1.760  8.70509E-01  8.44474E-01  2.60354E-02
    9000.437      1.457   1.800  8.48055E-01  8.56626E-01 -8.57142E-03
    9000.992      2.011   1.840  8.52322E-01  8.68345E-01 -1.60226E-02
    9001.559      2.578   1.880  8.86227E-01  8.79582E-01  6.64485E-03
    9002.138      3.158   1.920  9.47880E-01  8.90312E-01  5.75677E-02
    9002.729      3.749   1.960  1.02919E+00  9.00569E-01  1.28620E-01
    9003.333      4.352   2.000  1.11558E+00  9.10309E-01  2.05268E-01
    9003.948      4.968   2.040  1.19996E+00  9.19552E-01  2.80410E-01
    9004.576      5.596   2.080  1.27943E+00  9.28275E-01  3.51159E-01
    9005.216      6.236   2.120  1.33062E+00  9.36478E-01  3.94144E-01
    9005.869      6.888   2.160  1.33591E+00  9.44183E-01  3.91725E-01
    9006.533      7.553   2.200  1.32089E+00  9.51371E-01  3.69521E-01
    9007.210      8.229   2.240  1.31553E+00  9.58066E-01  3.57464E-01
    9007.899      8.918   2.280  1.32599E+00  9.64254E-01  3.61739E-01
    9008.600      9.619   2.320  1.34156E+00  9.69977E-01  3.71584E-01
    9009.313     10.332   2.360  1.32837E+00  9.75223E-01  3.53147E-01
    9010.038     11.058   2.400  1.26039E+00  9.79999E-01  2.80396E-01
    9010.776     11.796   2.440  1.15441E+00  9.84350E-01  1.70055E-01
    9011.526     12.545   2.480  1.04565E+00  9.88266E-01  5.73876E-02
    9012.288     13.307   2.520  9.59281E-01  9.91755E-01 -3.24741E-02
    9013.062     14.082   2.560  9.12040E-01  9.94864E-01 -8.28239E-02
    9013.848     14.868   2.600  9.13745E-01  9.97604E-01 -8.38594E-02
    9014.647     15.666   2.640  9.45854E-01  9.99963E-01 -5.41083E-02
    9015.458     16.477   2.680  9.73986E-01  1.00199E+00 -2.80041E-02
    9016.281     17.300   2.720  9.87507E-01  1.00372E+00 -1.62087E-02
    9017.116     18.135   2.760  9.87976E-01  1.00511E+00 -1.71312E-02
    9017.963     18.983   2.800  9.80910E-01  1.00624E+00 -2.53272E-02
    9018.823     19.842   2.840  9.71676E-01  1.00709E+00 -3.54166E-02
    9019.694     20.714   2.880  9.64315E-01  1.00770E+00 -4.33872E-02
    9020.578     21.598   2.920  9.59919E-01  1.00808E+00 -4.81568E-02
    9021.474     22.494   2.960  9.57808E-01  1.00824E+00 -5.04331E-02
    9022.383     23.402   3.000  9.56524E-01  1.00821E+00 -5.16848E-02
    9023.303     24.323   3.040  9.54831E-01  1.00801E+00 -5.31767E-02
    9024.236     25.255   3.080  9.51987E-01  1.00764E+00 -5.56574E-02
    9025.181     26.200   3.120  9.47083E-01  1.00713E+00 -6.00424E-02
    9026.138     27.157   3.160  9.39438E-01  1.00648E+00 -6.70415E-02
    9027.107     28.127   3.200  9.29707E-01  1.00571E+00 -7.60069E-02
    9028.088     29.108   3.240  9.20071E-01  1.00484E+00 -8.47652E-02
    9029.082     30.102   3.280  9.12570E-01  1.00389E+00 -9.13234E-02
    9030.088     31.108   3.320  9.08102E-01  1.00285E+00 -9.47500E-02
    9031.106     32.126   3.360  9.06377E-01  1.00176E+00 -9.53787E-02
    9032.136     33.156   3.400  9.06209E-01  1.00061E+00 -9.44012E-02
    9033.179     34.198   3.440  9.06391E-01  9.99403E-01 -9.30117E-02
    9034.233     35.253   3.480  9.06264E-01  9.98178E-01 -9.19138E-02
    9035.300     36.320   3.520  9.05771E-01  9.96921E-01 -9.11499E-02
    9036.379     37.399   3.560  9.05137E-01  9.95653E-01 -9.05160E-02
    9037.470     38.490   3.600  9.05050E-01  9.94361E-01 -8.93112E-02
    9038.574     39.593   3.640  9.06432E-01  9.93089E-01 -8.66572E-02
    9039.689     40.709   3.680  9.09929E-01  9.91820E-01 -8.18913E-02
    9040.817     41.836   3.720  9.15704E-01  9.90557E-01 -7.48528E-02
    9041.957     42.976   3.760  9.23589E-01  9.89325E-01 -6.57360E-02
    9043.109     44.129   3.800  9.33183E-01  9.88125E-01 -5.49420E-02
    9044.273     45.293   3.840  9.44032E-01  9.86941E-01 -4.29086E-02
    9045.450     46.469   3.880  9.55888E-01  9.85813E-01 -2.99253E-02
    9046.639     47.658   3.920  9.68551E-01  9.84705E-01 -1.61538E-02
    9047.839     48.859   3.960  9.81839E-01  9.83657E-01 -1.81778E-03
    9049.053     50.072   4.000  9.95489E-01  9.82630E-01  1.28586E-02
    9050.278     51.297   4.040  1.00926E+00  9.81669E-01  2.75877E-02
    9051.515     52.535   4.080  1.02270E+00  9.80773E-01  4.19258E-02
    9052.765     53.785   4.120  1.03524E+00  9.79904E-01  5.53357E-02
    9054.027     55.046   4.160  1.04641E+00  9.79122E-01  6.72923E-02
    9055.301     56.321   4.200  1.05578E+00  9.78367E-01  7.74082E-02
    9056.587     57.607   4.240  1.06335E+00  9.77680E-01  8.56657E-02
    9057.886     58.905   4.280  1.06965E+00  9.77062E-01  9.25884E-02
    9059.196     60.216   4.320  1.07534E+00  9.76493E-01  9.88496E-02
    9060.519     61.539   4.360  1.08075E+00  9.75970E-01  1.04783E-01
    9061.854     62.874   4.400  1.08559E+00  9.75517E-01  1.10077E-01
    9063.201     64.221   4.440  1.08898E+00  9.75135E-01  1.13847E-01
    9064.561     65.580   4.480  1.08971E+00  9.74800E-01  1.14915E-01
    9065.932     66.952   4.520  1.08646E+00  9.74512E-01  1.11951E-01
    9067.316     68.336   4.560  1.07795E+00  9.74291E-01  1.03660E-01
    9068.712     69.732   4.600  1.06320E+00  9.74118E-01  8.90806E-02
    9070.120     71.140   4.640  1.04244E+00  9.74012E-01  6.84269E-02
    9071.541     72.560   4.680  1.01747E+00  9.73949E-01  4.35171E-02
    9072.973     73.993   4.720  9.91256E-01  9.73929E-01  1.73266E-02
    9074.418     75.438   4.760  9.66866E-01  9.73951E-01 -7.08546E-03
    9075.875     76.894   4.800  9.46500E-01  9.74015E-01 -2.75141E-02
    9077.344     78.364   4.840  9.31189E-01  9.74140E-01 -4.29505E-02
    9078.825     79.845   4.880  9.20954E-01  9.74284E-01 -5.33303E-02
    9080.319     81.338   4.920  9.15330E-01  9.74488E-01 -5.91583E-02
    9081.825     82.844   4.960  9.13515E-01  9.74706E-01 -6.11913E-02
    9083.342     84.362   5.000  9.14754E-01  9.74958E-01 -6.02038E-02
    9084.872     85.892   5.040  9.18368E-01  9.75222E-01 -5.68540E-02
    9086.415     87.434   5.080  9.23996E-01  9.75541E-01 -5.15457E-02
    9087.969     88.989   5.120  9.31367E-01  9.75871E-01 -4.45046E-02
    9089.536     90.556   5.160  9.40313E-01  9.76208E-01 -3.58950E-02
    9091.115     92.134   5.200  9.50615E-01  9.76573E-01 -2.59578E-02
    9092.706     93.725   5.240  9.61723E-01  9.76942E-01 -1.52186E-02
    9094.309     95.329   5.280  9.72830E-01  9.77314E-01 -4.48443E-03
    9095.925     96.944   5.320  9.82906E-01  9.77689E-01  5.21691E-03
    9097.552     98.572   5.360  9.91019E-01  9.78088E-01  1.29310E-02
    9099.192    100.212   5.400  9.96439E-01  9.78488E-01  1.79510E-02
    9100.844    101.864   5.440  9.98584E-01  9.78862E-01  1.97224E-02
    9102.508    103.528   5.480  9.97027E-01  9.79230E-01  1.77966E-02
    9104.185    105.204   5.520  9.91788E-01  9.79596E-01  1.21917E-02
    9105.873    106.893   5.560  9.83642E-01  9.79957E-01  3.68539E-03
    9107.574    108.594   5.600  9.73978E-01  9.80288E-01 -6.31003E-03
    9109.287    110.306   5.640  9.64415E-01  9.80612E-01 -1.61968E-02
    9111.012    112.032   5.680  9.56228E-01  9.80925E-01 -2.46979E-02
    9112.749    113.769   5.720  9.49900E-01  9.81185E-01 -3.12852E-02
    9114.499    115.519   5.760  9.45245E-01  9.81455E-01 -3.62092E-02
    9116.261    117.280   5.800  9.41518E-01  9.81667E-01 -4.01495E-02
    9118.035    119.054   5.840  9.38209E-01  9.81867E-01 -4.36577E-02
    9119.821    120.840   5.880  9.35090E-01  9.82031E-01 -4.69404E-02
    9121.619    122.639   5.920  9.32137E-01  9.82155E-01 -5.00174E-02
    9123.430    124.449   5.960  9.29446E-01  9.82236E-01 -5.27902E-02
    9125.252    126.272   6.000  9.27667E-01  9.82290E-01 -5.46232E-02
