# # comment:                                                     FEFF 9.9.1  
# # Source:
# # Structure
# # Reduced
# # space
# # abc:
# # angles:
# # sites:
# # POT  SCF 100  7.0000   0, screened core-hole, AFOLP (folp(0)= 1.150)
# # Abs   Z=29 Rmt= 1.182 Rnm= 1.299 K  shell
# # Pot 1 Z=30 Rmt= 1.256 Rnm= 1.415
# # Pot 2 Z=29 Rmt= 1.212 Rnm= 1.293
# # Pot 3 Z=15 Rmt= 0.904 Rnm= 1.154
# # Pot 4 Z= 8 Rmt= 1.008 Rnm= 1.123
# # Gam_ch=1.729E+00 H-L exch Vi= 0.000E+00 Vr= 0.000E+00
# # Mu=-8.864E+00eV kf=2.210E+00 Vint=-1.506E+01eV Rs_int= 1.641
# FMS rfms= 9.0000
# # PATH  Rmax=-1.000,  Keep_limit= 0.00, Heap_limit 0.00  Pwcrit= 2.50%
#  S02=0.950  Temp=   0.00  Debye_temp=   0.00  Global_sig2= 0.00000
#  Energy zero shift, vr, vi    0.00000E+00   0.00000E+00
#  Curved wave amplitude ratio filter   4.000%
#     file         sig2 tot  cw amp ratio   deg  nlegs   reff  inp sig2
#     0/   0 paths used
#  xsedge+ 50, used to normalize mu           2.4523E-04
#  -----------------------------------------------------------------------
#  omega    e    k    mu    mu0     chi     @#
    8983.466    -12.674  -1.000  2.86004E-02  4.94553E-02 -2.08549E-02
    8983.765    -12.375  -0.960  2.97673E-02  5.28456E-02 -2.30783E-02
    8984.052    -12.089  -0.920  3.10047E-02  5.65922E-02 -2.55876E-02
    8984.326    -11.814  -0.880  3.23204E-02  6.07455E-02 -2.84252E-02
    8984.588    -11.552  -0.840  3.37239E-02  6.53638E-02 -3.16400E-02
    8984.838    -11.302  -0.800  3.52262E-02  7.05145E-02 -3.52883E-02
    8985.076    -11.064  -0.760  3.68403E-02  7.62745E-02 -3.94342E-02
    8985.301    -10.839  -0.720  3.85807E-02  8.27304E-02 -4.41496E-02
    8985.515    -10.626  -0.680  4.04640E-02  8.99771E-02 -4.95131E-02
    8985.716    -10.424  -0.640  4.25074E-02  9.81144E-02 -5.56071E-02
    8985.905    -10.235  -0.600  4.47278E-02  1.07240E-01 -6.25118E-02
    8986.082    -10.059  -0.560  4.71391E-02  1.17435E-01 -7.02955E-02
    8986.246     -9.894  -0.520  4.97481E-02  1.28747E-01 -7.89987E-02
    8986.399     -9.742  -0.480  5.25489E-02  1.41162E-01 -8.86126E-02
    8986.539     -9.601  -0.440  5.55162E-02  1.54571E-01 -9.90547E-02
    8986.667     -9.473  -0.400  5.86004E-02  1.68748E-01 -1.10147E-01
    8986.783     -9.358  -0.360  6.17264E-02  1.83336E-01 -1.21610E-01
    8986.886     -9.254  -0.320  6.47992E-02  1.97875E-01 -1.33076E-01
    8986.978     -9.163  -0.280  6.77164E-02  2.11850E-01 -1.44133E-01
    8987.057     -9.083  -0.240  7.03831E-02  2.24763E-01 -1.54380E-01
    8987.124     -9.016  -0.200  7.27234E-02  2.36194E-01 -1.63471E-01
    8987.179     -8.961  -0.160  7.46856E-02  2.45828E-01 -1.71143E-01
    8987.222     -8.919  -0.120  7.62397E-02  2.53459E-01 -1.77220E-01
    8987.252     -8.888  -0.080  7.73712E-02  2.58967E-01 -1.81596E-01
    8987.276     -8.864   0.000  7.83211E-02  2.63401E-01 -1.85080E-01
    8987.331     -8.809   0.120  8.05190E-02  2.73409E-01 -1.92890E-01
    8987.374     -8.766   0.160  8.21289E-02  2.81207E-01 -1.99078E-01
    8987.429     -8.711   0.200  8.41469E-02  2.91231E-01 -2.07084E-01
    8987.496     -8.644   0.240  8.64810E-02  3.03318E-01 -2.16837E-01
    8987.575     -8.565   0.280  8.91062E-02  3.17315E-01 -2.28209E-01
    8987.667     -8.474   0.320  9.18972E-02  3.32908E-01 -2.41011E-01
    8987.770     -8.370   0.360  9.47802E-02  3.49746E-01 -2.54966E-01
    8987.886     -8.254   0.400  9.76005E-02  3.67389E-01 -2.69789E-01
    8988.014     -8.126   0.440  1.00273E-01  3.85491E-01 -2.85217E-01
    8988.154     -7.986   0.480  1.02668E-01  4.03745E-01 -3.01077E-01
    8988.307     -7.834   0.520  1.04696E-01  4.21952E-01 -3.17256E-01
    8988.471     -7.669   0.560  1.06475E-01  4.40046E-01 -3.33571E-01
    8988.648     -7.492   0.600  1.08221E-01  4.57999E-01 -3.49778E-01
    8988.837     -7.303   0.640  1.10337E-01  4.75827E-01 -3.65490E-01
    8989.038     -7.102   0.680  1.13211E-01  4.93574E-01 -3.80363E-01
    8989.252     -6.889   0.720  1.17153E-01  5.11289E-01 -3.94136E-01
    8989.477     -6.663   0.760  1.22438E-01  5.29040E-01 -4.06602E-01
    8989.715     -6.425   0.800  1.29377E-01  5.46845E-01 -4.17468E-01
    8989.965     -6.175   0.840  1.38421E-01  5.64712E-01 -4.26291E-01
    8990.227     -5.913   0.880  1.50103E-01  5.82697E-01 -4.32593E-01
    8990.501     -5.639   0.920  1.64592E-01  6.00765E-01 -4.36173E-01
    8990.788     -5.353   0.960  1.81745E-01  6.18911E-01 -4.37166E-01
    8991.086     -5.054   1.000  2.01293E-01  6.37122E-01 -4.35829E-01
    8991.397     -4.743   1.040  2.22794E-01  6.55336E-01 -4.32542E-01
    8991.720     -4.420   1.080  2.45277E-01  6.73527E-01 -4.28250E-01
    8992.056     -4.085   1.120  2.66831E-01  6.91661E-01 -4.24830E-01
    8992.403     -3.737   1.160  2.85611E-01  7.09684E-01 -4.24073E-01
    8992.763     -3.377   1.200  3.02026E-01  7.27535E-01 -4.25509E-01
    8993.135     -3.006   1.240  3.18632E-01  7.45153E-01 -4.26521E-01
    8993.519     -2.622   1.280  3.37932E-01  7.62497E-01 -4.24565E-01
    8993.915     -2.225   1.320  3.62172E-01  7.79524E-01 -4.17352E-01
    8994.323     -1.817   1.360  3.93704E-01  7.96150E-01 -4.02446E-01
    8994.744     -1.396   1.400  4.34028E-01  8.12355E-01 -3.78327E-01
    8995.177     -0.963   1.440  4.84084E-01  8.28075E-01 -3.43992E-01
    8995.622     -0.518   1.480  5.41990E-01  8.43272E-01 -3.01282E-01
    8996.079     -0.061   1.520  6.02151E-01  8.57910E-01 -2.55759E-01
    8996.548      0.408   1.560  6.59556E-01  8.71970E-01 -2.12414E-01
    8997.030      0.890   1.600  7.13530E-01  8.85379E-01 -1.71849E-01
    8997.524      1.384   1.640  7.69346E-01  8.98148E-01 -1.28802E-01
    8998.030      1.889   1.680  8.29864E-01  9.10248E-01 -8.03838E-02
    8998.548      2.408   1.720  8.94803E-01  9.21652E-01 -2.68483E-02
    8999.078      2.938   1.760  9.65892E-01  9.32375E-01  3.35165E-02
    8999.621      3.481   1.800  1.03387E+00  9.42419E-01  9.14488E-02
    9000.176      4.035   1.840  1.07785E+00  9.51743E-01  1.26111E-01
    9000.742      4.602   1.880  1.09455E+00  9.60394E-01  1.34159E-01
    9001.322      5.181   1.920  1.10539E+00  9.68374E-01  1.37021E-01
    9001.913      5.773   1.960  1.12624E+00  9.75692E-01  1.50548E-01
    9002.516      6.376   2.000  1.16193E+00  9.82354E-01  1.79577E-01
    9003.132      6.992   2.040  1.22213E+00  9.88370E-01  2.33764E-01
    9003.760      7.620   2.080  1.31078E+00  9.93795E-01  3.16980E-01
    9004.400      8.260   2.120  1.40242E+00  9.98641E-01  4.03782E-01
    9005.052      8.912   2.160  1.45726E+00  1.00292E+00  4.54344E-01
    9005.717      9.577   2.200  1.45886E+00  1.00668E+00  4.52172E-01
    9006.393     10.253   2.240  1.41610E+00  1.00993E+00  4.06167E-01
    9007.082     10.942   2.280  1.35016E+00  1.01271E+00  3.37442E-01
    9007.783     11.643   2.320  1.28266E+00  1.01505E+00  2.67613E-01
    9008.497     12.356   2.360  1.22867E+00  1.01697E+00  2.11702E-01
    9009.222     13.082   2.400  1.19350E+00  1.01849E+00  1.75014E-01
    9009.960     13.819   2.440  1.17358E+00  1.01966E+00  1.53918E-01
    9010.709     14.569   2.480  1.16217E+00  1.02051E+00  1.41660E-01
    9011.471     15.331   2.520  1.15031E+00  1.02106E+00  1.29249E-01
    9012.246     16.105   2.560  1.13367E+00  1.02131E+00  1.12356E-01
    9013.032     16.892   2.600  1.11572E+00  1.02133E+00  9.43922E-02
    9013.831     17.690   2.640  1.09964E+00  1.02113E+00  7.85014E-02
    9014.641     18.501   2.680  1.08534E+00  1.02071E+00  6.46292E-02
    9015.464     19.324   2.720  1.06975E+00  1.02014E+00  4.96037E-02
    9016.299     20.159   2.760  1.05313E+00  1.01939E+00  3.37411E-02
    9017.147     21.006   2.800  1.03670E+00  1.01851E+00  1.81908E-02
    9018.006     21.866   2.840  1.02073E+00  1.01753E+00  3.20176E-03
    9018.878     22.738   2.880  1.00430E+00  1.01644E+00 -1.21309E-02
    9019.762     23.622   2.920  9.86482E-01  1.01526E+00 -2.87781E-02
    9020.658     24.518   2.960  9.67181E-01  1.01403E+00 -4.68498E-02
    9021.566     25.426   3.000  9.47113E-01  1.01276E+00 -6.56448E-02
    9022.487     26.347   3.040  9.27465E-01  1.01142E+00 -8.39594E-02
    9023.419     27.279   3.080  9.09611E-01  1.01010E+00 -1.00487E-01
    9024.364     28.224   3.120  8.94498E-01  1.00875E+00 -1.14248E-01
    9025.321     29.181   3.160  8.82743E-01  1.00740E+00 -1.24653E-01
    9026.291     30.150   3.200  8.74654E-01  1.00607E+00 -1.31415E-01
    9027.272     31.132   3.240  8.69976E-01  1.00475E+00 -1.34775E-01
    9028.266     32.126   3.280  8.68204E-01  1.00345E+00 -1.35241E-01
    9029.272     33.131   3.320  8.68911E-01  1.00220E+00 -1.33288E-01
    9030.290     34.149   3.360  8.71700E-01  1.00099E+00 -1.29295E-01
    9031.320     35.180   3.400  8.76185E-01  9.99834E-01 -1.23649E-01
    9032.362     36.222   3.440  8.82215E-01  9.98742E-01 -1.16527E-01
    9033.417     37.277   3.480  8.89716E-01  9.97698E-01 -1.07982E-01
    9034.484     38.343   3.520  8.98553E-01  9.96704E-01 -9.81502E-02
    9035.563     39.422   3.560  9.08500E-01  9.95782E-01 -8.72818E-02
    9036.654     40.514   3.600  9.19369E-01  9.94937E-01 -7.55684E-02
    9037.757     41.617   3.640  9.30819E-01  9.94169E-01 -6.33502E-02
    9038.873     42.733   3.680  9.42363E-01  9.93478E-01 -5.11152E-02
    9040.001     43.860   3.720  9.53464E-01  9.92843E-01 -3.93782E-02
    9041.140     45.000   3.760  9.63674E-01  9.92285E-01 -2.86105E-02
    9042.293     46.152   3.800  9.72716E-01  9.91828E-01 -1.91116E-02
    9043.457     47.317   3.840  9.80504E-01  9.91427E-01 -1.09231E-02
    9044.633     48.493   3.880  9.87335E-01  9.91102E-01 -3.76712E-03
    9045.822     49.682   3.920  9.93552E-01  9.90834E-01  2.71723E-03
    9047.023     50.883   3.960  9.99515E-01  9.90665E-01  8.84985E-03
    9048.236     52.096   4.000  1.00546E+00  9.90572E-01  1.48852E-02
    9049.462     53.321   4.040  1.01151E+00  9.90534E-01  2.09722E-02
    9050.699     54.559   4.080  1.01763E+00  9.90570E-01  2.70601E-02
    9051.949     55.808   4.120  1.02356E+00  9.90657E-01  3.29018E-02
    9053.211     57.070   4.160  1.02894E+00  9.90815E-01  3.81258E-02
    9054.485     58.344   4.200  1.03339E+00  9.91046E-01  4.23441E-02
    9055.771     59.631   4.240  1.03658E+00  9.91324E-01  4.52573E-02
    9057.069     60.929   4.280  1.03846E+00  9.91648E-01  4.68164E-02
    9058.380     62.240   4.320  1.03922E+00  9.92038E-01  4.71784E-02
    9059.703     63.562   4.360  1.03916E+00  9.92449E-01  4.67144E-02
    9061.038     64.897   4.400  1.03883E+00  9.92923E-01  4.59026E-02
    9062.385     66.245   4.440  1.03856E+00  9.93438E-01  4.51238E-02
    9063.744     67.604   4.480  1.03850E+00  9.93990E-01  4.45086E-02
    9065.116     68.976   4.520  1.03850E+00  9.94555E-01  4.39437E-02
    9066.500     70.359   4.560  1.03832E+00  9.95154E-01  4.31679E-02
    9067.896     71.755   4.600  1.03765E+00  9.95783E-01  4.18708E-02
    9069.304     73.164   4.640  1.03627E+00  9.96421E-01  3.98480E-02
    9070.724     74.584   4.680  1.03416E+00  9.97064E-01  3.70982E-02
    9072.157     76.017   4.720  1.03156E+00  9.97734E-01  3.38232E-02
    9073.602     77.461   4.760  1.02876E+00  9.98407E-01  3.03523E-02
    9075.058     78.918   4.800  1.02608E+00  9.99079E-01  2.70052E-02
    9076.528     80.387   4.840  1.02364E+00  9.99748E-01  2.38964E-02
    9078.009     81.869   4.880  1.02139E+00  1.00039E+00  2.09984E-02
    9079.502     83.362   4.920  1.01932E+00  1.00105E+00  1.82646E-02
    9081.008     84.868   4.960  1.01743E+00  1.00168E+00  1.57480E-02
    9082.526     86.386   5.000  1.01592E+00  1.00228E+00  1.36321E-02
    9084.056     87.916   5.040  1.01500E+00  1.00290E+00  1.21034E-02
    9085.598     89.458   5.080  1.01468E+00  1.00345E+00  1.12304E-02
    9087.153     91.013   5.120  1.01492E+00  1.00399E+00  1.09235E-02
    9088.720     92.579   5.160  1.01544E+00  1.00450E+00  1.09380E-02
    9090.298     94.158   5.200  1.01593E+00  1.00497E+00  1.09616E-02
    9091.889     95.749   5.240  1.01611E+00  1.00542E+00  1.06916E-02
    9093.493     97.352   5.280  1.01565E+00  1.00581E+00  9.84414E-03
    9095.108     98.968   5.320  1.01430E+00  1.00618E+00  8.11844E-03
    9096.736    100.595   5.360  1.01173E+00  1.00648E+00  5.24928E-03
    9098.376    102.235   5.400  1.00787E+00  1.00675E+00  1.12452E-03
    9100.028    103.887   5.440  1.00287E+00  1.00699E+00 -4.11961E-03
    9101.692    105.552   5.480  9.96993E-01  1.00716E+00 -1.01717E-02
    9103.368    107.228   5.520  9.90619E-01  1.00729E+00 -1.66756E-02
    9105.057    108.916   5.560  9.84037E-01  1.00736E+00 -2.33209E-02
    9106.758    110.617   5.600  9.77508E-01  1.00740E+00 -2.98905E-02
    9108.471    112.330   5.640  9.71082E-01  1.00737E+00 -3.62913E-02
    9110.196    114.055   5.680  9.64807E-01  1.00730E+00 -4.24960E-02
    9111.933    115.793   5.720  9.58811E-01  1.00719E+00 -4.83799E-02
    9113.683    117.542   5.760  9.53455E-01  1.00703E+00 -5.35788E-02
    9115.444    119.304   5.800  9.49296E-01  1.00681E+00 -5.75168E-02
    9117.218    121.078   5.840  9.46995E-01  1.00657E+00 -5.95776E-02
    9119.004    122.864   5.880  9.46921E-01  1.00627E+00 -5.93487E-02
    9120.803    124.662   5.920  9.49152E-01  1.00593E+00 -5.67747E-02
    9122.613    126.473   5.960  9.53399E-01  1.00555E+00 -5.21461E-02
    9124.436    128.296   6.000  9.59380E-01  1.00513E+00 -4.57451E-02
