# # comment:                                                     FEFF 9.9.1  
# # Source:
# # Structure
# # Reduced
# # space
# # abc:
# # angles:109.471221
# # sites:
# # POT  SCF 100  7.0000   0, screened core-hole, AFOLP (folp(0)= 1.150)
# # Abs   Z=29 Rmt= 1.193 Rnm= 1.285 K  shell
# # Pot 1 Z=60 Rmt= 1.727 Rnm= 1.775
# # Pot 2 Z=25 Rmt= 1.285 Rnm= 1.392
# # Pot 3 Z=29 Rmt= 1.193 Rnm= 1.286
# # Pot 4 Z= 8 Rmt= 1.028 Rnm= 1.097
# # Gam_ch=1.729E+00 H-L exch Vi= 0.000E+00 Vr= 0.000E+00
# # Mu=-1.014E+01eV kf=2.180E+00 Vint=-1.824E+01eV Rs_int= 1.664
# FMS rfms= 9.0000
# # PATH  Rmax=-1.000,  Keep_limit= 0.00, Heap_limit 0.00  Pwcrit= 2.50%
#  S02=0.950  Temp=   0.00  Debye_temp=   0.00  Global_sig2= 0.00000
#  Energy zero shift, vr, vi    0.00000E+00   0.00000E+00
#  Curved wave amplitude ratio filter   4.000%
#     file         sig2 tot  cw amp ratio   deg  nlegs   reff  inp sig2
#     0/   0 paths used
#  xsedge+ 50, used to normalize mu           2.4831E-04
#  -----------------------------------------------------------------------
#  omega    e    k    mu    mu0     chi     @#
    8984.525    -13.945  -1.000  3.41764E-02  5.05657E-02 -1.63892E-02
    8984.824    -13.646  -0.960  3.58180E-02  5.41346E-02 -1.83166E-02
    8985.110    -13.360  -0.920  3.75680E-02  5.80914E-02 -2.05234E-02
    8985.385    -13.086  -0.880  3.94367E-02  6.24925E-02 -2.30558E-02
    8985.647    -12.823  -0.840  4.14354E-02  6.74034E-02 -2.59679E-02
    8985.897    -12.574  -0.800  4.35770E-02  7.28998E-02 -2.93228E-02
    8986.134    -12.336  -0.760  4.58758E-02  7.90687E-02 -3.31929E-02
    8986.360    -12.110  -0.720  4.83474E-02  8.60081E-02 -3.76607E-02
    8986.573    -11.897  -0.680  5.10087E-02  9.38258E-02 -4.28171E-02
    8986.774    -11.696  -0.640  5.38765E-02  1.02636E-01 -4.87591E-02
    8986.963    -11.507  -0.600  5.69659E-02  1.12549E-01 -5.55827E-02
    8987.140    -11.330  -0.560  6.02876E-02  1.23660E-01 -6.33722E-02
    8987.305    -11.165  -0.520  6.38424E-02  1.36025E-01 -7.21826E-02
    8987.457    -11.013  -0.480  6.76152E-02  1.49630E-01 -8.20147E-02
    8987.597    -10.873  -0.440  7.15677E-02  1.64356E-01 -9.27881E-02
    8987.725    -10.745  -0.400  7.56325E-02  1.79948E-01 -1.04316E-01
    8987.841    -10.629  -0.360  7.97130E-02  1.96009E-01 -1.16296E-01
    8987.945    -10.525  -0.320  8.36907E-02  2.12020E-01 -1.28329E-01
    8988.036    -10.434  -0.280  8.74414E-02  2.27405E-01 -1.39963E-01
    8988.116    -10.355  -0.240  9.08522E-02  2.41610E-01 -1.50757E-01
    8988.183    -10.288  -0.200  9.38346E-02  2.54169E-01 -1.60334E-01
    8988.237    -10.233  -0.160  9.63279E-02  2.64739E-01 -1.68411E-01
    8988.280    -10.190  -0.120  9.82943E-02  2.73100E-01 -1.74806E-01
    8988.311    -10.160  -0.080  9.97120E-02  2.79126E-01 -1.79414E-01
    8988.335    -10.135   0.000  1.00859E-01  2.83971E-01 -1.83112E-01
    8988.390    -10.080   0.120  1.03540E-01  2.94895E-01 -1.91355E-01
    8988.433    -10.038   0.160  1.05595E-01  3.03400E-01 -1.97806E-01
    8988.487     -9.983   0.200  1.08196E-01  3.14267E-01 -2.06072E-01
    8988.554     -9.916   0.240  1.11359E-01  3.27359E-01 -2.16000E-01
    8988.634     -9.836   0.280  1.15081E-01  3.42429E-01 -2.27347E-01
    8988.725     -9.745   0.320  1.19407E-01  3.59114E-01 -2.39708E-01
    8988.829     -9.641   0.360  1.24422E-01  3.76944E-01 -2.52522E-01
    8988.945     -9.526   0.400  1.30259E-01  3.95435E-01 -2.65176E-01
    8989.073     -9.398   0.440  1.37188E-01  4.14164E-01 -2.76976E-01
    8989.213     -9.257   0.480  1.45353E-01  4.32752E-01 -2.87399E-01
    8989.365     -9.105   0.520  1.54866E-01  4.50981E-01 -2.96114E-01
    8989.530     -8.940   0.560  1.65512E-01  4.68751E-01 -3.03239E-01
    8989.707     -8.764   0.600  1.76734E-01  4.86035E-01 -3.09301E-01
    8989.896     -8.575   0.640  1.87913E-01  5.02880E-01 -3.14967E-01
    8990.097     -8.373   0.680  1.98610E-01  5.19348E-01 -3.20737E-01
    8990.310     -8.160   0.720  2.08865E-01  5.35529E-01 -3.26663E-01
    8990.536     -7.934   0.760  2.19005E-01  5.51453E-01 -3.32448E-01
    8990.773     -7.697   0.800  2.29834E-01  5.67241E-01 -3.37407E-01
    8991.023     -7.447   0.840  2.43087E-01  5.82923E-01 -3.39836E-01
    8991.285     -7.185   0.880  2.62406E-01  5.98517E-01 -3.36110E-01
    8991.560     -6.910   0.920  2.93249E-01  6.14087E-01 -3.20837E-01
    8991.846     -6.624   0.960  3.40834E-01  6.29628E-01 -2.88793E-01
    8992.145     -6.325   1.000  4.06298E-01  6.45126E-01 -2.38828E-01
    8992.456     -6.014   1.040  4.79565E-01  6.60617E-01 -1.81053E-01
    8992.779     -5.691   1.080  5.41866E-01  6.76053E-01 -1.34187E-01
    8993.114     -5.356   1.120  5.93479E-01  6.91438E-01 -9.79586E-02
    8993.462     -5.008   1.160  6.61248E-01  7.06730E-01 -4.54826E-02
    8993.821     -4.649   1.200  7.54904E-01  7.21928E-01  3.29754E-02
    8994.193     -4.277   1.240  8.26210E-01  7.36965E-01  8.92445E-02
    8994.577     -3.893   1.280  8.04842E-01  7.51851E-01  5.29906E-02
    8994.974     -3.497   1.320  6.99577E-01  7.66535E-01 -6.69583E-02
    8995.382     -3.088   1.360  5.87707E-01  7.80966E-01 -1.93259E-01
    8995.803     -2.668   1.400  5.20997E-01  7.95131E-01 -2.74134E-01
    8996.235     -2.235   1.440  5.03936E-01  8.08997E-01 -3.05060E-01
    8996.680     -1.790   1.480  5.17798E-01  8.22511E-01 -3.04714E-01
    8997.138     -1.333   1.520  5.42331E-01  8.35681E-01 -2.93351E-01
    8997.607     -0.863   1.560  5.74018E-01  8.48456E-01 -2.74437E-01
    8998.089     -0.382   1.600  6.22619E-01  8.60805E-01 -2.38186E-01
    8998.582      0.112   1.640  6.85737E-01  8.72696E-01 -1.86959E-01
    8999.088      0.618   1.680  7.46729E-01  8.84143E-01 -1.37413E-01
    8999.606      1.136   1.720  7.96979E-01  8.95097E-01 -9.81176E-02
    9000.137      1.667   1.760  8.46661E-01  9.05571E-01 -5.89102E-02
    9000.679      2.209   1.800  8.95513E-01  9.15543E-01 -2.00302E-02
    9001.234      2.764   1.840  9.27497E-01  9.24988E-01  2.50900E-03
    9001.801      3.331   1.880  9.41685E-01  9.33901E-01  7.78406E-03
    9002.380      3.910   1.920  9.63063E-01  9.42305E-01  2.07580E-02
    9002.971      4.501   1.960  1.02527E+00  9.50181E-01  7.50850E-02
    9003.575      5.105   2.000  1.12606E+00  9.57550E-01  1.68506E-01
    9004.191      5.720   2.040  1.21114E+00  9.64393E-01  2.46747E-01
    9004.819      6.348   2.080  1.24064E+00  9.70716E-01  2.69923E-01
    9005.459      6.988   2.120  1.23814E+00  9.76565E-01  2.61580E-01
    9006.111      7.641   2.160  1.24538E+00  9.81904E-01  2.63478E-01
    9006.775      8.305   2.200  1.29350E+00  9.86782E-01  3.06717E-01
    9007.452      8.982   2.240  1.37465E+00  9.91205E-01  3.83449E-01
    9008.141      9.671   2.280  1.43283E+00  9.95183E-01  4.37652E-01
    9008.842     10.372   2.320  1.43276E+00  9.98744E-01  4.34015E-01
    9009.555     11.085   2.360  1.39674E+00  1.00188E+00  3.94864E-01
    9010.280     11.810   2.400  1.34485E+00  1.00463E+00  3.40216E-01
    9011.018     12.548   2.440  1.28109E+00  1.00701E+00  2.74074E-01
    9011.768     13.298   2.480  1.21395E+00  1.00904E+00  2.04911E-01
    9012.530     14.060   2.520  1.15818E+00  1.01076E+00  1.47419E-01
    9013.304     14.834   2.560  1.11913E+00  1.01214E+00  1.06993E-01
    9014.090     15.620   2.600  1.09350E+00  1.01325E+00  8.02506E-02
    9014.889     16.419   2.640  1.06954E+00  1.01408E+00  5.54568E-02
    9015.700     17.230   2.680  1.04188E+00  1.01464E+00  2.72369E-02
    9016.523     18.053   2.720  1.01682E+00  1.01499E+00  1.83287E-03
    9017.358     18.888   2.760  9.98577E-01  1.01512E+00 -1.65443E-02
    9018.205     19.735   2.800  9.87064E-01  1.01505E+00 -2.79907E-02
    9019.065     20.595   2.840  9.80029E-01  1.01480E+00 -3.47674E-02
    9019.937     21.466   2.880  9.73737E-01  1.01440E+00 -4.06594E-02
    9020.820     22.350   2.920  9.65072E-01  1.01384E+00 -4.87688E-02
    9021.717     23.246   2.960  9.52726E-01  1.01316E+00 -6.04340E-02
    9022.625     24.155   3.000  9.36654E-01  1.01236E+00 -7.57075E-02
    9023.545     25.075   3.040  9.17992E-01  1.01147E+00 -9.34785E-02
    9024.478     26.008   3.080  8.99197E-01  1.01050E+00 -1.11299E-01
    9025.423     26.953   3.120  8.83143E-01  1.00944E+00 -1.26299E-01
    9026.380     27.910   3.160  8.71423E-01  1.00832E+00 -1.36892E-01
    9027.349     28.879   3.200  8.64432E-01  1.00714E+00 -1.42711E-01
    9028.331     29.861   3.240  8.61779E-01  1.00595E+00 -1.44171E-01
    9029.324     30.854   3.280  8.62260E-01  1.00470E+00 -1.42443E-01
    9030.330     31.860   3.320  8.64952E-01  1.00347E+00 -1.38514E-01
    9031.348     32.878   3.360  8.69241E-01  1.00220E+00 -1.32961E-01
    9032.378     33.908   3.400  8.74494E-01  1.00094E+00 -1.26442E-01
    9033.421     34.951   3.440  8.79849E-01  9.99672E-01 -1.19822E-01
    9034.475     36.005   3.480  8.84749E-01  9.98434E-01 -1.13685E-01
    9035.542     37.072   3.520  8.89184E-01  9.97205E-01 -1.08021E-01
    9036.621     38.151   3.560  8.93785E-01  9.96010E-01 -1.02225E-01
    9037.712     39.242   3.600  8.99700E-01  9.94850E-01 -9.51508E-02
    9038.816     40.346   3.640  9.07925E-01  9.93726E-01 -8.58017E-02
    9039.931     41.461   3.680  9.18954E-01  9.92621E-01 -7.36661E-02
    9041.059     42.589   3.720  9.32732E-01  9.91576E-01 -5.88443E-02
    9042.199     43.729   3.760  9.48812E-01  9.90577E-01 -4.17647E-02
    9043.351     44.881   3.800  9.66084E-01  9.89642E-01 -2.35580E-02
    9044.515     46.045   3.840  9.82615E-01  9.88733E-01 -6.11759E-03
    9045.692     47.222   3.880  9.96250E-01  9.87891E-01  8.35956E-03
    9046.881     48.411   3.920  1.00512E+00  9.87116E-01  1.80043E-02
    9048.082     49.612   3.960  1.00847E+00  9.86389E-01  2.20789E-02
    9049.295     50.825   4.000  1.00717E+00  9.85712E-01  2.14604E-02
    9050.520     52.050   4.040  1.00360E+00  9.85104E-01  1.84930E-02
    9051.758     53.287   4.080  1.00079E+00  9.84566E-01  1.62193E-02
    9053.007     54.537   4.120  1.00144E+00  9.84077E-01  1.73636E-02
    9054.269     55.799   4.160  1.00711E+00  9.83637E-01  2.34766E-02
    9055.543     57.073   4.200  1.01756E+00  9.83267E-01  3.42943E-02
    9056.829     58.359   4.240  1.03087E+00  9.82966E-01  4.79070E-02
    9058.128     59.658   4.280  1.04450E+00  9.82714E-01  6.17895E-02
    9059.438     60.968   4.320  1.05642E+00  9.82509E-01  7.39135E-02
    9060.761     62.291   4.360  1.06551E+00  9.82371E-01  8.31368E-02
    9062.096     63.626   4.400  1.07107E+00  9.82278E-01  8.87968E-02
    9063.443     64.973   4.440  1.07242E+00  9.82230E-01  9.01848E-02
    9064.803     66.333   4.480  1.06868E+00  9.82248E-01  8.64326E-02
    9066.174     67.704   4.520  1.05993E+00  9.82310E-01  7.76235E-02
    9067.558     69.088   4.560  1.04805E+00  9.82414E-01  6.56351E-02
    9068.954     70.484   4.600  1.03611E+00  9.82557E-01  5.35518E-02
    9070.362     71.892   4.640  1.02702E+00  9.82738E-01  4.42861E-02
    9071.783     73.313   4.680  1.02243E+00  9.82957E-01  3.94697E-02
    9073.215     74.745   4.720  1.02232E+00  9.83192E-01  3.91255E-02
    9074.660     76.190   4.760  1.02566E+00  9.83482E-01  4.21778E-02
    9076.117     77.647   4.800  1.03087E+00  9.83786E-01  4.70847E-02
    9077.586     79.116   4.840  1.03629E+00  9.84125E-01  5.21626E-02
    9079.067     80.597   4.880  1.04015E+00  9.84493E-01  5.56521E-02
    9080.561     82.091   4.920  1.04072E+00  9.84848E-01  5.58749E-02
    9082.067     83.597   4.960  1.03706E+00  9.85252E-01  5.18040E-02
    9083.585     85.114   5.000  1.02927E+00  9.85638E-01  4.36313E-02
    9085.115     86.645   5.040  1.01859E+00  9.86051E-01  3.25426E-02
    9086.657     88.187   5.080  1.00645E+00  9.86467E-01  1.99869E-02
    9088.211     89.741   5.120  9.93892E-01  9.86883E-01  7.00895E-03
    9089.778     91.308   5.160  9.81308E-01  9.87298E-01 -5.99021E-03
    9091.357     92.887   5.200  9.68601E-01  9.87712E-01 -1.91110E-02
    9092.948     94.478   5.240  9.55493E-01  9.88124E-01 -3.26310E-02
    9094.551     96.081   5.280  9.41950E-01  9.88531E-01 -4.65813E-02
    9096.167     97.697   5.320  9.28423E-01  9.88910E-01 -6.04866E-02
    9097.794     99.324   5.360  9.15788E-01  9.89282E-01 -7.34940E-02
    9099.434    100.964   5.400  9.05040E-01  9.89646E-01 -8.46059E-02
    9101.086    102.616   5.440  8.97242E-01  9.89978E-01 -9.27357E-02
    9102.750    104.280   5.480  8.93377E-01  9.90274E-01 -9.68970E-02
    9104.427    105.957   5.520  8.93972E-01  9.90560E-01 -9.65879E-02
    9106.115    107.645   5.560  8.98996E-01  9.90813E-01 -9.18169E-02
    9107.816    109.346   5.600  9.08196E-01  9.91055E-01 -8.28590E-02
    9109.529    111.059   5.640  9.21266E-01  9.91262E-01 -6.99961E-02
    9111.254    112.784   5.680  9.37928E-01  9.91430E-01 -5.35015E-02
    9112.992    114.521   5.720  9.57573E-01  9.91559E-01 -3.39866E-02
    9114.741    116.271   5.760  9.78932E-01  9.91652E-01 -1.27198E-02
    9116.503    118.033   5.800  1.00014E+00  9.91729E-01  8.41520E-03
    9118.277    119.807   5.840  1.01920E+00  9.91746E-01  2.74495E-02
    9120.063    121.593   5.880  1.03445E+00  9.91747E-01  4.27047E-02
    9121.861    123.391   5.920  1.04443E+00  9.91685E-01  5.27481E-02
    9123.672    125.202   5.960  1.04796E+00  9.91607E-01  5.63566E-02
    9125.494    127.024   6.000  1.04407E+00  9.91470E-01  5.25985E-02
