# # comment:                                                     FEFF 9.9.1  
# # Source:
# # Structure
# # Reduced
# # space
# # abc:
# # angles:
# # sites:
# # POT  SCF 100  7.0000   0, screened core-hole, AFOLP (folp(0)= 1.150)
# # Abs   Z=29 Rmt= 1.284 Rnm= 1.383 K  shell
# # Pot 1 Z= 3 Rmt= 1.332 Rnm= 1.385
# # Pot 2 Z=29 Rmt= 1.284 Rnm= 1.383
# # Pot 3 Z= 6 Rmt= 0.708 Rnm= 0.922
# # Pot 4 Z= 8 Rmt= 0.834 Rnm= 1.011
# # Gam_ch=1.729E+00 H-L exch Vi= 0.000E+00 Vr= 0.000E+00
# # Mu=-6.705E+00eV kf=2.575E+00 Vint=-1.786E+01eV Rs_int= 1.408
# FMS rfms= 9.0000
# # PATH  Rmax=-1.000,  Keep_limit= 0.00, Heap_limit 0.00  Pwcrit= 2.50%
#  S02=0.950  Temp=   0.00  Debye_temp=   0.00  Global_sig2= 0.00000
#  Energy zero shift, vr, vi    0.00000E+00   0.00000E+00
#  Curved wave amplitude ratio filter   4.000%
#     file         sig2 tot  cw amp ratio   deg  nlegs   reff  inp sig2
#     0/   0 paths used
#  xsedge+ 50, used to normalize mu           2.5019E-04
#  -----------------------------------------------------------------------
#  omega    e    k    mu    mu0     chi     @#
    8983.401    -10.515  -1.000  4.49478E-02  5.17175E-02 -6.76962E-03
    8983.700    -10.216  -0.960  4.77201E-02  5.54547E-02 -7.73456E-03
    8983.986     -9.929  -0.920  5.07500E-02  5.96090E-02 -8.85904E-03
    8984.261     -9.655  -0.880  5.40702E-02  6.42422E-02 -1.01720E-02
    8984.523     -9.393  -0.840  5.77186E-02  6.94264E-02 -1.17078E-02
    8984.773     -9.143  -0.800  6.17380E-02  7.52451E-02 -1.35071E-02
    8985.011     -8.905  -0.760  6.61769E-02  8.17944E-02 -1.56175E-02
    8985.236     -8.680  -0.720  7.10889E-02  8.91828E-02 -1.80939E-02
    8985.449     -8.466  -0.680  7.65320E-02  9.75300E-02 -2.09980E-02
    8985.651     -8.265  -0.640  8.25661E-02  1.06963E-01 -2.43964E-02
    8985.840     -8.076  -0.600  8.92487E-02  1.17605E-01 -2.83561E-02
    8986.016     -7.899  -0.560  9.66270E-02  1.29563E-01 -3.29362E-02
    8986.181     -7.735  -0.520  1.04727E-01  1.42901E-01 -3.81743E-02
    8986.333     -7.582  -0.480  1.13538E-01  1.57606E-01 -4.40678E-02
    8986.474     -7.442  -0.440  1.22994E-01  1.73547E-01 -5.05527E-02
    8986.602     -7.314  -0.400  1.32960E-01  1.90446E-01 -5.74858E-02
    8986.717     -7.198  -0.360  1.43222E-01  2.07864E-01 -6.46418E-02
    8986.821     -7.095  -0.320  1.53498E-01  2.25231E-01 -7.17338E-02
    8986.912     -7.003  -0.280  1.63459E-01  2.41916E-01 -7.84561E-02
    8986.992     -6.924  -0.240  1.72773E-01  2.57309E-01 -8.45359E-02
    8987.059     -6.857  -0.200  1.81133E-01  2.70906E-01 -8.97731E-02
    8987.114     -6.802  -0.160  1.88283E-01  2.82337E-01 -9.40537E-02
    8987.156     -6.759  -0.120  1.94030E-01  2.91368E-01 -9.73375E-02
    8987.187     -6.729  -0.080  1.98240E-01  2.97870E-01 -9.96303E-02
    8987.211     -6.705   0.000  2.01713E-01  3.03092E-01 -1.01379E-01
    8987.266     -6.650   0.120  2.09535E-01  3.14848E-01 -1.05313E-01
    8987.309     -6.607   0.160  2.15667E-01  3.24004E-01 -1.08336E-01
    8987.364     -6.552   0.200  2.23584E-01  3.35650E-01 -1.12066E-01
    8987.431     -6.485   0.240  2.33358E-01  3.49657E-01 -1.16299E-01
    8987.510     -6.406   0.280  2.44958E-01  3.65709E-01 -1.20751E-01
    8987.601     -6.314   0.320  2.58269E-01  3.83358E-01 -1.25089E-01
    8987.705     -6.211   0.360  2.73176E-01  4.02115E-01 -1.28939E-01
    8987.821     -6.095   0.400  2.89344E-01  4.21378E-01 -1.32034E-01
    8987.949     -5.967   0.440  3.06330E-01  4.40655E-01 -1.34325E-01
    8988.089     -5.827   0.480  3.23441E-01  4.59533E-01 -1.36093E-01
    8988.241     -5.674   0.520  3.39727E-01  4.77764E-01 -1.38037E-01
    8988.406     -5.510   0.560  3.54102E-01  4.95212E-01 -1.41110E-01
    8988.583     -5.333   0.600  3.65788E-01  5.11892E-01 -1.46104E-01
    8988.772     -5.144   0.640  3.74753E-01  5.27823E-01 -1.53070E-01
    8988.973     -4.943   0.680  3.82176E-01  5.43124E-01 -1.60947E-01
    8989.186     -4.730   0.720  3.90055E-01  5.57886E-01 -1.67832E-01
    8989.412     -4.504   0.760  4.00361E-01  5.72222E-01 -1.71861E-01
    8989.650     -4.266   0.800  4.14091E-01  5.86215E-01 -1.72124E-01
    8989.899     -4.016   0.840  4.30978E-01  5.99954E-01 -1.68976E-01
    8990.162     -3.754   0.880  4.50354E-01  6.13475E-01 -1.63121E-01
    8990.436     -3.480   0.920  4.73073E-01  6.26865E-01 -1.53792E-01
    8990.722     -3.193   0.960  5.02061E-01  6.40156E-01 -1.38095E-01
    8991.021     -2.895   1.000  5.40386E-01  6.53368E-01 -1.12982E-01
    8991.332     -2.584   1.040  5.86893E-01  6.66535E-01 -7.96419E-02
    8991.655     -2.261   1.080  6.33200E-01  6.79643E-01 -4.64428E-02
    8991.990     -1.925   1.120  6.69373E-01  6.92731E-01 -2.33579E-02
    8992.338     -1.578   1.160  6.92794E-01  7.05772E-01 -1.29778E-02
    8992.698     -1.218   1.200  7.09500E-01  7.18753E-01 -9.25355E-03
    8993.069     -0.846   1.240  7.28093E-01  7.31702E-01 -3.60847E-03
    8993.453     -0.462   1.280  7.51575E-01  7.44559E-01  7.01659E-03
    8993.850     -0.066   1.320  7.78554E-01  7.57342E-01  2.12117E-02
    8994.258      0.342   1.360  8.09745E-01  7.70029E-01  3.97159E-02
    8994.679      0.763   1.400  8.46034E-01  7.82576E-01  6.34576E-02
    8995.112      1.196   1.440  8.82534E-01  7.94975E-01  8.75589E-02
    8995.557      1.641   1.480  9.13216E-01  8.07199E-01  1.06017E-01
    8996.014      2.098   1.520  9.41582E-01  8.19241E-01  1.22341E-01
    8996.483      2.567   1.560  9.78425E-01  8.31051E-01  1.47374E-01
    8996.965      3.049   1.600  1.02794E+00  8.42642E-01  1.85295E-01
    8997.458      3.543   1.640  1.07911E+00  8.53963E-01  2.25145E-01
    8997.964      4.049   1.680  1.12087E+00  8.64986E-01  2.55879E-01
    8998.483      4.567   1.720  1.15366E+00  8.75724E-01  2.77939E-01
    8999.013      5.097   1.760  1.17444E+00  8.86125E-01  2.88312E-01
    8999.556      5.640   1.800  1.17534E+00  8.96205E-01  2.79139E-01
    9000.110      6.194   1.840  1.15503E+00  9.05894E-01  2.49134E-01
    9000.677      6.761   1.880  1.12601E+00  9.15227E-01  2.10787E-01
    9001.256      7.340   1.920  1.10102E+00  9.24176E-01  1.76843E-01
    9001.848      7.932   1.960  1.08321E+00  9.32719E-01  1.50491E-01
    9002.451      8.535   2.000  1.06063E+00  9.40849E-01  1.19782E-01
    9003.067      9.151   2.040  1.01479E+00  9.48563E-01  6.62243E-02
    9003.695      9.779   2.080  9.54361E-01  9.55860E-01 -1.49908E-03
    9004.335     10.419   2.120  9.06083E-01  9.62718E-01 -5.66348E-02
    9004.987     11.071   2.160  8.85797E-01  9.69155E-01 -8.33578E-02
    9005.651     11.736   2.200  8.95621E-01  9.75151E-01 -7.95298E-02
    9006.328     12.412   2.240  9.26396E-01  9.80728E-01 -5.43324E-02
    9007.017     13.101   2.280  9.61693E-01  9.85869E-01 -2.41757E-02
    9007.718     13.802   2.320  9.89833E-01  9.90595E-01 -7.61724E-04
    9008.431     14.515   2.360  1.00634E+00  9.94910E-01  1.14353E-02
    9009.157     15.241   2.400  1.01096E+00  9.98798E-01  1.21624E-02
    9009.894     15.978   2.440  1.00838E+00  1.00230E+00  6.07739E-03
    9010.644     16.728   2.480  1.00591E+00  1.00543E+00  4.74272E-04
    9011.406     17.490   2.520  1.00668E+00  1.00817E+00 -1.49295E-03
    9012.180     18.264   2.560  1.00973E+00  1.01054E+00 -8.13224E-04
    9012.967     19.051   2.600  1.01452E+00  1.01256E+00  1.96550E-03
    9013.765     19.849   2.640  1.02173E+00  1.01424E+00  7.48677E-03
    9014.576     20.660   2.680  1.03147E+00  1.01560E+00  1.58674E-02
    9015.399     21.483   2.720  1.04163E+00  1.01667E+00  2.49583E-02
    9016.234     22.318   2.760  1.04881E+00  1.01743E+00  3.13781E-02
    9017.081     23.166   2.800  1.04791E+00  1.01793E+00  2.99723E-02
    9017.941     24.025   2.840  1.03315E+00  1.01818E+00  1.49638E-02
    9018.813     24.897   2.880  1.00651E+00  1.01818E+00 -1.16701E-02
    9019.697     25.781   2.920  9.77945E-01  1.01795E+00 -4.00070E-02
    9020.593     26.677   2.960  9.60185E-01  1.01752E+00 -5.73374E-02
    9021.501     27.585   3.000  9.54444E-01  1.01690E+00 -6.24515E-02
    9022.422     28.506   3.040  9.54537E-01  1.01610E+00 -6.15649E-02
    9023.354     29.438   3.080  9.57510E-01  1.01515E+00 -5.76375E-02
    9024.299     30.383   3.120  9.62235E-01  1.01406E+00 -5.18251E-02
    9025.256     31.340   3.160  9.68338E-01  1.01283E+00 -4.44895E-02
    9026.225     32.310   3.200  9.75456E-01  1.01150E+00 -3.60423E-02
    9027.207     33.291   3.240  9.82886E-01  1.01006E+00 -2.71723E-02
    9028.200     34.285   3.280  9.89880E-01  1.00856E+00 -1.86757E-02
    9029.206     35.291   3.320  9.95677E-01  1.00696E+00 -1.12782E-02
    9030.224     36.309   3.360  9.99939E-01  1.00531E+00 -5.36745E-03
    9031.255     37.339   3.400  1.00276E+00  1.00363E+00 -8.72433E-04
    9032.297     38.381   3.440  1.00431E+00  1.00190E+00  2.40406E-03
    9033.352     39.436   3.480  1.00475E+00  1.00016E+00  4.59330E-03
    9034.418     40.503   3.520  1.00407E+00  9.98390E-01  5.68351E-03
    9035.497     41.582   3.560  1.00222E+00  9.96638E-01  5.58386E-03
    9036.589     42.673   3.600  9.99213E-01  9.94889E-01  4.32346E-03
    9037.692     43.776   3.640  9.95339E-01  9.93147E-01  2.19273E-03
    9038.807     44.892   3.680  9.91208E-01  9.91436E-01 -2.28619E-04
    9039.935     46.019   3.720  9.87453E-01  9.89762E-01 -2.30945E-03
    9041.075     47.159   3.760  9.84384E-01  9.88127E-01 -3.74288E-03
    9042.227     48.312   3.800  9.81838E-01  9.86533E-01 -4.69580E-03
    9043.392     49.476   3.840  9.79269E-01  9.84984E-01 -5.71550E-03
    9044.568     50.652   3.880  9.76175E-01  9.83505E-01 -7.32993E-03
    9045.757     51.841   3.920  9.72384E-01  9.82096E-01 -9.71155E-03
    9046.958     53.042   3.960  9.68175E-01  9.80739E-01 -1.25642E-02
    9048.171     54.255   4.000  9.64142E-01  9.79457E-01 -1.53151E-02
    9049.396     55.480   4.040  9.60831E-01  9.78251E-01 -1.74194E-02
    9050.634     56.718   4.080  9.58588E-01  9.77122E-01 -1.85342E-02
    9051.883     57.968   4.120  9.57504E-01  9.76050E-01 -1.85464E-02
    9053.145     59.229   4.160  9.57546E-01  9.75080E-01 -1.75340E-02
    9054.419     60.503   4.200  9.58513E-01  9.74192E-01 -1.56789E-02
    9055.706     61.790   4.240  9.60243E-01  9.73407E-01 -1.31643E-02
    9057.004     63.088   4.280  9.62589E-01  9.72682E-01 -1.00934E-02
    9058.315     64.399   4.320  9.65576E-01  9.72038E-01 -6.46194E-03
    9059.637     65.722   4.360  9.69292E-01  9.71499E-01 -2.20653E-03
    9060.972     67.057   4.400  9.73732E-01  9.71042E-01  2.69006E-03
    9062.320     68.404   4.440  9.78783E-01  9.70665E-01  8.11828E-03
    9063.679     69.763   4.480  9.84194E-01  9.70368E-01  1.38252E-02
    9065.051     71.135   4.520  9.89610E-01  9.70151E-01  1.94591E-02
    9066.434     72.519   4.560  9.94694E-01  9.70014E-01  2.46802E-02
    9067.830     73.915   4.600  9.99254E-01  9.69954E-01  2.93002E-02
    9069.239     75.323   4.640  1.00329E+00  9.69970E-01  3.33205E-02
    9070.659     76.743   4.680  1.00691E+00  9.70042E-01  3.68703E-02
    9072.092     78.176   4.720  1.01027E+00  9.70209E-01  4.00574E-02
    9073.536     79.620   4.760  1.01318E+00  9.70429E-01  4.27500E-02
    9074.993     81.077   4.800  1.01523E+00  9.70719E-01  4.45154E-02
    9076.462     82.547   4.840  1.01580E+00  9.71057E-01  4.47399E-02
    9077.944     84.028   4.880  1.01426E+00  9.71441E-01  4.28144E-02
    9079.437     85.521   4.920  1.01028E+00  9.71891E-01  3.83845E-02
    9080.943     87.027   4.960  1.00386E+00  9.72384E-01  3.14774E-02
    9082.461     88.545   5.000  9.95418E-01  9.72918E-01  2.25005E-02
    9083.991     90.075   5.040  9.85726E-01  9.73491E-01  1.22353E-02
    9085.533     91.617   5.080  9.75772E-01  9.74101E-01  1.67038E-03
    9087.088     93.172   5.120  9.66566E-01  9.74744E-01 -8.17878E-03
    9088.654     94.738   5.160  9.58936E-01  9.75397E-01 -1.64609E-02
    9090.233     96.317   5.200  9.53473E-01  9.76057E-01 -2.25848E-02
    9091.824     97.908   5.240  9.50476E-01  9.76745E-01 -2.62689E-02
    9093.427     99.512   5.280  9.49879E-01  9.77438E-01 -2.75582E-02
    9095.043    101.127   5.320  9.51351E-01  9.78154E-01 -2.68035E-02
    9096.670    102.755   5.360  9.54300E-01  9.78848E-01 -2.45477E-02
    9098.310    104.395   5.400  9.58154E-01  9.79537E-01 -2.13825E-02
    9099.962    106.047   5.440  9.62344E-01  9.80220E-01 -1.78760E-02
    9101.627    107.711   5.480  9.66339E-01  9.80873E-01 -1.45332E-02
    9103.303    109.387   5.520  9.69772E-01  9.81515E-01 -1.17427E-02
    9104.991    111.076   5.560  9.72391E-01  9.82125E-01 -9.73343E-03
    9106.692    112.776   5.600  9.74117E-01  9.82699E-01 -8.58211E-03
    9108.405    114.489   5.640  9.74995E-01  9.83258E-01 -8.26291E-03
    9110.130    116.215   5.680  9.75132E-01  9.83778E-01 -8.64667E-03
    9111.868    117.952   5.720  9.74700E-01  9.84236E-01 -9.53592E-03
    9113.617    119.701   5.760  9.73959E-01  9.84673E-01 -1.07137E-02
    9115.379    121.463   5.800  9.73019E-01  9.85045E-01 -1.20252E-02
    9117.153    123.237   5.840  9.71988E-01  9.85371E-01 -1.33834E-02
    9118.939    125.023   5.880  9.70960E-01  9.85653E-01 -1.46928E-02
    9120.737    126.822   5.920  9.70138E-01  9.85886E-01 -1.57484E-02
    9122.548    128.632   5.960  9.69828E-01  9.86037E-01 -1.62097E-02
    9124.371    130.455   6.000  9.70423E-01  9.86078E-01 -1.56549E-02
