# # comment:                                                     FEFF 9.9.1  
# # Source:
# # Structure
# # Reduced
# # space
# # abc:
# # angles:
# # sites:
# # POT  SCF 100  7.0000   0, screened core-hole, AFOLP (folp(0)= 1.150)
# # Abs   Z=29 Rmt= 1.279 Rnm= 1.348 K  shell
# # Pot 1 Z=29 Rmt= 1.209 Rnm= 1.355
# # Pot 2 Z= 8 Rmt= 1.028 Rnm= 1.098
# # Gam_ch=1.729E+00 H-L exch Vi= 0.000E+00 Vr= 0.000E+00
# # Mu=-6.628E+00eV kf=2.054E+00 Vint=-1.551E+01eV Rs_int= 1.765
# FMS rfms= 9.0000
# # PATH  Rmax=-1.000,  Keep_limit= 0.00, Heap_limit 0.00  Pwcrit= 2.50%
#  S02=0.950  Temp=   0.00  Debye_temp=   0.00  Global_sig2= 0.00000
#  Energy zero shift, vr, vi    0.00000E+00   0.00000E+00
#  Curved wave amplitude ratio filter   4.000%
#     file         sig2 tot  cw amp ratio   deg  nlegs   reff  inp sig2
#     0/   0 paths used
#  xsedge+ 50, used to normalize mu           2.4475E-04
#  -----------------------------------------------------------------------
#  omega    e    k    mu    mu0     chi     @#
    8983.741    -10.438  -1.000  4.20966E-02  5.68978E-02 -1.48012E-02
    8984.040    -10.140  -0.960  4.44492E-02  6.11190E-02 -1.66699E-02
    8984.327     -9.853  -0.920  4.69985E-02  6.58164E-02 -1.88179E-02
    8984.601     -9.579  -0.880  4.97687E-02  7.10604E-02 -2.12918E-02
    8984.863     -9.317  -0.840  5.27877E-02  7.69333E-02 -2.41455E-02
    8985.113     -9.067  -0.800  5.60879E-02  8.35303E-02 -2.74423E-02
    8985.351     -8.829  -0.760  5.97059E-02  9.09607E-02 -3.12548E-02
    8985.576     -8.603  -0.720  6.36829E-02  9.93482E-02 -3.56653E-02
    8985.790     -8.390  -0.680  6.80641E-02  1.08829E-01 -4.07650E-02
    8985.991     -8.189  -0.640  7.28965E-02  1.19547E-01 -4.66505E-02
    8986.180     -8.000  -0.600  7.82254E-02  1.31643E-01 -5.34180E-02
    8986.356     -7.823  -0.560  8.40877E-02  1.45239E-01 -6.11515E-02
    8986.521     -7.658  -0.520  9.05012E-02  1.60406E-01 -6.99052E-02
    8986.673     -7.506  -0.480  9.74504E-02  1.77130E-01 -7.96796E-02
    8986.814     -7.366  -0.440  1.04870E-01  1.95263E-01 -9.03928E-02
    8986.942     -7.238  -0.400  1.12632E-01  2.14488E-01 -1.01856E-01
    8987.058     -7.122  -0.360  1.20541E-01  2.34308E-01 -1.13767E-01
    8987.161     -7.018  -0.320  1.28350E-01  2.54075E-01 -1.25724E-01
    8987.253     -6.927  -0.280  1.35791E-01  2.73069E-01 -1.37278E-01
    8987.332     -6.848  -0.240  1.42611E-01  2.90601E-01 -1.47990E-01
    8987.399     -6.781  -0.200  1.48604E-01  3.06093E-01 -1.57488E-01
    8987.454     -6.726  -0.160  1.53626E-01  3.19121E-01 -1.65495E-01
    8987.496     -6.683  -0.120  1.57589E-01  3.29418E-01 -1.71829E-01
    8987.527     -6.653  -0.080  1.60444E-01  3.36835E-01 -1.76390E-01
    8987.551     -6.628   0.000  1.62752E-01  3.42792E-01 -1.80040E-01
    8987.606     -6.573   0.120  1.67897E-01  3.56222E-01 -1.88325E-01
    8987.649     -6.531   0.160  1.71849E-01  3.66650E-01 -1.94801E-01
    8987.704     -6.476   0.200  1.76902E-01  3.79977E-01 -2.03074E-01
    8987.771     -6.409   0.240  1.82942E-01  3.95976E-01 -2.13035E-01
    8987.850     -6.330   0.280  1.89902E-01  4.14344E-01 -2.24441E-01
    8987.941     -6.238   0.320  1.97674E-01  4.34604E-01 -2.36929E-01
    8988.045     -6.134   0.360  2.06098E-01  4.56125E-01 -2.50027E-01
    8988.161     -6.019   0.400  2.15128E-01  4.78299E-01 -2.63171E-01
    8988.289     -5.891   0.440  2.24722E-01  5.00513E-01 -2.75791E-01
    8988.429     -5.750   0.480  2.35054E-01  5.22342E-01 -2.87288E-01
    8988.582     -5.598   0.520  2.46333E-01  5.43463E-01 -2.97130E-01
    8988.746     -5.433   0.560  2.58986E-01  5.63763E-01 -3.04778E-01
    8988.923     -5.257   0.600  2.73553E-01  5.83166E-01 -3.09614E-01
    8989.112     -5.068   0.640  2.90679E-01  6.01753E-01 -3.11074E-01
    8989.313     -4.867   0.680  3.10583E-01  6.19583E-01 -3.09000E-01
    8989.526     -4.653   0.720  3.32487E-01  6.36771E-01 -3.04284E-01
    8989.752     -4.428   0.760  3.54264E-01  6.53391E-01 -2.99128E-01
    8989.990     -4.190   0.800  3.73373E-01  6.69528E-01 -2.96155E-01
    8990.240     -3.940   0.840  3.88456E-01  6.85269E-01 -2.96813E-01
    8990.502     -3.678   0.880  4.00203E-01  7.00629E-01 -3.00427E-01
    8990.776     -3.403   0.920  4.11043E-01  7.15691E-01 -3.04648E-01
    8991.063     -3.117   0.960  4.24307E-01  7.30439E-01 -3.06132E-01
    8991.361     -2.818   1.000  4.43995E-01  7.44911E-01 -3.00916E-01
    8991.672     -2.507   1.040  4.73672E-01  7.59092E-01 -2.85420E-01
    8991.995     -2.184   1.080  5.14349E-01  7.72982E-01 -2.58634E-01
    8992.331     -1.849   1.120  5.62888E-01  7.86597E-01 -2.23708E-01
    8992.678     -1.502   1.160  6.11760E-01  7.99880E-01 -1.88120E-01
    8993.038     -1.142   1.200  6.50616E-01  8.12855E-01 -1.62239E-01
    8993.410     -0.770   1.240  6.71846E-01  8.25463E-01 -1.53617E-01
    8993.794     -0.386   1.280  6.79802E-01  8.37705E-01 -1.57904E-01
    8994.190      0.010   1.320  6.89564E-01  8.49579E-01 -1.60015E-01
    8994.598      0.419   1.360  7.16564E-01  8.61019E-01 -1.44455E-01
    8995.019      0.839   1.400  7.70773E-01  8.72042E-01 -1.01269E-01
    8995.452      1.272   1.440  8.51341E-01  8.82625E-01 -3.12839E-02
    8995.897      1.717   1.480  9.43466E-01  8.92765E-01  5.07009E-02
    8996.354      2.174   1.520  1.02772E+00  9.02418E-01  1.25299E-01
    8996.823      2.644   1.560  1.09167E+00  9.11603E-01  1.80063E-01
    8997.305      3.125   1.600  1.13129E+00  9.20279E-01  2.11014E-01
    8997.799      3.619   1.640  1.15845E+00  9.28489E-01  2.29957E-01
    8998.305      4.125   1.680  1.20141E+00  9.36210E-01  2.65200E-01
    8998.823      4.643   1.720  1.28020E+00  9.43428E-01  3.36772E-01
    8999.353      5.174   1.760  1.37687E+00  9.50165E-01  4.26702E-01
    8999.896      5.716   1.800  1.44386E+00  9.56425E-01  4.87438E-01
    9000.450      6.271   1.840  1.46061E+00  9.62216E-01  4.98390E-01
    9001.017      6.838   1.880  1.43689E+00  9.67563E-01  4.69328E-01
    9001.596      7.417   1.920  1.37643E+00  9.72454E-01  4.03980E-01
    9002.188      8.008   1.960  1.29358E+00  9.76895E-01  3.16683E-01
    9002.791      8.612   2.000  1.21894E+00  9.80937E-01  2.38004E-01
    9003.407      9.227   2.040  1.17178E+00  9.84589E-01  1.87195E-01
    9004.035      9.855   2.080  1.14640E+00  9.87839E-01  1.58560E-01
    9004.675     10.495   2.120  1.12115E+00  9.90738E-01  1.30410E-01
    9005.327     11.148   2.160  1.08802E+00  9.93276E-01  9.47426E-02
    9005.992     11.812   2.200  1.06597E+00  9.95505E-01  7.04607E-02
    9006.668     12.489   2.240  1.06685E+00  9.97436E-01  6.94116E-02
    9007.357     13.178   2.280  1.08083E+00  9.99076E-01  8.17563E-02
    9008.058     13.879   2.320  1.09011E+00  1.00044E+00  8.96717E-02
    9008.771     14.592   2.360  1.08313E+00  1.00157E+00  8.15591E-02
    9009.497     15.317   2.400  1.06995E+00  1.00246E+00  6.74851E-02
    9010.234     16.055   2.440  1.06499E+00  1.00317E+00  6.18247E-02
    9010.984     16.805   2.480  1.06281E+00  1.00368E+00  5.91340E-02
    9011.746     17.567   2.520  1.05398E+00  1.00401E+00  4.99663E-02
    9012.520     18.341   2.560  1.03887E+00  1.00419E+00  3.46753E-02
    9013.307     19.127   2.600  1.01921E+00  1.00424E+00  1.49702E-02
    9014.105     19.926   2.640  9.96282E-01  1.00418E+00 -7.89778E-03
    9014.916     20.737   2.680  9.71195E-01  1.00401E+00 -3.28118E-02
    9015.739     21.560   2.720  9.44826E-01  1.00373E+00 -5.88995E-02
    9016.574     22.395   2.760  9.18616E-01  1.00338E+00 -8.47671E-02
    9017.422     23.242   2.800  8.94641E-01  1.00299E+00 -1.08345E-01
    9018.281     24.102   2.840  8.75440E-01  1.00252E+00 -1.27080E-01
    9019.153     24.973   2.880  8.62428E-01  1.00201E+00 -1.39584E-01
    9020.037     25.857   2.920  8.55311E-01  1.00149E+00 -1.46176E-01
    9020.933     26.753   2.960  8.53107E-01  1.00093E+00 -1.47824E-01
    9021.841     27.662   3.000  8.54418E-01  1.00037E+00 -1.45950E-01
    9022.762     28.582   3.040  8.57789E-01  9.99803E-01 -1.42013E-01
    9023.694     29.515   3.080  8.62066E-01  9.99261E-01 -1.37195E-01
    9024.639     30.460   3.120  8.66146E-01  9.98703E-01 -1.32556E-01
    9025.596     31.417   3.160  8.69169E-01  9.98193E-01 -1.29024E-01
    9026.566     32.386   3.200  8.71159E-01  9.97673E-01 -1.26513E-01
    9027.547     33.367   3.240  8.73134E-01  9.97207E-01 -1.24073E-01
    9028.541     34.361   3.280  8.76331E-01  9.96758E-01 -1.20427E-01
    9029.546     35.367   3.320  8.81923E-01  9.96368E-01 -1.14445E-01
    9030.564     36.385   3.360  8.90494E-01  9.95997E-01 -1.05503E-01
    9031.595     37.415   3.400  9.02091E-01  9.95687E-01 -9.35962E-02
    9032.637     38.458   3.440  9.15899E-01  9.95420E-01 -7.95207E-02
    9033.692     39.512   3.480  9.30835E-01  9.95174E-01 -6.43394E-02
    9034.759     40.579   3.520  9.45716E-01  9.95016E-01 -4.92999E-02
    9035.838     41.658   3.560  9.59358E-01  9.94881E-01 -3.55231E-02
    9036.929     42.749   3.600  9.71242E-01  9.94811E-01 -2.35695E-02
    9038.032     43.853   3.640  9.81635E-01  9.94786E-01 -1.31510E-02
    9039.148     44.968   3.680  9.91407E-01  9.94807E-01 -3.39943E-03
    9040.275     46.096   3.720  1.00152E+00  9.94894E-01  6.62885E-03
    9041.415     47.236   3.760  1.01257E+00  9.95024E-01  1.75511E-02
    9042.567     48.388   3.800  1.02461E+00  9.95196E-01  2.94127E-02
    9043.732     49.552   3.840  1.03722E+00  9.95413E-01  4.18115E-02
    9044.908     50.729   3.880  1.04990E+00  9.95671E-01  5.42247E-02
    9046.097     51.917   3.920  1.06219E+00  9.95991E-01  6.61967E-02
    9047.298     53.118   3.960  1.07389E+00  9.96332E-01  7.75600E-02
    9048.511     54.332   4.000  1.08536E+00  9.96731E-01  8.86290E-02
    9049.736     55.557   4.040  1.09700E+00  9.97147E-01  9.98552E-02
    9050.974     56.794   4.080  1.10889E+00  9.97599E-01  1.11291E-01
    9052.223     58.044   4.120  1.12035E+00  9.98087E-01  1.22266E-01
    9053.485     59.306   4.160  1.13025E+00  9.98610E-01  1.31637E-01
    9054.759     60.580   4.200  1.13726E+00  9.99141E-01  1.38119E-01
    9056.046     61.866   4.240  1.14042E+00  9.99702E-01  1.40713E-01
    9057.344     63.165   4.280  1.13911E+00  1.00027E+00  1.38839E-01
    9058.655     64.475   4.320  1.13306E+00  1.00084E+00  1.32219E-01
    9059.978     65.798   4.360  1.12231E+00  1.00144E+00  1.20864E-01
    9061.313     67.133   4.400  1.10725E+00  1.00205E+00  1.05204E-01
    9062.660     68.480   4.440  1.08879E+00  1.00265E+00  8.61383E-02
    9064.019     69.840   4.480  1.06815E+00  1.00325E+00  6.49004E-02
    9065.391     71.211   4.520  1.04681E+00  1.00385E+00  4.29628E-02
    9066.775     72.595   4.560  1.02592E+00  1.00445E+00  2.14671E-02
    9068.171     73.991   4.600  1.00581E+00  1.00504E+00  7.64131E-04
    9069.579     75.399   4.640  9.86173E-01  1.00560E+00 -1.94300E-02
    9070.999     76.820   4.680  9.66738E-01  1.00615E+00 -3.94168E-02
    9072.432     78.252   4.720  9.47750E-01  1.00668E+00 -5.89250E-02
    9073.876     79.697   4.760  9.30214E-01  1.00719E+00 -7.69708E-02
    9075.333     81.154   4.800  9.15410E-01  1.00766E+00 -9.22512E-02
    9076.802     82.623   4.840  9.04548E-01  1.00812E+00 -1.03576E-01
    9078.284     84.104   4.880  8.98514E-01  1.00855E+00 -1.10036E-01
    9079.777     85.598   4.920  8.97826E-01  1.00894E+00 -1.11113E-01
    9081.283     87.103   4.960  9.02565E-01  1.00929E+00 -1.06722E-01
    9082.801     88.621   5.000  9.12202E-01  1.00960E+00 -9.73943E-02
    9084.331     90.151   5.040  9.25231E-01  1.00989E+00 -8.46562E-02
    9085.873     91.694   5.080  9.39041E-01  1.01012E+00 -7.10752E-02
    9087.428     93.248   5.120  9.51018E-01  1.01033E+00 -5.93082E-02
    9088.994     94.815   5.160  9.59953E-01  1.01047E+00 -5.05203E-02
    9090.573     96.394   5.200  9.66735E-01  1.01060E+00 -4.38639E-02
    9092.164     97.985   5.240  9.72867E-01  1.01066E+00 -3.77951E-02
    9093.768     99.588   5.280  9.79415E-01  1.01070E+00 -3.12885E-02
    9095.383    101.203   5.320  9.86741E-01  1.01068E+00 -2.39395E-02
    9097.011    102.831   5.360  9.95354E-01  1.01062E+00 -1.52621E-02
    9098.650    104.471   5.400  1.00592E+00  1.01053E+00 -4.61240E-03
    9100.302    106.123   5.440  1.01865E+00  1.01038E+00  8.27194E-03
    9101.967    107.787   5.480  1.03293E+00  1.01019E+00  2.27413E-02
    9103.643    109.463   5.520  1.04721E+00  1.00996E+00  3.72543E-02
    9105.332    111.152   5.560  1.05988E+00  1.00971E+00  5.01669E-02
    9107.032    112.853   5.600  1.06998E+00  1.00940E+00  6.05775E-02
    9108.745    114.566   5.640  1.07717E+00  1.00908E+00  6.80958E-02
    9110.471    116.291   5.680  1.08053E+00  1.00869E+00  7.18461E-02
    9112.208    118.028   5.720  1.07869E+00  1.00828E+00  7.04073E-02
    9113.957    119.778   5.760  1.07094E+00  1.00785E+00  6.30904E-02
    9115.719    121.540   5.800  1.05808E+00  1.00737E+00  5.07034E-02
    9117.493    123.314   5.840  1.04177E+00  1.00689E+00  3.48808E-02
    9119.279    125.100   5.880  1.02351E+00  1.00638E+00  1.71285E-02
    9121.078    126.898   5.920  1.00442E+00  1.00584E+00 -1.42589E-03
    9122.888    128.708   5.960  9.85897E-01  1.00530E+00 -1.94075E-02
    9124.711    130.531   6.000  9.70004E-01  1.00472E+00 -3.47153E-02
