# # comment:                                                     FEFF 9.9.1  
# # Source:
# # Structure
# # Reduced
# # space
# # abc:
# # angles:
# # sites:
# # POT  SCF 100  7.0000   0, screened core-hole, AFOLP (folp(0)= 1.150)
# # Abs   Z=29 Rmt= 1.190 Rnm= 1.297 K  shell
# # Pot 1 Z= 3 Rmt= 1.242 Rnm= 1.302
# # Pot 2 Z=29 Rmt= 1.189 Rnm= 1.297
# # Pot 3 Z=14 Rmt= 0.988 Rnm= 1.211
# # Pot 4 Z= 8 Rmt= 1.022 Rnm= 1.120
# # Gam_ch=1.729E+00 H-L exch Vi= 0.000E+00 Vr= 0.000E+00
# # Mu=-1.032E+01eV kf=2.058E+00 Vint=-1.793E+01eV Rs_int= 1.762
# FMS rfms= 9.0000
# # PATH  Rmax=-1.000,  Keep_limit= 0.00, Heap_limit 0.00  Pwcrit= 2.50%
#  S02=0.950  Temp=   0.00  Debye_temp=   0.00  Global_sig2= 0.00000
#  Energy zero shift, vr, vi    0.00000E+00   0.00000E+00
#  Curved wave amplitude ratio filter   4.000%
#     file         sig2 tot  cw amp ratio   deg  nlegs   reff  inp sig2
#     0/   0 paths used
#  xsedge+ 50, used to normalize mu           2.4933E-04
#  -----------------------------------------------------------------------
#  omega    e    k    mu    mu0     chi     @#
    8984.481    -14.134  -1.000  3.14435E-02  4.64166E-02 -1.49731E-02
    8984.780    -13.835  -0.960  3.29879E-02  4.95934E-02 -1.66054E-02
    8985.067    -13.549  -0.920  3.46522E-02  5.31082E-02 -1.84560E-02
    8985.341    -13.274  -0.880  3.64515E-02  5.70097E-02 -2.05582E-02
    8985.603    -13.012  -0.840  3.84037E-02  6.13542E-02 -2.29506E-02
    8985.853    -12.762  -0.800  4.05298E-02  6.62071E-02 -2.56772E-02
    8986.091    -12.525  -0.760  4.28546E-02  7.16429E-02 -2.87883E-02
    8986.316    -12.299  -0.720  4.54061E-02  7.77459E-02 -3.23398E-02
    8986.530    -12.086  -0.680  4.82160E-02  8.46088E-02 -3.63928E-02
    8986.731    -11.884  -0.640  5.13179E-02  9.23289E-02 -4.10110E-02
    8986.920    -11.695  -0.600  5.47448E-02  1.01002E-01 -4.62568E-02
    8987.097    -11.519  -0.560  5.85233E-02  1.10708E-01 -5.21846E-02
    8987.261    -11.354  -0.520  6.26650E-02  1.21495E-01 -5.88299E-02
    8987.414    -11.202  -0.480  6.71543E-02  1.33350E-01 -6.61954E-02
    8987.554    -11.062  -0.440  7.19345E-02  1.46169E-01 -7.42342E-02
    8987.682    -10.933  -0.400  7.68979E-02  1.59732E-01 -8.28344E-02
    8987.798    -10.818  -0.360  8.18860E-02  1.73696E-01 -9.18101E-02
    8987.901    -10.714  -0.320  8.67071E-02  1.87613E-01 -1.00906E-01
    8987.993    -10.623  -0.280  9.11690E-02  2.00985E-01 -1.09816E-01
    8988.072    -10.543  -0.240  9.51145E-02  2.13333E-01 -1.18219E-01
    8988.139    -10.476  -0.200  9.84445E-02  2.24254E-01 -1.25809E-01
    8988.194    -10.421  -0.160  1.01121E-01  2.33448E-01 -1.32328E-01
    8988.237    -10.379  -0.120  1.03150E-01  2.40724E-01 -1.37573E-01
    8988.267    -10.348  -0.080  1.04562E-01  2.45970E-01 -1.41408E-01
    8988.291    -10.324   0.000  1.05660E-01  2.50188E-01 -1.44528E-01
    8988.346    -10.269   0.120  1.08165E-01  2.59724E-01 -1.51559E-01
    8988.389    -10.226   0.160  1.09952E-01  2.67120E-01 -1.57168E-01
    8988.444    -10.171   0.200  1.12141E-01  2.76617E-01 -1.64476E-01
    8988.511    -10.104   0.240  1.14557E-01  2.88044E-01 -1.73488E-01
    8988.590    -10.025   0.280  1.17086E-01  3.01233E-01 -1.84147E-01
    8988.682     -9.934   0.320  1.19645E-01  3.15860E-01 -1.96215E-01
    8988.785     -9.830   0.360  1.22165E-01  3.31523E-01 -2.09358E-01
    8988.901     -9.714   0.400  1.24823E-01  3.47854E-01 -2.23031E-01
    8989.029     -9.586   0.440  1.27846E-01  3.64442E-01 -2.36596E-01
    8989.169     -9.446   0.480  1.31645E-01  3.81017E-01 -2.49372E-01
    8989.322     -9.294   0.520  1.36671E-01  3.97355E-01 -2.60683E-01
    8989.486     -9.129   0.560  1.43483E-01  4.13395E-01 -2.69912E-01
    8989.663     -8.952   0.600  1.52612E-01  4.29131E-01 -2.76519E-01
    8989.852     -8.763   0.640  1.64657E-01  4.44586E-01 -2.79928E-01
    8990.053     -8.562   0.680  1.80331E-01  4.59808E-01 -2.79476E-01
    8990.267     -8.349   0.720  2.00278E-01  4.74857E-01 -2.74579E-01
    8990.492     -8.123   0.760  2.24450E-01  4.89850E-01 -2.65400E-01
    8990.730     -7.886   0.800  2.50932E-01  5.04777E-01 -2.53845E-01
    8990.980     -7.636   0.840  2.75830E-01  5.19739E-01 -2.43908E-01
    8991.242     -7.373   0.880  2.95487E-01  5.34741E-01 -2.39254E-01
    8991.516     -7.099   0.920  3.10133E-01  5.49826E-01 -2.39693E-01
    8991.803     -6.813   0.960  3.23062E-01  5.64962E-01 -2.41900E-01
    8992.101     -6.514   1.000  3.37054E-01  5.80210E-01 -2.43156E-01
    8992.412     -6.203   1.040  3.52477E-01  5.95523E-01 -2.43047E-01
    8992.735     -5.880   1.080  3.68722E-01  6.10912E-01 -2.42190E-01
    8993.071     -5.545   1.120  3.86135E-01  6.26336E-01 -2.40201E-01
    8993.418     -5.197   1.160  4.04976E-01  6.41796E-01 -2.36820E-01
    8993.778     -4.838   1.200  4.23406E-01  6.57267E-01 -2.33861E-01
    8994.150     -4.466   1.240  4.36500E-01  6.72699E-01 -2.36199E-01
    8994.534     -4.082   1.280  4.39570E-01  6.88063E-01 -2.48494E-01
    8994.930     -3.685   1.320  4.36586E-01  7.03348E-01 -2.66762E-01
    8995.338     -3.277   1.360  4.38625E-01  7.18480E-01 -2.79855E-01
    8995.759     -2.856   1.400  4.54939E-01  7.33466E-01 -2.78527E-01
    8996.192     -2.424   1.440  4.89313E-01  7.48249E-01 -2.58937E-01
    8996.637     -1.979   1.480  5.40795E-01  7.62796E-01 -2.22001E-01
    8997.094     -1.521   1.520  6.05259E-01  7.77074E-01 -1.71815E-01
    8997.563     -1.052   1.560  6.76522E-01  7.91045E-01 -1.14523E-01
    8998.045     -0.570   1.600  7.42743E-01  8.04697E-01 -6.19537E-02
    8998.539     -0.077   1.640  7.84869E-01  8.17977E-01 -3.31075E-02
    8999.045      0.429   1.680  7.96494E-01  8.30873E-01 -3.43792E-02
    8999.563      0.948   1.720  7.95962E-01  8.43354E-01 -4.73919E-02
    9000.093      1.478   1.760  8.02089E-01  8.55409E-01 -5.33200E-02
    9000.636      2.020   1.800  8.16395E-01  8.67009E-01 -5.06139E-02
    9001.191      2.575   1.840  8.32363E-01  8.78129E-01 -4.57659E-02
    9001.757      3.142   1.880  8.51469E-01  8.88782E-01 -3.73134E-02
    9002.337      3.721   1.920  8.80566E-01  8.98943E-01 -1.83768E-02
    9002.928      4.313   1.960  9.21184E-01  9.08609E-01  1.25754E-02
    9003.531      4.916   2.000  9.68081E-01  9.17757E-01  5.03242E-02
    9004.147      5.532   2.040  1.01332E+00  9.26406E-01  8.69170E-02
    9004.775      6.160   2.080  1.05070E+00  9.34537E-01  1.16163E-01
    9005.415      6.800   2.120  1.08206E+00  9.42171E-01  1.39889E-01
    9006.067      7.452   2.160  1.11315E+00  9.49311E-01  1.63840E-01
    9006.732      8.116   2.200  1.14294E+00  9.55940E-01  1.87004E-01
    9007.408      8.793   2.240  1.16464E+00  9.62105E-01  2.02536E-01
    9008.097      9.482   2.280  1.17779E+00  9.67789E-01  2.09996E-01
    9008.798     10.183   2.320  1.19020E+00  9.72999E-01  2.17202E-01
    9009.512     10.896   2.360  1.20802E+00  9.77782E-01  2.30238E-01
    9010.237     11.622   2.400  1.22829E+00  9.82126E-01  2.46164E-01
    9010.975     12.359   2.440  1.24185E+00  9.86037E-01  2.55810E-01
    9011.724     13.109   2.480  1.23909E+00  9.89564E-01  2.49526E-01
    9012.486     13.871   2.520  1.22575E+00  9.92696E-01  2.33052E-01
    9013.261     14.645   2.560  1.20599E+00  9.95462E-01  2.10530E-01
    9014.047     15.432   2.600  1.17979E+00  9.97871E-01  1.81917E-01
    9014.846     16.230   2.640  1.14845E+00  9.99953E-01  1.48495E-01
    9015.656     17.041   2.680  1.11401E+00  1.00174E+00  1.12274E-01
    9016.479     17.864   2.720  1.07957E+00  1.00321E+00  7.63550E-02
    9017.314     18.699   2.760  1.04806E+00  1.00443E+00  4.36290E-02
    9018.162     19.546   2.800  1.02096E+00  1.00537E+00  1.55899E-02
    9019.021     20.406   2.840  9.99275E-01  1.00608E+00 -6.80171E-03
    9019.893     21.278   2.880  9.82637E-01  1.00657E+00 -2.39321E-02
    9020.777     22.162   2.920  9.69434E-01  1.00686E+00 -3.74228E-02
    9021.673     23.058   2.960  9.58587E-01  1.00695E+00 -4.83606E-02
    9022.581     23.966   3.000  9.49365E-01  1.00687E+00 -5.75074E-02
    9023.502     24.886   3.040  9.41113E-01  1.00664E+00 -6.55240E-02
    9024.434     25.819   3.080  9.33658E-01  1.00627E+00 -7.26123E-02
    9025.379     26.764   3.120  9.27308E-01  1.00576E+00 -7.84517E-02
    9026.336     27.721   3.160  9.22088E-01  1.00515E+00 -8.30626E-02
    9027.306     28.690   3.200  9.17769E-01  1.00445E+00 -8.66838E-02
    9028.287     29.672   3.240  9.14084E-01  1.00365E+00 -8.95672E-02
    9029.281     30.665   3.280  9.10848E-01  1.00279E+00 -9.19428E-02
    9030.287     31.671   3.320  9.07833E-01  1.00186E+00 -9.40238E-02
    9031.305     32.689   3.360  9.04925E-01  1.00088E+00 -9.59505E-02
    9032.335     33.720   3.400  9.02095E-01  9.99831E-01 -9.77366E-02
    9033.377     34.762   3.440  8.99372E-01  9.98771E-01 -9.93991E-02
    9034.432     35.817   3.480  8.97001E-01  9.97700E-01 -1.00699E-01
    9035.499     36.883   3.520  8.95521E-01  9.96601E-01 -1.01080E-01
    9036.578     37.962   3.560  8.95741E-01  9.95519E-01 -9.97780E-02
    9037.669     39.053   3.600  8.98212E-01  9.94415E-01 -9.62024E-02
    9038.772     40.157   3.640  9.03308E-01  9.93312E-01 -9.00036E-02
    9039.888     41.272   3.680  9.11033E-01  9.92236E-01 -8.12031E-02
    9041.016     42.400   3.720  9.20951E-01  9.91168E-01 -7.02165E-02
    9042.155     43.540   3.760  9.32456E-01  9.90131E-01 -5.76753E-02
    9043.308     44.692   3.800  9.44849E-01  9.89129E-01 -4.42799E-02
    9044.472     45.857   3.840  9.57313E-01  9.88142E-01 -3.08289E-02
    9045.648     47.033   3.880  9.69092E-01  9.87213E-01 -1.81210E-02
    9046.837     48.222   3.920  9.79525E-01  9.86302E-01 -6.77670E-03
    9048.038     49.423   3.960  9.88265E-01  9.85453E-01  2.81152E-03
    9049.251     50.636   4.000  9.95170E-01  9.84647E-01  1.05225E-02
    9050.476     51.861   4.040  1.00032E+00  9.83883E-01  1.64400E-02
    9051.714     53.099   4.080  1.00382E+00  9.83160E-01  2.06562E-02
    9052.964     54.348   4.120  1.00557E+00  9.82483E-01  2.30826E-02
    9054.226     55.610   4.160  1.00552E+00  9.81871E-01  2.36456E-02
    9055.500     56.884   4.200  1.00397E+00  9.81307E-01  2.26645E-02
    9056.786     58.170   4.240  1.00181E+00  9.80809E-01  2.09959E-02
    9058.084     59.469   4.280  1.00017E+00  9.80357E-01  1.98085E-02
    9059.395     60.780   4.320  1.00010E+00  9.79950E-01  2.01497E-02
    9060.718     62.102   4.360  1.00223E+00  9.79609E-01  2.26191E-02
    9062.053     63.437   4.400  1.00647E+00  9.79292E-01  2.71782E-02
    9063.400     64.785   4.440  1.01234E+00  9.79062E-01  3.32789E-02
    9064.759     66.144   4.480  1.01887E+00  9.78857E-01  4.00096E-02
    9066.131     67.516   4.520  1.02499E+00  9.78715E-01  4.62760E-02
    9067.515     68.899   4.560  1.02963E+00  9.78616E-01  5.10168E-02
    9068.911     70.295   4.600  1.03195E+00  9.78559E-01  5.33907E-02
    9070.319     71.704   4.640  1.03150E+00  9.78542E-01  5.29583E-02
    9071.739     73.124   4.680  1.02845E+00  9.78564E-01  4.98874E-02
    9073.172     74.556   4.720  1.02356E+00  9.78625E-01  4.49395E-02
    9074.617     76.001   4.760  1.01780E+00  9.78726E-01  3.90704E-02
    9076.073     77.458   4.800  1.01198E+00  9.78865E-01  3.31152E-02
    9077.543     78.927   4.840  1.00667E+00  9.79040E-01  2.76333E-02
    9079.024     80.409   4.880  1.00221E+00  9.79250E-01  2.29638E-02
    9080.517     81.902   4.920  9.98827E-01  9.79473E-01  1.93541E-02
    9082.023     83.408   4.960  9.96741E-01  9.79725E-01  1.70153E-02
    9083.541     84.926   5.000  9.96078E-01  9.79989E-01  1.60897E-02
    9085.071     86.456   5.040  9.96834E-01  9.80282E-01  1.65518E-02
    9086.613     87.998   5.080  9.98660E-01  9.80604E-01  1.80562E-02
    9088.168     89.553   5.120  1.00086E+00  9.80911E-01  1.99510E-02
    9089.735     91.119   5.160  1.00265E+00  9.81244E-01  2.14080E-02
    9091.313     92.698   5.200  1.00322E+00  9.81603E-01  2.16144E-02
    9092.904     94.289   5.240  1.00189E+00  9.81943E-01  1.99491E-02
    9094.508     95.892   5.280  9.98447E-01  9.82303E-01  1.61441E-02
    9096.123     97.508   5.320  9.93086E-01  9.82640E-01  1.04465E-02
    9097.751     99.135   5.360  9.86559E-01  9.82973E-01  3.58650E-03
    9099.391    100.775   5.400  9.79854E-01  9.83304E-01 -3.44916E-03
    9101.043    102.427   5.440  9.73876E-01  9.83631E-01 -9.75524E-03
    9102.707    104.091   5.480  9.69184E-01  9.83953E-01 -1.47691E-02
    9104.383    105.768   5.520  9.65900E-01  9.84247E-01 -1.83467E-02
    9106.072    107.456   5.560  9.63867E-01  9.84535E-01 -2.06678E-02
    9107.773    109.157   5.600  9.62773E-01  9.84814E-01 -2.20415E-02
    9109.486    110.870   5.640  9.62318E-01  9.85061E-01 -2.27431E-02
    9111.211    112.595   5.680  9.62300E-01  9.85274E-01 -2.29742E-02
    9112.948    114.333   5.720  9.62512E-01  9.85476E-01 -2.29641E-02
    9114.698    116.082   5.760  9.62638E-01  9.85645E-01 -2.30075E-02
    9116.459    117.844   5.800  9.62423E-01  9.85806E-01 -2.33824E-02
    9118.233    119.618   5.840  9.61730E-01  9.85930E-01 -2.41995E-02
    9120.019    121.404   5.880  9.60652E-01  9.86016E-01 -2.53635E-02
    9121.818    123.202   5.920  9.59429E-01  9.86064E-01 -2.66354E-02
    9123.628    125.013   5.960  9.58400E-01  9.86071E-01 -2.76714E-02
    9125.451    126.836   6.000  9.57974E-01  9.86053E-01 -2.80797E-02
