# # comment:                                                     FEFF 9.9.1  
# # Source:
# # Structure
# # Reduced
# # space
# # abc:
# # angles:109.500374
# # sites:
# # POT  SCF 100  7.0000   0, screened core-hole, AFOLP (folp(0)= 1.150)
# # Abs   Z=29 Rmt= 1.316 Rnm= 1.382 K  shell
# # Pot 1 Z=20 Rmt= 1.749 Rnm= 1.784
# # Pot 2 Z=29 Rmt= 1.340 Rnm= 1.403
# # Pot 3 Z=74 Rmt= 1.387 Rnm= 1.503
# # Pot 4 Z= 8 Rmt= 1.007 Rnm= 1.081
# # Gam_ch=1.729E+00 H-L exch Vi= 0.000E+00 Vr= 0.000E+00
# # Mu=-6.672E+00eV kf=2.191E+00 Vint=-1.659E+01eV Rs_int= 1.655
# FMS rfms= 9.0000
# # PATH  Rmax=-1.000,  Keep_limit= 0.00, Heap_limit 0.00  Pwcrit= 2.50%
#  S02=0.950  Temp=   0.00  Debye_temp=   0.00  Global_sig2= 0.00000
#  Energy zero shift, vr, vi    0.00000E+00   0.00000E+00
#  Curved wave amplitude ratio filter   4.000%
#     file         sig2 tot  cw amp ratio   deg  nlegs   reff  inp sig2
#     0/   0 paths used
#  xsedge+ 50, used to normalize mu           2.4569E-04
#  -----------------------------------------------------------------------
#  omega    e    k    mu    mu0     chi     @#
    8983.703    -10.482  -1.000  5.29625E-02  5.67091E-02 -3.74653E-03
    8984.002    -10.183  -0.960  5.65304E-02  6.09002E-02 -4.36976E-03
    8984.288     -9.896  -0.920  6.04520E-02  6.55635E-02 -5.11149E-03
    8984.563     -9.622  -0.880  6.47731E-02  7.07692E-02 -5.99602E-03
    8984.825     -9.360  -0.840  6.95460E-02  7.65988E-02 -7.05281E-03
    8985.075     -9.110  -0.800  7.48299E-02  8.31472E-02 -8.31726E-03
    8985.313     -8.872  -0.760  8.06914E-02  9.05230E-02 -9.83155E-03
    8985.538     -8.647  -0.720  8.72041E-02  9.88492E-02 -1.16451E-02
    8985.751     -8.433  -0.680  9.44468E-02  1.08261E-01 -1.38144E-02
    8985.953     -8.232  -0.640  1.02501E-01  1.18902E-01 -1.64014E-02
    8986.142     -8.043  -0.600  1.11443E-01  1.30913E-01 -1.94700E-02
    8986.318     -7.866  -0.560  1.21336E-01  1.44414E-01 -2.30786E-02
    8986.483     -7.702  -0.520  1.32209E-01  1.59478E-01 -2.72688E-02
    8986.635     -7.549  -0.480  1.44040E-01  1.76088E-01 -3.20487E-02
    8986.776     -7.409  -0.440  1.56726E-01  1.94100E-01 -3.73742E-02
    8986.904     -7.281  -0.400  1.70065E-01  2.13197E-01 -4.31327E-02
    8987.019     -7.165  -0.360  1.83746E-01  2.32885E-01 -4.91387E-02
    8987.123     -7.062  -0.320  1.97369E-01  2.52518E-01 -5.51491E-02
    8987.215     -6.970  -0.280  2.10484E-01  2.71382E-01 -6.08983E-02
    8987.294     -6.891  -0.240  2.22648E-01  2.88790E-01 -6.61423E-02
    8987.361     -6.824  -0.200  2.33475E-01  3.04169E-01 -7.06946E-02
    8987.416     -6.769  -0.160  2.42660E-01  3.17101E-01 -7.44403E-02
    8987.458     -6.727  -0.120  2.49988E-01  3.27318E-01 -7.73305E-02
    8987.489     -6.696  -0.080  2.55313E-01  3.34676E-01 -7.93633E-02
    8987.513     -6.672   0.000  2.59632E-01  3.40585E-01 -8.09534E-02
    8987.568     -6.617   0.120  2.69298E-01  3.53915E-01 -8.46171E-02
    8987.611     -6.574   0.160  2.76897E-01  3.64253E-01 -8.73568E-02
    8987.666     -6.519   0.200  2.86759E-01  3.77449E-01 -9.06898E-02
    8987.733     -6.452   0.240  2.98927E-01  3.93312E-01 -9.43845E-02
    8987.812     -6.373   0.280  3.13374E-01  4.11492E-01 -9.81186E-02
    8987.903     -6.281   0.320  3.30123E-01  4.31532E-01 -1.01409E-01
    8988.007     -6.178   0.360  3.49170E-01  4.52796E-01 -1.03626E-01
    8988.123     -6.062   0.400  3.70696E-01  4.74673E-01 -1.03977E-01
    8988.251     -5.934   0.440  3.94981E-01  4.96570E-01 -1.01589E-01
    8988.391     -5.794   0.480  4.22396E-01  5.18019E-01 -9.56228E-02
    8988.543     -5.641   0.520  4.53212E-01  5.38760E-01 -8.55485E-02
    8988.708     -5.477   0.560  4.87407E-01  5.58642E-01 -7.12357E-02
    8988.885     -5.300   0.600  5.24733E-01  5.77612E-01 -5.28793E-02
    8989.074     -5.111   0.640  5.64505E-01  5.95754E-01 -3.12487E-02
    8989.275     -4.910   0.680  6.04115E-01  6.13133E-01 -9.01779E-03
    8989.488     -4.697   0.720  6.37953E-01  6.29888E-01  8.06463E-03
    8989.714     -4.471   0.760  6.60077E-01  6.46079E-01  1.39983E-02
    8989.952     -4.233   0.800  6.70576E-01  6.61834E-01  8.74224E-03
    8990.202     -3.983   0.840  6.75953E-01  6.77209E-01 -1.25577E-03
    8990.464     -3.721   0.880  6.81395E-01  6.92282E-01 -1.08873E-02
    8990.738     -3.447   0.920  6.83656E-01  7.07081E-01 -2.34249E-02
    8991.024     -3.160   0.960  6.74771E-01  7.21656E-01 -4.68846E-02
    8991.323     -2.862   1.000  6.55986E-01  7.36028E-01 -8.00414E-02
    8991.634     -2.551   1.040  6.39092E-01  7.50166E-01 -1.11075E-01
    8991.957     -2.228   1.080  6.32237E-01  7.64136E-01 -1.31899E-01
    8992.292     -1.892   1.120  6.34875E-01  7.77892E-01 -1.43017E-01
    8992.640     -1.545   1.160  6.47105E-01  7.91422E-01 -1.44317E-01
    8993.000     -1.185   1.200  6.76660E-01  8.04713E-01 -1.28052E-01
    8993.371     -0.813   1.240  7.33910E-01  8.17767E-01 -8.38565E-02
    8993.755     -0.429   1.280  8.22927E-01  8.30562E-01 -7.63492E-03
    8994.152     -0.033   1.320  9.31655E-01  8.43055E-01  8.86001E-02
    8994.560      0.375   1.360  1.02548E+00  8.55220E-01  1.70257E-01
    8994.981      0.796   1.400  1.07034E+00  8.67075E-01  2.03262E-01
    8995.414      1.229   1.440  1.06132E+00  8.78550E-01  1.82771E-01
    8995.859      1.674   1.480  1.02463E+00  8.89640E-01  1.34990E-01
    8996.316      2.131   1.520  9.89091E-01  9.00340E-01  8.87515E-02
    8996.785      2.600   1.560  9.65830E-01  9.10621E-01  5.52082E-02
    8997.267      3.082   1.600  9.58648E-01  9.20480E-01  3.81679E-02
    8997.761      3.576   1.640  9.62983E-01  9.29871E-01  3.31122E-02
    8998.267      4.082   1.680  9.67875E-01  9.38811E-01  2.90645E-02
    8998.785      4.600   1.720  9.75423E-01  9.47277E-01  2.81455E-02
    8999.315      5.130   1.760  9.98722E-01  9.55289E-01  4.34338E-02
    8999.858      5.673   1.800  1.04412E+00  9.62803E-01  8.13198E-02
    9000.412      6.227   1.840  1.10320E+00  9.69820E-01  1.33380E-01
    9000.979      6.794   1.880  1.16628E+00  9.76383E-01  1.89899E-01
    9001.558      7.373   1.920  1.22790E+00  9.82453E-01  2.45445E-01
    9002.150      7.965   1.960  1.28803E+00  9.88055E-01  2.99978E-01
    9002.753      8.568   2.000  1.34000E+00  9.93193E-01  3.46811E-01
    9003.369      9.184   2.040  1.34969E+00  9.97873E-01  3.51813E-01
    9003.997      9.812   2.080  1.29905E+00  1.00212E+00  2.96929E-01
    9004.637     10.452   2.120  1.23215E+00  1.00592E+00  2.26231E-01
    9005.289     11.104   2.160  1.19937E+00  1.00931E+00  1.90061E-01
    9005.954     11.769   2.200  1.21203E+00  1.01230E+00  1.99730E-01
    9006.630     12.445   2.240  1.25206E+00  1.01490E+00  2.37169E-01
    9007.319     13.134   2.280  1.28213E+00  1.01714E+00  2.64987E-01
    9008.020     13.835   2.320  1.26330E+00  1.01902E+00  2.44278E-01
    9008.733     14.548   2.360  1.19203E+00  1.02057E+00  1.71468E-01
    9009.459     15.274   2.400  1.10361E+00  1.02181E+00  8.17918E-02
    9010.196     16.011   2.440  1.02802E+00  1.02275E+00  5.27467E-03
    9010.946     16.761   2.480  9.69420E-01  1.02344E+00 -5.40193E-02
    9011.708     17.523   2.520  9.19052E-01  1.02384E+00 -1.04785E-01
    9012.482     18.297   2.560  8.74798E-01  1.02403E+00 -1.49236E-01
    9013.269     19.084   2.600  8.53306E-01  1.02400E+00 -1.70691E-01
    9014.067     19.882   2.640  8.57102E-01  1.02376E+00 -1.66654E-01
    9014.878     20.693   2.680  8.66986E-01  1.02334E+00 -1.56356E-01
    9015.701     21.516   2.720  8.72158E-01  1.02276E+00 -1.50605E-01
    9016.536     22.351   2.760  8.70711E-01  1.02205E+00 -1.51337E-01
    9017.383     23.199   2.800  8.66875E-01  1.02119E+00 -1.54311E-01
    9018.243     24.058   2.840  8.64860E-01  1.02023E+00 -1.55366E-01
    9019.115     24.930   2.880  8.65572E-01  1.01918E+00 -1.53603E-01
    9019.999     25.814   2.920  8.67882E-01  1.01802E+00 -1.50138E-01
    9020.895     26.710   2.960  8.70794E-01  1.01683E+00 -1.46036E-01
    9021.803     27.618   3.000  8.73613E-01  1.01555E+00 -1.41936E-01
    9022.724     28.539   3.040  8.76709E-01  1.01425E+00 -1.37538E-01
    9023.656     29.471   3.080  8.80997E-01  1.01291E+00 -1.31910E-01
    9024.601     30.416   3.120  8.87344E-01  1.01156E+00 -1.24215E-01
    9025.558     31.373   3.160  8.96126E-01  1.01021E+00 -1.14079E-01
    9026.527     32.343   3.200  9.07772E-01  1.00885E+00 -1.01078E-01
    9027.509     33.324   3.240  9.22489E-01  1.00750E+00 -8.50111E-02
    9028.503     34.318   3.280  9.39714E-01  1.00616E+00 -6.64418E-02
    9029.508     35.324   3.320  9.58684E-01  1.00487E+00 -4.61817E-02
    9030.526     36.342   3.360  9.78638E-01  1.00359E+00 -2.49544E-02
    9031.557     37.372   3.400  9.99098E-01  1.00236E+00 -3.26152E-03
    9032.599     38.414   3.440  1.01998E+00  1.00119E+00  1.87956E-02
    9033.654     39.469   3.480  1.04101E+00  1.00004E+00  4.09728E-02
    9034.720     40.536   3.520  1.06096E+00  9.98984E-01  6.19730E-02
    9035.799     41.615   3.560  1.07736E+00  9.97956E-01  7.94069E-02
    9036.891     42.706   3.600  1.08769E+00  9.97022E-01  9.06648E-02
    9037.994     43.809   3.640  1.09030E+00  9.96141E-01  9.41615E-02
    9039.110     44.925   3.680  1.08527E+00  9.95333E-01  8.99361E-02
    9040.237     46.052   3.720  1.07432E+00  9.94581E-01  7.97426E-02
    9041.377     47.192   3.760  1.06025E+00  9.93926E-01  6.63264E-02
    9042.529     48.345   3.800  1.04597E+00  9.93328E-01  5.26398E-02
    9043.694     49.509   3.840  1.03408E+00  9.92809E-01  4.12747E-02
    9044.870     50.685   3.880  1.02630E+00  9.92390E-01  3.39145E-02
    9046.059     51.874   3.920  1.02324E+00  9.92028E-01  3.12133E-02
    9047.260     53.075   3.960  1.02474E+00  9.91744E-01  3.29912E-02
    9048.473     54.288   4.000  1.02996E+00  9.91537E-01  3.84285E-02
    9049.698     55.513   4.040  1.03762E+00  9.91384E-01  4.62323E-02
    9050.936     56.751   4.080  1.04604E+00  9.91329E-01  5.47081E-02
    9052.185     58.001   4.120  1.05308E+00  9.91327E-01  6.17534E-02
    9053.447     59.262   4.160  1.05692E+00  9.91399E-01  6.55182E-02
    9054.721     60.536   4.200  1.05612E+00  9.91524E-01  6.45943E-02
    9056.008     61.823   4.240  1.05020E+00  9.91721E-01  5.84809E-02
    9057.306     63.121   4.280  1.04004E+00  9.91988E-01  4.80563E-02
    9058.617     64.432   4.320  1.02775E+00  9.92304E-01  3.54479E-02
    9059.939     65.755   4.360  1.01581E+00  9.92666E-01  2.31419E-02
    9061.274     67.090   4.400  1.00615E+00  9.93091E-01  1.30547E-02
    9062.622     68.437   4.440  9.99569E-01  9.93538E-01  6.03140E-03
    9063.981     69.796   4.480  9.96015E-01  9.94046E-01  1.96866E-03
    9065.353     71.168   4.520  9.94706E-01  9.94572E-01  1.34226E-04
    9066.736     72.552   4.560  9.94477E-01  9.95156E-01 -6.79051E-04
    9068.132     73.948   4.600  9.94052E-01  9.95755E-01 -1.70240E-03
    9069.541     75.356   4.640  9.92621E-01  9.96383E-01 -3.76212E-03
    9070.961     76.776   4.680  9.89977E-01  9.97022E-01 -7.04497E-03
    9072.394     78.209   4.720  9.86650E-01  9.97688E-01 -1.10376E-02
    9073.838     79.653   4.760  9.83592E-01  9.98336E-01 -1.47445E-02
    9075.295     81.110   4.800  9.81631E-01  9.99031E-01 -1.74002E-02
    9076.764     82.580   4.840  9.80427E-01  9.99705E-01 -1.92777E-02
    9078.246     84.061   4.880  9.78626E-01  1.00037E+00 -2.17479E-02
    9079.739     85.554   4.920  9.74508E-01  1.00102E+00 -2.65088E-02
    9081.245     87.060   4.960  9.67167E-01  1.00168E+00 -3.45091E-02
    9082.763     88.578   5.000  9.56896E-01  1.00231E+00 -4.54103E-02
    9084.293     90.108   5.040  9.45176E-01  1.00293E+00 -5.77501E-02
    9085.835     91.650   5.080  9.34039E-01  1.00351E+00 -6.94719E-02
    9087.390     93.205   5.120  9.25414E-01  1.00406E+00 -7.86456E-02
    9088.956     94.771   5.160  9.20584E-01  1.00457E+00 -8.39863E-02
    9090.535     96.350   5.200  9.20076E-01  1.00507E+00 -8.49900E-02
    9092.126     97.941   5.240  9.23761E-01  1.00552E+00 -8.17593E-02
    9093.729     99.545   5.280  9.31308E-01  1.00591E+00 -7.46035E-02
    9095.345    101.160   5.320  9.42514E-01  1.00628E+00 -6.37669E-02
    9096.973    102.788   5.360  9.57164E-01  1.00658E+00 -4.94196E-02
    9098.612    104.427   5.400  9.74893E-01  1.00684E+00 -3.19485E-02
    9100.264    106.080   5.440  9.94698E-01  1.00706E+00 -1.23572E-02
    9101.929    107.744   5.480  1.01504E+00  1.00722E+00  7.81491E-03
    9103.605    109.420   5.520  1.03453E+00  1.00732E+00  2.72086E-02
    9105.294    111.109   5.560  1.05260E+00  1.00737E+00  4.52240E-02
    9106.994    112.809   5.600  1.06890E+00  1.00738E+00  6.15218E-02
    9108.707    114.522   5.640  1.08214E+00  1.00731E+00  7.48318E-02
    9110.432    116.248   5.680  1.08982E+00  1.00720E+00  8.26215E-02
    9112.170    117.985   5.720  1.08940E+00  1.00701E+00  8.23899E-02
    9113.919    119.734   5.760  1.08024E+00  1.00678E+00  7.34578E-02
    9115.681    121.496   5.800  1.06404E+00  1.00651E+00  5.75368E-02
    9117.455    123.270   5.840  1.04410E+00  1.00617E+00  3.79333E-02
    9119.241    125.056   5.880  1.02405E+00  1.00581E+00  1.82373E-02
    9121.039    126.855   5.920  1.00679E+00  1.00539E+00  1.40188E-03
    9122.850    128.665   5.960  9.94265E-01  1.00493E+00 -1.06625E-02
    9124.673    130.488   6.000  9.86928E-01  1.00436E+00 -1.74340E-02
