# # comment:                                                     FEFF 9.9.1  
# # Source:
# # Structure
# # Reduced
# # space
# # abc:
# # angles:
# # sites:
# # POT  SCF 100  7.0000   0, screened core-hole, AFOLP (folp(0)= 1.150)
# # Abs   Z=29 Rmt= 1.274 Rnm= 1.345 K  shell
# # Pot 1 Z=12 Rmt= 1.380 Rnm= 1.454
# # Pot 2 Z=29 Rmt= 1.275 Rnm= 1.346
# # Pot 3 Z=14 Rmt= 1.002 Rnm= 1.214
# # Pot 4 Z= 8 Rmt= 0.941 Rnm= 1.071
# # Gam_ch=1.729E+00 H-L exch Vi= 0.000E+00 Vr= 0.000E+00
# # Mu=-7.160E+00eV kf=2.341E+00 Vint=-1.803E+01eV Rs_int= 1.549
# FMS rfms= 9.0000
# # PATH  Rmax=-1.000,  Keep_limit= 0.00, Heap_limit 0.00  Pwcrit= 2.50%
#  S02=0.950  Temp=   0.00  Debye_temp=   0.00  Global_sig2= 0.00000
#  Energy zero shift, vr, vi    0.00000E+00   0.00000E+00
#  Curved wave amplitude ratio filter   4.000%
#     file         sig2 tot  cw amp ratio   deg  nlegs   reff  inp sig2
#     0/   0 paths used
#  xsedge+ 50, used to normalize mu           2.4827E-04
#  -----------------------------------------------------------------------
#  omega    e    k    mu    mu0     chi     @#
    8983.907    -10.970  -1.000  4.80161E-02  5.43844E-02 -6.36830E-03
    8984.206    -10.671  -0.960  5.10940E-02  5.83805E-02 -7.28653E-03
    8984.493    -10.385  -0.920  5.44670E-02  6.28270E-02 -8.36009E-03
    8984.767    -10.111  -0.880  5.81728E-02  6.77909E-02 -9.61813E-03
    8985.029     -9.849  -0.840  6.22547E-02  7.33503E-02 -1.10956E-02
    8985.279     -9.599  -0.800  6.67616E-02  7.95958E-02 -1.28341E-02
    8985.517     -9.361  -0.760  7.17487E-02  8.66316E-02 -1.48829E-02
    8985.742     -9.135  -0.720  7.72764E-02  9.45754E-02 -1.72990E-02
    8985.956     -8.922  -0.680  8.34098E-02  1.03557E-01 -2.01473E-02
    8986.157     -8.721  -0.640  9.02158E-02  1.13714E-01 -2.34982E-02
    8986.346     -8.532  -0.600  9.77579E-02  1.25181E-01 -2.74233E-02
    8986.522     -8.355  -0.560  1.06088E-01  1.38074E-01 -3.19866E-02
    8986.687     -8.190  -0.520  1.15232E-01  1.52462E-01 -3.72302E-02
    8986.839     -8.038  -0.480  1.25177E-01  1.68331E-01 -4.31545E-02
    8986.980     -7.898  -0.440  1.35846E-01  1.85542E-01 -4.96956E-02
    8987.108     -7.770  -0.400  1.47085E-01  2.03791E-01 -5.67058E-02
    8987.224     -7.654  -0.360  1.58654E-01  2.22605E-01 -6.39509E-02
    8987.327     -7.550  -0.320  1.70236E-01  2.41367E-01 -7.11310E-02
    8987.419     -7.459  -0.280  1.81465E-01  2.59392E-01 -7.79264E-02
    8987.498     -7.380  -0.240  1.91969E-01  2.76022E-01 -8.40532E-02
    8987.565     -7.313  -0.200  2.01405E-01  2.90711E-01 -8.93063E-02
    8987.620     -7.258  -0.160  2.09485E-01  3.03059E-01 -9.35739E-02
    8987.662     -7.215  -0.120  2.15989E-01  3.12814E-01 -9.68247E-02
    8987.693     -7.185  -0.080  2.20758E-01  3.19837E-01 -9.90798E-02
    8987.717     -7.160   0.000  2.24678E-01  3.25477E-01 -1.00800E-01
    8987.772     -7.105   0.120  2.33400E-01  3.38190E-01 -1.04790E-01
    8987.815     -7.063   0.160  2.40313E-01  3.48064E-01 -1.07751E-01
    8987.870     -7.008   0.200  2.49321E-01  3.60634E-01 -1.11313E-01
    8987.937     -6.941   0.240  2.60547E-01  3.75755E-01 -1.15209E-01
    8988.016     -6.861   0.280  2.74006E-01  3.93065E-01 -1.19059E-01
    8988.107     -6.770   0.320  2.89690E-01  4.12097E-01 -1.22407E-01
    8988.211     -6.666   0.360  3.07560E-01  4.32297E-01 -1.24738E-01
    8988.327     -6.551   0.400  3.27398E-01  4.53036E-01 -1.25638E-01
    8988.455     -6.423   0.440  3.48884E-01  4.73755E-01 -1.24871E-01
    8988.595     -6.282   0.480  3.71421E-01  4.94007E-01 -1.22585E-01
    8988.748     -6.130   0.520  3.94099E-01  5.13497E-01 -1.19398E-01
    8988.912     -5.965   0.560  4.15743E-01  5.32144E-01 -1.16401E-01
    8989.089     -5.789   0.600  4.35006E-01  5.49876E-01 -1.14870E-01
    8989.278     -5.600   0.640  4.51133E-01  5.66777E-01 -1.15644E-01
    8989.479     -5.398   0.680  4.64704E-01  5.82953E-01 -1.18249E-01
    8989.692     -5.185   0.720  4.77908E-01  5.98461E-01 -1.20553E-01
    8989.918     -4.960   0.760  4.93682E-01  6.13462E-01 -1.19781E-01
    8990.156     -4.722   0.800  5.13503E-01  6.28024E-01 -1.14522E-01
    8990.406     -4.472   0.840  5.35973E-01  6.42223E-01 -1.06250E-01
    8990.668     -4.210   0.880  5.57358E-01  6.56159E-01 -9.88012E-02
    8990.942     -3.935   0.920  5.73355E-01  6.69842E-01 -9.64873E-02
    8991.229     -3.649   0.960  5.81627E-01  6.83348E-01 -1.01721E-01
    8991.527     -3.350   1.000  5.84028E-01  6.96699E-01 -1.12672E-01
    8991.838     -3.039   1.040  5.86448E-01  7.09909E-01 -1.23461E-01
    8992.161     -2.716   1.080  5.94531E-01  7.22965E-01 -1.28434E-01
    8992.497     -2.381   1.120  6.10056E-01  7.35906E-01 -1.25850E-01
    8992.844     -2.033   1.160  6.30701E-01  7.48705E-01 -1.18004E-01
    8993.204     -1.674   1.200  6.53856E-01  7.61372E-01 -1.07516E-01
    8993.576     -1.302   1.240  6.79932E-01  7.73892E-01 -9.39595E-02
    8993.960     -0.918   1.280  7.09847E-01  7.86226E-01 -7.63790E-02
    8994.356     -0.522   1.320  7.43825E-01  7.98373E-01 -5.45486E-02
    8994.764     -0.113   1.360  7.81818E-01  8.10332E-01 -2.85138E-02
    8995.185      0.307   1.400  8.21566E-01  8.22080E-01 -5.13310E-04
    8995.618      0.740   1.440  8.59685E-01  8.33570E-01  2.61148E-02
    8996.063      1.185   1.480  8.90164E-01  8.44797E-01  4.53663E-02
    8996.520      1.642   1.520  9.10149E-01  8.55756E-01  5.43929E-02
    8996.989      2.112   1.560  9.30920E-01  8.66420E-01  6.45009E-02
    8997.471      2.593   1.600  9.74533E-01  8.76741E-01  9.77920E-02
    8997.965      3.087   1.640  1.05326E+00  8.86755E-01  1.66504E-01
    8998.471      3.593   1.680  1.16091E+00  8.96416E-01  2.64489E-01
    8998.989      4.111   1.720  1.27489E+00  9.05698E-01  3.69195E-01
    8999.519      4.642   1.760  1.36184E+00  9.14617E-01  4.47223E-01
    9000.062      5.184   1.800  1.40384E+00  9.23150E-01  4.80689E-01
    9000.616      5.739   1.840  1.40520E+00  9.31293E-01  4.73906E-01
    9001.183      6.306   1.880  1.36920E+00  9.39023E-01  4.30181E-01
    9001.762      6.885   1.920  1.30661E+00  9.46358E-01  3.60252E-01
    9002.354      7.476   1.960  1.23738E+00  9.53259E-01  2.84125E-01
    9002.957      8.080   2.000  1.17226E+00  9.59786E-01  2.12478E-01
    9003.573      8.695   2.040  1.11525E+00  9.65878E-01  1.49370E-01
    9004.201      9.323   2.080  1.06727E+00  9.71559E-01  9.57078E-02
    9004.841      9.963   2.120  1.02521E+00  9.76849E-01  4.83643E-02
    9005.493     10.616   2.160  9.88283E-01  9.81733E-01  6.54919E-03
    9006.158     11.280   2.200  9.63034E-01  9.86215E-01 -2.31803E-02
    9006.834     11.957   2.240  9.56794E-01  9.90338E-01 -3.35438E-02
    9007.523     12.646   2.280  9.69526E-01  9.94068E-01 -2.45423E-02
    9008.224     13.347   2.320  9.94832E-01  9.97431E-01 -2.59894E-03
    9008.937     14.060   2.360  1.02278E+00  1.00045E+00  2.23256E-02
    9009.663     14.785   2.400  1.04356E+00  1.00312E+00  4.04449E-02
    9010.400     15.523   2.440  1.05242E+00  1.00548E+00  4.69456E-02
    9011.150     16.273   2.480  1.05233E+00  1.00751E+00  4.48112E-02
    9011.912     17.035   2.520  1.05111E+00  1.00924E+00  4.18719E-02
    9012.686     17.809   2.560  1.05147E+00  1.01069E+00  4.07706E-02
    9013.473     18.595   2.600  1.04708E+00  1.01187E+00  3.52049E-02
    9014.271     19.394   2.640  1.03258E+00  1.01280E+00  1.97789E-02
    9015.082     20.205   2.680  1.01014E+00  1.01349E+00 -3.34992E-03
    9015.905     21.028   2.720  9.82128E-01  1.01393E+00 -3.18053E-02
    9016.740     21.863   2.760  9.53139E-01  1.01419E+00 -6.10559E-02
    9017.588     22.710   2.800  9.29890E-01  1.01424E+00 -8.43459E-02
    9018.447     23.570   2.840  9.12378E-01  1.01413E+00 -1.01748E-01
    9019.319     24.441   2.880  9.00970E-01  1.01383E+00 -1.12862E-01
    9020.203     25.325   2.920  8.94801E-01  1.01340E+00 -1.18599E-01
    9021.099     26.221   2.960  8.92993E-01  1.01282E+00 -1.19824E-01
    9022.007     27.130   3.000  8.94748E-01  1.01213E+00 -1.17384E-01
    9022.928     28.050   3.040  8.98841E-01  1.01133E+00 -1.12492E-01
    9023.860     28.983   3.080  9.04106E-01  1.01042E+00 -1.06315E-01
    9024.805     29.928   3.120  9.09835E-01  1.00945E+00 -9.96116E-02
    9025.762     30.885   3.160  9.15589E-01  1.00839E+00 -9.28056E-02
    9026.732     31.854   3.200  9.21648E-01  1.00727E+00 -8.56212E-02
    9027.713     32.835   3.240  9.28628E-01  1.00610E+00 -7.74700E-02
    9028.707     33.829   3.280  9.36941E-01  1.00491E+00 -6.79651E-02
    9029.712     34.835   3.320  9.46380E-01  1.00366E+00 -5.72771E-02
    9030.730     35.853   3.360  9.56531E-01  1.00240E+00 -4.58667E-02
    9031.761     36.883   3.400  9.66810E-01  1.00113E+00 -3.43210E-02
    9032.803     37.926   3.440  9.76527E-01  9.99862E-01 -2.33353E-02
    9033.858     38.980   3.480  9.85325E-01  9.98594E-01 -1.32696E-02
    9034.925     40.047   3.520  9.93115E-01  9.97352E-01 -4.23713E-03
    9036.004     41.126   3.560  9.99896E-01  9.96096E-01  3.79986E-03
    9037.095     42.217   3.600  1.00592E+00  9.94891E-01  1.10270E-02
    9038.198     43.321   3.640  1.01138E+00  9.93702E-01  1.76823E-02
    9039.314     44.436   3.680  1.01642E+00  9.92549E-01  2.38665E-02
    9040.441     45.564   3.720  1.02098E+00  9.91456E-01  2.95198E-02
    9041.581     46.704   3.760  1.02495E+00  9.90384E-01  3.45674E-02
    9042.733     47.856   3.800  1.02828E+00  9.89374E-01  3.89078E-02
    9043.898     49.020   3.840  1.03072E+00  9.88389E-01  4.23284E-02
    9045.074     50.197   3.880  1.03211E+00  9.87489E-01  4.46162E-02
    9046.263     51.386   3.920  1.03210E+00  9.86619E-01  4.54844E-02
    9047.464     52.586   3.960  1.03050E+00  9.85838E-01  4.46659E-02
    9048.677     53.800   4.000  1.02716E+00  9.85086E-01  4.20730E-02
    9049.902     55.025   4.040  1.02232E+00  9.84427E-01  3.78960E-02
    9051.140     56.262   4.080  1.01642E+00  9.83816E-01  3.26081E-02
    9052.389     57.512   4.120  1.01019E+00  9.83255E-01  2.69381E-02
    9053.651     58.774   4.160  1.00456E+00  9.82766E-01  2.17924E-02
    9054.925     60.048   4.200  1.00029E+00  9.82350E-01  1.79438E-02
    9056.212     61.334   4.240  9.97792E-01  9.81985E-01  1.58062E-02
    9057.510     62.633   4.280  9.97025E-01  9.81693E-01  1.53316E-02
    9058.821     63.943   4.320  9.97555E-01  9.81472E-01  1.60838E-02
    9060.144     65.266   4.360  9.98735E-01  9.81299E-01  1.74357E-02
    9061.479     66.601   4.400  1.00002E+00  9.81175E-01  1.88453E-02
    9062.826     67.948   4.440  1.00109E+00  9.81121E-01  1.99684E-02
    9064.185     69.308   4.480  1.00169E+00  9.81137E-01  2.05564E-02
    9065.557     70.679   4.520  1.00156E+00  9.81199E-01  2.03610E-02
    9066.941     72.063   4.560  1.00049E+00  9.81306E-01  1.91860E-02
    9068.337     73.459   4.600  9.98557E-01  9.81457E-01  1.70994E-02
    9069.745     74.867   4.640  9.96214E-01  9.81673E-01  1.45415E-02
    9071.165     76.288   4.680  9.94070E-01  9.81929E-01  1.21410E-02
    9072.598     77.720   4.720  9.92566E-01  9.82204E-01  1.03625E-02
    9074.042     79.165   4.760  9.91846E-01  9.82539E-01  9.30683E-03
    9075.499     80.622   4.800  9.91622E-01  9.82912E-01  8.70989E-03
    9076.968     82.091   4.840  9.91400E-01  9.83299E-01  8.10099E-03
    9078.450     83.572   4.880  9.90761E-01  9.83719E-01  7.04177E-03
    9079.943     85.066   4.920  9.89482E-01  9.84172E-01  5.30975E-03
    9081.449     86.572   4.960  9.87545E-01  9.84632E-01  2.91290E-03
    9082.967     88.089   5.000  9.85062E-01  9.85100E-01 -3.74119E-05
    9084.497     89.619   5.040  9.82149E-01  9.85596E-01 -3.44742E-03
    9086.039     91.162   5.080  9.78841E-01  9.86120E-01 -7.27859E-03
    9087.594     92.716   5.120  9.75100E-01  9.86622E-01 -1.15221E-02
    9089.160     94.283   5.160  9.70920E-01  9.87125E-01 -1.62052E-02
    9090.739     95.862   5.200  9.66321E-01  9.87649E-01 -2.13283E-02
    9092.330     97.453   5.240  9.61362E-01  9.88148E-01 -2.67869E-02
    9093.934     99.056   5.280  9.56365E-01  9.88643E-01 -3.22777E-02
    9095.549    100.671   5.320  9.51795E-01  9.89132E-01 -3.73376E-02
    9097.177    102.299   5.360  9.48135E-01  9.89592E-01 -4.14573E-02
    9098.816    103.939   5.400  9.45842E-01  9.90042E-01 -4.42000E-02
    9100.468    105.591   5.440  9.45237E-01  9.90482E-01 -4.52454E-02
    9102.133    107.255   5.480  9.46484E-01  9.90867E-01 -4.43839E-02
    9103.809    108.932   5.520  9.49756E-01  9.91239E-01 -4.14832E-02
    9105.498    110.620   5.560  9.55050E-01  9.91597E-01 -3.65468E-02
    9107.198    112.321   5.600  9.62099E-01  9.91896E-01 -2.97968E-02
    9108.911    114.034   5.640  9.70472E-01  9.92177E-01 -2.17056E-02
    9110.637    115.759   5.680  9.79487E-01  9.92398E-01 -1.29106E-02
    9112.374    117.496   5.720  9.88487E-01  9.92601E-01 -4.11415E-03
    9114.123    119.246   5.760  9.96797E-01  9.92765E-01  4.03190E-03
    9115.885    121.008   5.800  1.00384E+00  9.92864E-01  1.09796E-02
    9117.659    122.782   5.840  1.00930E+00  9.92943E-01  1.63616E-02
    9119.445    124.568   5.880  1.01304E+00  9.92958E-01  2.00820E-02
    9121.244    126.366   5.920  1.01524E+00  9.92929E-01  2.23092E-02
    9123.054    128.177   5.960  1.01610E+00  9.92852E-01  2.32520E-02
    9124.877    129.999   6.000  1.01558E+00  9.92706E-01  2.28700E-02
