# # comment:                                                     FEFF 9.9.1  
# # Source:
# # Structure
# # Reduced
# # space
# # abc:
# # angles:
# # sites:
# # POT  SCF 100  7.0000   0, screened core-hole, AFOLP (folp(0)= 1.150)
# # Abs   Z=29 Rmt= 1.281 Rnm= 1.368 K  shell
# # Pot 1 Z=29 Rmt= 1.284 Rnm= 1.370
# # Pot 2 Z=75 Rmt= 1.144 Rnm= 1.364
# # Pot 3 Z= 8 Rmt= 0.917 Rnm= 1.060
# # Gam_ch=1.729E+00 H-L exch Vi= 0.000E+00 Vr= 0.000E+00
# # Mu=-4.818E+00eV kf=2.354E+00 Vint=-1.571E+01eV Rs_int= 1.541
# FMS rfms= 9.0000
# # PATH  Rmax=-1.000,  Keep_limit= 0.00, Heap_limit 0.00  Pwcrit= 2.50%
#  S02=0.950  Temp=   0.00  Debye_temp=   0.00  Global_sig2= 0.00000
#  Energy zero shift, vr, vi    0.00000E+00   0.00000E+00
#  Curved wave amplitude ratio filter   4.000%
#     file         sig2 tot  cw amp ratio   deg  nlegs   reff  inp sig2
#     0/   0 paths used
#  xsedge+ 50, used to normalize mu           2.4654E-04
#  -----------------------------------------------------------------------
#  omega    e    k    mu    mu0     chi     @#
    8983.262     -8.628  -1.000  5.05016E-02  5.86951E-02 -8.19345E-03
    8983.561     -8.329  -0.960  5.38422E-02  6.31243E-02 -9.28216E-03
    8983.848     -8.043  -0.920  5.75240E-02  6.80615E-02 -1.05374E-02
    8984.122     -7.768  -0.880  6.15952E-02  7.35826E-02 -1.19874E-02
    8984.384     -7.506  -0.840  6.61118E-02  7.97766E-02 -1.36648E-02
    8984.634     -7.256  -0.800  7.11383E-02  8.67467E-02 -1.56084E-02
    8984.872     -7.019  -0.760  7.67488E-02  9.46114E-02 -1.78626E-02
    8985.097     -6.793  -0.720  8.30267E-02  1.03505E-01 -2.04781E-02
    8985.311     -6.580  -0.680  9.00637E-02  1.13575E-01 -2.35116E-02
    8985.512     -6.378  -0.640  9.79560E-02  1.24979E-01 -2.70231E-02
    8985.701     -6.190  -0.600  1.06798E-01  1.37871E-01 -3.10728E-02
    8985.878     -6.013  -0.560  1.16669E-01  1.52382E-01 -3.57133E-02
    8986.042     -5.848  -0.520  1.27616E-01  1.68594E-01 -4.09782E-02
    8986.195     -5.696  -0.480  1.39623E-01  1.86490E-01 -4.68663E-02
    8986.335     -5.556  -0.440  1.52589E-01  2.05912E-01 -5.33234E-02
    8986.463     -5.428  -0.400  1.66293E-01  2.26520E-01 -6.02263E-02
    8986.579     -5.312  -0.360  1.80394E-01  2.47773E-01 -6.73789E-02
    8986.682     -5.208  -0.320  1.94445E-01  2.68971E-01 -7.45254E-02
    8986.774     -5.117  -0.280  2.07953E-01  2.89337E-01 -8.13840E-02
    8986.853     -5.037  -0.240  2.20438E-01  3.08127E-01 -8.76884E-02
    8986.920     -4.970  -0.200  2.31495E-01  3.24719E-01 -9.32239E-02
    8986.975     -4.915  -0.160  2.40820E-01  3.38664E-01 -9.78441E-02
    8987.018     -4.873  -0.120  2.48209E-01  3.49678E-01 -1.01468E-01
    8987.048     -4.842  -0.080  2.53541E-01  3.57606E-01 -1.04065E-01
    8987.072     -4.818   0.000  2.57821E-01  3.63971E-01 -1.06150E-01
    8987.127     -4.763   0.120  2.67566E-01  3.78312E-01 -1.10747E-01
    8987.170     -4.720   0.160  2.75155E-01  3.89435E-01 -1.14280E-01
    8987.225     -4.666   0.200  2.84898E-01  4.03606E-01 -1.18709E-01
    8987.292     -4.598   0.240  2.96705E-01  4.20629E-01 -1.23924E-01
    8987.371     -4.519   0.280  3.10371E-01  4.40091E-01 -1.29720E-01
    8987.463     -4.428   0.320  3.25622E-01  4.61477E-01 -1.35855E-01
    8987.566     -4.324   0.360  3.42061E-01  4.84104E-01 -1.42043E-01
    8987.682     -4.208   0.400  3.59214E-01  5.07269E-01 -1.48055E-01
    8987.810     -4.080   0.440  3.76575E-01  5.30311E-01 -1.53736E-01
    8987.950     -3.940   0.480  3.93711E-01  5.52758E-01 -1.59047E-01
    8988.103     -3.788   0.520  4.10196E-01  5.74234E-01 -1.64038E-01
    8988.267     -3.623   0.560  4.25860E-01  5.94636E-01 -1.68777E-01
    8988.444     -3.446   0.600  4.40583E-01  6.13888E-01 -1.73305E-01
    8988.633     -3.257   0.640  4.54504E-01  6.32102E-01 -1.77599E-01
    8988.834     -3.056   0.680  4.67716E-01  6.49315E-01 -1.81599E-01
    8989.047     -2.843   0.720  4.80490E-01  6.65699E-01 -1.85209E-01
    8989.273     -2.617   0.760  4.93200E-01  6.81371E-01 -1.88171E-01
    8989.511     -2.380   0.800  5.06398E-01  6.96394E-01 -1.89996E-01
    8989.761     -2.130   0.840  5.20671E-01  7.10915E-01 -1.90244E-01
    8990.023     -1.867   0.880  5.35904E-01  7.24967E-01 -1.89063E-01
    8990.297     -1.593   0.920  5.51533E-01  7.38626E-01 -1.87093E-01
    8990.584     -1.307   0.960  5.67302E-01  7.51914E-01 -1.84613E-01
    8990.882     -1.008   1.000  5.83814E-01  7.64904E-01 -1.81090E-01
    8991.193     -0.697   1.040  6.02191E-01  7.77594E-01 -1.75402E-01
    8991.516     -0.374   1.080  6.23834E-01  7.90012E-01 -1.66179E-01
    8991.852     -0.039   1.120  6.50100E-01  8.02144E-01 -1.52044E-01
    8992.199      0.309   1.160  6.82112E-01  8.13987E-01 -1.31875E-01
    8992.559      0.668   1.200  7.20086E-01  8.25553E-01 -1.05466E-01
    8992.931      1.040   1.240  7.61990E-01  8.36829E-01 -7.48396E-02
    8993.315      1.424   1.280  8.03309E-01  8.47803E-01 -4.44937E-02
    8993.711      1.821   1.320  8.40210E-01  8.58457E-01 -1.82465E-02
    8994.119      2.229   1.360  8.71586E-01  8.68793E-01  2.79343E-03
    8994.540      2.650   1.400  8.96092E-01  8.78791E-01  1.73008E-02
    8994.973      3.082   1.440  9.11628E-01  8.88452E-01  2.31766E-02
    8995.418      3.527   1.480  9.20721E-01  8.97753E-01  2.29675E-02
    8995.875      3.985   1.520  9.29537E-01  9.06674E-01  2.28638E-02
    8996.344      4.454   1.560  9.42801E-01  9.15213E-01  2.75879E-02
    8996.826      4.936   1.600  9.64497E-01  9.23350E-01  4.11475E-02
    8997.320      5.429   1.640  9.97262E-01  9.31123E-01  6.61385E-02
    8997.826      5.935   1.680  1.04143E+00  9.38475E-01  1.02954E-01
    8998.344      6.454   1.720  1.09692E+00  9.45427E-01  1.51497E-01
    8998.874      6.984   1.760  1.16321E+00  9.51998E-01  2.11211E-01
    8999.417      7.526   1.800  1.23441E+00  9.58150E-01  2.76257E-01
    8999.971      8.081   1.840  1.29809E+00  9.63908E-01  3.34181E-01
    9000.538      8.648   1.880  1.34239E+00  9.69274E-01  3.73115E-01
    9001.118      9.227   1.920  1.36275E+00  9.74231E-01  3.88516E-01
    9001.709      9.819   1.960  1.36416E+00  9.78825E-01  3.85338E-01
    9002.312     10.422   2.000  1.35529E+00  9.83042E-01  3.72248E-01
    9002.928     11.038   2.040  1.33986E+00  9.86907E-01  3.52948E-01
    9003.556     11.666   2.080  1.31680E+00  9.90408E-01  3.26393E-01
    9004.196     12.306   2.120  1.28685E+00  9.93589E-01  2.93266E-01
    9004.848     12.958   2.160  1.25578E+00  9.96418E-01  2.59366E-01
    9005.513     13.622   2.200  1.23137E+00  9.98942E-01  2.32433E-01
    9006.189     14.299   2.240  1.21495E+00  1.00117E+00  2.13778E-01
    9006.878     14.988   2.280  1.20040E+00  1.00311E+00  1.97289E-01
    9007.579     15.689   2.320  1.17756E+00  1.00478E+00  1.72779E-01
    9008.292     16.402   2.360  1.13643E+00  1.00621E+00  1.30223E-01
    9009.018     17.128   2.400  1.07978E+00  1.00739E+00  7.23915E-02
    9009.756     17.865   2.440  1.02340E+00  1.00833E+00  1.50720E-02
    9010.505     18.615   2.480  9.77365E-01  1.00908E+00 -3.17106E-02
    9011.267     19.377   2.520  9.43381E-01  1.00962E+00 -6.62434E-02
    9012.041     20.151   2.560  9.21002E-01  1.00998E+00 -8.89758E-02
    9012.828     20.938   2.600  9.09354E-01  1.01019E+00 -1.00833E-01
    9013.626     21.736   2.640  9.06449E-01  1.01024E+00 -1.03787E-01
    9014.437     22.547   2.680  9.07019E-01  1.01016E+00 -1.03136E-01
    9015.260     23.370   2.720  9.05339E-01  1.00995E+00 -1.04611E-01
    9016.095     24.205   2.760  9.01803E-01  1.00965E+00 -1.07842E-01
    9016.943     25.052   2.800  8.98225E-01  1.00923E+00 -1.11005E-01
    9017.802     25.912   2.840  8.96927E-01  1.00873E+00 -1.11801E-01
    9018.674     26.784   2.880  8.98140E-01  1.00815E+00 -1.10008E-01
    9019.558     27.668   2.920  9.00621E-01  1.00751E+00 -1.06892E-01
    9020.454     28.564   2.960  9.03318E-01  1.00683E+00 -1.03512E-01
    9021.362     29.472   3.000  9.05344E-01  1.00608E+00 -1.00737E-01
    9022.283     30.392   3.040  9.06598E-01  1.00532E+00 -9.87186E-02
    9023.215     31.325   3.080  9.07395E-01  1.00454E+00 -9.71428E-02
    9024.160     32.270   3.120  9.08044E-01  1.00373E+00 -9.56833E-02
    9025.117     33.227   3.160  9.08830E-01  1.00289E+00 -9.40604E-02
    9026.087     34.196   3.200  9.10137E-01  1.00207E+00 -9.19350E-02
    9027.068     35.178   3.240  9.12420E-01  1.00125E+00 -8.88351E-02
    9028.062     36.171   3.280  9.15877E-01  1.00046E+00 -8.45855E-02
    9029.068     37.177   3.320  9.20739E-01  9.99656E-01 -7.89173E-02
    9030.086     38.195   3.360  9.27180E-01  9.98901E-01 -7.17212E-02
    9031.116     39.225   3.400  9.35063E-01  9.98156E-01 -6.30933E-02
    9032.158     40.268   3.440  9.44093E-01  9.97444E-01 -5.33511E-02
    9033.213     41.323   3.480  9.53856E-01  9.96747E-01 -4.28917E-02
    9034.280     42.389   3.520  9.63983E-01  9.96108E-01 -3.21257E-02
    9035.359     43.468   3.560  9.74053E-01  9.95488E-01 -2.14345E-02
    9036.450     44.559   3.600  9.83987E-01  9.94929E-01 -1.09427E-02
    9037.553     45.663   3.640  9.93728E-01  9.94413E-01 -6.85272E-04
    9038.669     46.778   3.680  1.00317E+00  9.93938E-01  9.23434E-03
    9039.796     47.906   3.720  1.01222E+00  9.93504E-01  1.87154E-02
    9040.936     49.046   3.760  1.02080E+00  9.93114E-01  2.76855E-02
    9042.089     50.198   3.800  1.02887E+00  9.92789E-01  3.60765E-02
    9043.253     51.363   3.840  1.03626E+00  9.92508E-01  4.37473E-02
    9044.429     52.539   3.880  1.04275E+00  9.92270E-01  5.04836E-02
    9045.618     53.728   3.920  1.04805E+00  9.92075E-01  5.59733E-02
    9046.819     54.929   3.960  1.05180E+00  9.91943E-01  5.98600E-02
    9048.032     56.142   4.000  1.05364E+00  9.91834E-01  6.18078E-02
    9049.257     57.367   4.040  1.05336E+00  9.91788E-01  6.15692E-02
    9050.495     58.605   4.080  1.05087E+00  9.91783E-01  5.90822E-02
    9051.745     59.854   4.120  1.04641E+00  9.91820E-01  5.45890E-02
    9053.006     61.116   4.160  1.04064E+00  9.91898E-01  4.87471E-02
    9054.280     62.390   4.200  1.03435E+00  9.92013E-01  4.23413E-02
    9055.567     63.676   4.240  1.02831E+00  9.92168E-01  3.61449E-02
    9056.865     64.975   4.280  1.02321E+00  9.92361E-01  3.08447E-02
    9058.176     66.286   4.320  1.01956E+00  9.92589E-01  2.69692E-02
    9059.499     67.608   4.360  1.01764E+00  9.92830E-01  2.48086E-02
    9060.834     68.943   4.400  1.01747E+00  9.93106E-01  2.43675E-02
    9062.181     70.291   4.440  1.01879E+00  9.93415E-01  2.53794E-02
    9063.540     71.650   4.480  1.02112E+00  9.93758E-01  2.73653E-02
    9064.912     73.022   4.520  1.02384E+00  9.94108E-01  2.97292E-02
    9066.296     74.405   4.560  1.02631E+00  9.94465E-01  3.18445E-02
    9067.692     75.801   4.600  1.02795E+00  9.94848E-01  3.31063E-02
    9069.100     77.210   4.640  1.02824E+00  9.95236E-01  3.29995E-02
    9070.520     78.630   4.680  1.02685E+00  9.95629E-01  3.12243E-02
    9071.953     80.062   4.720  1.02377E+00  9.96044E-01  2.77248E-02
    9073.397     81.507   4.760  1.01907E+00  9.96439E-01  2.26352E-02
    9074.854     82.964   4.800  1.01309E+00  9.96854E-01  1.62414E-02
    9076.324     84.433   4.840  1.00611E+00  9.97243E-01  8.86169E-03
    9077.805     85.915   4.880  9.98405E-01  9.97630E-01  7.75353E-04
    9079.298     87.408   4.920  9.90237E-01  9.98012E-01 -7.77422E-03
    9080.804     88.914   4.960  9.81848E-01  9.98388E-01 -1.65400E-02
    9082.322     90.432   5.000  9.73591E-01  9.98738E-01 -2.51473E-02
    9083.852     91.962   5.040  9.66013E-01  9.99100E-01 -3.30873E-02
    9085.394     93.504   5.080  9.59612E-01  9.99410E-01 -3.97974E-02
    9086.949     95.059   5.120  9.54916E-01  9.99709E-01 -4.47924E-02
    9088.515     96.625   5.160  9.52136E-01  9.99997E-01 -4.78609E-02
    9090.094     98.204   5.200  9.51134E-01  1.00025E+00 -4.91166E-02
    9091.685     99.795   5.240  9.51525E-01  1.00047E+00 -4.89421E-02
    9093.289    101.398   5.280  9.52877E-01  1.00065E+00 -4.77713E-02
    9094.904    103.014   5.320  9.54892E-01  1.00082E+00 -4.59235E-02
    9096.532    104.641   5.360  9.57400E-01  1.00095E+00 -4.35469E-02
    9098.172    106.281   5.400  9.60394E-01  1.00104E+00 -4.06484E-02
    9099.824    107.933   5.440  9.63940E-01  1.00112E+00 -3.71815E-02
    9101.488    109.597   5.480  9.68034E-01  1.00114E+00 -3.31065E-02
    9103.164    111.274   5.520  9.72712E-01  1.00114E+00 -2.84328E-02
    9104.853    112.962   5.560  9.77910E-01  1.00111E+00 -2.32002E-02
    9106.553    114.663   5.600  9.83565E-01  1.00104E+00 -1.74708E-02
    9108.266    116.376   5.640  9.89535E-01  1.00092E+00 -1.13881E-02
    9109.992    118.101   5.680  9.95573E-01  1.00077E+00 -5.19776E-03
    9111.729    119.839   5.720  1.00135E+00  1.00058E+00  7.72662E-04
    9113.479    121.588   5.760  1.00653E+00  1.00035E+00  6.18108E-03
    9115.240    123.350   5.800  1.01087E+00  1.00011E+00  1.07618E-02
    9117.014    125.124   5.840  1.01424E+00  9.99838E-01  1.43983E-02
    9118.800    126.910   5.880  1.01665E+00  9.99528E-01  1.71205E-02
    9120.599    128.708   5.920  1.01821E+00  9.99185E-01  1.90233E-02
    9122.409    130.519   5.960  1.01894E+00  9.98807E-01  2.01357E-02
    9124.232    132.341   6.000  1.01870E+00  9.98401E-01  2.03023E-02
