# # comment:                                                     FEFF 9.9.1  
# # Source:
# # Structure
# # Reduced
# # space
# # abc:
# # angles:
# # sites:
# # POT  SCF 100  7.0000   0, screened core-hole, AFOLP (folp(0)= 1.150)
# # Abs   Z=29 Rmt= 1.196 Rnm= 1.277 K  shell
# # Pot 1 Z=21 Rmt= 1.458 Rnm= 1.538
# # Pot 2 Z=29 Rmt= 1.186 Rnm= 1.315
# # Pot 3 Z= 8 Rmt= 1.002 Rnm= 1.098
# # Gam_ch=1.729E+00 H-L exch Vi= 0.000E+00 Vr= 0.000E+00
# # Mu=-1.061E+01eV kf=2.099E+00 Vint=-1.901E+01eV Rs_int= 1.727
# FMS rfms= 9.0000
# # PATH  Rmax=-1.000,  Keep_limit= 0.00, Heap_limit 0.00  Pwcrit= 2.50%
#  S02=0.950  Temp=   0.00  Debye_temp=   0.00  Global_sig2= 0.00000
#  Energy zero shift, vr, vi    0.00000E+00   0.00000E+00
#  Curved wave amplitude ratio filter   4.000%
#     file         sig2 tot  cw amp ratio   deg  nlegs   reff  inp sig2
#     0/   0 paths used
#  xsedge+ 50, used to normalize mu           2.5069E-04
#  -----------------------------------------------------------------------
#  omega    e    k    mu    mu0     chi     @#
    8984.598    -14.422  -1.000  2.76425E-02  4.62307E-02 -1.85882E-02
    8984.897    -14.123  -0.960  2.87537E-02  4.94154E-02 -2.06616E-02
    8985.184    -13.836  -0.920  2.99242E-02  5.29421E-02 -2.30180E-02
    8985.458    -13.562  -0.880  3.11585E-02  5.68605E-02 -2.57020E-02
    8985.720    -13.300  -0.840  3.24620E-02  6.12281E-02 -2.87661E-02
    8985.970    -13.050  -0.800  3.38403E-02  6.61115E-02 -3.22712E-02
    8986.208    -12.812  -0.760  3.52997E-02  7.15872E-02 -3.62875E-02
    8986.433    -12.587  -0.720  3.68467E-02  7.77414E-02 -4.08947E-02
    8986.647    -12.373  -0.680  3.84880E-02  8.46690E-02 -4.61810E-02
    8986.848    -12.172  -0.640  4.02297E-02  9.24699E-02 -5.22401E-02
    8987.037    -11.983  -0.600  4.20772E-02  1.01242E-01 -5.91648E-02
    8987.214    -11.806  -0.560  4.40331E-02  1.11069E-01 -6.70355E-02
    8987.378    -11.642  -0.520  4.60961E-02  1.21999E-01 -7.59025E-02
    8987.531    -11.489  -0.480  4.82586E-02  1.34020E-01 -8.57610E-02
    8987.671    -11.349  -0.440  5.05038E-02  1.47026E-01 -9.65224E-02
    8987.799    -11.221  -0.400  5.28039E-02  1.60794E-01 -1.07991E-01
    8987.915    -11.105  -0.360  5.51186E-02  1.74972E-01 -1.19854E-01
    8988.018    -11.002  -0.320  5.73975E-02  1.89104E-01 -1.31706E-01
    8988.110    -10.910  -0.280  5.95830E-02  2.02681E-01 -1.43098E-01
    8988.189    -10.831  -0.240  6.16162E-02  2.15215E-01 -1.53599E-01
    8988.256    -10.764  -0.200  6.34418E-02  2.26296E-01 -1.62855E-01
    8988.311    -10.709  -0.160  6.50110E-02  2.35622E-01 -1.70611E-01
    8988.354    -10.667  -0.120  6.62824E-02  2.42999E-01 -1.76716E-01
    8988.384    -10.636  -0.080  6.72230E-02  2.48315E-01 -1.81093E-01
    8988.408    -10.612   0.000  6.80140E-02  2.52590E-01 -1.84576E-01
    8988.463    -10.557   0.120  6.98966E-02  2.62222E-01 -1.92326E-01
    8988.506    -10.514   0.160  7.13378E-02  2.69717E-01 -1.98379E-01
    8988.561    -10.459   0.200  7.32183E-02  2.79314E-01 -2.06096E-01
    8988.628    -10.392   0.240  7.55338E-02  2.90856E-01 -2.15322E-01
    8988.707    -10.313   0.280  7.83584E-02  3.04163E-01 -2.25805E-01
    8988.799    -10.222   0.320  8.16700E-02  3.18875E-01 -2.37205E-01
    8988.902    -10.118   0.360  8.55664E-02  3.34612E-01 -2.49046E-01
    8989.018    -10.002   0.400  9.00872E-02  3.50930E-01 -2.60843E-01
    8989.146     -9.874   0.440  9.53197E-02  3.67459E-01 -2.72139E-01
    8989.286     -9.734   0.480  1.01311E-01  3.83879E-01 -2.82568E-01
    8989.439     -9.581   0.520  1.08051E-01  4.00001E-01 -2.91950E-01
    8989.603     -9.417   0.560  1.15306E-01  4.15738E-01 -3.00431E-01
    8989.780     -9.240   0.600  1.22645E-01  4.31045E-01 -3.08400E-01
    8989.969     -9.051   0.640  1.29550E-01  4.46008E-01 -3.16458E-01
    8990.170     -8.850   0.680  1.35662E-01  4.60661E-01 -3.24999E-01
    8990.384     -8.637   0.720  1.41259E-01  4.75088E-01 -3.33829E-01
    8990.609     -8.411   0.760  1.47222E-01  4.89351E-01 -3.42129E-01
    8990.847     -8.173   0.800  1.54828E-01  5.03546E-01 -3.48718E-01
    8991.097     -7.923   0.840  1.64999E-01  5.17697E-01 -3.52698E-01
    8991.359     -7.661   0.880  1.77744E-01  5.31841E-01 -3.54097E-01
    8991.633     -7.387   0.920  1.91795E-01  5.46040E-01 -3.54245E-01
    8991.920     -7.100   0.960  2.05386E-01  5.60289E-01 -3.54903E-01
    8992.218     -6.802   1.000  2.17938E-01  5.74615E-01 -3.56676E-01
    8992.529     -6.491   1.040  2.30902E-01  5.88996E-01 -3.58094E-01
    8992.852     -6.168   1.080  2.45856E-01  6.03467E-01 -3.57611E-01
    8993.188     -5.832   1.120  2.60359E-01  6.17973E-01 -3.57615E-01
    8993.535     -5.485   1.160  2.69181E-01  6.32538E-01 -3.63357E-01
    8993.895     -5.125   1.200  2.72457E-01  6.47122E-01 -3.74665E-01
    8994.267     -4.753   1.240  2.76424E-01  6.61702E-01 -3.85277E-01
    8994.651     -4.369   1.280  2.85307E-01  6.76269E-01 -3.90962E-01
    8995.047     -3.973   1.320  2.99915E-01  6.90777E-01 -3.90863E-01
    8995.455     -3.565   1.360  3.21202E-01  7.05218E-01 -3.84015E-01
    8995.876     -3.144   1.400  3.50802E-01  7.19558E-01 -3.68756E-01
    8996.309     -2.711   1.440  3.91010E-01  7.33748E-01 -3.42738E-01
    8996.754     -2.266   1.480  4.46049E-01  7.47775E-01 -3.01725E-01
    8997.211     -1.809   1.520  5.20882E-01  7.61605E-01 -2.40723E-01
    8997.680     -1.340   1.560  6.14095E-01  7.75226E-01 -1.61131E-01
    8998.162     -0.858   1.600  7.16351E-01  7.88567E-01 -7.22154E-02
    8998.656     -0.364   1.640  8.24032E-01  8.01633E-01  2.23991E-02
    8999.162      0.142   1.680  9.38171E-01  8.14395E-01  1.23776E-01
    8999.680      0.660   1.720  1.05004E+00  8.26820E-01  2.23218E-01
    9000.210      1.190   1.760  1.14010E+00  8.38879E-01  3.01221E-01
    9000.753      1.733   1.800  1.18452E+00  8.50561E-01  3.33960E-01
    9001.308      2.287   1.840  1.17867E+00  8.61859E-01  3.16815E-01
    9001.874      2.854   1.880  1.14466E+00  8.72745E-01  2.71915E-01
    9002.454      3.433   1.920  1.10121E+00  8.83192E-01  2.18022E-01
    9003.045      4.025   1.960  1.05902E+00  8.93214E-01  1.65803E-01
    9003.648      4.628   2.000  1.03463E+00  9.02768E-01  1.31859E-01
    9004.264      5.244   2.040  1.04014E+00  9.11891E-01  1.28253E-01
    9004.892      5.872   2.080  1.06888E+00  9.20539E-01  1.48340E-01
    9005.532      6.512   2.120  1.10827E+00  9.28711E-01  1.79561E-01
    9006.184      7.164   2.160  1.14649E+00  9.36428E-01  2.10062E-01
    9006.849      7.829   2.200  1.18047E+00  9.43690E-01  2.36781E-01
    9007.525      8.505   2.240  1.21963E+00  9.50479E-01  2.69154E-01
    9008.214      9.194   2.280  1.26388E+00  9.56817E-01  3.07063E-01
    9008.915      9.895   2.320  1.29578E+00  9.62709E-01  3.33072E-01
    9009.629     10.608   2.360  1.29570E+00  9.68158E-01  3.27538E-01
    9010.354     11.334   2.400  1.26522E+00  9.73170E-01  2.92051E-01
    9011.092     12.071   2.440  1.23082E+00  9.77769E-01  2.53054E-01
    9011.841     12.821   2.480  1.21370E+00  9.81939E-01  2.31765E-01
    9012.603     13.583   2.520  1.20429E+00  9.85732E-01  2.18557E-01
    9013.378     14.357   2.560  1.18166E+00  9.89132E-01  1.92533E-01
    9014.164     15.144   2.600  1.14295E+00  9.92166E-01  1.50781E-01
    9014.963     15.942   2.640  1.09587E+00  9.94864E-01  1.01008E-01
    9015.773     16.753   2.680  1.04944E+00  9.97212E-01  5.22328E-02
    9016.596     17.576   2.720  1.01087E+00  9.99238E-01  1.16340E-02
    9017.431     18.411   2.760  9.82795E-01  1.00095E+00 -1.81543E-02
    9018.279     19.259   2.800  9.63193E-01  1.00240E+00 -3.92036E-02
    9019.138     20.118   2.840  9.48141E-01  1.00357E+00 -5.54257E-02
    9020.010     20.990   2.880  9.33203E-01  1.00447E+00 -7.12647E-02
    9020.894     21.874   2.920  9.15401E-01  1.00513E+00 -8.97254E-02
    9021.790     22.770   2.960  8.94464E-01  1.00557E+00 -1.11110E-01
    9022.698     23.678   3.000  8.72534E-01  1.00582E+00 -1.33285E-01
    9023.619     24.599   3.040  8.52749E-01  1.00587E+00 -1.53118E-01
    9024.551     25.531   3.080  8.37750E-01  1.00575E+00 -1.67997E-01
    9025.496     26.476   3.120  8.29066E-01  1.00547E+00 -1.76399E-01
    9026.453     27.433   3.160  8.26548E-01  1.00503E+00 -1.78480E-01
    9027.423     28.403   3.200  8.29470E-01  1.00446E+00 -1.74994E-01
    9028.404     29.384   3.240  8.36890E-01  1.00378E+00 -1.66892E-01
    9029.398     30.378   3.280  8.47531E-01  1.00301E+00 -1.55475E-01
    9030.404     31.384   3.320  8.59948E-01  1.00212E+00 -1.42174E-01
    9031.422     32.402   3.360  8.73235E-01  1.00116E+00 -1.27922E-01
    9032.452     33.432   3.400  8.86982E-01  1.00013E+00 -1.13153E-01
    9033.494     34.474   3.440  9.01137E-01  9.99044E-01 -9.79071E-02
    9034.549     35.529   3.480  9.15994E-01  9.97907E-01 -8.19130E-02
    9035.616     36.596   3.520  9.31626E-01  9.96729E-01 -6.51031E-02
    9036.695     37.675   3.560  9.47240E-01  9.95516E-01 -4.82763E-02
    9037.786     38.766   3.600  9.60945E-01  9.94293E-01 -3.33484E-02
    9038.889     39.869   3.640  9.70723E-01  9.93063E-01 -2.23408E-02
    9040.005     40.985   3.680  9.75374E-01  9.91830E-01 -1.64565E-02
    9041.133     42.112   3.720  9.75027E-01  9.90578E-01 -1.55510E-02
    9042.272     43.252   3.760  9.71090E-01  9.89349E-01 -1.82592E-02
    9043.425     44.405   3.800  9.65495E-01  9.88148E-01 -2.26526E-02
    9044.589     45.569   3.840  9.60097E-01  9.86956E-01 -2.68585E-02
    9045.765     46.745   3.880  9.56298E-01  9.85775E-01 -2.94775E-02
    9046.954     47.934   3.920  9.55032E-01  9.84650E-01 -2.96179E-02
    9048.155     49.135   3.960  9.56640E-01  9.83542E-01 -2.69017E-02
    9049.368     50.348   4.000  9.61074E-01  9.82492E-01 -2.14176E-02
    9050.593     51.573   4.040  9.67965E-01  9.81462E-01 -1.34976E-02
    9051.831     52.811   4.080  9.76891E-01  9.80497E-01 -3.60597E-03
    9053.081     54.061   4.120  9.87236E-01  9.79574E-01  7.66172E-03
    9054.343     55.322   4.160  9.98354E-01  9.78695E-01  1.96596E-02
    9055.617     56.596   4.200  1.00979E+00  9.77882E-01  3.19073E-02
    9056.903     57.883   4.240  1.02137E+00  9.77116E-01  4.42575E-02
    9058.201     59.181   4.280  1.03322E+00  9.76397E-01  5.68178E-02
    9059.512     60.492   4.320  1.04571E+00  9.75747E-01  6.99611E-02
    9060.835     61.815   4.360  1.05898E+00  9.75166E-01  8.38139E-02
    9062.170     63.150   4.400  1.07264E+00  9.74633E-01  9.80039E-02
    9063.517     64.497   4.440  1.08571E+00  9.74146E-01  1.11560E-01
    9064.876     65.856   4.480  1.09664E+00  9.73727E-01  1.22917E-01
    9066.248     67.228   4.520  1.10347E+00  9.73357E-01  1.30115E-01
    9067.632     68.612   4.560  1.10427E+00  9.73054E-01  1.31212E-01
    9069.028     70.008   4.600  1.09781E+00  9.72797E-01  1.25015E-01
    9070.436     71.416   4.640  1.08429E+00  9.72587E-01  1.11703E-01
    9071.856     72.836   4.680  1.06548E+00  9.72443E-01  9.30367E-02
    9073.289     74.269   4.720  1.04412E+00  9.72345E-01  7.17793E-02
    9074.734     75.713   4.760  1.02296E+00  9.72313E-01  5.06507E-02
    9076.190     77.170   4.800  1.00390E+00  9.72302E-01  3.15934E-02
    9077.660     78.640   4.840  9.87833E-01  9.72354E-01  1.54787E-02
    9079.141     80.121   4.880  9.74756E-01  9.72448E-01  2.30728E-03
    9080.634     81.614   4.920  9.64254E-01  9.72583E-01 -8.32880E-03
    9082.140     83.120   4.960  9.55841E-01  9.72757E-01 -1.69163E-02
    9083.658     84.638   5.000  9.49114E-01  9.72969E-01 -2.38553E-02
    9085.188     86.168   5.040  9.43795E-01  9.73217E-01 -2.94219E-02
    9086.730     87.710   5.080  9.39695E-01  9.73478E-01 -3.37832E-02
    9088.285     89.265   5.120  9.36846E-01  9.73795E-01 -3.69497E-02
    9089.852     90.831   5.160  9.35256E-01  9.74124E-01 -3.88682E-02
    9091.430     92.410   5.200  9.34891E-01  9.74461E-01 -3.95697E-02
    9093.021     94.001   5.240  9.35496E-01  9.74826E-01 -3.93304E-02
    9094.625     95.605   5.280  9.36516E-01  9.75198E-01 -3.86818E-02
    9096.240     97.220   5.320  9.37430E-01  9.75595E-01 -3.81649E-02
    9097.868     98.848   5.360  9.37898E-01  9.75975E-01 -3.80761E-02
    9099.508    100.487   5.400  9.37973E-01  9.76378E-01 -3.84050E-02
    9101.160    102.139   5.440  9.37751E-01  9.76783E-01 -3.90324E-02
    9102.824    103.804   5.480  9.37296E-01  9.77188E-01 -3.98920E-02
    9104.500    105.480   5.520  9.36657E-01  9.77591E-01 -4.09339E-02
    9106.189    107.169   5.560  9.36133E-01  9.77990E-01 -4.18563E-02
    9107.890    108.869   5.600  9.36464E-01  9.78361E-01 -4.18972E-02
    9109.603    110.582   5.640  9.38738E-01  9.78726E-01 -3.99880E-02
    9111.328    112.308   5.680  9.43798E-01  9.79084E-01 -3.52865E-02
    9113.065    114.045   5.720  9.51727E-01  9.79412E-01 -2.76846E-02
    9114.815    115.794   5.760  9.61722E-01  9.79731E-01 -1.80082E-02
    9116.576    117.556   5.800  9.72217E-01  9.80017E-01 -7.80037E-03
    9118.350    119.330   5.840  9.81360E-01  9.80292E-01  1.06819E-03
    9120.136    121.116   5.880  9.87231E-01  9.80531E-01  6.69988E-03
    9121.935    122.915   5.920  9.88356E-01  9.80731E-01  7.62533E-03
    9123.745    124.725   5.960  9.84391E-01  9.80886E-01  3.50518E-03
    9125.568    126.548   6.000  9.76283E-01  9.80989E-01 -4.70575E-03
