# # comment:                                                     FEFF 9.9.1  
# # Source:
# # Structure
# # Reduced
# # space
# # abc:
# # angles:
# # sites:
# # POT  SCF 100  7.0000   0, screened core-hole, AFOLP (folp(0)= 1.150)
# # Abs   Z=29 Rmt= 1.277 Rnm= 1.346 K  shell
# # Pot 1 Z=37 Rmt= 2.082 Rnm= 2.135
# # Pot 2 Z=29 Rmt= 1.277 Rnm= 1.346
# # Pot 3 Z=15 Rmt= 0.936 Rnm= 1.153
# # Pot 4 Z= 8 Rmt= 0.871 Rnm= 1.040
# # Gam_ch=1.729E+00 H-L exch Vi= 0.000E+00 Vr= 0.000E+00
# # Mu=-6.269E+00eV kf=2.479E+00 Vint=-1.739E+01eV Rs_int= 1.463
# FMS rfms= 9.0000
# # PATH  Rmax=-1.000,  Keep_limit= 0.00, Heap_limit 0.00  Pwcrit= 2.50%
#  S02=0.950  Temp=   0.00  Debye_temp=   0.00  Global_sig2= 0.00000
#  Energy zero shift, vr, vi    0.00000E+00   0.00000E+00
#  Curved wave amplitude ratio filter   4.000%
#     file         sig2 tot  cw amp ratio   deg  nlegs   reff  inp sig2
#     0/   0 paths used
#  xsedge+ 50, used to normalize mu           2.4846E-04
#  -----------------------------------------------------------------------
#  omega    e    k    mu    mu0     chi     @#
    8983.475    -10.079  -1.000  4.35978E-02  5.36517E-02 -1.00539E-02
    8983.773     -9.780  -0.960  4.60555E-02  5.75868E-02 -1.15313E-02
    8984.060     -9.494  -0.920  4.87026E-02  6.19654E-02 -1.32629E-02
    8984.334     -9.219  -0.880  5.15575E-02  6.68536E-02 -1.52961E-02
    8984.596     -8.957  -0.840  5.46411E-02  7.23284E-02 -1.76873E-02
    8984.846     -8.707  -0.800  5.79760E-02  7.84791E-02 -2.05031E-02
    8985.084     -8.470  -0.760  6.15871E-02  8.54083E-02 -2.38211E-02
    8985.310     -8.244  -0.720  6.55013E-02  9.32322E-02 -2.77308E-02
    8985.523     -8.031  -0.680  6.97464E-02  1.02079E-01 -3.23324E-02
    8985.724     -7.829  -0.640  7.43496E-02  1.12084E-01 -3.77339E-02
    8985.913     -7.640  -0.600  7.93355E-02  1.23380E-01 -4.40441E-02
    8986.090     -7.464  -0.560  8.47208E-02  1.36081E-01 -5.13603E-02
    8986.254     -7.299  -0.520  9.05081E-02  1.50256E-01 -5.97481E-02
    8986.407     -7.147  -0.480  9.66774E-02  1.65891E-01 -6.92140E-02
    8986.547     -7.006  -0.440  1.03175E-01  1.82849E-01 -7.96733E-02
    8986.675     -6.878  -0.400  1.09907E-01  2.00830E-01 -9.09233E-02
    8986.791     -6.763  -0.360  1.16734E-01  2.19369E-01 -1.02635E-01
    8986.894     -6.659  -0.320  1.23479E-01  2.37855E-01 -1.14377E-01
    8986.986     -6.568  -0.280  1.29943E-01  2.55615E-01 -1.25672E-01
    8987.065     -6.488  -0.240  1.35930E-01  2.72001E-01 -1.36071E-01
    8987.132     -6.421  -0.200  1.41265E-01  2.86473E-01 -1.45208E-01
    8987.187     -6.366  -0.160  1.45804E-01  2.98638E-01 -1.52834E-01
    8987.230     -6.324  -0.120  1.49440E-01  3.08248E-01 -1.58808E-01
    8987.260     -6.293  -0.080  1.52100E-01  3.15167E-01 -1.63067E-01
    8987.285     -6.269   0.000  1.54288E-01  3.20723E-01 -1.66435E-01
    8987.339     -6.214   0.120  1.59140E-01  3.33233E-01 -1.74093E-01
    8987.382     -6.171   0.160  1.62942E-01  3.42954E-01 -1.80013E-01
    8987.437     -6.116   0.200  1.67864E-01  3.55340E-01 -1.87476E-01
    8987.504     -6.049   0.240  1.73941E-01  3.70226E-01 -1.96285E-01
    8987.583     -5.970   0.280  1.81163E-01  3.87251E-01 -2.06088E-01
    8987.675     -5.879   0.320  1.89589E-01  4.05999E-01 -2.16411E-01
    8987.778     -5.775   0.360  1.99184E-01  4.25879E-01 -2.26696E-01
    8987.894     -5.659   0.400  2.09947E-01  4.46267E-01 -2.36320E-01
    8988.022     -5.531   0.440  2.21901E-01  4.66612E-01 -2.44711E-01
    8988.162     -5.391   0.480  2.35134E-01  4.86512E-01 -2.51378E-01
    8988.315     -5.239   0.520  2.49766E-01  5.05659E-01 -2.55893E-01
    8988.479     -5.074   0.560  2.66136E-01  5.23930E-01 -2.57794E-01
    8988.656     -4.897   0.600  2.84960E-01  5.41315E-01 -2.56354E-01
    8988.845     -4.708   0.640  3.07441E-01  5.57857E-01 -2.50416E-01
    8989.046     -4.507   0.680  3.35307E-01  5.73661E-01 -2.38354E-01
    8989.260     -4.294   0.720  3.70464E-01  5.88845E-01 -2.18381E-01
    8989.485     -4.068   0.760  4.14314E-01  6.03486E-01 -1.89172E-01
    8989.723     -3.830   0.800  4.66842E-01  6.17694E-01 -1.50852E-01
    8989.973     -3.581   0.840  5.25278E-01  6.31586E-01 -1.06308E-01
    8990.235     -3.318   0.880  5.83418E-01  6.45182E-01 -6.17645E-02
    8990.509     -3.044   0.920  6.33182E-01  6.58550E-01 -2.53679E-02
    8990.796     -2.758   0.960  6.68076E-01  6.71746E-01 -3.66967E-03
    8991.095     -2.459   1.000  6.87283E-01  6.84774E-01  2.50908E-03
    8991.406     -2.148   1.040  6.97239E-01  6.97689E-01 -4.50225E-04
    8991.729     -1.825   1.080  7.07339E-01  7.10477E-01 -3.13783E-03
    8992.064     -1.490   1.120  7.23186E-01  7.23160E-01  2.63303E-05
    8992.411     -1.142   1.160  7.41236E-01  7.35710E-01  5.52614E-03
    8992.771     -0.783   1.200  7.51593E-01  7.48159E-01  3.43472E-03
    8993.143     -0.411   1.240  7.50809E-01  7.60472E-01 -9.66287E-03
    8993.527     -0.027   1.280  7.47979E-01  7.72631E-01 -2.46520E-02
    8993.923      0.370   1.320  7.55812E-01  7.84637E-01 -2.88242E-02
    8994.332      0.778   1.360  7.81072E-01  7.96466E-01 -1.53945E-02
    8994.752      1.199   1.400  8.22115E-01  8.08099E-01  1.40155E-02
    8995.185      1.631   1.440  8.69532E-01  8.19509E-01  5.00237E-02
    8995.630      2.077   1.480  9.11709E-01  8.30710E-01  8.09990E-02
    8996.087      2.534   1.520  9.39118E-01  8.41637E-01  9.74801E-02
    8996.557      3.003   1.560  9.49639E-01  8.52304E-01  9.73349E-02
    8997.038      3.485   1.600  9.60176E-01  8.62686E-01  9.74900E-02
    8997.532      3.978   1.640  9.97908E-01  8.72776E-01  1.25132E-01
    8998.038      4.484   1.680  1.06845E+00  8.82528E-01  1.85922E-01
    8998.556      5.003   1.720  1.14140E+00  8.91957E-01  2.49438E-01
    8999.086      5.533   1.760  1.17478E+00  9.01057E-01  2.73718E-01
    8999.629      6.075   1.800  1.16430E+00  9.09764E-01  2.54536E-01
    9000.184      6.630   1.840  1.13678E+00  9.18135E-01  2.18643E-01
    9000.751      7.197   1.880  1.11223E+00  9.26105E-01  1.86126E-01
    9001.330      7.776   1.920  1.10369E+00  9.33693E-01  1.69997E-01
    9001.921      8.368   1.960  1.11372E+00  9.40898E-01  1.72824E-01
    9002.525      8.971   2.000  1.13381E+00  9.47717E-01  1.86091E-01
    9003.140      9.587   2.040  1.15642E+00  9.54133E-01  2.02284E-01
    9003.768     10.215   2.080  1.17612E+00  9.60166E-01  2.15949E-01
    9004.408     10.855   2.120  1.18552E+00  9.65817E-01  2.19705E-01
    9005.060     11.507   2.160  1.17700E+00  9.71067E-01  2.05931E-01
    9005.725     12.171   2.200  1.14992E+00  9.75941E-01  1.73977E-01
    9006.402     12.848   2.240  1.11481E+00  9.80442E-01  1.34365E-01
    9007.090     13.537   2.280  1.08485E+00  9.84572E-01  1.00279E-01
    9007.791     14.238   2.320  1.06566E+00  9.88358E-01  7.73007E-02
    9008.505     14.951   2.360  1.05571E+00  9.91763E-01  6.39500E-02
    9009.230     15.677   2.400  1.05387E+00  9.94854E-01  5.90143E-02
    9009.968     16.414   2.440  1.06016E+00  9.97598E-01  6.25619E-02
    9010.718     17.164   2.480  1.07210E+00  1.00004E+00  7.20619E-02
    9011.480     17.926   2.520  1.08612E+00  1.00219E+00  8.39361E-02
    9012.254     18.700   2.560  1.09779E+00  1.00402E+00  9.37665E-02
    9013.040     19.487   2.600  1.10032E+00  1.00560E+00  9.47216E-02
    9013.839     20.285   2.640  1.08816E+00  1.00690E+00  8.12645E-02
    9014.649     21.096   2.680  1.06272E+00  1.00795E+00  5.47665E-02
    9015.472     21.919   2.720  1.02971E+00  1.00879E+00  2.09220E-02
    9016.308     22.754   2.760  9.91174E-01  1.00939E+00 -1.82164E-02
    9017.155     23.601   2.800  9.50792E-01  1.00979E+00 -5.89961E-02
    9018.014     24.461   2.840  9.19107E-01  1.01001E+00 -9.09010E-02
    9018.886     25.333   2.880  9.05857E-01  1.01004E+00 -1.04181E-01
    9019.770     26.217   2.920  9.00318E-01  1.00993E+00 -1.09608E-01
    9020.666     27.113   2.960  8.96235E-01  1.00966E+00 -1.13422E-01
    9021.574     28.021   3.000  8.93152E-01  1.00924E+00 -1.16084E-01
    9022.495     28.941   3.040  8.90967E-01  1.00871E+00 -1.17747E-01
    9023.428     29.874   3.080  8.89259E-01  1.00807E+00 -1.18816E-01
    9024.373     30.819   3.120  8.87876E-01  1.00732E+00 -1.19448E-01
    9025.330     31.776   3.160  8.87336E-01  1.00651E+00 -1.19173E-01
    9026.299     32.745   3.200  8.88060E-01  1.00560E+00 -1.17537E-01
    9027.280     33.727   3.240  8.90576E-01  1.00465E+00 -1.14076E-01
    9028.274     34.720   3.280  8.94950E-01  1.00364E+00 -1.08690E-01
    9029.280     35.726   3.320  9.00806E-01  1.00258E+00 -1.01777E-01
    9030.298     36.744   3.360  9.07654E-01  1.00149E+00 -9.38355E-02
    9031.328     37.775   3.400  9.15089E-01  1.00038E+00 -8.52932E-02
    9032.370     38.817   3.440  9.22549E-01  9.99246E-01 -7.66970E-02
    9033.425     39.872   3.480  9.29836E-01  9.98105E-01 -6.82684E-02
    9034.492     40.938   3.520  9.37137E-01  9.96984E-01 -5.98467E-02
    9035.571     42.017   3.560  9.44731E-01  9.95844E-01 -5.11132E-02
    9036.662     43.109   3.600  9.52885E-01  9.94730E-01 -4.18452E-02
    9037.765     44.212   3.640  9.61767E-01  9.93625E-01 -3.18585E-02
    9038.881     45.327   3.680  9.71542E-01  9.92574E-01 -2.10316E-02
    9040.009     46.455   3.720  9.82074E-01  9.91514E-01 -9.44090E-03
    9041.149     47.595   3.760  9.93096E-01  9.90513E-01  2.58330E-03
    9042.301     48.747   3.800  1.00401E+00  9.89552E-01  1.44595E-02
    9043.465     49.912   3.840  1.01396E+00  9.88631E-01  2.53268E-02
    9044.642     51.088   3.880  1.02212E+00  9.87752E-01  3.43688E-02
    9045.830     52.277   3.920  1.02802E+00  9.86938E-01  4.10771E-02
    9047.031     53.478   3.960  1.03150E+00  9.86147E-01  4.53477E-02
    9048.244     54.691   4.000  1.03286E+00  9.85423E-01  4.74337E-02
    9049.470     55.916   4.040  1.03273E+00  9.84768E-01  4.79581E-02
    9050.707     57.154   4.080  1.03183E+00  9.84161E-01  4.76650E-02
    9051.957     58.403   4.120  1.03081E+00  9.83601E-01  4.72065E-02
    9053.219     59.665   4.160  1.03015E+00  9.83111E-01  4.70382E-02
    9054.493     60.939   4.200  1.03008E+00  9.82691E-01  4.73910E-02
    9055.779     62.225   4.240  1.03062E+00  9.82298E-01  4.83189E-02
    9057.077     63.524   4.280  1.03185E+00  9.81995E-01  4.98504E-02
    9058.388     64.835   4.320  1.03380E+00  9.81742E-01  5.20580E-02
    9059.711     66.157   4.360  1.03643E+00  9.81536E-01  5.48932E-02
    9061.046     67.492   4.400  1.03946E+00  9.81398E-01  5.80640E-02
    9062.393     68.840   4.440  1.04230E+00  9.81309E-01  6.09886E-02
    9063.753     70.199   4.480  1.04408E+00  9.81288E-01  6.27937E-02
    9065.124     71.571   4.520  1.04386E+00  9.81311E-01  6.25472E-02
    9066.508     72.954   4.560  1.04100E+00  9.81377E-01  5.96262E-02
    9067.904     74.350   4.600  1.03542E+00  9.81487E-01  5.39355E-02
    9069.312     75.759   4.640  1.02754E+00  9.81659E-01  4.58808E-02
    9070.732     77.179   4.680  1.01804E+00  9.81852E-01  3.61866E-02
    9072.165     78.611   4.720  1.00773E+00  9.82105E-01  2.56218E-02
    9073.610     80.056   4.760  9.97208E-01  9.82376E-01  1.48316E-02
    9075.067     81.513   4.800  9.87093E-01  9.82706E-01  4.38767E-03
    9076.536     82.982   4.840  9.77885E-01  9.83049E-01 -5.16444E-03
    9078.017     84.464   4.880  9.70167E-01  9.83426E-01 -1.32587E-02
    9079.511     85.957   4.920  9.64454E-01  9.83812E-01 -1.93584E-02
    9081.016     87.463   4.960  9.60987E-01  9.84231E-01 -2.32441E-02
    9082.534     88.981   5.000  9.59701E-01  9.84681E-01 -2.49796E-02
    9084.064     90.511   5.040  9.60093E-01  9.85135E-01 -2.50423E-02
    9085.607     92.053   5.080  9.61356E-01  9.85593E-01 -2.42374E-02
    9087.161     93.608   5.120  9.62665E-01  9.86053E-01 -2.33877E-02
    9088.728     95.174   5.160  9.63311E-01  9.86514E-01 -2.32030E-02
    9090.307     96.753   5.200  9.62867E-01  9.86998E-01 -2.41303E-02
    9091.898     98.344   5.240  9.61198E-01  9.87457E-01 -2.62586E-02
    9093.501     99.947   5.280  9.58259E-01  9.87912E-01 -2.96529E-02
    9095.116    101.563   5.320  9.54371E-01  9.88364E-01 -3.39928E-02
    9096.744    103.190   5.360  9.50087E-01  9.88809E-01 -3.87219E-02
    9098.384    104.830   5.400  9.46110E-01  9.89221E-01 -4.31113E-02
    9100.036    106.482   5.440  9.43142E-01  9.89602E-01 -4.64594E-02
    9101.700    108.146   5.480  9.41659E-01  9.89972E-01 -4.83130E-02
    9103.376    109.823   5.520  9.41750E-01  9.90331E-01 -4.85810E-02
    9105.065    111.511   5.560  9.43178E-01  9.90632E-01 -4.74547E-02
    9106.766    113.212   5.600  9.45708E-01  9.90919E-01 -4.52104E-02
    9108.479    114.925   5.640  9.49096E-01  9.91169E-01 -4.20726E-02
    9110.204    116.650   5.680  9.53195E-01  9.91382E-01 -3.81870E-02
    9111.941    118.388   5.720  9.57838E-01  9.91579E-01 -3.37415E-02
    9113.691    120.137   5.760  9.62711E-01  9.91713E-01 -2.90017E-02
    9115.452    121.899   5.800  9.67538E-01  9.91805E-01 -2.42670E-02
    9117.226    123.673   5.840  9.72091E-01  9.91858E-01 -1.97673E-02
    9119.013    125.459   5.880  9.76346E-01  9.91896E-01 -1.55502E-02
    9120.811    127.257   5.920  9.80424E-01  9.91869E-01 -1.14445E-02
    9122.621    129.068   5.960  9.84712E-01  9.91793E-01 -7.08024E-03
    9124.444    130.891   6.000  9.89739E-01  9.91620E-01 -1.88027E-03
