# # comment:                                                     FEFF 9.9.1  
# # Source:
# # Structure
# # Reduced
# # space
# # abc:
# # angles:109.471221
# # sites:
# # POT  SCF 100  7.0000   0, screened core-hole, AFOLP (folp(0)= 1.150)
# # Abs   Z=29 Rmt= 1.140 Rnm= 1.247 K  shell
# # Pot 1 Z=20 Rmt= 1.670 Rnm= 1.710
# # Pot 2 Z=29 Rmt= 1.140 Rnm= 1.247
# # Pot 3 Z=28 Rmt= 1.241 Rnm= 1.340
# # Pot 4 Z= 8 Rmt= 1.016 Rnm= 1.089
# # Gam_ch=1.729E+00 H-L exch Vi= 0.000E+00 Vr= 0.000E+00
# # Mu=-1.092E+01eV kf=2.216E+00 Vint=-1.855E+01eV Rs_int= 1.637
# FMS rfms= 9.0000
# # PATH  Rmax=-1.000,  Keep_limit= 0.00, Heap_limit 0.00  Pwcrit= 2.50%
#  S02=0.950  Temp=   0.00  Debye_temp=   0.00  Global_sig2= 0.00000
#  Energy zero shift, vr, vi    0.00000E+00   0.00000E+00
#  Curved wave amplitude ratio filter   4.000%
#     file         sig2 tot  cw amp ratio   deg  nlegs   reff  inp sig2
#     0/   0 paths used
#  xsedge+ 50, used to normalize mu           2.4771E-04
#  -----------------------------------------------------------------------
#  omega    e    k    mu    mu0     chi     @#
    8984.707    -14.729  -1.000  3.06964E-02  5.07306E-02 -2.00343E-02
    8985.006    -14.430  -0.960  3.20405E-02  5.42914E-02 -2.22508E-02
    8985.293    -14.144  -0.920  3.34688E-02  5.82364E-02 -2.47676E-02
    8985.567    -13.870  -0.880  3.49899E-02  6.26211E-02 -2.76311E-02
    8985.829    -13.607  -0.840  3.66145E-02  6.75099E-02 -3.08954E-02
    8986.079    -13.357  -0.800  3.83548E-02  7.29774E-02 -3.46227E-02
    8986.317    -13.120  -0.760  4.02247E-02  7.91090E-02 -3.88844E-02
    8986.542    -12.894  -0.720  4.22403E-02  8.60010E-02 -4.37607E-02
    8986.756    -12.681  -0.680  4.44194E-02  9.37590E-02 -4.93397E-02
    8986.957    -12.480  -0.640  4.67806E-02  1.02495E-01 -5.57141E-02
    8987.146    -12.291  -0.600  4.93422E-02  1.12317E-01 -6.29750E-02
    8987.322    -12.114  -0.560  5.21188E-02  1.23319E-01 -7.12003E-02
    8987.487    -11.949  -0.520  5.51173E-02  1.35555E-01 -8.04373E-02
    8987.639    -11.797  -0.480  5.83305E-02  1.49010E-01 -9.06790E-02
    8987.780    -11.657  -0.440  6.17304E-02  1.63566E-01 -1.01836E-01
    8987.908    -11.529  -0.400  6.52621E-02  1.78975E-01 -1.13713E-01
    8988.024    -11.413  -0.360  6.88426E-02  1.94842E-01 -1.26000E-01
    8988.127    -11.309  -0.320  7.23667E-02  2.10659E-01 -1.38293E-01
    8988.219    -11.218  -0.280  7.57199E-02  2.25859E-01 -1.50139E-01
    8988.298    -11.139  -0.240  7.87944E-02  2.39896E-01 -1.61101E-01
    8988.365    -11.071  -0.200  8.15020E-02  2.52309E-01 -1.70807E-01
    8988.420    -11.017  -0.160  8.37794E-02  2.62760E-01 -1.78981E-01
    8988.462    -10.974  -0.120  8.55854E-02  2.71029E-01 -1.85444E-01
    8988.493    -10.943  -0.080  8.68946E-02  2.76991E-01 -1.90097E-01
    8988.517    -10.919   0.000  8.79605E-02  2.81786E-01 -1.93825E-01
    8988.572    -10.864   0.120  9.04077E-02  2.92608E-01 -2.02200E-01
    8988.615    -10.822   0.160  9.22755E-02  3.01021E-01 -2.08745E-01
    8988.670    -10.767   0.200  9.46739E-02  3.11798E-01 -2.17124E-01
    8988.737    -10.700   0.240  9.75117E-02  3.24768E-01 -2.27257E-01
    8988.816    -10.620   0.280  1.00801E-01  3.39738E-01 -2.38937E-01
    8988.907    -10.529   0.320  1.04429E-01  3.56336E-01 -2.51907E-01
    8989.011    -10.425   0.360  1.08270E-01  3.74106E-01 -2.65836E-01
    8989.127    -10.309   0.400  1.12169E-01  3.92579E-01 -2.80409E-01
    8989.255    -10.181   0.440  1.15905E-01  4.11328E-01 -2.95423E-01
    8989.395    -10.041   0.480  1.19228E-01  4.30021E-01 -3.10793E-01
    8989.548     -9.889   0.520  1.21794E-01  4.48429E-01 -3.26635E-01
    8989.712     -9.724   0.560  1.23362E-01  4.66454E-01 -3.43092E-01
    8989.889     -9.547   0.600  1.23934E-01  4.84067E-01 -3.60133E-01
    8990.078     -9.359   0.640  1.23849E-01  5.01315E-01 -3.77466E-01
    8990.279     -9.157   0.680  1.23866E-01  5.18255E-01 -3.94390E-01
    8990.492     -8.944   0.720  1.24750E-01  5.34934E-01 -4.10185E-01
    8990.718     -8.718   0.760  1.27247E-01  5.51458E-01 -4.24211E-01
    8990.956     -8.481   0.800  1.31831E-01  5.67882E-01 -4.36051E-01
    8991.206     -8.231   0.840  1.38908E-01  5.84233E-01 -4.45325E-01
    8991.468     -7.969   0.880  1.49024E-01  6.00562E-01 -4.51538E-01
    8991.742     -7.694   0.920  1.62989E-01  6.16872E-01 -4.53883E-01
    8992.029     -7.408   0.960  1.82200E-01  6.33193E-01 -4.50993E-01
    8992.327     -7.109   1.000  2.08906E-01  6.49485E-01 -4.40579E-01
    8992.638     -6.798   1.040  2.46921E-01  6.65782E-01 -4.18862E-01
    8992.961     -6.475   1.080  3.01902E-01  6.82031E-01 -3.80128E-01
    8993.297     -6.140   1.120  3.80305E-01  6.98231E-01 -3.17926E-01
    8993.644     -5.792   1.160  4.81322E-01  7.14340E-01 -2.33019E-01
    8994.004     -5.433   1.200  5.87108E-01  7.30310E-01 -1.43201E-01
    8994.376     -5.061   1.240  6.87519E-01  7.46129E-01 -5.86101E-02
    8994.760     -4.677   1.280  8.06207E-01  7.61747E-01  4.44601E-02
    8995.156     -4.281   1.320  9.28120E-01  7.77150E-01  1.50971E-01
    8995.564     -3.872   1.360  9.54828E-01  7.92261E-01  1.62567E-01
    8995.985     -3.452   1.400  8.48614E-01  8.07047E-01  4.15675E-02
    8996.418     -3.019   1.440  6.98654E-01  8.21511E-01 -1.22858E-01
    8996.863     -2.574   1.480  5.85061E-01  8.35559E-01 -2.50498E-01
    8997.320     -2.116   1.520  5.23481E-01  8.49217E-01 -3.25736E-01
    8997.789     -1.647   1.560  4.98225E-01  8.62412E-01 -3.64187E-01
    8998.271     -1.166   1.600  4.94113E-01  8.75112E-01 -3.81000E-01
    8998.765     -0.672   1.640  5.04722E-01  8.87346E-01 -3.82624E-01
    8999.271     -0.166   1.680  5.26902E-01  8.99022E-01 -3.72121E-01
    8999.789      0.352   1.720  5.61641E-01  9.10177E-01 -3.48536E-01
    9000.319      0.883   1.760  6.20360E-01  9.20783E-01 -3.00423E-01
    9000.862      1.425   1.800  7.08665E-01  9.30815E-01 -2.22150E-01
    9001.416      1.980   1.840  8.22508E-01  9.40270E-01 -1.17763E-01
    9001.983      2.547   1.880  9.44532E-01  9.49149E-01 -4.61647E-03
    9002.562      3.126   1.920  1.02689E+00  9.57449E-01  6.94446E-02
    9003.154      3.717   1.960  1.04757E+00  9.65195E-01  8.23791E-02
    9003.757      4.321   2.000  1.04084E+00  9.72350E-01  6.84882E-02
    9004.373      4.937   2.040  1.06495E+00  9.78958E-01  8.59966E-02
    9005.001      5.564   2.080  1.13482E+00  9.85025E-01  1.49792E-01
    9005.641      6.205   2.120  1.20137E+00  9.90537E-01  2.10832E-01
    9006.293      6.857   2.160  1.22069E+00  9.95544E-01  2.25145E-01
    9006.958      7.521   2.200  1.23303E+00  1.00005E+00  2.32974E-01
    9007.634      8.198   2.240  1.29046E+00  1.00405E+00  2.86411E-01
    9008.323      8.887   2.280  1.37847E+00  1.00762E+00  3.70852E-01
    9009.024      9.588   2.320  1.42168E+00  1.01071E+00  4.10971E-01
    9009.737     10.301   2.360  1.39758E+00  1.01339E+00  3.84192E-01
    9010.463     11.026   2.400  1.35420E+00  1.01567E+00  3.38533E-01
    9011.200     11.764   2.440  1.32113E+00  1.01757E+00  3.03557E-01
    9011.950     12.514   2.480  1.29399E+00  1.01913E+00  2.74858E-01
    9012.712     13.276   2.520  1.26756E+00  1.02034E+00  2.47219E-01
    9013.486     14.050   2.560  1.24909E+00  1.02122E+00  2.27865E-01
    9014.273     14.836   2.600  1.23986E+00  1.02182E+00  2.18039E-01
    9015.071     15.635   2.640  1.22818E+00  1.02217E+00  2.06018E-01
    9015.882     16.446   2.680  1.20852E+00  1.02226E+00  1.86254E-01
    9016.705     17.269   2.720  1.17432E+00  1.02212E+00  1.52198E-01
    9017.540     18.104   2.760  1.12999E+00  1.02178E+00  1.08210E-01
    9018.388     18.951   2.800  1.08590E+00  1.02126E+00  6.46384E-02
    9019.247     19.811   2.840  1.05143E+00  1.02058E+00  3.08494E-02
    9020.119     20.682   2.880  1.02930E+00  1.01973E+00  9.56282E-03
    9021.003     21.566   2.920  1.01666E+00  1.01874E+00 -2.08716E-03
    9021.899     22.462   2.960  1.00905E+00  1.01766E+00 -8.60163E-03
    9022.807     23.371   3.000  1.00233E+00  1.01648E+00 -1.41491E-02
    9023.728     24.291   3.040  9.93866E-01  1.01521E+00 -2.13482E-02
    9024.660     25.224   3.080  9.82821E-01  1.01387E+00 -3.10543E-02
    9025.605     26.169   3.120  9.68942E-01  1.01247E+00 -4.35235E-02
    9026.562     27.126   3.160  9.52195E-01  1.01103E+00 -5.88371E-02
    9027.532     28.095   3.200  9.33514E-01  1.00956E+00 -7.60487E-02
    9028.513     29.077   3.240  9.14706E-01  1.00806E+00 -9.33544E-02
    9029.507     30.070   3.280  8.97518E-01  1.00655E+00 -1.09033E-01
    9030.512     31.076   3.320  8.83089E-01  1.00504E+00 -1.21950E-01
    9031.531     32.094   3.360  8.71739E-01  1.00353E+00 -1.31791E-01
    9032.561     33.124   3.400  8.63223E-01  1.00205E+00 -1.38827E-01
    9033.603     34.167   3.440  8.57094E-01  1.00058E+00 -1.43486E-01
    9034.658     35.221   3.480  8.52977E-01  9.99166E-01 -1.46190E-01
    9035.725     36.288   3.520  8.50338E-01  9.97768E-01 -1.47430E-01
    9036.804     37.367   3.560  8.48587E-01  9.96410E-01 -1.47823E-01
    9037.895     38.458   3.600  8.47627E-01  9.95094E-01 -1.47467E-01
    9038.998     39.562   3.640  8.47929E-01  9.93844E-01 -1.45915E-01
    9040.114     40.677   3.680  8.50274E-01  9.92641E-01 -1.42368E-01
    9041.241     41.805   3.720  8.55432E-01  9.91486E-01 -1.36055E-01
    9042.381     42.945   3.760  8.64107E-01  9.90424E-01 -1.26316E-01
    9043.533     44.097   3.800  8.76419E-01  9.89393E-01 -1.12974E-01
    9044.698     45.261   3.840  8.92031E-01  9.88455E-01 -9.64243E-02
    9045.874     46.438   3.880  9.10048E-01  9.87570E-01 -7.75226E-02
    9047.063     47.627   3.920  9.29285E-01  9.86761E-01 -5.74763E-02
    9048.264     48.828   3.960  9.48150E-01  9.86026E-01 -3.78754E-02
    9049.477     50.041   4.000  9.64924E-01  9.85345E-01 -2.04205E-02
    9050.702     51.266   4.040  9.78328E-01  9.84740E-01 -6.41207E-03
    9051.940     52.503   4.080  9.87842E-01  9.84231E-01  3.61050E-03
    9053.189     53.753   4.120  9.93939E-01  9.83757E-01  1.01819E-02
    9054.451     55.015   4.160  9.98317E-01  9.83378E-01  1.49391E-02
    9055.725     56.289   4.200  1.00318E+00  9.83054E-01  2.01302E-02
    9057.012     57.575   4.240  1.01059E+00  9.82825E-01  2.77654E-02
    9058.310     58.874   4.280  1.02130E+00  9.82628E-01  3.86770E-02
    9059.621     60.184   4.320  1.03459E+00  9.82524E-01  5.20690E-02
    9060.944     61.507   4.360  1.04844E+00  9.82470E-01  6.59712E-02
    9062.279     62.842   4.400  1.06083E+00  9.82463E-01  7.83635E-02
    9063.626     64.189   4.440  1.07048E+00  9.82526E-01  8.79497E-02
    9064.985     65.549   4.480  1.07651E+00  9.82637E-01  9.38702E-02
    9066.357     66.920   4.520  1.07823E+00  9.82816E-01  9.54173E-02
    9067.741     68.304   4.560  1.07516E+00  9.83040E-01  9.21154E-02
    9069.137     69.700   4.600  1.06725E+00  9.83306E-01  8.39457E-02
    9070.545     71.108   4.640  1.05537E+00  9.83615E-01  7.17537E-02
    9071.965     72.529   4.680  1.04164E+00  9.83986E-01  5.76582E-02
    9073.398     73.961   4.720  1.02887E+00  9.84373E-01  4.44986E-02
    9074.842     75.406   4.760  1.01968E+00  9.84796E-01  3.48844E-02
    9076.299     76.863   4.800  1.01554E+00  9.85254E-01  3.02876E-02
    9077.768     78.332   4.840  1.01633E+00  9.85724E-01  3.06072E-02
    9079.250     79.813   4.880  1.02066E+00  9.86226E-01  3.44316E-02
    9080.743     81.307   4.920  1.02662E+00  9.86758E-01  3.98642E-02
    9082.249     82.813   4.960  1.03274E+00  9.87296E-01  4.54431E-02
    9083.767     84.331   5.000  1.03806E+00  9.87838E-01  5.02198E-02
    9085.297     85.861   5.040  1.04165E+00  9.88384E-01  5.32630E-02
    9086.839     87.403   5.080  1.04266E+00  9.88953E-01  5.37122E-02
    9088.394     88.957   5.120  1.04100E+00  9.89501E-01  5.15007E-02
    9089.960     90.524   5.160  1.03761E+00  9.90067E-01  4.75391E-02
    9091.539     92.103   5.200  1.03360E+00  9.90609E-01  4.29909E-02
    9093.130     93.694   5.240  1.02944E+00  9.91145E-01  3.82994E-02
    9094.734     95.297   5.280  1.02435E+00  9.91675E-01  3.26759E-02
    9096.349     96.913   5.320  1.01657E+00  9.92175E-01  2.43912E-02
    9097.977     98.540   5.360  1.00461E+00  9.92664E-01  1.19510E-02
    9099.616    100.180   5.400  9.88436E-01  9.93119E-01 -4.68251E-03
    9101.268    101.832   5.440  9.69683E-01  9.93540E-01 -2.38567E-02
    9102.933    103.496   5.480  9.50768E-01  9.93949E-01 -4.31805E-02
    9104.609    105.173   5.520  9.33689E-01  9.94324E-01 -6.06346E-02
    9106.298    106.861   5.560  9.19645E-01  9.94683E-01 -7.50385E-02
    9107.998    108.562   5.600  9.09358E-01  9.94983E-01 -8.56246E-02
    9109.711    110.275   5.640  9.03578E-01  9.95263E-01 -9.16850E-02
    9111.437    112.000   5.680  9.02801E-01  9.95483E-01 -9.26818E-02
    9113.174    113.738   5.720  9.07123E-01  9.95684E-01 -8.85604E-02
    9114.923    115.487   5.760  9.15934E-01  9.95821E-01 -7.98868E-02
    9116.685    117.249   5.800  9.28124E-01  9.95940E-01 -6.78153E-02
    9118.459    119.023   5.840  9.42226E-01  9.95994E-01 -5.37683E-02
    9120.245    120.809   5.880  9.57019E-01  9.96005E-01 -3.89858E-02
    9122.044    122.607   5.920  9.71826E-01  9.95973E-01 -2.41470E-02
    9123.854    124.418   5.960  9.86565E-01  9.95894E-01 -9.32935E-03
    9125.677    126.240   6.000  1.00124E+00  9.95744E-01  5.50129E-03
