# # comment:                                                     FEFF 9.9.1  
# # Source:
# # Structure
# # Reduced
# # space
# # abc:
# # angles:
# # sites:
# # POT  SCF 100  7.0000   0, screened core-hole, AFOLP (folp(0)= 1.150)
# # Abs   Z=29 Rmt= 1.122 Rnm= 1.329 K  shell
# # Pot 1 Z=11 Rmt= 1.511 Rnm= 1.599
# # Pot 2 Z=29 Rmt= 1.122 Rnm= 1.329
# # Pot 3 Z= 8 Rmt= 1.070 Rnm= 1.149
# # Gam_ch=1.729E+00 H-L exch Vi= 0.000E+00 Vr= 0.000E+00
# # Mu=-8.640E+00eV kf=1.802E+00 Vint=-1.394E+01eV Rs_int= 2.012
# FMS rfms= 9.0000
# # PATH  Rmax=-1.000,  Keep_limit= 0.00, Heap_limit 0.00  Pwcrit= 2.50%
#  S02=0.950  Temp=   0.00  Debye_temp=   0.00  Global_sig2= 0.00000
#  Energy zero shift, vr, vi    0.00000E+00   0.00000E+00
#  Curved wave amplitude ratio filter   4.000%
#     file         sig2 tot  cw amp ratio   deg  nlegs   reff  inp sig2
#     0/   0 paths used
#  xsedge+ 50, used to normalize mu           2.4169E-04
#  -----------------------------------------------------------------------
#  omega    e    k    mu    mu0     chi     @#
    8984.207    -12.450  -1.000  3.92914E-02  5.21000E-02 -1.28086E-02
    8984.505    -12.151  -0.960  4.14579E-02  5.56565E-02 -1.41986E-02
    8984.792    -11.864  -0.920  4.37956E-02  5.95807E-02 -1.57851E-02
    8985.066    -11.590  -0.880  4.63216E-02  6.39235E-02 -1.76020E-02
    8985.328    -11.328  -0.840  4.90542E-02  6.87439E-02 -1.96897E-02
    8985.578    -11.078  -0.800  5.20134E-02  7.41096E-02 -2.20962E-02
    8985.816    -10.840  -0.760  5.52202E-02  8.00982E-02 -2.48780E-02
    8986.042    -10.615  -0.720  5.86961E-02  8.67963E-02 -2.81002E-02
    8986.255    -10.401  -0.680  6.24626E-02  9.42990E-02 -3.18364E-02
    8986.456    -10.200  -0.640  6.65394E-02  1.02706E-01 -3.61665E-02
    8986.645    -10.011  -0.600  7.09423E-02  1.12113E-01 -4.11711E-02
    8986.822     -9.834  -0.560  7.56806E-02  1.22603E-01 -4.69223E-02
    8986.986     -9.670  -0.520  8.07527E-02  1.34220E-01 -5.34675E-02
    8987.139     -9.518  -0.480  8.61411E-02  1.46949E-01 -6.08078E-02
    8987.279     -9.377  -0.440  9.18068E-02  1.60679E-01 -6.88721E-02
    8987.407     -9.249  -0.400  9.76842E-02  1.75180E-01 -7.74962E-02
    8987.523     -9.133  -0.360  1.03678E-01  1.90095E-01 -8.64168E-02
    8987.626     -9.030  -0.320  1.09664E-01  2.04957E-01 -9.52924E-02
    8987.718     -8.938  -0.280  1.15495E-01  2.19246E-01 -1.03751E-01
    8987.797     -8.859  -0.240  1.21008E-01  2.32459E-01 -1.11451E-01
    8987.864     -8.792  -0.200  1.26037E-01  2.44166E-01 -1.18129E-01
    8987.919     -8.737  -0.160  1.30422E-01  2.54043E-01 -1.23621E-01
    8987.962     -8.695  -0.120  1.34019E-01  2.61875E-01 -1.27857E-01
    8987.992     -8.664  -0.080  1.36706E-01  2.67534E-01 -1.30827E-01
    8988.017     -8.640   0.000  1.38981E-01  2.72093E-01 -1.33111E-01
    8988.071     -8.585   0.120  1.44206E-01  2.82398E-01 -1.38192E-01
    8988.114     -8.542   0.160  1.48325E-01  2.90437E-01 -1.42112E-01
    8988.169     -8.487   0.200  1.53810E-01  3.00773E-01 -1.46963E-01
    8988.236     -8.420   0.240  1.60843E-01  3.13297E-01 -1.52454E-01
    8988.315     -8.341   0.280  1.69659E-01  3.27853E-01 -1.58195E-01
    8988.407     -8.250   0.320  1.80521E-01  3.44147E-01 -1.63625E-01
    8988.510     -8.146   0.360  1.93784E-01  3.61826E-01 -1.68043E-01
    8988.626     -8.030   0.400  2.09783E-01  3.80493E-01 -1.70711E-01
    8988.754     -7.902   0.440  2.28878E-01  3.99837E-01 -1.70959E-01
    8988.894     -7.762   0.480  2.51147E-01  4.19544E-01 -1.68397E-01
    8989.047     -7.609   0.520  2.76199E-01  4.39421E-01 -1.63222E-01
    8989.211     -7.445   0.560  3.02828E-01  4.59404E-01 -1.56576E-01
    8989.388     -7.268   0.600  3.28767E-01  4.79441E-01 -1.50674E-01
    8989.577     -7.079   0.640  3.51270E-01  4.99566E-01 -1.48296E-01
    8989.778     -6.878   0.680  3.68147E-01  5.19793E-01 -1.51646E-01
    8989.992     -6.665   0.720  3.78790E-01  5.40182E-01 -1.61392E-01
    8990.217     -6.439   0.760  3.84036E-01  5.60769E-01 -1.76733E-01
    8990.455     -6.201   0.800  3.85871E-01  5.81518E-01 -1.95647E-01
    8990.705     -5.951   0.840  3.87640E-01  6.02483E-01 -2.14843E-01
    8990.967     -5.689   0.880  3.93371E-01  6.23625E-01 -2.30254E-01
    8991.241     -5.415   0.920  4.06597E-01  6.44914E-01 -2.38317E-01
    8991.528     -5.128   0.960  4.29424E-01  6.66306E-01 -2.36882E-01
    8991.827     -4.830   1.000  4.62280E-01  6.87751E-01 -2.25471E-01
    8992.137     -4.519   1.040  5.03210E-01  7.09169E-01 -2.05959E-01
    8992.461     -4.196   1.080  5.46159E-01  7.30516E-01 -1.84357E-01
    8992.796     -3.860   1.120  5.81203E-01  7.51703E-01 -1.70499E-01
    8993.143     -3.513   1.160  6.00965E-01  7.72633E-01 -1.71669E-01
    8993.503     -3.153   1.200  6.06886E-01  7.93232E-01 -1.86346E-01
    8993.875     -2.781   1.240  6.05854E-01  8.13400E-01 -2.07546E-01
    8994.259     -2.397   1.280  6.02934E-01  8.33105E-01 -2.30171E-01
    8994.655     -2.001   1.320  5.98762E-01  8.52208E-01 -2.53446E-01
    8995.064     -1.593   1.360  5.93919E-01  8.70697E-01 -2.76778E-01
    8995.484     -1.172   1.400  5.92654E-01  8.88459E-01 -2.95805E-01
    8995.917     -0.739   1.440  6.00912E-01  9.05446E-01 -3.04534E-01
    8996.362     -0.294   1.480  6.23093E-01  9.21614E-01 -2.98521E-01
    8996.819      0.163   1.520  6.61255E-01  9.36923E-01 -2.75668E-01
    8997.289      0.632   1.560  7.14094E-01  9.51335E-01 -2.37241E-01
    8997.770      1.114   1.600  7.73043E-01  9.64819E-01 -1.91776E-01
    8998.264      1.608   1.640  8.23625E-01  9.77369E-01 -1.53743E-01
    8998.770      2.114   1.680  8.63230E-01  9.88957E-01 -1.25727E-01
    8999.288      2.632   1.720  8.99289E-01  9.99586E-01 -1.00297E-01
    8999.818      3.162   1.760  9.35376E-01  1.00928E+00 -7.39049E-02
    9000.361      3.705   1.800  9.71058E-01  1.01805E+00 -4.69905E-02
    9000.916      4.259   1.840  1.00509E+00  1.02590E+00 -2.08121E-02
    9001.483      4.826   1.880  1.03741E+00  1.03285E+00  4.55673E-03
    9002.062      5.405   1.920  1.06945E+00  1.03897E+00  3.04797E-02
    9002.653      5.997   1.960  1.10234E+00  1.04425E+00  5.80944E-02
    9003.257      6.600   2.000  1.13522E+00  1.04876E+00  8.64639E-02
    9003.872      7.216   2.040  1.16548E+00  1.05254E+00  1.12942E-01
    9004.500      7.844   2.080  1.19018E+00  1.05559E+00  1.34587E-01
    9005.140      8.484   2.120  1.20760E+00  1.05801E+00  1.49592E-01
    9005.792      9.136   2.160  1.22110E+00  1.05980E+00  1.61295E-01
    9006.457      9.801   2.200  1.23842E+00  1.06102E+00  1.77404E-01
    9007.134     10.477   2.240  1.26171E+00  1.06172E+00  1.99991E-01
    9007.822     11.166   2.280  1.28495E+00  1.06196E+00  2.22993E-01
    9008.523     11.867   2.320  1.29716E+00  1.06175E+00  2.35416E-01
    9009.237     12.580   2.360  1.29249E+00  1.06113E+00  2.31364E-01
    9009.962     13.306   2.400  1.27033E+00  1.06016E+00  2.10168E-01
    9010.700     14.043   2.440  1.23463E+00  1.05889E+00  1.75735E-01
    9011.450     14.793   2.480  1.19395E+00  1.05732E+00  1.36632E-01
    9012.212     15.555   2.520  1.15441E+00  1.05551E+00  9.88974E-02
    9012.986     16.329   2.560  1.11854E+00  1.05350E+00  6.50409E-02
    9013.772     17.116   2.600  1.08766E+00  1.05131E+00  3.63453E-02
    9014.571     17.914   2.640  1.06240E+00  1.04896E+00  1.34357E-02
    9015.381     18.725   2.680  1.04331E+00  1.04649E+00 -3.17611E-03
    9016.204     19.548   2.720  1.03074E+00  1.04393E+00 -1.31815E-02
    9017.040     20.383   2.760  1.02437E+00  1.04128E+00 -1.69080E-02
    9017.887     21.231   2.800  1.02335E+00  1.03859E+00 -1.52450E-02
    9018.746     22.090   2.840  1.02640E+00  1.03586E+00 -9.46213E-03
    9019.618     22.962   2.880  1.03159E+00  1.03313E+00 -1.54201E-03
    9020.502     23.846   2.920  1.03627E+00  1.03042E+00  5.85064E-03
    9021.398     24.742   2.960  1.03822E+00  1.02769E+00  1.05298E-02
    9022.306     25.650   3.000  1.03636E+00  1.02503E+00  1.13302E-02
    9023.227     26.571   3.040  1.03069E+00  1.02241E+00  8.28032E-03
    9024.160     27.503   3.080  1.02246E+00  1.01986E+00  2.59363E-03
    9025.105     28.448   3.120  1.01347E+00  1.01737E+00 -3.90415E-03
    9026.062     29.405   3.160  1.00539E+00  1.01496E+00 -9.57272E-03
    9027.031     30.375   3.200  9.99308E-01  1.01266E+00 -1.33479E-02
    9028.012     31.356   3.240  9.95726E-01  1.01044E+00 -1.47167E-02
    9029.006     32.350   3.280  9.94508E-01  1.00832E+00 -1.38126E-02
    9030.012     33.355   3.320  9.95114E-01  1.00634E+00 -1.12241E-02
    9031.030     34.374   3.360  9.96703E-01  1.00445E+00 -7.75061E-03
    9032.060     35.404   3.400  9.98262E-01  1.00269E+00 -4.42623E-03
    9033.102     36.446   3.440  9.98349E-01  1.00105E+00 -2.69646E-03
    9034.157     37.501   3.480  9.95413E-01  9.99528E-01 -4.11554E-03
    9035.224     38.568   3.520  9.88271E-01  9.98134E-01 -9.86384E-03
    9036.303     39.647   3.560  9.76560E-01  9.96867E-01 -2.03064E-02
    9037.394     40.738   3.600  9.60850E-01  9.95748E-01 -3.48981E-02
    9038.497     41.841   3.640  9.42433E-01  9.94735E-01 -5.23023E-02
    9039.613     42.957   3.680  9.23188E-01  9.93871E-01 -7.06825E-02
    9040.741     44.084   3.720  9.04909E-01  9.93156E-01 -8.82472E-02
    9041.881     45.224   3.760  8.89049E-01  9.92547E-01 -1.03498E-01
    9043.033     46.376   3.800  8.76735E-01  9.92062E-01 -1.15327E-01
    9044.197     47.541   3.840  8.68724E-01  9.91724E-01 -1.23000E-01
    9045.374     48.717   3.880  8.65653E-01  9.91510E-01 -1.25857E-01
    9046.562     49.906   3.920  8.68122E-01  9.91398E-01 -1.23276E-01
    9047.763     51.107   3.960  8.76392E-01  9.91427E-01 -1.15036E-01
    9048.976     52.320   4.000  8.90003E-01  9.91556E-01 -1.01553E-01
    9050.202     53.545   4.040  9.07876E-01  9.91802E-01 -8.39262E-02
    9051.439     54.783   4.080  9.28499E-01  9.92164E-01 -6.36647E-02
    9052.689     56.033   4.120  9.50133E-01  9.92619E-01 -4.24854E-02
    9053.951     57.294   4.160  9.71117E-01  9.93186E-01 -2.20695E-02
    9055.225     58.568   4.200  9.89940E-01  9.93842E-01 -3.90170E-03
    9056.511     59.855   4.240  1.00546E+00  9.94582E-01  1.08822E-02
    9057.809     61.153   4.280  1.01723E+00  9.95407E-01  2.18218E-02
    9059.120     62.464   4.320  1.02578E+00  9.96335E-01  2.94443E-02
    9060.443     63.787   4.360  1.03239E+00  9.97318E-01  3.50768E-02
    9061.778     65.122   4.400  1.03871E+00  9.98355E-01  4.03573E-02
    9063.125     66.469   4.440  1.04611E+00  9.99485E-01  4.66219E-02
    9064.485     67.828   4.480  1.05499E+00  1.00064E+00  5.43428E-02
    9065.856     69.200   4.520  1.06467E+00  1.00187E+00  6.28033E-02
    9067.240     70.584   4.560  1.07338E+00  1.00313E+00  7.02450E-02
    9068.636     71.980   4.600  1.07898E+00  1.00444E+00  7.45443E-02
    9070.044     73.388   4.640  1.08002E+00  1.00575E+00  7.42680E-02
    9071.464     74.808   4.680  1.07661E+00  1.00710E+00  6.95060E-02
    9072.897     76.241   4.720  1.07022E+00  1.00848E+00  6.17419E-02
    9074.342     77.685   4.760  1.06264E+00  1.00984E+00  5.28001E-02
    9075.799     79.142   4.800  1.05496E+00  1.01123E+00  4.37311E-02
    9077.268     80.611   4.840  1.04720E+00  1.01261E+00  3.45925E-02
    9078.749     82.093   4.880  1.03906E+00  1.01396E+00  2.50944E-02
    9080.243     83.586   4.920  1.03072E+00  1.01531E+00  1.54089E-02
    9081.748     85.092   4.960  1.02315E+00  1.01665E+00  6.50237E-03
    9083.266     86.610   5.000  1.01765E+00  1.01795E+00 -3.01654E-04
    9084.796     88.140   5.040  1.01532E+00  1.01921E+00 -3.89072E-03
    9086.339     89.682   5.080  1.01667E+00  1.02043E+00 -3.75649E-03
    9087.893     91.237   5.120  1.02145E+00  1.02158E+00 -1.21547E-04
    9089.460     92.803   5.160  1.02886E+00  1.02270E+00  6.15897E-03
    9091.039     94.382   5.200  1.03747E+00  1.02376E+00  1.37075E-02
    9092.630     95.973   5.240  1.04554E+00  1.02476E+00  2.07821E-02
    9094.233     97.577   5.280  1.05129E+00  1.02569E+00  2.55999E-02
    9095.848     99.192   5.320  1.05366E+00  1.02654E+00  2.71137E-02
    9097.476    100.820   5.360  1.05296E+00  1.02734E+00  2.56223E-02
    9099.116    102.459   5.400  1.05062E+00  1.02806E+00  2.25658E-02
    9100.768    104.111   5.440  1.04825E+00  1.02869E+00  1.95627E-02
    9102.432    105.776   5.480  1.04674E+00  1.02921E+00  1.75259E-02
    9104.108    107.452   5.520  1.04590E+00  1.02968E+00  1.62183E-02
    9105.797    109.141   5.560  1.04441E+00  1.03006E+00  1.43485E-02
    9107.498    110.841   5.600  1.04065E+00  1.03033E+00  1.03235E-02
    9109.211    112.554   5.640  1.03391E+00  1.03052E+00  3.39288E-03
    9110.936    114.280   5.680  1.02497E+00  1.03065E+00 -5.67239E-03
    9112.673    116.017   5.720  1.01574E+00  1.03066E+00 -1.49199E-02
    9114.423    117.766   5.760  1.00846E+00  1.03057E+00 -2.21074E-02
    9116.184    119.528   5.800  1.00471E+00  1.03042E+00 -2.57076E-02
    9117.958    121.302   5.840  1.00451E+00  1.03019E+00 -2.56799E-02
    9119.745    123.088   5.880  1.00635E+00  1.02985E+00 -2.34978E-02
    9121.543    124.887   5.920  1.00813E+00  1.02946E+00 -2.13267E-02
    9123.353    126.697   5.960  1.00802E+00  1.02895E+00 -2.09254E-02
    9125.176    128.520   6.000  1.00533E+00  1.02831E+00 -2.29832E-02
