# # comment:                                                     FEFF 9.9.1  
# # Source:
# # Structure
# # Reduced
# # space
# # abc:
# # angles:
# # sites:
# # POT  SCF 100  7.0000   0, screened core-hole, AFOLP (folp(0)= 1.150)
# # Abs   Z=29 Rmt= 1.233 Rnm= 1.338 K  shell
# # Pot 1 Z=29 Rmt= 1.233 Rnm= 1.338
# # Pot 2 Z=46 Rmt= 1.332 Rnm= 1.412
# # Pot 3 Z= 8 Rmt= 1.031 Rnm= 1.106
# # Gam_ch=1.729E+00 H-L exch Vi= 0.000E+00 Vr= 0.000E+00
# # Mu=-5.144E+00eV kf=2.171E+00 Vint=-1.396E+01eV Rs_int= 1.670
# FMS rfms= 9.0000
# # PATH  Rmax=-1.000,  Keep_limit= 0.00, Heap_limit 0.00  Pwcrit= 2.50%
#  S02=0.950  Temp=   0.00  Debye_temp=   0.00  Global_sig2= 0.00000
#  Energy zero shift, vr, vi    0.00000E+00   0.00000E+00
#  Curved wave amplitude ratio filter   4.000%
#     file         sig2 tot  cw amp ratio   deg  nlegs   reff  inp sig2
#     0/   0 paths used
#  xsedge+ 50, used to normalize mu           2.4284E-04
#  -----------------------------------------------------------------------
#  omega    e    k    mu    mu0     chi     @#
    8983.382     -8.953  -1.000  4.45198E-02  5.84483E-02 -1.39285E-02
    8983.681     -8.655  -0.960  4.73415E-02  6.28078E-02 -1.54662E-02
    8983.967     -8.368  -0.920  5.04514E-02  6.76600E-02 -1.72086E-02
    8984.242     -8.094  -0.880  5.38905E-02  7.30782E-02 -1.91877E-02
    8984.504     -7.832  -0.840  5.77065E-02  7.91475E-02 -2.14410E-02
    8984.754     -7.582  -0.800  6.19539E-02  8.59665E-02 -2.40125E-02
    8984.991     -7.344  -0.760  6.66952E-02  9.36484E-02 -2.69532E-02
    8985.217     -7.119  -0.720  7.19999E-02  1.02321E-01 -3.03215E-02
    8985.430     -6.905  -0.680  7.79439E-02  1.12126E-01 -3.41825E-02
    8985.632     -6.704  -0.640  8.46064E-02  1.23213E-01 -3.86062E-02
    8985.821     -6.515  -0.600  9.20641E-02  1.35726E-01 -4.36621E-02
    8985.997     -6.338  -0.560  1.00382E-01  1.49792E-01 -4.94109E-02
    8986.162     -6.174  -0.520  1.09596E-01  1.65486E-01 -5.58899E-02
    8986.314     -6.021  -0.480  1.19698E-01  1.82792E-01 -6.30936E-02
    8986.455     -5.881  -0.440  1.30606E-01  2.01557E-01 -7.09505E-02
    8986.583     -5.753  -0.400  1.42150E-01  2.21454E-01 -7.93043E-02
    8986.698     -5.637  -0.360  1.54058E-01  2.41967E-01 -8.79093E-02
    8986.802     -5.534  -0.320  1.65976E-01  2.62426E-01 -9.64496E-02
    8986.893     -5.442  -0.280  1.77503E-01  2.82086E-01 -1.04583E-01
    8986.973     -5.363  -0.240  1.88239E-01  3.00232E-01 -1.11993E-01
    8987.040     -5.296  -0.200  1.97831E-01  3.16266E-01 -1.18435E-01
    8987.095     -5.241  -0.160  2.05997E-01  3.29751E-01 -1.23755E-01
    8987.137     -5.198  -0.120  2.12532E-01  3.40409E-01 -1.27877E-01
    8987.168     -5.168  -0.080  2.17298E-01  3.48085E-01 -1.30786E-01
    8987.192     -5.144   0.000  2.21192E-01  3.54249E-01 -1.33057E-01
    8987.247     -5.089   0.120  2.29923E-01  3.68159E-01 -1.38236E-01
    8987.290     -5.046   0.160  2.36768E-01  3.78955E-01 -1.42186E-01
    8987.345     -4.991   0.200  2.45675E-01  3.92740E-01 -1.47065E-01
    8987.412     -4.924   0.240  2.56652E-01  4.09303E-01 -1.52651E-01
    8987.491     -4.845   0.280  2.69713E-01  4.28307E-01 -1.58594E-01
    8987.582     -4.753   0.320  2.84883E-01  4.49280E-01 -1.64397E-01
    8987.686     -4.650   0.360  3.02106E-01  4.71550E-01 -1.69444E-01
    8987.802     -4.534   0.400  3.21367E-01  4.94486E-01 -1.73118E-01
    8987.930     -4.406   0.440  3.42590E-01  5.17496E-01 -1.74906E-01
    8988.070     -4.266   0.480  3.65361E-01  5.40077E-01 -1.74716E-01
    8988.222     -4.113   0.520  3.88657E-01  5.61936E-01 -1.73279E-01
    8988.387     -3.949   0.560  4.10375E-01  5.82915E-01 -1.72540E-01
    8988.564     -3.772   0.600  4.27421E-01  6.02998E-01 -1.75577E-01
    8988.753     -3.583   0.640  4.36675E-01  6.22205E-01 -1.85530E-01
    8988.954     -3.382   0.680  4.37027E-01  6.40618E-01 -2.03591E-01
    8989.167     -3.168   0.720  4.30530E-01  6.58336E-01 -2.27806E-01
    8989.393     -2.943   0.760  4.21069E-01  6.75476E-01 -2.54407E-01
    8989.631     -2.705   0.800  4.11908E-01  6.92104E-01 -2.80195E-01
    8989.880     -2.455   0.840  4.04574E-01  7.08290E-01 -3.03716E-01
    8990.143     -2.193   0.880  3.98731E-01  7.24092E-01 -3.25361E-01
    8990.417     -1.919   0.920  3.92751E-01  7.39529E-01 -3.46778E-01
    8990.703     -1.632   0.960  3.84948E-01  7.54651E-01 -3.69703E-01
    8991.002     -1.334   1.000  3.73998E-01  7.69433E-01 -3.95435E-01
    8991.313     -1.023   1.040  3.60279E-01  7.83924E-01 -4.23645E-01
    8991.636     -0.700   1.080  3.48110E-01  7.98059E-01 -4.49949E-01
    8991.971     -0.364   1.120  3.44073E-01  8.11894E-01 -4.67821E-01
    8992.319     -0.017   1.160  3.51986E-01  8.25352E-01 -4.73366E-01
    8992.678      0.343   1.200  3.72025E-01  8.38439E-01 -4.66414E-01
    8993.050      0.715   1.240  4.02422E-01  8.51155E-01 -4.48733E-01
    8993.434      1.099   1.280  4.40500E-01  8.63438E-01 -4.22938E-01
    8993.831      1.495   1.320  4.83009E-01  8.75304E-01 -3.92296E-01
    8994.239      1.903   1.360  5.28229E-01  8.86713E-01 -3.58484E-01
    8994.660      2.324   1.400  5.79596E-01  8.97638E-01 -3.18042E-01
    8995.092      2.757   1.440  6.43229E-01  9.08076E-01 -2.64847E-01
    8995.538      3.202   1.480  7.21714E-01  9.18025E-01 -1.96311E-01
    8995.995      3.659   1.520  8.13077E-01  9.27442E-01 -1.14365E-01
    8996.464      4.128   1.560  9.17601E-01  9.36347E-01 -1.87459E-02
    8996.946      4.610   1.600  1.04813E+00  9.44740E-01  1.03385E-01
    8997.439      5.104   1.640  1.20406E+00  9.52581E-01  2.51481E-01
    8997.945      5.610   1.680  1.33940E+00  9.59913E-01  3.79486E-01
    8998.464      6.128   1.720  1.41492E+00  9.66700E-01  4.48225E-01
    8998.994      6.658   1.760  1.44711E+00  9.72963E-01  4.74150E-01
    8999.536      7.201   1.800  1.45912E+00  9.78733E-01  4.80384E-01
    9000.091      7.756   1.840  1.46028E+00  9.83996E-01  4.76288E-01
    9000.658      8.322   1.880  1.45462E+00  9.88778E-01  4.65837E-01
    9001.237      8.902   1.920  1.45482E+00  9.93067E-01  4.61751E-01
    9001.829      9.493   1.960  1.46759E+00  9.96915E-01  4.70678E-01
    9002.432     10.096   2.000  1.48005E+00  1.00033E+00  4.79715E-01
    9003.048     10.712   2.040  1.45720E+00  1.00333E+00  4.53872E-01
    9003.676     11.340   2.080  1.37065E+00  1.00594E+00  3.64716E-01
    9004.316     11.980   2.120  1.25110E+00  1.00817E+00  2.42929E-01
    9004.968     12.632   2.160  1.14142E+00  1.01005E+00  1.31368E-01
    9005.632     13.297   2.200  1.06550E+00  1.01160E+00  5.39057E-02
    9006.309     13.973   2.240  1.03634E+00  1.01282E+00  2.35210E-02
    9006.998     14.662   2.280  1.05218E+00  1.01377E+00  3.84084E-02
    9007.699     15.363   2.320  1.08967E+00  1.01446E+00  7.52058E-02
    9008.412     16.077   2.360  1.11198E+00  1.01488E+00  9.70936E-02
    9009.138     16.802   2.400  1.10159E+00  1.01511E+00  8.64823E-02
    9009.875     17.540   2.440  1.06813E+00  1.01513E+00  5.30046E-02
    9010.625     18.289   2.480  1.02607E+00  1.01495E+00  1.11198E-02
    9011.387     19.051   2.520  9.90899E-01  1.01463E+00 -2.37334E-02
    9012.161     19.826   2.560  9.73937E-01  1.01418E+00 -4.02399E-02
    9012.948     20.612   2.600  9.86757E-01  1.01357E+00 -2.68176E-02
    9013.746     21.411   2.640  1.01187E+00  1.01289E+00 -1.02282E-03
    9014.557     22.221   2.680  1.03509E+00  1.01211E+00  2.29863E-02
    9015.380     23.044   2.720  1.04918E+00  1.01124E+00  3.79423E-02
    9016.215     23.879   2.760  1.05096E+00  1.01031E+00  4.06463E-02
    9017.062     24.727   2.800  1.03995E+00  1.00934E+00  3.06078E-02
    9017.922     25.586   2.840  1.01837E+00  1.00834E+00  1.00375E-02
    9018.794     26.458   2.880  9.91647E-01  1.00729E+00 -1.56464E-02
    9019.678     27.342   2.920  9.65026E-01  1.00627E+00 -4.12391E-02
    9020.574     28.238   2.960  9.41681E-01  1.00522E+00 -6.35343E-02
    9021.482     29.146   3.000  9.22424E-01  1.00419E+00 -8.17667E-02
    9022.402     30.067   3.040  9.06625E-01  1.00320E+00 -9.65715E-02
    9023.335     31.000   3.080  8.93416E-01  1.00221E+00 -1.08797E-01
    9024.280     31.944   3.120  8.82059E-01  1.00126E+00 -1.19205E-01
    9025.237     32.901   3.160  8.71690E-01  1.00036E+00 -1.28666E-01
    9026.206     33.871   3.200  8.62065E-01  9.99492E-01 -1.37426E-01
    9027.188     34.852   3.240  8.53973E-01  9.98693E-01 -1.44720E-01
    9028.181     35.846   3.280  8.48430E-01  9.97942E-01 -1.49511E-01
    9029.187     36.852   3.320  8.46459E-01  9.97241E-01 -1.50781E-01
    9030.205     37.870   3.360  8.48810E-01  9.96611E-01 -1.47801E-01
    9031.236     38.900   3.400  8.55671E-01  9.96058E-01 -1.40387E-01
    9032.278     39.942   3.440  8.66568E-01  9.95581E-01 -1.29013E-01
    9033.333     40.997   3.480  8.80691E-01  9.95160E-01 -1.14469E-01
    9034.399     42.064   3.520  8.96885E-01  9.94838E-01 -9.79532E-02
    9035.478     43.143   3.560  9.13623E-01  9.94572E-01 -8.09494E-02
    9036.570     44.234   3.600  9.29725E-01  9.94384E-01 -6.46586E-02
    9037.673     45.337   3.640  9.44511E-01  9.94274E-01 -4.97627E-02
    9038.788     46.453   3.680  9.57576E-01  9.94242E-01 -3.66659E-02
    9039.916     47.581   3.720  9.68655E-01  9.94267E-01 -2.56118E-02
    9041.056     48.721   3.760  9.77722E-01  9.94389E-01 -1.66675E-02
    9042.208     49.873   3.800  9.84763E-01  9.94567E-01 -9.80417E-03
    9043.373     51.037   3.840  9.90274E-01  9.94821E-01 -4.54706E-03
    9044.549     52.214   3.880  9.95366E-01  9.95128E-01  2.37140E-04
    9045.738     53.402   3.920  1.00185E+00  9.95532E-01  6.31748E-03
    9046.939     54.603   3.960  1.01161E+00  9.95987E-01  1.56184E-02
    9048.152     55.816   4.000  1.02613E+00  9.96490E-01  2.96439E-02
    9049.377     57.042   4.040  1.04613E+00  9.97061E-01  4.90680E-02
    9050.615     58.279   4.080  1.07098E+00  9.97680E-01  7.32978E-02
    9051.864     59.529   4.120  1.09820E+00  9.98342E-01  9.98629E-02
    9053.126     60.791   4.160  1.12370E+00  9.99048E-01  1.24649E-01
    9054.400     62.065   4.200  1.14263E+00  9.99816E-01  1.42812E-01
    9055.686     63.351   4.240  1.15152E+00  1.00060E+00  1.50919E-01
    9056.985     64.649   4.280  1.14975E+00  1.00145E+00  1.48304E-01
    9058.296     65.960   4.320  1.13867E+00  1.00231E+00  1.36367E-01
    9059.618     67.283   4.360  1.12061E+00  1.00318E+00  1.17437E-01
    9060.953     68.618   4.400  1.09804E+00  1.00408E+00  9.39655E-02
    9062.301     69.965   4.440  1.07338E+00  1.00500E+00  6.83722E-02
    9063.660     71.324   4.480  1.04896E+00  1.00594E+00  4.30259E-02
    9065.032     72.696   4.520  1.02700E+00  1.00687E+00  2.01312E-02
    9066.415     74.080   4.560  1.00915E+00  1.00781E+00  1.33784E-03
    9067.811     75.476   4.600  9.96194E-01  1.00874E+00 -1.25443E-02
    9069.220     76.884   4.640  9.88246E-01  1.00964E+00 -2.13972E-02
    9070.640     78.304   4.680  9.85144E-01  1.01056E+00 -2.54189E-02
    9072.072     79.737   4.720  9.86485E-01  1.01145E+00 -2.49676E-02
    9073.517     81.182   4.760  9.91703E-01  1.01231E+00 -2.06058E-02
    9074.974     82.639   4.800  1.00009E+00  1.01315E+00 -1.30612E-02
    9076.443     84.108   4.840  1.01084E+00  1.01396E+00 -3.12137E-03
    9077.925     85.589   4.880  1.02289E+00  1.01475E+00  8.13917E-03
    9079.418     87.082   4.920  1.03461E+00  1.01549E+00  1.91249E-02
    9080.924     88.588   4.960  1.04389E+00  1.01620E+00  2.76960E-02
    9082.442     90.106   5.000  1.04867E+00  1.01684E+00  3.18266E-02
    9083.972     91.636   5.040  1.04782E+00  1.01747E+00  3.03525E-02
    9085.514     93.178   5.080  1.04116E+00  1.01802E+00  2.31397E-02
    9087.069     94.733   5.120  1.02966E+00  1.01853E+00  1.11255E-02
    9088.635     96.300   5.160  1.01526E+00  1.01897E+00 -3.71462E-03
    9090.214     97.878   5.200  1.00070E+00  1.01938E+00 -1.86812E-02
    9091.805     99.470   5.240  9.88477E-01  1.01970E+00 -3.12262E-02
    9093.408    101.073   5.280  9.80139E-01  1.01999E+00 -3.98552E-02
    9095.024    102.688   5.320  9.75671E-01  1.02021E+00 -4.45429E-02
    9096.651    104.316   5.360  9.73986E-01  1.02036E+00 -4.63717E-02
    9098.291    105.956   5.400  9.73629E-01  1.02045E+00 -4.68247E-02
    9099.943    107.608   5.440  9.73553E-01  1.02050E+00 -4.69459E-02
    9101.607    109.272   5.480  9.73411E-01  1.02047E+00 -4.70587E-02
    9103.284    110.948   5.520  9.73278E-01  1.02037E+00 -4.70883E-02
    9104.972    112.637   5.560  9.73171E-01  1.02021E+00 -4.70428E-02
    9106.673    114.338   5.600  9.72988E-01  1.02001E+00 -4.70260E-02
    9108.386    116.051   5.640  9.72683E-01  1.01974E+00 -4.70596E-02
    9110.111    117.776   5.680  9.72406E-01  1.01943E+00 -4.70196E-02
    9111.849    119.513   5.720  9.72165E-01  1.01906E+00 -4.68980E-02
    9113.598    121.263   5.760  9.71716E-01  1.01863E+00 -4.69135E-02
    9115.360    123.024   5.800  9.70835E-01  1.01815E+00 -4.73193E-02
    9117.134    124.798   5.840  9.69614E-01  1.01764E+00 -4.80245E-02
    9118.920    126.584   5.880  9.68805E-01  1.01709E+00 -4.82800E-02
    9120.718    128.383   5.920  9.69832E-01  1.01650E+00 -4.66667E-02
    9122.529    130.193   5.960  9.74327E-01  1.01588E+00 -4.15511E-02
    9124.352    132.016   6.000  9.83841E-01  1.01519E+00 -3.13487E-02
