# # comment:                                                     FEFF 9.9.1  
# # Source:
# # Structure
# # Reduced
# # space
# # abc:
# # angles:
# # sites:
# # POT  SCF 100  7.0000   0, screened core-hole, AFOLP (folp(0)= 1.150)
# # Abs   Z=29 Rmt= 1.225 Rnm= 1.308 K  shell
# # Pot 1 Z=66 Rmt= 1.575 Rnm= 1.664
# # Pot 2 Z=29 Rmt= 1.225 Rnm= 1.308
# # Pot 3 Z= 8 Rmt= 1.058 Rnm= 1.111
# # Gam_ch=1.729E+00 H-L exch Vi= 0.000E+00 Vr= 0.000E+00
# # Mu=-7.571E+00eV kf=2.126E+00 Vint=-1.717E+01eV Rs_int= 1.706
# FMS rfms= 9.0000
# # PATH  Rmax=-1.000,  Keep_limit= 0.00, Heap_limit 0.00  Pwcrit= 2.50%
#  S02=0.950  Temp=   0.00  Debye_temp=   0.00  Global_sig2= 0.00000
#  Energy zero shift, vr, vi    0.00000E+00   0.00000E+00
#  Curved wave amplitude ratio filter   4.000%
#     file         sig2 tot  cw amp ratio   deg  nlegs   reff  inp sig2
#     0/   0 paths used
#  xsedge+ 50, used to normalize mu           2.4537E-04
#  -----------------------------------------------------------------------
#  omega    e    k    mu    mu0     chi     @#
    8984.335    -11.381  -1.000  4.36339E-02  5.70840E-02 -1.34500E-02
    8984.633    -11.082  -0.960  4.64526E-02  6.13277E-02 -1.48751E-02
    8984.920    -10.795  -0.920  4.95871E-02  6.60516E-02 -1.64644E-02
    8985.194    -10.521  -0.880  5.30902E-02  7.13269E-02 -1.82367E-02
    8985.456    -10.259  -0.840  5.70243E-02  7.72370E-02 -2.02127E-02
    8985.706    -10.009  -0.800  6.14633E-02  8.38782E-02 -2.24149E-02
    8985.944     -9.771  -0.760  6.64942E-02  9.13613E-02 -2.48671E-02
    8986.169     -9.546  -0.720  7.22171E-02  9.98116E-02 -2.75945E-02
    8986.383     -9.332  -0.680  7.87446E-02  1.09367E-01 -3.06226E-02
    8986.584     -9.131  -0.640  8.61987E-02  1.20174E-01 -3.39752E-02
    8986.773     -8.942  -0.600  9.47027E-02  1.32375E-01 -3.76725E-02
    8986.950     -8.765  -0.560  1.04367E-01  1.46094E-01 -4.17267E-02
    8987.114     -8.601  -0.520  1.15268E-01  1.61403E-01 -4.61355E-02
    8987.267     -8.448  -0.480  1.27414E-01  1.78289E-01 -5.08748E-02
    8987.407     -8.308  -0.440  1.40711E-01  1.96601E-01 -5.58899E-02
    8987.535     -8.180  -0.400  1.54931E-01  2.16020E-01 -6.10896E-02
    8987.651     -8.064  -0.360  1.69694E-01  2.36041E-01 -6.63472E-02
    8987.754     -7.961  -0.320  1.84497E-01  2.56008E-01 -7.15111E-02
    8987.846     -7.869  -0.280  1.98770E-01  2.75194E-01 -7.64239E-02
    8987.925     -7.790  -0.240  2.11958E-01  2.92900E-01 -8.09419E-02
    8987.992     -7.723  -0.200  2.23594E-01  3.08541E-01 -8.49468E-02
    8988.047     -7.668  -0.160  2.33346E-01  3.21693E-01 -8.83471E-02
    8988.090     -7.626  -0.120  2.41012E-01  3.32085E-01 -9.10734E-02
    8988.120     -7.595  -0.080  2.46495E-01  3.39569E-01 -9.30735E-02
    8988.145     -7.571   0.000  2.50842E-01  3.45580E-01 -9.47375E-02
    8988.199     -7.516   0.120  2.60476E-01  3.59129E-01 -9.86534E-02
    8988.242     -7.473   0.160  2.67920E-01  3.69643E-01 -1.01723E-01
    8988.297     -7.418   0.200  2.77249E-01  3.83055E-01 -1.05806E-01
    8988.364     -7.351   0.240  2.88126E-01  3.99194E-01 -1.11069E-01
    8988.443     -7.272   0.280  2.99886E-01  4.17663E-01 -1.17777E-01
    8988.535     -7.181   0.320  3.11665E-01  4.38035E-01 -1.26369E-01
    8988.638     -7.077   0.360  3.22169E-01  4.59643E-01 -1.37474E-01
    8988.754     -6.961   0.400  3.29951E-01  4.81845E-01 -1.51895E-01
    8988.882     -6.833   0.440  3.33621E-01  5.04076E-01 -1.70455E-01
    8989.022     -6.693   0.480  3.32166E-01  5.25840E-01 -1.93674E-01
    8989.175     -6.540   0.520  3.25588E-01  5.46870E-01 -2.21282E-01
    8989.339     -6.376   0.560  3.15005E-01  5.66970E-01 -2.51965E-01
    8989.516     -6.199   0.600  3.02804E-01  5.86168E-01 -2.83363E-01
    8989.705     -6.010   0.640  2.91763E-01  6.04465E-01 -3.12702E-01
    8989.906     -5.809   0.680  2.84358E-01  6.21968E-01 -3.37610E-01
    8990.120     -5.596   0.720  2.82081E-01  6.38797E-01 -3.56716E-01
    8990.345     -5.370   0.760  2.84988E-01  6.55031E-01 -3.70043E-01
    8990.583     -5.132   0.800  2.91759E-01  6.70760E-01 -3.79001E-01
    8990.833     -4.882   0.840  2.99989E-01  6.86079E-01 -3.86090E-01
    8991.095     -4.620   0.880  3.07215E-01  7.01028E-01 -3.93812E-01
    8991.369     -4.346   0.920  3.12481E-01  7.15672E-01 -4.03190E-01
    8991.656     -4.059   0.960  3.16720E-01  7.30043E-01 -4.13323E-01
    8991.954     -3.761   1.000  3.21771E-01  7.44142E-01 -4.22371E-01
    8992.265     -3.450   1.040  3.29580E-01  7.57980E-01 -4.28400E-01
    8992.588     -3.127   1.080  3.41977E-01  7.71559E-01 -4.29582E-01
    8992.924     -2.791   1.120  3.61655E-01  7.84896E-01 -4.23241E-01
    8993.271     -2.444   1.160  3.91919E-01  7.97939E-01 -4.06020E-01
    8993.631     -2.084   1.200  4.31872E-01  8.10716E-01 -3.78843E-01
    8994.003     -1.712   1.240  4.73628E-01  8.23211E-01 -3.49583E-01
    8994.387     -1.328   1.280  5.09554E-01  8.35361E-01 -3.25808E-01
    8994.783     -0.932   1.320  5.39790E-01  8.47207E-01 -3.07417E-01
    8995.191     -0.524   1.360  5.67689E-01  8.58665E-01 -2.90976E-01
    8995.612     -0.103   1.400  5.98395E-01  8.69772E-01 -2.71377E-01
    8996.045      0.330   1.440  6.40050E-01  8.80483E-01 -2.40433E-01
    8996.490      0.775   1.480  6.99374E-01  8.90776E-01 -1.91402E-01
    8996.947      1.232   1.520  7.80074E-01  9.00666E-01 -1.20592E-01
    8997.416      1.701   1.560  8.83246E-01  9.10111E-01 -2.68649E-02
    8997.898      2.183   1.600  1.00419E+00  9.19107E-01  8.50853E-02
    8998.392      2.677   1.640  1.13708E+00  9.27673E-01  2.09405E-01
    8998.898      3.183   1.680  1.27482E+00  9.35747E-01  3.39076E-01
    8999.416      3.701   1.720  1.40759E+00  9.43393E-01  4.64201E-01
    8999.946      4.231   1.760  1.53197E+00  9.50549E-01  5.81426E-01
    9000.489      4.774   1.800  1.62716E+00  9.57258E-01  6.69901E-01
    9001.044      5.328   1.840  1.65643E+00  9.63523E-01  6.92908E-01
    9001.611      5.895   1.880  1.64311E+00  9.69329E-01  6.73783E-01
    9002.190      6.474   1.920  1.61049E+00  9.74678E-01  6.35817E-01
    9002.781      7.066   1.960  1.53816E+00  9.79598E-01  5.58561E-01
    9003.384      7.669   2.000  1.43376E+00  9.84116E-01  4.49640E-01
    9004.000      8.285   2.040  1.32979E+00  9.88197E-01  3.41596E-01
    9004.628      8.913   2.080  1.24871E+00  9.91890E-01  2.56820E-01
    9005.268      9.553   2.120  1.19733E+00  9.95202E-01  2.02126E-01
    9005.920     10.205   2.160  1.15206E+00  9.98143E-01  1.53912E-01
    9006.585     10.870   2.200  1.08809E+00  1.00074E+00  8.73509E-02
    9007.261     11.546   2.240  1.01779E+00  1.00301E+00  1.47794E-02
    9007.950     12.235   2.280  9.55693E-01  1.00497E+00 -4.92756E-02
    9008.651     12.936   2.320  9.08399E-01  1.00661E+00 -9.82153E-02
    9009.365     13.649   2.360  8.84118E-01  1.00800E+00 -1.23877E-01
    9010.090     14.375   2.400  8.88730E-01  1.00912E+00 -1.20392E-01
    9010.828     15.112   2.440  9.21112E-01  1.01000E+00 -8.88892E-02
    9011.577     15.862   2.480  9.69306E-01  1.01064E+00 -4.13365E-02
    9012.339     16.624   2.520  1.01949E+00  1.01110E+00  8.39638E-03
    9013.114     17.398   2.560  1.06136E+00  1.01135E+00  5.00069E-02
    9013.900     18.185   2.600  1.08155E+00  1.01144E+00  7.01128E-02
    9014.699     18.983   2.640  1.08537E+00  1.01136E+00  7.40061E-02
    9015.509     19.794   2.680  1.07886E+00  1.01115E+00  6.77112E-02
    9016.332     20.617   2.720  1.06627E+00  1.01081E+00  5.54530E-02
    9017.167     21.452   2.760  1.04895E+00  1.01036E+00  3.85932E-02
    9018.015     22.300   2.800  1.02867E+00  1.00983E+00  1.88390E-02
    9018.874     23.159   2.840  1.00744E+00  1.00921E+00 -1.76350E-03
    9019.746     24.031   2.880  9.85934E-01  1.00850E+00 -2.25633E-02
    9020.630     24.915   2.920  9.63419E-01  1.00774E+00 -4.43206E-02
    9021.526     25.811   2.960  9.39932E-01  1.00694E+00 -6.70045E-02
    9022.434     26.719   3.000  9.16625E-01  1.00611E+00 -8.94894E-02
    9023.355     27.640   3.040  8.95260E-01  1.00524E+00 -1.09977E-01
    9024.288     28.572   3.080  8.77363E-01  1.00437E+00 -1.27005E-01
    9025.232     29.517   3.120  8.63550E-01  1.00347E+00 -1.39924E-01
    9026.189     30.474   3.160  8.53452E-01  1.00258E+00 -1.49127E-01
    9027.159     31.444   3.200  8.46415E-01  1.00169E+00 -1.55271E-01
    9028.140     32.425   3.240  8.42108E-01  1.00082E+00 -1.58712E-01
    9029.134     33.419   3.280  8.40415E-01  9.99984E-01 -1.59569E-01
    9030.140     34.425   3.320  8.41685E-01  9.99161E-01 -1.57476E-01
    9031.158     35.443   3.360  8.46652E-01  9.98372E-01 -1.51720E-01
    9032.188     36.473   3.400  8.56006E-01  9.97621E-01 -1.41615E-01
    9033.230     37.515   3.440  8.69952E-01  9.96908E-01 -1.26956E-01
    9034.285     38.570   3.480  8.88608E-01  9.96238E-01 -1.07629E-01
    9035.352     39.637   3.520  9.11693E-01  9.95611E-01 -8.39172E-02
    9036.431     40.716   3.560  9.38210E-01  9.95049E-01 -5.68390E-02
    9037.522     41.807   3.600  9.66125E-01  9.94532E-01 -2.84070E-02
    9038.625     42.910   3.640  9.92516E-01  9.94059E-01 -1.54334E-03
    9039.741     44.026   3.680  1.01429E+00  9.93633E-01  2.06568E-02
    9040.869     45.153   3.720  1.02941E+00  9.93277E-01  3.61328E-02
    9042.009     46.293   3.760  1.03764E+00  9.92990E-01  4.46526E-02
    9043.161     47.446   3.800  1.04003E+00  9.92751E-01  4.72768E-02
    9044.325     48.610   3.840  1.03837E+00  9.92559E-01  4.58154E-02
    9045.502     49.786   3.880  1.03472E+00  9.92436E-01  4.22860E-02
    9046.690     50.975   3.920  1.03069E+00  9.92359E-01  3.83321E-02
    9047.891     52.176   3.960  1.02754E+00  9.92329E-01  3.52116E-02
    9049.104     53.389   4.000  1.02630E+00  9.92367E-01  3.39284E-02
    9050.330     54.614   4.040  1.02781E+00  9.92452E-01  3.53569E-02
    9051.567     55.852   4.080  1.03266E+00  9.92603E-01  4.00524E-02
    9052.817     57.102   4.120  1.04065E+00  9.92797E-01  4.78563E-02
    9054.079     58.363   4.160  1.05086E+00  9.93012E-01  5.78441E-02
    9055.353     59.637   4.200  1.06143E+00  9.93288E-01  6.81456E-02
    9056.639     60.924   4.240  1.07017E+00  9.93606E-01  7.65599E-02
    9057.937     62.222   4.280  1.07518E+00  9.93965E-01  8.12101E-02
    9059.248     63.533   4.320  1.07542E+00  9.94362E-01  8.10532E-02
    9060.571     64.856   4.360  1.07084E+00  9.94795E-01  7.60436E-02
    9061.906     66.191   4.400  1.06239E+00  9.95239E-01  6.71522E-02
    9063.253     67.538   4.440  1.05192E+00  9.95717E-01  5.62013E-02
    9064.612     68.897   4.480  1.04138E+00  9.96227E-01  4.51545E-02
    9065.984     70.269   4.520  1.03241E+00  9.96744E-01  3.56705E-02
    9067.368     71.653   4.560  1.02602E+00  9.97268E-01  2.87516E-02
    9068.764     73.049   4.600  1.02264E+00  9.97820E-01  2.48214E-02
    9070.172     74.457   4.640  1.02241E+00  9.98376E-01  2.40335E-02
    9071.592     75.877   4.680  1.02514E+00  9.98956E-01  2.61837E-02
    9073.025     77.310   4.720  1.02982E+00  9.99515E-01  3.03056E-02
    9074.470     78.754   4.760  1.03462E+00  1.00007E+00  3.45464E-02
    9075.927     80.211   4.800  1.03728E+00  1.00063E+00  3.66518E-02
    9077.396     81.681   4.840  1.03612E+00  1.00120E+00  3.49193E-02
    9078.877     83.162   4.880  1.03060E+00  1.00172E+00  2.88779E-02
    9080.371     84.655   4.920  1.02145E+00  1.00226E+00  1.91859E-02
    9081.876     86.161   4.960  1.00994E+00  1.00277E+00  7.17402E-03
    9083.394     87.679   5.000  9.97640E-01  1.00324E+00 -5.59929E-03
    9084.924     89.209   5.040  9.86051E-01  1.00370E+00 -1.76521E-02
    9086.466     90.751   5.080  9.76239E-01  1.00415E+00 -2.79164E-02
    9088.021     92.306   5.120  9.68711E-01  1.00455E+00 -3.58371E-02
    9089.588     93.872   5.160  9.63611E-01  1.00493E+00 -4.13153E-02
    9091.166     95.451   5.200  9.60669E-01  1.00527E+00 -4.46000E-02
    9092.758     97.042   5.240  9.59275E-01  1.00559E+00 -4.63195E-02
    9094.361     98.646   5.280  9.58394E-01  1.00586E+00 -4.74640E-02
    9095.976    100.261   5.320  9.56903E-01  1.00608E+00 -4.91772E-02
    9097.604    101.889   5.360  9.54112E-01  1.00629E+00 -5.21730E-02
    9099.244    103.528   5.400  9.50250E-01  1.00643E+00 -5.61781E-02
    9100.896    105.180   5.440  9.46570E-01  1.00655E+00 -5.99814E-02
    9102.560    106.845   5.480  9.44384E-01  1.00661E+00 -6.22270E-02
    9104.236    108.521   5.520  9.44497E-01  1.00665E+00 -6.21533E-02
    9105.925    110.210   5.560  9.46862E-01  1.00663E+00 -5.97638E-02
    9107.626    111.910   5.600  9.51055E-01  1.00656E+00 -5.55048E-02
    9109.339    113.623   5.640  9.56575E-01  1.00647E+00 -4.98999E-02
    9111.064    115.349   5.680  9.63089E-01  1.00633E+00 -4.32363E-02
    9112.801    117.086   5.720  9.70530E-01  1.00613E+00 -3.56027E-02
    9114.551    118.835   5.760  9.78730E-01  1.00590E+00 -2.71699E-02
    9116.312    120.597   5.800  9.87186E-01  1.00563E+00 -1.84425E-02
    9118.086    122.371   5.840  9.95321E-01  1.00532E+00 -9.99600E-03
    9119.872    124.157   5.880  1.00291E+00  1.00497E+00 -2.05889E-03
    9121.671    125.956   5.920  1.01005E+00  1.00462E+00  5.42917E-03
    9123.481    127.766   5.960  1.01652E+00  1.00420E+00  1.23215E-02
    9125.304    129.589   6.000  1.02179E+00  1.00372E+00  1.80761E-02
