# # comment:                                                     FEFF 9.9.1  
# # Source:
# # Structure
# # Reduced
# # space
# # abc:
# # angles:
# # sites:
# # POT  SCF 100  7.0000   0, screened core-hole, AFOLP (folp(0)= 1.150)
# # Abs   Z=29 Rmt= 1.368 Rnm= 1.404 K  shell
# # Pot 1 Z=29 Rmt= 1.368 Rnm= 1.404
# # Pot 2 Z= 8 Rmt= 0.923 Rnm= 1.061
# # Gam_ch=1.729E+00 H-L exch Vi= 0.000E+00 Vr= 0.000E+00
# # Mu=-7.872E+00eV kf=1.997E+00 Vint=-1.641E+01eV Rs_int= 1.816
# FMS rfms= 9.0000
# # PATH  Rmax=-1.000,  Keep_limit= 0.00, Heap_limit 0.00  Pwcrit= 2.50%
#  S02=0.950  Temp=   0.00  Debye_temp=   0.00  Global_sig2= 0.00000
#  Energy zero shift, vr, vi    0.00000E+00   0.00000E+00
#  Curved wave amplitude ratio filter   4.000%
#     file         sig2 tot  cw amp ratio   deg  nlegs   reff  inp sig2
#     0/   0 paths used
#  xsedge+ 50, used to normalize mu           2.4536E-04
#  -----------------------------------------------------------------------
#  omega    e    k    mu    mu0     chi     @#
    8984.593    -11.682  -1.000  4.99541E-02  5.85314E-02 -8.57726E-03
    8984.892    -11.384  -0.960  5.34662E-02  6.29386E-02 -9.47232E-03
    8985.178    -11.097  -0.920  5.73686E-02  6.78478E-02 -1.04792E-02
    8985.453    -10.823  -0.880  6.17200E-02  7.33339E-02 -1.16139E-02
    8985.715    -10.561  -0.840  6.65889E-02  7.94840E-02 -1.28951E-02
    8985.965    -10.311  -0.800  7.20548E-02  8.63991E-02 -1.43443E-02
    8986.202    -10.073  -0.760  7.82091E-02  9.41950E-02 -1.59859E-02
    8986.428     -9.848  -0.720  8.51554E-02  1.03003E-01 -1.78476E-02
    8986.641     -9.634  -0.680  9.30078E-02  1.12968E-01 -1.99598E-02
    8986.842     -9.433  -0.640  1.01887E-01  1.24241E-01 -2.23543E-02
    8987.031     -9.244  -0.600  1.11912E-01  1.36974E-01 -2.50625E-02
    8987.208     -9.067  -0.560  1.23185E-01  1.51295E-01 -2.81105E-02
    8987.373     -8.903  -0.520  1.35768E-01  1.67281E-01 -3.15128E-02
    8987.525     -8.750  -0.480  1.49653E-01  1.84916E-01 -3.52628E-02
    8987.665     -8.610  -0.440  1.64722E-01  2.04045E-01 -3.93228E-02
    8987.793     -8.482  -0.400  1.80719E-01  2.24334E-01 -4.36146E-02
    8987.909     -8.366  -0.360  1.97236E-01  2.45254E-01 -4.80182E-02
    8988.013     -8.263  -0.320  2.13741E-01  2.66122E-01 -5.23803E-02
    8988.104     -8.171  -0.280  2.29640E-01  2.86175E-01 -5.65356E-02
    8988.184     -8.092  -0.240  2.44354E-01  3.04685E-01 -6.03305E-02
    8988.251     -8.025  -0.200  2.57394E-01  3.21038E-01 -6.36442E-02
    8988.305     -7.970  -0.160  2.68395E-01  3.34791E-01 -6.63961E-02
    8988.348     -7.927  -0.120  2.77117E-01  3.45659E-01 -6.85423E-02
    8988.379     -7.897  -0.080  2.83419E-01  3.53485E-01 -7.00664E-02
    8988.403     -7.872   0.000  2.88507E-01  3.59771E-01 -7.12640E-02
    8988.458     -7.818   0.120  2.99899E-01  3.73944E-01 -7.40451E-02
    8988.501     -7.775   0.160  3.08767E-01  3.84948E-01 -7.61813E-02
    8988.555     -7.720   0.200  3.20111E-01  3.98992E-01 -7.88806E-02
    8988.622     -7.653   0.240  3.33811E-01  4.15878E-01 -8.20674E-02
    8988.702     -7.574   0.280  3.49593E-01  4.35240E-01 -8.56464E-02
    8988.793     -7.482   0.320  3.67067E-01  4.56551E-01 -8.94841E-02
    8988.897     -7.379   0.360  3.85748E-01  4.79205E-01 -9.34572E-02
    8989.013     -7.263   0.400  4.05024E-01  5.02492E-01 -9.74681E-02
    8989.141     -7.135   0.440  4.24303E-01  5.25802E-01 -1.01499E-01
    8989.281     -6.995   0.480  4.42987E-01  5.48640E-01 -1.05653E-01
    8989.433     -6.842   0.520  4.60529E-01  5.70683E-01 -1.10155E-01
    8989.598     -6.678   0.560  4.76436E-01  5.91789E-01 -1.15353E-01
    8989.775     -6.501   0.600  4.90216E-01  6.11896E-01 -1.21680E-01
    8989.964     -6.312   0.640  5.01442E-01  6.31046E-01 -1.29604E-01
    8990.165     -6.111   0.680  5.09726E-01  6.49322E-01 -1.39596E-01
    8990.378     -5.897   0.720  5.14809E-01  6.66823E-01 -1.52014E-01
    8990.604     -5.672   0.760  5.16625E-01  6.83647E-01 -1.67022E-01
    8990.841     -5.434   0.800  5.15478E-01  6.99881E-01 -1.84403E-01
    8991.091     -5.184   0.840  5.12091E-01  7.15556E-01 -2.03465E-01
    8991.353     -4.922   0.880  5.07808E-01  7.30774E-01 -2.22966E-01
    8991.628     -4.648   0.920  5.04346E-01  7.45535E-01 -2.41189E-01
    8991.914     -4.361   0.960  5.03689E-01  7.59866E-01 -2.56177E-01
    8992.213     -4.062   1.000  5.07815E-01  7.73809E-01 -2.65994E-01
    8992.524     -3.752   1.040  5.18239E-01  7.87330E-01 -2.69092E-01
    8992.847     -3.429   1.080  5.35677E-01  8.00452E-01 -2.64775E-01
    8993.182     -3.093   1.120  5.59639E-01  8.13148E-01 -2.53509E-01
    8993.530     -2.746   1.160  5.88747E-01  8.25430E-01 -2.36684E-01
    8993.889     -2.386   1.200  6.21393E-01  8.37266E-01 -2.15874E-01
    8994.261     -2.014   1.240  6.55585E-01  8.48639E-01 -1.93054E-01
    8994.645     -1.630   1.280  6.87840E-01  8.59572E-01 -1.71733E-01
    8995.042     -1.234   1.320  7.13602E-01  8.70009E-01 -1.56407E-01
    8995.450     -0.826   1.360  7.30881E-01  8.79970E-01 -1.49089E-01
    8995.871     -0.405   1.400  7.42499E-01  8.89436E-01 -1.46937E-01
    8996.303      0.028   1.440  7.54250E-01  8.98391E-01 -1.44142E-01
    8996.748      0.473   1.480  7.71669E-01  9.06838E-01 -1.35169E-01
    8997.206      0.930   1.520  7.99151E-01  9.14800E-01 -1.15649E-01
    8997.675      1.400   1.560  8.40532E-01  9.22240E-01 -8.17078E-02
    8998.157      1.881   1.600  8.98813E-01  9.29205E-01 -3.03919E-02
    8998.650      2.375   1.640  9.73725E-01  9.35662E-01  3.80637E-02
    8999.156      2.881   1.680  1.05866E+00  9.41636E-01  1.17025E-01
    8999.674      3.399   1.720  1.13836E+00  9.47158E-01  1.91204E-01
    9000.205      3.929   1.760  1.19369E+00  9.52214E-01  2.41481E-01
    9000.747      4.472   1.800  1.21571E+00  9.56835E-01  2.58875E-01
    9001.302      5.027   1.840  1.21052E+00  9.61053E-01  2.49462E-01
    9001.869      5.594   1.880  1.18720E+00  9.64857E-01  2.22344E-01
    9002.448      6.173   1.920  1.15145E+00  9.68277E-01  1.83176E-01
    9003.039      6.764   1.960  1.10963E+00  9.71346E-01  1.38288E-01
    9003.643      7.367   2.000  1.06894E+00  9.74075E-01  9.48688E-02
    9004.259      7.983   2.040  1.03408E+00  9.76476E-01  5.76030E-02
    9004.887      8.611   2.080  1.00837E+00  9.78601E-01  2.97692E-02
    9005.527      9.251   2.120  9.97082E-01  9.80441E-01  1.66403E-02
    9006.179      9.903   2.160  1.00677E+00  9.82027E-01  2.47414E-02
    9006.843     10.568   2.200  1.03846E+00  9.83390E-01  5.50685E-02
    9007.520     11.245   2.240  1.07956E+00  9.84543E-01  9.50146E-02
    9008.209     11.933   2.280  1.10809E+00  9.85493E-01  1.22593E-01
    9008.910     12.634   2.320  1.11532E+00  9.86272E-01  1.29050E-01
    9009.623     13.348   2.360  1.11233E+00  9.86912E-01  1.25413E-01
    9010.349     14.073   2.400  1.10370E+00  9.87398E-01  1.16307E-01
    9011.086     14.811   2.440  1.08002E+00  9.87782E-01  9.22349E-02
    9011.836     15.560   2.480  1.04813E+00  9.88073E-01  6.00550E-02
    9012.598     16.322   2.520  1.01133E+00  9.88257E-01  2.30758E-02
    9013.372     17.097   2.560  9.75860E-01  9.88382E-01 -1.25221E-02
    9014.159     17.883   2.600  9.46002E-01  9.88456E-01 -4.24538E-02
    9014.957     18.682   2.640  9.24238E-01  9.88462E-01 -6.42246E-02
    9015.768     19.492   2.680  9.11814E-01  9.88450E-01 -7.66363E-02
    9016.591     20.315   2.720  9.07701E-01  9.88404E-01 -8.07023E-02
    9017.426     21.150   2.760  9.10320E-01  9.88348E-01 -7.80281E-02
    9018.273     21.998   2.800  9.16834E-01  9.88288E-01 -7.14534E-02
    9019.133     22.857   2.840  9.25317E-01  9.88228E-01 -6.29105E-02
    9020.005     23.729   2.880  9.34580E-01  9.88191E-01 -5.36113E-02
    9020.888     24.613   2.920  9.44102E-01  9.88161E-01 -4.40594E-02
    9021.785     25.509   2.960  9.53850E-01  9.88139E-01 -3.42888E-02
    9022.693     26.417   3.000  9.64190E-01  9.88148E-01 -2.39583E-02
    9023.613     27.338   3.040  9.75370E-01  9.88192E-01 -1.28223E-02
    9024.546     28.271   3.080  9.87307E-01  9.88273E-01 -9.66547E-04
    9025.491     29.215   3.120  9.99911E-01  9.88391E-01  1.15198E-02
    9026.448     30.173   3.160  1.01266E+00  9.88526E-01  2.41347E-02
    9027.417     31.142   3.200  1.02491E+00  9.88721E-01  3.61862E-02
    9028.399     32.123   3.240  1.03558E+00  9.88957E-01  4.66223E-02
    9029.392     33.117   3.280  1.04365E+00  9.89233E-01  5.44192E-02
    9030.398     34.123   3.320  1.04835E+00  9.89550E-01  5.87963E-02
    9031.416     35.141   3.360  1.04904E+00  9.89909E-01  5.91297E-02
    9032.446     36.171   3.400  1.04510E+00  9.90329E-01  5.47748E-02
    9033.489     37.213   3.440  1.03644E+00  9.90767E-01  4.56692E-02
    9034.543     38.268   3.480  1.02353E+00  9.91241E-01  3.22913E-02
    9035.610     39.335   3.520  1.00752E+00  9.91754E-01  1.57625E-02
    9036.689     40.414   3.560  9.89951E-01  9.92305E-01 -2.35351E-03
    9037.780     41.505   3.600  9.72479E-01  9.92891E-01 -2.04130E-02
    9038.884     42.608   3.640  9.56250E-01  9.93513E-01 -3.72636E-02
    9039.999     43.724   3.680  9.42020E-01  9.94147E-01 -5.21266E-02
    9041.127     44.852   3.720  9.30371E-01  9.94813E-01 -6.44425E-02
    9042.267     45.992   3.760  9.21842E-01  9.95509E-01 -7.36673E-02
    9043.419     47.144   3.800  9.16934E-01  9.96212E-01 -7.92785E-02
    9044.584     48.308   3.840  9.15905E-01  9.96921E-01 -8.10154E-02
    9045.760     49.485   3.880  9.18457E-01  9.97655E-01 -7.91975E-02
    9046.949     50.673   3.920  9.23602E-01  9.98390E-01 -7.47882E-02
    9048.150     51.874   3.960  9.30256E-01  9.99103E-01 -6.88470E-02
    9049.363     53.087   4.000  9.37863E-01  9.99837E-01 -6.19731E-02
    9050.588     54.313   4.040  9.46355E-01  1.00057E+00 -5.42138E-02
    9051.826     55.550   4.080  9.55887E-01  1.00130E+00 -4.54081E-02
    9053.075     56.800   4.120  9.66315E-01  1.00199E+00 -3.56772E-02
    9054.337     58.062   4.160  9.77162E-01  1.00268E+00 -2.55185E-02
    9055.611     59.336   4.200  9.87376E-01  1.00334E+00 -1.59619E-02
    9056.897     60.622   4.240  9.95698E-01  1.00398E+00 -8.28609E-03
    9058.196     61.920   4.280  1.00131E+00  1.00462E+00 -3.30530E-03
    9059.506     63.231   4.320  1.00450E+00  1.00519E+00 -6.92599E-04
    9060.829     64.554   4.360  1.00671E+00  1.00575E+00  9.61441E-04
    9062.164     65.889   4.400  1.00942E+00  1.00627E+00  3.15267E-03
    9063.512     67.236   4.440  1.01331E+00  1.00675E+00  6.55480E-03
    9064.871     68.595   4.480  1.01822E+00  1.00719E+00  1.10233E-02
    9066.243     69.967   4.520  1.02383E+00  1.00761E+00  1.62212E-02
    9067.626     71.351   4.560  1.03014E+00  1.00797E+00  2.21673E-02
    9069.022     72.747   4.600  1.03754E+00  1.00828E+00  2.92587E-02
    9070.430     74.155   4.640  1.04650E+00  1.00855E+00  3.79517E-02
    9071.851     75.575   4.680  1.05738E+00  1.00877E+00  4.86075E-02
    9073.283     77.008   4.720  1.07039E+00  1.00893E+00  6.14618E-02
    9074.728     78.453   4.760  1.08570E+00  1.00907E+00  7.66260E-02
    9076.185     79.910   4.800  1.10323E+00  1.00916E+00  9.40679E-02
    9077.654     81.379   4.840  1.12241E+00  1.00919E+00  1.13221E-01
    9079.136     82.860   4.880  1.14112E+00  1.00917E+00  1.31952E-01
    9080.629     84.354   4.920  1.15492E+00  1.00910E+00  1.45820E-01
    9082.135     85.859   4.960  1.15819E+00  1.00900E+00  1.49198E-01
    9083.653     87.377   5.000  1.14706E+00  1.00885E+00  1.38210E-01
    9085.183     88.907   5.040  1.12180E+00  1.00866E+00  1.13142E-01
    9086.725     90.450   5.080  1.08698E+00  1.00842E+00  7.85571E-02
    9088.279     92.004   5.120  1.04911E+00  1.00815E+00  4.09629E-02
    9089.846     93.571   5.160  1.01361E+00  1.00784E+00  5.77218E-03
    9091.425     95.149   5.200  9.83239E-01  1.00751E+00 -2.42739E-02
    9093.016     96.741   5.240  9.58267E-01  1.00712E+00 -4.88568E-02
    9094.619     98.344   5.280  9.37200E-01  1.00672E+00 -6.95204E-02
    9096.235     99.959   5.320  9.17655E-01  1.00628E+00 -8.86263E-02
    9097.862    101.587   5.360  8.97832E-01  1.00581E+00 -1.07975E-01
    9099.502    103.227   5.400  8.77831E-01  1.00532E+00 -1.27492E-01
    9101.154    104.879   5.440  8.59777E-01  1.00483E+00 -1.45054E-01
    9102.818    106.543   5.480  8.46305E-01  1.00431E+00 -1.58002E-01
    9104.495    108.219   5.520  8.38606E-01  1.00375E+00 -1.65148E-01
    9106.183    109.908   5.560  8.36265E-01  1.00322E+00 -1.66952E-01
    9107.884    111.609   5.600  8.39153E-01  1.00265E+00 -1.63501E-01
    9109.597    113.322   5.640  8.48456E-01  1.00208E+00 -1.53629E-01
    9111.322    115.047   5.680  8.64874E-01  1.00149E+00 -1.36617E-01
    9113.060    116.784   5.720  8.87271E-01  1.00092E+00 -1.13650E-01
    9114.809    118.534   5.760  9.13409E-01  1.00035E+00 -8.69435E-02
    9116.571    120.295   5.800  9.41685E-01  9.99786E-01 -5.81004E-02
    9118.345    122.069   5.840  9.71242E-01  9.99200E-01 -2.79587E-02
    9120.131    123.855   5.880  1.00132E+00  9.98670E-01  2.65177E-03
    9121.929    125.654   5.920  1.03024E+00  9.98126E-01  3.21128E-02
    9123.740    127.464   5.960  1.05422E+00  9.97602E-01  5.66198E-02
    9125.562    129.287   6.000  1.06860E+00  9.97121E-01  7.14794E-02
