# # comment:                                                     FEFF 9.9.1  
# # Source:
# # Structure
# # Reduced
# # space
# # abc:
# # angles:
# # sites:
# # POT  SCF 100  7.0000   0, screened core-hole, AFOLP (folp(0)= 1.150)
# # Abs   Z=29 Rmt= 1.273 Rnm= 1.348 K  shell
# # Pot 1 Z=12 Rmt= 1.354 Rnm= 1.426
# # Pot 2 Z=25 Rmt= 1.273 Rnm= 1.379
# # Pot 3 Z=29 Rmt= 1.273 Rnm= 1.348
# # Pot 4 Z= 8 Rmt= 1.023 Rnm= 1.099
# # Gam_ch=1.729E+00 H-L exch Vi= 0.000E+00 Vr= 0.000E+00
# # Mu=-1.093E+01eV kf=2.171E+00 Vint=-1.841E+01eV Rs_int= 1.671
# FMS rfms= 9.0000
# # PATH  Rmax=-1.000,  Keep_limit= 0.00, Heap_limit 0.00  Pwcrit= 2.50%
#  S02=0.950  Temp=   0.00  Debye_temp=   0.00  Global_sig2= 0.00000
#  Energy zero shift, vr, vi    0.00000E+00   0.00000E+00
#  Curved wave amplitude ratio filter   4.000%
#     file         sig2 tot  cw amp ratio   deg  nlegs   reff  inp sig2
#     0/   0 paths used
#  xsedge+ 50, used to normalize mu           2.5084E-04
#  -----------------------------------------------------------------------
#  omega    e    k    mu    mu0     chi     @#
    8984.207    -14.739  -1.000  3.05462E-02  4.41687E-02 -1.36224E-02
    8984.505    -14.440  -0.960  3.19474E-02  4.71171E-02 -1.51696E-02
    8984.792    -14.154  -0.920  3.34438E-02  5.03737E-02 -1.69298E-02
    8985.066    -13.879  -0.880  3.50458E-02  5.39823E-02 -1.89365E-02
    8985.328    -13.617  -0.840  3.67653E-02  5.79940E-02 -2.12287E-02
    8985.578    -13.367  -0.800  3.86160E-02  6.24677E-02 -2.38517E-02
    8985.816    -13.130  -0.760  4.06136E-02  6.74707E-02 -2.68571E-02
    8986.042    -12.904  -0.720  4.27755E-02  7.30791E-02 -3.03036E-02
    8986.255    -12.691  -0.680  4.51210E-02  7.93763E-02 -3.42553E-02
    8986.456    -12.489  -0.640  4.76697E-02  8.64502E-02 -3.87805E-02
    8986.645    -12.301  -0.600  5.04399E-02  9.43865E-02 -4.39466E-02
    8986.822    -12.124  -0.560  5.34454E-02  1.03258E-01 -4.98125E-02
    8986.986    -11.959  -0.520  5.66894E-02  1.13106E-01 -5.64171E-02
    8987.139    -11.807  -0.480  6.01576E-02  1.23920E-01 -6.37624E-02
    8987.279    -11.667  -0.440  6.38097E-02  1.35604E-01 -7.17944E-02
    8987.407    -11.539  -0.400  6.75736E-02  1.47960E-01 -8.03860E-02
    8987.523    -11.423  -0.360  7.13458E-02  1.60674E-01 -8.93284E-02
    8987.626    -11.319  -0.320  7.50020E-02  1.73343E-01 -9.83407E-02
    8987.718    -11.228  -0.280  7.84168E-02  1.85514E-01 -1.07098E-01
    8987.797    -11.148  -0.240  8.14830E-02  1.96755E-01 -1.15272E-01
    8987.864    -11.081  -0.200  8.41257E-02  2.06697E-01 -1.22571E-01
    8987.919    -11.026  -0.160  8.63023E-02  2.15069E-01 -1.28766E-01
    8987.962    -10.984  -0.120  8.79935E-02  2.21695E-01 -1.33701E-01
    8987.992    -10.953  -0.080  8.91918E-02  2.26474E-01 -1.37282E-01
    8988.017    -10.929   0.000  9.01247E-02  2.30318E-01 -1.40193E-01
    8988.071    -10.874   0.120  9.24192E-02  2.38997E-01 -1.46578E-01
    8988.114    -10.831   0.160  9.41775E-02  2.45752E-01 -1.51575E-01
    8988.169    -10.777   0.200  9.64210E-02  2.54401E-01 -1.57980E-01
    8988.236    -10.709   0.240  9.91342E-02  2.64839E-01 -1.65704E-01
    8988.315    -10.630   0.280  1.02316E-01  2.76883E-01 -1.74568E-01
    8988.407    -10.539   0.320  1.05991E-01  2.90262E-01 -1.84271E-01
    8988.510    -10.435   0.360  1.10243E-01  3.04622E-01 -1.94379E-01
    8988.626    -10.319   0.400  1.15286E-01  3.19627E-01 -2.04342E-01
    8988.754    -10.191   0.440  1.21383E-01  3.34915E-01 -2.13532E-01
    8988.894    -10.051   0.480  1.28900E-01  3.50228E-01 -2.21328E-01
    8989.047     -9.899   0.520  1.38218E-01  3.65386E-01 -2.27168E-01
    8989.211     -9.734   0.560  1.49561E-01  3.80355E-01 -2.30794E-01
    8989.388     -9.557   0.600  1.62636E-01  3.95092E-01 -2.32456E-01
    8989.577     -9.368   0.640  1.76287E-01  4.09658E-01 -2.33371E-01
    8989.778     -9.167   0.680  1.88124E-01  4.24078E-01 -2.35953E-01
    8989.992     -8.954   0.720  1.95347E-01  4.38444E-01 -2.43098E-01
    8990.217     -8.728   0.760  1.96666E-01  4.52810E-01 -2.56144E-01
    8990.455     -8.491   0.800  1.94223E-01  4.67240E-01 -2.73017E-01
    8990.705     -8.241   0.840  1.92360E-01  4.81750E-01 -2.89390E-01
    8990.967     -7.978   0.880  1.95029E-01  4.96425E-01 -3.01396E-01
    8991.241     -7.704   0.920  2.04502E-01  5.11244E-01 -3.06742E-01
    8991.528     -7.418   0.960  2.22404E-01  5.26255E-01 -3.03851E-01
    8991.827     -7.119   1.000  2.51010E-01  5.41439E-01 -2.90429E-01
    8992.137     -6.808   1.040  2.93301E-01  5.56810E-01 -2.63508E-01
    8992.461     -6.485   1.080  3.50366E-01  5.72355E-01 -2.21989E-01
    8992.796     -6.150   1.120  4.15547E-01  5.88080E-01 -1.72533E-01
    8993.143     -5.802   1.160  4.69173E-01  6.03923E-01 -1.34751E-01
    8993.503     -5.443   1.200  4.86884E-01  6.19880E-01 -1.32996E-01
    8993.875     -5.071   1.240  4.68409E-01  6.35943E-01 -1.67534E-01
    8994.259     -4.687   1.280  4.43083E-01  6.52041E-01 -2.08958E-01
    8994.655     -4.290   1.320  4.32466E-01  6.68184E-01 -2.35718E-01
    8995.064     -3.882   1.360  4.38078E-01  6.84317E-01 -2.46239E-01
    8995.484     -3.461   1.400  4.58832E-01  7.00385E-01 -2.41553E-01
    8995.917     -3.029   1.440  4.95578E-01  7.16392E-01 -2.20814E-01
    8996.362     -2.584   1.480  5.43607E-01  7.32260E-01 -1.88654E-01
    8996.819     -2.126   1.520  5.95707E-01  7.47973E-01 -1.52266E-01
    8997.289     -1.657   1.560  6.48076E-01  7.63473E-01 -1.15396E-01
    8997.770     -1.175   1.600  6.91829E-01  7.78741E-01 -8.69122E-02
    8998.264     -0.682   1.640  7.13966E-01  7.93721E-01 -7.97550E-02
    8998.770     -0.176   1.680  7.15250E-01  8.08395E-01 -9.31452E-02
    8999.288      0.343   1.720  7.16247E-01  8.22727E-01 -1.06480E-01
    8999.818      0.873   1.760  7.37715E-01  8.36662E-01 -9.89463E-02
    9000.361      1.415   1.800  7.93553E-01  8.50185E-01 -5.66317E-02
    9000.916      1.970   1.840  9.00354E-01  8.63283E-01  3.70714E-02
    9001.483      2.537   1.880  1.06833E+00  8.75902E-01  1.92427E-01
    9002.062      3.116   1.920  1.27162E+00  8.88032E-01  3.83588E-01
    9002.653      3.708   1.960  1.42842E+00  8.99663E-01  5.28757E-01
    9003.257      4.311   2.000  1.44662E+00  9.10747E-01  5.35873E-01
    9003.872      4.927   2.040  1.35039E+00  9.21297E-01  4.29096E-01
    9004.500      5.555   2.080  1.25003E+00  9.31286E-01  3.18743E-01
    9005.140      6.195   2.120  1.19524E+00  9.40732E-01  2.54512E-01
    9005.792      6.847   2.160  1.18251E+00  9.49591E-01  2.32923E-01
    9006.457      7.511   2.200  1.19905E+00  9.57881E-01  2.41173E-01
    9007.134      8.188   2.240  1.22364E+00  9.65584E-01  2.58053E-01
    9007.822      8.877   2.280  1.23339E+00  9.72743E-01  2.60647E-01
    9008.523      9.578   2.320  1.21662E+00  9.79339E-01  2.37282E-01
    9009.237     10.291   2.360  1.17155E+00  9.85375E-01  1.86178E-01
    9009.962     11.017   2.400  1.10794E+00  9.90857E-01  1.17081E-01
    9010.700     11.754   2.440  1.04225E+00  9.95812E-01  4.64374E-02
    9011.450     12.504   2.480  9.88591E-01  1.00025E+00 -1.16560E-02
    9012.212     13.266   2.520  9.58508E-01  1.00419E+00 -4.56807E-02
    9012.986     14.040   2.560  9.51947E-01  1.00763E+00 -5.56792E-02
    9013.772     14.827   2.600  9.63971E-01  1.01061E+00 -4.66380E-02
    9014.571     15.625   2.640  9.74290E-01  1.01315E+00 -3.88583E-02
    9015.381     16.436   2.680  9.78500E-01  1.01525E+00 -3.67528E-02
    9016.204     17.259   2.720  9.79706E-01  1.01695E+00 -3.72482E-02
    9017.040     18.094   2.760  9.80401E-01  1.01828E+00 -3.78836E-02
    9017.887     18.941   2.800  9.81037E-01  1.01925E+00 -3.82151E-02
    9018.746     19.801   2.840  9.81666E-01  1.01987E+00 -3.82017E-02
    9019.618     20.673   2.880  9.81964E-01  1.02016E+00 -3.82002E-02
    9020.502     21.557   2.920  9.81672E-01  1.02017E+00 -3.84995E-02
    9021.398     22.453   2.960  9.80410E-01  1.01990E+00 -3.94907E-02
    9022.306     23.361   3.000  9.77339E-01  1.01938E+00 -4.20457E-02
    9023.227     24.281   3.040  9.71299E-01  1.01863E+00 -4.73353E-02
    9024.160     25.214   3.080  9.61639E-01  1.01768E+00 -5.60392E-02
    9025.105     26.159   3.120  9.49070E-01  1.01655E+00 -6.74780E-02
    9026.062     27.116   3.160  9.35361E-01  1.01523E+00 -7.98723E-02
    9027.031     28.085   3.200  9.22350E-01  1.01378E+00 -9.14340E-02
    9028.012     29.067   3.240  9.11145E-01  1.01219E+00 -1.01044E-01
    9029.006     30.060   3.280  9.02097E-01  1.01050E+00 -1.08401E-01
    9030.012     31.066   3.320  8.95282E-01  1.00872E+00 -1.13437E-01
    9031.030     32.084   3.360  8.90782E-01  1.00684E+00 -1.16058E-01
    9032.060     33.114   3.400  8.88618E-01  1.00491E+00 -1.16290E-01
    9033.102     34.157   3.440  8.88587E-01  1.00294E+00 -1.14348E-01
    9034.157     35.212   3.480  8.90477E-01  1.00094E+00 -1.10468E-01
    9035.224     36.278   3.520  8.94010E-01  9.98901E-01 -1.04891E-01
    9036.303     37.357   3.560  8.99051E-01  9.96874E-01 -9.78236E-02
    9037.394     38.448   3.600  9.05660E-01  9.94849E-01 -8.91887E-02
    9038.497     39.552   3.640  9.14024E-01  9.92828E-01 -7.88036E-02
    9039.613     40.667   3.680  9.24304E-01  9.90838E-01 -6.65341E-02
    9040.741     41.795   3.720  9.36428E-01  9.88864E-01 -5.24362E-02
    9041.881     42.935   3.760  9.50273E-01  9.86951E-01 -3.66781E-02
    9043.033     44.087   3.800  9.65464E-01  9.85083E-01 -1.96188E-02
    9044.197     45.252   3.840  9.81639E-01  9.83284E-01 -1.64498E-03
    9045.374     46.428   3.880  9.98643E-01  9.81536E-01  1.71072E-02
    9046.562     47.617   3.920  1.01643E+00  9.79863E-01  3.65635E-02
    9047.763     48.818   3.960  1.03450E+00  9.78268E-01  5.62305E-02
    9048.976     50.031   4.000  1.05184E+00  9.76773E-01  7.50643E-02
    9050.202     51.256   4.040  1.06688E+00  9.75337E-01  9.15436E-02
    9051.439     52.494   4.080  1.07815E+00  9.73985E-01  1.04162E-01
    9052.689     53.743   4.120  1.08503E+00  9.72736E-01  1.12296E-01
    9053.951     55.005   4.160  1.08825E+00  9.71573E-01  1.16678E-01
    9055.225     56.279   4.200  1.08918E+00  9.70496E-01  1.18682E-01
    9056.511     57.565   4.240  1.08905E+00  9.69527E-01  1.19528E-01
    9057.809     58.864   4.280  1.08844E+00  9.68668E-01  1.19772E-01
    9059.120     60.175   4.320  1.08723E+00  9.67897E-01  1.19335E-01
    9060.443     61.497   4.360  1.08480E+00  9.67212E-01  1.17585E-01
    9061.778     62.832   4.400  1.07980E+00  9.66636E-01  1.13165E-01
    9063.125     64.180   4.440  1.07017E+00  9.66147E-01  1.04027E-01
    9064.485     65.539   4.480  1.05408E+00  9.65765E-01  8.83185E-02
    9065.856     66.911   4.520  1.03119E+00  9.65469E-01  6.57232E-02
    9067.240     68.294   4.560  1.00339E+00  9.65256E-01  3.81293E-02
    9068.636     69.690   4.600  9.73966E-01  9.65148E-01  8.81778E-03
    9070.044     71.099   4.640  9.46241E-01  9.65102E-01 -1.88610E-02
    9071.464     72.519   4.680  9.22635E-01  9.65159E-01 -4.25231E-02
    9072.897     73.951   4.720  9.04319E-01  9.65296E-01 -6.09769E-02
    9074.342     75.396   4.760  8.91619E-01  9.65511E-01 -7.38917E-02
    9075.799     76.853   4.800  8.84368E-01  9.65803E-01 -8.14349E-02
    9077.268     78.322   4.840  8.82166E-01  9.66149E-01 -8.39827E-02
    9078.749     79.804   4.880  8.84709E-01  9.66587E-01 -8.18783E-02
    9080.243     81.297   4.920  8.91652E-01  9.67053E-01 -7.54008E-02
    9081.748     82.803   4.960  9.02884E-01  9.67587E-01 -6.47028E-02
    9083.266     84.321   5.000  9.18182E-01  9.68188E-01 -5.00059E-02
    9084.796     85.851   5.040  9.36854E-01  9.68810E-01 -3.19557E-02
    9086.339     87.393   5.080  9.57337E-01  9.69492E-01 -1.21550E-02
    9087.893     88.948   5.120  9.76845E-01  9.70192E-01  6.65258E-03
    9089.460     90.514   5.160  9.92275E-01  9.70947E-01  2.13280E-02
    9091.039     92.093   5.200  1.00140E+00  9.71692E-01  2.97089E-02
    9092.630     93.684   5.240  1.00394E+00  9.72487E-01  3.14519E-02
    9094.233     95.287   5.280  1.00095E+00  9.73267E-01  2.76853E-02
    9095.848     96.903   5.320  9.94207E-01  9.74071E-01  2.01366E-02
    9097.476     98.530   5.360  9.85421E-01  9.74877E-01  1.05437E-02
    9099.116    100.170   5.400  9.75960E-01  9.75684E-01  2.75826E-04
    9100.768    101.822   5.440  9.66578E-01  9.76485E-01 -9.90656E-03
    9102.432    103.486   5.480  9.57495E-01  9.77257E-01 -1.97618E-02
    9104.108    105.163   5.520  9.48899E-01  9.78020E-01 -2.91206E-02
    9105.797    106.851   5.560  9.41117E-01  9.78751E-01 -3.76342E-02
    9107.498    108.552   5.600  9.34625E-01  9.79470E-01 -4.48457E-02
    9109.211    110.265   5.640  9.29648E-01  9.80153E-01 -5.05042E-02
    9110.936    111.990   5.680  9.26140E-01  9.80794E-01 -5.46540E-02
    9112.673    113.728   5.720  9.23885E-01  9.81371E-01 -5.74852E-02
    9114.423    115.477   5.760  9.22843E-01  9.81926E-01 -5.90831E-02
    9116.184    117.239   5.800  9.23116E-01  9.82416E-01 -5.93000E-02
    9117.958    119.013   5.840  9.25162E-01  9.82859E-01 -5.76973E-02
    9119.745    120.799   5.880  9.29478E-01  9.83255E-01 -5.37773E-02
    9121.543    122.597   5.920  9.36108E-01  9.83576E-01 -4.74672E-02
    9123.353    124.408   5.960  9.44549E-01  9.83834E-01 -3.92846E-02
    9125.176    126.231   6.000  9.54654E-01  9.83983E-01 -2.93296E-02
