# # comment:                                                     FEFF 9.9.1  
# # Source:
# # Structure
# # Reduced
# # space
# # abc:
# # angles:
# # sites:
# # POT  SCF 100  7.0000   0, screened core-hole, AFOLP (folp(0)= 1.150)
# # Abs   Z=29 Rmt= 1.052 Rnm= 1.256 K  shell
# # Pot 1 Z=29 Rmt= 1.052 Rnm= 1.256
# # Pot 2 Z=16 Rmt= 0.864 Rnm= 1.114
# # Pot 3 Z= 7 Rmt= 1.063 Rnm= 1.268
# # Pot 4 Z= 8 Rmt= 0.790 Rnm= 1.018
# # Gam_ch=1.729E+00 H-L exch Vi= 0.000E+00 Vr= 0.000E+00
# # Mu=-6.799E+00eV kf=2.404E+00 Vint=-1.548E+01eV Rs_int= 1.509
# FMS rfms= 9.0000
# # PATH  Rmax=-1.000,  Keep_limit= 0.00, Heap_limit 0.00  Pwcrit= 2.50%
#  S02=0.950  Temp=   0.00  Debye_temp=   0.00  Global_sig2= 0.00000
#  Energy zero shift, vr, vi    0.00000E+00   0.00000E+00
#  Curved wave amplitude ratio filter   4.000%
#     file         sig2 tot  cw amp ratio   deg  nlegs   reff  inp sig2
#     0/   0 paths used
#  xsedge+ 50, used to normalize mu           2.4676E-04
#  -----------------------------------------------------------------------
#  omega    e    k    mu    mu0     chi     @#
    8983.439    -10.609  -1.000  3.53663E-02  5.40211E-02 -1.86548E-02
    8983.738    -10.311  -0.960  3.73351E-02  5.79020E-02 -2.05669E-02
    8984.024    -10.024  -0.920  3.94810E-02  6.22096E-02 -2.27285E-02
    8984.299     -9.750  -0.880  4.18272E-02  6.70061E-02 -2.51789E-02
    8984.561     -9.488  -0.840  4.44000E-02  7.23642E-02 -2.79642E-02
    8984.811     -9.238  -0.800  4.72296E-02  7.83678E-02 -3.11381E-02
    8985.049     -9.000  -0.760  5.03505E-02  8.51131E-02 -3.47625E-02
    8985.274     -8.774  -0.720  5.38011E-02  9.27089E-02 -3.89078E-02
    8985.488     -8.561  -0.680  5.76232E-02  1.01275E-01 -4.36518E-02
    8985.689     -8.360  -0.640  6.18601E-02  1.10937E-01 -4.90772E-02
    8985.878     -8.171  -0.600  6.65536E-02  1.21820E-01 -5.52662E-02
    8986.054     -7.994  -0.560  7.17377E-02  1.34028E-01 -6.22903E-02
    8986.219     -7.829  -0.520  7.74296E-02  1.47624E-01 -7.01945E-02
    8986.371     -7.677  -0.480  8.36171E-02  1.62593E-01 -7.89764E-02
    8986.512     -7.537  -0.440  9.02443E-02  1.78805E-01 -8.85603E-02
    8986.640     -7.409  -0.400  9.71999E-02  1.95977E-01 -9.87769E-02
    8986.755     -7.293  -0.360  1.04314E-01  2.13669E-01 -1.09355E-01
    8986.859     -7.189  -0.320  1.11369E-01  2.31308E-01 -1.19939E-01
    8986.951     -7.098  -0.280  1.18125E-01  2.48257E-01 -1.30132E-01
    8987.030     -7.019  -0.240  1.24355E-01  2.63904E-01 -1.39549E-01
    8987.097     -6.952  -0.200  1.29867E-01  2.77735E-01 -1.47868E-01
    8987.152     -6.897  -0.160  1.34517E-01  2.89372E-01 -1.54855E-01
    8987.194     -6.854  -0.120  1.38211E-01  2.98574E-01 -1.60363E-01
    8987.225     -6.824  -0.080  1.40894E-01  3.05205E-01 -1.64311E-01
    8987.249     -6.799   0.000  1.43107E-01  3.10533E-01 -1.67426E-01
    8987.304     -6.744   0.120  1.48325E-01  3.22554E-01 -1.74229E-01
    8987.347     -6.702   0.160  1.52237E-01  3.31898E-01 -1.79662E-01
    8987.402     -6.647   0.200  1.57213E-01  3.43846E-01 -1.86633E-01
    8987.469     -6.580   0.240  1.63186E-01  3.58221E-01 -1.95035E-01
    8987.548     -6.501   0.280  1.70072E-01  3.74745E-01 -2.04672E-01
    8987.639     -6.409   0.320  1.77759E-01  3.93009E-01 -2.15250E-01
    8987.743     -6.305   0.360  1.86137E-01  4.12506E-01 -2.26368E-01
    8987.859     -6.190   0.400  1.95085E-01  4.32692E-01 -2.37608E-01
    8987.987     -6.062   0.440  2.04508E-01  4.53055E-01 -2.48546E-01
    8988.127     -5.921   0.480  2.14357E-01  4.73189E-01 -2.58832E-01
    8988.279     -5.769   0.520  2.24604E-01  4.92873E-01 -2.68269E-01
    8988.444     -5.604   0.560  2.35258E-01  5.11954E-01 -2.76697E-01
    8988.621     -5.428   0.600  2.46488E-01  5.30444E-01 -2.83955E-01
    8988.810     -5.239   0.640  2.58578E-01  5.48376E-01 -2.89798E-01
    8989.011     -5.038   0.680  2.71956E-01  5.65800E-01 -2.93844E-01
    8989.224     -4.824   0.720  2.87127E-01  5.82840E-01 -2.95713E-01
    8989.450     -4.599   0.760  3.04423E-01  5.99556E-01 -2.95134E-01
    8989.688     -4.361   0.800  3.24027E-01  6.16040E-01 -2.92013E-01
    8989.938     -4.111   0.840  3.45903E-01  6.32351E-01 -2.86448E-01
    8990.200     -3.849   0.880  3.69966E-01  6.48514E-01 -2.78549E-01
    8990.474     -3.574   0.920  3.96316E-01  6.64582E-01 -2.68267E-01
    8990.761     -3.288   0.960  4.24898E-01  6.80575E-01 -2.55677E-01
    8991.059     -2.989   1.000  4.54245E-01  6.96504E-01 -2.42258E-01
    8991.370     -2.678   1.040  4.79489E-01  7.12347E-01 -2.32859E-01
    8991.693     -2.355   1.080  4.93517E-01  7.28100E-01 -2.34583E-01
    8992.028     -2.020   1.120  4.93046E-01  7.43748E-01 -2.50701E-01
    8992.376     -1.673   1.160  4.83448E-01  7.59273E-01 -2.75826E-01
    8992.736     -1.313   1.200  4.73986E-01  7.74654E-01 -3.00668E-01
    8993.107     -0.941   1.240  4.68628E-01  7.89844E-01 -3.21216E-01
    8993.492     -0.557   1.280  4.64880E-01  8.04814E-01 -3.39934E-01
    8993.888     -0.161   1.320  4.58939E-01  8.19555E-01 -3.60616E-01
    8994.296      0.248   1.360  4.49318E-01  8.33994E-01 -3.84676E-01
    8994.717      0.668   1.400  4.38576E-01  8.48141E-01 -4.09565E-01
    8995.150      1.101   1.440  4.30641E-01  8.61921E-01 -4.31280E-01
    8995.595      1.546   1.480  4.27055E-01  8.75321E-01 -4.48266E-01
    8996.052      2.003   1.520  4.28315E-01  8.88310E-01 -4.59995E-01
    8996.521      2.473   1.560  4.35429E-01  9.00855E-01 -4.65426E-01
    8997.003      2.954   1.600  4.47904E-01  9.12945E-01 -4.65041E-01
    8997.497      3.448   1.640  4.63505E-01  9.24528E-01 -4.61023E-01
    8998.003      3.954   1.680  4.81211E-01  9.35598E-01 -4.54387E-01
    8998.521      4.472   1.720  5.03131E-01  9.46147E-01 -4.43016E-01
    8999.051      5.003   1.760  5.33558E-01  9.56127E-01 -4.22569E-01
    8999.594      5.545   1.800  5.76618E-01  9.65576E-01 -3.88958E-01
    9000.148      6.100   1.840  6.34055E-01  9.74449E-01 -3.40394E-01
    9000.715      6.667   1.880  7.03058E-01  9.82743E-01 -2.79685E-01
    9001.294      7.246   1.920  7.77362E-01  9.90481E-01 -2.13120E-01
    9001.886      7.837   1.960  8.55223E-01  9.97642E-01 -1.42419E-01
    9002.489      8.441   2.000  9.41258E-01  1.00423E+00 -6.29707E-02
    9003.105      9.056   2.040  1.03649E+00  1.01025E+00  2.62436E-02
    9003.733      9.684   2.080  1.13621E+00  1.01574E+00  1.20471E-01
    9004.373     10.324   2.120  1.23595E+00  1.02067E+00  2.15285E-01
    9005.025     10.977   2.160  1.33035E+00  1.02507E+00  3.05283E-01
    9005.690     11.641   2.200  1.41187E+00  1.02897E+00  3.82903E-01
    9006.366     12.318   2.240  1.47077E+00  1.03234E+00  4.38424E-01
    9007.055     13.007   2.280  1.49664E+00  1.03526E+00  4.61385E-01
    9007.756     13.708   2.320  1.49274E+00  1.03772E+00  4.55028E-01
    9008.469     14.421   2.360  1.47489E+00  1.03973E+00  4.35162E-01
    9009.195     15.146   2.400  1.45316E+00  1.04132E+00  4.11831E-01
    9009.932     15.884   2.440  1.43032E+00  1.04254E+00  3.87781E-01
    9010.682     16.634   2.480  1.40935E+00  1.04336E+00  3.65991E-01
    9011.444     17.396   2.520  1.38728E+00  1.04384E+00  3.43436E-01
    9012.218     18.170   2.560  1.35686E+00  1.04398E+00  3.12881E-01
    9013.005     18.956   2.600  1.32117E+00  1.04383E+00  2.77343E-01
    9013.803     19.755   2.640  1.28716E+00  1.04338E+00  2.43782E-01
    9014.614     20.566   2.680  1.25089E+00  1.04267E+00  2.08222E-01
    9015.437     21.389   2.720  1.20606E+00  1.04169E+00  1.64368E-01
    9016.272     22.224   2.760  1.15515E+00  1.04052E+00  1.14622E-01
    9017.120     23.071   2.800  1.11191E+00  1.03915E+00  7.27614E-02
    9017.979     23.931   2.840  1.08504E+00  1.03759E+00  4.74537E-02
    9018.851     24.802   2.880  1.06751E+00  1.03586E+00  3.16485E-02
    9019.735     25.686   2.920  1.05348E+00  1.03399E+00  1.94870E-02
    9020.631     26.582   2.960  1.04028E+00  1.03201E+00  8.26926E-03
    9021.539     27.491   3.000  1.02674E+00  1.02990E+00 -3.16312E-03
    9022.460     28.411   3.040  1.01296E+00  1.02771E+00 -1.47556E-02
    9023.392     29.344   3.080  9.99557E-01  1.02546E+00 -2.59026E-02
    9024.337     30.289   3.120  9.86985E-01  1.02312E+00 -3.61304E-02
    9025.294     31.246   3.160  9.75628E-01  1.02075E+00 -4.51186E-02
    9026.263     32.215   3.200  9.65404E-01  1.01834E+00 -5.29342E-02
    9027.245     33.196   3.240  9.56144E-01  1.01590E+00 -5.97539E-02
    9028.239     34.190   3.280  9.47833E-01  1.01345E+00 -6.56181E-02
    9029.244     35.196   3.320  9.40314E-01  1.01103E+00 -7.07127E-02
    9030.262     36.214   3.360  9.33308E-01  1.00858E+00 -7.52755E-02
    9031.293     37.244   3.400  9.26578E-01  1.00617E+00 -7.95865E-02
    9032.335     38.287   3.440  9.19719E-01  1.00378E+00 -8.40652E-02
    9033.390     39.341   3.480  9.12553E-01  1.00145E+00 -8.88933E-02
    9034.456     40.408   3.520  9.05224E-01  9.99149E-01 -9.39251E-02
    9035.535     41.487   3.560  8.98172E-01  9.96922E-01 -9.87498E-02
    9036.627     42.578   3.600  8.92243E-01  9.94740E-01 -1.02497E-01
    9037.730     43.682   3.640  8.88439E-01  9.92612E-01 -1.04173E-01
    9038.846     44.797   3.680  8.87464E-01  9.90578E-01 -1.03114E-01
    9039.973     45.925   3.720  8.89597E-01  9.88598E-01 -9.90003E-02
    9041.113     47.065   3.760  8.94579E-01  9.86704E-01 -9.21249E-02
    9042.265     48.217   3.800  9.01705E-01  9.84910E-01 -8.32057E-02
    9043.430     49.381   3.840  9.10049E-01  9.83202E-01 -7.31531E-02
    9044.606     50.558   3.880  9.18579E-01  9.81579E-01 -6.30005E-02
    9045.795     51.746   3.920  9.26492E-01  9.80042E-01 -5.35508E-02
    9046.996     52.947   3.960  9.33265E-01  9.78614E-01 -4.53491E-02
    9048.209     54.160   4.000  9.38650E-01  9.77276E-01 -3.86266E-02
    9049.434     55.386   4.040  9.42707E-01  9.76051E-01 -3.33435E-02
    9050.672     56.623   4.080  9.45632E-01  9.74937E-01 -2.93056E-02
    9051.921     57.873   4.120  9.47789E-01  9.73914E-01 -2.61252E-02
    9053.183     59.135   4.160  9.49662E-01  9.72982E-01 -2.33196E-02
    9054.457     60.409   4.200  9.51776E-01  9.72183E-01 -2.04071E-02
    9055.744     61.695   4.240  9.54461E-01  9.71455E-01 -1.69933E-02
    9057.042     62.994   4.280  9.58085E-01  9.70861E-01 -1.27755E-02
    9058.353     64.304   4.320  9.62730E-01  9.70357E-01 -7.62696E-03
    9059.676     65.627   4.360  9.68340E-01  9.69942E-01 -1.60168E-03
    9061.011     66.962   4.400  9.74757E-01  9.69638E-01  5.11812E-03
    9062.358     68.309   4.440  9.81691E-01  9.69424E-01  1.22670E-02
    9063.717     69.669   4.480  9.88837E-01  9.69321E-01  1.95161E-02
    9065.089     71.040   4.520  9.95836E-01  9.69328E-01  2.65081E-02
    9066.473     72.424   4.560  1.00238E+00  9.69399E-01  3.29768E-02
    9067.869     73.820   4.600  1.00833E+00  9.69576E-01  3.87496E-02
    9069.277     75.228   4.640  1.01357E+00  9.69838E-01  4.37319E-02
    9070.697     76.649   4.680  1.01814E+00  9.70184E-01  4.79546E-02
    9072.130     78.081   4.720  1.02213E+00  9.70633E-01  5.14934E-02
    9073.574     79.526   4.760  1.02552E+00  9.71139E-01  5.43783E-02
    9075.031     80.983   4.800  1.02827E+00  9.71724E-01  5.65499E-02
    9076.500     82.452   4.840  1.03027E+00  9.72386E-01  5.78822E-02
    9077.982     83.933   4.880  1.03139E+00  9.73123E-01  5.82641E-02
    9079.475     85.427   4.920  1.03162E+00  9.73911E-01  5.77064E-02
    9080.981     86.932   4.960  1.03112E+00  9.74771E-01  5.63516E-02
    9082.499     88.450   5.000  1.03010E+00  9.75678E-01  5.44190E-02
    9084.029     89.980   5.040  1.02874E+00  9.76651E-01  5.20926E-02
    9085.571     91.523   5.080  1.02713E+00  9.77646E-01  4.94805E-02
    9087.126     93.077   5.120  1.02530E+00  9.78705E-01  4.65935E-02
    9088.692     94.644   5.160  1.02315E+00  9.79803E-01  4.33482E-02
    9090.271     96.223   5.200  1.02054E+00  9.80916E-01  3.96269E-02
    9091.862     97.814   5.240  1.01745E+00  9.82086E-01  3.53656E-02
    9093.466     99.417   5.280  1.01390E+00  9.83267E-01  3.06346E-02
    9095.081    101.032   5.320  1.01010E+00  9.84453E-01  2.56469E-02
    9096.709    102.660   5.360  1.00627E+00  9.85643E-01  2.06242E-02
    9098.348    104.300   5.400  1.00248E+00  9.86860E-01  1.56189E-02
    9100.000    105.952   5.440  9.98500E-01  9.88078E-01  1.04220E-02
    9101.665    107.616   5.480  9.94012E-01  9.89294E-01  4.71824E-03
    9103.341    109.292   5.520  9.88828E-01  9.90485E-01 -1.65727E-03
    9105.030    110.981   5.560  9.83129E-01  9.91692E-01 -8.56329E-03
    9106.730    112.682   5.600  9.77282E-01  9.92868E-01 -1.55864E-02
    9108.443    114.395   5.640  9.71782E-01  9.94010E-01 -2.22281E-02
    9110.168    116.120   5.680  9.67034E-01  9.95136E-01 -2.81021E-02
    9111.906    117.857   5.720  9.63195E-01  9.96202E-01 -3.30070E-02
    9113.655    119.607   5.760  9.60385E-01  9.97249E-01 -3.68647E-02
    9115.417    121.369   5.800  9.58613E-01  9.98254E-01 -3.96412E-02
    9117.191    123.143   5.840  9.57873E-01  9.99213E-01 -4.13393E-02
    9118.977    124.929   5.880  9.58028E-01  1.00010E+00 -4.20671E-02
    9120.775    126.727   5.920  9.58853E-01  1.00092E+00 -4.20654E-02
    9122.586    128.537   5.960  9.60111E-01  1.00167E+00 -4.15568E-02
    9124.409    130.360   6.000  9.61812E-01  1.00230E+00 -4.04908E-02
