# # comment:                                                     FEFF 9.9.1  
# # Source:
# # Structure
# # Reduced
# # space
# # abc:
# # angles:
# # sites:
# # POT  SCF 100  7.0000   0, screened core-hole, AFOLP (folp(0)= 1.150)
# # Abs   Z=29 Rmt= 1.289 Rnm= 1.354 K  shell
# # Pot 1 Z=13 Rmt= 1.127 Rnm= 1.298
# # Pot 2 Z=29 Rmt= 1.369 Rnm= 1.439
# # Pot 3 Z= 8 Rmt= 0.979 Rnm= 1.096
# # Gam_ch=1.729E+00 H-L exch Vi= 0.000E+00 Vr= 0.000E+00
# # Mu=-8.415E+00eV kf=2.189E+00 Vint=-1.677E+01eV Rs_int= 1.657
# FMS rfms= 9.0000
# # PATH  Rmax=-1.000,  Keep_limit= 0.00, Heap_limit 0.00  Pwcrit= 2.50%
#  S02=0.950  Temp=   0.00  Debye_temp=   0.00  Global_sig2= 0.00000
#  Energy zero shift, vr, vi    0.00000E+00   0.00000E+00
#  Curved wave amplitude ratio filter   4.000%
#     file         sig2 tot  cw amp ratio   deg  nlegs   reff  inp sig2
#     0/   0 paths used
#  xsedge+ 50, used to normalize mu           2.4855E-04
#  -----------------------------------------------------------------------
#  omega    e    k    mu    mu0     chi     @#
    8983.589    -12.225  -1.000  3.12063E-02  4.74681E-02 -1.62617E-02
    8983.888    -11.926  -0.960  3.25114E-02  5.07621E-02 -1.82507E-02
    8984.174    -11.640  -0.920  3.38805E-02  5.44113E-02 -2.05308E-02
    8984.448    -11.365  -0.880  3.53174E-02  5.84673E-02 -2.31500E-02
    8984.711    -11.103  -0.840  3.68260E-02  6.29900E-02 -2.61640E-02
    8984.961    -10.853  -0.800  3.84107E-02  6.80486E-02 -2.96379E-02
    8985.198    -10.616  -0.760  4.00762E-02  7.37227E-02 -3.36465E-02
    8985.424    -10.390  -0.720  4.18275E-02  8.01019E-02 -3.82743E-02
    8985.637    -10.177  -0.680  4.36696E-02  8.72849E-02 -4.36153E-02
    8985.838     -9.976  -0.640  4.56069E-02  9.53756E-02 -4.97687E-02
    8986.027     -9.787  -0.600  4.76430E-02  1.04476E-01 -5.68330E-02
    8986.204     -9.610  -0.560  4.97787E-02  1.14673E-01 -6.48939E-02
    8986.369     -9.445  -0.520  5.20108E-02  1.26016E-01 -7.40057E-02
    8986.521     -9.293  -0.480  5.43288E-02  1.38495E-01 -8.41658E-02
    8986.661     -9.153  -0.440  5.67124E-02  1.51998E-01 -9.52855E-02
    8986.789     -9.025  -0.400  5.91290E-02  1.66293E-01 -1.07164E-01
    8986.905     -8.909  -0.360  6.15333E-02  1.81016E-01 -1.19482E-01
    8987.009     -8.805  -0.320  6.38696E-02  1.95690E-01 -1.31820E-01
    8987.100     -8.714  -0.280  6.60779E-02  2.09789E-01 -1.43711E-01
    8987.179     -8.634  -0.240  6.81005E-02  2.22806E-01 -1.54705E-01
    8987.247     -8.567  -0.200  6.98876E-02  2.34313E-01 -1.64425E-01
    8987.301     -8.513  -0.160  7.14004E-02  2.43997E-01 -1.72597E-01
    8987.344     -8.470  -0.120  7.26102E-02  2.51656E-01 -1.79046E-01
    8987.375     -8.439  -0.080  7.34968E-02  2.57176E-01 -1.83679E-01
    8987.399     -8.415   0.000  7.42369E-02  2.61613E-01 -1.87376E-01
    8987.454     -8.360   0.120  7.59481E-02  2.71636E-01 -1.95687E-01
    8987.496     -8.317   0.160  7.72016E-02  2.79409E-01 -2.02207E-01
    8987.551     -8.263   0.200  7.88472E-02  2.89378E-01 -2.10530E-01
    8987.618     -8.196   0.240  8.08114E-02  3.01355E-01 -2.20544E-01
    8987.698     -8.116   0.280  8.31503E-02  3.15158E-01 -2.32008E-01
    8987.789     -8.025   0.320  8.58291E-02  3.30431E-01 -2.44602E-01
    8987.893     -7.921   0.360  8.88705E-02  3.46758E-01 -2.57887E-01
    8988.009     -7.805   0.400  9.22888E-02  3.63695E-01 -2.71406E-01
    8988.137     -7.677   0.440  9.61929E-02  3.80841E-01 -2.84648E-01
    8988.277     -7.537   0.480  1.00617E-01  3.97861E-01 -2.97244E-01
    8988.429     -7.385   0.520  1.05737E-01  4.14556E-01 -3.08819E-01
    8988.594     -7.220   0.560  1.11707E-01  4.30838E-01 -3.19132E-01
    8988.771     -7.043   0.600  1.18686E-01  4.46681E-01 -3.27996E-01
    8988.959     -6.854   0.640  1.26798E-01  4.62131E-01 -3.35334E-01
    8989.161     -6.653   0.680  1.36106E-01  4.77265E-01 -3.41159E-01
    8989.374     -6.440   0.720  1.46550E-01  4.92149E-01 -3.45599E-01
    8989.600     -6.214   0.760  1.58299E-01  5.06847E-01 -3.48548E-01
    8989.837     -5.977   0.800  1.71928E-01  5.21436E-01 -3.49509E-01
    8990.087     -5.727   0.840  1.88497E-01  5.35966E-01 -3.47469E-01
    8990.349     -5.465   0.880  2.09306E-01  5.50490E-01 -3.41184E-01
    8990.624     -5.190   0.920  2.35525E-01  5.65014E-01 -3.29489E-01
    8990.910     -4.904   0.960  2.67911E-01  5.79594E-01 -3.11684E-01
    8991.209     -4.605   1.000  3.05788E-01  5.94215E-01 -2.88427E-01
    8991.520     -4.294   1.040  3.46184E-01  6.08876E-01 -2.62692E-01
    8991.843     -3.971   1.080  3.84258E-01  6.23571E-01 -2.39313E-01
    8992.178     -3.636   1.120  4.16849E-01  6.38303E-01 -2.21454E-01
    8992.526     -3.288   1.160  4.44563E-01  6.53038E-01 -2.08475E-01
    8992.885     -2.929   1.200  4.70651E-01  6.67796E-01 -1.97145E-01
    8993.257     -2.557   1.240  5.00000E-01  6.82489E-01 -1.82489E-01
    8993.641     -2.173   1.280  5.37181E-01  6.97151E-01 -1.59969E-01
    8994.037     -1.776   1.320  5.82183E-01  7.11694E-01 -1.29511E-01
    8994.446     -1.368   1.360  6.32480E-01  7.26148E-01 -9.36681E-02
    8994.866     -0.947   1.400  6.85748E-01  7.40440E-01 -5.46917E-02
    8995.299     -0.515   1.440  7.37497E-01  7.54560E-01 -1.70625E-02
    8995.744     -0.070   1.480  7.84198E-01  7.68474E-01  1.57239E-02
    8996.202      0.388   1.520  8.27573E-01  7.82148E-01  4.54247E-02
    8996.671      0.857   1.560  8.66583E-01  7.95551E-01  7.10327E-02
    8997.152      1.339   1.600  8.92211E-01  8.08669E-01  8.35415E-02
    8997.646      1.832   1.640  9.03201E-01  8.21432E-01  8.17698E-02
    8998.152      2.338   1.680  9.14204E-01  8.33866E-01  8.03378E-02
    8998.670      2.856   1.720  9.42147E-01  8.45923E-01  9.62243E-02
    8999.201      3.387   1.760  9.89446E-01  8.57571E-01  1.31874E-01
    8999.743      3.929   1.800  1.04172E+00  8.68823E-01  1.72901E-01
    9000.298      4.484   1.840  1.09527E+00  8.79631E-01  2.15643E-01
    9000.865      5.051   1.880  1.16305E+00  8.90009E-01  2.73039E-01
    9001.444      5.630   1.920  1.24479E+00  8.99910E-01  3.44883E-01
    9002.035      6.221   1.960  1.31461E+00  9.09371E-01  4.05242E-01
    9002.639      6.825   2.000  1.34702E+00  9.18330E-01  4.28691E-01
    9003.255      7.441   2.040  1.33692E+00  9.26823E-01  4.10100E-01
    9003.882      8.069   2.080  1.28424E+00  9.34851E-01  3.49388E-01
    9004.523      8.709   2.120  1.21283E+00  9.42374E-01  2.70453E-01
    9005.175      9.361   2.160  1.15599E+00  9.49434E-01  2.06552E-01
    9005.839     10.025   2.200  1.12092E+00  9.56032E-01  1.64891E-01
    9006.516     10.702   2.240  1.09628E+00  9.62151E-01  1.34124E-01
    9007.205     11.391   2.280  1.07350E+00  9.67797E-01  1.05705E-01
    9007.906     12.092   2.320  1.05678E+00  9.73015E-01  8.37676E-02
    9008.619     12.805   2.360  1.05201E+00  9.77790E-01  7.42150E-02
    9009.344     13.531   2.400  1.05863E+00  9.82128E-01  7.65052E-02
    9010.082     14.268   2.440  1.07184E+00  9.86077E-01  8.57655E-02
    9010.832     15.018   2.480  1.08959E+00  9.89604E-01  9.99901E-02
    9011.594     15.780   2.520  1.10778E+00  9.92779E-01  1.15003E-01
    9012.368     16.554   2.560  1.10898E+00  9.95567E-01  1.13411E-01
    9013.154     17.340   2.600  1.07549E+00  9.98017E-01  7.74759E-02
    9013.953     18.139   2.640  1.02180E+00  1.00012E+00  2.16838E-02
    9014.764     18.950   2.680  9.71416E-01  1.00192E+00 -3.05059E-02
    9015.587     19.773   2.720  9.31786E-01  1.00343E+00 -7.16488E-02
    9016.422     20.608   2.760  9.02446E-01  1.00467E+00 -1.02220E-01
    9017.269     21.455   2.800  8.80931E-01  1.00562E+00 -1.24693E-01
    9018.129     22.315   2.840  8.65917E-01  1.00636E+00 -1.40443E-01
    9019.000     23.187   2.880  8.56284E-01  1.00686E+00 -1.50576E-01
    9019.884     24.070   2.920  8.50893E-01  1.00715E+00 -1.56261E-01
    9020.780     24.967   2.960  8.48620E-01  1.00725E+00 -1.58629E-01
    9021.689     25.875   3.000  8.48053E-01  1.00717E+00 -1.59120E-01
    9022.609     26.795   3.040  8.48266E-01  1.00692E+00 -1.58650E-01
    9023.542     27.728   3.080  8.49088E-01  1.00655E+00 -1.57459E-01
    9024.487     28.673   3.120  8.50558E-01  1.00603E+00 -1.55473E-01
    9025.444     29.630   3.160  8.52876E-01  1.00542E+00 -1.52540E-01
    9026.413     30.599   3.200  8.56360E-01  1.00469E+00 -1.48330E-01
    9027.395     31.581   3.240  8.61555E-01  1.00388E+00 -1.42324E-01
    9028.388     32.574   3.280  8.68523E-01  1.00299E+00 -1.34466E-01
    9029.394     33.580   3.320  8.77380E-01  1.00205E+00 -1.24666E-01
    9030.412     34.598   3.360  8.88087E-01  1.00103E+00 -1.12946E-01
    9031.442     35.628   3.400  9.00526E-01  9.99980E-01 -9.94539E-02
    9032.485     36.671   3.440  9.14588E-01  9.98912E-01 -8.43235E-02
    9033.539     37.725   3.480  9.30402E-01  9.97810E-01 -6.74082E-02
    9034.606     38.792   3.520  9.48132E-01  9.96703E-01 -4.85705E-02
    9035.685     39.871   3.560  9.67549E-01  9.95594E-01 -2.80451E-02
    9036.776     40.962   3.600  9.88039E-01  9.94487E-01 -6.44834E-03
    9037.880     42.066   3.640  1.00863E+00  9.93405E-01  1.52283E-02
    9038.995     43.181   3.680  1.02800E+00  9.92331E-01  3.56726E-02
    9040.123     44.309   3.720  1.04506E+00  9.91267E-01  5.37967E-02
    9041.263     45.449   3.760  1.05915E+00  9.90258E-01  6.88938E-02
    9042.415     46.601   3.800  1.06977E+00  9.89263E-01  8.05099E-02
    9043.579     47.765   3.840  1.07671E+00  9.88307E-01  8.84058E-02
    9044.756     48.942   3.880  1.08014E+00  9.87393E-01  9.27475E-02
    9045.945     50.131   3.920  1.08067E+00  9.86543E-01  9.41235E-02
    9047.146     51.332   3.960  1.07923E+00  9.85737E-01  9.34975E-02
    9048.359     52.545   4.000  1.07701E+00  9.84976E-01  9.20364E-02
    9049.584     53.770   4.040  1.07483E+00  9.84260E-01  9.05652E-02
    9050.821     55.008   4.080  1.07288E+00  9.83613E-01  8.92664E-02
    9052.071     56.257   4.120  1.07080E+00  9.83037E-01  8.77590E-02
    9053.333     57.519   4.160  1.06802E+00  9.82509E-01  8.55154E-02
    9054.607     58.793   4.200  1.06412E+00  9.82028E-01  8.20877E-02
    9055.893     60.079   4.240  1.05890E+00  9.81619E-01  7.72855E-02
    9057.192     61.378   4.280  1.05256E+00  9.81280E-01  7.12803E-02
    9058.502     62.688   4.320  1.04544E+00  9.80988E-01  6.44563E-02
    9059.825     64.011   4.360  1.03793E+00  9.80746E-01  5.71884E-02
    9061.160     65.346   4.400  1.03024E+00  9.80573E-01  4.96655E-02
    9062.507     66.693   4.440  1.02229E+00  9.80469E-01  4.18229E-02
    9063.867     68.053   4.480  1.01387E+00  9.80392E-01  3.34813E-02
    9065.238     69.424   4.520  1.00499E+00  9.80401E-01  2.45873E-02
    9066.622     70.808   4.560  9.95720E-01  9.80436E-01  1.52846E-02
    9068.018     72.204   4.600  9.86295E-01  9.80536E-01  5.75867E-03
    9069.426     73.612   4.640  9.76868E-01  9.80679E-01 -3.81095E-03
    9070.847     75.033   4.680  9.67592E-01  9.80862E-01 -1.32694E-02
    9072.279     76.465   4.720  9.58547E-01  9.81087E-01 -2.25398E-02
    9073.724     77.910   4.760  9.49792E-01  9.81351E-01 -3.15590E-02
    9075.181     79.367   4.800  9.41484E-01  9.81653E-01 -4.01685E-02
    9076.650     80.836   4.840  9.33962E-01  9.81992E-01 -4.80301E-02
    9078.131     82.317   4.880  9.27671E-01  9.82367E-01 -5.46957E-02
    9079.625     83.811   4.920  9.22921E-01  9.82754E-01 -5.98326E-02
    9081.131     85.317   4.960  9.19905E-01  9.83173E-01 -6.32684E-02
    9082.649     86.835   5.000  9.18750E-01  9.83623E-01 -6.48729E-02
    9084.179     88.365   5.040  9.19436E-01  9.84079E-01 -6.46432E-02
    9085.721     89.907   5.080  9.21897E-01  9.84540E-01 -6.26424E-02
    9087.275     91.461   5.120  9.25968E-01  9.85004E-01 -5.90353E-02
    9088.842     93.028   5.160  9.31490E-01  9.85493E-01 -5.40028E-02
    9090.421     94.607   5.200  9.38322E-01  9.85983E-01 -4.76611E-02
    9092.012     96.198   5.240  9.46241E-01  9.86450E-01 -4.02092E-02
    9093.615     97.801   5.280  9.54891E-01  9.86934E-01 -3.20428E-02
    9095.231     99.417   5.320  9.63536E-01  9.87393E-01 -2.38565E-02
    9096.858    101.044   5.360  9.71359E-01  9.87846E-01 -1.64870E-02
    9098.498    102.684   5.400  9.77558E-01  9.88291E-01 -1.07332E-02
    9100.150    104.336   5.440  9.81514E-01  9.88705E-01 -7.19110E-03
    9101.814    106.000   5.480  9.82990E-01  9.89085E-01 -6.09548E-03
    9103.491    107.677   5.520  9.82391E-01  9.89456E-01 -7.06531E-03
    9105.179    109.365   5.560  9.80805E-01  9.89815E-01 -9.00973E-03
    9106.880    111.066   5.600  9.79679E-01  9.90115E-01 -1.04368E-02
    9108.593    112.779   5.640  9.80356E-01  9.90401E-01 -1.00452E-02
    9110.318    114.504   5.680  9.83407E-01  9.90650E-01 -7.24205E-03
    9112.055    116.242   5.720  9.88566E-01  9.90859E-01 -2.29360E-03
    9113.805    117.991   5.760  9.94923E-01  9.91029E-01  3.89370E-03
    9115.567    119.753   5.800  1.00138E+00  9.91159E-01  1.02168E-02
    9117.341    121.527   5.840  1.00705E+00  9.91248E-01  1.57985E-02
    9119.127    123.313   5.880  1.01152E+00  9.91298E-01  2.02178E-02
    9120.925    125.111   5.920  1.01479E+00  9.91307E-01  2.34878E-02
    9122.736    126.922   5.960  1.01709E+00  9.91268E-01  2.58188E-02
    9124.558    128.744   6.000  1.01856E+00  9.91136E-01  2.74230E-02
