# # comment:                                                     FEFF 9.9.1  
# # Source:
# # Structure
# # Reduced
# # space
# # abc:
# # angles:
# # sites:
# # POT  SCF 100  7.0000   0, screened core-hole, AFOLP (folp(0)= 1.150)
# # Abs   Z=29 Rmt= 1.246 Rnm= 1.307 K  shell
# # Pot 1 Z=29 Rmt= 1.247 Rnm= 1.308
# # Pot 2 Z=28 Rmt= 1.330 Rnm= 1.398
# # Pot 3 Z= 8 Rmt= 1.039 Rnm= 1.084
# # Gam_ch=1.729E+00 H-L exch Vi= 0.000E+00 Vr= 0.000E+00
# # Mu=-1.088E+01eV kf=2.180E+00 Vint=-1.948E+01eV Rs_int= 1.664
# FMS rfms= 9.0000
# # PATH  Rmax=-1.000,  Keep_limit= 0.00, Heap_limit 0.00  Pwcrit= 2.50%
#  S02=0.950  Temp=   0.00  Debye_temp=   0.00  Global_sig2= 0.00000
#  Energy zero shift, vr, vi    0.00000E+00   0.00000E+00
#  Curved wave amplitude ratio filter   4.000%
#     file         sig2 tot  cw amp ratio   deg  nlegs   reff  inp sig2
#     0/   0 paths used
#  xsedge+ 50, used to normalize mu           2.4778E-04
#  -----------------------------------------------------------------------
#  omega    e    k    mu    mu0     chi     @#
    8985.075    -14.695  -1.000  3.55789E-02  5.24373E-02 -1.68584E-02
    8985.373    -14.396  -0.960  3.72480E-02  5.61933E-02 -1.89453E-02
    8985.660    -14.109  -0.920  3.90301E-02  6.03623E-02 -2.13322E-02
    8985.934    -13.835  -0.880  4.09389E-02  6.50048E-02 -2.40658E-02
    8986.196    -13.573  -0.840  4.29907E-02  7.01908E-02 -2.72001E-02
    8986.446    -13.323  -0.800  4.52052E-02  7.60019E-02 -3.07967E-02
    8986.684    -13.085  -0.760  4.76056E-02  8.25313E-02 -3.49257E-02
    8986.910    -12.860  -0.720  5.02194E-02  8.98845E-02 -3.96651E-02
    8987.123    -12.646  -0.680  5.30776E-02  9.81773E-02 -4.50997E-02
    8987.324    -12.445  -0.640  5.62140E-02  1.07532E-01 -5.13181E-02
    8987.513    -12.256  -0.600  5.96621E-02  1.18069E-01 -5.84070E-02
    8987.690    -12.079  -0.560  6.34488E-02  1.29890E-01 -6.64414E-02
    8987.854    -11.915  -0.520  6.75857E-02  1.43056E-01 -7.54704E-02
    8988.007    -11.762  -0.480  7.20552E-02  1.57552E-01 -8.54973E-02
    8988.147    -11.622  -0.440  7.67961E-02  1.73252E-01 -9.64562E-02
    8988.275    -11.494  -0.400  8.16929E-02  1.89883E-01 -1.08190E-01
    8988.391    -11.378  -0.360  8.65784E-02  2.07018E-01 -1.20440E-01
    8988.495    -11.275  -0.320  9.12542E-02  2.24102E-01 -1.32847E-01
    8988.586    -11.183  -0.280  9.55275E-02  2.40517E-01 -1.44990E-01
    8988.665    -11.104  -0.240  9.92489E-02  2.55671E-01 -1.56422E-01
    8988.732    -11.037  -0.200  1.02335E-01  2.69066E-01 -1.66731E-01
    8988.787    -10.982  -0.160  1.04768E-01  2.80336E-01 -1.75568E-01
    8988.830    -10.939  -0.120  1.06575E-01  2.89247E-01 -1.82672E-01
    8988.860    -10.909  -0.080  1.07800E-01  2.95669E-01 -1.87869E-01
    8988.885    -10.885   0.000  1.08690E-01  3.00829E-01 -1.92138E-01
    8988.940    -10.830   0.120  1.10740E-01  3.12461E-01 -2.01721E-01
    8988.982    -10.787   0.160  1.12275E-01  3.21510E-01 -2.09235E-01
    8989.037    -10.732   0.200  1.14098E-01  3.33070E-01 -2.18972E-01
    8989.104    -10.665   0.240  1.16077E-01  3.46991E-01 -2.30914E-01
    8989.183    -10.586   0.280  1.18085E-01  3.63002E-01 -2.44917E-01
    8989.275    -10.494   0.320  1.19943E-01  3.80686E-01 -2.60744E-01
    8989.378    -10.391   0.360  1.21568E-01  3.99552E-01 -2.77984E-01
    8989.494    -10.275   0.400  1.22953E-01  4.19072E-01 -2.96119E-01
    8989.622    -10.147   0.440  1.24239E-01  4.38746E-01 -3.14508E-01
    8989.762    -10.007   0.480  1.25687E-01  4.58224E-01 -3.32538E-01
    8989.915     -9.854   0.520  1.27608E-01  4.77230E-01 -3.49621E-01
    8990.079     -9.690   0.560  1.30373E-01  4.95674E-01 -3.65301E-01
    8990.256     -9.513   0.600  1.34297E-01  5.13507E-01 -3.79209E-01
    8990.445     -9.324   0.640  1.39729E-01  5.30781E-01 -3.91052E-01
    8990.646     -9.123   0.680  1.47057E-01  5.47585E-01 -4.00528E-01
    8990.860     -8.909   0.720  1.56688E-01  5.63978E-01 -4.07289E-01
    8991.085     -8.684   0.760  1.69137E-01  5.80077E-01 -4.10940E-01
    8991.323     -8.446   0.800  1.84836E-01  5.95911E-01 -4.11075E-01
    8991.573     -8.196   0.840  2.04345E-01  6.11578E-01 -4.07232E-01
    8991.835     -7.934   0.880  2.28406E-01  6.27100E-01 -3.98694E-01
    8992.109     -7.660   0.920  2.58773E-01  6.42509E-01 -3.83736E-01
    8992.396     -7.373   0.960  2.98449E-01  6.57825E-01 -3.59376E-01
    8992.695     -7.075   1.000  3.50629E-01  6.73077E-01 -3.22447E-01
    8993.006     -6.764   1.040  4.15020E-01  6.88245E-01 -2.73224E-01
    8993.329     -6.441   1.080  4.82745E-01  7.03323E-01 -2.20578E-01
    8993.664     -6.105   1.120  5.37929E-01  7.18301E-01 -1.80372E-01
    8994.011     -5.758   1.160  5.73389E-01  7.33139E-01 -1.59750E-01
    8994.371     -5.398   1.200  5.99887E-01  7.47835E-01 -1.47948E-01
    8994.743     -5.026   1.240  6.28176E-01  7.62366E-01 -1.34190E-01
    8995.127     -4.642   1.280  6.51642E-01  7.76686E-01 -1.25044E-01
    8995.523     -4.246   1.320  6.61863E-01  7.90785E-01 -1.28922E-01
    8995.932     -3.838   1.360  6.71642E-01  8.04614E-01 -1.32972E-01
    8996.352     -3.417   1.400  6.99198E-01  8.18141E-01 -1.18943E-01
    8996.785     -2.984   1.440  7.48552E-01  8.31357E-01 -8.28050E-02
    8997.230     -2.539   1.480  8.19384E-01  8.44208E-01 -2.48246E-02
    8997.687     -2.082   1.520  9.00590E-01  8.56686E-01  4.39045E-02
    8998.157     -1.613   1.560  9.62562E-01  8.68740E-01  9.38226E-02
    8998.638     -1.131   1.600  9.96936E-01  8.80380E-01  1.16556E-01
    8999.132     -0.637   1.640  1.02459E+00  8.91579E-01  1.33011E-01
    8999.638     -0.131   1.680  1.06137E+00  9.02309E-01  1.59066E-01
    9000.156      0.387   1.720  1.12077E+00  9.12543E-01  2.08228E-01
    9000.686      0.917   1.760  1.22061E+00  9.22297E-01  2.98308E-01
    9001.229      1.460   1.800  1.37544E+00  9.31548E-01  4.43888E-01
    9001.784      2.015   1.840  1.59194E+00  9.40272E-01  6.51668E-01
    9002.351      2.581   1.880  1.80282E+00  9.48489E-01  8.54332E-01
    9002.930      3.161   1.920  1.84223E+00  9.56200E-01  8.86031E-01
    9003.521      3.752   1.960  1.70484E+00  9.63407E-01  7.41437E-01
    9004.125      4.355   2.000  1.56280E+00  9.70091E-01  5.92704E-01
    9004.740      4.971   2.040  1.44162E+00  9.76276E-01  4.65341E-01
    9005.368      5.599   2.080  1.28048E+00  9.81968E-01  2.98513E-01
    9006.008      6.239   2.120  1.11320E+00  9.87192E-01  1.26006E-01
    9006.661      6.891   2.160  9.91513E-01  9.91935E-01 -4.21915E-04
    9007.325      7.556   2.200  9.19048E-01  9.96224E-01 -7.71761E-02
    9008.002      8.232   2.240  8.78100E-01  1.00007E+00 -1.21967E-01
    9008.690      8.921   2.280  8.54008E-01  1.00349E+00 -1.49484E-01
    9009.392      9.622   2.320  8.41580E-01  1.00651E+00 -1.64930E-01
    9010.105     10.336   2.360  8.38948E-01  1.00913E+00 -1.70179E-01
    9010.830     11.061   2.400  8.43089E-01  1.01140E+00 -1.68306E-01
    9011.568     11.799   2.440  8.52367E-01  1.01330E+00 -1.60938E-01
    9012.318     12.548   2.480  8.72765E-01  1.01486E+00 -1.42099E-01
    9013.080     13.310   2.520  9.13065E-01  1.01614E+00 -1.03079E-01
    9013.854     14.085   2.560  9.74676E-01  1.01712E+00 -4.24411E-02
    9014.640     14.871   2.600  1.03508E+00  1.01781E+00  1.72702E-02
    9015.439     15.670   2.640  1.06504E+00  1.01827E+00  4.67644E-02
    9016.249     16.480   2.680  1.07022E+00  1.01850E+00  5.17240E-02
    9017.072     17.303   2.720  1.06247E+00  1.01849E+00  4.39753E-02
    9017.908     18.138   2.760  1.04870E+00  1.01831E+00  3.03968E-02
    9018.755     18.986   2.800  1.03114E+00  1.01793E+00  1.32078E-02
    9019.614     19.845   2.840  1.01043E+00  1.01741E+00 -6.97708E-03
    9020.486     20.717   2.880  9.88245E-01  1.01674E+00 -2.84933E-02
    9021.370     21.601   2.920  9.66596E-01  1.01594E+00 -4.93429E-02
    9022.266     22.497   2.960  9.46761E-01  1.01502E+00 -6.82597E-02
    9023.175     23.405   3.000  9.28588E-01  1.01401E+00 -8.54242E-02
    9024.095     24.326   3.040  9.11639E-01  1.01292E+00 -1.01282E-01
    9025.028     25.258   3.080  8.96162E-01  1.01175E+00 -1.15593E-01
    9025.973     26.203   3.120  8.82787E-01  1.01054E+00 -1.27751E-01
    9026.930     27.160   3.160  8.72624E-01  1.00928E+00 -1.36653E-01
    9027.899     28.130   3.200  8.66618E-01  1.00798E+00 -1.41361E-01
    9028.880     29.111   3.240  8.64941E-01  1.00667E+00 -1.41725E-01
    9029.874     30.105   3.280  8.67137E-01  1.00532E+00 -1.38188E-01
    9030.880     31.111   3.320  8.72700E-01  1.00398E+00 -1.31280E-01
    9031.898     32.129   3.360  8.81434E-01  1.00263E+00 -1.21200E-01
    9032.928     33.159   3.400  8.93236E-01  1.00131E+00 -1.08078E-01
    9033.970     34.201   3.440  9.08033E-01  1.00000E+00 -9.19685E-02
    9035.025     35.256   3.480  9.25680E-01  9.98701E-01 -7.30212E-02
    9036.092     36.323   3.520  9.45934E-01  9.97456E-01 -5.15213E-02
    9037.171     37.402   3.560  9.68390E-01  9.96228E-01 -2.78379E-02
    9038.262     38.493   3.600  9.92280E-01  9.95062E-01 -2.78192E-03
    9039.365     39.596   3.640  1.01578E+00  9.93939E-01  2.18433E-02
    9040.481     40.712   3.680  1.03631E+00  9.92858E-01  4.34510E-02
    9041.609     41.840   3.720  1.05170E+00  9.91823E-01  5.98742E-02
    9042.749     42.979   3.760  1.06138E+00  9.90857E-01  7.05222E-02
    9043.901     44.132   3.800  1.06654E+00  9.89940E-01  7.66029E-02
    9045.065     45.296   3.840  1.06967E+00  9.89094E-01  8.05796E-02
    9046.242     46.472   3.880  1.07322E+00  9.88320E-01  8.48960E-02
    9047.430     47.661   3.920  1.07822E+00  9.87597E-01  9.06250E-02
    9048.631     48.862   3.960  1.08378E+00  9.86946E-01  9.68306E-02
    9049.844     50.075   4.000  1.08773E+00  9.86345E-01  1.01387E-01
    9051.070     51.300   4.040  1.08827E+00  9.85817E-01  1.02453E-01
    9052.307     52.538   4.080  1.08472E+00  9.85363E-01  9.93529E-02
    9053.557     53.788   4.120  1.07752E+00  9.84959E-01  9.25581E-02
    9054.819     55.050   4.160  1.06780E+00  9.84626E-01  8.31695E-02
    9056.093     56.324   4.200  1.05668E+00  9.84343E-01  7.23317E-02
    9057.379     57.610   4.240  1.04487E+00  9.84134E-01  6.07324E-02
    9058.677     58.908   4.280  1.03248E+00  9.83997E-01  4.84848E-02
    9059.988     60.219   4.320  1.01929E+00  9.83909E-01  3.53775E-02
    9061.311     61.542   4.360  1.00508E+00  9.83889E-01  2.11890E-02
    9062.646     62.877   4.400  9.89841E-01  9.83916E-01  5.92499E-03
    9063.993     64.224   4.440  9.73830E-01  9.83989E-01 -1.01588E-02
    9065.353     65.583   4.480  9.57689E-01  9.84125E-01 -2.64360E-02
    9066.724     66.955   4.520  9.42468E-01  9.84283E-01 -4.18152E-02
    9068.108     68.339   4.560  9.29582E-01  9.84504E-01 -5.49217E-02
    9069.504     69.735   4.600  9.20351E-01  9.84766E-01 -6.44152E-02
    9070.912     71.143   4.640  9.16026E-01  9.85066E-01 -6.90403E-02
    9072.332     72.563   4.680  9.17452E-01  9.85383E-01 -6.79314E-02
    9073.765     73.996   4.720  9.25030E-01  9.85756E-01 -6.07262E-02
    9075.210     75.441   4.760  9.38324E-01  9.86143E-01 -4.78191E-02
    9076.667     76.897   4.800  9.55937E-01  9.86561E-01 -3.06240E-02
    9078.136     78.367   4.840  9.75666E-01  9.86989E-01 -1.13231E-02
    9079.617     79.848   4.880  9.95406E-01  9.87446E-01  7.95983E-03
    9081.111     81.341   4.920  1.01342E+00  9.87910E-01  2.55081E-02
    9082.616     82.847   4.960  1.02804E+00  9.88399E-01  3.96396E-02
    9084.134     84.365   5.000  1.03738E+00  9.88870E-01  4.85112E-02
    9085.664     85.895   5.040  1.04047E+00  9.89364E-01  5.11019E-02
    9087.207     87.437   5.080  1.03813E+00  9.89857E-01  4.82766E-02
    9088.761     88.992   5.120  1.03255E+00  9.90325E-01  4.22280E-02
    9090.328     90.559   5.160  1.02565E+00  9.90811E-01  3.48387E-02
    9091.907     92.137   5.200  1.01809E+00  9.91272E-01  2.68176E-02
    9093.498     93.728   5.240  1.01012E+00  9.91724E-01  1.83918E-02
    9095.101     95.332   5.280  1.00263E+00  9.92146E-01  1.04861E-02
    9096.716     96.947   5.320  9.97132E-01  9.92559E-01  4.57369E-03
    9098.344     98.575   5.360  9.94105E-01  9.92962E-01  1.14276E-03
    9099.984    100.215   5.400  9.91613E-01  9.93310E-01 -1.69789E-03
    9101.636    101.867   5.440  9.86424E-01  9.93667E-01 -7.24397E-03
    9103.300    103.531   5.480  9.76433E-01  9.93966E-01 -1.75331E-02
    9104.976    105.207   5.520  9.62500E-01  9.94248E-01 -3.17485E-02
    9106.665    106.896   5.560  9.47198E-01  9.94471E-01 -4.72731E-02
    9108.366    108.597   5.600  9.32951E-01  9.94677E-01 -6.17259E-02
    9110.079    110.310   5.640  9.20653E-01  9.94846E-01 -7.41928E-02
    9111.804    112.035   5.680  9.09984E-01  9.94974E-01 -8.49899E-02
    9113.541    113.772   5.720  9.00749E-01  9.95063E-01 -9.43141E-02
    9115.291    115.522   5.760  8.93970E-01  9.95111E-01 -1.01141E-01
    9117.053    117.283   5.800  8.91626E-01  9.95117E-01 -1.03491E-01
    9118.826    119.057   5.840  8.95330E-01  9.95059E-01 -9.97289E-02
    9120.613    120.843   5.880  9.05287E-01  9.94985E-01 -8.96978E-02
    9122.411    122.642   5.920  9.20168E-01  9.94874E-01 -7.47052E-02
    9124.221    124.452   5.960  9.38136E-01  9.94719E-01 -5.65834E-02
    9126.044    126.275   6.000  9.58341E-01  9.94469E-01 -3.61276E-02
