# # comment:                                                     FEFF 9.9.1  
# # Source:
# # Structure
# # Reduced
# # space
# # abc:
# # angles:
# # sites:
# # POT  SCF 100  7.0000   0, screened core-hole, AFOLP (folp(0)= 1.150)
# # Abs   Z=29 Rmt= 1.231 Rnm= 1.301 K  shell
# # Pot 1 Z=23 Rmt= 1.090 Rnm= 1.311
# # Pot 2 Z=29 Rmt= 1.164 Rnm= 1.279
# # Pot 3 Z= 1 Rmt= 1.357 Rnm= 1.357
# # Pot 4 Z= 8 Rmt= 0.992 Rnm= 1.102
# # Gam_ch=1.729E+00 H-L exch Vi= 0.000E+00 Vr= 0.000E+00
# # Mu=-8.157E+00eV kf=2.222E+00 Vint=-1.447E+01eV Rs_int= 1.632
# FMS rfms= 9.0000
# # PATH  Rmax=-1.000,  Keep_limit= 0.00, Heap_limit 0.00  Pwcrit= 2.50%
#  S02=0.950  Temp=   0.00  Debye_temp=   0.00  Global_sig2= 0.00000
#  Energy zero shift, vr, vi    0.00000E+00   0.00000E+00
#  Curved wave amplitude ratio filter   4.000%
#     file         sig2 tot  cw amp ratio   deg  nlegs   reff  inp sig2
#     0/   0 paths used
#  xsedge+ 50, used to normalize mu           2.4207E-04
#  -----------------------------------------------------------------------
#  omega    e    k    mu    mu0     chi     @#
    8983.858    -11.967  -1.000  3.24200E-02  5.51336E-02 -2.27136E-02
    8984.157    -11.668  -0.960  3.38887E-02  5.90624E-02 -2.51737E-02
    8984.444    -11.382  -0.920  3.54623E-02  6.34151E-02 -2.79528E-02
    8984.718    -11.108  -0.880  3.71542E-02  6.82523E-02 -3.10982E-02
    8984.980    -10.846  -0.840  3.89800E-02  7.36444E-02 -3.46644E-02
    8985.230    -10.596  -0.800  4.09582E-02  7.96726E-02 -3.87145E-02
    8985.468    -10.358  -0.760  4.31099E-02  8.64299E-02 -4.33201E-02
    8985.693    -10.132  -0.720  4.54592E-02  9.40209E-02 -4.85617E-02
    8985.907     -9.919  -0.680  4.80331E-02  1.02560E-01 -5.45273E-02
    8986.108     -9.718  -0.640  5.08597E-02  1.12169E-01 -6.13094E-02
    8986.297     -9.529  -0.600  5.39667E-02  1.22965E-01 -6.89985E-02
    8986.474     -9.352  -0.560  5.73765E-02  1.35048E-01 -7.76718E-02
    8986.638     -9.187  -0.520  6.11000E-02  1.48477E-01 -8.73765E-02
    8986.790     -9.035  -0.480  6.51275E-02  1.63234E-01 -9.81061E-02
    8986.931     -8.895  -0.440  6.94182E-02  1.79191E-01 -1.09773E-01
    8987.059     -8.767  -0.400  7.38921E-02  1.96077E-01 -1.22184E-01
    8987.175     -8.651  -0.360  7.84291E-02  2.13464E-01 -1.35034E-01
    8987.278     -8.547  -0.320  8.28795E-02  2.30798E-01 -1.47918E-01
    8987.370     -8.456  -0.280  8.70854E-02  2.47462E-01 -1.60377E-01
    8987.449     -8.377  -0.240  9.09050E-02  2.62860E-01 -1.71955E-01
    8987.516     -8.310  -0.200  9.42310E-02  2.76488E-01 -1.82257E-01
    8987.571     -8.255  -0.160  9.69959E-02  2.87970E-01 -1.90974E-01
    8987.613     -8.212  -0.120  9.91664E-02  2.97061E-01 -1.97895E-01
    8987.644     -8.182  -0.080  1.00730E-01  3.03620E-01 -2.02890E-01
    8987.668     -8.157   0.000  1.02006E-01  3.08896E-01 -2.06891E-01
    8987.723     -8.102   0.120  1.04792E-01  3.20828E-01 -2.16036E-01
    8987.766     -8.060   0.160  1.06871E-01  3.30102E-01 -2.23231E-01
    8987.821     -8.005   0.200  1.09501E-01  3.42003E-01 -2.32502E-01
    8987.888     -7.938   0.240  1.12612E-01  3.56362E-01 -2.43750E-01
    8987.967     -7.859   0.280  1.16183E-01  3.72980E-01 -2.56798E-01
    8988.058     -7.767   0.320  1.20118E-01  3.91436E-01 -2.71318E-01
    8988.162     -7.663   0.360  1.24481E-01  4.11315E-01 -2.86833E-01
    8988.278     -7.548   0.400  1.29300E-01  4.32086E-01 -3.02786E-01
    8988.406     -7.420   0.440  1.34712E-01  4.53301E-01 -3.18588E-01
    8988.546     -7.279   0.480  1.40877E-01  4.74608E-01 -3.33732E-01
    8988.699     -7.127   0.520  1.47856E-01  4.95743E-01 -3.47886E-01
    8988.863     -6.962   0.560  1.55649E-01  5.16617E-01 -3.60969E-01
    8989.040     -6.786   0.600  1.64066E-01  5.37153E-01 -3.73088E-01
    8989.229     -6.597   0.640  1.72765E-01  5.57392E-01 -3.84627E-01
    8989.430     -6.395   0.680  1.81227E-01  5.77363E-01 -3.96137E-01
    8989.643     -6.182   0.720  1.89218E-01  5.97147E-01 -4.07929E-01
    8989.869     -5.957   0.760  1.97047E-01  6.16779E-01 -4.19732E-01
    8990.107     -5.719   0.800  2.04822E-01  6.36283E-01 -4.31461E-01
    8990.357     -5.469   0.840  2.11304E-01  6.55673E-01 -4.44369E-01
    8990.619     -5.207   0.880  2.14776E-01  6.74988E-01 -4.60212E-01
    8990.893     -4.932   0.920  2.15003E-01  6.94173E-01 -4.79170E-01
    8991.180     -4.646   0.960  2.13231E-01  7.13244E-01 -5.00013E-01
    8991.478     -4.347   1.000  2.10521E-01  7.32125E-01 -5.21604E-01
    8991.789     -4.036   1.040  2.08249E-01  7.50814E-01 -5.42565E-01
    8992.112     -3.713   1.080  2.08073E-01  7.69240E-01 -5.61167E-01
    8992.448     -3.378   1.120  2.11451E-01  7.87371E-01 -5.75920E-01
    8992.795     -3.031   1.160  2.19644E-01  8.05107E-01 -5.85463E-01
    8993.155     -2.671   1.200  2.34060E-01  8.22449E-01 -5.88390E-01
    8993.527     -2.299   1.240  2.55625E-01  8.39296E-01 -5.83671E-01
    8993.911     -1.915   1.280  2.83894E-01  8.55607E-01 -5.71714E-01
    8994.307     -1.519   1.320  3.16480E-01  8.71321E-01 -5.54841E-01
    8994.715     -1.110   1.360  3.51274E-01  8.86419E-01 -5.35146E-01
    8995.136     -0.690   1.400  3.90623E-01  9.00845E-01 -5.10222E-01
    8995.569     -0.257   1.440  4.41028E-01  9.14583E-01 -4.73555E-01
    8996.014      0.188   1.480  5.08346E-01  9.27561E-01 -4.19215E-01
    8996.471      0.645   1.520  5.96490E-01  9.39789E-01 -3.43299E-01
    8996.940      1.115   1.560  7.06966E-01  9.51242E-01 -2.44275E-01
    8997.422      1.596   1.600  8.42018E-01  9.61895E-01 -1.19877E-01
    8997.916      2.090   1.640  1.00615E+00  9.71769E-01  3.43847E-02
    8998.422      2.596   1.680  1.19014E+00  9.80867E-01  2.09270E-01
    8998.940      3.114   1.720  1.35781E+00  9.89174E-01  3.68639E-01
    8999.470      3.645   1.760  1.46934E+00  9.96716E-01  4.72626E-01
    9000.013      4.187   1.800  1.51558E+00  1.00353E+00  5.12049E-01
    9000.567      4.742   1.840  1.51926E+00  1.00959E+00  5.09665E-01
    9001.134      5.309   1.880  1.51007E+00  1.01497E+00  4.95098E-01
    9001.713      5.888   1.920  1.50730E+00  1.01968E+00  4.87612E-01
    9002.305      6.479   1.960  1.52716E+00  1.02373E+00  5.03426E-01
    9002.908      7.083   2.000  1.58113E+00  1.02719E+00  5.53948E-01
    9003.524      7.698   2.040  1.65606E+00  1.03006E+00  6.26006E-01
    9004.152      8.326   2.080  1.71832E+00  1.03241E+00  6.85913E-01
    9004.792      8.966   2.120  1.73993E+00  1.03424E+00  7.05697E-01
    9005.444      9.619   2.160  1.70167E+00  1.03562E+00  6.66050E-01
    9006.109     10.283   2.200  1.58584E+00  1.03656E+00  5.49282E-01
    9006.785     10.960   2.240  1.40801E+00  1.03709E+00  3.70919E-01
    9007.474     11.649   2.280  1.22451E+00  1.03727E+00  1.87245E-01
    9008.175     12.350   2.320  1.08409E+00  1.03714E+00  4.69513E-02
    9008.888     13.063   2.360  9.98181E-01  1.03670E+00 -3.85201E-02
    9009.614     13.788   2.400  9.53320E-01  1.03600E+00 -8.26825E-02
    9010.351     14.526   2.440  9.30580E-01  1.03508E+00 -1.04504E-01
    9011.101     15.276   2.480  9.16093E-01  1.03396E+00 -1.17866E-01
    9011.863     16.038   2.520  9.06805E-01  1.03266E+00 -1.25857E-01
    9012.637     16.812   2.560  9.06493E-01  1.03121E+00 -1.24713E-01
    9013.424     17.598   2.600  9.19055E-01  1.02962E+00 -1.10570E-01
    9014.222     18.397   2.640  9.47111E-01  1.02795E+00 -8.08391E-02
    9015.033     19.208   2.680  9.78530E-01  1.02621E+00 -4.76851E-02
    9015.856     20.031   2.720  1.00729E+00  1.02439E+00 -1.70940E-02
    9016.691     20.866   2.760  1.02899E+00  1.02254E+00  6.45668E-03
    9017.539     21.713   2.800  1.03922E+00  1.02068E+00  1.85463E-02
    9018.398     22.573   2.840  1.03516E+00  1.01879E+00  1.63701E-02
    9019.270     23.444   2.880  1.01749E+00  1.01692E+00  5.71505E-04
    9020.154     24.328   2.920  9.89749E-01  1.01507E+00 -2.53176E-02
    9021.050     25.224   2.960  9.56972E-01  1.01325E+00 -5.62756E-02
    9021.958     26.133   3.000  9.23700E-01  1.01147E+00 -8.77696E-02
    9022.879     27.053   3.040  8.92963E-01  1.00974E+00 -1.16774E-01
    9023.811     27.986   3.080  8.67002E-01  1.00808E+00 -1.41075E-01
    9024.756     28.931   3.120  8.47022E-01  1.00650E+00 -1.59473E-01
    9025.713     29.888   3.160  8.33658E-01  1.00499E+00 -1.71335E-01
    9026.683     30.857   3.200  8.27080E-01  1.00357E+00 -1.76494E-01
    9027.664     31.838   3.240  8.26935E-01  1.00224E+00 -1.75304E-01
    9028.658     32.832   3.280  8.32303E-01  1.00101E+00 -1.68711E-01
    9029.663     33.838   3.320  8.42279E-01  9.99858E-01 -1.57579E-01
    9030.682     34.856   3.360  8.55821E-01  9.98835E-01 -1.43013E-01
    9031.712     35.886   3.400  8.71469E-01  9.97902E-01 -1.26434E-01
    9032.754     36.929   3.440  8.87924E-01  9.97062E-01 -1.09138E-01
    9033.809     37.983   3.480  9.04189E-01  9.96339E-01 -9.21492E-02
    9034.876     39.050   3.520  9.19592E-01  9.95732E-01 -7.61401E-02
    9035.955     40.129   3.560  9.33977E-01  9.95239E-01 -6.12623E-02
    9037.046     41.220   3.600  9.47848E-01  9.94841E-01 -4.69931E-02
    9038.149     42.324   3.640  9.61956E-01  9.94536E-01 -3.25793E-02
    9039.265     43.439   3.680  9.76864E-01  9.94366E-01 -1.75023E-02
    9040.392     44.567   3.720  9.92501E-01  9.94268E-01 -1.76727E-03
    9041.532     45.707   3.760  1.00841E+00  9.94304E-01  1.41109E-02
    9042.684     46.859   3.800  1.02377E+00  9.94431E-01  2.93415E-02
    9043.849     48.023   3.840  1.03794E+00  9.94645E-01  4.32986E-02
    9045.025     49.200   3.880  1.05072E+00  9.94945E-01  5.57744E-02
    9046.214     50.389   3.920  1.06220E+00  9.95351E-01  6.68446E-02
    9047.415     51.589   3.960  1.07243E+00  9.95819E-01  7.66086E-02
    9048.628     52.803   4.000  1.08151E+00  9.96389E-01  8.51198E-02
    9049.853     54.028   4.040  1.08924E+00  9.97018E-01  9.22249E-02
    9051.091     55.265   4.080  1.09542E+00  9.97722E-01  9.77007E-02
    9052.341     56.515   4.120  1.09996E+00  9.98502E-01  1.01463E-01
    9053.602     57.777   4.160  1.10286E+00  9.99355E-01  1.03500E-01
    9054.876     59.051   4.200  1.10383E+00  1.00023E+00  1.03595E-01
    9056.163     60.337   4.240  1.10241E+00  1.00120E+00  1.01209E-01
    9057.461     61.636   4.280  1.09798E+00  1.00219E+00  9.57912E-02
    9058.772     62.946   4.320  1.09010E+00  1.00322E+00  8.68789E-02
    9060.095     64.269   4.360  1.07882E+00  1.00428E+00  7.45335E-02
    9061.430     65.604   4.400  1.06496E+00  1.00536E+00  5.95973E-02
    9062.777     66.951   4.440  1.04998E+00  1.00649E+00  4.34885E-02
    9064.136     68.311   4.480  1.03535E+00  1.00761E+00  2.77469E-02
    9065.508     69.682   4.520  1.02234E+00  1.00875E+00  1.35946E-02
    9066.892     71.066   4.560  1.01160E+00  1.00989E+00  1.71438E-03
    9068.288     72.462   4.600  1.00338E+00  1.01103E+00 -7.64810E-03
    9069.696     73.870   4.640  9.97603E-01  1.01214E+00 -1.45406E-02
    9071.116     75.291   4.680  9.93984E-01  1.01327E+00 -1.92867E-02
    9072.549     76.723   4.720  9.91937E-01  1.01435E+00 -2.24087E-02
    9073.993     78.168   4.760  9.90978E-01  1.01543E+00 -2.44508E-02
    9075.450     79.625   4.800  9.90622E-01  1.01645E+00 -2.58326E-02
    9076.919     81.094   4.840  9.90785E-01  1.01746E+00 -2.66789E-02
    9078.401     82.575   4.880  9.91650E-01  1.01843E+00 -2.67807E-02
    9079.894     84.069   4.920  9.93629E-01  1.01933E+00 -2.57028E-02
    9081.400     85.574   4.960  9.97105E-01  1.02021E+00 -2.31028E-02
    9082.918     87.092   5.000  1.00182E+00  1.02102E+00 -1.91960E-02
    9084.448     88.622   5.040  1.00671E+00  1.02175E+00 -1.50451E-02
    9085.990     90.165   5.080  1.01025E+00  1.02246E+00 -1.22090E-02
    9087.545     91.719   5.120  1.01115E+00  1.02309E+00 -1.19418E-02
    9089.111     93.286   5.160  1.00920E+00  1.02365E+00 -1.44512E-02
    9090.690     94.865   5.200  1.00532E+00  1.02413E+00 -1.88055E-02
    9092.281     96.456   5.240  1.00107E+00  1.02456E+00 -2.34872E-02
    9093.885     98.059   5.280  9.97839E-01  1.02490E+00 -2.70655E-02
    9095.500     99.674   5.320  9.96573E-01  1.02520E+00 -2.86235E-02
    9097.128    101.302   5.360  9.97574E-01  1.02539E+00 -2.78127E-02
    9098.767    102.942   5.400  1.00076E+00  1.02552E+00 -2.47639E-02
    9100.419    104.594   5.440  1.00561E+00  1.02557E+00 -1.99619E-02
    9102.084    106.258   5.480  1.01128E+00  1.02555E+00 -1.42678E-02
    9103.760    107.935   5.520  1.01658E+00  1.02544E+00 -8.86557E-03
    9105.449    109.623   5.560  1.02020E+00  1.02529E+00 -5.08156E-03
    9107.149    111.324   5.600  1.02105E+00  1.02505E+00 -4.00511E-03
    9108.862    113.037   5.640  1.01863E+00  1.02474E+00 -6.11293E-03
    9110.588    114.762   5.680  1.01325E+00  1.02438E+00 -1.11240E-02
    9112.325    116.499   5.720  1.00578E+00  1.02394E+00 -1.81647E-02
    9114.074    118.249   5.760  9.97449E-01  1.02346E+00 -2.60088E-02
    9115.836    120.011   5.800  9.89623E-01  1.02290E+00 -3.32818E-02
    9117.610    121.785   5.840  9.83683E-01  1.02231E+00 -3.86237E-02
    9119.396    123.571   5.880  9.80801E-01  1.02167E+00 -4.08671E-02
    9121.195    125.369   5.920  9.81775E-01  1.02097E+00 -3.91919E-02
    9123.005    127.180   5.960  9.86997E-01  1.02023E+00 -3.32330E-02
    9124.828    129.002   6.000  9.96640E-01  1.01945E+00 -2.28083E-02
