# # comment:                                                     FEFF 9.9.1  
# # Source:
# # Structure
# # Reduced
# # space
# # abc:
# # angles:148.231836
# # sites:
# # POT  SCF 100  7.0000   0, screened core-hole, AFOLP (folp(0)= 1.150)
# # Abs   Z=29 Rmt= 1.238 Rnm= 1.355 K  shell
# # Pot 1 Z=38 Rmt= 1.716 Rnm= 1.804
# # Pot 2 Z=29 Rmt= 1.238 Rnm= 1.355
# # Pot 3 Z= 8 Rmt= 1.006 Rnm= 1.132
# # Pot 4 Z= 9 Rmt= 1.092 Rnm= 1.128
# # Gam_ch=1.729E+00 H-L exch Vi= 0.000E+00 Vr= 0.000E+00
# # Mu=-7.152E+00eV kf=1.920E+00 Vint=-1.527E+01eV Rs_int= 1.889
# FMS rfms= 9.0000
# # PATH  Rmax=-1.000,  Keep_limit= 0.00, Heap_limit 0.00  Pwcrit= 2.50%
#  S02=0.950  Temp=   0.00  Debye_temp=   0.00  Global_sig2= 0.00000
#  Energy zero shift, vr, vi    0.00000E+00   0.00000E+00
#  Curved wave amplitude ratio filter   4.000%
#     file         sig2 tot  cw amp ratio   deg  nlegs   reff  inp sig2
#     0/   0 paths used
#  xsedge+ 50, used to normalize mu           2.4345E-04
#  -----------------------------------------------------------------------
#  omega    e    k    mu    mu0     chi     @#
    8984.340    -10.962  -1.000  4.93154E-02  5.94117E-02 -1.00964E-02
    8984.639    -10.663  -0.960  5.27197E-02  6.38641E-02 -1.11444E-02
    8984.925    -10.377  -0.920  5.65253E-02  6.88202E-02 -1.22949E-02
    8985.200    -10.103  -0.880  6.08023E-02  7.43548E-02 -1.35525E-02
    8985.462     -9.840  -0.840  6.56352E-02  8.05545E-02 -1.49193E-02
    8985.712     -9.591  -0.800  7.11257E-02  8.75201E-02 -1.63944E-02
    8985.949     -9.353  -0.760  7.73947E-02  9.53671E-02 -1.79723E-02
    8986.175     -9.127  -0.720  8.45840E-02  1.04226E-01 -1.96418E-02
    8986.388     -8.914  -0.680  9.28553E-02  1.14240E-01 -2.13847E-02
    8986.589     -8.713  -0.640  1.02385E-01  1.25562E-01 -2.31761E-02
    8986.778     -8.524  -0.600  1.13354E-01  1.38339E-01 -2.49852E-02
    8986.955     -8.347  -0.560  1.25920E-01  1.52701E-01 -2.67812E-02
    8987.120     -8.182  -0.520  1.40180E-01  1.68722E-01 -2.85418E-02
    8987.272     -8.030  -0.480  1.56119E-01  1.86386E-01 -3.02676E-02
    8987.412     -7.890  -0.440  1.73541E-01  2.05539E-01 -3.19981E-02
    8987.540     -7.762  -0.400  1.92026E-01  2.25847E-01 -3.38211E-02
    8987.656     -7.646  -0.360  2.10919E-01  2.46783E-01 -3.58641E-02
    8987.760     -7.542  -0.320  2.29405E-01  2.67665E-01 -3.82599E-02
    8987.851     -7.451  -0.280  2.46643E-01  2.87735E-01 -4.10915E-02
    8987.930     -7.372  -0.240  2.61924E-01  3.06263E-01 -4.43388E-02
    8987.998     -7.305  -0.200  2.74783E-01  3.22637E-01 -4.78543E-02
    8988.052     -7.250  -0.160  2.85031E-01  3.36412E-01 -5.13809E-02
    8988.095     -7.207  -0.120  2.92695E-01  3.47301E-01 -5.46057E-02
    8988.126     -7.177  -0.080  2.97918E-01  3.55145E-01 -5.72270E-02
    8988.150     -7.152   0.000  3.01779E-01  3.61446E-01 -5.96673E-02
    8988.205     -7.097   0.120  3.10099E-01  3.75656E-01 -6.55568E-02
    8988.247     -7.055   0.160  3.16293E-01  3.86705E-01 -7.04120E-02
    8988.302     -7.000   0.200  3.23516E-01  4.00801E-01 -7.72854E-02
    8988.369     -6.933   0.240  3.31057E-01  4.17753E-01 -8.66956E-02
    8988.449     -6.853   0.280  3.38007E-01  4.37223E-01 -9.92155E-02
    8988.540     -6.762   0.320  3.43342E-01  4.58718E-01 -1.15376E-01
    8988.644     -6.658   0.360  3.46145E-01  4.81580E-01 -1.35435E-01
    8988.760     -6.543   0.400  3.45992E-01  5.05155E-01 -1.59162E-01
    8988.888     -6.415   0.440  3.43200E-01  5.28841E-01 -1.85641E-01
    8989.028     -6.274   0.480  3.38925E-01  5.52131E-01 -2.13207E-01
    8989.180     -6.122   0.520  3.35081E-01  5.74727E-01 -2.39646E-01
    8989.345     -5.957   0.560  3.33886E-01  5.96467E-01 -2.62581E-01
    8989.522     -5.781   0.600  3.37280E-01  6.17290E-01 -2.80009E-01
    8989.711     -5.592   0.640  3.46173E-01  6.37252E-01 -2.91079E-01
    8989.912     -5.390   0.680  3.59318E-01  6.56415E-01 -2.97097E-01
    8990.125     -5.177   0.720  3.72920E-01  6.74871E-01 -3.01951E-01
    8990.351     -4.951   0.760  3.82366E-01  6.92714E-01 -3.10348E-01
    8990.588     -4.714   0.800  3.85894E-01  7.10005E-01 -3.24111E-01
    8990.838     -4.464   0.840  3.85611E-01  7.26812E-01 -3.41201E-01
    8991.100     -4.202   0.880  3.84205E-01  7.43186E-01 -3.58981E-01
    8991.375     -3.927   0.920  3.83242E-01  7.59123E-01 -3.75880E-01
    8991.661     -3.641   0.960  3.84767E-01  7.74667E-01 -3.89900E-01
    8991.960     -3.342   1.000  3.91371E-01  7.89811E-01 -3.98439E-01
    8992.271     -3.031   1.040  4.05060E-01  8.04536E-01 -3.99476E-01
    8992.594     -2.708   1.080  4.27249E-01  8.18860E-01 -3.91611E-01
    8992.929     -2.373   1.120  4.58089E-01  8.32731E-01 -3.74642E-01
    8993.277     -2.025   1.160  4.96540E-01  8.46155E-01 -3.49615E-01
    8993.636     -1.666   1.200  5.42746E-01  8.59094E-01 -3.16348E-01
    8994.008     -1.294   1.240  5.99504E-01  8.71547E-01 -2.72043E-01
    8994.392     -0.910   1.280  6.70635E-01  8.83474E-01 -2.12839E-01
    8994.788     -0.514   1.320  7.60163E-01  8.94854E-01 -1.34690E-01
    8995.197     -0.105   1.360  8.70164E-01  9.05682E-01 -3.55178E-02
    8995.618      0.315   1.400  9.98421E-01  9.15960E-01  8.24606E-02
    8996.050      0.748   1.440  1.14344E+00  9.25648E-01  2.17795E-01
    8996.495      1.193   1.480  1.29483E+00  9.34744E-01  3.60086E-01
    8996.953      1.650   1.520  1.40454E+00  9.43272E-01  4.61265E-01
    8997.422      2.120   1.560  1.42423E+00  9.51194E-01  4.73036E-01
    8997.904      2.601   1.600  1.37892E+00  9.58536E-01  4.20384E-01
    8998.397      3.095   1.640  1.30978E+00  9.65303E-01  3.44477E-01
    8998.903      3.601   1.680  1.22835E+00  9.71502E-01  2.56845E-01
    8999.421      4.119   1.720  1.15911E+00  9.77144E-01  1.81961E-01
    8999.952      4.650   1.760  1.13626E+00  9.82258E-01  1.53999E-01
    9000.494      5.192   1.800  1.17067E+00  9.86854E-01  1.83819E-01
    9001.049      5.747   1.840  1.23458E+00  9.90944E-01  2.43637E-01
    9001.616      6.314   1.880  1.28161E+00  9.94581E-01  2.87031E-01
    9002.195      6.893   1.920  1.28970E+00  9.97737E-01  2.91959E-01
    9002.786      7.484   1.960  1.26794E+00  1.00049E+00  2.67459E-01
    9003.390      8.088   2.000  1.22593E+00  1.00282E+00  2.23107E-01
    9004.006      8.704   2.040  1.16700E+00  1.00478E+00  1.62228E-01
    9004.633      9.331   2.080  1.10064E+00  1.00639E+00  9.42524E-02
    9005.274      9.971   2.120  1.04022E+00  1.00769E+00  3.25326E-02
    9005.926     10.624   2.160  9.94651E-01  1.00867E+00 -1.40149E-02
    9006.590     11.288   2.200  9.67235E-01  1.00938E+00 -4.21481E-02
    9007.267     11.965   2.240  9.59818E-01  1.00987E+00 -5.00518E-02
    9007.956     12.654   2.280  9.74605E-01  1.01012E+00 -3.55122E-02
    9008.657     13.355   2.320  1.00879E+00  1.01016E+00 -1.36741E-03
    9009.370     14.068   2.360  1.04492E+00  1.01002E+00  3.48955E-02
    9010.095     14.793   2.400  1.05776E+00  1.00975E+00  4.80138E-02
    9010.833     15.531   2.440  1.05228E+00  1.00932E+00  4.29602E-02
    9011.583     16.281   2.480  1.03586E+00  1.00879E+00  2.70774E-02
    9012.345     17.043   2.520  1.01481E+00  1.00814E+00  6.66562E-03
    9013.119     17.817   2.560  9.94141E-01  1.00743E+00 -1.32925E-02
    9013.905     18.603   2.600  9.76622E-01  1.00665E+00 -3.00290E-02
    9014.704     19.402   2.640  9.62996E-01  1.00582E+00 -4.28260E-02
    9015.515     20.213   2.680  9.52943E-01  1.00495E+00 -5.20114E-02
    9016.338     21.036   2.720  9.45950E-01  1.00407E+00 -5.81229E-02
    9017.173     21.871   2.760  9.41561E-01  1.00319E+00 -6.16239E-02
    9018.020     22.718   2.800  9.39455E-01  1.00230E+00 -6.28433E-02
    9018.880     23.578   2.840  9.39396E-01  1.00142E+00 -6.20206E-02
    9019.751     24.449   2.880  9.40950E-01  1.00056E+00 -5.96137E-02
    9020.635     25.333   2.920  9.43664E-01  9.99745E-01 -5.60813E-02
    9021.532     26.229   2.960  9.47091E-01  9.98944E-01 -5.18528E-02
    9022.440     27.138   3.000  9.51419E-01  9.98204E-01 -4.67851E-02
    9023.360     28.058   3.040  9.56783E-01  9.97511E-01 -4.07278E-02
    9024.293     28.991   3.080  9.63377E-01  9.96887E-01 -3.35102E-02
    9025.238     29.936   3.120  9.71007E-01  9.96312E-01 -2.53049E-02
    9026.195     30.893   3.160  9.79246E-01  9.95809E-01 -1.65633E-02
    9027.164     31.862   3.200  9.87056E-01  9.95360E-01 -8.30375E-03
    9028.146     32.844   3.240  9.92974E-01  9.95007E-01 -2.03222E-03
    9029.139     33.837   3.280  9.95038E-01  9.94709E-01  3.29589E-04
    9030.145     34.843   3.320  9.92170E-01  9.94465E-01 -2.29561E-03
    9031.163     35.861   3.360  9.84839E-01  9.94320E-01 -9.48079E-03
    9032.193     36.891   3.400  9.74768E-01  9.94252E-01 -1.94837E-02
    9033.236     37.934   3.440  9.64250E-01  9.94240E-01 -2.99902E-02
    9034.290     38.988   3.480  9.55525E-01  9.94305E-01 -3.87804E-02
    9035.357     40.055   3.520  9.50300E-01  9.94446E-01 -4.41458E-02
    9036.436     41.134   3.560  9.49074E-01  9.94664E-01 -4.55901E-02
    9037.527     42.225   3.600  9.51664E-01  9.94934E-01 -4.32700E-02
    9038.631     43.329   3.640  9.57242E-01  9.95277E-01 -3.80357E-02
    9039.746     44.444   3.680  9.64530E-01  9.95695E-01 -3.11647E-02
    9040.874     45.572   3.720  9.72222E-01  9.96163E-01 -2.39408E-02
    9042.014     46.712   3.760  9.79348E-01  9.96700E-01 -1.73521E-02
    9043.166     47.864   3.800  9.85235E-01  9.97284E-01 -1.20494E-02
    9044.330     49.028   3.840  9.89594E-01  9.97911E-01 -8.31755E-03
    9045.507     50.205   3.880  9.92787E-01  9.98581E-01 -5.79402E-03
    9046.696     51.394   3.920  9.96040E-01  9.99314E-01 -3.27404E-03
    9047.897     52.595   3.960  1.00093E+00  1.00006E+00  8.69200E-04
    9049.110     53.808   4.000  1.00886E+00  1.00085E+00  8.00656E-03
    9050.335     55.033   4.040  1.02033E+00  1.00167E+00  1.86607E-02
    9051.572     56.270   4.080  1.03480E+00  1.00253E+00  3.22711E-02
    9052.822     57.520   4.120  1.05053E+00  1.00340E+00  4.71287E-02
    9054.084     58.782   4.160  1.06488E+00  1.00429E+00  6.05852E-02
    9055.358     60.056   4.200  1.07511E+00  1.00519E+00  6.99201E-02
    9056.644     61.342   4.240  1.07946E+00  1.00609E+00  7.33668E-02
    9057.943     62.641   4.280  1.07768E+00  1.00699E+00  7.06937E-02
    9059.253     63.951   4.320  1.07095E+00  1.00788E+00  6.30651E-02
    9060.576     65.274   4.360  1.06109E+00  1.00875E+00  5.23361E-02
    9061.911     66.609   4.400  1.04990E+00  1.00963E+00  4.02632E-02
    9063.258     67.956   4.440  1.03866E+00  1.01049E+00  2.81731E-02
    9064.618     69.316   4.480  1.02818E+00  1.01131E+00  1.68716E-02
    9065.989     70.687   4.520  1.01885E+00  1.01211E+00  6.73160E-03
    9067.373     72.071   4.560  1.01091E+00  1.01291E+00 -1.99599E-03
    9068.769     73.467   4.600  1.00448E+00  1.01364E+00 -9.15815E-03
    9070.177     74.875   4.640  9.99654E-01  1.01433E+00 -1.46784E-02
    9071.598     76.296   4.680  9.96335E-01  1.01501E+00 -1.86712E-02
    9073.030     77.728   4.720  9.94069E-01  1.01564E+00 -2.15688E-02
    9074.475     79.173   4.760  9.92301E-01  1.01620E+00 -2.39005E-02
    9075.932     80.630   4.800  9.90878E-01  1.01672E+00 -2.58412E-02
    9077.401     82.099   4.840  9.90105E-01  1.01719E+00 -2.70874E-02
    9078.882     83.580   4.880  9.90566E-01  1.01762E+00 -2.70508E-02
    9080.376     85.074   4.920  9.92763E-01  1.01797E+00 -2.52078E-02
    9081.882     86.580   4.960  9.96853E-01  1.01828E+00 -2.14227E-02
    9083.400     88.097   5.000  1.00268E+00  1.01853E+00 -1.58561E-02
    9084.930     89.628   5.040  1.00994E+00  1.01872E+00 -8.78077E-03
    9086.472     91.170   5.080  1.01827E+00  1.01885E+00 -5.82172E-04
    9088.026     92.724   5.120  1.02699E+00  1.01891E+00  8.07752E-03
    9089.593     94.291   5.160  1.03527E+00  1.01893E+00  1.63456E-02
    9091.172     95.870   5.200  1.04251E+00  1.01887E+00  2.36388E-02
    9092.763     97.461   5.240  1.04860E+00  1.01878E+00  2.98147E-02
    9094.366     99.064   5.280  1.05341E+00  1.01860E+00  3.48045E-02
    9095.982    100.680   5.320  1.05645E+00  1.01840E+00  3.80479E-02
    9097.609    102.307   5.360  1.05666E+00  1.01813E+00  3.85369E-02
    9099.249    103.947   5.400  1.05326E+00  1.01781E+00  3.54481E-02
    9100.901    105.599   5.440  1.04601E+00  1.01745E+00  2.85668E-02
    9102.565    107.263   5.480  1.03514E+00  1.01704E+00  1.81033E-02
    9104.242    108.940   5.520  1.02118E+00  1.01657E+00  4.61148E-03
    9105.930    110.628   5.560  1.00533E+00  1.01608E+00 -1.07428E-02
    9107.631    112.329   5.600  9.89414E-01  1.01554E+00 -2.61294E-02
    9109.344    114.042   5.640  9.75454E-01  1.01495E+00 -3.94949E-02
    9111.069    115.767   5.680  9.65196E-01  1.01434E+00 -4.91442E-02
    9112.807    117.504   5.720  9.59560E-01  1.01370E+00 -5.41374E-02
    9114.556    119.254   5.760  9.58614E-01  1.01305E+00 -5.44306E-02
    9116.318    121.016   5.800  9.61422E-01  1.01236E+00 -5.09412E-02
    9118.092    122.790   5.840  9.66424E-01  1.01168E+00 -4.52524E-02
    9119.878    124.576   5.880  9.72020E-01  1.01096E+00 -3.89411E-02
    9121.676    126.374   5.920  9.77269E-01  1.01023E+00 -3.29562E-02
    9123.487    128.185   5.960  9.82138E-01  1.00953E+00 -2.73875E-02
    9125.309    130.007   6.000  9.87442E-01  1.00879E+00 -2.13489E-02
