# # comment:                                                     FEFF 9.9.1  
# # Source:
# # Structure
# # Reduced
# # space
# # abc:
# # angles:
# # sites:
# # POT  SCF 100  7.0000   0, screened core-hole, AFOLP (folp(0)= 1.150)
# # Abs   Z=29 Rmt= 1.210 Rnm= 1.314 K  shell
# # Pot 1 Z=38 Rmt= 1.746 Rnm= 1.830
# # Pot 2 Z=29 Rmt= 1.210 Rnm= 1.314
# # Pot 3 Z= 8 Rmt= 1.064 Rnm= 1.122
# # Gam_ch=1.729E+00 H-L exch Vi= 0.000E+00 Vr= 0.000E+00
# # Mu=-7.727E+00eV kf=2.031E+00 Vint=-1.593E+01eV Rs_int= 1.786
# FMS rfms= 9.0000
# # PATH  Rmax=-1.000,  Keep_limit= 0.00, Heap_limit 0.00  Pwcrit= 2.50%
#  S02=0.950  Temp=   0.00  Debye_temp=   0.00  Global_sig2= 0.00000
#  Energy zero shift, vr, vi    0.00000E+00   0.00000E+00
#  Curved wave amplitude ratio filter   4.000%
#     file         sig2 tot  cw amp ratio   deg  nlegs   reff  inp sig2
#     0/   0 paths used
#  xsedge+ 50, used to normalize mu           2.4358E-04
#  -----------------------------------------------------------------------
#  omega    e    k    mu    mu0     chi     @#
    8984.288    -11.537  -1.000  4.35081E-02  5.78621E-02 -1.43539E-02
    8984.587    -11.238  -0.960  4.62076E-02  6.21367E-02 -1.59290E-02
    8984.873    -10.952  -0.920  4.91759E-02  6.68898E-02 -1.77139E-02
    8985.148    -10.678  -0.880  5.24505E-02  7.21920E-02 -1.97416E-02
    8985.410    -10.415  -0.840  5.60743E-02  7.81253E-02 -2.20510E-02
    8985.660    -10.165  -0.800  6.00967E-02  8.47845E-02 -2.46878E-02
    8985.898     -9.928  -0.760  6.45733E-02  9.22788E-02 -2.77055E-02
    8986.123     -9.702  -0.720  6.95658E-02  1.00731E-01 -3.11652E-02
    8986.337     -9.489  -0.680  7.51410E-02  1.10277E-01 -3.51358E-02
    8986.538     -9.288  -0.640  8.13681E-02  1.21059E-01 -3.96910E-02
    8986.727     -9.099  -0.600  8.83137E-02  1.33218E-01 -4.49045E-02
    8986.903     -8.922  -0.560  9.60342E-02  1.46874E-01 -5.08397E-02
    8987.068     -8.757  -0.520  1.04564E-01  1.62097E-01 -5.75338E-02
    8987.220     -8.605  -0.480  1.13898E-01  1.78873E-01 -6.49749E-02
    8987.361     -8.465  -0.440  1.23977E-01  1.97053E-01 -7.30765E-02
    8987.489     -8.337  -0.400  1.34666E-01  2.16322E-01 -8.16565E-02
    8987.604     -8.221  -0.360  1.45749E-01  2.36183E-01 -9.04340E-02
    8987.708     -8.117  -0.320  1.56933E-01  2.55989E-01 -9.90556E-02
    8987.800     -8.026  -0.280  1.67874E-01  2.75024E-01 -1.07150E-01
    8987.879     -7.947  -0.240  1.78204E-01  2.92597E-01 -1.14394E-01
    8987.946     -7.879  -0.200  1.87571E-01  3.08130E-01 -1.20559E-01
    8988.001     -7.825  -0.160  1.95666E-01  3.21199E-01 -1.25533E-01
    8988.043     -7.782  -0.120  2.02234E-01  3.31532E-01 -1.29298E-01
    8988.074     -7.751  -0.080  2.07080E-01  3.38976E-01 -1.31896E-01
    8988.098     -7.727   0.000  2.11093E-01  3.44958E-01 -1.33865E-01
    8988.153     -7.672   0.120  2.20184E-01  3.58450E-01 -1.38266E-01
    8988.196     -7.630   0.160  2.27396E-01  3.68935E-01 -1.41539E-01
    8988.251     -7.575   0.200  2.36890E-01  3.82323E-01 -1.45433E-01
    8988.318     -7.508   0.240  2.48787E-01  3.98437E-01 -1.49650E-01
    8988.397     -7.428   0.280  2.63183E-01  4.16963E-01 -1.53781E-01
    8988.488     -7.337   0.320  2.80049E-01  4.37417E-01 -1.57367E-01
    8988.592     -7.233   0.360  2.99155E-01  4.59221E-01 -1.60066E-01
    8988.708     -7.117   0.400  3.19921E-01  4.81740E-01 -1.61818E-01
    8988.836     -6.989   0.440  3.41259E-01  5.04390E-01 -1.63131E-01
    8988.976     -6.849   0.480  3.61595E-01  5.26757E-01 -1.65163E-01
    8989.128     -6.697   0.520  3.78973E-01  5.48521E-01 -1.69548E-01
    8989.293     -6.532   0.560  3.91655E-01  5.69550E-01 -1.77895E-01
    8989.470     -6.355   0.600  3.98493E-01  5.89786E-01 -1.91293E-01
    8989.659     -6.167   0.640  3.99143E-01  6.09288E-01 -2.10144E-01
    8989.860     -5.965   0.680  3.93758E-01  6.28109E-01 -2.34351E-01
    8990.073     -5.752   0.720  3.83168E-01  6.46360E-01 -2.63192E-01
    8990.299     -5.526   0.760  3.69378E-01  6.64109E-01 -2.94730E-01
    8990.537     -5.289   0.800  3.55656E-01  6.81453E-01 -3.25797E-01
    8990.787     -5.039   0.840  3.45240E-01  6.98415E-01 -3.53175E-01
    8991.049     -4.777   0.880  3.40099E-01  7.15063E-01 -3.74964E-01
    8991.323     -4.502   0.920  3.40643E-01  7.31391E-01 -3.90748E-01
    8991.610     -4.216   0.960  3.46506E-01  7.47460E-01 -4.00954E-01
    8991.908     -3.917   1.000  3.57022E-01  7.63239E-01 -4.06218E-01
    8992.219     -3.606   1.040  3.71784E-01  7.78730E-01 -4.06946E-01
    8992.542     -3.283   1.080  3.91059E-01  7.93904E-01 -4.02845E-01
    8992.877     -2.948   1.120  4.15474E-01  8.08748E-01 -3.93273E-01
    8993.225     -2.600   1.160  4.44715E-01  8.23266E-01 -3.78551E-01
    8993.585     -2.241   1.200  4.76700E-01  8.37393E-01 -3.60693E-01
    8993.956     -1.869   1.240  5.07844E-01  8.51106E-01 -3.43262E-01
    8994.341     -1.485   1.280  5.35310E-01  8.64379E-01 -3.29069E-01
    8994.737     -1.089   1.320  5.63600E-01  8.77208E-01 -3.13608E-01
    8995.145     -0.680   1.360  6.01017E-01  8.89544E-01 -2.88527E-01
    8995.566     -0.260   1.400  6.46297E-01  9.01360E-01 -2.55062E-01
    8995.999      0.173   1.440  6.91138E-01  9.12650E-01 -2.21512E-01
    8996.444      0.618   1.480  7.33315E-01  9.23388E-01 -1.90073E-01
    8996.901      1.076   1.520  7.75328E-01  9.33551E-01 -1.58223E-01
    8997.370      1.545   1.560  8.24995E-01  9.43157E-01 -1.18163E-01
    8997.852      2.026   1.600  8.95538E-01  9.52164E-01 -5.66257E-02
    8998.346      2.520   1.640  9.91822E-01  9.60590E-01  3.12312E-02
    8998.852      3.026   1.680  1.11145E+00  9.68420E-01  1.43026E-01
    8999.370      3.544   1.720  1.23976E+00  9.75677E-01  2.64079E-01
    8999.900      4.075   1.760  1.34061E+00  9.82345E-01  3.58269E-01
    9000.443      4.617   1.800  1.38598E+00  9.88449E-01  3.97534E-01
    9000.997      5.172   1.840  1.39022E+00  9.93999E-01  3.96222E-01
    9001.564      5.739   1.880  1.38794E+00  9.99003E-01  3.88941E-01
    9002.143      6.318   1.920  1.38941E+00  1.00349E+00  3.85920E-01
    9002.735      6.909   1.960  1.39077E+00  1.00747E+00  3.83297E-01
    9003.338      7.513   2.000  1.39172E+00  1.01096E+00  3.80765E-01
    9003.954      8.129   2.040  1.39225E+00  1.01400E+00  3.78251E-01
    9004.582      8.756   2.080  1.39303E+00  1.01659E+00  3.76434E-01
    9005.222      9.397   2.120  1.38766E+00  1.01879E+00  3.68865E-01
    9005.874     10.049   2.160  1.36573E+00  1.02058E+00  3.45148E-01
    9006.539     10.713   2.200  1.32414E+00  1.02200E+00  3.02138E-01
    9007.215     11.390   2.240  1.26671E+00  1.02311E+00  2.43603E-01
    9007.904     12.079   2.280  1.20314E+00  1.02389E+00  1.79249E-01
    9008.605     12.780   2.320  1.14301E+00  1.02437E+00  1.18638E-01
    9009.318     13.493   2.360  1.08998E+00  1.02460E+00  6.53834E-02
    9010.044     14.218   2.400  1.04556E+00  1.02458E+00  2.09836E-02
    9010.781     14.956   2.440  1.01654E+00  1.02434E+00 -7.80168E-03
    9011.531     15.706   2.480  1.00562E+00  1.02391E+00 -1.82841E-02
    9012.293     16.468   2.520  1.00242E+00  1.02330E+00 -2.08703E-02
    9013.067     17.242   2.560  1.00161E+00  1.02254E+00 -2.09316E-02
    9013.854     18.028   2.600  1.00114E+00  1.02164E+00 -2.04990E-02
    9014.652     18.827   2.640  1.00003E+00  1.02062E+00 -2.05813E-02
    9015.463     19.638   2.680  9.97672E-01  1.01952E+00 -2.18483E-02
    9016.286     20.461   2.720  9.93556E-01  1.01832E+00 -2.47656E-02
    9017.121     21.296   2.760  9.87134E-01  1.01707E+00 -2.99348E-02
    9017.969     22.143   2.800  9.77985E-01  1.01577E+00 -3.77839E-02
    9018.828     23.003   2.840  9.66415E-01  1.01443E+00 -4.80136E-02
    9019.700     23.874   2.880  9.53504E-01  1.01308E+00 -5.95716E-02
    9020.584     24.758   2.920  9.40715E-01  1.01170E+00 -7.09819E-02
    9021.480     25.654   2.960  9.29556E-01  1.01034E+00 -8.07822E-02
    9022.388     26.563   3.000  9.20659E-01  1.00896E+00 -8.83022E-02
    9023.309     27.483   3.040  9.14133E-01  1.00763E+00 -9.35012E-02
    9024.241     28.416   3.080  9.09564E-01  1.00632E+00 -9.67584E-02
    9025.186     29.361   3.120  9.06096E-01  1.00505E+00 -9.89527E-02
    9026.143     30.318   3.160  9.02810E-01  1.00384E+00 -1.01027E-01
    9027.112     31.287   3.200  8.99398E-01  1.00265E+00 -1.03252E-01
    9028.094     32.269   3.240  8.96303E-01  1.00153E+00 -1.05229E-01
    9029.088     33.262   3.280  8.94096E-01  1.00048E+00 -1.06388E-01
    9030.093     34.268   3.320  8.93364E-01  9.99490E-01 -1.06126E-01
    9031.111     35.286   3.360  8.94613E-01  9.98571E-01 -1.03958E-01
    9032.142     36.316   3.400  8.97914E-01  9.97730E-01 -9.98154E-02
    9033.184     37.359   3.440  9.02987E-01  9.96968E-01 -9.39816E-02
    9034.239     38.413   3.480  9.09549E-01  9.96286E-01 -8.67363E-02
    9035.305     39.480   3.520  9.17442E-01  9.95681E-01 -7.82386E-02
    9036.384     40.559   3.560  9.26309E-01  9.95137E-01 -6.88277E-02
    9037.476     41.650   3.600  9.35823E-01  9.94695E-01 -5.88717E-02
    9038.579     42.754   3.640  9.45628E-01  9.94335E-01 -4.87067E-02
    9039.695     43.869   3.680  9.55464E-01  9.94055E-01 -3.85910E-02
    9040.822     44.997   3.720  9.65276E-01  9.93856E-01 -2.85802E-02
    9041.962     46.137   3.760  9.75314E-01  9.93716E-01 -1.84020E-02
    9043.114     47.289   3.800  9.85930E-01  9.93676E-01 -7.74623E-03
    9044.279     48.453   3.840  9.97239E-01  9.93716E-01  3.52280E-03
    9045.455     49.630   3.880  1.00908E+00  9.93814E-01  1.52698E-02
    9046.644     50.819   3.920  1.02101E+00  9.94010E-01  2.69988E-02
    9047.845     52.020   3.960  1.03226E+00  9.94262E-01  3.79983E-02
    9049.058     53.233   4.000  1.04228E+00  9.94585E-01  4.76991E-02
    9050.283     54.458   4.040  1.05092E+00  9.94960E-01  5.59571E-02
    9051.521     55.695   4.080  1.05849E+00  9.95405E-01  6.30868E-02
    9052.770     56.945   4.120  1.06541E+00  9.95897E-01  6.95145E-02
    9054.032     58.207   4.160  1.07184E+00  9.96436E-01  7.54030E-02
    9055.306     59.481   4.200  1.07729E+00  9.97042E-01  8.02480E-02
    9056.593     60.767   4.240  1.08096E+00  9.97692E-01  8.32659E-02
    9057.891     62.066   4.280  1.08231E+00  9.98381E-01  8.39249E-02
    9059.202     63.376   4.320  1.08118E+00  9.99107E-01  8.20765E-02
    9060.525     64.699   4.360  1.07761E+00  9.99848E-01  7.77644E-02
    9061.860     66.034   4.400  1.07170E+00  1.00064E+00  7.10531E-02
    9063.207     67.381   4.440  1.06359E+00  1.00143E+00  6.21557E-02
    9064.566     68.741   4.480  1.05392E+00  1.00226E+00  5.16552E-02
    9065.938     70.112   4.520  1.04374E+00  1.00308E+00  4.06589E-02
    9067.322     71.496   4.560  1.03436E+00  1.00393E+00  3.04343E-02
    9068.718     72.892   4.600  1.02675E+00  1.00478E+00  2.19731E-02
    9070.126     74.300   4.640  1.02128E+00  1.00562E+00  1.56572E-02
    9071.546     75.721   4.680  1.01764E+00  1.00647E+00  1.11718E-02
    9072.979     77.153   4.720  1.01500E+00  1.00730E+00  7.69369E-03
    9074.423     78.598   4.760  1.01246E+00  1.00811E+00  4.34984E-03
    9075.880     80.055   4.800  1.00958E+00  1.00891E+00  6.63535E-04
    9077.349     81.524   4.840  1.00645E+00  1.00968E+00 -3.22326E-03
    9078.831     83.005   4.880  1.00376E+00  1.01043E+00 -6.66920E-03
    9080.324     84.499   4.920  1.00218E+00  1.01112E+00 -8.93849E-03
    9081.830     86.005   4.960  1.00221E+00  1.01182E+00 -9.60901E-03
    9083.348     87.523   5.000  1.00361E+00  1.01246E+00 -8.84477E-03
    9084.878     89.053   5.040  1.00562E+00  1.01305E+00 -7.43731E-03
    9086.420     90.595   5.080  1.00704E+00  1.01361E+00 -6.56326E-03
    9087.975     92.149   5.120  1.00684E+00  1.01411E+00 -7.27868E-03
    9089.541     93.716   5.160  1.00455E+00  1.01458E+00 -1.00235E-02
    9091.120     95.295   5.200  1.00047E+00  1.01497E+00 -1.44989E-02
    9092.711     96.886   5.240  9.95420E-01  1.01534E+00 -1.99231E-02
    9094.315     98.489   5.280  9.90101E-01  1.01564E+00 -2.55434E-02
    9095.930    100.105   5.320  9.84882E-01  1.01588E+00 -3.09934E-02
    9097.558    101.732   5.360  9.79871E-01  1.01608E+00 -3.62094E-02
    9099.197    103.372   5.400  9.75155E-01  1.01621E+00 -4.10589E-02
    9100.849    105.024   5.440  9.71329E-01  1.01627E+00 -4.49463E-02
    9102.514    106.688   5.480  9.69497E-01  1.01629E+00 -4.67901E-02
    9104.190    108.365   5.520  9.70801E-01  1.01625E+00 -4.54498E-02
    9105.879    110.053   5.560  9.75714E-01  1.01614E+00 -4.04310E-02
    9107.579    111.754   5.600  9.83809E-01  1.01599E+00 -3.21820E-02
    9109.292    113.467   5.640  9.93849E-01  1.01579E+00 -2.19424E-02
    9111.017    115.192   5.680  1.00419E+00  1.01552E+00 -1.13307E-02
    9112.755    116.930   5.720  1.01314E+00  1.01520E+00 -2.05823E-03
    9114.504    118.679   5.760  1.01928E+00  1.01484E+00  4.43431E-03
    9116.266    120.441   5.800  1.02183E+00  1.01441E+00  7.42126E-03
    9118.040    122.215   5.840  1.02115E+00  1.01395E+00  7.20551E-03
    9119.826    124.001   5.880  1.01830E+00  1.01346E+00  4.83377E-03
    9121.624    125.799   5.920  1.01432E+00  1.01292E+00  1.39977E-03
    9123.435    127.610   5.960  1.00993E+00  1.01235E+00 -2.41362E-03
    9125.258    129.432   6.000  1.00545E+00  1.01173E+00 -6.27646E-03
