# # comment:                                                     FEFF 9.9.1  
# # Source:
# # Structure
# # Reduced
# # space
# # abc:
# # angles:
# # sites:
# # POT  SCF 100  7.0000   0, screened core-hole, AFOLP (folp(0)= 1.150)
# # Abs   Z=29 Rmt= 1.235 Rnm= 1.332 K  shell
# # Pot 1 Z=49 Rmt= 1.486 Rnm= 1.567
# # Pot 2 Z=29 Rmt= 1.236 Rnm= 1.332
# # Pot 3 Z= 8 Rmt= 1.041 Rnm= 1.112
# # Gam_ch=1.729E+00 H-L exch Vi= 0.000E+00 Vr= 0.000E+00
# # Mu=-7.013E+00eV kf=2.111E+00 Vint=-1.508E+01eV Rs_int= 1.718
# FMS rfms= 9.0000
# # PATH  Rmax=-1.000,  Keep_limit= 0.00, Heap_limit 0.00  Pwcrit= 2.50%
#  S02=0.950  Temp=   0.00  Debye_temp=   0.00  Global_sig2= 0.00000
#  Energy zero shift, vr, vi    0.00000E+00   0.00000E+00
#  Curved wave amplitude ratio filter   4.000%
#     file         sig2 tot  cw amp ratio   deg  nlegs   reff  inp sig2
#     0/   0 paths used
#  xsedge+ 50, used to normalize mu           2.4468E-04
#  -----------------------------------------------------------------------
#  omega    e    k    mu    mu0     chi     @#
    8983.592    -10.823  -1.000  3.69609E-02  5.29465E-02 -1.59856E-02
    8983.890    -10.525  -0.960  3.88640E-02  5.67499E-02 -1.78859E-02
    8984.177    -10.238  -0.920  4.09050E-02  6.09717E-02 -2.00667E-02
    8984.451     -9.964  -0.880  4.30967E-02  6.56729E-02 -2.25762E-02
    8984.713     -9.702  -0.840  4.54529E-02  7.09246E-02 -2.54717E-02
    8984.963     -9.452  -0.800  4.79887E-02  7.68090E-02 -2.88203E-02
    8985.201     -9.214  -0.760  5.07199E-02  8.34205E-02 -3.27006E-02
    8985.427     -8.988  -0.720  5.36628E-02  9.08654E-02 -3.72026E-02
    8985.640     -8.775  -0.680  5.68335E-02  9.92609E-02 -4.24274E-02
    8985.841     -8.574  -0.640  6.02468E-02  1.08730E-01 -4.84837E-02
    8986.030     -8.385  -0.600  6.39144E-02  1.19395E-01 -5.54808E-02
    8986.207     -8.208  -0.560  6.78426E-02  1.31358E-01 -6.35158E-02
    8986.371     -8.043  -0.520  7.20282E-02  1.44681E-01 -7.26526E-02
    8986.524     -7.891  -0.480  7.64542E-02  1.59348E-01 -8.28935E-02
    8986.664     -7.751  -0.440  8.10849E-02  1.75231E-01 -9.41461E-02
    8986.792     -7.623  -0.400  8.58611E-02  1.92056E-01 -1.06195E-01
    8986.908     -7.507  -0.360  9.06982E-02  2.09390E-01 -1.18692E-01
    8987.011     -7.403  -0.320  9.54890E-02  2.26673E-01 -1.31184E-01
    8987.103     -7.312  -0.280  1.00110E-01  2.43282E-01 -1.43171E-01
    8987.182     -7.233  -0.240  1.04434E-01  2.58616E-01 -1.54182E-01
    8987.249     -7.166  -0.200  1.08335E-01  2.72173E-01 -1.63838E-01
    8987.304     -7.111  -0.160  1.11701E-01  2.83582E-01 -1.71881E-01
    8987.347     -7.068  -0.120  1.14436E-01  2.92604E-01 -1.78168E-01
    8987.377     -7.038  -0.080  1.16462E-01  2.99107E-01 -1.82645E-01
    8987.402     -7.013   0.000  1.18158E-01  3.04334E-01 -1.86176E-01
    8987.457     -6.958   0.120  1.22058E-01  3.16121E-01 -1.94062E-01
    8987.499     -6.916   0.160  1.25115E-01  3.25290E-01 -2.00174E-01
    8987.554     -6.861   0.200  1.29154E-01  3.37010E-01 -2.07855E-01
    8987.621     -6.794   0.240  1.34234E-01  3.51110E-01 -2.16876E-01
    8987.700     -6.715   0.280  1.40524E-01  3.67344E-01 -2.26820E-01
    8987.792     -6.623   0.320  1.48142E-01  3.85295E-01 -2.37153E-01
    8987.895     -6.519   0.360  1.57341E-01  4.04468E-01 -2.47127E-01
    8988.011     -6.404   0.400  1.68394E-01  4.24316E-01 -2.55922E-01
    8988.139     -6.276   0.440  1.81699E-01  4.44359E-01 -2.62660E-01
    8988.279     -6.135   0.480  1.97781E-01  4.64222E-01 -2.66440E-01
    8988.432     -5.983   0.520  2.17153E-01  4.83647E-01 -2.66494E-01
    8988.596     -5.818   0.560  2.40148E-01  5.02525E-01 -2.62377E-01
    8988.773     -5.642   0.600  2.66360E-01  5.20824E-01 -2.54463E-01
    8988.962     -5.453   0.640  2.94042E-01  5.38553E-01 -2.44511E-01
    8989.163     -5.252   0.680  3.20200E-01  5.55819E-01 -2.35619E-01
    8989.377     -5.038   0.720  3.42038E-01  5.72698E-01 -2.30660E-01
    8989.602     -4.813   0.760  3.58855E-01  5.89245E-01 -2.30390E-01
    8989.840     -4.575   0.800  3.71530E-01  6.05545E-01 -2.34015E-01
    8990.090     -4.325   0.840  3.80016E-01  6.21632E-01 -2.41616E-01
    8990.352     -4.063   0.880  3.83383E-01  6.37568E-01 -2.54186E-01
    8990.626     -3.788   0.920  3.82473E-01  6.53379E-01 -2.70905E-01
    8990.913     -3.502   0.960  3.81184E-01  6.69039E-01 -2.87856E-01
    8991.212     -3.203   1.000  3.83672E-01  6.84596E-01 -3.00925E-01
    8991.523     -2.892   1.040  3.90523E-01  7.00029E-01 -3.09505E-01
    8991.846     -2.569   1.080  4.00511E-01  7.15306E-01 -3.14795E-01
    8992.181     -2.234   1.120  4.14375E-01  7.30433E-01 -3.16058E-01
    8992.528     -1.887   1.160  4.33013E-01  7.45347E-01 -3.12334E-01
    8992.888     -1.527   1.200  4.55412E-01  7.60069E-01 -3.04656E-01
    8993.260     -1.155   1.240  4.79156E-01  7.74551E-01 -2.95395E-01
    8993.644     -0.771   1.280  5.00872E-01  7.88743E-01 -2.87871E-01
    8994.040     -0.375   1.320  5.19266E-01  8.02637E-01 -2.83370E-01
    8994.449      0.034   1.360  5.39095E-01  8.16181E-01 -2.77086E-01
    8994.869      0.454   1.400  5.68025E-01  8.29367E-01 -2.61341E-01
    8995.302      0.887   1.440  6.08455E-01  8.42163E-01 -2.33707E-01
    8995.747      1.332   1.480  6.55709E-01  8.54517E-01 -1.98808E-01
    8996.204      1.789   1.520  7.08858E-01  8.66442E-01 -1.57584E-01
    8996.674      2.259   1.560  7.75354E-01  8.77890E-01 -1.02537E-01
    8997.155      2.740   1.600  8.59278E-01  8.88853E-01 -2.95750E-02
    8997.649      3.234   1.640  9.51490E-01  8.99325E-01  5.21641E-02
    8998.155      3.740   1.680  1.03871E+00  9.09261E-01  1.29452E-01
    8998.673      4.258   1.720  1.12229E+00  9.18700E-01  2.03590E-01
    8999.203      4.789   1.760  1.21424E+00  9.27600E-01  2.86644E-01
    8999.746      5.331   1.800  1.31384E+00  9.35960E-01  3.77877E-01
    9000.301      5.886   1.840  1.39311E+00  9.43821E-01  4.49286E-01
    9000.868      6.453   1.880  1.40457E+00  9.51126E-01  4.53444E-01
    9001.447      7.032   1.920  1.34438E+00  9.57940E-01  3.86444E-01
    9002.038      7.623   1.960  1.26858E+00  9.64227E-01  3.04357E-01
    9002.642      8.227   2.000  1.22037E+00  9.70013E-01  2.50355E-01
    9003.257      8.842   2.040  1.20288E+00  9.75326E-01  2.27552E-01
    9003.885      9.470   2.080  1.19718E+00  9.80154E-01  2.17030E-01
    9004.525     10.110   2.120  1.17926E+00  9.84545E-01  1.94718E-01
    9005.178     10.763   2.160  1.14567E+00  9.88489E-01  1.57184E-01
    9005.842     11.427   2.200  1.11399E+00  9.92013E-01  1.21981E-01
    9006.519     12.104   2.240  1.09597E+00  9.95131E-01  1.00839E-01
    9007.207     12.793   2.280  1.09361E+00  9.97872E-01  9.57350E-02
    9007.908     13.494   2.320  1.10551E+00  1.00027E+00  1.05237E-01
    9008.622     14.207   2.360  1.12695E+00  1.00233E+00  1.24617E-01
    9009.347     14.932   2.400  1.15066E+00  1.00406E+00  1.46593E-01
    9010.085     15.670   2.440  1.17016E+00  1.00549E+00  1.64672E-01
    9010.835     16.420   2.480  1.17950E+00  1.00667E+00  1.72835E-01
    9011.597     17.182   2.520  1.16897E+00  1.00757E+00  1.61393E-01
    9012.371     17.956   2.560  1.13764E+00  1.00824E+00  1.29398E-01
    9013.157     18.742   2.600  1.09753E+00  1.00872E+00  8.88172E-02
    9013.956     19.541   2.640  1.05728E+00  1.00897E+00  4.83070E-02
    9014.766     20.352   2.680  1.02228E+00  1.00907E+00  1.32032E-02
    9015.589     21.175   2.720  9.95236E-01  1.00901E+00 -1.37770E-02
    9016.425     22.010   2.760  9.75346E-01  1.00880E+00 -3.34536E-02
    9017.272     22.857   2.800  9.60117E-01  1.00848E+00 -4.83645E-02
    9018.131     23.717   2.840  9.47274E-01  1.00802E+00 -6.07507E-02
    9019.003     24.588   2.880  9.35150E-01  1.00750E+00 -7.23504E-02
    9019.887     25.472   2.920  9.23098E-01  1.00689E+00 -8.37965E-02
    9020.783     26.368   2.960  9.11409E-01  1.00621E+00 -9.48043E-02
    9021.691     27.277   3.000  9.00562E-01  1.00548E+00 -1.04921E-01
    9022.612     28.197   3.040  8.91054E-01  1.00471E+00 -1.13656E-01
    9023.545     29.130   3.080  8.83209E-01  1.00390E+00 -1.20691E-01
    9024.490     30.075   3.120  8.77158E-01  1.00308E+00 -1.25923E-01
    9025.447     31.032   3.160  8.72858E-01  1.00226E+00 -1.29397E-01
    9026.416     32.001   3.200  8.70288E-01  1.00143E+00 -1.31141E-01
    9027.397     32.982   3.240  8.69401E-01  1.00060E+00 -1.31202E-01
    9028.391     33.976   3.280  8.69967E-01  9.99783E-01 -1.29816E-01
    9029.397     34.982   3.320  8.71890E-01  9.98993E-01 -1.27103E-01
    9030.415     36.000   3.360  8.75295E-01  9.98237E-01 -1.22941E-01
    9031.445     37.030   3.400  8.80398E-01  9.97495E-01 -1.17097E-01
    9032.487     38.073   3.440  8.87463E-01  9.96812E-01 -1.09349E-01
    9033.542     39.127   3.480  8.96691E-01  9.96151E-01 -9.94594E-02
    9034.609     40.194   3.520  9.08110E-01  9.95552E-01 -8.74415E-02
    9035.688     41.273   3.560  9.21145E-01  9.94997E-01 -7.38522E-02
    9036.779     42.364   3.600  9.34916E-01  9.94488E-01 -5.95722E-02
    9037.882     43.468   3.640  9.48525E-01  9.94047E-01 -4.55223E-02
    9038.998     44.583   3.680  9.61317E-01  9.93654E-01 -3.23369E-02
    9040.126     45.711   3.720  9.73121E-01  9.93330E-01 -2.02094E-02
    9041.266     46.851   3.760  9.84076E-01  9.93055E-01 -8.97894E-03
    9042.418     48.003   3.800  9.94341E-01  9.92826E-01  1.51478E-03
    9043.582     49.167   3.840  1.00403E+00  9.92668E-01  1.13645E-02
    9044.759     50.344   3.880  1.01320E+00  9.92559E-01  2.06366E-02
    9045.947     51.532   3.920  1.02166E+00  9.92520E-01  2.91368E-02
    9047.148     52.733   3.960  1.02893E+00  9.92552E-01  3.63802E-02
    9048.361     53.946   4.000  1.03471E+00  9.92611E-01  4.21024E-02
    9049.587     55.172   4.040  1.03937E+00  9.92759E-01  4.66155E-02
    9050.824     56.409   4.080  1.04354E+00  9.92932E-01  5.06112E-02
    9052.074     57.659   4.120  1.04787E+00  9.93171E-01  5.47002E-02
    9053.336     58.921   4.160  1.05279E+00  9.93454E-01  5.93393E-02
    9054.610     60.195   4.200  1.05842E+00  9.93781E-01  6.46363E-02
    9055.896     61.481   4.240  1.06461E+00  9.94149E-01  7.04622E-02
    9057.194     62.780   4.280  1.07107E+00  9.94582E-01  7.64908E-02
    9058.505     64.090   4.320  1.07718E+00  9.95032E-01  8.21432E-02
    9059.828     65.413   4.360  1.08212E+00  9.95542E-01  8.65798E-02
    9061.163     66.748   4.400  1.08499E+00  9.96065E-01  8.89231E-02
    9062.510     68.095   4.440  1.08525E+00  9.96600E-01  8.86511E-02
    9063.870     69.455   4.480  1.08288E+00  9.97190E-01  8.56945E-02
    9065.241     70.826   4.520  1.07827E+00  9.97790E-01  8.04754E-02
    9066.625     72.210   4.560  1.07194E+00  9.98399E-01  7.35458E-02
    9068.021     73.606   4.600  1.06425E+00  9.99034E-01  6.52173E-02
    9069.429     75.014   4.640  1.05522E+00  9.99676E-01  5.55428E-02
    9070.849     76.435   4.680  1.04491E+00  1.00034E+00  4.45651E-02
    9072.282     77.867   4.720  1.03354E+00  1.00099E+00  3.25525E-02
    9073.727     79.312   4.760  1.02177E+00  1.00163E+00  2.01386E-02
    9075.184     80.769   4.800  1.01048E+00  1.00229E+00  8.18196E-03
    9076.653     82.238   4.840  1.00038E+00  1.00293E+00 -2.54910E-03
    9078.134     83.719   4.880  9.91964E-01  1.00356E+00 -1.15968E-02
    9079.628     85.213   4.920  9.85268E-01  1.00416E+00 -1.88937E-02
    9081.133     86.718   4.960  9.80077E-01  1.00475E+00 -2.46762E-02
    9082.651     88.236   5.000  9.75992E-01  1.00534E+00 -2.93452E-02
    9084.181     89.766   5.040  9.72545E-01  1.00589E+00 -3.33413E-02
    9085.724     91.309   5.080  9.69412E-01  1.00640E+00 -3.69869E-02
    9087.278     92.863   5.120  9.66547E-01  1.00690E+00 -4.03524E-02
    9088.845     94.430   5.160  9.64096E-01  1.00736E+00 -4.32669E-02
    9090.424     96.009   5.200  9.62332E-01  1.00779E+00 -4.54548E-02
    9092.015     97.600   5.240  9.61359E-01  1.00817E+00 -4.68108E-02
    9093.618     99.203   5.280  9.61050E-01  1.00851E+00 -4.74619E-02
    9095.233    100.818   5.320  9.61135E-01  1.00881E+00 -4.76782E-02
    9096.861    102.446   5.360  9.61435E-01  1.00907E+00 -4.76383E-02
    9098.501    104.086   5.400  9.62041E-01  1.00931E+00 -4.72716E-02
    9100.153    105.738   5.440  9.63229E-01  1.00946E+00 -4.62352E-02
    9101.817    107.402   5.480  9.65489E-01  1.00960E+00 -4.41071E-02
    9103.493    109.078   5.520  9.69076E-01  1.00968E+00 -4.06083E-02
    9105.182    110.767   5.560  9.73975E-01  1.00973E+00 -3.57530E-02
    9106.883    112.468   5.600  9.79894E-01  1.00971E+00 -2.98108E-02
    9108.596    114.181   5.640  9.86379E-01  1.00964E+00 -2.32585E-02
    9110.321    115.906   5.680  9.92833E-01  1.00953E+00 -1.66941E-02
    9112.058    117.643   5.720  9.98652E-01  1.00937E+00 -1.07223E-02
    9113.808    119.393   5.760  1.00343E+00  1.00918E+00 -5.74825E-03
    9115.570    121.155   5.800  1.00702E+00  1.00895E+00 -1.92870E-03
    9117.343    122.929   5.840  1.00944E+00  1.00867E+00  7.63663E-04
    9119.130    124.715   5.880  1.01079E+00  1.00833E+00  2.45441E-03
    9120.928    126.513   5.920  1.01128E+00  1.00798E+00  3.29981E-03
    9122.738    128.323   5.960  1.01099E+00  1.00760E+00  3.39151E-03
    9124.561    130.146   6.000  1.00977E+00  1.00711E+00  2.65834E-03
