# # comment:                                                     FEFF 9.9.1  
# # Source:
# # Structure
# # Reduced
# # space
# # abc:
# # angles:
# # sites:
# # POT  SCF 100  7.0000   0, screened core-hole, AFOLP (folp(0)= 1.150)
# # Abs   Z=29 Rmt= 1.290 Rnm= 1.358 K  shell
# # Pot 1 Z=70 Rmt= 1.627 Rnm= 1.714
# # Pot 2 Z=29 Rmt= 1.290 Rnm= 1.358
# # Pot 3 Z=42 Rmt= 1.146 Rnm= 1.355
# # Pot 4 Z= 8 Rmt= 0.997 Rnm= 1.091
# # Gam_ch=1.729E+00 H-L exch Vi= 0.000E+00 Vr= 0.000E+00
# # Mu=-5.862E+00eV kf=2.270E+00 Vint=-1.621E+01eV Rs_int= 1.597
# FMS rfms= 9.0000
# # PATH  Rmax=-1.000,  Keep_limit= 0.00, Heap_limit 0.00  Pwcrit= 2.50%
#  S02=0.950  Temp=   0.00  Debye_temp=   0.00  Global_sig2= 0.00000
#  Energy zero shift, vr, vi    0.00000E+00   0.00000E+00
#  Curved wave amplitude ratio filter   4.000%
#     file         sig2 tot  cw amp ratio   deg  nlegs   reff  inp sig2
#     0/   0 paths used
#  xsedge+ 50, used to normalize mu           2.4676E-04
#  -----------------------------------------------------------------------
#  omega    e    k    mu    mu0     chi     @#
    8983.483     -9.672  -1.000  4.36672E-02  5.63905E-02 -1.27233E-02
    8983.782     -9.373  -0.960  4.61480E-02  6.05829E-02 -1.44349E-02
    8984.068     -9.086  -0.920  4.88433E-02  6.52508E-02 -1.64075E-02
    8984.342     -8.812  -0.880  5.17817E-02  7.04651E-02 -1.86834E-02
    8984.604     -8.550  -0.840  5.49966E-02  7.63086E-02 -2.13120E-02
    8984.854     -8.300  -0.800  5.85267E-02  8.28771E-02 -2.43504E-02
    8985.092     -8.062  -0.760  6.24172E-02  9.02807E-02 -2.78635E-02
    8985.318     -7.837  -0.720  6.67196E-02  9.86442E-02 -3.19247E-02
    8985.531     -7.623  -0.680  7.14909E-02  1.08105E-01 -3.66142E-02
    8985.732     -7.422  -0.640  7.67917E-02  1.18808E-01 -4.20167E-02
    8985.921     -7.233  -0.600  8.26818E-02  1.30897E-01 -4.82155E-02
    8986.098     -7.056  -0.560  8.92118E-02  1.44494E-01 -5.52823E-02
    8986.263     -6.892  -0.520  9.64096E-02  1.59672E-01 -6.32627E-02
    8986.415     -6.739  -0.480  1.04263E-01  1.76417E-01 -7.21543E-02
    8986.555     -6.599  -0.440  1.12698E-01  1.94582E-01 -8.18833E-02
    8986.683     -6.471  -0.400  1.21563E-01  2.13846E-01 -9.22835E-02
    8986.799     -6.355  -0.360  1.30621E-01  2.33709E-01 -1.03089E-01
    8986.903     -6.252  -0.320  1.39571E-01  2.53519E-01 -1.13948E-01
    8986.994     -6.160  -0.280  1.48086E-01  2.72552E-01 -1.24466E-01
    8987.073     -6.081  -0.240  1.55861E-01  2.90114E-01 -1.34253E-01
    8987.140     -6.014  -0.200  1.62655E-01  3.05626E-01 -1.42970E-01
    8987.195     -5.959  -0.160  1.68308E-01  3.18665E-01 -1.50358E-01
    8987.238     -5.916  -0.120  1.72733E-01  3.28967E-01 -1.56234E-01
    8987.268     -5.886  -0.080  1.75895E-01  3.36383E-01 -1.60489E-01
    8987.293     -5.862   0.000  1.78411E-01  3.42339E-01 -1.63929E-01
    8987.348     -5.807   0.120  1.83917E-01  3.55762E-01 -1.71845E-01
    8987.390     -5.764   0.160  1.88138E-01  3.66166E-01 -1.78028E-01
    8987.445     -5.709   0.200  1.93491E-01  3.79461E-01 -1.85970E-01
    8987.512     -5.642   0.240  1.99789E-01  3.95412E-01 -1.95623E-01
    8987.591     -5.563   0.280  2.06845E-01  4.13679E-01 -2.06833E-01
    8987.683     -5.471   0.320  2.14425E-01  4.33789E-01 -2.19364E-01
    8987.787     -5.368   0.360  2.22290E-01  4.55115E-01 -2.32825E-01
    8987.902     -5.252   0.400  2.30260E-01  4.76991E-01 -2.46732E-01
    8988.030     -5.124   0.440  2.38333E-01  4.98828E-01 -2.60495E-01
    8988.171     -4.984   0.480  2.46679E-01  5.20152E-01 -2.73473E-01
    8988.323     -4.831   0.520  2.55576E-01  5.40694E-01 -2.85117E-01
    8988.488     -4.667   0.560  2.65100E-01  5.60280E-01 -2.95180E-01
    8988.664     -4.490   0.600  2.74942E-01  5.78918E-01 -3.03976E-01
    8988.853     -4.301   0.640  2.84180E-01  5.96614E-01 -3.12434E-01
    8989.055     -4.100   0.680  2.91909E-01  6.13515E-01 -3.21606E-01
    8989.268     -3.887   0.720  2.97965E-01  6.29685E-01 -3.31721E-01
    8989.493     -3.661   0.760  3.03612E-01  6.45267E-01 -3.41655E-01
    8989.731     -3.423   0.800  3.11084E-01  6.60334E-01 -3.49250E-01
    8989.981     -3.173   0.840  3.22798E-01  6.74963E-01 -3.52165E-01
    8990.243     -2.911   0.880  3.40480E-01  6.89260E-01 -3.48780E-01
    8990.518     -2.637   0.920  3.64553E-01  7.03233E-01 -3.38679E-01
    8990.804     -2.350   0.960  3.94687E-01  7.16958E-01 -3.22271E-01
    8991.103     -2.052   1.000  4.30676E-01  7.30419E-01 -2.99743E-01
    8991.414     -1.741   1.040  4.73449E-01  7.43670E-01 -2.70222E-01
    8991.737     -1.418   1.080  5.23859E-01  7.56679E-01 -2.32820E-01
    8992.072     -1.082   1.120  5.81513E-01  7.69503E-01 -1.87989E-01
    8992.420     -0.735   1.160  6.44395E-01  7.82075E-01 -1.37680E-01
    8992.779     -0.375   1.200  7.09292E-01  7.94425E-01 -8.51332E-02
    8993.151     -0.003   1.240  7.73137E-01  8.06538E-01 -3.34009E-02
    8993.535      0.381   1.280  8.35633E-01  8.18397E-01  1.72359E-02
    8993.931      0.777   1.320  8.99337E-01  8.29962E-01  6.93751E-02
    8994.340      1.185   1.360  9.67332E-01  8.41250E-01  1.26082E-01
    8994.760      1.606   1.400  1.03662E+00  8.52240E-01  1.84382E-01
    8995.193      2.039   1.440  1.09908E+00  8.62888E-01  2.36188E-01
    8995.638      2.484   1.480  1.15405E+00  8.73191E-01  2.80861E-01
    8996.095      2.941   1.520  1.20399E+00  8.83164E-01  3.20825E-01
    8996.565      3.410   1.560  1.24116E+00  8.92744E-01  3.48412E-01
    8997.046      3.892   1.600  1.26036E+00  9.01948E-01  3.58414E-01
    8997.540      4.386   1.640  1.27467E+00  9.10754E-01  3.63913E-01
    8998.046      4.892   1.680  1.30033E+00  9.19179E-01  3.81153E-01
    8998.564      5.410   1.720  1.33624E+00  9.27179E-01  4.09058E-01
    8999.095      5.940   1.760  1.36425E+00  9.34778E-01  4.29476E-01
    8999.637      6.483   1.800  1.37183E+00  9.41953E-01  4.29876E-01
    9000.192      7.037   1.840  1.36819E+00  9.48705E-01  4.19489E-01
    9000.759      7.604   1.880  1.36330E+00  9.55058E-01  4.08241E-01
    9001.338      8.184   1.920  1.35388E+00  9.60993E-01  3.92885E-01
    9001.929      8.775   1.960  1.33218E+00  9.66533E-01  3.65650E-01
    9002.533      9.378   2.000  1.29146E+00  9.71663E-01  3.19799E-01
    9003.148      9.994   2.040  1.23072E+00  9.76407E-01  2.54310E-01
    9003.776     10.622   2.080  1.15924E+00  9.80770E-01  1.78470E-01
    9004.416     11.262   2.120  1.09081E+00  9.84737E-01  1.06077E-01
    9005.069     11.914   2.160  1.03649E+00  9.88355E-01  4.81397E-02
    9005.733     12.579   2.200  1.00036E+00  9.91631E-01  8.73238E-03
    9006.410     13.255   2.240  9.80102E-01  9.94573E-01 -1.44708E-02
    9007.099     13.944   2.280  9.70961E-01  9.97188E-01 -2.62271E-02
    9007.800     14.645   2.320  9.71177E-01  9.99483E-01 -2.83062E-02
    9008.513     15.358   2.360  9.82849E-01  1.00151E+00 -1.86576E-02
    9009.238     16.084   2.400  1.00314E+00  1.00325E+00 -1.06980E-04
    9009.976     16.822   2.440  1.02315E+00  1.00473E+00  1.84179E-02
    9010.726     17.571   2.480  1.03529E+00  1.00595E+00  2.93405E-02
    9011.488     18.333   2.520  1.03385E+00  1.00696E+00  2.68852E-02
    9012.262     19.107   2.560  1.01241E+00  1.00775E+00  4.66250E-03
    9013.048     19.894   2.600  9.72002E-01  1.00833E+00 -3.63311E-02
    9013.847     20.692   2.640  9.24689E-01  1.00874E+00 -8.40507E-02
    9014.658     21.503   2.680  8.87584E-01  1.00898E+00 -1.21394E-01
    9015.481     22.326   2.720  8.67940E-01  1.00906E+00 -1.41116E-01
    9016.316     23.161   2.760  8.60815E-01  1.00900E+00 -1.48186E-01
    9017.163     24.009   2.800  8.60630E-01  1.00880E+00 -1.48169E-01
    9018.023     24.868   2.840  8.63728E-01  1.00850E+00 -1.44771E-01
    9018.894     25.740   2.880  8.67916E-01  1.00811E+00 -1.40190E-01
    9019.778     26.624   2.920  8.72268E-01  1.00763E+00 -1.35357E-01
    9020.674     27.520   2.960  8.76813E-01  1.00704E+00 -1.30231E-01
    9021.583     28.428   3.000  8.81584E-01  1.00641E+00 -1.24824E-01
    9022.503     29.349   3.040  8.86495E-01  1.00572E+00 -1.19228E-01
    9023.436     30.281   3.080  8.91804E-01  1.00499E+00 -1.13190E-01
    9024.381     31.226   3.120  8.97621E-01  1.00422E+00 -1.06603E-01
    9025.338     32.183   3.160  9.03818E-01  1.00342E+00 -9.96020E-02
    9026.307     33.153   3.200  9.10262E-01  1.00261E+00 -9.23431E-02
    9027.288     34.134   3.240  9.17021E-01  1.00178E+00 -8.47626E-02
    9028.282     35.128   3.280  9.24277E-01  1.00096E+00 -7.66811E-02
    9029.288     36.134   3.320  9.32675E-01  1.00011E+00 -6.74374E-02
    9030.306     37.152   3.360  9.42859E-01  9.99290E-01 -5.64309E-02
    9031.336     38.182   3.400  9.54902E-01  9.98495E-01 -4.35924E-02
    9032.379     39.224   3.440  9.68367E-01  9.97710E-01 -2.93429E-02
    9033.433     40.279   3.480  9.82758E-01  9.96955E-01 -1.41977E-02
    9034.500     41.346   3.520  9.97457E-01  9.96213E-01  1.24433E-03
    9035.579     42.425   3.560  1.01177E+00  9.95507E-01  1.62582E-02
    9036.670     43.516   3.600  1.02495E+00  9.94860E-01  3.00875E-02
    9037.774     44.619   3.640  1.03630E+00  9.94229E-01  4.20736E-02
    9038.889     45.735   3.680  1.04532E+00  9.93638E-01  5.16782E-02
    9040.017     46.862   3.720  1.05185E+00  9.93088E-01  5.87638E-02
    9041.157     48.002   3.760  1.05603E+00  9.92602E-01  6.34235E-02
    9042.309     49.155   3.800  1.05802E+00  9.92157E-01  6.58609E-02
    9043.473     50.319   3.840  1.05816E+00  9.91735E-01  6.64295E-02
    9044.650     51.495   3.880  1.05706E+00  9.91397E-01  6.56600E-02
    9045.839     52.684   3.920  1.05517E+00  9.91082E-01  6.40895E-02
    9047.039     53.885   3.960  1.05298E+00  9.90810E-01  6.21688E-02
    9048.253     55.098   4.000  1.05087E+00  9.90603E-01  6.02711E-02
    9049.478     56.323   4.040  1.04901E+00  9.90439E-01  5.85718E-02
    9050.715     57.561   4.080  1.04734E+00  9.90320E-01  5.70219E-02
    9051.965     58.811   4.120  1.04565E+00  9.90265E-01  5.53893E-02
    9053.227     60.072   4.160  1.04361E+00  9.90231E-01  5.33776E-02
    9054.501     61.347   4.200  1.04097E+00  9.90259E-01  5.07082E-02
    9055.787     62.633   4.240  1.03760E+00  9.90326E-01  4.72744E-02
    9057.086     63.931   4.280  1.03360E+00  9.90413E-01  4.31920E-02
    9058.396     65.242   4.320  1.02927E+00  9.90559E-01  3.87147E-02
    9059.719     66.565   4.360  1.02487E+00  9.90743E-01  3.41305E-02
    9061.054     67.900   4.400  1.02064E+00  9.90942E-01  2.96979E-02
    9062.401     69.247   4.440  1.01675E+00  9.91177E-01  2.55726E-02
    9063.761     70.606   4.480  1.01321E+00  9.91446E-01  2.17684E-02
    9065.132     71.978   4.520  1.00998E+00  9.91749E-01  1.82313E-02
    9066.516     73.362   4.560  1.00695E+00  9.92063E-01  1.48912E-02
    9067.912     74.758   4.600  1.00410E+00  9.92407E-01  1.16888E-02
    9069.320     76.166   4.640  1.00132E+00  9.92759E-01  8.56356E-03
    9070.741     77.586   4.680  9.98506E-01  9.93140E-01  5.36582E-03
    9072.173     79.019   4.720  9.95329E-01  9.93525E-01  1.80327E-03
    9073.618     80.463   4.760  9.91453E-01  9.93913E-01 -2.45980E-03
    9075.075     81.920   4.800  9.86656E-01  9.94303E-01 -7.64712E-03
    9076.544     83.390   4.840  9.80941E-01  9.94716E-01 -1.37746E-02
    9078.025     84.871   4.880  9.74453E-01  9.95107E-01 -2.06534E-02
    9079.519     86.364   4.920  9.67497E-01  9.95496E-01 -2.79987E-02
    9081.024     87.870   4.960  9.60419E-01  9.95904E-01 -3.54850E-02
    9082.542     89.388   5.000  9.53574E-01  9.96287E-01 -4.27125E-02
    9084.072     90.918   5.040  9.47442E-01  9.96663E-01 -4.92218E-02
    9085.615     92.460   5.080  9.42523E-01  9.97010E-01 -5.44869E-02
    9087.169     94.015   5.120  9.39311E-01  9.97349E-01 -5.80382E-02
    9088.736     95.581   5.160  9.38094E-01  9.97681E-01 -5.95870E-02
    9090.315     97.160   5.200  9.38938E-01  9.97980E-01 -5.90423E-02
    9091.906     98.751   5.240  9.41775E-01  9.98270E-01 -5.64955E-02
    9093.509    100.355   5.280  9.46415E-01  9.98525E-01 -5.21106E-02
    9095.124    101.970   5.320  9.52614E-01  9.98745E-01 -4.61316E-02
    9096.752    103.598   5.360  9.60070E-01  9.98953E-01 -3.88826E-02
    9098.392    105.238   5.400  9.68325E-01  9.99125E-01 -3.07993E-02
    9100.044    106.890   5.440  9.76825E-01  9.99260E-01 -2.24350E-02
    9101.708    108.554   5.480  9.84899E-01  9.99380E-01 -1.44806E-02
    9103.385    110.230   5.520  9.91782E-01  9.99440E-01 -7.65810E-03
    9105.073    111.919   5.560  9.97000E-01  9.99485E-01 -2.48495E-03
    9106.774    113.619   5.600  1.00044E+00  9.99492E-01  9.52681E-04
    9108.487    115.332   5.640  1.00249E+00  9.99458E-01  3.02768E-03
    9110.212    117.058   5.680  1.00383E+00  9.99387E-01  4.44596E-03
    9111.949    118.795   5.720  1.00532E+00  9.99276E-01  6.03885E-03
    9113.699    120.545   5.760  1.00764E+00  9.99128E-01  8.51176E-03
    9115.461    122.306   5.800  1.01116E+00  9.98966E-01  1.21978E-02
    9117.235    124.080   5.840  1.01565E+00  9.98745E-01  1.69095E-02
    9119.021    125.866   5.880  1.02047E+00  9.98511E-01  2.19559E-02
    9120.819    127.665   5.920  1.02458E+00  9.98245E-01  2.63381E-02
    9122.630    129.475   5.960  1.02702E+00  9.97942E-01  2.90790E-02
    9124.452    131.298   6.000  1.02709E+00  9.97579E-01  2.95113E-02
