# # comment:                                                     FEFF 9.9.1  
# # Source:
# # Structure
# # Reduced
# # space
# # abc:
# # angles:111.188249
# # sites:
# # POT  SCF 100  7.0000   0, screened core-hole, AFOLP (folp(0)= 1.150)
# # Abs   Z=29 Rmt= 1.281 Rnm= 1.346 K  shell
# # Pot 1 Z= 3 Rmt= 1.347 Rnm= 1.401
# # Pot 2 Z=29 Rmt= 1.286 Rnm= 1.351
# # Pot 3 Z= 6 Rmt= 0.710 Rnm= 0.924
# # Pot 4 Z= 8 Rmt= 0.835 Rnm= 1.011
# # Gam_ch=1.729E+00 H-L exch Vi= 0.000E+00 Vr= 0.000E+00
# # Mu=-7.614E+00eV kf=2.640E+00 Vint=-1.825E+01eV Rs_int= 1.374
# FMS rfms= 9.0000
# # PATH  Rmax=-1.000,  Keep_limit= 0.00, Heap_limit 0.00  Pwcrit= 2.50%
#  S02=0.950  Temp=   0.00  Debye_temp=   0.00  Global_sig2= 0.00000
#  Energy zero shift, vr, vi    0.00000E+00   0.00000E+00
#  Curved wave amplitude ratio filter   4.000%
#     file         sig2 tot  cw amp ratio   deg  nlegs   reff  inp sig2
#     0/   0 paths used
#  xsedge+ 50, used to normalize mu           2.5143E-04
#  -----------------------------------------------------------------------
#  omega    e    k    mu    mu0     chi     @#
    8983.306    -11.424  -1.000  3.63122E-02  4.76493E-02 -1.13371E-02
    8983.605    -11.125  -0.960  3.82115E-02  5.10033E-02 -1.27918E-02
    8983.891    -10.839  -0.920  4.02497E-02  5.47256E-02 -1.44759E-02
    8984.165    -10.564  -0.880  4.24399E-02  5.88703E-02 -1.64304E-02
    8984.428    -10.302  -0.840  4.47964E-02  6.35007E-02 -1.87043E-02
    8984.678    -10.052  -0.800  4.73347E-02  6.86899E-02 -2.13551E-02
    8984.915     -9.815  -0.760  5.00715E-02  7.45219E-02 -2.44503E-02
    8985.141     -9.589  -0.720  5.30243E-02  8.10917E-02 -2.80674E-02
    8985.354     -9.376  -0.680  5.62108E-02  8.85040E-02 -3.22932E-02
    8985.555     -9.175  -0.640  5.96479E-02  9.68693E-02 -3.72214E-02
    8985.744     -8.986  -0.600  6.33498E-02  1.06296E-01 -4.29465E-02
    8985.921     -8.809  -0.560  6.73249E-02  1.16878E-01 -4.95526E-02
    8986.086     -8.644  -0.520  7.15718E-02  1.28668E-01 -5.70963E-02
    8986.238     -8.492  -0.480  7.60736E-02  1.41656E-01 -6.55822E-02
    8986.378     -8.352  -0.440  8.07915E-02  1.55726E-01 -7.49350E-02
    8986.506     -8.224  -0.400  8.56596E-02  1.70635E-01 -8.49752E-02
    8986.622     -8.108  -0.360  9.05832E-02  1.85996E-01 -9.54124E-02
    8986.726     -8.004  -0.320  9.54429E-02  2.01309E-01 -1.05866E-01
    8986.817     -7.913  -0.280  1.00105E-01  2.16019E-01 -1.15914E-01
    8986.896     -7.833  -0.240  1.04434E-01  2.29592E-01 -1.25158E-01
    8986.964     -7.766  -0.200  1.08308E-01  2.41584E-01 -1.33276E-01
    8987.018     -7.711  -0.160  1.11621E-01  2.51667E-01 -1.40046E-01
    8987.061     -7.669  -0.120  1.14289E-01  2.59635E-01 -1.45346E-01
    8987.092     -7.638  -0.080  1.16249E-01  2.65374E-01 -1.49125E-01
    8987.116     -7.614   0.000  1.17871E-01  2.69983E-01 -1.52112E-01
    8987.171     -7.559   0.120  1.21581E-01  2.80390E-01 -1.58809E-01
    8987.213     -7.516   0.160  1.24450E-01  2.88455E-01 -1.64005E-01
    8987.268     -7.462   0.200  1.28216E-01  2.98753E-01 -1.70537E-01
    8987.335     -7.394   0.240  1.32930E-01  3.11138E-01 -1.78208E-01
    8987.415     -7.315   0.280  1.38643E-01  3.25355E-01 -1.86712E-01
    8987.506     -7.224   0.320  1.45411E-01  3.41015E-01 -1.95604E-01
    8987.610     -7.120   0.360  1.53360E-01  3.57678E-01 -2.04318E-01
    8987.726     -7.004   0.400  1.62595E-01  3.74838E-01 -2.12244E-01
    8987.854     -6.876   0.440  1.73299E-01  3.92073E-01 -2.18775E-01
    8987.994     -6.736   0.480  1.85654E-01  4.09002E-01 -2.23349E-01
    8988.146     -6.584   0.520  1.99991E-01  4.25429E-01 -2.25438E-01
    8988.311     -6.419   0.560  2.16706E-01  4.41256E-01 -2.24550E-01
    8988.488     -6.242   0.600  2.36307E-01  4.56478E-01 -2.20170E-01
    8988.676     -6.053   0.640  2.59246E-01  4.71110E-01 -2.11864E-01
    8988.878     -5.852   0.680  2.85808E-01  4.85280E-01 -1.99472E-01
    8989.091     -5.639   0.720  3.15418E-01  4.99023E-01 -1.83605E-01
    8989.317     -5.413   0.760  3.46552E-01  5.12478E-01 -1.65926E-01
    8989.554     -5.176   0.800  3.77023E-01  5.25716E-01 -1.48693E-01
    8989.804     -4.926   0.840  4.05112E-01  5.38796E-01 -1.33684E-01
    8990.066     -4.663   0.880  4.29742E-01  5.51785E-01 -1.22043E-01
    8990.341     -4.389   0.920  4.50178E-01  5.64742E-01 -1.14564E-01
    8990.627     -4.103   0.960  4.66499E-01  5.77672E-01 -1.11173E-01
    8990.926     -3.804   1.000  4.79625E-01  5.90633E-01 -1.11008E-01
    8991.237     -3.493   1.040  4.90671E-01  6.03632E-01 -1.12961E-01
    8991.560     -3.170   1.080  5.01693E-01  6.16672E-01 -1.14979E-01
    8991.895     -2.835   1.120  5.16201E-01  6.29771E-01 -1.13570E-01
    8992.243     -2.487   1.160  5.33648E-01  6.42919E-01 -1.09271E-01
    8992.602     -2.128   1.200  5.44559E-01  6.56104E-01 -1.11545E-01
    8992.974     -1.756   1.240  5.42860E-01  6.69311E-01 -1.26451E-01
    8993.358     -1.372   1.280  5.37780E-01  6.82558E-01 -1.44779E-01
    8993.754     -0.975   1.320  5.41428E-01  6.95805E-01 -1.54377E-01
    8994.163     -0.567   1.360  5.55193E-01  7.09049E-01 -1.53855E-01
    8994.583     -0.146   1.400  5.70935E-01  7.22243E-01 -1.51308E-01
    8995.016      0.286   1.440  5.82687E-01  7.35381E-01 -1.52694E-01
    8995.461      0.731   1.480  5.94292E-01  7.48454E-01 -1.54162E-01
    8995.919      1.189   1.520  6.14869E-01  7.61413E-01 -1.46543E-01
    8996.388      1.658   1.560  6.49878E-01  7.74228E-01 -1.24350E-01
    8996.869      2.140   1.600  6.97133E-01  7.86910E-01 -8.97766E-02
    8997.363      2.633   1.640  7.51040E-01  7.99407E-01 -4.83672E-02
    8997.869      3.139   1.680  8.08140E-01  8.11710E-01 -3.56944E-03
    8998.387      3.658   1.720  8.66340E-01  8.23765E-01  4.25747E-02
    8998.918      4.188   1.760  9.23930E-01  8.35584E-01  8.83456E-02
    8999.460      4.730   1.800  9.80348E-01  8.47115E-01  1.33232E-01
    9000.015      5.285   1.840  1.03721E+00  8.58348E-01  1.78861E-01
    9000.582      5.852   1.880  1.09284E+00  8.69254E-01  2.23587E-01
    9001.161      6.431   1.920  1.14160E+00  8.79823E-01  2.61772E-01
    9001.752      7.022   1.960  1.17710E+00  8.90049E-01  2.87049E-01
    9002.356      7.626   2.000  1.19253E+00  8.99903E-01  2.92630E-01
    9002.972      8.242   2.040  1.19179E+00  9.09336E-01  2.82451E-01
    9003.599      8.870   2.080  1.19220E+00  9.18403E-01  2.73793E-01
    9004.240      9.510   2.120  1.20306E+00  9.27020E-01  2.76037E-01
    9004.892     10.162   2.160  1.22370E+00  9.35241E-01  2.88457E-01
    9005.556     10.826   2.200  1.25168E+00  9.43023E-01  3.08656E-01
    9006.233     11.503   2.240  1.27874E+00  9.50364E-01  3.28377E-01
    9006.922     12.192   2.280  1.29346E+00  9.57261E-01  3.36202E-01
    9007.623     12.893   2.320  1.28917E+00  9.63714E-01  3.25458E-01
    9008.336     13.606   2.360  1.26306E+00  9.69723E-01  2.93333E-01
    9009.061     14.332   2.400  1.21949E+00  9.75289E-01  2.44199E-01
    9009.799     15.069   2.440  1.17137E+00  9.80416E-01  1.90950E-01
    9010.549     15.819   2.480  1.12743E+00  9.85125E-01  1.42302E-01
    9011.311     16.581   2.520  1.08643E+00  9.89399E-01  9.70291E-02
    9012.085     17.355   2.560  1.04536E+00  9.93243E-01  5.21156E-02
    9012.871     18.142   2.600  1.00446E+00  9.96703E-01  7.75433E-03
    9013.670     18.940   2.640  9.66728E-01  9.99744E-01 -3.30160E-02
    9014.481     19.751   2.680  9.37274E-01  1.00241E+00 -6.51374E-02
    9015.304     20.574   2.720  9.20418E-01  1.00471E+00 -8.42952E-02
    9016.139     21.409   2.760  9.16256E-01  1.00666E+00 -9.04033E-02
    9016.986     22.256   2.800  9.20524E-01  1.00827E+00 -8.77506E-02
    9017.846     23.116   2.840  9.26569E-01  1.00956E+00 -8.29960E-02
    9018.717     23.988   2.880  9.28036E-01  1.01054E+00 -8.25036E-02
    9019.601     24.872   2.920  9.19902E-01  1.01121E+00 -9.13050E-02
    9020.497     25.768   2.960  8.99921E-01  1.01162E+00 -1.11695E-01
    9021.406     26.676   3.000  8.74369E-01  1.01176E+00 -1.37387E-01
    9022.326     27.596   3.040  8.58343E-01  1.01167E+00 -1.53330E-01
    9023.259     28.529   3.080  8.52444E-01  1.01136E+00 -1.58915E-01
    9024.204     29.474   3.120  8.52010E-01  1.01082E+00 -1.58812E-01
    9025.161     30.431   3.160  8.55167E-01  1.01013E+00 -1.54963E-01
    9026.130     31.400   3.200  8.61191E-01  1.00923E+00 -1.48041E-01
    9027.112     32.382   3.240  8.69890E-01  1.00821E+00 -1.38324E-01
    9028.105     33.375   3.280  8.81015E-01  1.00703E+00 -1.26010E-01
    9029.111     34.381   3.320  8.93990E-01  1.00573E+00 -1.11745E-01
    9030.129     35.399   3.360  9.07778E-01  1.00433E+00 -9.65511E-02
    9031.159     36.429   3.400  9.21517E-01  1.00282E+00 -8.12986E-02
    9032.202     37.472   3.440  9.34656E-01  1.00124E+00 -6.65864E-02
    9033.256     38.526   3.480  9.46666E-01  9.99597E-01 -5.29302E-02
    9034.323     39.593   3.520  9.57507E-01  9.97905E-01 -4.03983E-02
    9035.402     40.672   3.560  9.67158E-01  9.96173E-01 -2.90155E-02
    9036.493     41.763   3.600  9.75676E-01  9.94428E-01 -1.87528E-02
    9037.597     42.867   3.640  9.83360E-01  9.92655E-01 -9.29514E-03
    9038.712     43.982   3.680  9.90666E-01  9.90877E-01 -2.11269E-04
    9039.840     45.110   3.720  9.97908E-01  9.89101E-01  8.80712E-03
    9040.980     46.250   3.760  1.00521E+00  9.87353E-01  1.78531E-02
    9042.132     47.402   3.800  1.01241E+00  9.85617E-01  2.67920E-02
    9043.296     48.567   3.840  1.01915E+00  9.83936E-01  3.52117E-02
    9044.473     49.743   3.880  1.02491E+00  9.82274E-01  4.26402E-02
    9045.662     50.932   3.920  1.02936E+00  9.80652E-01  4.87068E-02
    9046.863     52.133   3.960  1.03233E+00  9.79098E-01  5.32270E-02
    9048.076     53.346   4.000  1.03381E+00  9.77615E-01  5.61960E-02
    9049.301     54.571   4.040  1.03401E+00  9.76183E-01  5.78272E-02
    9050.538     55.809   4.080  1.03317E+00  9.74822E-01  5.83465E-02
    9051.788     57.058   4.120  1.03140E+00  9.73517E-01  5.78824E-02
    9053.050     58.320   4.160  1.02885E+00  9.72310E-01  5.65399E-02
    9054.324     59.594   4.200  1.02564E+00  9.71184E-01  5.44517E-02
    9055.610     60.880   4.240  1.02188E+00  9.70138E-01  5.17427E-02
    9056.909     62.179   4.280  1.01774E+00  9.69173E-01  4.85706E-02
    9058.219     63.490   4.320  1.01349E+00  9.68289E-01  4.52057E-02
    9059.542     64.812   4.360  1.00940E+00  9.67488E-01  4.19161E-02
    9060.877     66.147   4.400  1.00570E+00  9.66792E-01  3.89042E-02
    9062.224     67.495   4.440  1.00244E+00  9.66179E-01  3.62573E-02
    9063.584     68.854   4.480  9.99546E-01  9.65651E-01  3.38956E-02
    9064.955     70.226   4.520  9.96834E-01  9.65228E-01  3.16066E-02
    9066.339     71.609   4.560  9.94004E-01  9.64887E-01  2.91178E-02
    9067.735     73.005   4.600  9.90761E-01  9.64605E-01  2.61568E-02
    9069.143     74.413   4.640  9.86967E-01  9.64426E-01  2.25409E-02
    9070.564     75.834   4.680  9.82606E-01  9.64351E-01  1.82553E-02
    9071.996     77.266   4.720  9.77764E-01  9.64334E-01  1.34297E-02
    9073.441     78.711   4.760  9.72639E-01  9.64393E-01  8.24577E-03
    9074.898     80.168   4.800  9.67436E-01  9.64529E-01  2.90681E-03
    9076.367     81.637   4.840  9.62352E-01  9.64739E-01 -2.38695E-03
    9077.848     83.119   4.880  9.57588E-01  9.65000E-01 -7.41264E-03
    9079.342     84.612   4.920  9.53417E-01  9.65334E-01 -1.19178E-02
    9080.848     86.118   4.960  9.50047E-01  9.65739E-01 -1.56925E-02
    9082.366     87.636   5.000  9.47585E-01  9.66189E-01 -1.86047E-02
    9083.896     89.166   5.040  9.46057E-01  9.66683E-01 -2.06259E-02
    9085.438     90.708   5.080  9.45412E-01  9.67219E-01 -2.18071E-02
    9086.992     92.263   5.120  9.45560E-01  9.67817E-01 -2.22565E-02
    9088.559     93.829   5.160  9.46236E-01  9.68430E-01 -2.21947E-02
    9090.138     95.408   5.200  9.47162E-01  9.69079E-01 -2.19170E-02
    9091.729     96.999   5.240  9.48030E-01  9.69761E-01 -2.17309E-02
    9093.332     98.602   5.280  9.48639E-01  9.70452E-01 -2.18135E-02
    9094.948    100.218   5.320  9.49026E-01  9.71172E-01 -2.21459E-02
    9096.575    101.845   5.360  9.49338E-01  9.71898E-01 -2.25596E-02
    9098.215    103.485   5.400  9.49735E-01  9.72624E-01 -2.28890E-02
    9099.867    105.137   5.440  9.50257E-01  9.73349E-01 -2.30916E-02
    9101.531    106.801   5.480  9.50823E-01  9.74072E-01 -2.32485E-02
    9103.208    108.478   5.520  9.51325E-01  9.74789E-01 -2.34640E-02
    9104.896    110.166   5.560  9.51678E-01  9.75478E-01 -2.37991E-02
    9106.597    111.867   5.600  9.51894E-01  9.76155E-01 -2.42611E-02
    9108.310    113.580   5.640  9.51976E-01  9.76798E-01 -2.48224E-02
    9110.035    115.305   5.680  9.52015E-01  9.77404E-01 -2.53885E-02
    9111.773    117.043   5.720  9.52159E-01  9.77973E-01 -2.58131E-02
    9113.522    118.792   5.760  9.52612E-01  9.78524E-01 -2.59115E-02
    9115.284    120.554   5.800  9.53495E-01  9.79011E-01 -2.55162E-02
    9117.058    122.328   5.840  9.54964E-01  9.79454E-01 -2.44901E-02
    9118.844    124.114   5.880  9.57117E-01  9.79852E-01 -2.27350E-02
    9120.642    125.912   5.920  9.59997E-01  9.80201E-01 -2.02041E-02
    9122.453    127.723   5.960  9.63566E-01  9.80467E-01 -1.69008E-02
    9124.275    129.545   6.000  9.67922E-01  9.80656E-01 -1.27340E-02
