# # comment:                                                     FEFF 9.9.1  
# # Source:
# # Structure
# # Reduced
# # space
# # abc:
# # angles:
# # sites:
# # POT  SCF 100  7.0000   0, screened core-hole, AFOLP (folp(0)= 1.150)
# # Abs   Z=29 Rmt= 1.221 Rnm= 1.279 K  shell
# # Pot 1 Z= 3 Rmt= 1.269 Rnm= 1.313
# # Pot 2 Z=27 Rmt= 1.281 Rnm= 1.368
# # Pot 3 Z=29 Rmt= 1.221 Rnm= 1.279
# # Pot 4 Z= 8 Rmt= 1.053 Rnm= 1.105
# # Gam_ch=1.729E+00 H-L exch Vi= 0.000E+00 Vr= 0.000E+00
# # Mu=-1.054E+01eV kf=2.099E+00 Vint=-1.807E+01eV Rs_int= 1.727
# FMS rfms= 9.0000
# # PATH  Rmax=-1.000,  Keep_limit= 0.00, Heap_limit 0.00  Pwcrit= 2.50%
#  S02=0.950  Temp=   0.00  Debye_temp=   0.00  Global_sig2= 0.00000
#  Energy zero shift, vr, vi    0.00000E+00   0.00000E+00
#  Curved wave amplitude ratio filter   4.000%
#     file         sig2 tot  cw amp ratio   deg  nlegs   reff  inp sig2
#     0/   0 paths used
#  xsedge+ 50, used to normalize mu           2.4643E-04
#  -----------------------------------------------------------------------
#  omega    e    k    mu    mu0     chi     @#
    8984.977    -14.345  -1.000  2.74039E-02  4.94777E-02 -2.20738E-02
    8985.275    -14.047  -0.960  2.83926E-02  5.29360E-02 -2.45434E-02
    8985.562    -13.760  -0.920  2.94233E-02  5.67670E-02 -2.73437E-02
    8985.836    -13.486  -0.880  3.04994E-02  6.10245E-02 -3.05252E-02
    8986.098    -13.224  -0.840  3.16246E-02  6.57710E-02 -3.41464E-02
    8986.348    -12.974  -0.800  3.28038E-02  7.10788E-02 -3.82750E-02
    8986.586    -12.736  -0.760  3.40423E-02  7.70307E-02 -4.29885E-02
    8986.812    -12.511  -0.720  3.53462E-02  8.37201E-02 -4.83739E-02
    8987.025    -12.297  -0.680  3.67225E-02  9.12496E-02 -5.45270E-02
    8987.226    -12.096  -0.640  3.81785E-02  9.97273E-02 -6.15488E-02
    8987.415    -11.907  -0.600  3.97208E-02  1.09259E-01 -6.95382E-02
    8987.592    -11.730  -0.560  4.13550E-02  1.19935E-01 -7.85797E-02
    8987.756    -11.566  -0.520  4.30828E-02  1.31807E-01 -8.87242E-02
    8987.909    -11.413  -0.480  4.48998E-02  1.44862E-01 -9.99621E-02
    8988.049    -11.273  -0.440  4.67926E-02  1.58986E-01 -1.12193E-01
    8988.177    -11.145  -0.400  4.87361E-02  1.73935E-01 -1.25199E-01
    8988.293    -11.029  -0.360  5.06924E-02  1.89330E-01 -1.38637E-01
    8988.397    -10.926  -0.320  5.26129E-02  2.04675E-01 -1.52062E-01
    8988.488    -10.834  -0.280  5.44436E-02  2.19422E-01 -1.64979E-01
    8988.567    -10.755  -0.240  5.61314E-02  2.33040E-01 -1.76909E-01
    8988.634    -10.688  -0.200  5.76302E-02  2.45083E-01 -1.87453E-01
    8988.689    -10.633  -0.160  5.89040E-02  2.55223E-01 -1.96319E-01
    8988.732    -10.590  -0.120  5.99275E-02  2.63245E-01 -2.03317E-01
    8988.762    -10.560  -0.080  6.06841E-02  2.69029E-01 -2.08345E-01
    8988.787    -10.535   0.000  6.13331E-02  2.73680E-01 -2.12347E-01
    8988.842    -10.481   0.120  6.27824E-02  2.84173E-01 -2.21390E-01
    8988.884    -10.438   0.160  6.38352E-02  2.92336E-01 -2.28501E-01
    8988.939    -10.383   0.200  6.51651E-02  3.02787E-01 -2.37622E-01
    8989.006    -10.316   0.240  6.67554E-02  3.15397E-01 -2.48642E-01
    8989.085    -10.237   0.280  6.85300E-02  3.29899E-01 -2.61369E-01
    8989.177    -10.145   0.320  7.04724E-02  3.45995E-01 -2.75522E-01
    8989.280    -10.042   0.360  7.24758E-02  3.63238E-01 -2.90762E-01
    8989.396     -9.926   0.400  7.44836E-02  3.81177E-01 -3.06693E-01
    8989.524     -9.798   0.440  7.63543E-02  3.99377E-01 -3.23023E-01
    8989.665     -9.658   0.480  7.80747E-02  4.17515E-01 -3.39440E-01
    8989.817     -9.505   0.520  7.96290E-02  4.35388E-01 -3.55759E-01
    8989.982     -9.341   0.560  8.11348E-02  4.52882E-01 -3.71747E-01
    8990.158     -9.164   0.600  8.27123E-02  4.69967E-01 -3.87255E-01
    8990.347     -8.975   0.640  8.45542E-02  4.86711E-01 -4.02156E-01
    8990.548     -8.774   0.680  8.67742E-02  5.03145E-01 -4.16371E-01
    8990.762     -8.560   0.720  8.94989E-02  5.19356E-01 -4.29857E-01
    8990.987     -8.335   0.760  9.28056E-02  5.35384E-01 -4.42578E-01
    8991.225     -8.097   0.800  9.68444E-02  5.51325E-01 -4.54481E-01
    8991.475     -7.847   0.840  1.01742E-01  5.67203E-01 -4.65461E-01
    8991.737     -7.585   0.880  1.07710E-01  5.83047E-01 -4.75337E-01
    8992.011     -7.311   0.920  1.15071E-01  5.98880E-01 -4.83809E-01
    8992.298     -7.024   0.960  1.24336E-01  6.14730E-01 -4.90395E-01
    8992.597     -6.725   1.000  1.36243E-01  6.30558E-01 -4.94314E-01
    8992.908     -6.415   1.040  1.51921E-01  6.46375E-01 -4.94454E-01
    8993.231     -6.091   1.080  1.73023E-01  6.62171E-01 -4.89148E-01
    8993.566     -5.756   1.120  2.01563E-01  6.77905E-01 -4.76342E-01
    8993.913     -5.409   1.160  2.39698E-01  6.93574E-01 -4.53876E-01
    8994.273     -5.049   1.200  2.87732E-01  7.09111E-01 -4.21379E-01
    8994.645     -4.677   1.240  3.38222E-01  7.24507E-01 -3.86284E-01
    8995.029     -4.293   1.280  3.74279E-01  7.39730E-01 -3.65451E-01
    8995.425     -3.897   1.320  3.88542E-01  7.54727E-01 -3.66186E-01
    8995.834     -3.488   1.360  3.94461E-01  7.69466E-01 -3.75005E-01
    8996.254     -3.068   1.400  4.07840E-01  7.83932E-01 -3.76092E-01
    8996.687     -2.635   1.440  4.33540E-01  7.98070E-01 -3.64530E-01
    8997.132     -2.190   1.480  4.67820E-01  8.11846E-01 -3.44025E-01
    8997.589     -1.733   1.520  5.06542E-01  8.25226E-01 -3.18684E-01
    8998.059     -1.263   1.560  5.53002E-01  8.38201E-01 -2.85198E-01
    8998.540     -0.782   1.600  6.19474E-01  8.50737E-01 -2.31263E-01
    8999.034     -0.288   1.640  7.06334E-01  8.62804E-01 -1.56470E-01
    8999.540      0.218   1.680  7.93068E-01  8.74374E-01 -8.13062E-02
    9000.058      0.736   1.720  8.95533E-01  8.85460E-01  1.00730E-02
    9000.589      1.266   1.760  1.03907E+00  8.96016E-01  1.43049E-01
    9001.131      1.809   1.800  1.22191E+00  9.06058E-01  3.15853E-01
    9001.686      2.364   1.840  1.43054E+00  9.15563E-01  5.14978E-01
    9002.253      2.931   1.880  1.63646E+00  9.24529E-01  7.11929E-01
    9002.832      3.510   1.920  1.78878E+00  9.32958E-01  8.55819E-01
    9003.423      4.101   1.960  1.86462E+00  9.40872E-01  9.23749E-01
    9004.027      4.705   2.000  1.89578E+00  9.48233E-01  9.47543E-01
    9004.642      5.320   2.040  1.90405E+00  9.55086E-01  9.48959E-01
    9005.270      5.948   2.080  1.85166E+00  9.61436E-01  8.90221E-01
    9005.910      6.588   2.120  1.69240E+00  9.67289E-01  7.25112E-01
    9006.563      7.240   2.160  1.47177E+00  9.72653E-01  4.99118E-01
    9007.227      7.905   2.200  1.27522E+00  9.77533E-01  2.97687E-01
    9007.904      8.582   2.240  1.13283E+00  9.81962E-01  1.50864E-01
    9008.593      9.270   2.280  1.03455E+00  9.85967E-01  4.85873E-02
    9009.294      9.971   2.320  9.63558E-01  9.89559E-01 -2.60010E-02
    9010.007     10.685   2.360  9.08577E-01  9.92746E-01 -8.41692E-02
    9010.732     11.410   2.400  8.66945E-01  9.95560E-01 -1.28615E-01
    9011.470     12.148   2.440  8.38872E-01  9.98010E-01 -1.59139E-01
    9012.220     12.898   2.480  8.24266E-01  1.00013E+00 -1.75864E-01
    9012.982     13.659   2.520  8.35996E-01  1.00195E+00 -1.65950E-01
    9013.756     14.434   2.560  8.69167E-01  1.00345E+00 -1.34283E-01
    9014.542     15.220   2.600  9.12760E-01  1.00467E+00 -9.19126E-02
    9015.341     16.019   2.640  9.58544E-01  1.00567E+00 -4.71210E-02
    9016.152     16.829   2.680  9.98794E-01  1.00640E+00 -7.60411E-03
    9016.974     17.652   2.720  1.02687E+00  1.00694E+00  1.99264E-02
    9017.810     18.488   2.760  1.04012E+00  1.00726E+00  3.28646E-02
    9018.657     19.335   2.800  1.03884E+00  1.00742E+00  3.14184E-02
    9019.517     20.194   2.840  1.02405E+00  1.00741E+00  1.66457E-02
    9020.388     21.066   2.880  9.97394E-01  1.00726E+00 -9.86381E-03
    9021.272     21.950   2.920  9.61359E-01  1.00698E+00 -4.56228E-02
    9022.168     22.846   2.960  9.21338E-01  1.00659E+00 -8.52474E-02
    9023.077     23.754   3.000  8.83039E-01  1.00610E+00 -1.23058E-01
    9023.997     24.675   3.040  8.50120E-01  1.00550E+00 -1.55384E-01
    9024.930     25.608   3.080  8.24788E-01  1.00485E+00 -1.80066E-01
    9025.875     26.552   3.120  8.07712E-01  1.00415E+00 -1.96442E-01
    9026.832     27.510   3.160  7.98587E-01  1.00339E+00 -2.04802E-01
    9027.801     28.479   3.200  7.97072E-01  1.00260E+00 -2.05532E-01
    9028.782     29.460   3.240  8.02712E-01  1.00178E+00 -1.99071E-01
    9029.776     30.454   3.280  8.14662E-01  1.00093E+00 -1.86268E-01
    9030.782     31.460   3.320  8.31853E-01  1.00009E+00 -1.68242E-01
    9031.800     32.478   3.360  8.51919E-01  9.99236E-01 -1.47318E-01
    9032.830     33.508   3.400  8.71023E-01  9.98401E-01 -1.27377E-01
    9033.873     34.550   3.440  8.85750E-01  9.97571E-01 -1.11821E-01
    9034.927     35.605   3.480  8.95129E-01  9.96749E-01 -1.01620E-01
    9035.994     36.672   3.520  9.00516E-01  9.95957E-01 -9.54410E-02
    9037.073     37.751   3.560  9.04250E-01  9.95202E-01 -9.09523E-02
    9038.164     38.842   3.600  9.08824E-01  9.94485E-01 -8.56602E-02
    9039.267     39.945   3.640  9.16278E-01  9.93805E-01 -7.75274E-02
    9040.383     41.061   3.680  9.27973E-01  9.93165E-01 -6.51926E-02
    9041.511     42.189   3.720  9.44612E-01  9.92545E-01 -4.79331E-02
    9042.651     43.329   3.760  9.66353E-01  9.92010E-01 -2.56573E-02
    9043.803     44.481   3.800  9.92267E-01  9.91499E-01  7.67598E-04
    9044.967     45.645   3.840  1.02072E+00  9.91054E-01  2.96690E-02
    9046.144     46.822   3.880  1.04987E+00  9.90654E-01  5.92169E-02
    9047.332     48.010   3.920  1.07854E+00  9.90298E-01  8.82373E-02
    9048.533     49.211   3.960  1.10640E+00  9.90010E-01  1.16392E-01
    9049.746     50.424   4.000  1.13311E+00  9.89769E-01  1.43343E-01
    9050.972     51.650   4.040  1.15723E+00  9.89573E-01  1.67653E-01
    9052.209     52.887   4.080  1.17613E+00  9.89444E-01  1.86687E-01
    9053.459     54.137   4.120  1.18720E+00  9.89361E-01  1.97840E-01
    9054.721     55.399   4.160  1.18904E+00  9.89323E-01  1.99713E-01
    9055.995     56.673   4.200  1.18122E+00  9.89350E-01  1.91870E-01
    9057.281     57.959   4.240  1.16428E+00  9.89419E-01  1.74863E-01
    9058.580     59.257   4.280  1.14034E+00  9.89510E-01  1.50834E-01
    9059.890     60.568   4.320  1.11311E+00  9.89665E-01  1.23441E-01
    9061.213     61.891   4.360  1.08654E+00  9.89884E-01  9.66542E-02
    9062.548     63.226   4.400  1.06352E+00  9.90120E-01  7.34011E-02
    9063.895     64.573   4.440  1.04522E+00  9.90393E-01  5.48241E-02
    9065.255     65.932   4.480  1.03107E+00  9.90703E-01  4.03681E-02
    9066.626     67.304   4.520  1.01944E+00  9.91028E-01  2.84121E-02
    9068.010     68.688   4.560  1.00848E+00  9.91408E-01  1.70692E-02
    9069.406     70.084   4.600  9.96789E-01  9.91801E-01  4.98818E-03
    9070.814     71.492   4.640  9.83924E-01  9.92225E-01 -8.30089E-03
    9072.234     72.912   4.680  9.70158E-01  9.92656E-01 -2.24983E-02
    9073.667     74.345   4.720  9.56241E-01  9.93094E-01 -3.68527E-02
    9075.112     75.790   4.760  9.43237E-01  9.93559E-01 -5.03222E-02
    9076.569     77.247   4.800  9.32281E-01  9.94030E-01 -6.17490E-02
    9078.038     78.716   4.840  9.24372E-01  9.94526E-01 -7.01540E-02
    9079.519     80.197   4.880  9.20071E-01  9.95001E-01 -7.49296E-02
    9081.013     81.691   4.920  9.19460E-01  9.95496E-01 -7.60361E-02
    9082.518     83.196   4.960  9.22003E-01  9.95968E-01 -7.39645E-02
    9084.036     84.714   5.000  9.27067E-01  9.96437E-01 -6.93705E-02
    9085.566     86.244   5.040  9.34218E-01  9.96923E-01 -6.27057E-02
    9087.109     87.787   5.080  9.42972E-01  9.97360E-01 -5.43881E-02
    9088.663     89.341   5.120  9.52517E-01  9.97811E-01 -4.52934E-02
    9090.230     90.908   5.160  9.61560E-01  9.98229E-01 -3.66691E-02
    9091.809     92.487   5.200  9.69280E-01  9.98616E-01 -2.93361E-02
    9093.400     94.078   5.240  9.75626E-01  9.98992E-01 -2.33661E-02
    9095.003     95.681   5.280  9.80746E-01  9.99334E-01 -1.85877E-02
    9096.618     97.296   5.320  9.84318E-01  9.99664E-01 -1.53460E-02
    9098.246     98.924   5.360  9.85706E-01  9.99959E-01 -1.42527E-02
    9099.886    100.564   5.400  9.84829E-01  1.00021E+00 -1.53864E-02
    9101.538    102.216   5.440  9.82711E-01  1.00043E+00 -1.77235E-02
    9103.202    103.880   5.480  9.81141E-01  1.00064E+00 -1.94964E-02
    9104.878    105.556   5.520  9.81791E-01  1.00078E+00 -1.89891E-02
    9106.567    107.245   5.560  9.85477E-01  1.00091E+00 -1.54296E-02
    9108.268    108.946   5.600  9.91526E-01  1.00099E+00 -9.46816E-03
    9109.981    110.659   5.640  9.98026E-01  1.00104E+00 -3.01582E-03
    9111.706    112.384   5.680  1.00235E+00  1.00105E+00  1.30514E-03
    9113.443    114.121   5.720  1.00169E+00  1.00099E+00  6.99463E-04
    9115.193    115.871   5.760  9.94184E-01  1.00092E+00 -6.73188E-03
    9116.955    117.632   5.800  9.80081E-01  1.00080E+00 -2.07222E-02
    9118.728    119.406   5.840  9.61945E-01  1.00065E+00 -3.87071E-02
    9120.515    121.192   5.880  9.43484E-01  1.00046E+00 -5.69794E-02
    9122.313    122.991   5.920  9.28510E-01  1.00024E+00 -7.17282E-02
    9124.123    124.801   5.960  9.20473E-01  9.99973E-01 -7.94991E-02
    9125.946    126.624   6.000  9.22797E-01  9.99644E-01 -7.68470E-02
