# # comment:                                                     FEFF 9.9.1  
# # Source:
# # Structure
# # Reduced
# # space
# # abc:
# # angles:
# # sites:
# # POT  SCF 100  7.0000   0, screened core-hole, AFOLP (folp(0)= 1.150)
# # Abs   Z=29 Rmt= 1.341 Rnm= 1.399 K  shell
# # Pot 1 Z= 3 Rmt= 1.241 Rnm= 1.301
# # Pot 2 Z=29 Rmt= 1.333 Rnm= 1.392
# # Pot 3 Z=15 Rmt= 0.944 Rnm= 1.155
# # Pot 4 Z= 8 Rmt= 0.939 Rnm= 1.043
# # Gam_ch=1.729E+00 H-L exch Vi= 0.000E+00 Vr= 0.000E+00
# # Mu=-6.604E+00eV kf=2.372E+00 Vint=-1.764E+01eV Rs_int= 1.529
# FMS rfms= 9.0000
# # PATH  Rmax=-1.000,  Keep_limit= 0.00, Heap_limit 0.00  Pwcrit= 2.50%
#  S02=0.950  Temp=   0.00  Debye_temp=   0.00  Global_sig2= 0.00000
#  Energy zero shift, vr, vi    0.00000E+00   0.00000E+00
#  Curved wave amplitude ratio filter   4.000%
#     file         sig2 tot  cw amp ratio   deg  nlegs   reff  inp sig2
#     0/   0 paths used
#  xsedge+ 50, used to normalize mu           2.4678E-04
#  -----------------------------------------------------------------------
#  omega    e    k    mu    mu0     chi     @#
    8983.842    -10.414  -1.000  5.02359E-02  5.48973E-02 -4.66142E-03
    8984.141    -10.115  -0.960  5.35324E-02  5.89226E-02 -5.39026E-03
    8984.427     -9.829  -0.920  5.71587E-02  6.34006E-02 -6.24184E-03
    8984.702     -9.555  -0.880  6.11602E-02  6.83984E-02 -7.23814E-03
    8984.964     -9.292  -0.840  6.55892E-02  7.39944E-02 -8.40523E-03
    8985.214     -9.043  -0.800  7.05058E-02  8.02796E-02 -9.77381E-03
    8985.451     -8.805  -0.760  7.59786E-02  8.73584E-02 -1.13798E-02
    8985.677     -8.579  -0.720  8.20844E-02  9.53490E-02 -1.32646E-02
    8985.890     -8.366  -0.680  8.89070E-02  1.04382E-01 -1.54745E-02
    8986.091     -8.165  -0.640  9.65339E-02  1.14594E-01 -1.80598E-02
    8986.280     -7.976  -0.600  1.05050E-01  1.26121E-01 -2.10706E-02
    8986.457     -7.799  -0.560  1.14528E-01  1.39079E-01 -2.45514E-02
    8986.622     -7.634  -0.520  1.25007E-01  1.53537E-01 -2.85306E-02
    8986.774     -7.482  -0.480  1.36475E-01  1.69482E-01 -3.30068E-02
    8986.914     -7.342  -0.440  1.48839E-01  1.86771E-01 -3.79326E-02
    8987.042     -7.214  -0.400  1.61902E-01  2.05104E-01 -4.32019E-02
    8987.158     -7.098  -0.360  1.75355E-01  2.24002E-01 -4.86469E-02
    8987.262     -6.994  -0.320  1.88793E-01  2.42847E-01 -5.40537E-02
    8987.353     -6.903  -0.280  2.01758E-01  2.60951E-01 -5.91931E-02
    8987.433     -6.824  -0.240  2.13797E-01  2.77656E-01 -6.38587E-02
    8987.500     -6.757  -0.200  2.24514E-01  2.92411E-01 -6.78965E-02
    8987.554     -6.702  -0.160  2.33599E-01  3.04815E-01 -7.12158E-02
    8987.597     -6.659  -0.120  2.40832E-01  3.14614E-01 -7.37818E-02
    8987.628     -6.629  -0.080  2.46073E-01  3.21669E-01 -7.55961E-02
    8987.652     -6.604   0.000  2.50303E-01  3.27335E-01 -7.70313E-02
    8987.707     -6.549   0.120  2.59949E-01  3.40112E-01 -8.01638E-02
    8987.750     -6.507   0.160  2.67481E-01  3.50022E-01 -8.25413E-02
    8987.804     -6.452   0.200  2.77202E-01  3.62658E-01 -8.54562E-02
    8987.871     -6.385   0.240  2.89077E-01  3.77857E-01 -8.87799E-02
    8987.951     -6.305   0.280  3.02963E-01  3.95256E-01 -9.22936E-02
    8988.042     -6.214   0.320  3.18691E-01  4.14409E-01 -9.57177E-02
    8988.146     -6.110   0.360  3.35986E-01  4.34719E-01 -9.87323E-02
    8988.262     -5.995   0.400  3.54601E-01  4.55595E-01 -1.00994E-01
    8988.390     -5.867   0.440  3.74258E-01  4.76461E-01 -1.02203E-01
    8988.530     -5.726   0.480  3.94679E-01  4.96866E-01 -1.02187E-01
    8988.682     -5.574   0.520  4.15499E-01  5.16559E-01 -1.01060E-01
    8988.847     -5.409   0.560  4.35989E-01  5.35375E-01 -9.93866E-02
    8989.024     -5.233   0.600  4.54976E-01  5.53326E-01 -9.83496E-02
    8989.213     -5.044   0.640  4.70824E-01  5.70454E-01 -9.96299E-02
    8989.414     -4.842   0.680  4.81825E-01  5.86865E-01 -1.05040E-01
    8989.627     -4.629   0.720  4.86690E-01  6.02640E-01 -1.15950E-01
    8989.853     -4.404   0.760  4.85615E-01  6.17917E-01 -1.32303E-01
    8990.090     -4.166   0.800  4.81275E-01  6.32785E-01 -1.51510E-01
    8990.340     -3.916   0.840  4.78816E-01  6.47322E-01 -1.68506E-01
    8990.602     -3.654   0.880  4.84101E-01  6.61590E-01 -1.77489E-01
    8990.877     -3.379   0.920  5.01544E-01  6.75655E-01 -1.74111E-01
    8991.163     -3.093   0.960  5.31852E-01  6.89551E-01 -1.57699E-01
    8991.462     -2.794   1.000  5.70570E-01  7.03304E-01 -1.32734E-01
    8991.773     -2.483   1.040  6.09395E-01  7.16927E-01 -1.07532E-01
    8992.096     -2.160   1.080  6.41345E-01  7.30445E-01 -8.91000E-02
    8992.431     -1.825   1.120  6.64739E-01  7.43858E-01 -7.91190E-02
    8992.779     -1.477   1.160  6.83336E-01  7.57136E-01 -7.38000E-02
    8993.138     -1.118   1.200  7.04612E-01  7.70289E-01 -6.56772E-02
    8993.510     -0.746   1.240  7.36898E-01  7.83320E-01 -4.64211E-02
    8993.894     -0.362   1.280  7.83813E-01  7.96169E-01 -1.23563E-02
    8994.291      0.034   1.320  8.40096E-01  8.08855E-01  3.12411E-02
    8994.699      0.443   1.360  8.98330E-01  8.21333E-01  7.69968E-02
    8995.120      0.863   1.400  9.56835E-01  8.33578E-01  1.23257E-01
    8995.552      1.296   1.440  1.01553E+00  8.45603E-01  1.69924E-01
    8995.997      1.741   1.480  1.07339E+00  8.57340E-01  2.16052E-01
    8996.455      2.198   1.520  1.13200E+00  8.68781E-01  2.63220E-01
    8996.924      2.668   1.560  1.18821E+00  8.79919E-01  3.08292E-01
    8997.406      3.149   1.600  1.23640E+00  8.90724E-01  3.45679E-01
    8997.899      3.643   1.640  1.28201E+00  9.01168E-01  3.80846E-01
    8998.405      4.149   1.680  1.32908E+00  9.11225E-01  4.17852E-01
    8998.923      4.667   1.720  1.35866E+00  9.20908E-01  4.37755E-01
    8999.454      5.198   1.760  1.34324E+00  9.30169E-01  4.13070E-01
    8999.996      5.740   1.800  1.28001E+00  9.39025E-01  3.40988E-01
    9000.551      6.295   1.840  1.19313E+00  9.47430E-01  2.45705E-01
    9001.118      6.862   1.880  1.11571E+00  9.55399E-01  1.60311E-01
    9001.697      7.441   1.920  1.06305E+00  9.62911E-01  1.00143E-01
    9002.288      8.032   1.960  1.03759E+00  9.69986E-01  6.76017E-02
    9002.892      8.636   2.000  1.03428E+00  9.76580E-01  5.77015E-02
    9003.508      9.251   2.040  1.04438E+00  9.82735E-01  6.16465E-02
    9004.135      9.879   2.080  1.05847E+00  9.88434E-01  7.00337E-02
    9004.776     10.519   2.120  1.06769E+00  9.93659E-01  7.40315E-02
    9005.428     11.172   2.160  1.06704E+00  9.98472E-01  6.85713E-02
    9006.092     11.836   2.200  1.05548E+00  1.00282E+00  5.26573E-02
    9006.769     12.513   2.240  1.03745E+00  1.00676E+00  3.06836E-02
    9007.458     13.202   2.280  1.02117E+00  1.01027E+00  1.08994E-02
    9008.159     13.903   2.320  1.01160E+00  1.01337E+00 -1.76761E-03
    9008.872     14.616   2.360  1.00597E+00  1.01609E+00 -1.01147E-02
    9009.597     15.341   2.400  9.97543E-01  1.01843E+00 -2.08891E-02
    9010.335     16.079   2.440  9.83029E-01  1.02041E+00 -3.73820E-02
    9011.085     16.829   2.480  9.66275E-01  1.02205E+00 -5.57771E-02
    9011.847     17.591   2.520  9.54266E-01  1.02337E+00 -6.90998E-02
    9012.621     18.365   2.560  9.50052E-01  1.02438E+00 -7.43276E-02
    9013.407     19.151   2.600  9.52403E-01  1.02508E+00 -7.26798E-02
    9014.206     19.950   2.640  9.58630E-01  1.02553E+00 -6.68954E-02
    9015.017     20.761   2.680  9.65834E-01  1.02570E+00 -5.98621E-02
    9015.840     21.584   2.720  9.69592E-01  1.02565E+00 -5.60541E-02
    9016.675     22.419   2.760  9.63781E-01  1.02539E+00 -6.16040E-02
    9017.522     23.266   2.800  9.50199E-01  1.02492E+00 -7.47227E-02
    9018.382     24.126   2.840  9.37814E-01  1.02426E+00 -8.64494E-02
    9019.254     24.997   2.880  9.30323E-01  1.02346E+00 -9.31388E-02
    9020.137     25.881   2.920  9.27806E-01  1.02250E+00 -9.46985E-02
    9021.034     26.777   2.960  9.28129E-01  1.02142E+00 -9.32921E-02
    9021.942     27.686   3.000  9.29669E-01  1.02022E+00 -9.05493E-02
    9022.862     28.606   3.040  9.31651E-01  1.01893E+00 -8.72742E-02
    9023.795     29.539   3.080  9.33865E-01  1.01755E+00 -8.36864E-02
    9024.740     30.484   3.120  9.36498E-01  1.01612E+00 -7.96247E-02
    9025.697     31.441   3.160  9.39728E-01  1.01463E+00 -7.48975E-02
    9026.666     32.410   3.200  9.43453E-01  1.01311E+00 -6.96542E-02
    9027.648     33.392   3.240  9.47560E-01  1.01153E+00 -6.39724E-02
    9028.641     34.385   3.280  9.52000E-01  1.00997E+00 -5.79709E-02
    9029.647     35.391   3.320  9.56646E-01  1.00839E+00 -5.17397E-02
    9030.665     36.409   3.360  9.61609E-01  1.00682E+00 -4.52139E-02
    9031.695     37.439   3.400  9.67059E-01  1.00527E+00 -3.82070E-02
    9032.738     38.482   3.440  9.73119E-01  1.00374E+00 -3.06215E-02
    9033.792     39.536   3.480  9.79788E-01  1.00223E+00 -2.24439E-02
    9034.859     40.603   3.520  9.87048E-01  1.00078E+00 -1.37351E-02
    9035.938     41.682   3.560  9.94855E-01  9.99377E-01 -4.52185E-03
    9037.029     42.773   3.600  1.00330E+00  9.98018E-01  5.28141E-03
    9038.133     43.877   3.640  1.01257E+00  9.96730E-01  1.58364E-02
    9039.248     44.992   3.680  1.02282E+00  9.95515E-01  2.73049E-02
    9040.376     46.120   3.720  1.03406E+00  9.94353E-01  3.97022E-02
    9041.516     47.260   3.760  1.04618E+00  9.93268E-01  5.29161E-02
    9042.668     48.412   3.800  1.05886E+00  9.92261E-01  6.65954E-02
    9043.832     49.576   3.840  1.07137E+00  9.91333E-01  8.00395E-02
    9045.009     50.753   3.880  1.08282E+00  9.90488E-01  9.23363E-02
    9046.198     51.942   3.920  1.09231E+00  9.89747E-01  1.02563E-01
    9047.399     53.142   3.960  1.09895E+00  9.89068E-01  1.09884E-01
    9048.612     54.356   4.000  1.10214E+00  9.88492E-01  1.13646E-01
    9049.837     55.581   4.040  1.10165E+00  9.87999E-01  1.13652E-01
    9051.075     56.818   4.080  1.09762E+00  9.87589E-01  1.10030E-01
    9052.324     58.068   4.120  1.09039E+00  9.87262E-01  1.03125E-01
    9053.586     59.330   4.160  1.08031E+00  9.87015E-01  9.32933E-02
    9054.860     60.604   4.200  1.06775E+00  9.86851E-01  8.08950E-02
    9056.146     61.890   4.240  1.05303E+00  9.86788E-01  6.62398E-02
    9057.445     63.189   4.280  1.03657E+00  9.86784E-01  4.97839E-02
    9058.755     64.499   4.320  1.01902E+00  9.86858E-01  3.21591E-02
    9060.078     65.822   4.360  1.00109E+00  9.87010E-01  1.40786E-02
    9061.413     67.157   4.400  9.83607E-01  9.87238E-01 -3.63064E-03
    9062.760     68.504   4.440  9.67479E-01  9.87540E-01 -2.00608E-02
    9064.120     69.864   4.480  9.53460E-01  9.87892E-01 -3.44319E-02
    9065.491     71.235   4.520  9.42060E-01  9.88291E-01 -4.62310E-02
    9066.875     72.619   4.560  9.33438E-01  9.88759E-01 -5.53211E-02
    9068.271     74.015   4.600  9.27293E-01  9.89273E-01 -6.19802E-02
    9069.679     75.423   4.640  9.23151E-01  9.89850E-01 -6.66987E-02
    9071.100     76.844   4.680  9.20533E-01  9.90446E-01 -6.99131E-02
    9072.532     78.276   4.720  9.19141E-01  9.91079E-01 -7.19383E-02
    9073.977     79.721   4.760  9.18923E-01  9.91747E-01 -7.28249E-02
    9075.434     81.178   4.800  9.20034E-01  9.92449E-01 -7.24151E-02
    9076.903     82.647   4.840  9.22688E-01  9.93160E-01 -7.04717E-02
    9078.384     84.128   4.880  9.27113E-01  9.93876E-01 -6.67629E-02
    9079.878     85.622   4.920  9.33463E-01  9.94617E-01 -6.11543E-02
    9081.384     87.128   4.960  9.41637E-01  9.95361E-01 -5.37245E-02
    9082.902     88.645   5.000  9.51421E-01  9.96102E-01 -4.46814E-02
    9084.432     90.176   5.040  9.62377E-01  9.96815E-01 -3.44389E-02
    9085.974     91.718   5.080  9.73905E-01  9.97522E-01 -2.36176E-02
    9087.528     93.272   5.120  9.85288E-01  9.98221E-01 -1.29327E-02
    9089.095     94.839   5.160  9.95920E-01  9.98886E-01 -2.96600E-03
    9090.674     96.418   5.200  1.00552E+00  9.99516E-01  6.00302E-03
    9092.265     98.009   5.240  1.01403E+00  1.00013E+00  1.38958E-02
    9093.868     99.612   5.280  1.02132E+00  1.00071E+00  2.06060E-02
    9095.484    101.228   5.320  1.02714E+00  1.00124E+00  2.58983E-02
    9097.111    102.855   5.360  1.03116E+00  1.00171E+00  2.94496E-02
    9098.751    104.495   5.400  1.03307E+00  1.00216E+00  3.09130E-02
    9100.403    106.147   5.440  1.03252E+00  1.00254E+00  2.99814E-02
    9102.067    107.811   5.480  1.02941E+00  1.00285E+00  2.65595E-02
    9103.744    109.488   5.520  1.02408E+00  1.00313E+00  2.09458E-02
    9105.432    111.176   5.560  1.01716E+00  1.00335E+00  1.38112E-02
    9107.133    112.877   5.600  1.00951E+00  1.00349E+00  6.02813E-03
    9108.846    114.590   5.640  1.00210E+00  1.00357E+00 -1.47438E-03
    9110.571    116.315   5.680  9.95828E-01  1.00359E+00 -7.76344E-03
    9112.309    118.052   5.720  9.91566E-01  1.00356E+00 -1.19913E-02
    9114.058    119.802   5.760  9.89878E-01  1.00345E+00 -1.35731E-02
    9115.820    121.564   5.800  9.90941E-01  1.00327E+00 -1.23288E-02
    9117.594    123.338   5.840  9.94507E-01  1.00304E+00 -8.53309E-03
    9119.380    125.124   5.880  9.99865E-01  1.00274E+00 -2.87585E-03
    9121.178    126.922   5.920  1.00607E+00  1.00240E+00  3.67917E-03
    9122.989    128.733   5.960  1.01209E+00  1.00198E+00  1.01083E-02
    9124.811    130.555   6.000  1.01709E+00  1.00147E+00  1.56249E-02
