# # comment:                                                     FEFF 9.9.1  
# # Source:
# # Structure
# # Reduced
# # space
# # abc:
# # angles:
# # sites:
# # POT  SCF 100  7.0000   0, screened core-hole, AFOLP (folp(0)= 1.150)
# # Abs   Z=29 Rmt= 1.231 Rnm= 1.297 K  shell
# # Pot 1 Z=30 Rmt= 1.345 Rnm= 1.423
# # Pot 2 Z=29 Rmt= 1.230 Rnm= 1.296
# # Pot 3 Z= 8 Rmt= 1.054 Rnm= 1.119
# # Gam_ch=1.729E+00 H-L exch Vi= 0.000E+00 Vr= 0.000E+00
# # Mu=-8.508E+00eV kf=2.168E+00 Vint=-1.568E+01eV Rs_int= 1.673
# FMS rfms= 9.0000
# # PATH  Rmax=-1.000,  Keep_limit= 0.00, Heap_limit 0.00  Pwcrit= 2.50%
#  S02=0.950  Temp=   0.00  Debye_temp=   0.00  Global_sig2= 0.00000
#  Energy zero shift, vr, vi    0.00000E+00   0.00000E+00
#  Curved wave amplitude ratio filter   4.000%
#     file         sig2 tot  cw amp ratio   deg  nlegs   reff  inp sig2
#     0/   0 paths used
#  xsedge+ 50, used to normalize mu           2.4450E-04
#  -----------------------------------------------------------------------
#  omega    e    k    mu    mu0     chi     @#
    8983.877    -12.318  -1.000  2.82740E-02  5.21181E-02 -2.38441E-02
    8984.176    -12.019  -0.960  2.93107E-02  5.58069E-02 -2.64962E-02
    8984.463    -11.733  -0.920  3.03925E-02  5.98952E-02 -2.95027E-02
    8984.737    -11.458  -0.880  3.15230E-02  6.44405E-02 -3.29175E-02
    8984.999    -11.196  -0.840  3.27062E-02  6.95099E-02 -3.68037E-02
    8985.249    -10.946  -0.800  3.39469E-02  7.51807E-02 -4.12338E-02
    8985.487    -10.708  -0.760  3.52506E-02  8.15416E-02 -4.62910E-02
    8985.712    -10.483  -0.720  3.66237E-02  8.86925E-02 -5.20688E-02
    8985.926    -10.270  -0.680  3.80731E-02  9.67432E-02 -5.86701E-02
    8986.127    -10.068  -0.640  3.96060E-02  1.05809E-01 -6.62034E-02
    8986.316     -9.879  -0.600  4.12291E-02  1.16004E-01 -7.47750E-02
    8986.493     -9.703  -0.560  4.29471E-02  1.27423E-01 -8.44763E-02
    8986.657     -9.538  -0.520  4.47608E-02  1.40124E-01 -9.53629E-02
    8986.810     -9.386  -0.480  4.66635E-02  1.54090E-01 -1.07426E-01
    8986.950     -9.245  -0.440  4.86379E-02  1.69200E-01 -1.20562E-01
    8987.078     -9.117  -0.400  5.06534E-02  1.85195E-01 -1.34542E-01
    8987.194     -9.002  -0.360  5.26657E-02  2.01668E-01 -1.49002E-01
    8987.297     -8.898  -0.320  5.46201E-02  2.18090E-01 -1.63470E-01
    8987.389     -8.807  -0.280  5.64591E-02  2.33873E-01 -1.77414E-01
    8987.468     -8.727  -0.240  5.81302E-02  2.48450E-01 -1.90320E-01
    8987.535     -8.660  -0.200  5.95926E-02  2.61344E-01 -2.01751E-01
    8987.590     -8.605  -0.160  6.08183E-02  2.72201E-01 -2.11383E-01
    8987.632     -8.563  -0.120  6.17901E-02  2.80793E-01 -2.19003E-01
    8987.663     -8.532  -0.080  6.24980E-02  2.86990E-01 -2.24492E-01
    8987.687     -8.508   0.000  6.30902E-02  2.91973E-01 -2.28882E-01
    8987.742     -8.453   0.120  6.45044E-02  3.03207E-01 -2.38702E-01
    8987.785     -8.410   0.160  6.55446E-02  3.11966E-01 -2.46421E-01
    8987.840     -8.355   0.200  6.68149E-02  3.23161E-01 -2.56346E-01
    8987.907     -8.288   0.240  6.83211E-02  3.36680E-01 -2.68359E-01
    8987.986     -8.209   0.280  6.99923E-02  3.52242E-01 -2.82250E-01
    8988.078     -8.118   0.320  7.18312E-02  3.69529E-01 -2.97697E-01
    8988.181     -8.014   0.360  7.37807E-02  3.88050E-01 -3.14269E-01
    8988.297     -7.898   0.400  7.58310E-02  4.07323E-01 -3.31492E-01
    8988.425     -7.770   0.440  7.80097E-02  4.26909E-01 -3.48899E-01
    8988.565     -7.630   0.480  8.03595E-02  4.46464E-01 -3.66105E-01
    8988.718     -7.478   0.520  8.29195E-02  4.65730E-01 -3.82811E-01
    8988.882     -7.313   0.560  8.58167E-02  4.84626E-01 -3.98809E-01
    8989.059     -7.136   0.600  8.91401E-02  5.03099E-01 -4.13959E-01
    8989.248     -6.947   0.640  9.30241E-02  5.21194E-01 -4.28170E-01
    8989.449     -6.746   0.680  9.76190E-02  5.38967E-01 -4.41348E-01
    8989.662     -6.533   0.720  1.03141E-01  5.56484E-01 -4.53343E-01
    8989.888     -6.307   0.760  1.09714E-01  5.73788E-01 -4.64074E-01
    8990.126     -6.069   0.800  1.17510E-01  5.90975E-01 -4.73464E-01
    8990.376     -5.820   0.840  1.26472E-01  6.08066E-01 -4.81594E-01
    8990.638     -5.557   0.880  1.36481E-01  6.25071E-01 -4.88590E-01
    8990.912     -5.283   0.920  1.47664E-01  6.42008E-01 -4.94345E-01
    8991.199     -4.997   0.960  1.60457E-01  6.58884E-01 -4.98427E-01
    8991.497     -4.698   1.000  1.75068E-01  6.75696E-01 -5.00627E-01
    8991.808     -4.387   1.040  1.90891E-01  6.92391E-01 -5.01501E-01
    8992.131     -4.064   1.080  2.07304E-01  7.08995E-01 -5.01692E-01
    8992.467     -3.729   1.120  2.23962E-01  7.25423E-01 -5.01461E-01
    8992.814     -3.381   1.160  2.40764E-01  7.41667E-01 -5.00904E-01
    8993.174     -3.021   1.200  2.58629E-01  7.57699E-01 -4.99070E-01
    8993.546     -2.650   1.240  2.79889E-01  7.73444E-01 -4.93555E-01
    8993.930     -2.266   1.280  3.04693E-01  7.88888E-01 -4.84195E-01
    8994.326     -1.869   1.320  3.30167E-01  8.03978E-01 -4.73811E-01
    8994.734     -1.461   1.360  3.55898E-01  8.18677E-01 -4.62779E-01
    8995.155     -1.040   1.400  3.86153E-01  8.32950E-01 -4.46796E-01
    8995.588     -0.607   1.440  4.26409E-01  8.46784E-01 -4.20375E-01
    8996.033     -0.162   1.480  4.81449E-01  8.60104E-01 -3.78655E-01
    8996.490      0.295   1.520  5.53059E-01  8.72898E-01 -3.19839E-01
    8996.959      0.764   1.560  6.36221E-01  8.85158E-01 -2.48937E-01
    8997.441      1.246   1.600  7.21130E-01  8.96831E-01 -1.75701E-01
    8997.935      1.739   1.640  8.03934E-01  9.07933E-01 -1.03999E-01
    8998.441      2.245   1.680  8.87110E-01  9.18440E-01 -3.13304E-02
    8998.959      2.764   1.720  9.74556E-01  9.28350E-01  4.62063E-02
    8999.489      3.294   1.760  1.06585E+00  9.37638E-01  1.28212E-01
    9000.032      3.837   1.800  1.16959E+00  9.46327E-01  2.23266E-01
    9000.586      4.391   1.840  1.30577E+00  9.54421E-01  3.51348E-01
    9001.153      4.958   1.880  1.47570E+00  9.61901E-01  5.13802E-01
    9001.732      5.537   1.920  1.68117E+00  9.68794E-01  7.12375E-01
    9002.324      6.129   1.960  1.90550E+00  9.75106E-01  9.30397E-01
    9002.927      6.732   2.000  2.07673E+00  9.80868E-01  1.09586E+00
    9003.543      7.348   2.040  2.11255E+00  9.86088E-01  1.12646E+00
    9004.171      7.976   2.080  1.98355E+00  9.90776E-01  9.92776E-01
    9004.811      8.616   2.120  1.72557E+00  9.94965E-01  7.30605E-01
    9005.463      9.268   2.160  1.45175E+00  9.98684E-01  4.53062E-01
    9006.128      9.932   2.200  1.25883E+00  1.00193E+00  2.56902E-01
    9006.804     10.609   2.240  1.14592E+00  1.00475E+00  1.41172E-01
    9007.493     11.298   2.280  1.07172E+00  1.00717E+00  6.45435E-02
    9008.194     11.999   2.320  1.01092E+00  1.00921E+00  1.71624E-03
    9008.907     12.712   2.360  9.61885E-01  1.01089E+00 -4.90093E-02
    9009.633     13.438   2.400  9.26923E-01  1.01225E+00 -8.53274E-02
    9010.370     14.175   2.440  9.01073E-01  1.01329E+00 -1.12215E-01
    9011.120     14.925   2.480  8.85731E-01  1.01406E+00 -1.28329E-01
    9011.882     15.687   2.520  8.98499E-01  1.01456E+00 -1.16059E-01
    9012.656     16.461   2.560  9.54712E-01  1.01483E+00 -6.01217E-02
    9013.443     17.248   2.600  1.03006E+00  1.01490E+00  1.51579E-02
    9014.241     18.046   2.640  1.07618E+00  1.01477E+00  6.14164E-02
    9015.052     18.857   2.680  1.09388E+00  1.01446E+00  7.94159E-02
    9015.875     19.680   2.720  1.08849E+00  1.01400E+00  7.44848E-02
    9016.710     20.515   2.760  1.06510E+00  1.01344E+00  5.16673E-02
    9017.558     21.362   2.800  1.03052E+00  1.01273E+00  1.77923E-02
    9018.417     22.222   2.840  9.92408E-01  1.01195E+00 -1.95409E-02
    9019.289     23.094   2.880  9.55577E-01  1.01107E+00 -5.54910E-02
    9020.173     23.978   2.920  9.22297E-01  1.01013E+00 -8.78369E-02
    9021.069     24.874   2.960  8.93575E-01  1.00915E+00 -1.15577E-01
    9021.977     25.782   3.000  8.69256E-01  1.00813E+00 -1.38873E-01
    9022.898     26.703   3.040  8.48624E-01  1.00707E+00 -1.58448E-01
    9023.830     27.635   3.080  8.31299E-01  1.00601E+00 -1.74707E-01
    9024.775     28.580   3.120  8.16611E-01  1.00494E+00 -1.88328E-01
    9025.732     29.537   3.160  8.04178E-01  1.00387E+00 -1.99694E-01
    9026.702     30.506   3.200  7.94532E-01  1.00283E+00 -2.08303E-01
    9027.683     31.488   3.240  7.88632E-01  1.00181E+00 -2.13176E-01
    9028.677     32.481   3.280  7.87354E-01  1.00082E+00 -2.13464E-01
    9029.683     33.487   3.320  7.91214E-01  9.99886E-01 -2.08672E-01
    9030.701     34.505   3.360  8.00089E-01  9.98974E-01 -1.98885E-01
    9031.731     35.536   3.400  8.12696E-01  9.98105E-01 -1.85409E-01
    9032.773     36.578   3.440  8.27768E-01  9.97303E-01 -1.69535E-01
    9033.828     37.633   3.480  8.44476E-01  9.96549E-01 -1.52074E-01
    9034.895     38.699   3.520  8.62598E-01  9.95866E-01 -1.33268E-01
    9035.974     39.778   3.560  8.82267E-01  9.95233E-01 -1.12966E-01
    9037.065     40.870   3.600  9.03914E-01  9.94675E-01 -9.07601E-02
    9038.168     41.973   3.640  9.27710E-01  9.94191E-01 -6.64805E-02
    9039.284     43.088   3.680  9.53375E-01  9.93759E-01 -4.03839E-02
    9040.411     44.216   3.720  9.80263E-01  9.93402E-01 -1.31390E-02
    9041.551     45.356   3.760  1.00717E+00  9.93120E-01  1.40511E-02
    9042.704     46.508   3.800  1.03223E+00  9.92894E-01  3.93340E-02
    9043.868     47.673   3.840  1.05373E+00  9.92764E-01  6.09618E-02
    9045.044     48.849   3.880  1.07088E+00  9.92687E-01  7.81894E-02
    9046.233     50.038   3.920  1.08438E+00  9.92664E-01  9.17175E-02
    9047.434     51.239   3.960  1.09619E+00  9.92734E-01  1.03452E-01
    9048.647     52.452   4.000  1.10849E+00  9.92858E-01  1.15631E-01
    9049.872     53.677   4.040  1.12257E+00  9.93033E-01  1.29537E-01
    9051.110     54.915   4.080  1.13790E+00  9.93277E-01  1.44624E-01
    9052.360     56.164   4.120  1.15227E+00  9.93593E-01  1.58677E-01
    9053.621     57.426   4.160  1.16265E+00  9.93956E-01  1.68696E-01
    9054.895     58.700   4.200  1.16638E+00  9.94362E-01  1.72019E-01
    9056.182     59.987   4.240  1.16213E+00  9.94813E-01  1.67315E-01
    9057.480     61.285   4.280  1.15034E+00  9.95327E-01  1.55013E-01
    9058.791     62.596   4.320  1.13273E+00  9.95859E-01  1.36874E-01
    9060.114     63.918   4.360  1.11188E+00  9.96430E-01  1.15454E-01
    9061.449     65.253   4.400  1.09033E+00  9.97060E-01  9.32679E-02
    9062.796     66.601   4.440  1.06964E+00  9.97704E-01  7.19350E-02
    9064.155     67.960   4.480  1.05027E+00  9.98357E-01  5.19085E-02
    9065.527     69.332   4.520  1.03200E+00  9.99042E-01  3.29586E-02
    9066.911     70.715   4.560  1.01469E+00  9.99758E-01  1.49351E-02
    9068.307     72.111   4.600  9.98720E-01  1.00048E+00 -1.76005E-03
    9069.715     73.520   4.640  9.84867E-01  1.00121E+00 -1.63385E-02
    9071.135     74.940   4.680  9.73795E-01  1.00195E+00 -2.81589E-02
    9072.568     76.373   4.720  9.65625E-01  1.00268E+00 -3.70546E-02
    9074.012     77.817   4.760  9.60238E-01  1.00340E+00 -4.31632E-02
    9075.469     79.274   4.800  9.57414E-01  1.00412E+00 -4.67068E-02
    9076.939     80.743   4.840  9.56923E-01  1.00484E+00 -4.79131E-02
    9078.420     82.225   4.880  9.58571E-01  1.00554E+00 -4.69721E-02
    9079.913     83.718   4.920  9.61979E-01  1.00622E+00 -4.42380E-02
    9081.419     85.224   4.960  9.66530E-01  1.00686E+00 -4.03273E-02
    9082.937     86.742   5.000  9.71316E-01  1.00749E+00 -3.61694E-02
    9084.467     88.272   5.040  9.75227E-01  1.00807E+00 -3.28478E-02
    9086.009     89.814   5.080  9.77430E-01  1.00863E+00 -3.11961E-02
    9087.564     91.369   5.120  9.77695E-01  1.00914E+00 -3.14441E-02
    9089.130     92.935   5.160  9.76728E-01  1.00963E+00 -3.29058E-02
    9090.709     94.514   5.200  9.75933E-01  1.01007E+00 -3.41326E-02
    9092.300     96.105   5.240  9.76782E-01  1.01046E+00 -3.36734E-02
    9093.904     97.708   5.280  9.80008E-01  1.01082E+00 -3.08153E-02
    9095.519     99.324   5.320  9.85243E-01  1.01113E+00 -2.58820E-02
    9097.147    100.951   5.360  9.91600E-01  1.01138E+00 -1.97817E-02
    9098.786    102.591   5.400  9.97948E-01  1.01157E+00 -1.36217E-02
    9100.439    104.243   5.440  1.00324E+00  1.01174E+00 -8.49376E-03
    9102.103    105.908   5.480  1.00624E+00  1.01183E+00 -5.58976E-03
    9103.779    107.584   5.520  1.00596E+00  1.01188E+00 -5.92173E-03
    9105.468    109.272   5.560  1.00215E+00  1.01186E+00 -9.70775E-03
    9107.168    110.973   5.600  9.95575E-01  1.01182E+00 -1.62455E-02
    9108.881    112.686   5.640  9.86769E-01  1.01171E+00 -2.49422E-02
    9110.607    114.411   5.680  9.75433E-01  1.01156E+00 -3.61227E-02
    9112.344    116.149   5.720  9.60936E-01  1.01133E+00 -5.03959E-02
    9114.093    117.898   5.760  9.43963E-01  1.01106E+00 -6.71009E-02
    9115.855    119.660   5.800  9.27193E-01  1.01078E+00 -8.35854E-02
    9117.629    121.434   5.840  9.14234E-01  1.01043E+00 -9.61934E-02
    9119.415    123.220   5.880  9.07955E-01  1.01001E+00 -1.02056E-01
    9121.214    125.018   5.920  9.09474E-01  1.00958E+00 -1.00109E-01
    9123.024    126.829   5.960  9.18471E-01  1.00912E+00 -9.06489E-02
    9124.847    128.652   6.000  9.35276E-01  1.00859E+00 -7.33118E-02
