# # comment:                                                     FEFF 9.9.1  
# # Source:
# # Structure
# # Reduced
# # space
# # abc:
# # angles:
# # sites:
# # POT  SCF 100  7.0000   0, screened core-hole, AFOLP (folp(0)= 1.150)
# # Abs   Z=29 Rmt= 1.055 Rnm= 1.238 K  shell
# # Pot 1 Z=29 Rmt= 1.055 Rnm= 1.239
# # Pot 2 Z=50 Rmt= 1.304 Rnm= 1.479
# # Pot 3 Z= 8 Rmt= 1.022 Rnm= 1.193
# # Pot 4 Z= 9 Rmt= 0.992 Rnm= 1.132
# # Gam_ch=1.729E+00 H-L exch Vi= 0.000E+00 Vr= 0.000E+00
# # Mu=-8.633E+00eV kf=1.962E+00 Vint=-1.194E+01eV Rs_int= 1.848
# FMS rfms= 9.0000
# # PATH  Rmax=-1.000,  Keep_limit= 0.00, Heap_limit 0.00  Pwcrit= 2.50%
#  S02=0.950  Temp=   0.00  Debye_temp=   0.00  Global_sig2= 0.00000
#  Energy zero shift, vr, vi    0.00000E+00   0.00000E+00
#  Curved wave amplitude ratio filter   4.000%
#     file         sig2 tot  cw amp ratio   deg  nlegs   reff  inp sig2
#     0/   0 paths used
#  xsedge+ 50, used to normalize mu           2.4676E-04
#  -----------------------------------------------------------------------
#  omega    e    k    mu    mu0     chi     @#
    8983.320    -12.443  -1.000  2.27798E-02  4.23866E-02 -1.96068E-02
    8983.618    -12.144  -0.960  2.34890E-02  4.48886E-02 -2.13996E-02
    8983.905    -11.858  -0.920  2.42296E-02  4.76126E-02 -2.33831E-02
    8984.179    -11.583  -0.880  2.50058E-02  5.05862E-02 -2.55804E-02
    8984.441    -11.321  -0.840  2.58228E-02  5.38406E-02 -2.80178E-02
    8984.691    -11.071  -0.800  2.66871E-02  5.74117E-02 -3.07246E-02
    8984.929    -10.834  -0.760  2.76065E-02  6.13397E-02 -3.37332E-02
    8985.154    -10.608  -0.720  2.85905E-02  6.56694E-02 -3.70789E-02
    8985.368    -10.395  -0.680  2.96500E-02  7.04492E-02 -4.07992E-02
    8985.569    -10.194  -0.640  3.07970E-02  7.57291E-02 -4.49321E-02
    8985.758    -10.005  -0.600  3.20431E-02  8.15564E-02 -4.95133E-02
    8985.935     -9.828  -0.560  3.33975E-02  8.79697E-02 -5.45722E-02
    8986.099     -9.663  -0.520  3.48629E-02  9.49878E-02 -6.01250E-02
    8986.252     -9.511  -0.480  3.64301E-02  1.02596E-01 -6.61661E-02
    8986.392     -9.371  -0.440  3.80726E-02  1.10731E-01 -7.26579E-02
    8986.520     -9.243  -0.400  3.97432E-02  1.19263E-01 -7.95197E-02
    8986.636     -9.127  -0.360  4.13769E-02  1.27998E-01 -8.66206E-02
    8986.739     -9.023  -0.320  4.29013E-02  1.36680E-01 -9.37789E-02
    8986.831     -8.932  -0.280  4.42531E-02  1.45027E-01 -1.00773E-01
    8986.910     -8.852  -0.240  4.53921E-02  1.52756E-01 -1.07364E-01
    8986.977     -8.785  -0.200  4.63073E-02  1.59624E-01 -1.13317E-01
    8987.032     -8.731  -0.160  4.70112E-02  1.65440E-01 -1.18429E-01
    8987.075     -8.688  -0.120  4.75250E-02  1.70070E-01 -1.22545E-01
    8987.105     -8.657  -0.080  4.78669E-02  1.73427E-01 -1.25560E-01
    8987.130     -8.633   0.000  4.81041E-02  1.76144E-01 -1.28040E-01
    8987.184     -8.578   0.120  4.92857E-02  1.82300E-01 -1.33015E-01
    8987.227     -8.536   0.160  5.00890E-02  1.87139E-01 -1.37050E-01
    8987.282     -8.481   0.200  5.10321E-02  1.93398E-01 -1.42366E-01
    8987.349     -8.414   0.240  5.20526E-02  2.01065E-01 -1.49012E-01
    8987.428     -8.334   0.280  5.30666E-02  2.10093E-01 -1.57026E-01
    8987.520     -8.243   0.320  5.39852E-02  2.20389E-01 -1.66404E-01
    8987.623     -8.139   0.360  5.47272E-02  2.31827E-01 -1.77100E-01
    8987.739     -8.023   0.400  5.52530E-02  2.44268E-01 -1.89015E-01
    8987.867     -7.895   0.440  5.55870E-02  2.57579E-01 -2.01992E-01
    8988.007     -7.755   0.480  5.57890E-02  2.71665E-01 -2.15876E-01
    8988.160     -7.603   0.520  5.59545E-02  2.86471E-01 -2.30516E-01
    8988.324     -7.438   0.560  5.61801E-02  3.01978E-01 -2.45798E-01
    8988.501     -7.261   0.600  5.65500E-02  3.18200E-01 -2.61650E-01
    8988.690     -7.072   0.640  5.71312E-02  3.35165E-01 -2.78034E-01
    8988.891     -6.871   0.680  5.79938E-02  3.52911E-01 -2.94917E-01
    8989.105     -6.658   0.720  5.91947E-02  3.71466E-01 -3.12271E-01
    8989.330     -6.432   0.760  6.07959E-02  3.90850E-01 -3.30054E-01
    8989.568     -6.195   0.800  6.28747E-02  4.11092E-01 -3.48218E-01
    8989.818     -5.945   0.840  6.55143E-02  4.32165E-01 -3.66651E-01
    8990.080     -5.683   0.880  6.88797E-02  4.54054E-01 -3.85174E-01
    8990.354     -5.408   0.920  7.31447E-02  4.76756E-01 -4.03611E-01
    8990.641     -5.122   0.960  7.84070E-02  5.00217E-01 -4.21810E-01
    8990.940     -4.823   1.000  8.43199E-02  5.24354E-01 -4.40034E-01
    8991.250     -4.512   1.040  9.01197E-02  5.49142E-01 -4.59022E-01
    8991.573     -4.189   1.080  9.52201E-02  5.74462E-01 -4.79242E-01
    8991.909     -3.854   1.120  1.00344E-01  6.00252E-01 -4.99908E-01
    8992.256     -3.506   1.160  1.06981E-01  6.26384E-01 -5.19403E-01
    8992.616     -3.147   1.200  1.16276E-01  6.52786E-01 -5.36509E-01
    8992.988     -2.775   1.240  1.28532E-01  6.79279E-01 -5.50746E-01
    8993.372     -2.391   1.280  1.43469E-01  7.05804E-01 -5.62335E-01
    8993.768     -1.995   1.320  1.60829E-01  7.32200E-01 -5.71371E-01
    8994.176     -1.586   1.360  1.81533E-01  7.58343E-01 -5.76810E-01
    8994.597     -1.165   1.400  2.07557E-01  7.84113E-01 -5.76556E-01
    8995.030     -0.733   1.440  2.40379E-01  8.09408E-01 -5.69029E-01
    8995.475     -0.288   1.480  2.79469E-01  8.34088E-01 -5.54620E-01
    8995.932      0.170   1.520  3.23167E-01  8.58038E-01 -5.34871E-01
    8996.402      0.639   1.560  3.68842E-01  8.81165E-01 -5.12323E-01
    8996.883      1.121   1.600  4.14468E-01  9.03364E-01 -4.88896E-01
    8997.377      1.614   1.640  4.65526E-01  9.24572E-01 -4.59046E-01
    8997.883      2.120   1.680  5.37216E-01  9.44713E-01 -4.07497E-01
    8998.401      2.638   1.720  6.45320E-01  9.63716E-01 -3.18396E-01
    8998.931      3.169   1.760  7.81666E-01  9.81518E-01 -1.99851E-01
    8999.474      3.711   1.800  9.13544E-01  9.98120E-01 -8.45762E-02
    9000.029      4.266   1.840  1.00957E+00  1.01347E+00 -3.90447E-03
    9000.596      4.833   1.880  1.03080E+00  1.02756E+00  3.23505E-03
    9001.175      5.412   1.920  9.90771E-01  1.04042E+00 -4.96502E-02
    9001.766      6.003   1.960  9.49243E-01  1.05203E+00 -1.02783E-01
    9002.369      6.607   2.000  9.39223E-01  1.06241E+00 -1.23186E-01
    9002.985      7.223   2.040  9.66389E-01  1.07158E+00 -1.05195E-01
    9003.613      7.850   2.080  1.02662E+00  1.07961E+00 -5.29917E-02
    9004.253      8.491   2.120  1.10896E+00  1.08650E+00  2.24628E-02
    9004.905      9.143   2.160  1.19795E+00  1.09233E+00  1.05624E-01
    9005.570      9.807   2.200  1.27724E+00  1.09711E+00  1.80124E-01
    9006.247     10.484   2.240  1.33787E+00  1.10094E+00  2.36922E-01
    9006.935     11.173   2.280  1.38912E+00  1.10385E+00  2.85269E-01
    9007.636     11.874   2.320  1.44307E+00  1.10590E+00  3.37167E-01
    9008.350     12.587   2.360  1.49894E+00  1.10717E+00  3.91776E-01
    9009.075     13.312   2.400  1.52535E+00  1.10767E+00  4.17678E-01
    9009.813     14.050   2.440  1.51350E+00  1.10749E+00  4.06003E-01
    9010.562     14.800   2.480  1.47366E+00  1.10669E+00  3.66971E-01
    9011.324     15.562   2.520  1.42494E+00  1.10532E+00  3.19620E-01
    9012.099     16.336   2.560  1.37750E+00  1.10345E+00  2.74050E-01
    9012.885     17.122   2.600  1.33435E+00  1.10110E+00  2.33249E-01
    9013.684     17.921   2.640  1.29493E+00  1.09832E+00  1.96616E-01
    9014.494     18.732   2.680  1.25760E+00  1.09519E+00  1.62415E-01
    9015.317     19.555   2.720  1.22211E+00  1.09173E+00  1.30378E-01
    9016.152     20.390   2.760  1.19026E+00  1.08797E+00  1.02285E-01
    9017.000     21.237   2.800  1.16314E+00  1.08399E+00  7.91539E-02
    9017.859     22.097   2.840  1.14129E+00  1.07980E+00  6.14906E-02
    9018.731     22.968   2.880  1.12448E+00  1.07544E+00  4.90320E-02
    9019.615     23.852   2.920  1.11137E+00  1.07094E+00  4.04279E-02
    9020.511     24.749   2.960  1.10040E+00  1.06634E+00  3.40594E-02
    9021.419     25.657   3.000  1.09028E+00  1.06166E+00  2.86138E-02
    9022.340     26.577   3.040  1.08036E+00  1.05693E+00  2.34299E-02
    9023.273     27.510   3.080  1.07045E+00  1.05217E+00  1.82770E-02
    9024.217     28.455   3.120  1.06098E+00  1.04740E+00  1.35721E-02
    9025.175     29.412   3.160  1.05251E+00  1.04264E+00  9.87562E-03
    9026.144     30.381   3.200  1.04513E+00  1.03791E+00  7.22614E-03
    9027.125     31.363   3.240  1.03822E+00  1.03322E+00  4.99636E-03
    9028.119     32.356   3.280  1.03061E+00  1.02862E+00  1.99533E-03
    9029.125     33.362   3.320  1.02078E+00  1.02408E+00 -3.30072E-03
    9030.143     34.380   3.360  1.00735E+00  1.01963E+00 -1.22747E-02
    9031.173     35.410   3.400  9.89907E-01  1.01529E+00 -2.53843E-02
    9032.215     36.453   3.440  9.69472E-01  1.01105E+00 -4.15777E-02
    9033.270     37.507   3.480  9.47986E-01  1.00693E+00 -5.89432E-02
    9034.337     38.574   3.520  9.27491E-01  1.00295E+00 -7.54567E-02
    9035.416     39.653   3.560  9.09270E-01  9.99094E-01 -8.98240E-02
    9036.507     40.744   3.600  8.94013E-01  9.95372E-01 -1.01359E-01
    9037.610     41.848   3.640  8.81634E-01  9.91807E-01 -1.10173E-01
    9038.726     42.963   3.680  8.71733E-01  9.88400E-01 -1.16667E-01
    9039.854     44.091   3.720  8.63901E-01  9.85147E-01 -1.21246E-01
    9040.994     45.231   3.760  8.57916E-01  9.82055E-01 -1.24139E-01
    9042.146     46.383   3.800  8.53656E-01  9.79106E-01 -1.25450E-01
    9043.310     47.547   3.840  8.51513E-01  9.76341E-01 -1.24828E-01
    9044.487     48.724   3.880  8.52067E-01  9.73735E-01 -1.21668E-01
    9045.675     49.913   3.920  8.55774E-01  9.71287E-01 -1.15513E-01
    9046.876     51.114   3.960  8.62591E-01  9.69004E-01 -1.06413E-01
    9048.089     52.327   4.000  8.72027E-01  9.66889E-01 -9.48616E-02
    9049.315     53.552   4.040  8.83184E-01  9.64942E-01 -8.17577E-02
    9050.552     54.789   4.080  8.94809E-01  9.63179E-01 -6.83698E-02
    9051.802     56.039   4.120  9.05596E-01  9.61583E-01 -5.59862E-02
    9053.064     57.301   4.160  9.14515E-01  9.60147E-01 -4.56314E-02
    9054.338     58.575   4.200  9.21054E-01  9.58871E-01 -3.78175E-02
    9055.624     59.861   4.240  9.25453E-01  9.57761E-01 -3.23079E-02
    9056.922     61.160   4.280  9.28549E-01  9.56810E-01 -2.82610E-02
    9058.233     62.470   4.320  9.31282E-01  9.56018E-01 -2.47361E-02
    9059.556     63.793   4.360  9.34225E-01  9.55363E-01 -2.11376E-02
    9060.891     65.128   4.400  9.37560E-01  9.54887E-01 -1.73279E-02
    9062.238     66.475   4.440  9.41151E-01  9.54548E-01 -1.33972E-02
    9063.597     67.835   4.480  9.44975E-01  9.54364E-01 -9.38905E-03
    9064.969     69.206   4.520  9.49129E-01  9.54334E-01 -5.20417E-03
    9066.353     70.590   4.560  9.53737E-01  9.54432E-01 -6.94347E-04
    9067.749     71.986   4.600  9.58987E-01  9.54659E-01  4.32723E-03
    9069.157     73.394   4.640  9.65270E-01  9.55034E-01  1.02357E-02
    9070.577     74.815   4.680  9.73038E-01  9.55534E-01  1.75044E-02
    9072.010     76.247   4.720  9.82654E-01  9.56155E-01  2.64988E-02
    9073.455     77.692   4.760  9.94201E-01  9.56895E-01  3.73056E-02
    9074.912     79.149   4.800  1.00738E+00  9.57733E-01  4.96452E-02
    9076.381     80.618   4.840  1.02149E+00  9.58706E-01  6.27869E-02
    9077.862     82.099   4.880  1.03540E+00  9.59771E-01  7.56269E-02
    9079.356     83.593   4.920  1.04776E+00  9.60923E-01  8.68328E-02
    9080.861     85.099   4.960  1.05733E+00  9.62182E-01  9.51436E-02
    9082.379     86.617   5.000  1.06331E+00  9.63502E-01  9.98039E-02
    9083.909     88.147   5.040  1.06569E+00  9.64924E-01  1.00766E-01
    9085.451     89.689   5.080  1.06512E+00  9.66425E-01  9.86963E-02
    9087.006     91.243   5.120  1.06267E+00  9.67975E-01  9.46903E-02
    9088.573     92.810   5.160  1.05936E+00  9.69573E-01  8.97839E-02
    9090.151     94.389   5.200  1.05587E+00  9.71239E-01  8.46288E-02
    9091.743     95.980   5.240  1.05225E+00  9.72950E-01  7.92998E-02
    9093.346     97.583   5.280  1.04819E+00  9.74701E-01  7.34937E-02
    9094.961     99.199   5.320  1.04331E+00  9.76488E-01  6.68229E-02
    9096.589    100.826   5.360  1.03744E+00  9.78310E-01  5.91327E-02
    9098.229    102.466   5.400  1.03072E+00  9.80138E-01  5.05794E-02
    9099.881    104.118   5.440  1.02350E+00  9.81968E-01  4.15277E-02
    9101.545    105.782   5.480  1.01627E+00  9.83798E-01  3.24753E-02
    9103.221    107.459   5.520  1.00961E+00  9.85625E-01  2.39875E-02
    9104.910    109.147   5.560  1.00386E+00  9.87447E-01  1.64108E-02
    9106.611    110.848   5.600  9.98810E-01  9.89237E-01  9.57253E-03
    9108.324    112.561   5.640  9.93859E-01  9.91015E-01  2.84360E-03
    9110.049    114.286   5.680  9.88365E-01  9.92754E-01 -4.38855E-03
    9111.786    116.024   5.720  9.82159E-01  9.94449E-01 -1.22896E-02
    9113.536    117.773   5.760  9.75576E-01  9.96075E-01 -2.04992E-02
    9115.297    119.535   5.800  9.69237E-01  9.97675E-01 -2.84373E-02
    9117.071    121.309   5.840  9.63565E-01  9.99197E-01 -3.56317E-02
    9118.857    123.095   5.880  9.58781E-01  1.00063E+00 -4.18512E-02
    9120.656    124.893   5.920  9.54977E-01  1.00199E+00 -4.70166E-02
    9122.466    126.704   5.960  9.52142E-01  1.00321E+00 -5.10674E-02
    9124.289    128.526   6.000  9.50357E-01  1.00432E+00 -5.39616E-02
