# # comment:                                                     FEFF 9.9.1  
# # Source:
# # Structure
# # Reduced
# # space
# # abc:
# # angles:107.775659
# # sites:
# # POT  SCF 100  7.0000   0, screened core-hole, AFOLP (folp(0)= 1.150)
# # Abs   Z=29 Rmt= 1.272 Rnm= 1.351 K  shell
# # Pot 1 Z=29 Rmt= 1.272 Rnm= 1.351
# # Pot 2 Z=33 Rmt= 1.094 Rnm= 1.291
# # Pot 3 Z= 1 Rmt= 0.663 Rnm= 0.792
# # Pot 4 Z= 8 Rmt= 0.913 Rnm= 1.056
# # Gam_ch=1.729E+00 H-L exch Vi= 0.000E+00 Vr= 0.000E+00
# # Mu=-4.226E+00eV kf=2.365E+00 Vint=-1.582E+01eV Rs_int= 1.533
# FMS rfms= 9.0000
# # PATH  Rmax=-1.000,  Keep_limit= 0.00, Heap_limit 0.00  Pwcrit= 2.50%
#  S02=0.950  Temp=   0.00  Debye_temp=   0.00  Global_sig2= 0.00000
#  Energy zero shift, vr, vi    0.00000E+00   0.00000E+00
#  Curved wave amplitude ratio filter   4.000%
#     file         sig2 tot  cw amp ratio   deg  nlegs   reff  inp sig2
#     0/   0 paths used
#  xsedge+ 50, used to normalize mu           2.4637E-04
#  -----------------------------------------------------------------------
#  omega    e    k    mu    mu0     chi     @#
    8983.246     -8.036  -1.000  5.15451E-02  5.94103E-02 -7.86518E-03
    8983.545     -7.737  -0.960  5.50617E-02  6.39264E-02 -8.86469E-03
    8983.831     -7.451  -0.920  5.89589E-02  6.89637E-02 -1.00047E-02
    8984.106     -7.176  -0.880  6.32940E-02  7.46007E-02 -1.13067E-02
    8984.368     -6.914  -0.840  6.81337E-02  8.09291E-02 -1.27954E-02
    8984.618     -6.664  -0.800  7.35561E-02  8.80552E-02 -1.44992E-02
    8984.855     -6.426  -0.760  7.96510E-02  9.61016E-02 -1.64505E-02
    8985.081     -6.201  -0.720  8.65208E-02  1.05207E-01 -1.86858E-02
    8985.294     -5.988  -0.680  9.42784E-02  1.15523E-01 -2.12450E-02
    8985.495     -5.786  -0.640  1.03044E-01  1.27214E-01 -2.41698E-02
    8985.684     -5.597  -0.600  1.12936E-01  1.40437E-01 -2.75010E-02
    8985.861     -5.421  -0.560  1.24058E-01  1.55331E-01 -3.12732E-02
    8986.026     -5.256  -0.520  1.36471E-01  1.71977E-01 -3.55065E-02
    8986.178     -5.104  -0.480  1.50167E-01  1.90362E-01 -4.01953E-02
    8986.318     -4.963  -0.440  1.65026E-01  2.10322E-01 -4.52956E-02
    8986.446     -4.835  -0.400  1.80790E-01  2.31504E-01 -5.07144E-02
    8986.562     -4.720  -0.360  1.97047E-01  2.53353E-01 -5.63067E-02
    8986.666     -4.616  -0.320  2.13262E-01  2.75147E-01 -6.18858E-02
    8986.757     -4.524  -0.280  2.28839E-01  2.96085E-01 -6.72464E-02
    8986.837     -4.445  -0.240  2.43206E-01  3.15399E-01 -7.21935E-02
    8986.904     -4.378  -0.200  2.55885E-01  3.32451E-01 -7.65662E-02
    8986.959     -4.323  -0.160  2.66529E-01  3.46779E-01 -8.02505E-02
    8987.001     -4.281  -0.120  2.74913E-01  3.58092E-01 -8.31796E-02
    8987.032     -4.250  -0.080  2.80913E-01  3.66234E-01 -8.53206E-02
    8987.056     -4.226   0.000  2.85649E-01  3.72769E-01 -8.71203E-02
    8987.111     -4.171   0.120  2.96739E-01  3.87486E-01 -9.07468E-02
    8987.154     -4.128   0.160  3.05366E-01  3.98912E-01 -9.35462E-02
    8987.208     -4.073   0.200  3.16328E-01  4.13440E-01 -9.71120E-02
    8987.276     -4.006   0.240  3.29460E-01  4.30882E-01 -1.01421E-01
    8987.355     -3.927   0.280  3.44387E-01  4.50828E-01 -1.06441E-01
    8987.446     -3.836   0.320  3.60563E-01  4.72699E-01 -1.12135E-01
    8987.550     -3.732   0.360  3.77325E-01  4.95821E-01 -1.18496E-01
    8987.666     -3.616   0.400  3.93846E-01  5.19422E-01 -1.25575E-01
    8987.794     -3.488   0.440  4.09390E-01  5.42856E-01 -1.33466E-01
    8987.934     -3.348   0.480  4.23355E-01  5.65591E-01 -1.42236E-01
    8988.086     -3.196   0.520  4.35506E-01  5.87277E-01 -1.51771E-01
    8988.251     -3.031   0.560  4.46215E-01  6.07765E-01 -1.61550E-01
    8988.428     -2.854   0.600  4.56488E-01  6.27040E-01 -1.70551E-01
    8988.617     -2.665   0.640  4.67744E-01  6.45136E-01 -1.77391E-01
    8988.818     -2.464   0.680  4.81156E-01  6.62177E-01 -1.81022E-01
    8989.031     -2.251   0.720  4.96537E-01  6.78306E-01 -1.81769E-01
    8989.257     -2.025   0.760  5.11354E-01  6.93621E-01 -1.82266E-01
    8989.494     -1.787   0.800  5.21218E-01  7.08252E-01 -1.87034E-01
    8989.744     -1.537   0.840  5.22503E-01  7.22296E-01 -1.99793E-01
    8990.007     -1.275   0.880  5.15914E-01  7.35831E-01 -2.19917E-01
    8990.281     -1.001   0.920  5.06873E-01  7.48939E-01 -2.42065E-01
    8990.567     -0.714   0.960  5.01681E-01  7.61665E-01 -2.59984E-01
    8990.866     -0.416   1.000  5.04137E-01  7.74028E-01 -2.69891E-01
    8991.177     -0.105   1.040  5.15488E-01  7.86089E-01 -2.70602E-01
    8991.500      0.218   1.080  5.35318E-01  7.97823E-01 -2.62505E-01
    8991.835      0.553   1.120  5.62570E-01  8.09278E-01 -2.46708E-01
    8992.183      0.901   1.160  5.96005E-01  8.20453E-01 -2.24448E-01
    8992.542      1.261   1.200  6.33208E-01  8.31344E-01 -1.98136E-01
    8992.914      1.632   1.240  6.70137E-01  8.41943E-01 -1.71806E-01
    8993.298      2.017   1.280  7.03350E-01  8.52237E-01 -1.48888E-01
    8993.695      2.413   1.320  7.33005E-01  8.62233E-01 -1.29227E-01
    8994.103      2.821   1.360  7.64229E-01  8.71914E-01 -1.07685E-01
    8994.524      3.242   1.400  8.05989E-01  8.81283E-01 -7.52940E-02
    8994.956      3.675   1.440  8.68802E-01  8.90323E-01 -2.15213E-02
    8995.401      4.120   1.480  9.60363E-01  8.99032E-01  6.13303E-02
    8995.859      4.577   1.520  1.07637E+00  9.07391E-01  1.68979E-01
    8996.328      5.046   1.560  1.19285E+00  9.15399E-01  2.77447E-01
    8996.810      5.528   1.600  1.27829E+00  9.23040E-01  3.55251E-01
    8997.303      6.022   1.640  1.32079E+00  9.30311E-01  3.90480E-01
    8997.809      6.528   1.680  1.32947E+00  9.37235E-01  3.92235E-01
    8998.328      7.046   1.720  1.31647E+00  9.43771E-01  3.72696E-01
    8998.858      7.576   1.760  1.29092E+00  9.49943E-01  3.40972E-01
    8999.400      8.119   1.800  1.26098E+00  9.55753E-01  3.05230E-01
    8999.955      8.673   1.840  1.23193E+00  9.61205E-01  2.70720E-01
    9000.522      9.240   1.880  1.20240E+00  9.66279E-01  2.36117E-01
    9001.101      9.819   1.920  1.17041E+00  9.71000E-01  1.99406E-01
    9001.692     10.411   1.960  1.14107E+00  9.75375E-01  1.65691E-01
    9002.296     11.014   2.000  1.12202E+00  9.79406E-01  1.42613E-01
    9002.912     11.630   2.040  1.11605E+00  9.83099E-01  1.32951E-01
    9003.540     12.258   2.080  1.11969E+00  9.86481E-01  1.33206E-01
    9004.180     12.898   2.120  1.12921E+00  9.89538E-01  1.39675E-01
    9004.832     13.550   2.160  1.14641E+00  9.92315E-01  1.54093E-01
    9005.496     14.215   2.200  1.17126E+00  9.94779E-01  1.76480E-01
    9006.173     14.891   2.240  1.19303E+00  9.96977E-01  1.96056E-01
    9006.862     15.580   2.280  1.20359E+00  9.98918E-01  2.04672E-01
    9007.563     16.281   2.320  1.20883E+00  1.00061E+00  2.08226E-01
    9008.276     16.994   2.360  1.21403E+00  1.00205E+00  2.11984E-01
    9009.002     17.720   2.400  1.21562E+00  1.00328E+00  2.12344E-01
    9009.739     18.457   2.440  1.20687E+00  1.00429E+00  2.02578E-01
    9010.489     19.207   2.480  1.18397E+00  1.00511E+00  1.78866E-01
    9011.251     19.969   2.520  1.14860E+00  1.00574E+00  1.42853E-01
    9012.025     20.743   2.560  1.10146E+00  1.00621E+00  9.52473E-02
    9012.812     21.530   2.600  1.04010E+00  1.00652E+00  3.35788E-02
    9013.610     22.328   2.640  9.73519E-01  1.00670E+00 -3.31789E-02
    9014.421     23.139   2.680  9.18621E-01  1.00677E+00 -8.81449E-02
    9015.244     23.962   2.720  8.82537E-01  1.00669E+00 -1.24156E-01
    9016.079     24.797   2.760  8.69752E-01  1.00652E+00 -1.36771E-01
    9016.926     25.644   2.800  8.73287E-01  1.00624E+00 -1.32956E-01
    9017.786     26.504   2.840  8.78106E-01  1.00590E+00 -1.27793E-01
    9018.658     27.376   2.880  8.79661E-01  1.00548E+00 -1.25818E-01
    9019.542     28.260   2.920  8.77341E-01  1.00501E+00 -1.27664E-01
    9020.438     29.156   2.960  8.71866E-01  1.00446E+00 -1.32597E-01
    9021.346     30.064   3.000  8.65062E-01  1.00390E+00 -1.38836E-01
    9022.266     30.985   3.040  8.58461E-01  1.00327E+00 -1.44813E-01
    9023.199     31.917   3.080  8.53402E-01  1.00266E+00 -1.49253E-01
    9024.144     32.862   3.120  8.50695E-01  1.00199E+00 -1.51290E-01
    9025.101     33.819   3.160  8.50641E-01  1.00133E+00 -1.50689E-01
    9026.070     34.788   3.200  8.53356E-01  1.00067E+00 -1.47313E-01
    9027.052     35.770   3.240  8.58954E-01  9.99989E-01 -1.41034E-01
    9028.045     36.764   3.280  8.67229E-01  9.99331E-01 -1.32102E-01
    9029.051     37.769   3.320  8.77491E-01  9.98678E-01 -1.21187E-01
    9030.069     38.787   3.360  8.89096E-01  9.98054E-01 -1.08958E-01
    9031.099     39.818   3.400  9.01496E-01  9.97461E-01 -9.59653E-02
    9032.142     40.860   3.440  9.14211E-01  9.96878E-01 -8.26675E-02
    9033.196     41.915   3.480  9.27104E-01  9.96308E-01 -6.92045E-02
    9034.263     42.981   3.520  9.40235E-01  9.95795E-01 -5.55604E-02
    9035.342     44.060   3.560  9.53535E-01  9.95319E-01 -4.17835E-02
    9036.433     45.152   3.600  9.66848E-01  9.94859E-01 -2.80111E-02
    9037.537     46.255   3.640  9.80079E-01  9.94458E-01 -1.43797E-02
    9038.652     47.371   3.680  9.92991E-01  9.94078E-01 -1.08605E-03
    9039.780     48.498   3.720  1.00544E+00  9.93759E-01  1.16843E-02
    9040.920     49.638   3.760  1.01725E+00  9.93481E-01  2.37718E-02
    9042.072     50.790   3.800  1.02832E+00  9.93244E-01  3.50730E-02
    9043.237     51.955   3.840  1.03854E+00  9.93048E-01  4.54961E-02
    9044.413     53.131   3.880  1.04797E+00  9.92890E-01  5.50810E-02
    9045.602     54.320   3.920  1.05663E+00  9.92775E-01  6.38529E-02
    9046.803     55.521   3.960  1.06428E+00  9.92700E-01  7.15839E-02
    9048.016     56.734   4.000  1.07048E+00  9.92666E-01  7.78174E-02
    9049.241     57.959   4.040  1.07475E+00  9.92694E-01  8.20556E-02
    9050.479     59.197   4.080  1.07672E+00  9.92741E-01  8.39751E-02
    9051.728     60.446   4.120  1.07649E+00  9.92848E-01  8.36377E-02
    9052.990     61.708   4.160  1.07458E+00  9.92971E-01  8.16135E-02
    9054.264     62.982   4.200  1.07172E+00  9.93131E-01  7.85935E-02
    9055.550     64.269   4.240  1.06844E+00  9.93327E-01  7.51141E-02
    9056.849     65.567   4.280  1.06500E+00  9.93558E-01  7.14437E-02
    9058.160     66.878   4.320  1.06146E+00  9.93803E-01  6.76621E-02
    9059.482     68.200   4.360  1.05774E+00  9.94101E-01  6.36397E-02
    9060.817     69.536   4.400  1.05357E+00  9.94390E-01  5.91749E-02
    9062.165     70.883   4.440  1.04886E+00  9.94731E-01  5.41329E-02
    9063.524     72.242   4.480  1.04354E+00  9.95080E-01  4.84611E-02
    9064.896     73.614   4.520  1.03771E+00  9.95434E-01  4.22804E-02
    9066.279     74.998   4.560  1.03166E+00  9.95794E-01  3.58649E-02
    9067.675     76.393   4.600  1.02565E+00  9.96180E-01  2.94740E-02
    9069.083     77.802   4.640  1.01977E+00  9.96572E-01  2.32031E-02
    9070.504     79.222   4.680  1.01389E+00  9.96985E-01  1.69082E-02
    9071.936     80.655   4.720  1.00760E+00  9.97377E-01  1.02265E-02
    9073.381     82.099   4.760  1.00058E+00  9.97768E-01  2.81533E-03
    9074.838     83.556   4.800  9.92806E-01  9.98158E-01 -5.35243E-03
    9076.307     85.025   4.840  9.84632E-01  9.98566E-01 -1.39338E-02
    9077.789     86.507   4.880  9.76615E-01  9.98924E-01 -2.23092E-02
    9079.282     88.000   4.920  9.69480E-01  9.99298E-01 -2.98179E-02
    9080.788     89.506   4.960  9.63670E-01  9.99645E-01 -3.59753E-02
    9082.306     91.024   5.000  9.59418E-01  9.99985E-01 -4.05665E-02
    9083.836     92.554   5.040  9.56638E-01  1.00032E+00 -4.36778E-02
    9085.378     94.096   5.080  9.55018E-01  1.00062E+00 -4.55975E-02
    9086.933     95.651   5.120  9.54275E-01  1.00088E+00 -4.66041E-02
    9088.499     97.217   5.160  9.54278E-01  1.00113E+00 -4.68534E-02
    9090.078     98.796   5.200  9.54982E-01  1.00135E+00 -4.63677E-02
    9091.669    100.387   5.240  9.56386E-01  1.00155E+00 -4.51691E-02
    9093.272    101.990   5.280  9.58351E-01  1.00170E+00 -4.33502E-02
    9094.888    103.606   5.320  9.60794E-01  1.00183E+00 -4.10400E-02
    9096.515    105.234   5.360  9.63639E-01  1.00195E+00 -3.83130E-02
    9098.155    106.873   5.400  9.66893E-01  1.00201E+00 -3.51198E-02
    9099.807    108.525   5.440  9.70710E-01  1.00206E+00 -3.13474E-02
    9101.471    110.190   5.480  9.75129E-01  1.00206E+00 -2.69349E-02
    9103.148    111.866   5.520  9.80023E-01  1.00203E+00 -2.20086E-02
    9104.836    113.555   5.560  9.85077E-01  1.00196E+00 -1.68823E-02
    9106.537    115.255   5.600  9.89891E-01  1.00185E+00 -1.19563E-02
    9108.250    116.968   5.640  9.94051E-01  1.00170E+00 -7.64465E-03
    9109.975    118.693   5.680  9.97177E-01  1.00151E+00 -4.33128E-03
    9111.713    120.431   5.720  9.98980E-01  1.00131E+00 -2.32795E-03
    9113.462    122.180   5.760  9.99283E-01  1.00107E+00 -1.78747E-03
    9115.224    123.942   5.800  9.98204E-01  1.00080E+00 -2.59323E-03
    9116.998    125.716   5.840  9.96202E-01  1.00049E+00 -4.28459E-03
    9118.784    127.502   5.880  9.93990E-01  1.00014E+00 -6.15110E-03
    9120.582    129.300   5.920  9.92301E-01  9.99788E-01 -7.48738E-03
    9122.393    131.111   5.960  9.91535E-01  9.99378E-01 -7.84326E-03
    9124.215    132.934   6.000  9.91860E-01  9.98937E-01 -7.07657E-03
