# # comment:                                                     FEFF 9.9.1  
# # Source:
# # Structure
# # Reduced
# # space
# # abc:
# # angles:
# # sites:
# # POT  SCF 100  7.0000   0, screened core-hole, AFOLP (folp(0)= 1.150)
# # Abs   Z=29 Rmt= 1.183 Rnm= 1.304 K  shell
# # Pot 1 Z=29 Rmt= 1.183 Rnm= 1.304
# # Pot 2 Z=53 Rmt= 1.404 Rnm= 1.707
# # Pot 3 Z= 8 Rmt= 0.995 Rnm= 1.111
# # Gam_ch=1.729E+00 H-L exch Vi= 0.000E+00 Vr= 0.000E+00
# # Mu=-6.230E+00eV kf=2.012E+00 Vint=-1.386E+01eV Rs_int= 1.803
# FMS rfms= 9.0000
# # PATH  Rmax=-1.000,  Keep_limit= 0.00, Heap_limit 0.00  Pwcrit= 2.50%
#  S02=0.950  Temp=   0.00  Debye_temp=   0.00  Global_sig2= 0.00000
#  Energy zero shift, vr, vi    0.00000E+00   0.00000E+00
#  Curved wave amplitude ratio filter   4.000%
#     file         sig2 tot  cw amp ratio   deg  nlegs   reff  inp sig2
#     0/   0 paths used
#  xsedge+ 50, used to normalize mu           2.4196E-04
#  -----------------------------------------------------------------------
#  omega    e    k    mu    mu0     chi     @#
    8983.434    -10.040  -1.000  4.01577E-02  5.91688E-02 -1.90111E-02
    8983.733     -9.742  -0.960  4.24503E-02  6.35502E-02 -2.10999E-02
    8984.019     -9.455  -0.920  4.49503E-02  6.84213E-02 -2.34710E-02
    8984.293     -9.181  -0.880  4.76850E-02  7.38540E-02 -2.61690E-02
    8984.555     -8.919  -0.840  5.06859E-02  7.99319E-02 -2.92459E-02
    8984.805     -8.669  -0.800  5.39893E-02  8.67516E-02 -3.27623E-02
    8985.043     -8.431  -0.760  5.76362E-02  9.44243E-02 -3.67880E-02
    8985.269     -8.205  -0.720  6.16728E-02  1.03075E-01 -4.14023E-02
    8985.482     -7.992  -0.680  6.61492E-02  1.12842E-01 -4.66926E-02
    8985.683     -7.791  -0.640  7.11178E-02  1.23870E-01 -5.27522E-02
    8985.872     -7.602  -0.600  7.66287E-02  1.36302E-01 -5.96732E-02
    8986.049     -7.425  -0.560  8.27234E-02  1.50259E-01 -6.75360E-02
    8986.214     -7.261  -0.520  8.94232E-02  1.65815E-01 -7.63913E-02
    8986.366     -7.108  -0.480  9.67145E-02  1.82951E-01 -8.62363E-02
    8986.506     -6.968  -0.440  1.04532E-01  2.01518E-01 -9.69862E-02
    8986.634     -6.840  -0.400  1.12743E-01  2.21194E-01 -1.08451E-01
    8986.750     -6.724  -0.360  1.21147E-01  2.41473E-01 -1.20326E-01
    8986.854     -6.620  -0.320  1.29483E-01  2.61697E-01 -1.32214E-01
    8986.945     -6.529  -0.280  1.37467E-01  2.81137E-01 -1.43670E-01
    8987.024     -6.450  -0.240  1.44823E-01  2.99087E-01 -1.54263E-01
    8987.091     -6.383  -0.200  1.51324E-01  3.14957E-01 -1.63633E-01
    8987.146     -6.328  -0.160  1.56800E-01  3.28313E-01 -1.71513E-01
    8987.189     -6.285  -0.120  1.61140E-01  3.38876E-01 -1.77736E-01
    8987.219     -6.255  -0.080  1.64278E-01  3.46489E-01 -1.82211E-01
    8987.244     -6.230   0.000  1.66815E-01  3.52607E-01 -1.85792E-01
    8987.299     -6.175   0.120  1.72517E-01  3.66405E-01 -1.93888E-01
    8987.341     -6.133   0.160  1.76932E-01  3.77128E-01 -2.00196E-01
    8987.396     -6.078   0.200  1.82606E-01  3.90855E-01 -2.08249E-01
    8987.463     -6.011   0.240  1.89464E-01  4.07369E-01 -2.17905E-01
    8987.543     -5.932   0.280  1.97416E-01  4.26357E-01 -2.28941E-01
    8987.634     -5.840   0.320  2.06376E-01  4.47355E-01 -2.40978E-01
    8987.738     -5.737   0.360  2.16229E-01  4.69763E-01 -2.53533E-01
    8987.853     -5.621   0.400  2.26948E-01  4.92962E-01 -2.66014E-01
    8987.981     -5.493   0.440  2.38635E-01  5.16387E-01 -2.77752E-01
    8988.122     -5.352   0.480  2.51478E-01  5.39536E-01 -2.88058E-01
    8988.274     -5.200   0.520  2.65920E-01  5.62146E-01 -2.96226E-01
    8988.439     -5.035   0.560  2.82412E-01  5.84063E-01 -3.01651E-01
    8988.615     -4.859   0.600  3.01157E-01  6.05227E-01 -3.04070E-01
    8988.804     -4.670   0.640  3.21881E-01  6.25671E-01 -3.03789E-01
    8989.006     -4.469   0.680  3.43384E-01  6.45488E-01 -3.02103E-01
    8989.219     -4.255   0.720  3.63457E-01  6.64722E-01 -3.01265E-01
    8989.444     -4.030   0.760  3.79556E-01  6.83480E-01 -3.03924E-01
    8989.682     -3.792   0.800  3.89977E-01  7.01791E-01 -3.11814E-01
    8989.932     -3.542   0.840  3.95308E-01  7.19736E-01 -3.24428E-01
    8990.194     -3.280   0.880  3.97969E-01  7.37337E-01 -3.39368E-01
    8990.469     -3.006   0.920  4.00011E-01  7.54602E-01 -3.54592E-01
    8990.755     -2.719   0.960  4.01106E-01  7.71548E-01 -3.70442E-01
    8991.054     -2.420   1.000  4.00062E-01  7.88136E-01 -3.88074E-01
    8991.365     -2.109   1.040  3.98453E-01  8.04385E-01 -4.05933E-01
    8991.688     -1.786   1.080  4.00590E-01  8.20261E-01 -4.19671E-01
    8992.023     -1.451   1.120  4.10072E-01  8.35726E-01 -4.25654E-01
    8992.371     -1.104   1.160  4.26956E-01  8.50738E-01 -4.23782E-01
    8992.730     -0.744   1.200  4.48197E-01  8.65293E-01 -4.17096E-01
    8993.102     -0.372   1.240  4.70694E-01  8.79344E-01 -4.08650E-01
    8993.486      0.012   1.280  4.93251E-01  8.92842E-01 -3.99590E-01
    8993.882      0.408   1.320  5.15128E-01  9.05778E-01 -3.90650E-01
    8994.291      0.817   1.360  5.35102E-01  9.18127E-01 -3.83024E-01
    8994.711      1.237   1.400  5.55847E-01  9.29840E-01 -3.73993E-01
    8995.144      1.670   1.440  5.83855E-01  9.40932E-01 -3.57077E-01
    8995.589      2.115   1.480  6.22626E-01  9.51381E-01 -3.28756E-01
    8996.046      2.572   1.520  6.70276E-01  9.61142E-01 -2.90866E-01
    8996.516      3.042   1.560  7.22639E-01  9.70258E-01 -2.47619E-01
    8996.997      3.523   1.600  7.77426E-01  9.78687E-01 -2.01261E-01
    8997.491      4.017   1.640  8.32918E-01  9.86455E-01 -1.53538E-01
    8997.997      4.523   1.680  8.87011E-01  9.93547E-01 -1.06535E-01
    8998.515      5.041   1.720  9.45066E-01  1.00001E+00 -5.49434E-02
    8999.046      5.572   1.760  1.01954E+00  1.00583E+00  1.37061E-02
    8999.588      6.114   1.800  1.11998E+00  1.01102E+00  1.08958E-01
    9000.143      6.669   1.840  1.24433E+00  1.01564E+00  2.28694E-01
    9000.710      7.236   1.880  1.37427E+00  1.01967E+00  3.54598E-01
    9001.289      7.815   1.920  1.48147E+00  1.02315E+00  4.58314E-01
    9001.880      8.406   1.960  1.55234E+00  1.02611E+00  5.26226E-01
    9002.484      9.010   2.000  1.60180E+00  1.02857E+00  5.73229E-01
    9003.099      9.625   2.040  1.64160E+00  1.03057E+00  6.11033E-01
    9003.727     10.253   2.080  1.65031E+00  1.03213E+00  6.18177E-01
    9004.367     10.893   2.120  1.60464E+00  1.03331E+00  5.71337E-01
    9005.020     11.546   2.160  1.51207E+00  1.03408E+00  4.77992E-01
    9005.684     12.210   2.200  1.39913E+00  1.03453E+00  3.64607E-01
    9006.361     12.887   2.240  1.29540E+00  1.03465E+00  2.60747E-01
    9007.050     13.576   2.280  1.21685E+00  1.03448E+00  1.82372E-01
    9007.751     14.277   2.320  1.16460E+00  1.03405E+00  1.30548E-01
    9008.464     14.990   2.360  1.13267E+00  1.03338E+00  9.92891E-02
    9009.189     15.715   2.400  1.10595E+00  1.03252E+00  7.34305E-02
    9009.927     16.453   2.440  1.07501E+00  1.03146E+00  4.35462E-02
    9010.677     17.203   2.480  1.04906E+00  1.03026E+00  1.87958E-02
    9011.439     17.965   2.520  1.03178E+00  1.02893E+00  2.84845E-03
    9012.213     18.739   2.560  1.02162E+00  1.02748E+00 -5.86287E-03
    9012.999     19.525   2.600  1.01688E+00  1.02594E+00 -9.05428E-03
    9013.798     20.324   2.640  1.01694E+00  1.02432E+00 -7.37250E-03
    9014.609     21.135   2.680  1.02089E+00  1.02265E+00 -1.75469E-03
    9015.432     21.957   2.720  1.02636E+00  1.02093E+00  5.42232E-03
    9016.267     22.793   2.760  1.03027E+00  1.01921E+00  1.10597E-02
    9017.114     23.640   2.800  1.03109E+00  1.01745E+00  1.36379E-02
    9017.974     24.500   2.840  1.02954E+00  1.01572E+00  1.38230E-02
    9018.845     25.371   2.880  1.02659E+00  1.01400E+00  1.25906E-02
    9019.729     26.255   2.920  1.02205E+00  1.01231E+00  9.73924E-03
    9020.625     27.151   2.960  1.01472E+00  1.01066E+00  4.06770E-03
    9021.534     28.060   3.000  1.00331E+00  1.00905E+00 -5.73913E-03
    9022.454     28.980   3.040  9.87035E-01  1.00751E+00 -2.04749E-02
    9023.387     29.913   3.080  9.66357E-01  1.00602E+00 -3.96665E-02
    9024.332     30.858   3.120  9.42993E-01  1.00461E+00 -6.16205E-02
    9025.289     31.815   3.160  9.19521E-01  1.00328E+00 -8.37604E-02
    9026.258     32.784   3.200  8.98418E-01  1.00203E+00 -1.03613E-01
    9027.240     33.765   3.240  8.81530E-01  1.00087E+00 -1.19336E-01
    9028.233     34.759   3.280  8.69236E-01  9.99808E-01 -1.30572E-01
    9029.239     35.765   3.320  8.61017E-01  9.98837E-01 -1.37820E-01
    9030.257     36.783   3.360  8.56165E-01  9.97954E-01 -1.41788E-01
    9031.287     37.813   3.400  8.53990E-01  9.97159E-01 -1.43169E-01
    9032.330     38.856   3.440  8.53917E-01  9.96477E-01 -1.42559E-01
    9033.384     39.910   3.480  8.55658E-01  9.95907E-01 -1.40249E-01
    9034.451     40.977   3.520  8.59275E-01  9.95428E-01 -1.36153E-01
    9035.530     42.056   3.560  8.64756E-01  9.95040E-01 -1.30284E-01
    9036.621     43.147   3.600  8.72255E-01  9.94764E-01 -1.22509E-01
    9037.725     44.250   3.640  8.81920E-01  9.94600E-01 -1.12680E-01
    9038.840     45.366   3.680  8.93619E-01  9.94526E-01 -1.00907E-01
    9039.968     46.494   3.720  9.06898E-01  9.94539E-01 -8.76406E-02
    9041.108     47.634   3.760  9.21309E-01  9.94640E-01 -7.33306E-02
    9042.260     48.786   3.800  9.36539E-01  9.94847E-01 -5.83085E-02
    9043.424     49.950   3.840  9.52402E-01  9.95140E-01 -4.27375E-02
    9044.601     51.127   3.880  9.68898E-01  9.95517E-01 -2.66193E-02
    9045.790     52.315   3.920  9.85966E-01  9.95974E-01 -1.00078E-02
    9046.990     53.516   3.960  1.00311E+00  9.96510E-01  6.59720E-03
    9048.204     54.729   4.000  1.01945E+00  9.97103E-01  2.23473E-02
    9049.429     55.955   4.040  1.03417E+00  9.97793E-01  3.63761E-02
    9050.666     57.192   4.080  1.04668E+00  9.98535E-01  4.81448E-02
    9051.916     58.442   4.120  1.05702E+00  9.99327E-01  5.76918E-02
    9053.178     59.704   4.160  1.06572E+00  1.00019E+00  6.55321E-02
    9054.452     60.978   4.200  1.07327E+00  1.00109E+00  7.21825E-02
    9055.738     62.264   4.240  1.07986E+00  1.00204E+00  7.78193E-02
    9057.037     63.563   4.280  1.08537E+00  1.00302E+00  8.23466E-02
    9058.347     64.873   4.320  1.08960E+00  1.00405E+00  8.55530E-02
    9059.670     66.196   4.360  1.09235E+00  1.00511E+00  8.72360E-02
    9061.005     67.531   4.400  1.09349E+00  1.00618E+00  8.73129E-02
    9062.352     68.878   4.440  1.09316E+00  1.00728E+00  8.58809E-02
    9063.712     70.238   4.480  1.09153E+00  1.00838E+00  8.31482E-02
    9065.083     71.609   4.520  1.08882E+00  1.00949E+00  7.93324E-02
    9066.467     72.993   4.560  1.08524E+00  1.01059E+00  7.46470E-02
    9067.863     74.389   4.600  1.08089E+00  1.01169E+00  6.91956E-02
    9069.271     75.797   4.640  1.07585E+00  1.01276E+00  6.30889E-02
    9070.692     77.217   4.680  1.07036E+00  1.01382E+00  5.65413E-02
    9072.124     78.650   4.720  1.06467E+00  1.01488E+00  4.97900E-02
    9073.569     80.095   4.760  1.05890E+00  1.01589E+00  4.30051E-02
    9075.026     81.552   4.800  1.05318E+00  1.01690E+00  3.62810E-02
    9076.495     83.021   4.840  1.04744E+00  1.01784E+00  2.95972E-02
    9077.976     84.502   4.880  1.04155E+00  1.01876E+00  2.27947E-02
    9079.470     85.996   4.920  1.03527E+00  1.01961E+00  1.56604E-02
    9080.976     87.501   4.960  1.02846E+00  1.02042E+00  8.03632E-03
    9082.493     89.019   5.000  1.02117E+00  1.02119E+00 -1.45224E-05
    9084.024     90.549   5.040  1.01372E+00  1.02190E+00 -8.18030E-03
    9085.566     92.092   5.080  1.00660E+00  1.02254E+00 -1.59471E-02
    9087.120     93.646   5.120  1.00044E+00  1.02313E+00 -2.26884E-02
    9088.687     95.213   5.160  9.95831E-01  1.02365E+00 -2.78151E-02
    9090.266     96.792   5.200  9.93206E-01  1.02408E+00 -3.08777E-02
    9091.857     98.383   5.240  9.92683E-01  1.02447E+00 -3.17839E-02
    9093.460     99.986   5.280  9.94004E-01  1.02478E+00 -3.07720E-02
    9095.076    101.601   5.320  9.96721E-01  1.02503E+00 -2.83087E-02
    9096.703    103.229   5.360  1.00021E+00  1.02521E+00 -2.49932E-02
    9098.343    104.869   5.400  1.00380E+00  1.02531E+00 -2.15070E-02
    9099.995    106.521   5.440  1.00684E+00  1.02532E+00 -1.84811E-02
    9101.659    108.185   5.480  1.00894E+00  1.02529E+00 -1.63476E-02
    9103.336    109.861   5.520  1.00989E+00  1.02518E+00 -1.52910E-02
    9105.024    111.550   5.560  1.00969E+00  1.02499E+00 -1.53047E-02
    9106.725    113.251   5.600  1.00852E+00  1.02475E+00 -1.62344E-02
    9108.438    114.964   5.640  1.00654E+00  1.02444E+00 -1.78968E-02
    9110.163    116.689   5.680  1.00397E+00  1.02407E+00 -2.00999E-02
    9111.900    118.426   5.720  1.00104E+00  1.02364E+00 -2.25961E-02
    9113.650    120.176   5.760  9.98147E-01  1.02316E+00 -2.50101E-02
    9115.412    121.938   5.800  9.95587E-01  1.02263E+00 -2.70438E-02
    9117.186    123.711   5.840  9.93300E-01  1.02204E+00 -2.87383E-02
    9118.972    125.498   5.880  9.90860E-01  1.02140E+00 -3.05449E-02
    9120.770    127.296   5.920  9.87756E-01  1.02074E+00 -3.29799E-02
    9122.581    129.106   5.960  9.83932E-01  1.02003E+00 -3.61025E-02
    9124.403    130.929   6.000  9.79969E-01  1.01926E+00 -3.92922E-02
