# # comment:                                                     FEFF 9.9.1  
# # Source:
# # Structure
# # Reduced
# # space
# # abc:
# # angles:
# # sites:
# # POT  SCF 100  7.0000   0, screened core-hole, AFOLP (folp(0)= 1.150)
# # Abs   Z=29 Rmt= 1.263 Rnm= 1.344 K  shell
# # Pot 1 Z=25 Rmt= 1.314 Rnm= 1.409
# # Pot 2 Z=29 Rmt= 1.270 Rnm= 1.326
# # Pot 3 Z= 8 Rmt= 1.029 Rnm= 1.100
# # Gam_ch=1.729E+00 H-L exch Vi= 0.000E+00 Vr= 0.000E+00
# # Mu=-1.059E+01eV kf=2.171E+00 Vint=-1.840E+01eV Rs_int= 1.670
# FMS rfms= 9.0000
# # PATH  Rmax=-1.000,  Keep_limit= 0.00, Heap_limit 0.00  Pwcrit= 2.50%
#  S02=0.950  Temp=   0.00  Debye_temp=   0.00  Global_sig2= 0.00000
#  Energy zero shift, vr, vi    0.00000E+00   0.00000E+00
#  Curved wave amplitude ratio filter   4.000%
#     file         sig2 tot  cw amp ratio   deg  nlegs   reff  inp sig2
#     0/   0 paths used
#  xsedge+ 50, used to normalize mu           2.5096E-04
#  -----------------------------------------------------------------------
#  omega    e    k    mu    mu0     chi     @#
    8984.087    -14.397  -1.000  3.12324E-02  4.47652E-02 -1.35328E-02
    8984.386    -14.098  -0.960  3.27103E-02  4.77770E-02 -1.50667E-02
    8984.672    -13.812  -0.920  3.42948E-02  5.11059E-02 -1.68111E-02
    8984.946    -13.538  -0.880  3.59980E-02  5.47972E-02 -1.87991E-02
    8985.209    -13.275  -0.840  3.78343E-02  5.89036E-02 -2.10693E-02
    8985.458    -13.025  -0.800  3.98200E-02  6.34861E-02 -2.36661E-02
    8985.696    -12.788  -0.760  4.19736E-02  6.86144E-02 -2.66408E-02
    8985.922    -12.562  -0.720  4.43163E-02  7.43673E-02 -3.00511E-02
    8986.135    -12.349  -0.680  4.68707E-02  8.08312E-02 -3.39605E-02
    8986.336    -12.148  -0.640  4.96607E-02  8.80971E-02 -3.84365E-02
    8986.525    -11.959  -0.600  5.27086E-02  9.62540E-02 -4.35454E-02
    8986.702    -11.782  -0.560  5.60320E-02  1.05377E-01 -4.93455E-02
    8986.867    -11.617  -0.520  5.96374E-02  1.15511E-01 -5.58739E-02
    8987.019    -11.465  -0.480  6.35122E-02  1.26643E-01 -6.31308E-02
    8987.159    -11.325  -0.440  6.76161E-02  1.38676E-01 -7.10597E-02
    8987.287    -11.197  -0.400  7.18734E-02  1.51403E-01 -7.95300E-02
    8987.403    -11.081  -0.360  7.61728E-02  1.64503E-01 -8.83305E-02
    8987.507    -10.977  -0.320  8.03773E-02  1.77557E-01 -9.71795E-02
    8987.598    -10.886  -0.280  8.43429E-02  1.90098E-01 -1.05755E-01
    8987.677    -10.807  -0.240  8.79409E-02  2.01679E-01 -1.13738E-01
    8987.744    -10.739  -0.200  9.10731E-02  2.11920E-01 -1.20847E-01
    8987.799    -10.685  -0.160  9.36763E-02  2.20542E-01 -1.26866E-01
    8987.842    -10.642  -0.120  9.57143E-02  2.27365E-01 -1.31651E-01
    8987.873    -10.611  -0.080  9.71687E-02  2.32285E-01 -1.35116E-01
    8987.897    -10.587   0.000  9.83170E-02  2.36241E-01 -1.37924E-01
    8987.952    -10.532   0.120  1.01094E-01  2.45172E-01 -1.44078E-01
    8987.994    -10.490   0.160  1.03221E-01  2.52123E-01 -1.48902E-01
    8988.049    -10.435   0.200  1.05940E-01  2.61022E-01 -1.55082E-01
    8988.116    -10.368   0.240  1.09214E-01  2.71745E-01 -1.62531E-01
    8988.196    -10.288   0.280  1.13032E-01  2.84102E-01 -1.71071E-01
    8988.287    -10.197   0.320  1.17428E-01  2.97829E-01 -1.80401E-01
    8988.391    -10.093   0.360  1.22479E-01  3.12569E-01 -1.90091E-01
    8988.506     -9.977   0.400  1.28303E-01  3.27900E-01 -1.99597E-01
    8988.634     -9.849   0.440  1.35169E-01  3.43492E-01 -2.08323E-01
    8988.775     -9.709   0.480  1.43313E-01  3.59079E-01 -2.15766E-01
    8988.927     -9.557   0.520  1.52862E-01  3.74491E-01 -2.21629E-01
    8989.092     -9.392   0.560  1.63565E-01  3.89630E-01 -2.26065E-01
    8989.268     -9.215   0.600  1.74671E-01  4.04516E-01 -2.29845E-01
    8989.457     -9.027   0.640  1.84804E-01  4.19150E-01 -2.34346E-01
    8989.659     -8.825   0.680  1.92231E-01  4.33619E-01 -2.41388E-01
    8989.872     -8.612   0.720  1.95658E-01  4.48000E-01 -2.52342E-01
    8990.098     -8.386   0.760  1.95511E-01  4.62329E-01 -2.66818E-01
    8990.335     -8.149   0.800  1.94426E-01  4.76672E-01 -2.82246E-01
    8990.585     -7.899   0.840  1.95908E-01  4.91091E-01 -2.95183E-01
    8990.847     -7.637   0.880  2.02825E-01  5.05633E-01 -3.02808E-01
    8991.122     -7.362   0.920  2.17287E-01  5.20297E-01 -3.03011E-01
    8991.408     -7.076   0.960  2.41460E-01  5.35116E-01 -2.93656E-01
    8991.707     -6.777   1.000  2.77702E-01  5.50112E-01 -2.72410E-01
    8992.018     -6.466   1.040  3.26607E-01  5.65260E-01 -2.38653E-01
    8992.341     -6.143   1.080  3.82657E-01  5.80551E-01 -1.97895E-01
    8992.676     -5.808   1.120  4.30239E-01  5.96010E-01 -1.65771E-01
    8993.024     -5.460   1.160  4.50275E-01  6.11577E-01 -1.61302E-01
    8993.383     -5.101   1.200  4.41170E-01  6.27270E-01 -1.86100E-01
    8993.755     -4.729   1.240  4.23728E-01  6.43021E-01 -2.19293E-01
    8994.139     -4.345   1.280  4.16023E-01  6.58844E-01 -2.42821E-01
    8994.535     -3.949   1.320  4.21637E-01  6.74686E-01 -2.53049E-01
    8994.944     -3.540   1.360  4.40072E-01  6.90494E-01 -2.50422E-01
    8995.364     -3.120   1.400  4.71278E-01  7.06276E-01 -2.34998E-01
    8995.797     -2.687   1.440  5.12683E-01  7.21955E-01 -2.09272E-01
    8996.242     -2.242   1.480  5.62002E-01  7.37516E-01 -1.75513E-01
    8996.699     -1.785   1.520  6.21130E-01  7.52921E-01 -1.31791E-01
    8997.169     -1.315   1.560  6.86646E-01  7.68135E-01 -8.14892E-02
    8997.650     -0.834   1.600  7.36778E-01  7.83100E-01 -4.63218E-02
    8998.144     -0.340   1.640  7.47929E-01  7.97800E-01 -4.98708E-02
    8998.650      0.166   1.680  7.31917E-01  8.12197E-01 -8.02808E-02
    8999.168      0.684   1.720  7.23993E-01  8.26258E-01 -1.02265E-01
    8999.699      1.215   1.760  7.46569E-01  8.39947E-01 -9.33774E-02
    9000.241      1.757   1.800  8.11767E-01  8.53228E-01 -4.14609E-02
    9000.796      2.312   1.840  9.35259E-01  8.66090E-01  6.91693E-02
    9001.363      2.879   1.880  1.12081E+00  8.78479E-01  2.42327E-01
    9001.942      3.458   1.920  1.31318E+00  8.90404E-01  4.22773E-01
    9002.533      4.049   1.960  1.39632E+00  9.01838E-01  4.94481E-01
    9003.137      4.653   2.000  1.33492E+00  9.12749E-01  4.22169E-01
    9003.753      5.269   2.040  1.23881E+00  9.23114E-01  3.15694E-01
    9004.380      5.896   2.080  1.19210E+00  9.32964E-01  2.59141E-01
    9005.020      6.537   2.120  1.18924E+00  9.42236E-01  2.47000E-01
    9005.673      7.189   2.160  1.20473E+00  9.50968E-01  2.53760E-01
    9006.337      7.853   2.200  1.23786E+00  9.59139E-01  2.78719E-01
    9007.014      8.530   2.240  1.27854E+00  9.66747E-01  3.11793E-01
    9007.703      9.219   2.280  1.29184E+00  9.73796E-01  3.18041E-01
    9008.404      9.920   2.320  1.26529E+00  9.80308E-01  2.84983E-01
    9009.117     10.633   2.360  1.21082E+00  9.86267E-01  2.24555E-01
    9009.842     11.358   2.400  1.12829E+00  9.91694E-01  1.36596E-01
    9010.580     12.096   2.440  1.03206E+00  9.96578E-01  3.54841E-02
    9011.330     12.846   2.480  9.65572E-01  1.00096E+00 -3.53924E-02
    9012.092     13.608   2.520  9.38277E-01  1.00484E+00 -6.65652E-02
    9012.866     14.382   2.560  9.34350E-01  1.00826E+00 -7.39103E-02
    9013.652     15.168   2.600  9.50532E-01  1.01121E+00 -6.06730E-02
    9014.451     15.967   2.640  9.70589E-01  1.01371E+00 -4.31181E-02
    9015.262     16.778   2.680  9.89650E-01  1.01578E+00 -2.61269E-02
    9016.085     17.601   2.720  1.00275E+00  1.01747E+00 -1.47169E-02
    9016.920     18.436   2.760  1.00702E+00  1.01876E+00 -1.17410E-02
    9017.767     19.283   2.800  1.00471E+00  1.01970E+00 -1.49819E-02
    9018.627     20.143   2.840  1.00017E+00  1.02028E+00 -2.01147E-02
    9019.498     21.014   2.880  9.95952E-01  1.02057E+00 -2.46144E-02
    9020.382     21.898   2.920  9.92507E-01  1.02054E+00 -2.80368E-02
    9021.278     22.794   2.960  9.88480E-01  1.02027E+00 -3.17857E-02
    9022.187     23.703   3.000  9.81592E-01  1.01974E+00 -3.81503E-02
    9023.107     24.623   3.040  9.70352E-01  1.01896E+00 -4.86105E-02
    9024.040     25.556   3.080  9.55455E-01  1.01800E+00 -6.25434E-02
    9024.985     26.501   3.120  9.39150E-01  1.01684E+00 -7.76893E-02
    9025.942     27.458   3.160  9.23644E-01  1.01552E+00 -9.18718E-02
    9026.911     28.427   3.200  9.10251E-01  1.01404E+00 -1.03786E-01
    9027.893     29.409   3.240  8.99505E-01  1.01243E+00 -1.12926E-01
    9028.886     30.402   3.280  8.91467E-01  1.01071E+00 -1.19243E-01
    9029.892     31.408   3.320  8.86196E-01  1.00890E+00 -1.22704E-01
    9030.910     32.426   3.360  8.83776E-01  1.00701E+00 -1.23235E-01
    9031.940     33.456   3.400  8.83862E-01  1.00507E+00 -1.21207E-01
    9032.983     34.499   3.440  8.85908E-01  1.00306E+00 -1.17157E-01
    9034.037     35.553   3.480  8.89485E-01  1.00104E+00 -1.11556E-01
    9035.104     36.620   3.520  8.94218E-01  9.98986E-01 -1.04768E-01
    9036.183     37.699   3.560  8.99763E-01  9.96924E-01 -9.71611E-02
    9037.274     38.790   3.600  9.06079E-01  9.94863E-01 -8.87845E-02
    9038.378     39.894   3.640  9.13354E-01  9.92808E-01 -7.94535E-02
    9039.493     41.009   3.680  9.21989E-01  9.90783E-01 -6.87944E-02
    9040.621     42.137   3.720  9.32431E-01  9.88795E-01 -5.63640E-02
    9041.761     43.277   3.760  9.44944E-01  9.86847E-01 -4.19030E-02
    9042.913     44.429   3.800  9.59268E-01  9.84945E-01 -2.56766E-02
    9044.077     45.593   3.840  9.74952E-01  9.83111E-01 -8.15905E-03
    9045.254     46.770   3.880  9.91731E-01  9.81349E-01  1.03822E-02
    9046.443     47.959   3.920  1.00940E+00  9.79640E-01  2.97582E-02
    9047.644     49.160   3.960  1.02735E+00  9.78009E-01  4.93371E-02
    9048.857     50.373   4.000  1.04436E+00  9.76478E-01  6.78847E-02
    9050.082     51.598   4.040  1.05880E+00  9.75008E-01  8.37881E-02
    9051.319     52.835   4.080  1.06943E+00  9.73641E-01  9.57867E-02
    9052.569     54.085   4.120  1.07628E+00  9.72359E-01  1.03920E-01
    9053.831     55.347   4.160  1.08061E+00  9.71162E-01  1.09449E-01
    9055.105     56.621   4.200  1.08402E+00  9.70071E-01  1.13952E-01
    9056.391     57.907   4.240  1.08784E+00  9.69068E-01  1.18771E-01
    9057.690     59.206   4.280  1.09291E+00  9.68175E-01  1.24740E-01
    9059.000     60.516   4.320  1.09886E+00  9.67370E-01  1.31493E-01
    9060.323     61.839   4.360  1.10326E+00  9.66673E-01  1.36584E-01
    9061.658     63.174   4.400  1.10179E+00  9.66065E-01  1.35720E-01
    9063.005     64.521   4.440  1.09047E+00  9.65565E-01  1.24908E-01
    9064.365     65.881   4.480  1.06815E+00  9.65152E-01  1.02997E-01
    9065.736     67.252   4.520  1.03729E+00  9.64826E-01  7.24611E-02
    9067.120     68.636   4.560  1.00248E+00  9.64606E-01  3.78769E-02
    9068.516     70.032   4.600  9.68214E-01  9.64494E-01  3.72070E-03
    9069.924     71.440   4.640  9.37638E-01  9.64444E-01 -2.68057E-02
    9071.345     72.861   4.680  9.12567E-01  9.64495E-01 -5.19281E-02
    9072.777     74.293   4.720  8.93724E-01  9.64605E-01 -7.08804E-02
    9074.222     75.738   4.760  8.81291E-01  9.64816E-01 -8.35253E-02
    9075.679     77.195   4.800  8.75039E-01  9.65105E-01 -9.00660E-02
    9077.148     78.664   4.840  8.74622E-01  9.65447E-01 -9.08246E-02
    9078.629     80.145   4.880  8.79779E-01  9.65862E-01 -8.60835E-02
    9080.123     81.639   4.920  8.90288E-01  9.66349E-01 -7.60605E-02
    9081.629     83.145   4.960  9.05973E-01  9.66881E-01 -6.09088E-02
    9083.146     84.663   5.000  9.26200E-01  9.67459E-01 -4.12587E-02
    9084.677     86.193   5.040  9.49119E-01  9.68101E-01 -1.89826E-02
    9086.219     87.735   5.080  9.71432E-01  9.68764E-01  2.66818E-03
    9087.773     89.289   5.120  9.89636E-01  9.69484E-01  2.01515E-02
    9089.340     90.856   5.160  1.00166E+00  9.70220E-01  3.14368E-02
    9090.919     92.435   5.200  1.00779E+00  9.70990E-01  3.68003E-02
    9092.510     94.026   5.240  1.00960E+00  9.71790E-01  3.78126E-02
    9094.113     95.629   5.280  1.00830E+00  9.72597E-01  3.56996E-02
    9095.729     97.245   5.320  1.00411E+00  9.73407E-01  3.06990E-02
    9097.356     98.872   5.360  9.96746E-01  9.74220E-01  2.25258E-02
    9098.996    100.512   5.400  9.86157E-01  9.75054E-01  1.11028E-02
    9100.648    102.164   5.440  9.72942E-01  9.75864E-01 -2.92172E-03
    9102.312    103.828   5.480  9.58629E-01  9.76665E-01 -1.80355E-02
    9103.989    105.505   5.520  9.45211E-01  9.77436E-01 -3.22244E-02
    9105.677    107.193   5.560  9.34259E-01  9.78196E-01 -4.39366E-02
    9107.378    108.894   5.600  9.26078E-01  9.78920E-01 -5.28418E-02
    9109.091    110.607   5.640  9.19795E-01  9.79606E-01 -5.98109E-02
    9110.816    112.332   5.680  9.14129E-01  9.80253E-01 -6.61239E-02
    9112.553    114.069   5.720  9.08216E-01  9.80858E-01 -7.26428E-02
    9114.303    115.819   5.760  9.02146E-01  9.81421E-01 -7.92756E-02
    9116.065    117.581   5.800  8.97098E-01  9.81940E-01 -8.48423E-02
    9117.839    119.355   5.840  8.94819E-01  9.82390E-01 -8.75704E-02
    9119.625    121.141   5.880  8.96736E-01  9.82790E-01 -8.60539E-02
    9121.423    122.939   5.920  9.03526E-01  9.83140E-01 -7.96139E-02
    9123.234    124.750   5.960  9.15597E-01  9.83404E-01 -6.78070E-02
    9125.056    126.572   6.000  9.34230E-01  9.83584E-01 -4.93544E-02
