# # comment:                                                     FEFF 9.9.1  
# # Source:
# # Structure
# # Reduced
# # space
# # abc:
# # angles:
# # sites:
# # POT  SCF 100  7.0000   0, screened core-hole, AFOLP (folp(0)= 1.150)
# # Abs   Z=29 Rmt= 1.216 Rnm= 1.293 K  shell
# # Pot 1 Z=56 Rmt= 1.943 Rnm= 1.999
# # Pot 2 Z=68 Rmt= 1.611 Rnm= 1.682
# # Pot 3 Z=29 Rmt= 1.216 Rnm= 1.293
# # Pot 4 Z= 8 Rmt= 1.052 Rnm= 1.105
# # Gam_ch=1.729E+00 H-L exch Vi= 0.000E+00 Vr= 0.000E+00
# # Mu=-8.030E+00eV kf=2.035E+00 Vint=-1.741E+01eV Rs_int= 1.782
# FMS rfms= 9.0000
# # PATH  Rmax=-1.000,  Keep_limit= 0.00, Heap_limit 0.00  Pwcrit= 2.50%
#  S02=0.950  Temp=   0.00  Debye_temp=   0.00  Global_sig2= 0.00000
#  Energy zero shift, vr, vi    0.00000E+00   0.00000E+00
#  Curved wave amplitude ratio filter   4.000%
#     file         sig2 tot  cw amp ratio   deg  nlegs   reff  inp sig2
#     0/   0 paths used
#  xsedge+ 50, used to normalize mu           2.4402E-04
#  -----------------------------------------------------------------------
#  omega    e    k    mu    mu0     chi     @#
    8984.892    -11.840  -1.000  4.12270E-02  5.89870E-02 -1.77600E-02
    8985.191    -11.541  -0.960  4.34592E-02  6.34116E-02 -1.99525E-02
    8985.478    -11.255  -0.920  4.58710E-02  6.83392E-02 -2.24682E-02
    8985.752    -10.980  -0.880  4.84837E-02  7.38447E-02 -2.53609E-02
    8986.014    -10.718  -0.840  5.13218E-02  8.00153E-02 -2.86936E-02
    8986.264    -10.468  -0.800  5.44129E-02  8.69524E-02 -3.25395E-02
    8986.502    -10.231  -0.760  5.77886E-02  9.47721E-02 -3.69835E-02
    8986.727    -10.005  -0.720  6.14838E-02  1.03606E-01 -4.21222E-02
    8986.941     -9.792  -0.680  6.55363E-02  1.13599E-01 -4.80626E-02
    8987.142     -9.591  -0.640  6.99849E-02  1.24904E-01 -5.49191E-02
    8987.331     -9.402  -0.600  7.48666E-02  1.37672E-01 -6.28053E-02
    8987.508     -9.225  -0.560  8.02101E-02  1.52031E-01 -7.18214E-02
    8987.672     -9.060  -0.520  8.60276E-02  1.68060E-01 -8.20324E-02
    8987.825     -8.908  -0.480  9.23025E-02  1.85742E-01 -9.34395E-02
    8987.965     -8.768  -0.440  9.89759E-02  2.04922E-01 -1.05946E-01
    8988.093     -8.640  -0.400  1.05936E-01  2.25263E-01 -1.19327E-01
    8988.209     -8.524  -0.360  1.13015E-01  2.46237E-01 -1.33222E-01
    8988.312     -8.420  -0.320  1.20002E-01  2.67156E-01 -1.47153E-01
    8988.404     -8.329  -0.280  1.26669E-01  2.87257E-01 -1.60588E-01
    8988.483     -8.249  -0.240  1.32800E-01  3.05808E-01 -1.73008E-01
    8988.550     -8.182  -0.200  1.38214E-01  3.22196E-01 -1.83983E-01
    8988.605     -8.128  -0.160  1.42778E-01  3.35977E-01 -1.93198E-01
    8988.647     -8.085  -0.120  1.46401E-01  3.46865E-01 -2.00464E-01
    8988.678     -8.054  -0.080  1.49022E-01  3.54707E-01 -2.05685E-01
    8988.702     -8.030   0.000  1.51133E-01  3.61005E-01 -2.09872E-01
    8988.757     -7.975   0.120  1.56023E-01  3.75192E-01 -2.19170E-01
    8988.800     -7.932   0.160  1.59845E-01  3.86215E-01 -2.26370E-01
    8988.855     -7.878   0.200  1.64779E-01  4.00279E-01 -2.35500E-01
    8988.922     -7.811   0.240  1.70837E-01  4.17163E-01 -2.46326E-01
    8989.001     -7.731   0.280  1.78021E-01  4.36515E-01 -2.58494E-01
    8989.092     -7.640   0.320  1.86392E-01  4.57844E-01 -2.71452E-01
    8989.196     -7.536   0.360  1.95935E-01  4.80474E-01 -2.84539E-01
    8989.312     -7.420   0.400  2.06740E-01  5.03730E-01 -2.96990E-01
    8989.440     -7.292   0.440  2.18827E-01  5.26977E-01 -3.08149E-01
    8989.580     -7.152   0.480  2.32168E-01  5.49737E-01 -3.17570E-01
    8989.733     -7.000   0.520  2.46424E-01  5.71687E-01 -3.25263E-01
    8989.897     -6.835   0.560  2.60933E-01  5.92685E-01 -3.31753E-01
    8990.074     -6.658   0.600  2.74740E-01  6.12675E-01 -3.37935E-01
    8990.263     -6.469   0.640  2.87246E-01  6.31720E-01 -3.44474E-01
    8990.464     -6.268   0.680  2.98648E-01  6.49910E-01 -3.51262E-01
    8990.677     -6.055   0.720  3.09865E-01  6.67328E-01 -3.57463E-01
    8990.903     -5.829   0.760  3.22296E-01  6.84119E-01 -3.61823E-01
    8991.141     -5.592   0.800  3.37639E-01  7.00335E-01 -3.62696E-01
    8991.391     -5.342   0.840  3.57973E-01  7.16095E-01 -3.58121E-01
    8991.653     -5.080   0.880  3.84607E-01  7.31398E-01 -3.46791E-01
    8991.927     -4.805   0.920  4.16063E-01  7.46355E-01 -3.30292E-01
    8992.214     -4.519   0.960  4.46329E-01  7.60936E-01 -3.14607E-01
    8992.512     -4.220   1.000  4.67538E-01  7.75204E-01 -3.07666E-01
    8992.823     -3.909   1.040  4.76136E-01  7.89149E-01 -3.13013E-01
    8993.146     -3.586   1.080  4.76193E-01  8.02753E-01 -3.26560E-01
    8993.482     -3.251   1.120  4.75998E-01  8.16054E-01 -3.40056E-01
    8993.829     -2.903   1.160  4.81917E-01  8.29002E-01 -3.47085E-01
    8994.189     -2.544   1.200  4.95493E-01  8.41603E-01 -3.46110E-01
    8994.561     -2.172   1.240  5.15468E-01  8.53819E-01 -3.38350E-01
    8994.945     -1.788   1.280  5.41238E-01  8.65652E-01 -3.24414E-01
    8995.341     -1.391   1.320  5.72516E-01  8.77103E-01 -3.04587E-01
    8995.749     -0.983   1.360  6.10873E-01  8.88107E-01 -2.77234E-01
    8996.170     -0.562   1.400  6.62456E-01  8.98664E-01 -2.36208E-01
    8996.603     -0.130   1.440  7.33241E-01  9.08790E-01 -1.75550E-01
    8997.048      0.315   1.480  8.23358E-01  9.18445E-01 -9.50866E-02
    8997.505      0.773   1.520  9.35599E-01  9.27605E-01  7.99358E-03
    8997.974      1.242   1.560  1.07994E+00  9.36292E-01  1.43643E-01
    8998.456      1.724   1.600  1.25279E+00  9.44483E-01  3.08310E-01
    8998.950      2.217   1.640  1.40221E+00  9.52181E-01  4.50028E-01
    8999.456      2.723   1.680  1.47522E+00  9.59387E-01  5.15835E-01
    8999.974      3.241   1.720  1.53265E+00  9.66104E-01  5.66542E-01
    9000.504      3.772   1.760  1.63147E+00  9.72316E-01  6.59159E-01
    9001.047      4.314   1.800  1.70444E+00  9.78047E-01  7.26396E-01
    9001.601      4.869   1.840  1.68215E+00  9.83326E-01  6.98821E-01
    9002.168      5.436   1.880  1.57642E+00  9.88116E-01  5.88305E-01
    9002.747      6.015   1.920  1.44551E+00  9.92467E-01  4.53042E-01
    9003.339      6.606   1.960  1.33201E+00  9.96387E-01  3.35623E-01
    9003.942      7.210   2.000  1.23731E+00  9.99883E-01  2.37422E-01
    9004.558      7.826   2.040  1.15987E+00  1.00299E+00  1.56879E-01
    9005.186      8.454   2.080  1.11238E+00  1.00569E+00  1.06686E-01
    9005.826      9.094   2.120  1.10154E+00  1.00804E+00  9.34982E-02
    9006.478      9.746   2.160  1.11214E+00  1.01004E+00  1.02095E-01
    9007.143     10.410   2.200  1.11340E+00  1.01172E+00  1.01681E-01
    9007.819     11.087   2.240  1.08032E+00  1.01309E+00  6.72329E-02
    9008.508     11.776   2.280  1.02046E+00  1.01417E+00  6.29039E-03
    9009.209     12.477   2.320  9.65685E-01  1.01500E+00 -4.93117E-02
    9009.922     13.190   2.360  9.38607E-01  1.01557E+00 -7.69636E-02
    9010.648     13.916   2.400  9.42603E-01  1.01593E+00 -7.33231E-02
    9011.385     14.653   2.440  9.70044E-01  1.01607E+00 -4.60283E-02
    9012.135     15.403   2.480  1.01014E+00  1.01602E+00 -5.88089E-03
    9012.897     16.165   2.520  1.04701E+00  1.01582E+00  3.11946E-02
    9013.671     16.939   2.560  1.07510E+00  1.01546E+00  5.96430E-02
    9014.458     17.725   2.600  1.08791E+00  1.01494E+00  7.29695E-02
    9015.256     18.524   2.640  1.08433E+00  1.01433E+00  6.99990E-02
    9016.067     19.335   2.680  1.06817E+00  1.01362E+00  5.45529E-02
    9016.890     20.158   2.720  1.04578E+00  1.01282E+00  3.29524E-02
    9017.725     20.993   2.760  1.02267E+00  1.01195E+00  1.07206E-02
    9018.573     21.840   2.800  1.00169E+00  1.01100E+00 -9.31867E-03
    9019.432     22.700   2.840  9.83535E-01  1.01003E+00 -2.64977E-02
    9020.304     23.572   2.880  9.67505E-01  1.00902E+00 -4.15182E-02
    9021.188     24.455   2.920  9.52155E-01  1.00798E+00 -5.58258E-02
    9022.084     25.352   2.960  9.36288E-01  1.00695E+00 -7.06627E-02
    9022.992     26.260   3.000  9.19281E-01  1.00590E+00 -8.66159E-02
    9023.913     27.180   3.040  9.01490E-01  1.00484E+00 -1.03355E-01
    9024.845     28.113   3.080  8.84262E-01  1.00382E+00 -1.19559E-01
    9025.790     29.058   3.120  8.69705E-01  1.00283E+00 -1.33122E-01
    9026.747     30.015   3.160  8.59165E-01  1.00185E+00 -1.42682E-01
    9027.717     30.984   3.200  8.53052E-01  1.00090E+00 -1.47852E-01
    9028.698     31.966   3.240  8.50941E-01  1.00002E+00 -1.49080E-01
    9029.692     32.959   3.280  8.52027E-01  9.99160E-01 -1.47133E-01
    9030.698     33.965   3.320  8.55696E-01  9.98365E-01 -1.42668E-01
    9031.716     34.983   3.360  8.61684E-01  9.97617E-01 -1.35933E-01
    9032.746     36.013   3.400  8.70182E-01  9.96937E-01 -1.26756E-01
    9033.788     37.056   3.440  8.81119E-01  9.96306E-01 -1.15186E-01
    9034.843     38.110   3.480  8.94707E-01  9.95727E-01 -1.01020E-01
    9035.910     39.177   3.520  9.11133E-01  9.95243E-01 -8.41095E-02
    9036.989     40.256   3.560  9.30302E-01  9.94810E-01 -6.45080E-02
    9038.080     41.347   3.600  9.51987E-01  9.94452E-01 -4.24654E-02
    9039.183     42.451   3.640  9.75495E-01  9.94147E-01 -1.86521E-02
    9040.299     43.566   3.680  9.99530E-01  9.93917E-01  5.61310E-03
    9041.426     44.694   3.720  1.02223E+00  9.93763E-01  2.84649E-02
    9042.566     45.834   3.760  1.04184E+00  9.93682E-01  4.81530E-02
    9043.719     46.986   3.800  1.05695E+00  9.93656E-01  6.32914E-02
    9044.883     48.151   3.840  1.06654E+00  9.93704E-01  7.28333E-02
    9046.059     49.327   3.880  1.07029E+00  9.93823E-01  7.64678E-02
    9047.248     50.516   3.920  1.06873E+00  9.93992E-01  7.47425E-02
    9048.449     51.717   3.960  1.06321E+00  9.94211E-01  6.89965E-02
    9049.662     52.930   4.000  1.05565E+00  9.94499E-01  6.11528E-02
    9050.887     54.155   4.040  1.04797E+00  9.94859E-01  5.31120E-02
    9052.125     55.393   4.080  1.04151E+00  9.95264E-01  4.62442E-02
    9053.375     56.642   4.120  1.03691E+00  9.95713E-01  4.11946E-02
    9054.636     57.904   4.160  1.03421E+00  9.96203E-01  3.80052E-02
    9055.910     59.178   4.200  1.03281E+00  9.96734E-01  3.60796E-02
    9057.197     60.464   4.240  1.03167E+00  9.97305E-01  3.43650E-02
    9058.495     61.763   4.280  1.02980E+00  9.97913E-01  3.18880E-02
    9059.806     63.073   4.320  1.02706E+00  9.98559E-01  2.85023E-02
    9061.129     64.396   4.360  1.02419E+00  9.99240E-01  2.49472E-02
    9062.464     65.731   4.400  1.02215E+00  9.99933E-01  2.22124E-02
    9063.811     67.079   4.440  1.02171E+00  1.00065E+00  2.10526E-02
    9065.170     68.438   4.480  1.02322E+00  1.00138E+00  2.18397E-02
    9066.542     69.810   4.520  1.02702E+00  1.00211E+00  2.49121E-02
    9067.926     71.193   4.560  1.03352E+00  1.00287E+00  3.06550E-02
    9069.322     72.589   4.600  1.04264E+00  1.00360E+00  3.90337E-02
    9070.730     73.997   4.640  1.05340E+00  1.00436E+00  4.90370E-02
    9072.150     75.418   4.680  1.06368E+00  1.00511E+00  5.85655E-02
    9073.583     76.850   4.720  1.07084E+00  1.00584E+00  6.49954E-02
    9075.027     78.295   4.760  1.07279E+00  1.00656E+00  6.62272E-02
    9076.484     79.752   4.800  1.06887E+00  1.00728E+00  6.15986E-02
    9077.954     81.221   4.840  1.05996E+00  1.00796E+00  5.20049E-02
    9079.435     82.702   4.880  1.04795E+00  1.00863E+00  3.93247E-02
    9080.928     84.196   4.920  1.03489E+00  1.00926E+00  2.56257E-02
    9082.434     85.702   4.960  1.02240E+00  1.00985E+00  1.25451E-02
    9083.952     87.220   5.000  1.01136E+00  1.01041E+00  9.42606E-04
    9085.482     88.750   5.040  1.00186E+00  1.01096E+00 -9.09195E-03
    9087.024     90.292   5.080  9.93587E-01  1.01146E+00 -1.78687E-02
    9088.579     91.846   5.120  9.86278E-01  1.01189E+00 -2.56147E-02
    9090.145     93.413   5.160  9.80007E-01  1.01231E+00 -3.23012E-02
    9091.724     94.992   5.200  9.74888E-01  1.01266E+00 -3.77695E-02
    9093.315     96.583   5.240  9.70896E-01  1.01296E+00 -4.20664E-02
    9094.919     98.186   5.280  9.67702E-01  1.01324E+00 -4.55434E-02
    9096.534     99.802   5.320  9.64727E-01  1.01344E+00 -4.87114E-02
    9098.162    101.429   5.360  9.61487E-01  1.01361E+00 -5.21183E-02
    9099.801    103.069   5.400  9.58022E-01  1.01370E+00 -5.56826E-02
    9101.453    104.721   5.440  9.55134E-01  1.01376E+00 -5.86246E-02
    9103.118    106.385   5.480  9.53907E-01  1.01377E+00 -5.98593E-02
    9104.794    108.062   5.520  9.55123E-01  1.01373E+00 -5.86063E-02
    9106.483    109.750   5.560  9.58854E-01  1.01362E+00 -5.47685E-02
    9108.183    111.451   5.600  9.64588E-01  1.01347E+00 -4.88812E-02
    9109.896    113.164   5.640  9.71530E-01  1.01327E+00 -4.17414E-02
    9111.622    114.889   5.680  9.78816E-01  1.01301E+00 -3.41900E-02
    9113.359    116.627   5.720  9.85658E-01  1.01272E+00 -2.70618E-02
    9115.108    118.376   5.760  9.91270E-01  1.01237E+00 -2.10979E-02
    9116.870    120.138   5.800  9.95075E-01  1.01198E+00 -1.69003E-02
    9118.644    121.912   5.840  9.96723E-01  1.01155E+00 -1.48233E-02
    9120.430    123.698   5.880  9.96355E-01  1.01110E+00 -1.47494E-02
    9122.229    125.496   5.920  9.94738E-01  1.01060E+00 -1.58650E-02
    9124.039    127.307   5.960  9.93414E-01  1.01006E+00 -1.66507E-02
    9125.862    129.129   6.000  9.94163E-01  1.00946E+00 -1.52983E-02
