# # comment:                                                     FEFF 9.9.1  
# # Source:
# # Structure
# # Reduced
# # space
# # abc:
# # angles:
# # sites:
# # POT  SCF 100  7.0000   0, screened core-hole, AFOLP (folp(0)= 1.150)
# # Abs   Z=29 Rmt= 1.221 Rnm= 1.316 K  shell
# # Pot 1 Z=23 Rmt= 1.096 Rnm= 1.309
# # Pot 2 Z=29 Rmt= 1.221 Rnm= 1.316
# # Pot 3 Z= 8 Rmt= 0.921 Rnm= 1.089
# # Gam_ch=1.729E+00 H-L exch Vi= 0.000E+00 Vr= 0.000E+00
# # Mu=-8.743E+00eV kf=2.273E+00 Vint=-1.719E+01eV Rs_int= 1.596
# FMS rfms= 9.0000
# # PATH  Rmax=-1.000,  Keep_limit= 0.00, Heap_limit 0.00  Pwcrit= 2.50%
#  S02=0.950  Temp=   0.00  Debye_temp=   0.00  Global_sig2= 0.00000
#  Energy zero shift, vr, vi    0.00000E+00   0.00000E+00
#  Curved wave amplitude ratio filter   4.000%
#     file         sig2 tot  cw amp ratio   deg  nlegs   reff  inp sig2
#     0/   0 paths used
#  xsedge+ 50, used to normalize mu           2.4799E-04
#  -----------------------------------------------------------------------
#  omega    e    k    mu    mu0     chi     @#
    8983.905    -12.553  -1.000  3.59486E-02  5.00103E-02 -1.40618E-02
    8984.203    -12.254  -0.960  3.79090E-02  5.35461E-02 -1.56371E-02
    8984.490    -11.968  -0.920  4.00412E-02  5.74677E-02 -1.74265E-02
    8984.764    -11.693  -0.880  4.23679E-02  6.18315E-02 -1.94636E-02
    8985.026    -11.431  -0.840  4.49153E-02  6.67027E-02 -2.17874E-02
    8985.276    -11.181  -0.800  4.77139E-02  7.21571E-02 -2.44433E-02
    8985.514    -10.944  -0.760  5.07980E-02  7.82817E-02 -2.74837E-02
    8985.739    -10.718  -0.720  5.42067E-02  8.51744E-02 -3.09677E-02
    8985.953    -10.505  -0.680  5.79821E-02  9.29431E-02 -3.49610E-02
    8986.154    -10.304  -0.640  6.21687E-02  1.01702E-01 -3.95328E-02
    8986.343    -10.115  -0.600  6.68094E-02  1.11561E-01 -4.47518E-02
    8986.520     -9.938  -0.560  7.19405E-02  1.22617E-01 -5.06768E-02
    8986.684     -9.773  -0.520  7.75822E-02  1.34926E-01 -5.73434E-02
    8986.837     -9.621  -0.480  8.37276E-02  1.48473E-01 -6.47450E-02
    8986.977     -9.481  -0.440  9.03282E-02  1.63140E-01 -7.28114E-02
    8987.105     -9.353  -0.400  9.72825E-02  1.78673E-01 -8.13904E-02
    8987.221     -9.237  -0.360  1.04430E-01  1.94674E-01 -9.02438E-02
    8987.324     -9.133  -0.320  1.11562E-01  2.10626E-01 -9.90646E-02
    8987.416     -9.042  -0.280  1.18437E-01  2.25954E-01 -1.07517E-01
    8987.495     -8.962  -0.240  1.24820E-01  2.40104E-01 -1.15284E-01
    8987.562     -8.895  -0.200  1.30501E-01  2.52612E-01 -1.22111E-01
    8987.617     -8.840  -0.160  1.35319E-01  2.63138E-01 -1.27819E-01
    8987.660     -8.798  -0.120  1.39160E-01  2.71461E-01 -1.32301E-01
    8987.690     -8.767  -0.080  1.41954E-01  2.77459E-01 -1.35504E-01
    8987.715     -8.743   0.000  1.44236E-01  2.82278E-01 -1.38042E-01
    8987.769     -8.688   0.120  1.49252E-01  2.93149E-01 -1.43898E-01
    8987.812     -8.645   0.160  1.53166E-01  3.01615E-01 -1.48449E-01
    8987.867     -8.591   0.200  1.58172E-01  3.12424E-01 -1.54252E-01
    8987.934     -8.523   0.240  1.64241E-01  3.25437E-01 -1.61196E-01
    8988.013     -8.444   0.280  1.71273E-01  3.40404E-01 -1.69130E-01
    8988.105     -8.353   0.320  1.79154E-01  3.56958E-01 -1.77803E-01
    8988.208     -8.249   0.360  1.87672E-01  3.74623E-01 -1.86951E-01
    8988.324     -8.133   0.400  1.96709E-01  3.92931E-01 -1.96222E-01
    8988.452     -8.005   0.440  2.06172E-01  4.11417E-01 -2.05245E-01
    8988.592     -7.865   0.480  2.16075E-01  4.29718E-01 -2.13643E-01
    8988.745     -7.713   0.520  2.26593E-01  4.47634E-01 -2.21042E-01
    8988.909     -7.548   0.560  2.37728E-01  4.65047E-01 -2.27319E-01
    8989.086     -7.371   0.600  2.49179E-01  4.81929E-01 -2.32750E-01
    8989.275     -7.182   0.640  2.60247E-01  4.98328E-01 -2.38081E-01
    8989.476     -6.981   0.680  2.70099E-01  5.14326E-01 -2.44227E-01
    8989.690     -6.768   0.720  2.78164E-01  5.29977E-01 -2.51812E-01
    8989.915     -6.542   0.760  2.84357E-01  5.45371E-01 -2.61015E-01
    8990.153     -6.305   0.800  2.88670E-01  5.60592E-01 -2.71922E-01
    8990.403     -6.055   0.840  2.91114E-01  5.75672E-01 -2.84559E-01
    8990.665     -5.792   0.880  2.92462E-01  5.90652E-01 -2.98190E-01
    8990.939     -5.518   0.920  2.94304E-01  6.05596E-01 -3.11292E-01
    8991.226     -5.232   0.960  2.97915E-01  6.20484E-01 -3.22569E-01
    8991.525     -4.933   1.000  3.04384E-01  6.35344E-01 -3.30960E-01
    8991.835     -4.622   1.040  3.15209E-01  6.50176E-01 -3.34967E-01
    8992.159     -4.299   1.080  3.32157E-01  6.64970E-01 -3.32814E-01
    8992.494     -3.964   1.120  3.55813E-01  6.79715E-01 -3.23902E-01
    8992.841     -3.616   1.160  3.85256E-01  6.94373E-01 -3.09117E-01
    8993.201     -3.257   1.200  4.19925E-01  7.08943E-01 -2.89018E-01
    8993.573     -2.885   1.240  4.58801E-01  7.23400E-01 -2.64599E-01
    8993.957     -2.501   1.280  4.96899E-01  7.37719E-01 -2.40820E-01
    8994.353     -2.104   1.320  5.30353E-01  7.51851E-01 -2.21498E-01
    8994.762     -1.696   1.360  5.63889E-01  7.65785E-01 -2.01897E-01
    8995.182     -1.275   1.400  6.00580E-01  7.79491E-01 -1.78910E-01
    8995.615     -0.843   1.440  6.33890E-01  7.92916E-01 -1.59026E-01
    8996.060     -0.398   1.480  6.60045E-01  8.06051E-01 -1.46006E-01
    8996.517      0.060   1.520  6.88446E-01  8.18864E-01 -1.30418E-01
    8996.987      0.529   1.560  7.31140E-01  8.31345E-01 -1.00205E-01
    8997.468      1.011   1.600  7.89653E-01  8.43442E-01 -5.37893E-02
    8997.962      1.504   1.640  8.52026E-01  8.55148E-01 -3.12202E-03
    8998.468      2.010   1.680  9.04384E-01  8.66453E-01  3.79315E-02
    8998.986      2.529   1.720  9.50375E-01  8.77310E-01  7.30645E-02
    8999.516      3.059   1.760  9.98077E-01  8.87733E-01  1.10343E-01
    9000.059      3.601   1.800  1.04150E+00  8.97696E-01  1.43802E-01
    9000.614      4.156   1.840  1.07367E+00  9.07197E-01  1.66468E-01
    9001.181      4.723   1.880  1.09507E+00  9.16211E-01  1.78856E-01
    9001.760      5.302   1.920  1.11727E+00  9.24757E-01  1.92512E-01
    9002.351      5.893   1.960  1.15778E+00  9.32836E-01  2.24943E-01
    9002.955      6.497   2.000  1.21794E+00  9.40408E-01  2.77532E-01
    9003.570      7.113   2.040  1.27919E+00  9.47533E-01  3.31661E-01
    9004.198      7.741   2.080  1.32186E+00  9.54157E-01  3.67704E-01
    9004.838      8.381   2.120  1.33522E+00  9.60341E-01  3.74879E-01
    9005.490      9.033   2.160  1.32481E+00  9.66052E-01  3.58763E-01
    9006.155      9.697   2.200  1.30550E+00  9.71314E-01  3.34188E-01
    9006.832     10.374   2.240  1.28257E+00  9.76154E-01  3.06413E-01
    9007.520     11.063   2.280  1.25377E+00  9.80578E-01  2.73193E-01
    9008.221     11.764   2.320  1.22021E+00  9.84574E-01  2.35639E-01
    9008.935     12.477   2.360  1.18633E+00  9.88190E-01  1.98137E-01
    9009.660     13.203   2.400  1.15437E+00  9.91434E-01  1.62935E-01
    9010.398     13.940   2.440  1.12187E+00  9.94315E-01  1.27557E-01
    9011.147     14.690   2.480  1.08705E+00  9.96861E-01  9.01936E-02
    9011.909     15.452   2.520  1.05308E+00  9.99082E-01  5.39971E-02
    9012.684     16.226   2.560  1.02501E+00  1.00098E+00  2.40248E-02
    9013.470     17.013   2.600  1.00351E+00  1.00260E+00  9.07561E-04
    9014.269     17.811   2.640  9.86710E-01  1.00396E+00 -1.72475E-02
    9015.079     18.622   2.680  9.75224E-01  1.00504E+00 -2.98208E-02
    9015.902     19.445   2.720  9.67676E-01  1.00591E+00 -3.82347E-02
    9016.738     20.280   2.760  9.62830E-01  1.00654E+00 -4.37136E-02
    9017.585     21.127   2.800  9.60697E-01  1.00697E+00 -4.62770E-02
    9018.444     21.987   2.840  9.61147E-01  1.00723E+00 -4.60836E-02
    9019.316     22.859   2.880  9.62954E-01  1.00732E+00 -4.43650E-02
    9020.200     23.743   2.920  9.64353E-01  1.00725E+00 -4.28958E-02
    9021.096     24.639   2.960  9.63833E-01  1.00703E+00 -4.31928E-02
    9022.004     25.547   3.000  9.60606E-01  1.00670E+00 -4.60918E-02
    9022.925     26.467   3.040  9.54753E-01  1.00623E+00 -5.14787E-02
    9023.858     27.400   3.080  9.47226E-01  1.00570E+00 -5.84704E-02
    9024.802     28.345   3.120  9.38974E-01  1.00506E+00 -6.60824E-02
    9025.760     29.302   3.160  9.30766E-01  1.00436E+00 -7.35932E-02
    9026.729     30.271   3.200  9.23150E-01  1.00359E+00 -8.04371E-02
    9027.710     31.253   3.240  9.16469E-01  1.00275E+00 -8.62779E-02
    9028.704     32.246   3.280  9.10752E-01  1.00189E+00 -9.11342E-02
    9029.710     33.252   3.320  9.05938E-01  1.00099E+00 -9.50496E-02
    9030.728     34.270   3.360  9.02237E-01  1.00008E+00 -9.78411E-02
    9031.758     35.300   3.400  8.99702E-01  9.99140E-01 -9.94385E-02
    9032.800     36.343   3.440  8.98452E-01  9.98198E-01 -9.97460E-02
    9033.855     37.397   3.480  8.98607E-01  9.97276E-01 -9.86692E-02
    9034.922     38.464   3.520  9.00139E-01  9.96335E-01 -9.61963E-02
    9036.001     39.543   3.560  9.02999E-01  9.95419E-01 -9.24204E-02
    9037.092     40.634   3.600  9.07172E-01  9.94512E-01 -8.73400E-02
    9038.195     41.738   3.640  9.12711E-01  9.93637E-01 -8.09254E-02
    9039.311     42.853   3.680  9.19570E-01  9.92794E-01 -7.32238E-02
    9040.439     43.981   3.720  9.27631E-01  9.91966E-01 -6.43346E-02
    9041.579     45.121   3.760  9.36852E-01  9.91174E-01 -5.43220E-02
    9042.731     46.273   3.800  9.47109E-01  9.90442E-01 -4.33325E-02
    9043.895     47.438   3.840  9.58127E-01  9.89730E-01 -3.16028E-02
    9045.072     48.614   3.880  9.69685E-01  9.89079E-01 -1.93938E-02
    9046.260     49.803   3.920  9.81404E-01  9.88450E-01 -7.04546E-03
    9047.461     51.004   3.960  9.92892E-01  9.87886E-01  5.00607E-03
    9048.674     52.217   4.000  1.00373E+00  9.87386E-01  1.63459E-02
    9049.900     53.442   4.040  1.01359E+00  9.86910E-01  2.66816E-02
    9051.137     54.680   4.080  1.02235E+00  9.86499E-01  3.58504E-02
    9052.387     55.929   4.120  1.03002E+00  9.86131E-01  4.38900E-02
    9053.649     57.191   4.160  1.03685E+00  9.85806E-01  5.10455E-02
    9054.923     58.465   4.200  1.04309E+00  9.85525E-01  5.75622E-02
    9056.209     59.751   4.240  1.04881E+00  9.85311E-01  6.34939E-02
    9057.507     61.050   4.280  1.05379E+00  9.85142E-01  6.86446E-02
    9058.818     62.361   4.320  1.05752E+00  9.85015E-01  7.25030E-02
    9060.141     63.683   4.360  1.05942E+00  9.84953E-01  7.44638E-02
    9061.476     65.018   4.400  1.05911E+00  9.84913E-01  7.41959E-02
    9062.823     66.366   4.440  1.05678E+00  9.84935E-01  7.18462E-02
    9064.182     67.725   4.480  1.05297E+00  9.84997E-01  6.79712E-02
    9065.554     69.097   4.520  1.04851E+00  9.85099E-01  6.34103E-02
    9066.938     70.480   4.560  1.04430E+00  9.85216E-01  5.90830E-02
    9068.334     71.876   4.600  1.04107E+00  9.85391E-01  5.56795E-02
    9069.742     73.284   4.640  1.03903E+00  9.85582E-01  5.34454E-02
    9071.162     74.705   4.680  1.03796E+00  9.85809E-01  5.21512E-02
    9072.595     76.137   4.720  1.03722E+00  9.86071E-01  5.11480E-02
    9074.040     77.582   4.760  1.03598E+00  9.86365E-01  4.96188E-02
    9075.497     79.039   4.800  1.03351E+00  9.86670E-01  4.68356E-02
    9076.966     80.508   4.840  1.02934E+00  9.87006E-01  4.23309E-02
    9078.447     81.990   4.880  1.02338E+00  9.87348E-01  3.60289E-02
    9079.941     83.483   4.920  1.01594E+00  9.87694E-01  2.82447E-02
    9081.446     84.989   4.960  1.00755E+00  9.88068E-01  1.94843E-02
    9082.964     86.507   5.000  9.98671E-01  9.88444E-01  1.02267E-02
    9084.494     88.037   5.040  9.89573E-01  9.88822E-01  7.50337E-04
    9086.037     89.579   5.080  9.80347E-01  9.89201E-01 -8.85359E-03
    9087.591     91.134   5.120  9.71060E-01  9.89577E-01 -1.85172E-02
    9089.158     92.700   5.160  9.61886E-01  9.89952E-01 -2.80659E-02
    9090.737     94.279   5.200  9.53156E-01  9.90322E-01 -3.71662E-02
    9092.328     95.870   5.240  9.45317E-01  9.90664E-01 -4.53476E-02
    9093.931     97.473   5.280  9.39005E-01  9.91001E-01 -5.19960E-02
    9095.546     99.089   5.320  9.34842E-01  9.91334E-01 -5.64924E-02
    9097.174    100.716   5.360  9.33274E-01  9.91659E-01 -5.83858E-02
    9098.814    102.356   5.400  9.34328E-01  9.91955E-01 -5.76268E-02
    9100.466    104.008   5.440  9.37617E-01  9.92240E-01 -5.46227E-02
    9102.130    105.672   5.480  9.42343E-01  9.92490E-01 -5.01476E-02
    9103.806    107.349   5.520  9.47608E-01  9.92707E-01 -4.50991E-02
    9105.495    109.037   5.560  9.52633E-01  9.92910E-01 -4.02776E-02
    9107.196    110.738   5.600  9.56993E-01  9.93079E-01 -3.60866E-02
    9108.909    112.451   5.640  9.60801E-01  9.93211E-01 -3.24102E-02
    9110.634    114.176   5.680  9.64498E-01  9.93306E-01 -2.88079E-02
    9112.371    115.914   5.720  9.68403E-01  9.93387E-01 -2.49835E-02
    9114.121    117.663   5.760  9.72372E-01  9.93429E-01 -2.10576E-02
    9115.882    119.425   5.800  9.75885E-01  9.93411E-01 -1.75267E-02
    9117.656    121.199   5.840  9.78408E-01  9.93380E-01 -1.49727E-02
    9119.442    122.985   5.880  9.79570E-01  9.93337E-01 -1.37667E-02
    9121.241    124.783   5.920  9.79351E-01  9.93233E-01 -1.38811E-02
    9123.051    126.594   5.960  9.78168E-01  9.93087E-01 -1.49189E-02
    9124.874    128.416   6.000  9.76628E-01  9.92909E-01 -1.62813E-02
