# # comment:                                                     FEFF 9.9.1  
# # Source:
# # Structure
# # Reduced
# # space
# # abc:
# # angles:102.699270
# # sites:
# # POT  SCF 100  7.0000   0, screened core-hole, AFOLP (folp(0)= 1.150)
# # Abs   Z=29 Rmt= 1.233 Rnm= 1.305 K  shell
# # Pot 1 Z=38 Rmt= 1.780 Rnm= 1.849
# # Pot 2 Z=13 Rmt= 1.157 Rnm= 1.328
# # Pot 3 Z=29 Rmt= 1.232 Rnm= 1.305
# # Pot 4 Z= 8 Rmt= 1.011 Rnm= 1.091
# # Gam_ch=1.729E+00 H-L exch Vi= 0.000E+00 Vr= 0.000E+00
# # Mu=-8.045E+00eV kf=2.083E+00 Vint=-1.697E+01eV Rs_int= 1.741
# FMS rfms= 9.0000
# # PATH  Rmax=-1.000,  Keep_limit= 0.00, Heap_limit 0.00  Pwcrit= 2.50%
#  S02=0.950  Temp=   0.00  Debye_temp=   0.00  Global_sig2= 0.00000
#  Energy zero shift, vr, vi    0.00000E+00   0.00000E+00
#  Curved wave amplitude ratio filter   4.000%
#     file         sig2 tot  cw amp ratio   deg  nlegs   reff  inp sig2
#     0/   0 paths used
#  xsedge+ 50, used to normalize mu           2.4494E-04
#  -----------------------------------------------------------------------
#  omega    e    k    mu    mu0     chi     @#
    8984.288    -11.855  -1.000  3.95672E-02  5.63804E-02 -1.68132E-02
    8984.587    -11.556  -0.960  4.16394E-02  6.05358E-02 -1.88964E-02
    8984.873    -11.269  -0.920  4.38621E-02  6.51576E-02 -2.12955E-02
    8985.148    -10.995  -0.880  4.62498E-02  7.03146E-02 -2.40648E-02
    8985.410    -10.733  -0.840  4.88184E-02  7.60871E-02 -2.72687E-02
    8985.660    -10.483  -0.800  5.15858E-02  8.25680E-02 -3.09822E-02
    8985.898    -10.245  -0.760  5.45714E-02  8.98641E-02 -3.52927E-02
    8986.123    -10.020  -0.720  5.77964E-02  9.80962E-02 -4.02998E-02
    8986.337     -9.806  -0.680  6.12825E-02  1.07397E-01 -4.61144E-02
    8986.538     -9.605  -0.640  6.50515E-02  1.17907E-01 -5.28553E-02
    8986.727     -9.416  -0.600  6.91221E-02  1.29764E-01 -6.06414E-02
    8986.903     -9.239  -0.560  7.35068E-02  1.43085E-01 -6.95782E-02
    8987.068     -9.075  -0.520  7.82049E-02  1.57941E-01 -7.97365E-02
    8987.220     -8.922  -0.480  8.31949E-02  1.74317E-01 -9.11226E-02
    8987.361     -8.782  -0.440  8.84254E-02  1.92069E-01 -1.03644E-01
    8987.489     -8.654  -0.400  9.38078E-02  2.10888E-01 -1.17080E-01
    8987.604     -8.538  -0.360  9.92161E-02  2.30285E-01 -1.31069E-01
    8987.708     -8.435  -0.320  1.04497E-01  2.49630E-01 -1.45133E-01
    8987.800     -8.343  -0.280  1.09487E-01  2.68218E-01 -1.58731E-01
    8987.879     -8.264  -0.240  1.14039E-01  2.85376E-01 -1.71337E-01
    8987.946     -8.197  -0.200  1.18032E-01  3.00538E-01 -1.82506E-01
    8988.001     -8.142  -0.160  1.21381E-01  3.13290E-01 -1.91909E-01
    8988.043     -8.099  -0.120  1.24031E-01  3.23370E-01 -1.99339E-01
    8988.074     -8.069  -0.080  1.25948E-01  3.30631E-01 -2.04683E-01
    8988.098     -8.045   0.000  1.27502E-01  3.36464E-01 -2.08962E-01
    8988.153     -7.990   0.120  1.31060E-01  3.49619E-01 -2.18559E-01
    8988.196     -7.947   0.160  1.33797E-01  3.59834E-01 -2.26037E-01
    8988.251     -7.892   0.200  1.37298E-01  3.72870E-01 -2.35572E-01
    8988.318     -7.825   0.240  1.41573E-01  3.88547E-01 -2.46974E-01
    8988.397     -7.746   0.280  1.46621E-01  4.06549E-01 -2.59928E-01
    8988.488     -7.654   0.320  1.52450E-01  4.26414E-01 -2.73963E-01
    8988.592     -7.551   0.360  1.59082E-01  4.47526E-01 -2.88444E-01
    8988.708     -7.435   0.400  1.66648E-01  4.69296E-01 -3.02648E-01
    8988.836     -7.307   0.440  1.75364E-01  4.91145E-01 -3.15780E-01
    8988.976     -7.167   0.480  1.85576E-01  5.12641E-01 -3.27064E-01
    8989.128     -7.014   0.520  1.97833E-01  5.33488E-01 -3.35655E-01
    8989.293     -6.850   0.560  2.12957E-01  5.53538E-01 -3.40581E-01
    8989.470     -6.673   0.600  2.32146E-01  5.72778E-01 -3.40632E-01
    8989.659     -6.484   0.640  2.56897E-01  5.91245E-01 -3.34348E-01
    8989.860     -6.283   0.680  2.89016E-01  6.08999E-01 -3.19984E-01
    8990.073     -6.069   0.720  3.30304E-01  6.26174E-01 -2.95870E-01
    8990.299     -5.844   0.760  3.81814E-01  6.42839E-01 -2.61025E-01
    8990.537     -5.606   0.800  4.42321E-01  6.59077E-01 -2.16756E-01
    8990.787     -5.356   0.840  5.05878E-01  6.74956E-01 -1.69078E-01
    8991.049     -5.094   0.880  5.60232E-01  6.90529E-01 -1.30297E-01
    8991.323     -4.820   0.920  5.90383E-01  7.05833E-01 -1.15450E-01
    8991.610     -4.533   0.960  5.88037E-01  7.20876E-01 -1.32839E-01
    8991.908     -4.235   1.000  5.59084E-01  7.35692E-01 -1.76608E-01
    8992.219     -3.924   1.040  5.20159E-01  7.50289E-01 -2.30130E-01
    8992.542     -3.601   1.080  4.87010E-01  7.64643E-01 -2.77633E-01
    8992.877     -3.265   1.120  4.67002E-01  7.78744E-01 -3.11742E-01
    8993.225     -2.918   1.160  4.61503E-01  7.92580E-01 -3.31077E-01
    8993.585     -2.558   1.200  4.70008E-01  8.06112E-01 -3.36105E-01
    8993.956     -2.186   1.240  4.89495E-01  8.19362E-01 -3.29867E-01
    8994.341     -1.802   1.280  5.14065E-01  8.32264E-01 -3.18198E-01
    8994.737     -1.406   1.320  5.39471E-01  8.44813E-01 -3.05342E-01
    8995.145     -0.998   1.360  5.63195E-01  8.56986E-01 -2.93791E-01
    8995.566     -0.577   1.400  5.82327E-01  8.68755E-01 -2.86428E-01
    8995.999     -0.144   1.440  6.00784E-01  8.80095E-01 -2.79311E-01
    8996.444      0.301   1.480  6.29205E-01  8.91000E-01 -2.61795E-01
    8996.901      0.758   1.520  6.77033E-01  9.01445E-01 -2.24412E-01
    8997.370      1.227   1.560  7.48244E-01  9.11405E-01 -1.63161E-01
    8997.852      1.709   1.600  8.45029E-01  9.20897E-01 -7.58686E-02
    8998.346      2.203   1.640  9.72703E-01  9.29879E-01  4.28241E-02
    8998.852      2.709   1.680  1.12159E+00  9.38369E-01  1.83223E-01
    8999.370      3.227   1.720  1.26452E+00  9.46349E-01  3.18168E-01
    8999.900      3.757   1.760  1.39164E+00  9.53837E-01  4.37804E-01
    9000.443      4.300   1.800  1.49117E+00  9.60818E-01  5.30349E-01
    9000.997      4.855   1.840  1.53619E+00  9.67296E-01  5.68893E-01
    9001.564      5.421   1.880  1.52638E+00  9.73273E-01  5.53108E-01
    9002.143      6.001   1.920  1.49674E+00  9.78796E-01  5.17942E-01
    9002.735      6.592   1.960  1.48540E+00  9.83831E-01  5.01570E-01
    9003.338      7.195   2.000  1.49492E+00  9.88407E-01  5.06513E-01
    9003.954      7.811   2.040  1.49530E+00  9.92551E-01  5.02750E-01
    9004.582      8.439   2.080  1.45961E+00  9.96272E-01  4.63337E-01
    9005.222      9.079   2.120  1.38780E+00  9.99579E-01  3.88225E-01
    9005.874      9.731   2.160  1.29662E+00  1.00248E+00  2.94139E-01
    9006.539     10.396   2.200  1.20427E+00  1.00503E+00  1.99242E-01
    9007.215     11.072   2.240  1.12545E+00  1.00721E+00  1.18236E-01
    9007.904     11.761   2.280  1.06654E+00  1.00906E+00  5.74759E-02
    9008.605     12.462   2.320  1.02393E+00  1.01061E+00  1.33262E-02
    9009.318     13.176   2.360  9.89496E-01  1.01186E+00 -2.23676E-02
    9010.044     13.901   2.400  9.60336E-01  1.01286E+00 -5.25227E-02
    9010.781     14.639   2.440  9.39247E-01  1.01358E+00 -7.43352E-02
    9011.531     15.388   2.480  9.27299E-01  1.01408E+00 -8.67850E-02
    9012.293     16.150   2.520  9.28022E-01  1.01437E+00 -8.63525E-02
    9013.067     16.925   2.560  9.32007E-01  1.01446E+00 -8.24570E-02
    9013.854     17.711   2.600  9.38390E-01  1.01438E+00 -7.59908E-02
    9014.652     18.510   2.640  9.45500E-01  1.01414E+00 -6.86348E-02
    9015.463     19.320   2.680  9.51205E-01  1.01376E+00 -6.25505E-02
    9016.286     20.143   2.720  9.53852E-01  1.01325E+00 -5.93981E-02
    9017.121     20.978   2.760  9.53192E-01  1.01263E+00 -5.94343E-02
    9017.969     21.826   2.800  9.50497E-01  1.01191E+00 -6.14174E-02
    9018.828     22.685   2.840  9.47595E-01  1.01112E+00 -6.35263E-02
    9019.700     23.557   2.880  9.45948E-01  1.01027E+00 -6.43250E-02
    9020.584     24.441   2.920  9.46085E-01  1.00938E+00 -6.32913E-02
    9021.480     25.337   2.960  9.47827E-01  1.00842E+00 -6.05889E-02
    9022.388     26.245   3.000  9.51107E-01  1.00744E+00 -5.63315E-02
    9023.309     27.166   3.040  9.55594E-01  1.00643E+00 -5.08353E-02
    9024.241     28.098   3.080  9.60966E-01  1.00544E+00 -4.44700E-02
    9025.186     29.043   3.120  9.66358E-01  1.00442E+00 -3.80621E-02
    9026.143     30.000   3.160  9.70382E-01  1.00343E+00 -3.30459E-02
    9027.112     30.970   3.200  9.71692E-01  1.00244E+00 -3.07483E-02
    9028.094     31.951   3.240  9.69521E-01  1.00146E+00 -3.19408E-02
    9029.088     32.945   3.280  9.63839E-01  1.00052E+00 -3.66791E-02
    9030.093     33.951   3.320  9.55434E-01  9.99633E-01 -4.41989E-02
    9031.111     34.969   3.360  9.45562E-01  9.98765E-01 -5.32033E-02
    9032.142     35.999   3.400  9.35688E-01  9.97938E-01 -6.22509E-02
    9033.184     37.041   3.440  9.27021E-01  9.97177E-01 -7.01560E-02
    9034.239     38.096   3.480  9.20480E-01  9.96461E-01 -7.59809E-02
    9035.305     39.163   3.520  9.16740E-01  9.95791E-01 -7.90509E-02
    9036.384     40.242   3.560  9.16023E-01  9.95190E-01 -7.91672E-02
    9037.476     41.333   3.600  9.18049E-01  9.94639E-01 -7.65900E-02
    9038.579     42.436   3.640  9.22623E-01  9.94158E-01 -7.15350E-02
    9039.695     43.552   3.680  9.29628E-01  9.93727E-01 -6.40992E-02
    9040.822     44.680   3.720  9.38924E-01  9.93369E-01 -5.44446E-02
    9041.962     45.819   3.760  9.50079E-01  9.93084E-01 -4.30042E-02
    9043.114     46.972   3.800  9.62052E-01  9.92850E-01 -3.07985E-02
    9044.279     48.136   3.840  9.73179E-01  9.92687E-01 -1.95079E-02
    9045.455     49.312   3.880  9.81753E-01  9.92574E-01 -1.08217E-02
    9046.644     50.501   3.920  9.87032E-01  9.92532E-01 -5.49992E-03
    9047.845     51.702   3.960  9.89510E-01  9.92540E-01 -3.03053E-03
    9049.058     52.915   4.000  9.90821E-01  9.92619E-01 -1.79785E-03
    9050.283     54.140   4.040  9.92874E-01  9.92744E-01  1.30200E-04
    9051.521     55.378   4.080  9.97290E-01  9.92937E-01  4.35308E-03
    9052.770     56.628   4.120  1.00492E+00  9.93155E-01  1.17615E-02
    9054.032     57.890   4.160  1.01602E+00  9.93461E-01  2.25544E-02
    9055.306     59.164   4.200  1.03012E+00  9.93788E-01  3.63358E-02
    9056.593     60.450   4.240  1.04633E+00  9.94157E-01  5.21759E-02
    9057.891     61.748   4.280  1.06330E+00  9.94589E-01  6.87152E-02
    9059.202     63.059   4.320  1.07958E+00  9.95038E-01  8.45412E-02
    9060.525     64.382   4.360  1.09408E+00  9.95546E-01  9.85386E-02
    9061.860     65.717   4.400  1.10629E+00  9.96069E-01  1.10223E-01
    9063.207     67.064   4.440  1.11624E+00  9.96602E-01  1.19637E-01
    9064.566     68.423   4.480  1.12378E+00  9.97189E-01  1.26591E-01
    9065.938     69.795   4.520  1.12779E+00  9.97787E-01  1.30001E-01
    9067.322     71.179   4.560  1.12659E+00  9.98393E-01  1.28197E-01
    9068.718     72.575   4.600  1.11903E+00  9.99025E-01  1.20005E-01
    9070.126     73.983   4.640  1.10529E+00  9.99661E-01  1.05627E-01
    9071.546     75.403   4.680  1.08707E+00  1.00030E+00  8.67726E-02
    9072.979     76.836   4.720  1.06670E+00  1.00093E+00  6.57675E-02
    9074.423     78.281   4.760  1.04604E+00  1.00157E+00  4.44702E-02
    9075.880     79.737   4.800  1.02615E+00  1.00220E+00  2.39468E-02
    9077.349     81.207   4.840  1.00759E+00  1.00283E+00  4.76055E-03
    9078.831     82.688   4.880  9.90800E-01  1.00343E+00 -1.26291E-02
    9080.324     84.181   4.920  9.76187E-01  1.00402E+00 -2.78330E-02
    9081.830     85.687   4.960  9.63833E-01  1.00460E+00 -4.07691E-02
    9083.348     87.205   5.000  9.53542E-01  1.00515E+00 -5.16081E-02
    9084.878     88.735   5.040  9.45094E-01  1.00566E+00 -6.05695E-02
    9086.420     90.277   5.080  9.38374E-01  1.00616E+00 -6.77896E-02
    9087.975     91.832   5.120  9.33330E-01  1.00663E+00 -7.32971E-02
    9089.541     93.399   5.160  9.30039E-01  1.00705E+00 -7.70142E-02
    9091.120     94.977   5.200  9.28618E-01  1.00744E+00 -7.88210E-02
    9092.711     96.568   5.240  9.29036E-01  1.00781E+00 -7.87716E-02
    9094.315     98.172   5.280  9.31123E-01  1.00811E+00 -7.69894E-02
    9095.930     99.787   5.320  9.35007E-01  1.00838E+00 -7.33694E-02
    9097.558    101.415   5.360  9.41047E-01  1.00862E+00 -6.75729E-02
    9099.197    103.055   5.400  9.49360E-01  1.00880E+00 -5.94383E-02
    9100.849    104.707   5.440  9.59605E-01  1.00893E+00 -4.93283E-02
    9102.514    106.371   5.480  9.71000E-01  1.00902E+00 -3.80240E-02
    9104.190    108.047   5.520  9.82596E-01  1.00907E+00 -2.64743E-02
    9105.879    109.736   5.560  9.93388E-01  1.00905E+00 -1.56632E-02
    9107.579    111.437   5.600  1.00238E+00  1.00901E+00 -6.62628E-03
    9109.292    113.150   5.640  1.00863E+00  1.00890E+00 -2.69882E-04
    9111.017    114.875   5.680  1.01175E+00  1.00875E+00  2.99786E-03
    9112.755    116.612   5.720  1.01202E+00  1.00856E+00  3.46540E-03
    9114.504    118.362   5.760  1.01038E+00  1.00832E+00  2.05678E-03
    9116.266    120.123   5.800  1.00810E+00  1.00805E+00  5.03129E-05
    9118.040    121.897   5.840  1.00635E+00  1.00773E+00 -1.38125E-03
    9119.826    123.683   5.880  1.00577E+00  1.00736E+00 -1.58755E-03
    9121.624    125.482   5.920  1.00639E+00  1.00697E+00 -5.74625E-04
    9123.435    127.292   5.960  1.00804E+00  1.00654E+00  1.50147E-03
    9125.258    129.115   6.000  1.01014E+00  1.00605E+00  4.08081E-03
