# # comment:                                                     FEFF 9.9.1  
# # Source:
# # Structure
# # Reduced
# # space
# # abc:
# # angles:
# # sites:
# # POT  SCF 100  7.0000   0, screened core-hole, AFOLP (folp(0)= 1.150)
# # Abs   Z=29 Rmt= 1.263 Rnm= 1.333 K  shell
# # Pot 1 Z=38 Rmt= 1.832 Rnm= 1.896
# # Pot 2 Z=29 Rmt= 1.263 Rnm= 1.333
# # Pot 3 Z=15 Rmt= 0.939 Rnm= 1.152
# # Pot 4 Z= 8 Rmt= 0.936 Rnm= 1.044
# # Gam_ch=1.729E+00 H-L exch Vi= 0.000E+00 Vr= 0.000E+00
# # Mu=-6.860E+00eV kf=2.375E+00 Vint=-1.816E+01eV Rs_int= 1.527
# FMS rfms= 9.0000
# # PATH  Rmax=-1.000,  Keep_limit= 0.00, Heap_limit 0.00  Pwcrit= 2.50%
#  S02=0.950  Temp=   0.00  Debye_temp=   0.00  Global_sig2= 0.00000
#  Energy zero shift, vr, vi    0.00000E+00   0.00000E+00
#  Curved wave amplitude ratio filter   4.000%
#     file         sig2 tot  cw amp ratio   deg  nlegs   reff  inp sig2
#     0/   0 paths used
#  xsedge+ 50, used to normalize mu           2.4972E-04
#  -----------------------------------------------------------------------
#  omega    e    k    mu    mu0     chi     @#
    8983.611    -10.670  -1.000  4.01013E-02  5.10308E-02 -1.09295E-02
    8983.909    -10.371  -0.960  4.24485E-02  5.47141E-02 -1.22656E-02
    8984.196    -10.085  -0.920  4.50084E-02  5.88088E-02 -1.38004E-02
    8984.470     -9.810  -0.880  4.78080E-02  6.33757E-02 -1.55677E-02
    8984.732     -9.548  -0.840  5.08784E-02  6.84861E-02 -1.76077E-02
    8984.982     -9.298  -0.800  5.42549E-02  7.42225E-02 -1.99676E-02
    8985.220     -9.060  -0.760  5.79772E-02  8.06796E-02 -2.27024E-02
    8985.446     -8.835  -0.720  6.20893E-02  8.79646E-02 -2.58753E-02
    8985.659     -8.622  -0.680  6.66387E-02  9.61959E-02 -2.95572E-02
    8985.860     -8.420  -0.640  7.16741E-02  1.05498E-01 -3.38242E-02
    8986.049     -8.231  -0.600  7.72422E-02  1.15995E-01 -3.87524E-02
    8986.226     -8.055  -0.560  8.33812E-02  1.27790E-01 -4.44089E-02
    8986.390     -7.890  -0.520  9.01118E-02  1.40948E-01 -5.08357E-02
    8986.543     -7.738  -0.480  9.74244E-02  1.55454E-01 -5.80294E-02
    8986.683     -7.597  -0.440  1.05265E-01  1.71181E-01 -6.59162E-02
    8986.811     -7.469  -0.400  1.13522E-01  1.87854E-01 -7.43324E-02
    8986.927     -7.354  -0.360  1.22020E-01  2.05040E-01 -8.30197E-02
    8987.031     -7.250  -0.320  1.30529E-01  2.22175E-01 -9.16467E-02
    8987.122     -7.159  -0.280  1.38779E-01  2.38636E-01 -9.98568E-02
    8987.201     -7.079  -0.240  1.46499E-01  2.53824E-01 -1.07325E-01
    8987.268     -7.012  -0.200  1.53433E-01  2.67238E-01 -1.13804E-01
    8987.323     -6.957  -0.160  1.59372E-01  2.78514E-01 -1.19142E-01
    8987.366     -6.915  -0.120  1.64152E-01  2.87422E-01 -1.23270E-01
    8987.396     -6.884  -0.080  1.67661E-01  2.93835E-01 -1.26175E-01
    8987.421     -6.860   0.000  1.70562E-01  2.98985E-01 -1.28423E-01
    8987.476     -6.805   0.120  1.77001E-01  3.10600E-01 -1.33599E-01
    8987.518     -6.762   0.160  1.82029E-01  3.19600E-01 -1.37571E-01
    8987.573     -6.707   0.200  1.88597E-01  3.31105E-01 -1.42509E-01
    8987.640     -6.640   0.240  1.96676E-01  3.44906E-01 -1.48230E-01
    8987.719     -6.561   0.280  2.06278E-01  3.60729E-01 -1.54451E-01
    8987.811     -6.470   0.320  2.17276E-01  3.78131E-01 -1.60855E-01
    8987.914     -6.366   0.360  2.29503E-01  3.96608E-01 -1.67105E-01
    8988.030     -6.250   0.400  2.42618E-01  4.15582E-01 -1.72964E-01
    8988.158     -6.122   0.440  2.56211E-01  4.34549E-01 -1.78338E-01
    8988.299     -5.982   0.480  2.69869E-01  4.53119E-01 -1.83250E-01
    8988.451     -5.830   0.520  2.83428E-01  4.71027E-01 -1.87600E-01
    8988.615     -5.665   0.560  2.97270E-01  4.88179E-01 -1.90909E-01
    8988.792     -5.488   0.600  3.12263E-01  5.04528E-01 -1.92265E-01
    8988.981     -5.299   0.640  3.29347E-01  5.20155E-01 -1.90808E-01
    8989.182     -5.098   0.680  3.48417E-01  5.35158E-01 -1.86742E-01
    8989.396     -4.885   0.720  3.67557E-01  5.49607E-01 -1.82050E-01
    8989.621     -4.659   0.760  3.83367E-01  5.63611E-01 -1.80244E-01
    8989.859     -4.421   0.800  3.92353E-01  5.77274E-01 -1.84920E-01
    8990.109     -4.172   0.840  3.93038E-01  5.90685E-01 -1.97647E-01
    8990.371     -3.909   0.880  3.87276E-01  6.03882E-01 -2.16606E-01
    8990.645     -3.635   0.920  3.79581E-01  6.16948E-01 -2.37367E-01
    8990.932     -3.349   0.960  3.74887E-01  6.29916E-01 -2.55029E-01
    8991.231     -3.050   1.000  3.77109E-01  6.42788E-01 -2.65680E-01
    8991.542     -2.739   1.040  3.88991E-01  6.55617E-01 -2.66627E-01
    8991.865     -2.416   1.080  4.12314E-01  6.68410E-01 -2.56096E-01
    8992.200     -2.081   1.120  4.47824E-01  6.81187E-01 -2.33362E-01
    8992.547     -1.733   1.160  4.94996E-01  6.93898E-01 -1.98902E-01
    8992.907     -1.373   1.200  5.51877E-01  7.06596E-01 -1.54719E-01
    8993.279     -1.002   1.240  6.13762E-01  7.19226E-01 -1.05463E-01
    8993.663     -0.618   1.280  6.71901E-01  7.31809E-01 -5.99084E-02
    8994.059     -0.221   1.320  7.14204E-01  7.44326E-01 -3.01222E-02
    8994.468      0.187   1.360  7.33336E-01  7.56734E-01 -2.33971E-02
    8994.888      0.608   1.400  7.32045E-01  7.69029E-01 -3.69842E-02
    8995.321      1.041   1.440  7.17933E-01  7.81206E-01 -6.32732E-02
    8995.766      1.486   1.480  7.02595E-01  7.93238E-01 -9.06429E-02
    8996.223      1.943   1.520  6.99172E-01  8.05078E-01 -1.05906E-01
    8996.693      2.412   1.560  7.13568E-01  8.16738E-01 -1.03170E-01
    8997.174      2.894   1.600  7.42620E-01  8.28170E-01 -8.55508E-02
    8997.668      3.388   1.640  7.77529E-01  8.39386E-01 -6.18571E-02
    8998.174      3.893   1.680  8.11564E-01  8.50336E-01 -3.87720E-02
    8998.692      4.412   1.720  8.51783E-01  8.60991E-01 -9.20847E-03
    8999.222      4.942   1.760  9.09310E-01  8.71366E-01  3.79434E-02
    8999.765      5.485   1.800  9.82076E-01  8.81412E-01  1.00664E-01
    9000.320      6.039   1.840  1.06295E+00  8.91141E-01  1.71804E-01
    9000.887      6.606   1.880  1.14682E+00  9.00529E-01  2.46292E-01
    9001.466      7.185   1.920  1.22633E+00  9.09548E-01  3.16778E-01
    9002.057      7.777   1.960  1.28927E+00  9.18192E-01  3.71080E-01
    9002.661      8.380   2.000  1.32779E+00  9.26458E-01  4.01336E-01
    9003.276      8.996   2.040  1.34759E+00  9.34343E-01  4.13251E-01
    9003.904      9.624   2.080  1.35539E+00  9.41823E-01  4.13567E-01
    9004.544     10.264   2.120  1.34672E+00  9.48894E-01  3.97823E-01
    9005.197     10.916   2.160  1.31876E+00  9.55558E-01  3.63205E-01
    9005.861     11.580   2.200  1.28305E+00  9.61833E-01  3.21222E-01
    9006.538     12.257   2.240  1.25542E+00  9.67680E-01  2.87740E-01
    9007.227     12.946   2.280  1.23707E+00  9.73139E-01  2.63931E-01
    9007.928     13.647   2.320  1.21392E+00  9.78173E-01  2.35748E-01
    9008.641     14.360   2.360  1.17462E+00  9.82825E-01  1.91799E-01
    9009.366     15.086   2.400  1.12159E+00  9.87097E-01  1.34495E-01
    9010.104     15.823   2.440  1.06647E+00  9.90954E-01  7.55155E-02
    9010.854     16.573   2.480  1.02060E+00  9.94462E-01  2.61361E-02
    9011.616     17.335   2.520  9.89506E-01  9.97603E-01 -8.09704E-03
    9012.390     18.109   2.560  9.72312E-01  1.00039E+00 -2.80740E-02
    9013.176     18.896   2.600  9.63183E-01  1.00283E+00 -3.96514E-02
    9013.975     19.694   2.640  9.56088E-01  1.00493E+00 -4.88457E-02
    9014.786     20.505   2.680  9.48384E-01  1.00673E+00 -5.83492E-02
    9015.608     21.328   2.720  9.40804E-01  1.00822E+00 -6.74150E-02
    9016.444     22.163   2.760  9.39738E-01  1.00942E+00 -6.96804E-02
    9017.291     23.010   2.800  9.49693E-01  1.01036E+00 -6.06678E-02
    9018.150     23.870   2.840  9.60903E-01  1.01103E+00 -5.01291E-02
    9019.022     24.742   2.880  9.70402E-01  1.01146E+00 -4.10574E-02
    9019.906     25.626   2.920  9.75577E-01  1.01167E+00 -3.60948E-02
    9020.802     26.522   2.960  9.74448E-01  1.01166E+00 -3.72083E-02
    9021.711     27.430   3.000  9.66355E-01  1.01146E+00 -4.51068E-02
    9022.631     28.351   3.040  9.52123E-01  1.01107E+00 -5.89512E-02
    9023.564     29.283   3.080  9.33739E-01  1.01052E+00 -7.67834E-02
    9024.509     30.228   3.120  9.13418E-01  1.00984E+00 -9.64189E-02
    9025.466     31.185   3.160  8.93256E-01  1.00900E+00 -1.15743E-01
    9026.435     32.154   3.200  8.74767E-01  1.00804E+00 -1.33270E-01
    9027.416     33.136   3.240  8.59289E-01  1.00696E+00 -1.47673E-01
    9028.410     34.130   3.280  8.48482E-01  1.00582E+00 -1.57337E-01
    9029.416     35.135   3.320  8.43483E-01  1.00457E+00 -1.61091E-01
    9030.434     36.153   3.360  8.44602E-01  1.00327E+00 -1.58671E-01
    9031.464     37.184   3.400  8.51478E-01  1.00190E+00 -1.50424E-01
    9032.507     38.226   3.440  8.63148E-01  1.00049E+00 -1.37338E-01
    9033.561     39.281   3.480  8.78135E-01  9.99032E-01 -1.20897E-01
    9034.628     40.347   3.520  8.95183E-01  9.97567E-01 -1.02383E-01
    9035.707     41.426   3.560  9.13274E-01  9.96093E-01 -8.28184E-02
    9036.798     42.518   3.600  9.31605E-01  9.94595E-01 -6.29898E-02
    9037.901     43.621   3.640  9.49837E-01  9.93120E-01 -4.32825E-02
    9039.017     44.736   3.680  9.67792E-01  9.91650E-01 -2.38583E-02
    9040.145     45.864   3.720  9.85191E-01  9.90189E-01 -4.99803E-03
    9041.285     47.004   3.760  1.00159E+00  9.88781E-01  1.28069E-02
    9042.437     48.156   3.800  1.01626E+00  9.87390E-01  2.88692E-02
    9043.601     49.321   3.840  1.02820E+00  9.86038E-01  4.21649E-02
    9044.778     50.497   3.880  1.03654E+00  9.84748E-01  5.17950E-02
    9045.966     51.686   3.920  1.04088E+00  9.83482E-01  5.73964E-02
    9047.167     52.887   3.960  1.04158E+00  9.82283E-01  5.92948E-02
    9048.380     54.100   4.000  1.03954E+00  9.81157E-01  5.83868E-02
    9049.606     55.325   4.040  1.03617E+00  9.80101E-01  5.60654E-02
    9050.843     56.563   4.080  1.03287E+00  9.79096E-01  5.37769E-02
    9052.093     57.812   4.120  1.03090E+00  9.78144E-01  5.27592E-02
    9053.355     59.074   4.160  1.03109E+00  9.77287E-01  5.38042E-02
    9054.629     60.348   4.200  1.03360E+00  9.76488E-01  5.71121E-02
    9055.915     61.635   4.240  1.03800E+00  9.75787E-01  6.22156E-02
    9057.213     62.933   4.280  1.04323E+00  9.75141E-01  6.80902E-02
    9058.524     64.244   4.320  1.04804E+00  9.74574E-01  7.34616E-02
    9059.847     65.566   4.360  1.05123E+00  9.74108E-01  7.71198E-02
    9061.182     66.901   4.400  1.05197E+00  9.73697E-01  7.82769E-02
    9062.529     68.249   4.440  1.05014E+00  9.73364E-01  7.67786E-02
    9063.889     69.608   4.480  1.04605E+00  9.73107E-01  7.29426E-02
    9065.260     70.980   4.520  1.04015E+00  9.72927E-01  6.72242E-02
    9066.644     72.363   4.560  1.03288E+00  9.72802E-01  6.00798E-02
    9068.040     73.759   4.600  1.02467E+00  9.72773E-01  5.18930E-02
    9069.448     75.168   4.640  1.01574E+00  9.72797E-01  4.29450E-02
    9070.868     76.588   4.680  1.00636E+00  9.72894E-01  3.34639E-02
    9072.301     78.021   4.720  9.96655E-01  9.73041E-01  2.36135E-02
    9073.746     79.465   4.760  9.86728E-01  9.73260E-01  1.34677E-02
    9075.203     80.922   4.800  9.76714E-01  9.73549E-01  3.16433E-03
    9076.672     82.391   4.840  9.66867E-01  9.73885E-01 -7.01722E-03
    9078.153     83.873   4.880  9.57675E-01  9.74263E-01 -1.65881E-02
    9079.647     85.366   4.920  9.49811E-01  9.74683E-01 -2.48723E-02
    9081.152     86.872   4.960  9.43924E-01  9.75144E-01 -3.12203E-02
    9082.670     88.390   5.000  9.40492E-01  9.75667E-01 -3.51753E-02
    9084.200     89.920   5.040  9.39615E-01  9.76205E-01 -3.65901E-02
    9085.743     91.462   5.080  9.41120E-01  9.76777E-01 -3.56577E-02
    9087.297     93.017   5.120  9.44481E-01  9.77362E-01 -3.28808E-02
    9088.864     94.583   5.160  9.48800E-01  9.77998E-01 -2.91978E-02
    9090.443     96.162   5.200  9.52751E-01  9.78620E-01 -2.58698E-02
    9092.034     97.753   5.240  9.55097E-01  9.79268E-01 -2.41712E-02
    9093.637     99.356   5.280  9.55116E-01  9.79920E-01 -2.48044E-02
    9095.252    100.972   5.320  9.53073E-01  9.80572E-01 -2.74988E-02
    9096.880    102.599   5.360  9.50071E-01  9.81223E-01 -3.11519E-02
    9098.520    104.239   5.400  9.47521E-01  9.81871E-01 -3.43499E-02
    9100.172    105.891   5.440  9.46522E-01  9.82514E-01 -3.59923E-02
    9101.836    107.556   5.480  9.47479E-01  9.83127E-01 -3.56475E-02
    9103.512    109.232   5.520  9.50071E-01  9.83707E-01 -3.36358E-02
    9105.201    110.920   5.560  9.53426E-01  9.84298E-01 -3.08713E-02
    9106.902    112.621   5.600  9.56348E-01  9.84832E-01 -2.84832E-02
    9108.615    114.334   5.640  9.58009E-01  9.85329E-01 -2.73198E-02
    9110.340    116.059   5.680  9.58238E-01  9.85811E-01 -2.75724E-02
    9112.077    117.797   5.720  9.57500E-01  9.86252E-01 -2.87516E-02
    9113.827    119.546   5.760  9.56693E-01  9.86630E-01 -2.99372E-02
    9115.589    121.308   5.800  9.56823E-01  9.86988E-01 -3.01648E-02
    9117.362    123.082   5.840  9.58454E-01  9.87279E-01 -2.88258E-02
    9119.149    124.868   5.880  9.61667E-01  9.87525E-01 -2.58581E-02
    9120.947    126.666   5.920  9.65830E-01  9.87725E-01 -2.18950E-02
    9122.757    128.477   5.960  9.70154E-01  9.87871E-01 -1.77166E-02
    9124.580    130.300   6.000  9.74377E-01  9.87912E-01 -1.35352E-02
