# # comment:                                                     FEFF 9.9.1  
# # Source:
# # Structure
# # Reduced
# # space
# # abc:
# # angles:
# # sites:
# # POT  SCF 100  7.0000   0, screened core-hole, AFOLP (folp(0)= 1.150)
# # Abs   Z=29 Rmt= 1.263 Rnm= 1.336 K  shell
# # Pot 1 Z=29 Rmt= 1.265 Rnm= 1.337
# # Pot 2 Z= 8 Rmt= 1.014 Rnm= 1.089
# # Pot 3 Z=73 Rmt= 1.318 Rnm= 1.467
# # Gam_ch=1.729E+00 H-L exch Vi= 0.000E+00 Vr= 0.000E+00
# # Mu=-6.436E+00eV kf=2.250E+00 Vint=-1.650E+01eV Rs_int= 1.612
# FMS rfms= 9.0000
# # PATH  Rmax=-1.000,  Keep_limit= 0.00, Heap_limit 0.00  Pwcrit= 2.50%
#  S02=0.950  Temp=   0.00  Debye_temp=   0.00  Global_sig2= 0.00000
#  Energy zero shift, vr, vi    0.00000E+00   0.00000E+00
#  Curved wave amplitude ratio filter   4.000%
#     file         sig2 tot  cw amp ratio   deg  nlegs   reff  inp sig2
#     0/   0 paths used
#  xsedge+ 50, used to normalize mu           2.4659E-04
#  -----------------------------------------------------------------------
#  omega    e    k    mu    mu0     chi     @#
    8983.605    -10.246  -1.000  4.56522E-02  5.49608E-02 -9.30863E-03
    8983.904     -9.947  -0.960  4.83455E-02  5.90086E-02 -1.06631E-02
    8984.190     -9.660  -0.920  5.12548E-02  6.35124E-02 -1.22576E-02
    8984.465     -9.386  -0.880  5.44009E-02  6.85402E-02 -1.41392E-02
    8984.727     -9.124  -0.840  5.78066E-02  7.41707E-02 -1.63641E-02
    8984.977     -8.874  -0.800  6.14964E-02  8.04957E-02 -1.89993E-02
    8985.215     -8.636  -0.760  6.54968E-02  8.76203E-02 -2.21235E-02
    8985.440     -8.411  -0.720  6.98354E-02  9.56635E-02 -2.58281E-02
    8985.654     -8.197  -0.680  7.45400E-02  1.04756E-01 -3.02165E-02
    8985.855     -7.996  -0.640  7.96371E-02  1.15038E-01 -3.54006E-02
    8986.044     -7.807  -0.600  8.51492E-02  1.26644E-01 -4.14944E-02
    8986.220     -7.630  -0.560  9.10903E-02  1.39691E-01 -4.86003E-02
    8986.385     -7.466  -0.520  9.74600E-02  1.54249E-01 -5.67886E-02
    8986.537     -7.313  -0.480  1.04235E-01  1.70303E-01 -6.60680E-02
    8986.678     -7.173  -0.440  1.11361E-01  1.87713E-01 -7.63517E-02
    8986.806     -7.045  -0.400  1.18744E-01  2.06173E-01 -8.74294E-02
    8986.921     -6.929  -0.360  1.26245E-01  2.25204E-01 -9.89593E-02
    8987.025     -6.826  -0.320  1.33687E-01  2.44183E-01 -1.10496E-01
    8987.117     -6.734  -0.280  1.40866E-01  2.62417E-01 -1.21551E-01
    8987.196     -6.655  -0.240  1.47571E-01  2.79243E-01 -1.31672E-01
    8987.263     -6.588  -0.200  1.53599E-01  2.94106E-01 -1.40507E-01
    8987.318     -6.533  -0.160  1.58776E-01  3.06602E-01 -1.47826E-01
    8987.360     -6.490  -0.120  1.62959E-01  3.16475E-01 -1.53516E-01
    8987.391     -6.460  -0.080  1.66041E-01  3.23583E-01 -1.57543E-01
    8987.415     -6.436   0.000  1.68598E-01  3.29291E-01 -1.60693E-01
    8987.470     -6.381   0.120  1.74340E-01  3.42170E-01 -1.67829E-01
    8987.513     -6.338   0.160  1.78847E-01  3.52160E-01 -1.73314E-01
    8987.568     -6.283   0.200  1.84748E-01  3.64906E-01 -1.80158E-01
    8987.635     -6.216   0.240  1.92128E-01  3.80224E-01 -1.88096E-01
    8987.714     -6.137   0.280  2.01061E-01  3.97771E-01 -1.96709E-01
    8987.805     -6.045   0.320  2.11639E-01  4.17102E-01 -2.05463E-01
    8987.909     -5.942   0.360  2.23938E-01  4.37622E-01 -2.13684E-01
    8988.025     -5.826   0.400  2.38031E-01  4.58695E-01 -2.20664E-01
    8988.153     -5.698   0.440  2.54032E-01  4.79784E-01 -2.25752E-01
    8988.293     -5.558   0.480  2.72001E-01  5.00419E-01 -2.28418E-01
    8988.445     -5.405   0.520  2.92071E-01  5.20365E-01 -2.28294E-01
    8988.610     -5.241   0.560  3.14257E-01  5.39435E-01 -2.25178E-01
    8988.787     -5.064   0.600  3.38784E-01  5.57618E-01 -2.18834E-01
    8988.976     -4.875   0.640  3.66310E-01  5.74976E-01 -2.08666E-01
    8989.177     -4.674   0.680  3.98379E-01  5.91613E-01 -1.93233E-01
    8989.390     -4.460   0.720  4.37727E-01  6.07604E-01 -1.69877E-01
    8989.616     -4.235   0.760  4.88303E-01  6.23047E-01 -1.34744E-01
    8989.854     -3.997   0.800  5.54323E-01  6.38070E-01 -8.37468E-02
    8990.104     -3.747   0.840  6.36791E-01  6.52724E-01 -1.59333E-02
    8990.366     -3.485   0.880  7.27955E-01  6.67070E-01  6.08854E-02
    8990.640     -3.211   0.920  8.09800E-01  6.81172E-01  1.28629E-01
    8990.927     -2.924   0.960  8.60641E-01  6.95042E-01  1.65599E-01
    8991.225     -2.626   1.000  8.65074E-01  7.08722E-01  1.56353E-01
    8991.536     -2.315   1.040  8.27883E-01  7.22223E-01  1.05660E-01
    8991.859     -1.992   1.080  7.74003E-01  7.35548E-01  3.84551E-02
    8992.194     -1.656   1.120  7.27834E-01  7.48674E-01 -2.08402E-02
    8992.542     -1.309   1.160  6.99180E-01  7.61636E-01 -6.24552E-02
    8992.902     -0.949   1.200  6.81566E-01  7.74396E-01 -9.28303E-02
    8993.273     -0.577   1.240  6.63754E-01  7.86939E-01 -1.23185E-01
    8993.658     -0.193   1.280  6.50771E-01  7.99247E-01 -1.48476E-01
    8994.054      0.203   1.320  6.57070E-01  8.11318E-01 -1.54248E-01
    8994.462      0.611   1.360  6.86439E-01  8.23129E-01 -1.36689E-01
    8994.883      1.032   1.400  7.31677E-01  8.34656E-01 -1.02978E-01
    8995.316      1.465   1.440  7.82076E-01  8.45872E-01 -6.37966E-02
    8995.761      1.910   1.480  8.36064E-01  8.56755E-01 -2.06907E-02
    8996.218      2.367   1.520  8.93368E-01  8.67297E-01  2.60711E-02
    8996.687      2.836   1.560  9.41521E-01  8.77493E-01  6.40276E-02
    8997.169      3.318   1.600  9.75647E-01  8.87321E-01  8.83251E-02
    8997.663      3.812   1.640  9.97143E-01  8.96756E-01  1.00387E-01
    8998.169      4.318   1.680  9.97760E-01  9.05812E-01  9.19484E-02
    8998.687      4.836   1.720  9.83156E-01  9.14448E-01  6.87085E-02
    8999.217      5.366   1.760  9.69089E-01  9.22661E-01  4.64284E-02
    8999.760      5.909   1.800  9.63398E-01  9.30470E-01  3.29279E-02
    9000.314      6.464   1.840  9.73685E-01  9.37856E-01  3.58294E-02
    9000.881      7.030   1.880  1.00340E+00  9.44839E-01  5.85621E-02
    9001.460      7.610   1.920  1.04334E+00  9.51378E-01  9.19667E-02
    9002.052      8.201   1.960  1.07827E+00  9.57498E-01  1.20770E-01
    9002.655      8.804   2.000  1.11117E+00  9.63221E-01  1.47951E-01
    9003.271      9.420   2.040  1.15290E+00  9.68531E-01  1.84372E-01
    9003.899     10.048   2.080  1.19176E+00  9.73432E-01  2.18325E-01
    9004.539     10.688   2.120  1.20881E+00  9.77949E-01  2.30858E-01
    9005.191     11.340   2.160  1.20554E+00  9.82089E-01  2.23448E-01
    9005.856     12.005   2.200  1.20220E+00  9.85857E-01  2.16346E-01
    9006.532     12.681   2.240  1.22044E+00  9.89281E-01  2.31155E-01
    9007.221     13.370   2.280  1.27051E+00  9.92347E-01  2.78167E-01
    9007.922     14.071   2.320  1.34199E+00  9.95103E-01  3.46884E-01
    9008.635     14.785   2.360  1.39239E+00  9.97515E-01  3.94870E-01
    9009.361     15.510   2.400  1.37455E+00  9.99652E-01  3.74895E-01
    9010.098     16.248   2.440  1.29032E+00  1.00150E+00  2.88815E-01
    9010.848     16.997   2.480  1.18278E+00  1.00308E+00  1.79701E-01
    9011.610     17.759   2.520  1.08951E+00  1.00442E+00  8.50885E-02
    9012.384     18.534   2.560  1.02284E+00  1.00550E+00  1.73477E-02
    9013.171     19.320   2.600  9.79452E-01  1.00636E+00 -2.69083E-02
    9013.969     20.118   2.640  9.50572E-01  1.00704E+00 -5.64665E-02
    9014.780     20.929   2.680  9.27874E-01  1.00750E+00 -7.96249E-02
    9015.603     21.752   2.720  9.07476E-01  1.00781E+00 -1.00334E-01
    9016.438     22.587   2.760  8.91326E-01  1.00796E+00 -1.16631E-01
    9017.286     23.435   2.800  8.78676E-01  1.00795E+00 -1.29271E-01
    9018.145     24.294   2.840  8.67454E-01  1.00781E+00 -1.40356E-01
    9019.017     25.166   2.880  8.57133E-01  1.00755E+00 -1.50417E-01
    9019.901     26.050   2.920  8.48997E-01  1.00719E+00 -1.58197E-01
    9020.797     26.946   2.960  8.44215E-01  1.00673E+00 -1.62515E-01
    9021.705     27.854   3.000  8.42546E-01  1.00621E+00 -1.63660E-01
    9022.626     28.775   3.040  8.43000E-01  1.00560E+00 -1.62602E-01
    9023.558     29.707   3.080  8.44884E-01  1.00493E+00 -1.60043E-01
    9024.503     30.652   3.120  8.48097E-01  1.00423E+00 -1.56130E-01
    9025.460     31.609   3.160  8.52281E-01  1.00346E+00 -1.51183E-01
    9026.429     32.579   3.200  8.57647E-01  1.00269E+00 -1.45038E-01
    9027.411     33.560   3.240  8.64646E-01  1.00187E+00 -1.37229E-01
    9028.405     34.554   3.280  8.73736E-01  1.00106E+00 -1.27319E-01
    9029.410     35.560   3.320  8.85250E-01  1.00023E+00 -1.14982E-01
    9030.428     36.578   3.360  8.99282E-01  9.99407E-01 -1.00125E-01
    9031.459     37.608   3.400  9.15626E-01  9.98586E-01 -8.29600E-02
    9032.501     38.650   3.440  9.33540E-01  9.97792E-01 -6.42513E-02
    9033.556     39.705   3.480  9.52536E-01  9.97005E-01 -4.44690E-02
    9034.622     40.772   3.520  9.72293E-01  9.96249E-01 -2.39556E-02
    9035.701     41.851   3.560  9.92238E-01  9.95504E-01 -3.26603E-03
    9036.793     42.942   3.600  1.01137E+00  9.94794E-01  1.65731E-02
    9037.896     44.045   3.640  1.02803E+00  9.94122E-01  3.39081E-02
    9039.012     45.161   3.680  1.04034E+00  9.93510E-01  4.68299E-02
    9040.139     46.289   3.720  1.04700E+00  9.92917E-01  5.40828E-02
    9041.279     47.428   3.760  1.04807E+00  9.92364E-01  5.57101E-02
    9042.431     48.581   3.800  1.04476E+00  9.91852E-01  5.29059E-02
    9043.596     49.745   3.840  1.03868E+00  9.91406E-01  4.72741E-02
    9044.772     50.921   3.880  1.03129E+00  9.91002E-01  4.02828E-02
    9045.961     52.110   3.920  1.02369E+00  9.90642E-01  3.30523E-02
    9047.162     53.311   3.960  1.01698E+00  9.90327E-01  2.66552E-02
    9048.375     54.524   4.000  1.01234E+00  9.90077E-01  2.22649E-02
    9049.600     55.749   4.040  1.01079E+00  9.89871E-01  2.09161E-02
    9050.838     56.987   4.080  1.01282E+00  9.89709E-01  2.31076E-02
    9052.087     58.237   4.120  1.01827E+00  9.89590E-01  2.86811E-02
    9053.349     59.498   4.160  1.02649E+00  9.89534E-01  3.69604E-02
    9054.623     60.773   4.200  1.03634E+00  9.89501E-01  4.68390E-02
    9055.910     62.059   4.240  1.04649E+00  9.89531E-01  5.69596E-02
    9057.208     63.357   4.280  1.05551E+00  9.89602E-01  6.59035E-02
    9058.519     64.668   4.320  1.06217E+00  9.89715E-01  7.24575E-02
    9059.842     65.991   4.360  1.06572E+00  9.89868E-01  7.58473E-02
    9061.177     67.326   4.400  1.06575E+00  9.90060E-01  7.56922E-02
    9062.524     68.673   4.440  1.06249E+00  9.90290E-01  7.21964E-02
    9063.883     70.032   4.480  1.05668E+00  9.90556E-01  6.61244E-02
    9065.255     71.404   4.520  1.04964E+00  9.90836E-01  5.88041E-02
    9066.639     72.788   4.560  1.04288E+00  9.91173E-01  5.17105E-02
    9068.035     74.184   4.600  1.03735E+00  9.91520E-01  4.58348E-02
    9069.443     75.592   4.640  1.03323E+00  9.91876E-01  4.13518E-02
    9070.863     77.012   4.680  1.02992E+00  9.92261E-01  3.76544E-02
    9072.296     78.445   4.720  1.02629E+00  9.92655E-01  3.36377E-02
    9073.740     79.890   4.760  1.02136E+00  9.93076E-01  2.82829E-02
    9075.197     81.346   4.800  1.01463E+00  9.93504E-01  2.11264E-02
    9076.666     82.816   4.840  1.00631E+00  9.93957E-01  1.23505E-02
    9078.148     84.297   4.880  9.96817E-01  9.94388E-01  2.42885E-03
    9079.641     85.790   4.920  9.86598E-01  9.94819E-01 -8.22048E-03
    9081.147     87.296   4.960  9.75895E-01  9.95270E-01 -1.93747E-02
    9082.665     88.814   5.000  9.64822E-01  9.95697E-01 -3.08748E-02
    9084.195     90.344   5.040  9.53599E-01  9.96120E-01 -4.25209E-02
    9085.737     91.886   5.080  9.42578E-01  9.96539E-01 -5.39612E-02
    9087.292     93.441   5.120  9.32289E-01  9.96954E-01 -6.46652E-02
    9088.858     95.008   5.160  9.23309E-01  9.97337E-01 -7.40287E-02
    9090.437     96.586   5.200  9.16284E-01  9.97711E-01 -8.14262E-02
    9092.028     98.177   5.240  9.11743E-01  9.98053E-01 -8.63101E-02
    9093.632     99.781   5.280  9.10176E-01  9.98386E-01 -8.82092E-02
    9095.247    101.396   5.320  9.11830E-01  9.98685E-01 -8.68549E-02
    9096.875    103.024   5.360  9.16708E-01  9.98972E-01 -8.22640E-02
    9098.514    104.664   5.400  9.24464E-01  9.99224E-01 -7.47607E-02
    9100.166    106.316   5.440  9.34570E-01  9.99439E-01 -6.48682E-02
    9101.831    107.980   5.480  9.46519E-01  9.99617E-01 -5.30981E-02
    9103.507    109.656   5.520  9.60000E-01  9.99781E-01 -3.97809E-02
    9105.196    111.345   5.560  9.74709E-01  9.99905E-01 -2.51962E-02
    9106.896    113.046   5.600  9.90247E-01  9.99967E-01 -9.72055E-03
    9108.609    114.758   5.640  1.00615E+00  1.00001E+00  6.13477E-03
    9110.334    116.484   5.680  1.02188E+00  1.00002E+00  2.18631E-02
    9112.072    118.221   5.720  1.03697E+00  9.99989E-01  3.69808E-02
    9113.821    119.971   5.760  1.05063E+00  9.99921E-01  5.07109E-02
    9115.583    121.732   5.800  1.06141E+00  9.99837E-01  6.15713E-02
    9117.357    123.506   5.840  1.06725E+00  9.99691E-01  6.75627E-02
    9119.143    125.292   5.880  1.06658E+00  9.99505E-01  6.70792E-02
    9120.941    127.091   5.920  1.05922E+00  9.99283E-01  5.99380E-02
    9122.752    128.901   5.960  1.04676E+00  9.99048E-01  4.77136E-02
    9124.575    130.724   6.000  1.03150E+00  9.98725E-01  3.27759E-02
