# # comment:                                                     FEFF 9.9.1  
# # Source:
# # Structure
# # Reduced
# # space
# # abc:
# # angles:
# # sites:
# # POT  SCF 100  7.0000   0, screened core-hole, AFOLP (folp(0)= 1.150)
# # Abs   Z=29 Rmt= 1.169 Rnm= 1.290 K  shell
# # Pot 1 Z=56 Rmt= 1.942 Rnm= 2.000
# # Pot 2 Z=39 Rmt= 1.636 Rnm= 1.713
# # Pot 3 Z=29 Rmt= 1.169 Rnm= 1.290
# # Pot 4 Z= 8 Rmt= 1.078 Rnm= 1.131
# # Gam_ch=1.729E+00 H-L exch Vi= 0.000E+00 Vr= 0.000E+00
# # Mu=-8.850E+00eV kf=1.996E+00 Vint=-1.745E+01eV Rs_int= 1.817
# FMS rfms= 9.0000
# # PATH  Rmax=-1.000,  Keep_limit= 0.00, Heap_limit 0.00  Pwcrit= 2.50%
#  S02=0.950  Temp=   0.00  Debye_temp=   0.00  Global_sig2= 0.00000
#  Energy zero shift, vr, vi    0.00000E+00   0.00000E+00
#  Curved wave amplitude ratio filter   4.000%
#     file         sig2 tot  cw amp ratio   deg  nlegs   reff  inp sig2
#     0/   0 paths used
#  xsedge+ 50, used to normalize mu           2.4713E-04
#  -----------------------------------------------------------------------
#  omega    e    k    mu    mu0     chi     @#
    8984.405    -12.660  -1.000  3.65682E-02  5.38624E-02 -1.72942E-02
    8984.704    -12.362  -0.960  3.85824E-02  5.77509E-02 -1.91685E-02
    8984.990    -12.075  -0.920  4.07878E-02  6.20690E-02 -2.12812E-02
    8985.265    -11.801  -0.880  4.32138E-02  6.68795E-02 -2.36656E-02
    8985.527    -11.539  -0.840  4.58958E-02  7.22556E-02 -2.63598E-02
    8985.777    -11.289  -0.800  4.88753E-02  7.82822E-02 -2.94069E-02
    8986.015    -11.051  -0.760  5.22014E-02  8.50564E-02 -3.28549E-02
    8986.240    -10.825  -0.720  5.59309E-02  9.26881E-02 -3.67572E-02
    8986.454    -10.612  -0.680  6.01277E-02  1.01298E-01 -4.11705E-02
    8986.655    -10.411  -0.640  6.48609E-02  1.11014E-01 -4.61533E-02
    8986.844    -10.222  -0.600  7.01997E-02  1.21961E-01 -5.17614E-02
    8987.020    -10.045  -0.560  7.62050E-02  1.34246E-01 -5.80408E-02
    8987.185     -9.881  -0.520  8.29142E-02  1.47931E-01 -6.50171E-02
    8987.337     -9.728  -0.480  9.03219E-02  1.63003E-01 -7.26810E-02
    8987.478     -9.588  -0.440  9.83563E-02  1.79329E-01 -8.09722E-02
    8987.606     -9.460  -0.400  1.06860E-01  1.96625E-01 -8.97648E-02
    8987.721     -9.344  -0.360  1.15586E-01  2.14447E-01 -9.88608E-02
    8987.825     -9.240  -0.320  1.24218E-01  2.32217E-01 -1.07999E-01
    8987.917     -9.149  -0.280  1.32414E-01  2.49292E-01 -1.16878E-01
    8987.996     -9.070  -0.240  1.39864E-01  2.65056E-01 -1.25191E-01
    8988.063     -9.003  -0.200  1.46330E-01  2.78989E-01 -1.32658E-01
    8988.118     -8.948  -0.160  1.51666E-01  2.90712E-01 -1.39046E-01
    8988.160     -8.905  -0.120  1.55802E-01  2.99981E-01 -1.44179E-01
    8988.191     -8.875  -0.080  1.58720E-01  3.06660E-01 -1.47940E-01
    8988.215     -8.850   0.000  1.60974E-01  3.12027E-01 -1.51053E-01
    8988.270     -8.795   0.120  1.66131E-01  3.24139E-01 -1.58008E-01
    8988.313     -8.753   0.160  1.70086E-01  3.33532E-01 -1.63446E-01
    8988.368     -8.698   0.200  1.75057E-01  3.45567E-01 -1.70510E-01
    8988.435     -8.631   0.240  1.80798E-01  3.60024E-01 -1.79226E-01
    8988.514     -8.552   0.280  1.87072E-01  3.76662E-01 -1.89590E-01
    8988.605     -8.460   0.320  1.93507E-01  3.95047E-01 -2.01540E-01
    8988.709     -8.357   0.360  1.99682E-01  4.14645E-01 -2.14964E-01
    8988.825     -8.241   0.400  2.05115E-01  4.34906E-01 -2.29791E-01
    8988.953     -8.113   0.440  2.09339E-01  4.55330E-01 -2.45991E-01
    8989.093     -7.973   0.480  2.11831E-01  4.75529E-01 -2.63698E-01
    8989.245     -7.820   0.520  2.12124E-01  4.95215E-01 -2.83092E-01
    8989.410     -7.656   0.560  2.10179E-01  5.14296E-01 -3.04117E-01
    8989.587     -7.479   0.600  2.06570E-01  5.32740E-01 -3.26169E-01
    8989.776     -7.290   0.640  2.02491E-01  5.50581E-01 -3.48090E-01
    8989.977     -7.089   0.680  1.99379E-01  5.67889E-01 -3.68510E-01
    8990.190     -6.875   0.720  1.98367E-01  5.84747E-01 -3.86380E-01
    8990.416     -6.650   0.760  2.00189E-01  6.01276E-01 -4.01087E-01
    8990.654     -6.412   0.800  2.05045E-01  6.17508E-01 -4.12463E-01
    8990.904     -6.162   0.840  2.12977E-01  6.33521E-01 -4.20544E-01
    8991.166     -5.900   0.880  2.24027E-01  6.49362E-01 -4.25335E-01
    8991.440     -5.626   0.920  2.38665E-01  6.65041E-01 -4.26376E-01
    8991.727     -5.339   0.960  2.58096E-01  6.80621E-01 -4.22525E-01
    8992.025     -5.040   1.000  2.83817E-01  6.96050E-01 -4.12233E-01
    8992.336     -4.729   1.040  3.16812E-01  7.11390E-01 -3.94578E-01
    8992.659     -4.406   1.080  3.55882E-01  7.26574E-01 -3.70692E-01
    8992.995     -4.071   1.120  3.97500E-01  7.41610E-01 -3.44110E-01
    8993.342     -3.724   1.160  4.39940E-01  7.56500E-01 -3.16560E-01
    8993.702     -3.364   1.200  4.87480E-01  7.71162E-01 -2.83682E-01
    8994.073     -2.992   1.240  5.43683E-01  7.85634E-01 -2.41951E-01
    8994.458     -2.608   1.280  5.99654E-01  7.99826E-01 -2.00172E-01
    8994.854     -2.212   1.320  6.38531E-01  8.13751E-01 -1.75219E-01
    8995.262     -1.803   1.360  6.54737E-01  8.27358E-01 -1.72621E-01
    8995.683     -1.383   1.400  6.60472E-01  8.40638E-01 -1.80166E-01
    8996.116     -0.950   1.440  6.72021E-01  8.53522E-01 -1.81500E-01
    8996.561     -0.505   1.480  6.86311E-01  8.66037E-01 -1.79726E-01
    8997.018     -0.048   1.520  6.84065E-01  8.78094E-01 -1.94029E-01
    8997.487      0.422   1.560  6.69146E-01  8.89724E-01 -2.20579E-01
    8997.969      0.903   1.600  6.67519E-01  9.00881E-01 -2.33362E-01
    8998.463      1.397   1.640  7.03933E-01  9.11555E-01 -2.07622E-01
    8998.969      1.903   1.680  7.97150E-01  9.21723E-01 -1.24572E-01
    8999.487      2.421   1.720  9.43838E-01  9.31399E-01  1.24395E-02
    9000.017      2.951   1.760  1.08319E+00  9.40519E-01  1.42669E-01
    9000.560      3.494   1.800  1.15449E+00  9.49143E-01  2.05344E-01
    9001.114      4.049   1.840  1.18291E+00  9.57230E-01  2.25678E-01
    9001.681      4.616   1.880  1.21960E+00  9.64781E-01  2.54819E-01
    9002.260      5.195   1.920  1.28739E+00  9.71797E-01  3.15589E-01
    9002.852      5.786   1.960  1.34933E+00  9.78303E-01  3.71030E-01
    9003.455      6.390   2.000  1.35484E+00  9.84304E-01  3.70536E-01
    9004.071      7.005   2.040  1.32777E+00  9.89785E-01  3.37985E-01
    9004.699      7.633   2.080  1.32095E+00  9.94791E-01  3.26158E-01
    9005.339      8.273   2.120  1.34796E+00  9.99311E-01  3.48650E-01
    9005.991      8.926   2.160  1.37895E+00  1.00337E+00  3.75577E-01
    9006.656      9.590   2.200  1.36887E+00  1.00699E+00  3.61880E-01
    9007.332     10.267   2.240  1.30970E+00  1.01016E+00  2.99545E-01
    9008.021     10.955   2.280  1.23397E+00  1.01294E+00  2.21029E-01
    9008.722     11.657   2.320  1.16823E+00  1.01532E+00  1.52909E-01
    9009.435     12.370   2.360  1.11955E+00  1.01733E+00  1.02221E-01
    9010.161     13.095   2.400  1.09496E+00  1.01900E+00  7.59648E-02
    9010.898     13.833   2.440  1.09828E+00  1.02034E+00  7.79380E-02
    9011.648     14.583   2.480  1.10595E+00  1.02137E+00  8.45800E-02
    9012.410     15.345   2.520  1.10720E+00  1.02210E+00  8.50961E-02
    9013.184     16.119   2.560  1.09920E+00  1.02258E+00  7.66171E-02
    9013.971     16.905   2.600  1.08444E+00  1.02281E+00  6.16218E-02
    9014.769     17.704   2.640  1.06688E+00  1.02281E+00  4.40740E-02
    9015.580     18.514   2.680  1.04954E+00  1.02262E+00  2.69193E-02
    9016.403     19.337   2.720  1.03416E+00  1.02221E+00  1.19510E-02
    9017.238     20.173   2.760  1.02125E+00  1.02165E+00 -4.02806E-04
    9018.086     21.020   2.800  1.01005E+00  1.02094E+00 -1.08867E-02
    9018.945     21.879   2.840  9.99887E-01  1.02007E+00 -2.01839E-02
    9019.817     22.751   2.880  9.90365E-01  1.01910E+00 -2.87364E-02
    9020.701     23.635   2.920  9.81215E-01  1.01802E+00 -3.68038E-02
    9021.597     24.531   2.960  9.72352E-01  1.01685E+00 -4.44968E-02
    9022.505     25.440   3.000  9.63723E-01  1.01560E+00 -5.18755E-02
    9023.426     26.360   3.040  9.55160E-01  1.01430E+00 -5.91350E-02
    9024.358     27.293   3.080  9.46520E-01  1.01293E+00 -6.64057E-02
    9025.303     28.238   3.120  9.37849E-01  1.01154E+00 -7.36874E-02
    9026.260     29.195   3.160  9.29068E-01  1.01011E+00 -8.10441E-02
    9027.229     30.164   3.200  9.20217E-01  1.00868E+00 -8.84609E-02
    9028.211     31.145   3.240  9.11205E-01  1.00722E+00 -9.60138E-02
    9029.205     32.139   3.280  9.01695E-01  1.00578E+00 -1.04085E-01
    9030.210     33.145   3.320  8.91358E-01  1.00434E+00 -1.12987E-01
    9031.228     34.163   3.360  8.80604E-01  1.00292E+00 -1.22313E-01
    9032.259     35.193   3.400  8.70729E-01  1.00152E+00 -1.30792E-01
    9033.301     36.235   3.440  8.62959E-01  1.00016E+00 -1.37202E-01
    9034.356     37.290   3.480  8.58259E-01  9.98839E-01 -1.40580E-01
    9035.422     38.357   3.520  8.57156E-01  9.97559E-01 -1.40403E-01
    9036.501     39.436   3.560  8.59805E-01  9.96321E-01 -1.36516E-01
    9037.593     40.527   3.600  8.66081E-01  9.95151E-01 -1.29070E-01
    9038.696     41.630   3.640  8.75974E-01  9.94026E-01 -1.18051E-01
    9039.812     42.746   3.680  8.89557E-01  9.92949E-01 -1.03392E-01
    9040.939     43.874   3.720  9.06562E-01  9.91944E-01 -8.53820E-02
    9042.079     45.014   3.760  9.26242E-01  9.91011E-01 -6.47697E-02
    9043.231     46.166   3.800  9.47260E-01  9.90130E-01 -4.28698E-02
    9044.396     47.330   3.840  9.67919E-01  9.89323E-01 -2.14037E-02
    9045.572     48.507   3.880  9.86550E-01  9.88590E-01 -2.03913E-03
    9046.761     49.695   3.920  1.00202E+00  9.87911E-01  1.41135E-02
    9047.962     50.896   3.960  1.01398E+00  9.87330E-01  2.66498E-02
    9049.175     52.109   4.000  1.02279E+00  9.86803E-01  3.59843E-02
    9050.400     53.335   4.040  1.02964E+00  9.86349E-01  4.32878E-02
    9051.638     54.572   4.080  1.03586E+00  9.85948E-01  4.99088E-02
    9052.887     55.822   4.120  1.04236E+00  9.85622E-01  5.67373E-02
    9054.149     57.084   4.160  1.04918E+00  9.85370E-01  6.38105E-02
    9055.423     58.358   4.200  1.05546E+00  9.85192E-01  7.02692E-02
    9056.710     59.644   4.240  1.05983E+00  9.85065E-01  7.47695E-02
    9058.008     60.942   4.280  1.06124E+00  9.85010E-01  7.62307E-02
    9059.319     62.253   4.320  1.05947E+00  9.85005E-01  7.44676E-02
    9060.642     63.576   4.360  1.05517E+00  9.85070E-01  7.01035E-02
    9061.977     64.911   4.400  1.04950E+00  9.85182E-01  6.43142E-02
    9063.324     66.258   4.440  1.04381E+00  9.85362E-01  5.84453E-02
    9064.683     67.618   4.480  1.03920E+00  9.85588E-01  5.36159E-02
    9066.055     68.989   4.520  1.03632E+00  9.85856E-01  5.04662E-02
    9067.439     70.373   4.560  1.03526E+00  9.86164E-01  4.90997E-02
    9068.835     71.769   4.600  1.03560E+00  9.86514E-01  4.90890E-02
    9070.243     73.177   4.640  1.03653E+00  9.86902E-01  4.96295E-02
    9071.663     74.597   4.680  1.03718E+00  9.87351E-01  4.98339E-02
    9073.096     76.030   4.720  1.03681E+00  9.87792E-01  4.90171E-02
    9074.540     77.475   4.760  1.03502E+00  9.88288E-01  4.67345E-02
    9075.997     78.932   4.800  1.03158E+00  9.88796E-01  4.27861E-02
    9077.466     80.401   4.840  1.02658E+00  9.89334E-01  3.72491E-02
    9078.948     81.882   4.880  1.02032E+00  9.89877E-01  3.04425E-02
    9080.441     83.376   4.920  1.01325E+00  9.90426E-01  2.28244E-02
    9081.947     84.881   4.960  1.00598E+00  9.90999E-01  1.49838E-02
    9083.465     86.399   5.000  9.99212E-01  9.91553E-01  7.65836E-03
    9084.995     87.929   5.040  9.93617E-01  9.92130E-01  1.48704E-03
    9086.537     89.472   5.080  9.89382E-01  9.92707E-01 -3.32536E-03
    9088.092     91.026   5.120  9.86328E-01  9.93280E-01 -6.95226E-03
    9089.658     92.593   5.160  9.84168E-01  9.93827E-01 -9.65902E-03
    9091.237     94.172   5.200  9.82603E-01  9.94366E-01 -1.17632E-02
    9092.828     95.763   5.240  9.80928E-01  9.94897E-01 -1.39691E-02
    9094.432     97.366   5.280  9.78069E-01  9.95399E-01 -1.73302E-02
    9096.047     98.981   5.320  9.73450E-01  9.95890E-01 -2.24402E-02
    9097.675    100.609   5.360  9.67486E-01  9.96346E-01 -2.88604E-02
    9099.314    102.249   5.400  9.61796E-01  9.96768E-01 -3.49722E-02
    9100.966    103.901   5.440  9.57945E-01  9.97175E-01 -3.92304E-02
    9102.631    105.565   5.480  9.56513E-01  9.97546E-01 -4.10330E-02
    9104.307    107.241   5.520  9.57194E-01  9.97879E-01 -4.06852E-02
    9105.996    108.930   5.560  9.59486E-01  9.98171E-01 -3.86843E-02
    9107.696    110.631   5.600  9.63266E-01  9.98422E-01 -3.51563E-02
    9109.409    112.344   5.640  9.68947E-01  9.98633E-01 -2.96867E-02
    9111.134    114.069   5.680  9.76628E-01  9.98803E-01 -2.21751E-02
    9112.872    115.806   5.720  9.85639E-01  9.98929E-01 -1.32897E-02
    9114.621    117.556   5.760  9.94277E-01  9.98990E-01 -4.71236E-03
    9116.383    119.318   5.800  1.00021E+00  9.99031E-01  1.17984E-03
    9118.157    121.091   5.840  1.00123E+00  9.99010E-01  2.22319E-03
    9119.943    122.878   5.880  9.96570E-01  9.98969E-01 -2.39884E-03
    9121.741    124.676   5.920  9.87356E-01  9.98863E-01 -1.15069E-02
    9123.552    126.486   5.960  9.76427E-01  9.98707E-01 -2.22801E-02
    9125.375    128.309   6.000  9.66802E-01  9.98447E-01 -3.16449E-02
