# # comment:                                                     FEFF 9.9.1  
# # Source:
# # Structure
# # Reduced
# # space
# # abc:
# # angles:
# # sites:
# # POT  SCF 100  7.0000   0, screened core-hole, AFOLP (folp(0)= 1.150)
# # Abs   Z=29 Rmt= 1.227 Rnm= 1.306 K  shell
# # Pot 1 Z=22 Rmt= 1.272 Rnm= 1.410
# # Pot 2 Z=29 Rmt= 1.227 Rnm= 1.306
# # Pot 3 Z=83 Rmt= 1.649 Rnm= 1.681
# # Pot 4 Z= 8 Rmt= 1.017 Rnm= 1.103
# # Gam_ch=1.729E+00 H-L exch Vi= 0.000E+00 Vr= 0.000E+00
# # Mu=-1.001E+01eV kf=2.179E+00 Vint=-1.859E+01eV Rs_int= 1.664
# FMS rfms= 9.0000
# # PATH  Rmax=-1.000,  Keep_limit= 0.00, Heap_limit 0.00  Pwcrit= 2.50%
#  S02=0.950  Temp=   0.00  Debye_temp=   0.00  Global_sig2= 0.00000
#  Energy zero shift, vr, vi    0.00000E+00   0.00000E+00
#  Curved wave amplitude ratio filter   4.000%
#     file         sig2 tot  cw amp ratio   deg  nlegs   reff  inp sig2
#     0/   0 paths used
#  xsedge+ 50, used to normalize mu           2.4760E-04
#  -----------------------------------------------------------------------
#  omega    e    k    mu    mu0     chi     @#
    8984.941    -13.823  -1.000  3.60064E-02  5.04283E-02 -1.44219E-02
    8985.240    -13.524  -0.960  3.78017E-02  5.40075E-02 -1.62058E-02
    8985.527    -13.238  -0.920  3.97177E-02  5.79785E-02 -1.82608E-02
    8985.801    -12.964  -0.880  4.17649E-02  6.23986E-02 -2.06337E-02
    8986.063    -12.701  -0.840  4.39548E-02  6.73342E-02 -2.33794E-02
    8986.313    -12.452  -0.800  4.63001E-02  7.28626E-02 -2.65625E-02
    8986.551    -12.214  -0.760  4.88143E-02  7.90720E-02 -3.02577E-02
    8986.776    -11.988  -0.720  5.15118E-02  8.60623E-02 -3.45505E-02
    8986.990    -11.775  -0.680  5.44072E-02  9.39433E-02 -3.95361E-02
    8987.191    -11.574  -0.640  5.75146E-02  1.02831E-01 -4.53163E-02
    8987.380    -11.385  -0.600  6.08460E-02  1.12839E-01 -5.19928E-02
    8987.557    -11.208  -0.560  6.44088E-02  1.24064E-01 -5.96549E-02
    8987.721    -11.043  -0.520  6.82028E-02  1.36563E-01 -6.83599E-02
    8987.874    -10.891  -0.480  7.22154E-02  1.50322E-01 -7.81069E-02
    8988.014    -10.751  -0.440  7.64168E-02  1.65222E-01 -8.88051E-02
    8988.142    -10.623  -0.400  8.07550E-02  1.81003E-01 -1.00248E-01
    8988.258    -10.507  -0.360  8.51540E-02  1.97261E-01 -1.12107E-01
    8988.361    -10.403  -0.320  8.95152E-02  2.13470E-01 -1.23955E-01
    8988.453    -10.312  -0.280  9.37244E-02  2.29044E-01 -1.35319E-01
    8988.532    -10.233  -0.240  9.76614E-02  2.43421E-01 -1.45759E-01
    8988.599    -10.166  -0.200  1.01210E-01  2.56128E-01 -1.54918E-01
    8988.654    -10.111  -0.160  1.04268E-01  2.66821E-01 -1.62553E-01
    8988.696    -10.068  -0.120  1.06749E-01  2.75276E-01 -1.68527E-01
    8988.727    -10.038  -0.080  1.08585E-01  2.81368E-01 -1.72783E-01
    8988.751    -10.013   0.000  1.10125E-01  2.86265E-01 -1.76140E-01
    8988.806     -9.958   0.120  1.13566E-01  2.97316E-01 -1.83749E-01
    8988.849     -9.916   0.160  1.16261E-01  3.05899E-01 -1.89638E-01
    8988.904     -9.861   0.200  1.19779E-01  3.16862E-01 -1.97083E-01
    8988.971     -9.794   0.240  1.24204E-01  3.30082E-01 -2.05877E-01
    8989.050     -9.714   0.280  1.29534E-01  3.45261E-01 -2.15727E-01
    8989.141     -9.623   0.320  1.35840E-01  3.62049E-01 -2.26208E-01
    8989.245     -9.519   0.360  1.43147E-01  3.79976E-01 -2.36829E-01
    8989.361     -9.404   0.400  1.51354E-01  3.98503E-01 -2.47149E-01
    8989.489     -9.276   0.440  1.60388E-01  4.17218E-01 -2.56831E-01
    8989.629     -9.135   0.480  1.69981E-01  4.35729E-01 -2.65748E-01
    8989.782     -8.983   0.520  1.79780E-01  4.53812E-01 -2.74032E-01
    8989.946     -8.818   0.560  1.89407E-01  4.71386E-01 -2.81979E-01
    8990.123     -8.642   0.600  1.98559E-01  4.88382E-01 -2.89823E-01
    8990.312     -8.453   0.640  2.07508E-01  5.04869E-01 -2.97362E-01
    8990.513     -8.251   0.680  2.17370E-01  5.20913E-01 -3.03544E-01
    8990.726     -8.038   0.720  2.30296E-01  5.36609E-01 -3.06313E-01
    8990.952     -7.812   0.760  2.48776E-01  5.52009E-01 -3.03233E-01
    8991.190     -7.575   0.800  2.74305E-01  5.67217E-01 -2.92913E-01
    8991.440     -7.325   0.840  3.05709E-01  5.82250E-01 -2.76541E-01
    8991.702     -7.063   0.880  3.39232E-01  5.97186E-01 -2.57954E-01
    8991.976     -6.788   0.920  3.71723E-01  6.12055E-01 -2.40332E-01
    8992.263     -6.502   0.960  4.04182E-01  6.26857E-01 -2.22675E-01
    8992.561     -6.203   1.000  4.41292E-01  6.41619E-01 -2.00327E-01
    8992.872     -5.892   1.040  4.88924E-01  6.56343E-01 -1.67418E-01
    8993.195     -5.569   1.080  5.50997E-01  6.71001E-01 -1.20005E-01
    8993.531     -5.234   1.120  6.27320E-01  6.85603E-01 -5.82825E-02
    8993.878     -4.886   1.160  7.15897E-01  7.00129E-01  1.57682E-02
    8994.238     -4.527   1.200  8.03942E-01  7.14541E-01  8.94009E-02
    8994.610     -4.155   1.240  8.43820E-01  7.28815E-01  1.15006E-01
    8994.994     -3.771   1.280  7.92032E-01  7.42963E-01  4.90688E-02
    8995.390     -3.375   1.320  6.85940E-01  7.56900E-01 -7.09600E-02
    8995.798     -2.966   1.360  5.95476E-01  7.70634E-01 -1.75158E-01
    8996.219     -2.546   1.400  5.53105E-01  7.84137E-01 -2.31032E-01
    8996.652     -2.113   1.440  5.66245E-01  7.97376E-01 -2.31131E-01
    8997.097     -1.668   1.480  6.30107E-01  8.10302E-01 -1.80195E-01
    8997.554     -1.211   1.520  7.20243E-01  8.22905E-01 -1.02661E-01
    8998.023     -0.741   1.560  7.95850E-01  8.35172E-01 -3.93223E-02
    8998.505     -0.260   1.600  8.38215E-01  8.47057E-01 -8.84134E-03
    8998.999      0.234   1.640  8.61562E-01  8.58548E-01  3.01388E-03
    8999.505      0.740   1.680  8.76362E-01  8.69639E-01  6.72340E-03
    9000.023      1.258   1.720  8.68822E-01  8.80302E-01 -1.14801E-02
    9000.553      1.789   1.760  8.33811E-01  8.90511E-01 -5.67001E-02
    9001.096      2.331   1.800  8.08804E-01  9.00262E-01 -9.14585E-02
    9001.650      2.886   1.840  8.22906E-01  9.09572E-01 -8.66661E-02
    9002.217      3.453   1.880  8.66144E-01  9.18398E-01 -5.22535E-02
    9002.796      4.032   1.920  9.35021E-01  9.26758E-01  8.26324E-03
    9003.388      4.623   1.960  1.04023E+00  9.34632E-01  1.05601E-01
    9003.991      5.227   2.000  1.16066E+00  9.42041E-01  2.18622E-01
    9004.607      5.842   2.040  1.25136E+00  9.48989E-01  3.02366E-01
    9005.235      6.470   2.080  1.30324E+00  9.55459E-01  3.47776E-01
    9005.875      7.110   2.120  1.33899E+00  9.61493E-01  3.77497E-01
    9006.527      7.763   2.160  1.34315E+00  9.67055E-01  3.76099E-01
    9007.192      8.427   2.200  1.29249E+00  9.72193E-01  3.20297E-01
    9007.868      9.104   2.240  1.22038E+00  9.76892E-01  2.43487E-01
    9008.557      9.793   2.280  1.18634E+00  9.81179E-01  2.05157E-01
    9009.258     10.494   2.320  1.21280E+00  9.85082E-01  2.27713E-01
    9009.971     11.207   2.360  1.27560E+00  9.88589E-01  2.87006E-01
    9010.697     11.932   2.400  1.32427E+00  9.91749E-01  3.32516E-01
    9011.434     12.670   2.440  1.31671E+00  9.94527E-01  3.22181E-01
    9012.184     13.420   2.480  1.25065E+00  9.96995E-01  2.53651E-01
    9012.946     14.182   2.520  1.15567E+00  9.99141E-01  1.56532E-01
    9013.720     14.956   2.560  1.06442E+00  1.00097E+00  6.34519E-02
    9014.507     15.742   2.600  1.00383E+00  1.00254E+00  1.28814E-03
    9015.305     16.541   2.640  9.70923E-01  1.00383E+00 -3.29089E-02
    9016.116     17.352   2.680  9.50270E-01  1.00488E+00 -5.46062E-02
    9016.939     18.175   2.720  9.38320E-01  1.00570E+00 -6.73839E-02
    9017.774     19.010   2.760  9.34033E-01  1.00630E+00 -7.22700E-02
    9018.622     19.857   2.800  9.35414E-01  1.00672E+00 -7.13062E-02
    9019.481     20.717   2.840  9.38994E-01  1.00694E+00 -6.79508E-02
    9020.353     21.588   2.880  9.40733E-01  1.00700E+00 -6.62712E-02
    9021.237     22.472   2.920  9.38058E-01  1.00693E+00 -6.88688E-02
    9022.133     23.368   2.960  9.30421E-01  1.00670E+00 -7.62789E-02
    9023.041     24.277   3.000  9.18598E-01  1.00635E+00 -8.77536E-02
    9023.962     25.197   3.040  9.03871E-01  1.00591E+00 -1.02036E-01
    9024.894     26.130   3.080  8.87743E-01  1.00537E+00 -1.17632E-01
    9025.839     27.075   3.120  8.72148E-01  1.00474E+00 -1.32591E-01
    9026.796     28.032   3.160  8.58695E-01  1.00405E+00 -1.45352E-01
    9027.766     29.001   3.200  8.48799E-01  1.00330E+00 -1.54505E-01
    9028.747     29.983   3.240  8.43644E-01  1.00249E+00 -1.58850E-01
    9029.741     30.976   3.280  8.43570E-01  1.00164E+00 -1.58074E-01
    9030.746     31.982   3.320  8.48101E-01  1.00078E+00 -1.52678E-01
    9031.765     33.000   3.360  8.56361E-01  9.99881E-01 -1.43519E-01
    9032.795     34.030   3.400  8.67422E-01  9.98976E-01 -1.31554E-01
    9033.837     35.073   3.440  8.80271E-01  9.98069E-01 -1.17797E-01
    9034.892     36.127   3.480  8.94482E-01  9.97161E-01 -1.02680E-01
    9035.959     37.194   3.520  9.09903E-01  9.96277E-01 -8.63743E-02
    9037.038     38.273   3.560  9.26516E-01  9.95378E-01 -6.88618E-02
    9038.129     39.364   3.600  9.44578E-01  9.94508E-01 -4.99303E-02
    9039.232     40.468   3.640  9.64263E-01  9.93670E-01 -2.94073E-02
    9040.348     41.583   3.680  9.85310E-01  9.92866E-01 -7.55539E-03
    9041.475     42.711   3.720  1.00671E+00  9.92076E-01  1.46377E-02
    9042.615     43.851   3.760  1.02682E+00  9.91324E-01  3.54942E-02
    9043.767     45.003   3.800  1.04338E+00  9.90631E-01  5.27461E-02
    9044.932     46.167   3.840  1.05409E+00  9.89958E-01  6.41342E-02
    9046.108     47.344   3.880  1.05760E+00  9.89347E-01  6.82478E-02
    9047.297     48.533   3.920  1.05348E+00  9.88757E-01  6.47249E-02
    9048.498     49.734   3.960  1.04266E+00  9.88231E-01  5.44288E-02
    9049.711     50.947   4.000  1.02723E+00  9.87748E-01  3.94813E-02
    9050.936     52.172   4.040  1.01027E+00  9.87331E-01  2.29387E-02
    9052.174     53.409   4.080  9.95183E-01  9.86937E-01  8.24639E-03
    9053.424     54.659   4.120  9.85107E-01  9.86607E-01 -1.50009E-03
    9054.685     55.921   4.160  9.82362E-01  9.86323E-01 -3.96081E-03
    9055.959     57.195   4.200  9.87976E-01  9.86103E-01  1.87348E-03
    9057.246     58.481   4.240  1.00114E+00  9.85906E-01  1.52355E-02
    9058.544     59.780   4.280  1.01933E+00  9.85775E-01  3.35521E-02
    9059.855     61.090   4.320  1.03889E+00  9.85687E-01  5.32063E-02
    9061.178     62.413   4.360  1.05637E+00  9.85662E-01  7.07026E-02
    9062.513     63.748   4.400  1.06900E+00  9.85657E-01  8.33470E-02
    9063.860     65.095   4.440  1.07528E+00  9.85693E-01  8.95821E-02
    9065.219     66.455   4.480  1.07467E+00  9.85791E-01  8.88823E-02
    9066.591     67.826   4.520  1.06791E+00  9.85906E-01  8.20041E-02
    9067.975     69.210   4.560  1.05711E+00  9.86080E-01  7.10334E-02
    9069.371     70.606   4.600  1.04506E+00  9.86271E-01  5.87937E-02
    9070.779     72.014   4.640  1.03452E+00  9.86497E-01  4.80234E-02
    9072.199     73.435   4.680  1.02738E+00  9.86756E-01  4.06216E-02
    9073.632     74.867   4.720  1.02415E+00  9.87027E-01  3.71225E-02
    9075.076     76.312   4.760  1.02415E+00  9.87331E-01  3.68149E-02
    9076.533     77.769   4.800  1.02595E+00  9.87667E-01  3.82823E-02
    9078.002     79.238   4.840  1.02804E+00  9.88009E-01  4.00317E-02
    9079.484     80.719   4.880  1.02929E+00  9.88357E-01  4.09288E-02
    9080.977     82.213   4.920  1.02884E+00  9.88734E-01  4.01016E-02
    9082.483     83.719   4.960  1.02596E+00  9.89118E-01  3.68453E-02
    9084.001     85.236   5.000  1.02013E+00  9.89524E-01  3.06057E-02
    9085.531     86.767   5.040  1.01079E+00  9.89909E-01  2.08771E-02
    9087.073     88.309   5.080  9.97596E-01  9.90294E-01  7.30246E-03
    9088.628     89.863   5.120  9.80745E-01  9.90699E-01 -9.95430E-03
    9090.194     91.430   5.160  9.61133E-01  9.91080E-01 -2.99476E-02
    9091.773     93.009   5.200  9.40360E-01  9.91457E-01 -5.10961E-02
    9093.364     94.600   5.240  9.20227E-01  9.91828E-01 -7.16002E-02
    9094.968     96.203   5.280  9.02345E-01  9.92172E-01 -8.98268E-02
    9096.583     97.819   5.320  8.88044E-01  9.92530E-01 -1.04486E-01
    9098.211     99.446   5.360  8.78163E-01  9.92835E-01 -1.14672E-01
    9099.850    101.086   5.400  8.73271E-01  9.93130E-01 -1.19859E-01
    9101.502    102.738   5.440  8.73520E-01  9.93416E-01 -1.19896E-01
    9103.167    104.402   5.480  8.78667E-01  9.93671E-01 -1.15004E-01
    9104.843    106.079   5.520  8.88350E-01  9.93914E-01 -1.05564E-01
    9106.532    107.767   5.560  9.02193E-01  9.94122E-01 -9.19298E-02
    9108.232    109.468   5.600  9.19871E-01  9.94293E-01 -7.44219E-02
    9109.945    111.181   5.640  9.40858E-01  9.94425E-01 -5.35672E-02
    9111.671    112.906   5.680  9.64309E-01  9.94520E-01 -3.02112E-02
    9113.408    114.643   5.720  9.89114E-01  9.94603E-01 -5.48915E-03
    9115.157    116.393   5.760  1.01390E+00  9.94650E-01  1.92538E-02
    9116.919    118.155   5.800  1.03712E+00  9.94659E-01  4.24610E-02
    9118.693    119.929   5.840  1.05709E+00  9.94632E-01  6.24606E-02
    9120.479    121.715   5.880  1.07229E+00  9.94590E-01  7.77000E-02
    9122.278    123.513   5.920  1.08130E+00  9.94487E-01  8.68147E-02
    9124.088    125.324   5.960  1.08280E+00  9.94341E-01  8.84578E-02
    9125.911    127.146   6.000  1.07546E+00  9.94165E-01  8.12980E-02
