# # comment:                                                     FEFF 9.9.1  
# # Source:
# # Structure
# # Reduced
# # space
# # abc:
# # angles:
# # sites:
# # POT  SCF 100  7.0000   0, screened core-hole, AFOLP (folp(0)= 1.150)
# # Abs   Z=29 Rmt= 1.360 Rnm= 1.419 K  shell
# # Pot 1 Z= 3 Rmt= 1.268 Rnm= 1.329
# # Pot 2 Z=29 Rmt= 1.335 Rnm= 1.405
# # Pot 3 Z=15 Rmt= 0.945 Rnm= 1.157
# # Pot 4 Z= 8 Rmt= 0.921 Rnm= 1.042
# # Gam_ch=1.729E+00 H-L exch Vi= 0.000E+00 Vr= 0.000E+00
# # Mu=-6.202E+00eV kf=2.366E+00 Vint=-1.709E+01eV Rs_int= 1.533
# FMS rfms= 9.0000
# # PATH  Rmax=-1.000,  Keep_limit= 0.00, Heap_limit 0.00  Pwcrit= 2.50%
#  S02=0.950  Temp=   0.00  Debye_temp=   0.00  Global_sig2= 0.00000
#  Energy zero shift, vr, vi    0.00000E+00   0.00000E+00
#  Curved wave amplitude ratio filter   4.000%
#     file         sig2 tot  cw amp ratio   deg  nlegs   reff  inp sig2
#     0/   0 paths used
#  xsedge+ 50, used to normalize mu           2.4677E-04
#  -----------------------------------------------------------------------
#  omega    e    k    mu    mu0     chi     @#
    8983.632    -10.012  -1.000  5.22204E-02  5.51662E-02 -2.94580E-03
    8983.931     -9.714  -0.960  5.57646E-02  5.92162E-02 -3.45159E-03
    8984.218     -9.427  -0.920  5.96780E-02  6.37218E-02 -4.04373E-03
    8984.492     -9.153  -0.880  6.40134E-02  6.87506E-02 -4.73715E-03
    8984.754     -8.891  -0.840  6.88321E-02  7.43815E-02 -5.54940E-03
    8985.004     -8.641  -0.800  7.42051E-02  8.07060E-02 -6.50099E-03
    8985.242     -8.403  -0.760  8.02136E-02  8.78293E-02 -7.61570E-03
    8985.467     -8.177  -0.720  8.69496E-02  9.58702E-02 -8.92066E-03
    8985.681     -7.964  -0.680  9.45137E-02  1.04960E-01 -1.04461E-02
    8985.882     -7.763  -0.640  1.03012E-01  1.15237E-01 -1.22242E-02
    8986.071     -7.574  -0.600  1.12550E-01  1.26837E-01 -1.42869E-02
    8986.248     -7.397  -0.560  1.23215E-01  1.39877E-01 -1.66618E-02
    8986.412     -7.233  -0.520  1.35062E-01  1.54427E-01 -1.93651E-02
    8986.565     -7.080  -0.480  1.48079E-01  1.70472E-01 -2.23926E-02
    8986.705     -6.940  -0.440  1.62162E-01  1.87871E-01 -2.57090E-02
    8986.833     -6.812  -0.400  1.77080E-01  2.06319E-01 -2.92397E-02
    8986.949     -6.696  -0.360  1.92467E-01  2.25337E-01 -3.28701E-02
    8987.052     -6.593  -0.320  2.07845E-01  2.44302E-01 -3.64565E-02
    8987.144     -6.501  -0.280  2.22673E-01  2.62521E-01 -3.98484E-02
    8987.223     -6.422  -0.240  2.36419E-01  2.79333E-01 -4.29135E-02
    8987.290     -6.355  -0.200  2.48626E-01  2.94182E-01 -4.55560E-02
    8987.345     -6.300  -0.160  2.58944E-01  3.06665E-01 -4.77213E-02
    8987.388     -6.257  -0.120  2.67138E-01  3.16527E-01 -4.93889E-02
    8987.418     -6.227  -0.080  2.73067E-01  3.23628E-01 -5.05610E-02
    8987.442     -6.202   0.000  2.77850E-01  3.29330E-01 -5.14801E-02
    8987.497     -6.148   0.120  2.88464E-01  3.42190E-01 -5.37264E-02
    8987.540     -6.105   0.160  2.96776E-01  3.52170E-01 -5.53938E-02
    8987.595     -6.050   0.200  3.07436E-01  3.64890E-01 -5.74539E-02
    8987.662     -5.983   0.240  3.20366E-01  3.80184E-01 -5.98183E-02
    8987.741     -5.904   0.280  3.35313E-01  3.97691E-01 -6.23782E-02
    8987.833     -5.812   0.320  3.51976E-01  4.16981E-01 -6.50050E-02
    8987.936     -5.709   0.360  3.69863E-01  4.37434E-01 -6.75711E-02
    8988.052     -5.593   0.400  3.88474E-01  4.58458E-01 -6.99835E-02
    8988.180     -5.465   0.440  4.07240E-01  4.79472E-01 -7.22315E-02
    8988.320     -5.325   0.480  4.25613E-01  5.00022E-01 -7.44093E-02
    8988.473     -5.172   0.520  4.43049E-01  5.19856E-01 -7.68069E-02
    8988.637     -5.008   0.560  4.58877E-01  5.38829E-01 -7.99522E-02
    8988.814     -4.831   0.600  4.72325E-01  5.56931E-01 -8.46057E-02
    8989.003     -4.642   0.640  4.82683E-01  5.74184E-01 -9.15014E-02
    8989.204     -4.441   0.680  4.89855E-01  5.90718E-01 -1.00862E-01
    8989.418     -4.227   0.720  4.94755E-01  6.06650E-01 -1.11895E-01
    8989.643     -4.002   0.760  4.99409E-01  6.22039E-01 -1.22629E-01
    8989.881     -3.764   0.800  5.06743E-01  6.37015E-01 -1.30272E-01
    8990.131     -3.514   0.840  5.19658E-01  6.51675E-01 -1.32017E-01
    8990.393     -3.252   0.880  5.39672E-01  6.66040E-01 -1.26368E-01
    8990.667     -2.978   0.920  5.65789E-01  6.80197E-01 -1.14408E-01
    8990.954     -2.691   0.960  5.93988E-01  6.94183E-01 -1.00194E-01
    8991.252     -2.392   1.000  6.18479E-01  7.08019E-01 -8.95401E-02
    8991.563     -2.082   1.040  6.35617E-01  7.21719E-01 -8.61022E-02
    8991.886     -1.758   1.080  6.47540E-01  7.35289E-01 -8.77491E-02
    8992.222     -1.423   1.120  6.60391E-01  7.48746E-01 -8.83553E-02
    8992.569     -1.076   1.160  6.80010E-01  7.62064E-01 -8.20535E-02
    8992.929     -0.716   1.200  7.10421E-01  7.75248E-01 -6.48271E-02
    8993.301     -0.344   1.240  7.52394E-01  7.88265E-01 -3.58710E-02
    8993.685      0.040   1.280  8.02843E-01  8.01131E-01  1.71180E-03
    8994.081      0.436   1.320  8.57345E-01  8.13787E-01  4.35583E-02
    8994.489      0.845   1.360  9.13592E-01  8.26228E-01  8.73637E-02
    8994.910      1.265   1.400  9.72172E-01  8.38428E-01  1.33744E-01
    8995.343      1.698   1.440  1.03436E+00  8.50378E-01  1.83979E-01
    8995.788      2.143   1.480  1.09997E+00  8.62035E-01  2.37932E-01
    8996.245      2.600   1.520  1.16759E+00  8.73389E-01  2.94198E-01
    8996.714      3.070   1.560  1.23121E+00  8.84431E-01  3.46780E-01
    8997.196      3.551   1.600  1.28326E+00  8.95095E-01  3.88163E-01
    8997.690      4.045   1.640  1.31899E+00  9.05411E-01  4.13582E-01
    8998.196      4.551   1.680  1.33553E+00  9.15335E-01  4.20191E-01
    8998.714      5.069   1.720  1.33412E+00  9.24858E-01  4.09259E-01
    8999.244      5.599   1.760  1.31100E+00  9.33955E-01  3.77043E-01
    8999.787      6.142   1.800  1.25930E+00  9.42622E-01  3.16675E-01
    9000.342      6.697   1.840  1.18934E+00  9.50853E-01  2.38484E-01
    9000.908      7.264   1.880  1.11907E+00  9.58626E-01  1.60445E-01
    9001.488      7.843   1.920  1.06499E+00  9.65939E-01  9.90500E-02
    9002.079      8.434   1.960  1.03637E+00  9.72814E-01  6.35537E-02
    9002.682      9.038   2.000  1.03235E+00  9.79228E-01  5.31187E-02
    9003.298      9.653   2.040  1.04381E+00  9.85183E-01  5.86293E-02
    9003.926     10.281   2.080  1.05785E+00  9.90662E-01  6.71848E-02
    9004.566     10.921   2.120  1.06434E+00  9.95726E-01  6.86154E-02
    9005.218     11.573   2.160  1.05900E+00  1.00032E+00  5.86788E-02
    9005.883     12.238   2.200  1.04220E+00  1.00449E+00  3.77079E-02
    9006.559     12.915   2.240  1.02051E+00  1.00824E+00  1.22617E-02
    9007.248     13.603   2.280  1.00372E+00  1.01158E+00 -7.86648E-03
    9007.949     14.304   2.320  9.95124E-01  1.01451E+00 -1.93906E-02
    9008.663     15.018   2.360  9.89814E-01  1.01707E+00 -2.72545E-02
    9009.388     15.743   2.400  9.82452E-01  1.01925E+00 -3.68021E-02
    9010.126     16.481   2.440  9.72645E-01  1.02108E+00 -4.84320E-02
    9010.875     17.231   2.480  9.63439E-01  1.02259E+00 -5.91481E-02
    9011.637     17.993   2.520  9.56884E-01  1.02377E+00 -6.68894E-02
    9012.412     18.767   2.560  9.51969E-01  1.02465E+00 -7.26766E-02
    9013.198     19.553   2.600  9.47175E-01  1.02525E+00 -7.80774E-02
    9013.997     20.352   2.640  9.42125E-01  1.02558E+00 -8.34588E-02
    9014.807     21.162   2.680  9.37284E-01  1.02569E+00 -8.84061E-02
    9015.630     21.985   2.720  9.32464E-01  1.02554E+00 -9.30741E-02
    9016.465     22.821   2.760  9.26765E-01  1.02520E+00 -9.84347E-02
    9017.313     23.668   2.800  9.21497E-01  1.02469E+00 -1.03189E-01
    9018.172     24.527   2.840  9.18776E-01  1.02398E+00 -1.05206E-01
    9019.044     25.399   2.880  9.19535E-01  1.02314E+00 -1.03604E-01
    9019.928     26.283   2.920  9.22769E-01  1.02214E+00 -9.93763E-02
    9020.824     27.179   2.960  9.26993E-01  1.02103E+00 -9.40340E-02
    9021.732     28.087   3.000  9.31533E-01  1.01982E+00 -8.82829E-02
    9022.653     29.008   3.040  9.36132E-01  1.01852E+00 -8.23856E-02
    9023.585     29.941   3.080  9.40916E-01  1.01714E+00 -7.62251E-02
    9024.530     30.886   3.120  9.46294E-01  1.01569E+00 -6.93983E-02
    9025.487     31.843   3.160  9.52611E-01  1.01422E+00 -6.16080E-02
    9026.457     32.812   3.200  9.59689E-01  1.01271E+00 -5.30189E-02
    9027.438     33.793   3.240  9.67216E-01  1.01116E+00 -4.39465E-02
    9028.432     34.787   3.280  9.74672E-01  1.00961E+00 -3.49379E-02
    9029.438     35.793   3.320  9.81497E-01  1.00806E+00 -2.65600E-02
    9030.456     36.811   3.360  9.87497E-01  1.00651E+00 -1.90103E-02
    9031.486     37.841   3.400  9.92909E-01  1.00499E+00 -1.20790E-02
    9032.528     38.883   3.440  9.98130E-01  1.00350E+00 -5.37001E-03
    9033.583     39.938   3.480  1.00365E+00  1.00203E+00  1.62444E-03
    9034.650     41.005   3.520  1.00989E+00  1.00062E+00  9.27367E-03
    9035.729     42.084   3.560  1.01698E+00  9.99256E-01  1.77288E-02
    9036.820     43.175   3.600  1.02492E+00  9.97938E-01  2.69805E-02
    9037.923     44.278   3.640  1.03363E+00  9.96691E-01  3.69420E-02
    9039.039     45.394   3.680  1.04301E+00  9.95517E-01  4.74897E-02
    9040.167     46.522   3.720  1.05280E+00  9.94395E-01  5.84000E-02
    9041.306     47.662   3.760  1.06274E+00  9.93349E-01  6.93906E-02
    9042.459     48.814   3.800  1.07235E+00  9.92382E-01  7.99632E-02
    9043.623     49.978   3.840  1.08082E+00  9.91496E-01  8.93253E-02
    9044.799     51.155   3.880  1.08730E+00  9.90690E-01  9.66129E-02
    9045.988     52.343   3.920  1.09112E+00  9.89987E-01  1.01133E-01
    9047.189     53.544   3.960  1.09186E+00  9.89344E-01  1.02511E-01
    9048.402     54.757   4.000  1.08945E+00  9.88784E-01  1.00662E-01
    9049.627     55.983   4.040  1.08416E+00  9.88325E-01  9.58301E-02
    9050.865     57.220   4.080  1.07625E+00  9.87949E-01  8.83039E-02
    9052.115     58.470   4.120  1.06596E+00  9.87635E-01  7.83290E-02
    9053.377     59.732   4.160  1.05358E+00  9.87421E-01  6.61554E-02
    9054.651     61.006   4.200  1.03945E+00  9.87288E-01  5.21642E-02
    9055.937     62.292   4.240  1.02404E+00  9.87234E-01  3.68061E-02
    9057.235     63.590   4.280  1.00787E+00  9.87236E-01  2.06342E-02
    9058.546     64.901   4.320  9.91585E-01  9.87336E-01  4.24832E-03
    9059.869     66.224   4.360  9.75756E-01  9.87492E-01 -1.17361E-02
    9061.204     67.559   4.400  9.61069E-01  9.87720E-01 -2.66501E-02
    9062.551     68.906   4.440  9.48117E-01  9.87998E-01 -3.98811E-02
    9063.910     70.266   4.480  9.37327E-01  9.88349E-01 -5.10224E-02
    9065.282     71.637   4.520  9.28944E-01  9.88770E-01 -5.98258E-02
    9066.666     73.021   4.560  9.23057E-01  9.89237E-01 -6.61804E-02
    9068.062     74.417   4.600  9.19658E-01  9.89744E-01 -7.00864E-02
    9069.470     75.825   4.640  9.18709E-01  9.90270E-01 -7.15606E-02
    9070.890     77.245   4.680  9.20278E-01  9.90856E-01 -7.05781E-02
    9072.323     78.678   4.720  9.24252E-01  9.91482E-01 -6.72296E-02
    9073.768     80.123   4.760  9.30393E-01  9.92143E-01 -6.17500E-02
    9075.224     81.580   4.800  9.38190E-01  9.92812E-01 -5.46226E-02
    9076.694     83.049   4.840  9.46928E-01  9.93488E-01 -4.65601E-02
    9078.175     84.530   4.880  9.55850E-01  9.94190E-01 -3.83401E-02
    9079.668     86.024   4.920  9.64262E-01  9.94895E-01 -3.06329E-02
    9081.174     87.529   4.960  9.71750E-01  9.95599E-01 -2.38484E-02
    9082.692     89.047   5.000  9.78275E-01  9.96278E-01 -1.80031E-02
    9084.222     90.577   5.040  9.84137E-01  9.96975E-01 -1.28376E-02
    9085.764     92.120   5.080  9.89620E-01  9.97644E-01 -8.02410E-03
    9087.319     93.674   5.120  9.94954E-01  9.98306E-01 -3.35186E-03
    9088.886     95.241   5.160  1.00021E+00  9.98957E-01  1.24945E-03
    9090.464     96.820   5.200  1.00534E+00  9.99550E-01  5.79165E-03
    9092.055     98.411   5.240  1.01037E+00  1.00013E+00  1.02392E-02
    9093.659    100.014   5.280  1.01506E+00  1.00066E+00  1.43954E-02
    9095.274    101.629   5.320  1.01896E+00  1.00116E+00  1.78045E-02
    9096.902    103.257   5.360  1.02139E+00  1.00159E+00  1.97978E-02
    9098.542    104.897   5.400  1.02174E+00  1.00200E+00  1.97436E-02
    9100.194    106.549   5.440  1.01971E+00  1.00234E+00  1.73742E-02
    9101.858    108.213   5.480  1.01565E+00  1.00264E+00  1.30127E-02
    9103.534    109.889   5.520  1.01040E+00  1.00288E+00  7.51170E-03
    9105.223    111.578   5.560  1.00499E+00  1.00306E+00  1.92525E-03
    9106.924    113.279   5.600  1.00034E+00  1.00319E+00 -2.85028E-03
    9108.637    114.992   5.640  9.96983E-01  1.00325E+00 -6.26566E-03
    9110.362    116.717   5.680  9.95196E-01  1.00326E+00 -8.06091E-03
    9112.099    118.454   5.720  9.95062E-01  1.00319E+00 -8.13039E-03
    9113.849    120.204   5.760  9.96606E-01  1.00308E+00 -6.47409E-03
    9115.610    121.965   5.800  9.99690E-01  1.00290E+00 -3.20682E-03
    9117.384    123.739   5.840  1.00411E+00  1.00267E+00  1.44118E-03
    9119.170    125.526   5.880  1.00950E+00  1.00237E+00  7.13203E-03
    9120.969    127.324   5.920  1.01545E+00  1.00202E+00  1.34293E-02
    9122.779    129.134   5.960  1.02135E+00  1.00160E+00  1.97435E-02
    9124.602    130.957   6.000  1.02647E+00  1.00110E+00  2.53735E-02
