# # comment:                                                     FEFF 9.9.1  
# # Source:
# # Structure
# # Reduced
# # space
# # abc:
# # angles:
# # sites:
# # POT  SCF 100  7.0000   0, screened core-hole, AFOLP (folp(0)= 1.150)
# # Abs   Z=29 Rmt= 1.236 Rnm= 1.328 K  shell
# # Pot 1 Z=56 Rmt= 1.993 Rnm= 2.054
# # Pot 2 Z=29 Rmt= 1.195 Rnm= 1.302
# # Pot 3 Z= 8 Rmt= 1.058 Rnm= 1.116
# # Gam_ch=1.729E+00 H-L exch Vi= 0.000E+00 Vr= 0.000E+00
# # Mu=-7.837E+00eV kf=2.059E+00 Vint=-1.600E+01eV Rs_int= 1.761
# FMS rfms= 9.0000
# # PATH  Rmax=-1.000,  Keep_limit= 0.00, Heap_limit 0.00  Pwcrit= 2.50%
#  S02=0.950  Temp=   0.00  Debye_temp=   0.00  Global_sig2= 0.00000
#  Energy zero shift, vr, vi    0.00000E+00   0.00000E+00
#  Curved wave amplitude ratio filter   4.000%
#     file         sig2 tot  cw amp ratio   deg  nlegs   reff  inp sig2
#     0/   0 paths used
#  xsedge+ 50, used to normalize mu           2.4349E-04
#  -----------------------------------------------------------------------
#  omega    e    k    mu    mu0     chi     @#
    8984.432    -11.647  -1.000  4.12332E-02  5.84061E-02 -1.71729E-02
    8984.731    -11.348  -0.960  4.35812E-02  6.27307E-02 -1.91495E-02
    8985.018    -11.062  -0.920  4.61484E-02  6.75400E-02 -2.13916E-02
    8985.292    -10.787  -0.880  4.89671E-02  7.29054E-02 -2.39383E-02
    8985.554    -10.525  -0.840  5.20752E-02  7.89100E-02 -2.68347E-02
    8985.804    -10.275  -0.800  5.55177E-02  8.56499E-02 -3.01322E-02
    8986.042    -10.038  -0.760  5.93468E-02  9.32356E-02 -3.38888E-02
    8986.267     -9.812  -0.720  6.36226E-02  1.01792E-01 -3.81691E-02
    8986.481     -9.599  -0.680  6.84126E-02  1.11456E-01 -4.30430E-02
    8986.682     -9.398  -0.640  7.37888E-02  1.22372E-01 -4.85832E-02
    8986.871     -9.209  -0.600  7.98233E-02  1.34683E-01 -5.48597E-02
    8987.048     -9.032  -0.560  8.65786E-02  1.48510E-01 -6.19316E-02
    8987.212     -8.867  -0.520  9.40924E-02  1.63926E-01 -6.98333E-02
    8987.365     -8.715  -0.480  1.02357E-01  1.80913E-01 -7.85561E-02
    8987.505     -8.575  -0.440  1.11296E-01  1.99324E-01 -8.80281E-02
    8987.633     -8.447  -0.400  1.20743E-01  2.18838E-01 -9.80950E-02
    8987.749     -8.331  -0.360  1.30438E-01  2.38951E-01 -1.08513E-01
    8987.852     -8.227  -0.320  1.40047E-01  2.59010E-01 -1.18962E-01
    8987.944     -8.136  -0.280  1.49209E-01  2.78288E-01 -1.29079E-01
    8988.023     -8.056  -0.240  1.57586E-01  2.96085E-01 -1.38500E-01
    8988.090     -7.989  -0.200  1.64910E-01  3.11817E-01 -1.46907E-01
    8988.145     -7.935  -0.160  1.71003E-01  3.25052E-01 -1.54049E-01
    8988.188     -7.892  -0.120  1.75762E-01  3.35516E-01 -1.59754E-01
    8988.218     -7.861  -0.080  1.79140E-01  3.43056E-01 -1.63916E-01
    8988.242     -7.837   0.000  1.81764E-01  3.49113E-01 -1.67349E-01
    8988.297     -7.782   0.120  1.87944E-01  3.62790E-01 -1.74846E-01
    8988.340     -7.739   0.160  1.92717E-01  3.73407E-01 -1.80690E-01
    8988.395     -7.685   0.200  1.98740E-01  3.86960E-01 -1.88220E-01
    8988.462     -7.618   0.240  2.05875E-01  4.03289E-01 -1.97414E-01
    8988.541     -7.538   0.280  2.13798E-01  4.22035E-01 -2.08237E-01
    8988.633     -7.447   0.320  2.22153E-01  4.42769E-01 -2.20616E-01
    8988.736     -7.343   0.360  2.30341E-01  4.64845E-01 -2.34504E-01
    8988.852     -7.227   0.400  2.37737E-01  4.87641E-01 -2.49904E-01
    8988.980     -7.099   0.440  2.43640E-01  5.10587E-01 -2.66947E-01
    8989.120     -6.959   0.480  2.47415E-01  5.33240E-01 -2.85825E-01
    8989.273     -6.807   0.520  2.48660E-01  5.55278E-01 -3.06618E-01
    8989.437     -6.642   0.560  2.47551E-01  5.76567E-01 -3.29016E-01
    8989.614     -6.465   0.600  2.44869E-01  5.97049E-01 -3.52180E-01
    8989.803     -6.276   0.640  2.41986E-01  6.16781E-01 -3.74795E-01
    8990.004     -6.075   0.680  2.40393E-01  6.35839E-01 -3.95446E-01
    8990.218     -5.862   0.720  2.41388E-01  6.54294E-01 -4.12906E-01
    8990.443     -5.636   0.760  2.46071E-01  6.72234E-01 -4.26163E-01
    8990.681     -5.399   0.800  2.55334E-01  6.89758E-01 -4.34424E-01
    8990.931     -5.149   0.840  2.69989E-01  7.06889E-01 -4.36900E-01
    8991.193     -4.887   0.880  2.90923E-01  7.23675E-01 -4.32752E-01
    8991.467     -4.612   0.920  3.19243E-01  7.40151E-01 -4.20908E-01
    8991.754     -4.326   0.960  3.56354E-01  7.56337E-01 -3.99982E-01
    8992.052     -4.027   1.000  4.04065E-01  7.72222E-01 -3.68157E-01
    8992.363     -3.716   1.040  4.63741E-01  7.87787E-01 -3.24047E-01
    8992.686     -3.393   1.080  5.32433E-01  8.03025E-01 -2.70592E-01
    8993.022     -3.058   1.120  5.95895E-01  8.17922E-01 -2.22027E-01
    8993.369     -2.710   1.160  6.31733E-01  8.32461E-01 -2.00728E-01
    8993.729     -2.351   1.200  6.34153E-01  8.46577E-01 -2.12424E-01
    8994.101     -1.979   1.240  6.20798E-01  8.60288E-01 -2.39491E-01
    8994.485     -1.595   1.280  6.10416E-01  8.73529E-01 -2.63113E-01
    8994.881     -1.199   1.320  6.13371E-01  8.86292E-01 -2.72922E-01
    8995.289     -0.790   1.360  6.31240E-01  8.98552E-01 -2.67312E-01
    8995.710     -0.369   1.400  6.60577E-01  9.10259E-01 -2.49682E-01
    8996.143      0.063   1.440  6.99636E-01  9.21430E-01 -2.21795E-01
    8996.588      0.508   1.480  7.47014E-01  9.32020E-01 -1.85006E-01
    8997.045      0.966   1.520  7.92279E-01  9.42046E-01 -1.49767E-01
    8997.514      1.435   1.560  8.33600E-01  9.51463E-01 -1.17863E-01
    8997.996      1.917   1.600  8.98042E-01  9.60272E-01 -6.22299E-02
    8998.490      2.410   1.640  1.00763E+00  9.68496E-01  3.91326E-02
    8998.996      2.916   1.680  1.14485E+00  9.76094E-01  1.68752E-01
    8999.514      3.434   1.720  1.26493E+00  9.83114E-01  2.81820E-01
    9000.044      3.965   1.760  1.35908E+00  9.89560E-01  3.69522E-01
    9000.587      4.507   1.800  1.43942E+00  9.95418E-01  4.43997E-01
    9001.142      5.062   1.840  1.48285E+00  1.00070E+00  4.82156E-01
    9001.708      5.629   1.880  1.47708E+00  1.00545E+00  4.71634E-01
    9002.288      6.208   1.920  1.44834E+00  1.00966E+00  4.38680E-01
    9002.879      6.799   1.960  1.43610E+00  1.01339E+00  4.22716E-01
    9003.482      7.403   2.000  1.46314E+00  1.01662E+00  4.46521E-01
    9004.098      8.019   2.040  1.49951E+00  1.01938E+00  4.80126E-01
    9004.726      8.646   2.080  1.49444E+00  1.02172E+00  4.72719E-01
    9005.366      9.287   2.120  1.43535E+00  1.02364E+00  4.11714E-01
    9006.018      9.939   2.160  1.33443E+00  1.02516E+00  3.09276E-01
    9006.683     10.603   2.200  1.21663E+00  1.02634E+00  1.90286E-01
    9007.359     11.280   2.240  1.11217E+00  1.02718E+00  8.49936E-02
    9008.048     11.969   2.280  1.03346E+00  1.02771E+00  5.75529E-03
    9008.749     12.670   2.320  9.81588E-01  1.02795E+00 -4.63605E-02
    9009.463     13.383   2.360  9.60005E-01  1.02793E+00 -6.79297E-02
    9010.188     14.108   2.400  9.69042E-01  1.02770E+00 -5.86561E-02
    9010.926     14.846   2.440  9.97490E-01  1.02723E+00 -2.97399E-02
    9011.675     15.596   2.480  1.02545E+00  1.02660E+00 -1.15803E-03
    9012.437     16.358   2.520  1.03777E+00  1.02579E+00  1.19817E-02
    9013.212     17.132   2.560  1.03962E+00  1.02484E+00  1.47783E-02
    9013.998     17.918   2.600  1.03759E+00  1.02374E+00  1.38531E-02
    9014.797     18.717   2.640  1.03471E+00  1.02256E+00  1.21421E-02
    9015.607     19.528   2.680  1.03143E+00  1.02128E+00  1.01517E-02
    9016.430     20.351   2.720  1.02722E+00  1.01994E+00  7.28031E-03
    9017.265     21.186   2.760  1.02060E+00  1.01853E+00  2.06784E-03
    9018.113     22.033   2.800  1.01003E+00  1.01707E+00 -7.04446E-03
    9018.972     22.893   2.840  9.95044E-01  1.01560E+00 -2.05610E-02
    9019.844     23.765   2.880  9.76814E-01  1.01413E+00 -3.73127E-02
    9020.728     24.648   2.920  9.57408E-01  1.01263E+00 -5.52182E-02
    9021.624     25.545   2.960  9.39219E-01  1.01115E+00 -7.19318E-02
    9022.532     26.453   3.000  9.23902E-01  1.00970E+00 -8.58005E-02
    9023.453     27.373   3.040  9.11716E-01  1.00827E+00 -9.65529E-02
    9024.386     28.306   3.080  9.01902E-01  1.00687E+00 -1.04970E-01
    9025.330     29.251   3.120  8.93346E-01  1.00552E+00 -1.12170E-01
    9026.287     30.208   3.160  8.85234E-01  1.00423E+00 -1.18993E-01
    9027.257     31.177   3.200  8.77522E-01  1.00299E+00 -1.25465E-01
    9028.238     32.159   3.240  8.70622E-01  1.00182E+00 -1.31195E-01
    9029.232     33.152   3.280  8.64741E-01  1.00070E+00 -1.35960E-01
    9030.238     34.158   3.320  8.60086E-01  9.99662E-01 -1.39576E-01
    9031.256     35.176   3.360  8.57064E-01  9.98701E-01 -1.41637E-01
    9032.286     36.206   3.400  8.56428E-01  9.97819E-01 -1.41391E-01
    9033.328     37.249   3.440  8.59085E-01  9.97020E-01 -1.37935E-01
    9034.383     38.303   3.480  8.66218E-01  9.96324E-01 -1.30106E-01
    9035.450     39.370   3.520  8.78673E-01  9.95689E-01 -1.17016E-01
    9036.529     40.449   3.560  8.96529E-01  9.95136E-01 -9.86071E-02
    9037.620     41.540   3.600  9.18918E-01  9.94687E-01 -7.57689E-02
    9038.723     42.644   3.640  9.44005E-01  9.94301E-01 -5.02956E-02
    9039.839     43.759   3.680  9.69625E-01  9.94019E-01 -2.43938E-02
    9040.967     44.887   3.720  9.93741E-01  9.93819E-01 -7.74226E-05
    9042.107     46.027   3.760  1.01521E+00  9.93701E-01  2.15129E-02
    9043.259     47.179   3.800  1.03351E+00  9.93665E-01  3.98489E-02
    9044.423     48.343   3.840  1.04843E+00  9.93686E-01  5.47442E-02
    9045.599     49.520   3.880  1.05996E+00  9.93808E-01  6.61524E-02
    9046.788     50.709   3.920  1.06790E+00  9.94010E-01  7.38894E-02
    9047.989     51.910   3.960  1.07194E+00  9.94268E-01  7.76743E-02
    9049.202     53.123   4.000  1.07214E+00  9.94623E-01  7.75158E-02
    9050.428     54.348   4.040  1.06908E+00  9.95031E-01  7.40484E-02
    9051.665     55.585   4.080  1.06412E+00  9.95489E-01  6.86347E-02
    9052.915     56.835   4.120  1.05913E+00  9.96015E-01  6.31149E-02
    9054.177     58.097   4.160  1.05607E+00  9.96588E-01  5.94808E-02
    9055.451     59.371   4.200  1.05642E+00  9.97206E-01  5.92178E-02
    9056.737     60.657   4.240  1.06082E+00  9.97890E-01  6.29327E-02
    9058.035     61.956   4.280  1.06865E+00  9.98615E-01  7.00305E-02
    9059.346     63.266   4.320  1.07806E+00  9.99355E-01  7.87024E-02
    9060.669     64.589   4.360  1.08647E+00  1.00013E+00  8.63351E-02
    9062.004     65.924   4.400  1.09149E+00  1.00097E+00  9.05258E-02
    9063.351     67.271   4.440  1.09186E+00  1.00179E+00  9.00719E-02
    9064.710     68.631   4.480  1.08775E+00  1.00264E+00  8.51091E-02
    9066.082     70.002   4.520  1.08030E+00  1.00352E+00  7.67851E-02
    9067.466     71.386   4.560  1.07108E+00  1.00438E+00  6.66975E-02
    9068.862     72.782   4.600  1.06154E+00  1.00526E+00  5.62781E-02
    9070.270     74.190   4.640  1.05249E+00  1.00615E+00  4.63421E-02
    9071.690     75.611   4.680  1.04381E+00  1.00700E+00  3.68047E-02
    9073.123     77.043   4.720  1.03462E+00  1.00788E+00  2.67466E-02
    9074.568     78.488   4.760  1.02366E+00  1.00872E+00  1.49366E-02
    9076.025     79.945   4.800  1.01021E+00  1.00953E+00  6.74305E-04
    9077.494     81.414   4.840  9.94774E-01  1.01033E+00 -1.55602E-02
    9078.975     82.895   4.880  9.79006E-01  1.01112E+00 -3.21162E-02
    9080.468     84.389   4.920  9.64923E-01  1.01185E+00 -4.69273E-02
    9081.974     85.895   4.960  9.54276E-01  1.01256E+00 -5.82859E-02
    9083.492     87.413   5.000  9.48107E-01  1.01323E+00 -6.51252E-02
    9085.022     88.943   5.040  9.46773E-01  1.01384E+00 -6.70637E-02
    9086.564     90.485   5.080  9.50051E-01  1.01442E+00 -6.43691E-02
    9088.119     92.039   5.120  9.56956E-01  1.01494E+00 -5.79834E-02
    9089.686     93.606   5.160  9.65958E-01  1.01543E+00 -4.94749E-02
    9091.264     95.185   5.200  9.75216E-01  1.01586E+00 -4.06418E-02
    9092.855     96.776   5.240  9.83259E-01  1.01621E+00 -3.29514E-02
    9094.459     98.379   5.280  9.89415E-01  1.01651E+00 -2.70996E-02
    9096.074     99.995   5.320  9.93636E-01  1.01677E+00 -2.31361E-02
    9097.702    101.622   5.360  9.95997E-01  1.01698E+00 -2.09841E-02
    9099.342    103.262   5.400  9.96827E-01  1.01712E+00 -2.02897E-02
    9100.994    104.914   5.440  9.96702E-01  1.01718E+00 -2.04753E-02
    9102.658    106.578   5.480  9.96265E-01  1.01719E+00 -2.09252E-02
    9104.334    108.255   5.520  9.95952E-01  1.01715E+00 -2.12020E-02
    9106.023    109.943   5.560  9.95808E-01  1.01705E+00 -2.12384E-02
    9107.724    111.644   5.600  9.95682E-01  1.01689E+00 -2.12073E-02
    9109.437    113.357   5.640  9.95314E-01  1.01666E+00 -2.13472E-02
    9111.162    115.082   5.680  9.94844E-01  1.01639E+00 -2.15426E-02
    9112.899    116.820   5.720  9.94612E-01  1.01607E+00 -2.14559E-02
    9114.649    118.569   5.760  9.94981E-01  1.01570E+00 -2.07240E-02
    9116.410    120.331   5.800  9.95808E-01  1.01527E+00 -1.94667E-02
    9118.184    122.105   5.840  9.96376E-01  1.01480E+00 -1.84255E-02
    9119.970    123.891   5.880  9.95823E-01  1.01429E+00 -1.84678E-02
    9121.769    125.689   5.920  9.94011E-01  1.01374E+00 -1.97328E-02
    9123.579    127.500   5.960  9.92024E-01  1.01316E+00 -2.11391E-02
    9125.402    129.322   6.000  9.91787E-01  1.01251E+00 -2.07267E-02
