# # comment:                                                     FEFF 9.9.1  
# # Source:
# # Structure
# # Reduced
# # space
# # abc:
# # angles:
# # sites:
# # POT  SCF 100  7.0000   0, screened core-hole, AFOLP (folp(0)= 1.150)
# # Abs   Z=29 Rmt= 1.141 Rnm= 1.255 K  shell
# # Pot 1 Z=20 Rmt= 1.613 Rnm= 1.701
# # Pot 2 Z=29 Rmt= 1.219 Rnm= 1.304
# # Pot 3 Z= 8 Rmt= 1.031 Rnm= 1.108
# # Gam_ch=1.729E+00 H-L exch Vi= 0.000E+00 Vr= 0.000E+00
# # Mu=-9.953E+00eV kf=2.030E+00 Vint=-1.788E+01eV Rs_int= 1.786
# FMS rfms= 9.0000
# # PATH  Rmax=-1.000,  Keep_limit= 0.00, Heap_limit 0.00  Pwcrit= 2.50%
#  S02=0.950  Temp=   0.00  Debye_temp=   0.00  Global_sig2= 0.00000
#  Energy zero shift, vr, vi    0.00000E+00   0.00000E+00
#  Curved wave amplitude ratio filter   4.000%
#     file         sig2 tot  cw amp ratio   deg  nlegs   reff  inp sig2
#     0/   0 paths used
#  xsedge+ 50, used to normalize mu           2.4558E-04
#  -----------------------------------------------------------------------
#  omega    e    k    mu    mu0     chi     @#
    8985.167    -13.763  -1.000  3.43994E-02  5.29823E-02 -1.85829E-02
    8985.466    -13.464  -0.960  3.61363E-02  5.67666E-02 -2.06303E-02
    8985.752    -13.178  -0.920  3.79983E-02  6.09647E-02 -2.29664E-02
    8986.027    -12.903  -0.880  3.99965E-02  6.56366E-02 -2.56402E-02
    8986.289    -12.641  -0.840  4.21426E-02  7.08525E-02 -2.87099E-02
    8986.539    -12.391  -0.800  4.44492E-02  7.66931E-02 -3.22440E-02
    8986.777    -12.154  -0.760  4.69290E-02  8.32514E-02 -3.63224E-02
    8987.002    -11.928  -0.720  4.95946E-02  9.06319E-02 -4.10373E-02
    8987.215    -11.715  -0.680  5.24580E-02  9.89499E-02 -4.64919E-02
    8987.417    -11.514  -0.640  5.55293E-02  1.08327E-01 -5.27973E-02
    8987.606    -11.325  -0.600  5.88155E-02  1.18881E-01 -6.00655E-02
    8987.782    -11.148  -0.560  6.23181E-02  1.30714E-01 -6.83963E-02
    8987.947    -10.983  -0.520  6.60306E-02  1.43886E-01 -7.78556E-02
    8988.099    -10.831  -0.480  6.99346E-02  1.58382E-01 -8.84471E-02
    8988.240    -10.691  -0.440  7.39966E-02  1.74074E-01 -1.00078E-01
    8988.368    -10.563  -0.400  7.81642E-02  1.90693E-01 -1.12528E-01
    8988.483    -10.447  -0.360  8.23655E-02  2.07812E-01 -1.25446E-01
    8988.587    -10.343  -0.320  8.65110E-02  2.24879E-01 -1.38368E-01
    8988.678    -10.252  -0.280  9.04994E-02  2.41281E-01 -1.50781E-01
    8988.758    -10.172  -0.240  9.42254E-02  2.56425E-01 -1.62200E-01
    8988.825    -10.105  -0.200  9.75868E-02  2.69816E-01 -1.72229E-01
    8988.880    -10.051  -0.160  1.00490E-01  2.81087E-01 -1.80597E-01
    8988.922    -10.008  -0.120  1.02854E-01  2.90002E-01 -1.87148E-01
    8988.953     -9.977  -0.080  1.04611E-01  2.96429E-01 -1.91818E-01
    8988.977     -9.953   0.000  1.06093E-01  3.01595E-01 -1.95503E-01
    8989.032     -9.898   0.120  1.09490E-01  3.13240E-01 -2.03750E-01
    8989.075     -9.855   0.160  1.12142E-01  3.22308E-01 -2.10166E-01
    8989.130     -9.801   0.200  1.15635E-01  3.33893E-01 -2.18258E-01
    8989.197     -9.734   0.240  1.20090E-01  3.47868E-01 -2.27778E-01
    8989.276     -9.654   0.280  1.25582E-01  3.63932E-01 -2.38350E-01
    8989.367     -9.563   0.320  1.32361E-01  3.81720E-01 -2.49359E-01
    8989.471     -9.459   0.360  1.40680E-01  4.00750E-01 -2.60070E-01
    8989.587     -9.343   0.400  1.50932E-01  4.20486E-01 -2.69555E-01
    8989.715     -9.215   0.440  1.63655E-01  4.40439E-01 -2.76784E-01
    8989.855     -9.075   0.480  1.79619E-01  4.60263E-01 -2.80645E-01
    8990.007     -8.923   0.520  1.99836E-01  4.79708E-01 -2.79872E-01
    8990.172     -8.758   0.560  2.25462E-01  4.98644E-01 -2.73182E-01
    8990.349     -8.581   0.600  2.57528E-01  5.17062E-01 -2.59534E-01
    8990.538     -8.392   0.640  2.95978E-01  5.34971E-01 -2.38992E-01
    8990.739     -8.191   0.680  3.37906E-01  5.52474E-01 -2.14568E-01
    8990.952     -7.978   0.720  3.75699E-01  5.69627E-01 -1.93928E-01
    8991.178     -7.752   0.760  3.99038E-01  5.86522E-01 -1.87483E-01
    8991.416     -7.515   0.800  4.01979E-01  6.03202E-01 -2.01223E-01
    8991.666     -7.265   0.840  3.88211E-01  6.19740E-01 -2.31529E-01
    8991.928     -7.003   0.880  3.67137E-01  6.36153E-01 -2.69016E-01
    8992.202     -6.728   0.920  3.47156E-01  6.52466E-01 -3.05310E-01
    8992.488     -6.442   0.960  3.33319E-01  6.68715E-01 -3.35396E-01
    8992.787     -6.143   1.000  3.28259E-01  6.84862E-01 -3.56603E-01
    8993.098     -5.832   1.040  3.33075E-01  7.00903E-01 -3.67828E-01
    8993.421     -5.509   1.080  3.46703E-01  7.16848E-01 -3.70144E-01
    8993.756     -5.174   1.120  3.64698E-01  7.32658E-01 -3.67960E-01
    8994.104     -4.826   1.160  3.81358E-01  7.48291E-01 -3.66933E-01
    8994.464     -4.467   1.200  3.95321E-01  7.63743E-01 -3.68422E-01
    8994.835     -4.095   1.240  4.08295E-01  7.78964E-01 -3.70669E-01
    8995.219     -3.711   1.280  4.18265E-01  7.93922E-01 -3.75657E-01
    8995.616     -3.314   1.320  4.21925E-01  8.08567E-01 -3.86642E-01
    8996.024     -2.906   1.360  4.22533E-01  8.22887E-01 -4.00353E-01
    8996.445     -2.485   1.400  4.26345E-01  8.36826E-01 -4.10481E-01
    8996.878     -2.053   1.440  4.39199E-01  8.50372E-01 -4.11174E-01
    8997.323     -1.608   1.480  4.65634E-01  8.63475E-01 -3.97841E-01
    8997.780     -1.150   1.520  5.04260E-01  8.76121E-01 -3.71861E-01
    8998.249     -0.681   1.560  5.48630E-01  8.88281E-01 -3.39650E-01
    8998.731     -0.199   1.600  5.92440E-01  8.99924E-01 -3.07484E-01
    8999.225      0.294   1.640  6.30489E-01  9.11043E-01 -2.80554E-01
    8999.730      0.800   1.680  6.65204E-01  9.21612E-01 -2.56408E-01
    9000.249      1.318   1.720  7.14770E-01  9.31625E-01 -2.16855E-01
    9000.779      1.849   1.760  8.02008E-01  9.41060E-01 -1.39052E-01
    9001.322      2.391   1.800  9.29988E-01  9.49937E-01 -1.99487E-02
    9001.876      2.946   1.840  1.07512E+00  9.58254E-01  1.16868E-01
    9002.443      3.513   1.880  1.20671E+00  9.65994E-01  2.40715E-01
    9003.022      4.092   1.920  1.30155E+00  9.73158E-01  3.28388E-01
    9003.614      4.683   1.960  1.34448E+00  9.79773E-01  3.64711E-01
    9004.217      5.287   2.000  1.34774E+00  9.85824E-01  3.61919E-01
    9004.833      5.903   2.040  1.34073E+00  9.91357E-01  3.49378E-01
    9005.461      6.531   2.080  1.34710E+00  9.96380E-01  3.50721E-01
    9006.101      7.171   2.120  1.37963E+00  1.00088E+00  3.78752E-01
    9006.753      7.823   2.160  1.42493E+00  1.00489E+00  4.20039E-01
    9007.418      8.487   2.200  1.45222E+00  1.00844E+00  4.43771E-01
    9008.094      9.164   2.240  1.44847E+00  1.01156E+00  4.36907E-01
    9008.783      9.853   2.280  1.41808E+00  1.01424E+00  4.03834E-01
    9009.484     10.554   2.320  1.36626E+00  1.01652E+00  3.49749E-01
    9010.197     11.267   2.360  1.29786E+00  1.01841E+00  2.79445E-01
    9010.923     11.993   2.400  1.22106E+00  1.01996E+00  2.01099E-01
    9011.660     12.730   2.440  1.15532E+00  1.02116E+00  1.34159E-01
    9012.410     13.480   2.480  1.12017E+00  1.02206E+00  9.81072E-02
    9013.172     14.242   2.520  1.10623E+00  1.02267E+00  8.35603E-02
    9013.946     15.016   2.560  1.09794E+00  1.02302E+00  7.49143E-02
    9014.733     15.802   2.600  1.08849E+00  1.02311E+00  6.53871E-02
    9015.531     16.601   2.640  1.07753E+00  1.02298E+00  5.45563E-02
    9016.342     17.412   2.680  1.06685E+00  1.02266E+00  4.41873E-02
    9017.165     18.235   2.720  1.05801E+00  1.02215E+00  3.58580E-02
    9018.000     19.070   2.760  1.05136E+00  1.02148E+00  2.98801E-02
    9018.847     19.917   2.800  1.04618E+00  1.02065E+00  2.55373E-02
    9019.707     20.777   2.840  1.04120E+00  1.01969E+00  2.15128E-02
    9020.579     21.649   2.880  1.03507E+00  1.01863E+00  1.64353E-02
    9021.463     22.532   2.920  1.02672E+00  1.01749E+00  9.22661E-03
    9022.359     23.429   2.960  1.01603E+00  1.01625E+00 -2.13956E-04
    9023.267     24.337   3.000  1.00351E+00  1.01497E+00 -1.14557E-02
    9024.188     25.257   3.040  9.89610E-01  1.01362E+00 -2.40114E-02
    9025.120     26.190   3.080  9.74698E-01  1.01223E+00 -3.75359E-02
    9026.065     27.135   3.120  9.59213E-01  1.01081E+00 -5.15966E-02
    9027.022     28.092   3.160  9.43534E-01  1.00938E+00 -6.58434E-02
    9027.991     29.061   3.200  9.27843E-01  1.00794E+00 -8.00976E-02
    9028.973     30.043   3.240  9.12564E-01  1.00651E+00 -9.39435E-02
    9029.967     31.036   3.280  8.98215E-01  1.00510E+00 -1.06885E-01
    9030.972     32.042   3.320  8.85238E-01  1.00370E+00 -1.18465E-01
    9031.990     33.060   3.360  8.74001E-01  1.00234E+00 -1.28340E-01
    9033.021     34.090   3.400  8.64779E-01  1.00102E+00 -1.36236E-01
    9034.063     35.133   3.440  8.57664E-01  9.99730E-01 -1.42066E-01
    9035.118     36.187   3.480  8.52850E-01  9.98490E-01 -1.45640E-01
    9036.184     37.254   3.520  8.50721E-01  9.97316E-01 -1.46595E-01
    9037.263     38.333   3.560  8.51477E-01  9.96190E-01 -1.44712E-01
    9038.355     39.424   3.600  8.55089E-01  9.95113E-01 -1.40025E-01
    9039.458     40.528   3.640  8.61367E-01  9.94131E-01 -1.32764E-01
    9040.574     41.643   3.680  8.69907E-01  9.93202E-01 -1.23296E-01
    9041.701     42.771   3.720  8.80061E-01  9.92327E-01 -1.12266E-01
    9042.841     43.911   3.760  8.91444E-01  9.91548E-01 -1.00104E-01
    9043.993     45.063   3.800  9.03767E-01  9.90825E-01 -8.70586E-02
    9045.158     46.228   3.840  9.16850E-01  9.90180E-01 -7.33298E-02
    9046.334     47.404   3.880  9.30464E-01  9.89612E-01 -5.91476E-02
    9047.523     48.593   3.920  9.44517E-01  9.89123E-01 -4.46065E-02
    9048.724     49.794   3.960  9.58909E-01  9.88714E-01 -2.98042E-02
    9049.937     51.007   4.000  9.73496E-01  9.88381E-01 -1.48848E-02
    9051.162     52.232   4.040  9.88096E-01  9.88106E-01 -1.00746E-05
    9052.400     53.470   4.080  1.00246E+00  9.87929E-01  1.45363E-02
    9053.649     54.719   4.120  1.01591E+00  9.87806E-01  2.81043E-02
    9054.911     55.981   4.160  1.02777E+00  9.87761E-01  4.00113E-02
    9056.185     57.255   4.200  1.03760E+00  9.87792E-01  4.98118E-02
    9057.472     58.541   4.240  1.04547E+00  9.87896E-01  5.75700E-02
    9058.770     59.840   4.280  1.05187E+00  9.88051E-01  6.38144E-02
    9060.081     61.150   4.320  1.05725E+00  9.88255E-01  6.89951E-02
    9061.403     62.473   4.360  1.06160E+00  9.88530E-01  7.30738E-02
    9062.738     63.808   4.400  1.06451E+00  9.88876E-01  7.56328E-02
    9064.086     65.156   4.440  1.06578E+00  9.89268E-01  7.65136E-02
    9065.445     66.515   4.480  1.06557E+00  9.89704E-01  7.58664E-02
    9066.817     67.886   4.520  1.06424E+00  9.90183E-01  7.40562E-02
    9068.200     69.270   4.560  1.06207E+00  9.90725E-01  7.13452E-02
    9069.596     70.666   4.600  1.05896E+00  9.91284E-01  6.76726E-02
    9071.005     72.074   4.640  1.05467E+00  9.91881E-01  6.27896E-02
    9072.425     73.495   4.680  1.04906E+00  9.92514E-01  5.65425E-02
    9073.858     74.927   4.720  1.04225E+00  9.93181E-01  4.90645E-02
    9075.302     76.372   4.760  1.03468E+00  9.93858E-01  4.08244E-02
    9076.759     77.829   4.800  1.02719E+00  9.94565E-01  3.26202E-02
    9078.228     79.298   4.840  1.02067E+00  9.95279E-01  2.53934E-02
    9079.710     80.779   4.880  1.01600E+00  9.95997E-01  2.00003E-02
    9081.203     82.273   4.920  1.01377E+00  9.96740E-01  1.70334E-02
    9082.709     83.779   4.960  1.01422E+00  9.97485E-01  1.67389E-02
    9084.227     85.297   5.000  1.01721E+00  9.98205E-01  1.90094E-02
    9085.757     86.827   5.040  1.02237E+00  9.98943E-01  2.34248E-02
    9087.299     88.369   5.080  1.02889E+00  9.99655E-01  2.92350E-02
    9088.854     89.923   5.120  1.03577E+00  1.00036E+00  3.54114E-02
    9090.420     91.490   5.160  1.04184E+00  1.00103E+00  4.08053E-02
    9091.999     93.069   5.200  1.04605E+00  1.00169E+00  4.43535E-02
    9093.590     94.660   5.240  1.04758E+00  1.00232E+00  4.52557E-02
    9095.193     96.263   5.280  1.04604E+00  1.00294E+00  4.30949E-02
    9096.809     97.879   5.320  1.04140E+00  1.00352E+00  3.78759E-02
    9098.436     99.506   5.360  1.03403E+00  1.00406E+00  2.99697E-02
    9100.076    101.146   5.400  1.02448E+00  1.00456E+00  1.99214E-02
    9101.728    102.798   5.440  1.01323E+00  1.00502E+00  8.20310E-03
    9103.393    104.462   5.480  1.00064E+00  1.00544E+00 -4.80089E-03
    9105.069    106.139   5.520  9.87321E-01  1.00582E+00 -1.84974E-02
    9106.758    107.827   5.560  9.74304E-01  1.00615E+00 -3.18481E-02
    9108.458    109.528   5.600  9.62841E-01  1.00644E+00 -4.36000E-02
    9110.171    111.241   5.640  9.53771E-01  1.00666E+00 -5.28911E-02
    9111.896    112.966   5.680  9.47299E-01  1.00684E+00 -5.95373E-02
    9113.634    114.704   5.720  9.43093E-01  1.00696E+00 -6.38694E-02
    9115.383    116.453   5.760  9.40731E-01  1.00702E+00 -6.62897E-02
    9117.145    118.215   5.800  9.39856E-01  1.00704E+00 -6.71791E-02
    9118.919    119.989   5.840  9.39982E-01  1.00700E+00 -6.70226E-02
    9120.705    121.775   5.880  9.40539E-01  1.00693E+00 -6.63898E-02
    9122.503    123.573   5.920  9.41126E-01  1.00678E+00 -6.56587E-02
    9124.314    125.384   5.960  9.41807E-01  1.00659E+00 -6.47803E-02
    9126.137    127.206   6.000  9.43198E-01  1.00628E+00 -6.30797E-02
