# # comment:                                                     FEFF 9.9.1  
# # Source:
# # Structure
# # Reduced
# # space
# # abc:
# # angles:
# # sites:
# # POT  SCF 100  7.0000   0, screened core-hole, AFOLP (folp(0)= 1.150)
# # Abs   Z=29 Rmt= 1.231 Rnm= 1.314 K  shell
# # Pot 1 Z=57 Rmt= 1.749 Rnm= 1.833
# # Pot 2 Z=29 Rmt= 1.232 Rnm= 1.315
# # Pot 3 Z= 8 Rmt= 1.048 Rnm= 1.106
# # Gam_ch=1.729E+00 H-L exch Vi= 0.000E+00 Vr= 0.000E+00
# # Mu=-7.624E+00eV kf=2.071E+00 Vint=-1.658E+01eV Rs_int= 1.751
# FMS rfms= 9.0000
# # PATH  Rmax=-1.000,  Keep_limit= 0.00, Heap_limit 0.00  Pwcrit= 2.50%
#  S02=0.950  Temp=   0.00  Debye_temp=   0.00  Global_sig2= 0.00000
#  Energy zero shift, vr, vi    0.00000E+00   0.00000E+00
#  Curved wave amplitude ratio filter   4.000%
#     file         sig2 tot  cw amp ratio   deg  nlegs   reff  inp sig2
#     0/   0 paths used
#  xsedge+ 50, used to normalize mu           2.4472E-04
#  -----------------------------------------------------------------------
#  omega    e    k    mu    mu0     chi     @#
    8984.310    -11.434  -1.000  3.87070E-02  5.52768E-02 -1.65699E-02
    8984.609    -11.135  -0.960  4.07220E-02  5.93322E-02 -1.86102E-02
    8984.895    -10.849  -0.920  4.28913E-02  6.38417E-02 -2.09504E-02
    8985.170    -10.574  -0.880  4.52328E-02  6.88723E-02 -2.36395E-02
    8985.432    -10.312  -0.840  4.77671E-02  7.45021E-02 -2.67350E-02
    8985.682    -10.062  -0.800  5.05178E-02  8.08217E-02 -3.03039E-02
    8985.919     -9.825  -0.760  5.35118E-02  8.79348E-02 -3.44230E-02
    8986.145     -9.599  -0.720  5.67792E-02  9.59590E-02 -3.91798E-02
    8986.358     -9.386  -0.680  6.03527E-02  1.05023E-01 -4.46707E-02
    8986.559     -9.185  -0.640  6.42666E-02  1.15265E-01 -5.09980E-02
    8986.748     -8.996  -0.600  6.85538E-02  1.26817E-01 -5.82631E-02
    8986.925     -8.819  -0.560  7.32410E-02  1.39795E-01 -6.65535E-02
    8987.090     -8.654  -0.520  7.83424E-02  1.54266E-01 -7.59236E-02
    8987.242     -8.502  -0.480  8.38488E-02  1.70216E-01 -8.63677E-02
    8987.382     -8.362  -0.440  8.97171E-02  1.87506E-01 -9.77886E-02
    8987.510     -8.234  -0.400  9.58600E-02  2.05832E-01 -1.09972E-01
    8987.626     -8.118  -0.360  1.02142E-01  2.24722E-01 -1.22581E-01
    8987.730     -8.014  -0.320  1.08384E-01  2.43560E-01 -1.35176E-01
    8987.821     -7.923  -0.280  1.14387E-01  2.61661E-01 -1.47274E-01
    8987.901     -7.843  -0.240  1.19948E-01  2.78369E-01 -1.58421E-01
    8987.968     -7.776  -0.200  1.24892E-01  2.93132E-01 -1.68240E-01
    8988.022     -7.722  -0.160  1.29081E-01  3.05550E-01 -1.76468E-01
    8988.065     -7.679  -0.120  1.32420E-01  3.15364E-01 -1.82944E-01
    8988.096     -7.648  -0.080  1.34850E-01  3.22433E-01 -1.87583E-01
    8988.120     -7.624   0.000  1.36843E-01  3.28111E-01 -1.91268E-01
    8988.175     -7.569   0.120  1.41267E-01  3.40922E-01 -1.99655E-01
    8988.218     -7.526   0.160  1.44663E-01  3.50861E-01 -2.06198E-01
    8988.272     -7.472   0.200  1.49008E-01  3.63578E-01 -2.14569E-01
    8988.339     -7.405   0.240  1.54211E-01  3.78837E-01 -2.24626E-01
    8988.419     -7.325   0.280  1.60192E-01  3.96369E-01 -2.36177E-01
    8988.510     -7.234   0.320  1.66778E-01  4.15705E-01 -2.48928E-01
    8988.614     -7.130   0.360  1.73746E-01  4.36287E-01 -2.62542E-01
    8988.730     -7.014   0.400  1.80850E-01  4.57498E-01 -2.76648E-01
    8988.858     -6.886   0.440  1.87910E-01  4.78798E-01 -2.90888E-01
    8988.998     -6.746   0.480  1.94896E-01  4.99744E-01 -3.04849E-01
    8989.150     -6.594   0.520  2.01951E-01  5.20049E-01 -3.18099E-01
    8989.315     -6.429   0.560  2.09558E-01  5.39609E-01 -3.30050E-01
    8989.492     -6.252   0.600  2.18198E-01  5.58390E-01 -3.40193E-01
    8989.681     -6.063   0.640  2.28271E-01  5.76412E-01 -3.48141E-01
    8989.882     -5.862   0.680  2.39943E-01  5.93770E-01 -3.53827E-01
    8990.095     -5.649   0.720  2.53041E-01  6.10555E-01 -3.57514E-01
    8990.321     -5.423   0.760  2.67311E-01  6.26855E-01 -3.59545E-01
    8990.558     -5.186   0.800  2.82612E-01  6.42773E-01 -3.60161E-01
    8990.808     -4.936   0.840  2.98993E-01  6.58351E-01 -3.59358E-01
    8991.070     -4.674   0.880  3.16912E-01  6.73642E-01 -3.56729E-01
    8991.345     -4.399   0.920  3.36995E-01  6.88684E-01 -3.51689E-01
    8991.631     -4.113   0.960  3.59707E-01  7.03503E-01 -3.43796E-01
    8991.930     -3.814   1.000  3.85277E-01  7.18113E-01 -3.32836E-01
    8992.241     -3.503   1.040  4.14830E-01  7.32541E-01 -3.17711E-01
    8992.564     -3.180   1.080  4.51383E-01  7.46744E-01 -2.95361E-01
    8992.899     -2.845   1.120  4.97470E-01  7.60712E-01 -2.63241E-01
    8993.247     -2.497   1.160  5.51986E-01  7.74451E-01 -2.22466E-01
    8993.606     -2.138   1.200  6.10915E-01  7.87946E-01 -1.77031E-01
    8993.978     -1.766   1.240  6.69273E-01  8.01156E-01 -1.31883E-01
    8994.362     -1.382   1.280  7.23211E-01  8.14055E-01 -9.08436E-02
    8994.759     -0.986   1.320  7.69128E-01  8.26661E-01 -5.75326E-02
    8995.167     -0.577   1.360  8.01513E-01  8.38886E-01 -3.73731E-02
    8995.588     -0.156   1.400  8.22974E-01  8.50766E-01 -2.77915E-02
    8996.020      0.276   1.440  8.45388E-01  8.62234E-01 -1.68456E-02
    8996.465      0.721   1.480  8.76648E-01  8.73305E-01  3.34299E-03
    8996.923      1.179   1.520  9.17644E-01  8.83953E-01  3.36916E-02
    8997.392      1.648   1.560  9.68634E-01  8.94150E-01  7.44838E-02
    8997.874      2.130   1.600  1.02800E+00  9.03895E-01  1.24107E-01
    8998.367      2.623   1.640  1.09275E+00  9.13164E-01  1.79587E-01
    8998.873      3.129   1.680  1.16053E+00  9.21954E-01  2.38578E-01
    8999.391      3.647   1.720  1.22117E+00  9.30286E-01  2.90882E-01
    8999.922      4.178   1.760  1.25905E+00  9.38119E-01  3.20931E-01
    9000.464      4.720   1.800  1.26520E+00  9.45475E-01  3.19729E-01
    9001.019      5.275   1.840  1.24460E+00  9.52355E-01  2.92247E-01
    9001.586      5.842   1.880  1.22238E+00  9.58743E-01  2.63640E-01
    9002.165      6.421   1.920  1.22184E+00  9.64685E-01  2.57152E-01
    9002.756      7.012   1.960  1.24090E+00  9.70145E-01  2.70758E-01
    9003.360      7.616   2.000  1.26160E+00  9.75191E-01  2.86408E-01
    9003.976      8.232   2.040  1.26915E+00  9.79768E-01  2.89379E-01
    9004.604      8.859   2.080  1.25450E+00  9.83944E-01  2.70554E-01
    9005.244      9.500   2.120  1.21600E+00  9.87708E-01  2.28297E-01
    9005.896     10.152   2.160  1.16094E+00  9.91089E-01  1.69846E-01
    9006.560     10.816   2.200  1.10323E+00  9.94096E-01  1.09134E-01
    9007.237     11.493   2.240  1.05716E+00  9.96759E-01  6.04008E-02
    9007.926     12.182   2.280  1.02924E+00  9.99066E-01  3.01748E-02
    9008.627     12.883   2.320  1.02107E+00  1.00107E+00  2.00062E-02
    9009.340     13.596   2.360  1.03087E+00  1.00277E+00  2.80936E-02
    9010.066     14.321   2.400  1.05148E+00  1.00420E+00  4.72822E-02
    9010.803     15.059   2.440  1.07383E+00  1.00536E+00  6.84693E-02
    9011.553     15.809   2.480  1.09085E+00  1.00628E+00  8.45623E-02
    9012.315     16.571   2.520  1.09651E+00  1.00699E+00  8.95162E-02
    9013.089     17.345   2.560  1.09307E+00  1.00749E+00  8.55842E-02
    9013.876     18.131   2.600  1.08464E+00  1.00781E+00  7.68231E-02
    9014.674     18.930   2.640  1.07254E+00  1.00797E+00  6.45747E-02
    9015.485     19.741   2.680  1.05686E+00  1.00797E+00  4.88921E-02
    9016.308     20.564   2.720  1.03794E+00  1.00783E+00  3.01077E-02
    9017.143     21.399   2.760  1.01681E+00  1.00757E+00  9.23659E-03
    9017.990     22.246   2.800  9.94341E-01  1.00719E+00 -1.28528E-02
    9018.850     23.106   2.840  9.71439E-01  1.00673E+00 -3.52908E-02
    9019.722     23.978   2.880  9.49165E-01  1.00621E+00 -5.70400E-02
    9020.605     24.861   2.920  9.28364E-01  1.00561E+00 -7.72414E-02
    9021.502     25.758   2.960  9.10086E-01  1.00496E+00 -9.48699E-02
    9022.410     26.666   3.000  8.95177E-01  1.00424E+00 -1.09067E-01
    9023.330     27.586   3.040  8.84032E-01  1.00351E+00 -1.19483E-01
    9024.263     28.519   3.080  8.76732E-01  1.00277E+00 -1.26042E-01
    9025.208     29.464   3.120  8.73071E-01  1.00201E+00 -1.28934E-01
    9026.165     30.421   3.160  8.72477E-01  1.00125E+00 -1.28777E-01
    9027.134     31.390   3.200  8.74313E-01  1.00048E+00 -1.26170E-01
    9028.116     32.372   3.240  8.78141E-01  9.99737E-01 -1.21596E-01
    9029.109     33.365   3.280  8.83250E-01  9.98998E-01 -1.15748E-01
    9030.115     34.371   3.320  8.89077E-01  9.98292E-01 -1.09215E-01
    9031.133     35.389   3.360  8.95126E-01  9.97622E-01 -1.02496E-01
    9032.163     36.419   3.400  9.00921E-01  9.96987E-01 -9.60664E-02
    9033.206     37.462   3.440  9.06055E-01  9.96371E-01 -9.03156E-02
    9034.260     38.516   3.480  9.10648E-01  9.95815E-01 -8.51674E-02
    9035.327     39.583   3.520  9.15124E-01  9.95302E-01 -8.01781E-02
    9036.406     40.662   3.560  9.20068E-01  9.94833E-01 -7.47657E-02
    9037.497     41.753   3.600  9.26098E-01  9.94430E-01 -6.83319E-02
    9038.601     42.857   3.640  9.33603E-01  9.94051E-01 -6.04479E-02
    9039.716     43.972   3.680  9.42796E-01  9.93740E-01 -5.09433E-02
    9040.844     45.100   3.720  9.53542E-01  9.93497E-01 -3.99551E-02
    9041.984     46.240   3.760  9.65700E-01  9.93302E-01 -2.76020E-02
    9043.136     47.392   3.800  9.79059E-01  9.93155E-01 -1.40954E-02
    9044.301     48.556   3.840  9.93318E-01  9.93076E-01  2.41688E-04
    9045.477     49.733   3.880  1.00808E+00  9.93045E-01  1.50353E-02
    9046.666     50.922   3.920  1.02291E+00  9.93083E-01  2.98304E-02
    9047.867     52.123   3.960  1.03721E+00  9.93166E-01  4.40420E-02
    9049.080     53.336   4.000  1.05041E+00  9.93294E-01  5.71165E-02
    9050.305     54.561   4.040  1.06212E+00  9.93467E-01  6.86550E-02
    9051.543     55.798   4.080  1.07205E+00  9.93707E-01  7.83447E-02
    9052.792     57.048   4.120  1.07990E+00  9.93990E-01  8.59130E-02
    9054.054     58.310   4.160  1.08561E+00  9.94315E-01  9.12965E-02
    9055.328     59.584   4.200  1.08926E+00  9.94680E-01  9.45788E-02
    9056.614     60.870   4.240  1.09111E+00  9.95088E-01  9.60172E-02
    9057.913     62.169   4.280  1.09143E+00  9.95555E-01  9.58762E-02
    9059.223     63.479   4.320  1.09023E+00  9.96015E-01  9.42113E-02
    9060.546     64.802   4.360  1.08733E+00  9.96532E-01  9.07942E-02
    9061.881     66.137   4.400  1.08242E+00  9.97085E-01  8.53381E-02
    9063.229     67.484   4.440  1.07551E+00  9.97647E-01  7.78584E-02
    9064.588     68.844   4.480  1.06687E+00  9.98218E-01  6.86543E-02
    9065.960     70.215   4.520  1.05711E+00  9.98819E-01  5.82934E-02
    9067.343     71.599   4.560  1.04680E+00  9.99446E-01  4.73568E-02
    9068.739     72.995   4.600  1.03629E+00  1.00006E+00  3.62337E-02
    9070.147     74.403   4.640  1.02585E+00  1.00069E+00  2.51634E-02
    9071.568     75.824   4.680  1.01569E+00  1.00133E+00  1.43639E-02
    9073.000     77.256   4.720  1.00609E+00  1.00196E+00  4.12963E-03
    9074.445     78.701   4.760  9.97479E-01  1.00257E+00 -5.08641E-03
    9075.902     80.158   4.800  9.90386E-01  1.00319E+00 -1.28056E-02
    9077.371     81.627   4.840  9.85021E-01  1.00379E+00 -1.87691E-02
    9078.853     83.108   4.880  9.81316E-01  1.00438E+00 -2.30660E-02
    9080.346     84.602   4.920  9.78821E-01  1.00497E+00 -2.61455E-02
    9081.852     86.108   4.960  9.76903E-01  1.00552E+00 -2.86135E-02
    9083.370     87.626   5.000  9.75070E-01  1.00603E+00 -3.09623E-02
    9084.900     89.156   5.040  9.73154E-01  1.00654E+00 -3.33821E-02
    9086.442     90.698   5.080  9.71260E-01  1.00701E+00 -3.57454E-02
    9087.996     92.252   5.120  9.69688E-01  1.00746E+00 -3.77724E-02
    9089.563     93.819   5.160  9.68620E-01  1.00785E+00 -3.92333E-02
    9091.142     95.398   5.200  9.68264E-01  1.00823E+00 -3.99652E-02
    9092.733     96.989   5.240  9.68726E-01  1.00856E+00 -3.98378E-02
    9094.336     98.592   5.280  9.70171E-01  1.00884E+00 -3.86641E-02
    9095.952    100.208   5.320  9.72723E-01  1.00909E+00 -3.63653E-02
    9097.579    101.835   5.360  9.76215E-01  1.00930E+00 -3.30833E-02
    9099.219    103.475   5.400  9.80254E-01  1.00944E+00 -2.91901E-02
    9100.871    105.127   5.440  9.84507E-01  1.00957E+00 -2.50613E-02
    9102.535    106.791   5.480  9.88696E-01  1.00963E+00 -2.09326E-02
    9104.212    108.468   5.520  9.92802E-01  1.00967E+00 -1.68666E-02
    9105.900    110.156   5.560  9.96777E-01  1.00964E+00 -1.28645E-02
    9107.601    111.857   5.600  1.00065E+00  1.00957E+00 -8.91940E-03
    9109.314    113.570   5.640  1.00427E+00  1.00946E+00 -5.18567E-03
    9111.039    115.295   5.680  1.00717E+00  1.00927E+00 -2.10464E-03
    9112.777    117.033   5.720  1.00875E+00  1.00907E+00 -3.20134E-04
    9114.526    118.782   5.760  1.00855E+00  1.00884E+00 -2.81445E-04
    9116.288    120.544   5.800  1.00656E+00  1.00853E+00 -1.97360E-03
    9118.062    122.318   5.840  1.00324E+00  1.00821E+00 -4.96826E-03
    9119.848    124.104   5.880  9.99106E-01  1.00783E+00 -8.72631E-03
    9121.646    125.902   5.920  9.94579E-01  1.00744E+00 -1.28628E-02
    9123.457    127.713   5.960  9.89959E-01  1.00702E+00 -1.70597E-02
    9125.279    129.535   6.000  9.85765E-01  1.00653E+00 -2.07683E-02
