# # comment:                                                     FEFF 9.9.1  
# # Source:
# # Structure
# # Reduced
# # space
# # abc:
# # angles:
# # sites:
# # POT  SCF 100  7.0000   0, screened core-hole, AFOLP (folp(0)= 1.150)
# # Abs   Z=29 Rmt= 1.267 Rnm= 1.339 K  shell
# # Pot 1 Z=19 Rmt= 1.847 Rnm= 1.878
# # Pot 2 Z=23 Rmt= 1.092 Rnm= 1.310
# # Pot 3 Z=29 Rmt= 1.265 Rnm= 1.334
# # Pot 4 Z= 8 Rmt= 0.947 Rnm= 1.097
# # Gam_ch=1.729E+00 H-L exch Vi= 0.000E+00 Vr= 0.000E+00
# # Mu=-8.722E+00eV kf=2.223E+00 Vint=-1.722E+01eV Rs_int= 1.631
# FMS rfms= 9.0000
# # PATH  Rmax=-1.000,  Keep_limit= 0.00, Heap_limit 0.00  Pwcrit= 2.50%
#  S02=0.950  Temp=   0.00  Debye_temp=   0.00  Global_sig2= 0.00000
#  Energy zero shift, vr, vi    0.00000E+00   0.00000E+00
#  Curved wave amplitude ratio filter   4.000%
#     file         sig2 tot  cw amp ratio   deg  nlegs   reff  inp sig2
#     0/   0 paths used
#  xsedge+ 50, used to normalize mu           2.4701E-04
#  -----------------------------------------------------------------------
#  omega    e    k    mu    mu0     chi     @#
    8984.193    -12.532  -1.000  3.75853E-02  5.17860E-02 -1.42006E-02
    8984.492    -12.233  -0.960  3.95491E-02  5.54861E-02 -1.59370E-02
    8984.778    -11.946  -0.920  4.16667E-02  5.95927E-02 -1.79260E-02
    8985.053    -11.672  -0.880  4.39563E-02  6.41650E-02 -2.02087E-02
    8985.315    -11.410  -0.840  4.64387E-02  6.92721E-02 -2.28334E-02
    8985.565    -11.160  -0.800  4.91378E-02  7.49941E-02 -2.58563E-02
    8985.802    -10.922  -0.760  5.20807E-02  8.14228E-02 -2.93421E-02
    8986.028    -10.697  -0.720  5.52972E-02  8.86616E-02 -3.33644E-02
    8986.241    -10.483  -0.680  5.88199E-02  9.68248E-02 -3.80049E-02
    8986.442    -10.282  -0.640  6.26822E-02  1.06032E-01 -4.33502E-02
    8986.631    -10.093  -0.600  6.69164E-02  1.16402E-01 -4.94860E-02
    8986.808     -9.917  -0.560  7.15491E-02  1.28036E-01 -5.64864E-02
    8986.973     -9.752  -0.520  7.65947E-02  1.40991E-01 -6.43963E-02
    8987.125     -9.600  -0.480  8.20470E-02  1.55255E-01 -7.32077E-02
    8987.265     -9.459  -0.440  8.78687E-02  1.70702E-01 -8.28331E-02
    8987.393     -9.331  -0.400  9.39820E-02  1.87064E-01 -9.30824E-02
    8987.509     -9.216  -0.360  1.00264E-01  2.03922E-01 -1.03659E-01
    8987.613     -9.112  -0.320  1.06548E-01  2.20730E-01 -1.14181E-01
    8987.704     -9.020  -0.280  1.12641E-01  2.36880E-01 -1.24239E-01
    8987.784     -8.941  -0.240  1.18341E-01  2.51789E-01 -1.33448E-01
    8987.851     -8.874  -0.200  1.23458E-01  2.64968E-01 -1.41509E-01
    8987.905     -8.819  -0.160  1.27837E-01  2.76056E-01 -1.48219E-01
    8987.948     -8.777  -0.120  1.31358E-01  2.84824E-01 -1.53465E-01
    8987.979     -8.746  -0.080  1.33941E-01  2.91142E-01 -1.57201E-01
    8988.003     -8.722   0.000  1.36077E-01  2.96219E-01 -1.60142E-01
    8988.058     -8.667   0.120  1.40744E-01  3.07681E-01 -1.66937E-01
    8988.101     -8.624   0.160  1.44379E-01  3.16579E-01 -1.72200E-01
    8988.155     -8.569   0.200  1.49079E-01  3.27952E-01 -1.78873E-01
    8988.222     -8.502   0.240  1.54832E-01  3.41653E-01 -1.86821E-01
    8988.302     -8.423   0.280  1.61561E-01  3.57397E-01 -1.95836E-01
    8988.393     -8.332   0.320  1.69190E-01  3.74815E-01 -2.05625E-01
    8988.497     -8.228   0.360  1.77519E-01  3.93382E-01 -2.15864E-01
    8988.613     -8.112   0.400  1.86434E-01  4.12602E-01 -2.26168E-01
    8988.741     -7.984   0.440  1.95880E-01  4.32004E-01 -2.36124E-01
    8988.881     -7.844   0.480  2.05832E-01  4.51183E-01 -2.45351E-01
    8989.033     -7.692   0.520  2.16265E-01  4.69926E-01 -2.53660E-01
    8989.198     -7.527   0.560  2.26777E-01  4.88127E-01 -2.61350E-01
    8989.375     -7.350   0.600  2.36214E-01  5.05716E-01 -2.69501E-01
    8989.564     -7.161   0.640  2.43165E-01  5.22785E-01 -2.79620E-01
    8989.765     -6.960   0.680  2.46701E-01  5.39361E-01 -2.92660E-01
    8989.978     -6.747   0.720  2.47560E-01  5.55580E-01 -3.08020E-01
    8990.204     -6.521   0.760  2.47817E-01  5.71476E-01 -3.23659E-01
    8990.441     -6.283   0.800  2.50034E-01  5.87141E-01 -3.37106E-01
    8990.691     -6.033   0.840  2.56458E-01  6.02626E-01 -3.46168E-01
    8990.953     -5.771   0.880  2.68713E-01  6.17975E-01 -3.49262E-01
    8991.228     -5.497   0.920  2.87628E-01  6.33218E-01 -3.45590E-01
    8991.514     -5.210   0.960  3.13224E-01  6.48392E-01 -3.35169E-01
    8991.813     -4.912   1.000  3.44401E-01  6.63487E-01 -3.19087E-01
    8992.124     -4.601   1.040  3.78656E-01  6.78504E-01 -2.99847E-01
    8992.447     -4.278   1.080  4.13191E-01  6.93435E-01 -2.80244E-01
    8992.782     -3.942   1.120  4.48683E-01  7.08247E-01 -2.59564E-01
    8993.130     -3.595   1.160  4.91030E-01  7.22964E-01 -2.31933E-01
    8993.489     -3.235   1.200  5.44679E-01  7.37523E-01 -1.92843E-01
    8993.861     -2.863   1.240  6.04262E-01  7.51920E-01 -1.47658E-01
    8994.245     -2.479   1.280  6.58701E-01  7.66109E-01 -1.07408E-01
    8994.642     -2.083   1.320  7.06799E-01  7.80082E-01 -7.32829E-02
    8995.050     -1.675   1.360  7.54874E-01  7.93808E-01 -3.89333E-02
    8995.471     -1.254   1.400  7.99732E-01  8.07215E-01 -7.48324E-03
    8995.903     -0.821   1.440  8.35498E-01  8.20336E-01  1.51620E-02
    8996.348     -0.376   1.480  8.66161E-01  8.33097E-01  3.30641E-02
    8996.806      0.081   1.520  8.97850E-01  8.45490E-01  5.23603E-02
    8997.275      0.550   1.560  9.29931E-01  8.57484E-01  7.24477E-02
    8997.757      1.032   1.600  9.56147E-01  8.69068E-01  8.70785E-02
    8998.250      1.526   1.640  9.77332E-01  8.80198E-01  9.71343E-02
    8998.756      2.032   1.680  1.00360E+00  8.90885E-01  1.12718E-01
    8999.274      2.550   1.720  1.04860E+00  9.01122E-01  1.47481E-01
    8999.805      3.080   1.760  1.11952E+00  9.10847E-01  2.08678E-01
    9000.347      3.623   1.800  1.20657E+00  9.20116E-01  2.86454E-01
    9000.902      4.177   1.840  1.29076E+00  9.28865E-01  3.61893E-01
    9001.469      4.744   1.880  1.35925E+00  9.37135E-01  4.22115E-01
    9002.048      5.323   1.920  1.40201E+00  9.44906E-01  4.57106E-01
    9002.639      5.915   1.960  1.41194E+00  9.52159E-01  4.59781E-01
    9003.243      6.518   2.000  1.39608E+00  9.58936E-01  4.37146E-01
    9003.859      7.134   2.040  1.37235E+00  9.65224E-01  4.07126E-01
    9004.487      7.762   2.080  1.34865E+00  9.71045E-01  3.77601E-01
    9005.127      8.402   2.120  1.30918E+00  9.76384E-01  3.32801E-01
    9005.779      9.054   2.160  1.23877E+00  9.81291E-01  2.57477E-01
    9006.443      9.719   2.200  1.15163E+00  9.85731E-01  1.65896E-01
    9007.120     10.395   2.240  1.07415E+00  9.89750E-01  8.44034E-02
    9007.809     11.084   2.280  1.01906E+00  9.93380E-01  2.56819E-02
    9008.510     11.785   2.320  9.84373E-01  9.96609E-01 -1.22352E-02
    9009.223     12.498   2.360  9.60355E-01  9.99442E-01 -3.90876E-02
    9009.949     13.224   2.400  9.40886E-01  1.00193E+00 -6.10476E-02
    9010.686     13.961   2.440  9.25982E-01  1.00409E+00 -7.81093E-02
    9011.436     14.711   2.480  9.16834E-01  1.00593E+00 -8.90911E-02
    9012.198     15.473   2.520  9.13766E-01  1.00747E+00 -9.36994E-02
    9012.972     16.247   2.560  9.19080E-01  1.00872E+00 -8.96409E-02
    9013.759     17.034   2.600  9.36245E-01  1.00970E+00 -7.34556E-02
    9014.557     17.832   2.640  9.61077E-01  1.01046E+00 -4.93784E-02
    9015.368     18.643   2.680  9.78806E-01  1.01097E+00 -3.21676E-02
    9016.191     19.466   2.720  9.89318E-01  1.01128E+00 -2.19641E-02
    9017.026     20.301   2.760  9.95426E-01  1.01140E+00 -1.59697E-02
    9017.873     21.149   2.800  9.97691E-01  1.01134E+00 -1.36490E-02
    9018.733     22.008   2.840  9.95223E-01  1.01114E+00 -1.59200E-02
    9019.605     22.880   2.880  9.87370E-01  1.01079E+00 -2.34251E-02
    9020.488     23.764   2.920  9.74747E-01  1.01032E+00 -3.55751E-02
    9021.385     24.660   2.960  9.59124E-01  1.00973E+00 -5.06081E-02
    9022.293     25.568   3.000  9.42741E-01  1.00907E+00 -6.63319E-02
    9023.213     26.489   3.040  9.27557E-01  1.00831E+00 -8.07529E-02
    9024.146     27.421   3.080  9.15112E-01  1.00747E+00 -9.23575E-02
    9025.091     28.366   3.120  9.06160E-01  1.00658E+00 -1.00418E-01
    9026.048     29.323   3.160  9.00886E-01  1.00564E+00 -1.04757E-01
    9027.017     30.293   3.200  8.99289E-01  1.00469E+00 -1.05400E-01
    9027.999     31.274   3.240  9.01182E-01  1.00368E+00 -1.02498E-01
    9028.992     32.268   3.280  9.06104E-01  1.00266E+00 -9.65567E-02
    9029.998     33.273   3.320  9.13345E-01  1.00164E+00 -8.82917E-02
    9031.016     34.291   3.360  9.21999E-01  1.00061E+00 -7.86132E-02
    9032.046     35.322   3.400  9.31157E-01  9.99613E-01 -6.84559E-02
    9033.089     36.364   3.440  9.40225E-01  9.98619E-01 -5.83940E-02
    9034.143     37.419   3.480  9.49184E-01  9.97632E-01 -4.84477E-02
    9035.210     38.485   3.520  9.58348E-01  9.96678E-01 -3.83301E-02
    9036.289     39.564   3.560  9.68024E-01  9.95759E-01 -2.77349E-02
    9037.380     40.656   3.600  9.78200E-01  9.94856E-01 -1.66556E-02
    9038.484     41.759   3.640  9.88610E-01  9.94012E-01 -5.40219E-03
    9039.599     42.875   3.680  9.98757E-01  9.93209E-01  5.54747E-03
    9040.727     44.002   3.720  1.00826E+00  9.92450E-01  1.58066E-02
    9041.867     45.142   3.760  1.01690E+00  9.91733E-01  2.51665E-02
    9043.019     46.294   3.800  1.02443E+00  9.91060E-01  3.33738E-02
    9044.184     47.459   3.840  1.03049E+00  9.90456E-01  4.00360E-02
    9045.360     48.635   3.880  1.03465E+00  9.89919E-01  4.47271E-02
    9046.549     49.824   3.920  1.03659E+00  9.89409E-01  4.71854E-02
    9047.750     51.025   3.960  1.03640E+00  9.88967E-01  4.74303E-02
    9048.963     52.238   4.000  1.03438E+00  9.88594E-01  4.57882E-02
    9050.188     53.463   4.040  1.03111E+00  9.88268E-01  4.28393E-02
    9051.426     54.701   4.080  1.02735E+00  9.87989E-01  3.93590E-02
    9052.675     55.950   4.120  1.02398E+00  9.87780E-01  3.62012E-02
    9053.937     57.212   4.160  1.02175E+00  9.87618E-01  3.41297E-02
    9055.211     58.486   4.200  1.02101E+00  9.87522E-01  3.34868E-02
    9056.497     59.773   4.240  1.02160E+00  9.87472E-01  3.41315E-02
    9057.796     61.071   4.280  1.02307E+00  9.87467E-01  3.56028E-02
    9059.106     62.382   4.320  1.02478E+00  9.87506E-01  3.72746E-02
    9060.429     63.705   4.360  1.02613E+00  9.87609E-01  3.85227E-02
    9061.764     65.040   4.400  1.02667E+00  9.87754E-01  3.89200E-02
    9063.112     66.387   4.440  1.02630E+00  9.87917E-01  3.83802E-02
    9064.471     67.746   4.480  1.02517E+00  9.88142E-01  3.70231E-02
    9065.843     69.118   4.520  1.02348E+00  9.88405E-01  3.50707E-02
    9067.226     70.502   4.560  1.02144E+00  9.88685E-01  3.27596E-02
    9068.622     71.898   4.600  1.01932E+00  9.89022E-01  3.02966E-02
    9070.030     73.306   4.640  1.01722E+00  9.89372E-01  2.78481E-02
    9071.451     74.726   4.680  1.01525E+00  9.89755E-01  2.54913E-02
    9072.883     76.159   4.720  1.01329E+00  9.90148E-01  2.31388E-02
    9074.328     77.603   4.760  1.01113E+00  9.90570E-01  2.05557E-02
    9075.785     79.060   4.800  1.00836E+00  9.91000E-01  1.73617E-02
    9077.254     80.529   4.840  1.00451E+00  9.91457E-01  1.30576E-02
    9078.735     82.011   4.880  9.99152E-01  9.91916E-01  7.23542E-03
    9080.229     83.504   4.920  9.92127E-01  9.92356E-01 -2.29682E-04
    9081.735     85.010   4.960  9.83771E-01  9.92841E-01 -9.07026E-03
    9083.253     86.528   5.000  9.74617E-01  9.93305E-01 -1.86879E-02
    9084.783     88.058   5.040  9.65430E-01  9.93764E-01 -2.83332E-02
    9086.325     89.600   5.080  9.57024E-01  9.94196E-01 -3.71718E-02
    9087.879     91.155   5.120  9.50369E-01  9.94645E-01 -4.42762E-02
    9089.446     92.721   5.160  9.46354E-01  9.95068E-01 -4.87145E-02
    9091.025     94.300   5.200  9.45683E-01  9.95482E-01 -4.97996E-02
    9092.616     95.891   5.240  9.48379E-01  9.95864E-01 -4.74857E-02
    9094.219     97.495   5.280  9.53736E-01  9.96237E-01 -4.25008E-02
    9095.835     99.110   5.320  9.60369E-01  9.96577E-01 -3.62083E-02
    9097.462    100.738   5.360  9.66723E-01  9.96904E-01 -3.01817E-02
    9099.102    102.377   5.400  9.71488E-01  9.97197E-01 -2.57084E-02
    9100.754    104.029   5.440  9.74060E-01  9.97452E-01 -2.33914E-02
    9102.418    105.694   5.480  9.74577E-01  9.97669E-01 -2.30918E-02
    9104.095    107.370   5.520  9.73700E-01  9.97871E-01 -2.41705E-02
    9105.783    109.059   5.560  9.72200E-01  9.98013E-01 -2.58125E-02
    9107.484    110.759   5.600  9.70968E-01  9.98139E-01 -2.71713E-02
    9109.197    112.472   5.640  9.70737E-01  9.98227E-01 -2.74905E-02
    9110.922    114.198   5.680  9.72005E-01  9.98276E-01 -2.62705E-02
    9112.660    115.935   5.720  9.74829E-01  9.98285E-01 -2.34557E-02
    9114.409    117.684   5.760  9.78842E-01  9.98254E-01 -1.94125E-02
    9116.171    119.446   5.800  9.83508E-01  9.98183E-01 -1.46754E-02
    9117.945    121.220   5.840  9.88484E-01  9.98073E-01 -9.58887E-03
    9119.731    123.006   5.880  9.93739E-01  9.97925E-01 -4.18559E-03
    9121.529    124.804   5.920  9.99343E-01  9.97738E-01  1.60509E-03
    9123.340    126.615   5.960  1.00513E+00  9.97511E-01  7.61649E-03
    9125.162    128.438   6.000  1.01067E+00  9.97221E-01  1.34509E-02
