# # comment:                                                     FEFF 9.9.1  
# # Source:
# # Structure
# # Reduced
# # space
# # abc:
# # angles:
# # sites:
# # POT  SCF 100  7.0000   0, screened core-hole, AFOLP (folp(0)= 1.150)
# # Abs   Z=29 Rmt= 1.237 Rnm= 1.306 K  shell
# # Pot 1 Z= 3 Rmt= 1.239 Rnm= 1.291
# # Pot 2 Z=29 Rmt= 1.228 Rnm= 1.302
# # Pot 3 Z=28 Rmt= 1.180 Rnm= 1.297
# # Pot 4 Z= 8 Rmt= 1.043 Rnm= 1.100
# # Gam_ch=1.729E+00 H-L exch Vi= 0.000E+00 Vr= 0.000E+00
# # Mu=-9.260E+00eV kf=2.146E+00 Vint=-1.732E+01eV Rs_int= 1.690
# FMS rfms= 9.0000
# # PATH  Rmax=-1.000,  Keep_limit= 0.00, Heap_limit 0.00  Pwcrit= 2.50%
#  S02=0.950  Temp=   0.00  Debye_temp=   0.00  Global_sig2= 0.00000
#  Energy zero shift, vr, vi    0.00000E+00   0.00000E+00
#  Curved wave amplitude ratio filter   4.000%
#     file         sig2 tot  cw amp ratio   deg  nlegs   reff  inp sig2
#     0/   0 paths used
#  xsedge+ 50, used to normalize mu           2.4602E-04
#  -----------------------------------------------------------------------
#  omega    e    k    mu    mu0     chi     @#
    8984.506    -13.070  -1.000  3.30987E-02  5.17178E-02 -1.86191E-02
    8984.805    -12.772  -0.960  3.45695E-02  5.54022E-02 -2.08327E-02
    8985.091    -12.485  -0.920  3.61309E-02  5.94898E-02 -2.33588E-02
    8985.365    -12.211  -0.880  3.77928E-02  6.40390E-02 -2.62463E-02
    8985.628    -11.949  -0.840  3.95666E-02  6.91183E-02 -2.95517E-02
    8985.878    -11.699  -0.800  4.14661E-02  7.48067E-02 -3.33406E-02
    8986.115    -11.461  -0.760  4.35074E-02  8.11947E-02 -3.76873E-02
    8986.341    -11.235  -0.720  4.57090E-02  8.83845E-02 -4.26756E-02
    8986.554    -11.022  -0.680  4.80918E-02  9.64887E-02 -4.83969E-02
    8986.755    -10.821  -0.640  5.06783E-02  1.05626E-01 -5.49475E-02
    8986.944    -10.632  -0.600  5.34907E-02  1.15912E-01 -6.24214E-02
    8987.121    -10.455  -0.560  5.65471E-02  1.27446E-01 -7.08992E-02
    8987.286    -10.291  -0.520  5.98565E-02  1.40287E-01 -8.04305E-02
    8987.438    -10.138  -0.480  6.34103E-02  1.54420E-01 -9.10095E-02
    8987.578     -9.998  -0.440  6.71737E-02  1.69721E-01 -1.02547E-01
    8987.706     -9.870  -0.400  7.10783E-02  1.85926E-01 -1.14848E-01
    8987.822     -9.754  -0.360  7.50204E-02  2.02620E-01 -1.27600E-01
    8987.926     -9.650  -0.320  7.88706E-02  2.19263E-01 -1.40393E-01
    8988.017     -9.559  -0.280  8.24912E-02  2.35257E-01 -1.52766E-01
    8988.096     -9.480  -0.240  8.57594E-02  2.50024E-01 -1.64264E-01
    8988.164     -9.413  -0.200  8.85836E-02  2.63079E-01 -1.74495E-01
    8988.218     -9.358  -0.160  9.09105E-02  2.74066E-01 -1.83155E-01
    8988.261     -9.315  -0.120  9.27189E-02  2.82755E-01 -1.90036E-01
    8988.292     -9.285  -0.080  9.40079E-02  2.89018E-01 -1.95010E-01
    8988.316     -9.260   0.000  9.50447E-02  2.94052E-01 -1.99008E-01
    8988.371     -9.205   0.120  9.73068E-02  3.05416E-01 -2.08109E-01
    8988.413     -9.163   0.160  9.89805E-02  3.14251E-01 -2.15271E-01
    8988.468     -9.108   0.200  1.01019E-01  3.25534E-01 -2.24515E-01
    8988.535     -9.041   0.240  1.03351E-01  3.39139E-01 -2.35789E-01
    8988.615     -8.962   0.280  1.05823E-01  3.54770E-01 -2.48946E-01
    8988.706     -8.870   0.320  1.08313E-01  3.72088E-01 -2.63775E-01
    8988.810     -8.767   0.360  1.10646E-01  3.90600E-01 -2.79954E-01
    8988.926     -8.651   0.400  1.12646E-01  4.09761E-01 -2.97114E-01
    8989.054     -8.523   0.440  1.14319E-01  4.29147E-01 -3.14828E-01
    8989.194     -8.382   0.480  1.15644E-01  4.48365E-01 -3.32722E-01
    8989.346     -8.230   0.520  1.16864E-01  4.67206E-01 -3.50343E-01
    8989.511     -8.065   0.560  1.18246E-01  4.85524E-01 -3.67278E-01
    8989.688     -7.889   0.600  1.20189E-01  5.03289E-01 -3.83099E-01
    8989.877     -7.700   0.640  1.23107E-01  5.20592E-01 -3.97485E-01
    8990.078     -7.499   0.680  1.27332E-01  5.37453E-01 -4.10121E-01
    8990.291     -7.285   0.720  1.33173E-01  5.53947E-01 -4.20773E-01
    8990.517     -7.060   0.760  1.41101E-01  5.70186E-01 -4.29085E-01
    8990.754     -6.822   0.800  1.51613E-01  5.86214E-01 -4.34602E-01
    8991.004     -6.572   0.840  1.65511E-01  6.02083E-01 -4.36572E-01
    8991.266     -6.310   0.880  1.83908E-01  6.17829E-01 -4.33920E-01
    8991.541     -6.036   0.920  2.08290E-01  6.33499E-01 -4.25209E-01
    8991.827     -5.749   0.960  2.40474E-01  6.49069E-01 -4.08595E-01
    8992.126     -5.450   1.000  2.82452E-01  6.64563E-01 -3.82111E-01
    8992.437     -5.139   1.040  3.35743E-01  6.79981E-01 -3.44238E-01
    8992.760     -4.816   1.080  4.00599E-01  6.95312E-01 -2.94713E-01
    8993.095     -4.481   1.120  4.72516E-01  7.10519E-01 -2.38003E-01
    8993.443     -4.134   1.160  5.38918E-01  7.25583E-01 -1.86665E-01
    8993.802     -3.774   1.200  5.88970E-01  7.40480E-01 -1.51510E-01
    8994.174     -3.402   1.240  6.26652E-01  7.55183E-01 -1.28531E-01
    8994.558     -3.018   1.280  6.62485E-01  7.69665E-01 -1.07180E-01
    8994.954     -2.622   1.320  6.95441E-01  7.83875E-01 -8.84340E-02
    8995.363     -2.213   1.360  7.13657E-01  7.97801E-01 -8.41444E-02
    8995.784     -1.793   1.400  7.12261E-01  8.11391E-01 -9.91300E-02
    8996.216     -1.360   1.440  7.02557E-01  8.24635E-01 -1.22078E-01
    8996.661     -0.915   1.480  7.01736E-01  8.37503E-01 -1.35766E-01
    8997.119     -0.458   1.520  7.19928E-01  8.49961E-01 -1.30033E-01
    8997.588      0.012   1.560  7.56143E-01  8.61981E-01 -1.05838E-01
    8998.070      0.493   1.600  8.01276E-01  8.73532E-01 -7.22560E-02
    8998.563      0.987   1.640  8.54591E-01  8.84629E-01 -3.00385E-02
    8999.069      1.493   1.680  9.19225E-01  8.95225E-01  2.39999E-02
    8999.587      2.011   1.720  9.87757E-01  9.05315E-01  8.24416E-02
    9000.118      2.542   1.760  1.05674E+00  9.14917E-01  1.41826E-01
    9000.660      3.084   1.800  1.14135E+00  9.23986E-01  2.17363E-01
    9001.215      3.639   1.840  1.25154E+00  9.32543E-01  3.19001E-01
    9001.782      4.206   1.880  1.37045E+00  9.40567E-01  4.29886E-01
    9002.361      4.785   1.920  1.47473E+00  9.48082E-01  5.26645E-01
    9002.952      5.376   1.960  1.55985E+00  9.55070E-01  6.04779E-01
    9003.556      5.980   2.000  1.62218E+00  9.61575E-01  6.60603E-01
    9004.172      6.595   2.040  1.64468E+00  9.67563E-01  6.77116E-01
    9004.799      7.223   2.080  1.60976E+00  9.73081E-01  6.36674E-01
    9005.440      7.863   2.120  1.51052E+00  9.78138E-01  5.32377E-01
    9006.092      8.516   2.160  1.37295E+00  9.82718E-01  3.90230E-01
    9006.756      9.180   2.200  1.23530E+00  9.86871E-01  2.48430E-01
    9007.433      9.857   2.240  1.11442E+00  9.90606E-01  1.23814E-01
    9008.122     10.546   2.280  1.01395E+00  9.93932E-01  2.00162E-02
    9008.823     11.247   2.320  9.35982E-01  9.96860E-01 -6.08778E-02
    9009.536     11.960   2.360  8.80451E-01  9.99440E-01 -1.18989E-01
    9010.261     12.685   2.400  8.43641E-01  1.00166E+00 -1.58022E-01
    9010.999     13.423   2.440  8.18983E-01  1.00358E+00 -1.84594E-01
    9011.749     14.173   2.480  8.00641E-01  1.00517E+00 -2.04533E-01
    9012.511     14.935   2.520  7.91927E-01  1.00649E+00 -2.14559E-01
    9013.285     15.709   2.560  8.10493E-01  1.00754E+00 -1.97048E-01
    9014.071     16.495   2.600  8.52125E-01  1.00835E+00 -1.56226E-01
    9014.870     17.294   2.640  8.97975E-01  1.00894E+00 -1.10968E-01
    9015.681     18.105   2.680  9.39668E-01  1.00931E+00 -6.96408E-02
    9016.504     18.927   2.720  9.73768E-01  1.00950E+00 -3.57297E-02
    9017.339     19.763   2.760  1.00094E+00  1.00952E+00 -8.58016E-03
    9018.186     20.610   2.800  1.02292E+00  1.00938E+00  1.35365E-02
    9019.046     21.470   2.840  1.04040E+00  1.00911E+00  3.12876E-02
    9019.917     22.341   2.880  1.05329E+00  1.00872E+00  4.45754E-02
    9020.801     23.225   2.920  1.06107E+00  1.00823E+00  5.28379E-02
    9021.698     24.121   2.960  1.06247E+00  1.00763E+00  5.48316E-02
    9022.606     25.030   3.000  1.05562E+00  1.00696E+00  4.86658E-02
    9023.526     25.950   3.040  1.03909E+00  1.00623E+00  3.28665E-02
    9024.459     26.883   3.080  1.01348E+00  1.00545E+00  8.03017E-03
    9025.404     27.828   3.120  9.82533E-01  1.00463E+00 -2.20933E-02
    9026.361     28.785   3.160  9.50957E-01  1.00375E+00 -5.27883E-02
    9027.330     29.754   3.200  9.22662E-01  1.00287E+00 -8.02123E-02
    9028.312     30.735   3.240  9.00014E-01  1.00197E+00 -1.01960E-01
    9029.305     31.729   3.280  8.83778E-01  1.00107E+00 -1.17293E-01
    9030.311     32.735   3.320  8.73707E-01  1.00017E+00 -1.26462E-01
    9031.329     33.753   3.360  8.69266E-01  9.99293E-01 -1.30027E-01
    9032.359     34.783   3.400  8.69733E-01  9.98425E-01 -1.28693E-01
    9033.402     35.826   3.440  8.74269E-01  9.97588E-01 -1.23318E-01
    9034.456     36.880   3.480  8.82340E-01  9.96763E-01 -1.14424E-01
    9035.523     37.947   3.520  8.93474E-01  9.95975E-01 -1.02501E-01
    9036.602     39.026   3.560  9.06941E-01  9.95246E-01 -8.83049E-02
    9037.693     40.117   3.600  9.21700E-01  9.94538E-01 -7.28380E-02
    9038.797     41.220   3.640  9.36742E-01  9.93891E-01 -5.71489E-02
    9039.912     42.336   3.680  9.51158E-01  9.93267E-01 -4.21083E-02
    9041.040     43.464   3.720  9.64476E-01  9.92708E-01 -2.82321E-02
    9042.180     44.604   3.760  9.76672E-01  9.92216E-01 -1.55433E-02
    9043.332     45.756   3.800  9.87978E-01  9.91749E-01 -3.77143E-03
    9044.496     46.920   3.840  9.98904E-01  9.91351E-01  7.55385E-03
    9045.673     48.097   3.880  1.01002E+00  9.91020E-01  1.90048E-02
    9046.862     49.285   3.920  1.02170E+00  9.90736E-01  3.09598E-02
    9048.063     50.486   3.960  1.03376E+00  9.90497E-01  4.32579E-02
    9049.276     51.699   4.000  1.04541E+00  9.90306E-01  5.51068E-02
    9050.501     52.925   4.040  1.05559E+00  9.90184E-01  6.54030E-02
    9051.738     54.162   4.080  1.06344E+00  9.90131E-01  7.33049E-02
    9052.988     55.412   4.120  1.06864E+00  9.90122E-01  7.85195E-02
    9054.250     56.674   4.160  1.07140E+00  9.90138E-01  8.12662E-02
    9055.524     57.948   4.200  1.07195E+00  9.90239E-01  8.17155E-02
    9056.810     59.234   4.240  1.07027E+00  9.90363E-01  7.99099E-02
    9058.109     60.533   4.280  1.06657E+00  9.90550E-01  7.60211E-02
    9059.419     61.843   4.320  1.06128E+00  9.90758E-01  7.05206E-02
    9060.742     63.166   4.360  1.05504E+00  9.91027E-01  6.40160E-02
    9062.077     64.501   4.400  1.04825E+00  9.91335E-01  5.69160E-02
    9063.424     65.848   4.440  1.04104E+00  9.91660E-01  4.93762E-02
    9064.784     67.208   4.480  1.03337E+00  9.92044E-01  4.13294E-02
    9066.155     68.579   4.520  1.02526E+00  9.92440E-01  3.28199E-02
    9067.539     69.963   4.560  1.01700E+00  9.92869E-01  2.41293E-02
    9068.935     71.359   4.600  1.00899E+00  9.93308E-01  1.56864E-02
    9070.343     72.767   4.640  1.00173E+00  9.93779E-01  7.95359E-03
    9071.764     74.187   4.680  9.95661E-01  9.94278E-01  1.38286E-03
    9073.196     75.620   4.720  9.91164E-01  9.94760E-01 -3.59585E-03
    9074.641     77.065   4.760  9.88694E-01  9.95268E-01 -6.57452E-03
    9076.098     78.522   4.800  9.88474E-01  9.95780E-01 -7.30591E-03
    9077.567     79.991   4.840  9.90380E-01  9.96315E-01 -5.93562E-03
    9079.048     81.472   4.880  9.93746E-01  9.96828E-01 -3.08115E-03
    9080.542     82.966   4.920  9.97740E-01  9.97337E-01  4.03251E-04
    9082.048     84.471   4.960  1.00169E+00  9.97842E-01  3.84729E-03
    9083.566     85.989   5.000  1.00533E+00  9.98343E-01  6.98918E-03
    9085.096     87.519   5.040  1.00855E+00  9.98817E-01  9.73039E-03
    9086.638     89.062   5.080  1.01106E+00  9.99303E-01  1.17546E-02
    9088.192     90.616   5.120  1.01227E+00  9.99737E-01  1.25298E-02
    9089.759     92.183   5.160  1.01180E+00  1.00016E+00  1.16357E-02
    9091.338     93.762   5.200  1.00964E+00  1.00057E+00  9.06483E-03
    9092.929     95.353   5.240  1.00610E+00  1.00095E+00  5.14728E-03
    9094.532     96.956   5.280  1.00151E+00  1.00130E+00  2.18553E-04
    9096.148     98.571   5.320  9.96056E-01  1.00163E+00 -5.57088E-03
    9097.775    100.199   5.360  9.89767E-01  1.00192E+00 -1.21533E-02
    9099.415    101.839   5.400  9.82716E-01  1.00217E+00 -1.94588E-02
    9101.067    103.491   5.440  9.74934E-01  1.00239E+00 -2.74545E-02
    9102.731    105.155   5.480  9.66332E-01  1.00256E+00 -3.62308E-02
    9104.408    106.831   5.520  9.56871E-01  1.00270E+00 -4.58243E-02
    9106.096    108.520   5.560  9.46899E-01  1.00279E+00 -5.58901E-02
    9107.797    110.221   5.600  9.37346E-01  1.00284E+00 -6.54989E-02
    9109.510    111.934   5.640  9.29531E-01  1.00288E+00 -7.33506E-02
    9111.235    113.659   5.680  9.24624E-01  1.00286E+00 -7.82307E-02
    9112.973    115.396   5.720  9.23276E-01  1.00279E+00 -7.95110E-02
    9114.722    117.146   5.760  9.25377E-01  1.00268E+00 -7.73026E-02
    9116.484    118.908   5.800  9.30323E-01  1.00256E+00 -7.22336E-02
    9118.258    120.681   5.840  9.37369E-01  1.00237E+00 -6.50016E-02
    9120.044    122.468   5.880  9.46039E-01  1.00214E+00 -5.61055E-02
    9121.842    124.266   5.920  9.55989E-01  1.00188E+00 -4.58929E-02
    9123.653    126.076   5.960  9.66860E-01  1.00161E+00 -3.47483E-02
    9125.475    127.899   6.000  9.78534E-01  1.00124E+00 -2.27108E-02
