# # comment:                                                     FEFF 9.9.1  
# # Source:
# # Structure
# # Reduced
# # space
# # abc:
# # angles:
# # sites:
# # POT  SCF 100  7.0000   0, screened core-hole, AFOLP (folp(0)= 1.150)
# # Abs   Z=29 Rmt= 1.190 Rnm= 1.289 K  shell
# # Pot 1 Z=21 Rmt= 1.467 Rnm= 1.545
# # Pot 2 Z=29 Rmt= 1.175 Rnm= 1.278
# # Pot 3 Z= 8 Rmt= 1.028 Rnm= 1.095
# # Gam_ch=1.729E+00 H-L exch Vi= 0.000E+00 Vr= 0.000E+00
# # Mu=-9.222E+00eV kf=2.192E+00 Vint=-1.763E+01eV Rs_int= 1.654
# FMS rfms= 9.0000
# # PATH  Rmax=-1.000,  Keep_limit= 0.00, Heap_limit 0.00  Pwcrit= 2.50%
#  S02=0.950  Temp=   0.00  Debye_temp=   0.00  Global_sig2= 0.00000
#  Energy zero shift, vr, vi    0.00000E+00   0.00000E+00
#  Curved wave amplitude ratio filter   4.000%
#     file         sig2 tot  cw amp ratio   deg  nlegs   reff  inp sig2
#     0/   0 paths used
#  xsedge+ 50, used to normalize mu           2.4698E-04
#  -----------------------------------------------------------------------
#  omega    e    k    mu    mu0     chi     @#
    8984.490    -13.032  -1.000  3.64598E-02  5.23441E-02 -1.58842E-02
    8984.788    -12.733  -0.960  3.84856E-02  5.60946E-02 -1.76089E-02
    8985.075    -12.447  -0.920  4.06919E-02  6.02574E-02 -1.95656E-02
    8985.349    -12.173  -0.880  4.31014E-02  6.48929E-02 -2.17915E-02
    8985.611    -11.911  -0.840  4.57400E-02  7.00712E-02 -2.43311E-02
    8985.861    -11.661  -0.800  4.86370E-02  7.58734E-02 -2.72364E-02
    8986.099    -11.423  -0.760  5.18244E-02  8.23926E-02 -3.05682E-02
    8986.325    -11.197  -0.720  5.53374E-02  8.97340E-02 -3.43965E-02
    8986.538    -10.984  -0.680  5.92132E-02  9.80132E-02 -3.88000E-02
    8986.739    -10.783  -0.640  6.34889E-02  1.07352E-01 -4.38634E-02
    8986.928    -10.594  -0.600  6.81993E-02  1.17871E-01 -4.96715E-02
    8987.105    -10.417  -0.560  7.33720E-02  1.29671E-01 -5.62988E-02
    8987.269    -10.252  -0.520  7.90211E-02  1.42813E-01 -6.37915E-02
    8987.422    -10.100  -0.480  8.51388E-02  1.57282E-01 -7.21430E-02
    8987.562     -9.960  -0.440  9.16858E-02  1.72952E-01 -8.12660E-02
    8987.690     -9.832  -0.400  9.85824E-02  1.89551E-01 -9.09684E-02
    8987.806     -9.716  -0.360  1.05704E-01  2.06653E-01 -1.00949E-01
    8987.909     -9.612  -0.320  1.12882E-01  2.23704E-01 -1.10822E-01
    8988.001     -9.521  -0.280  1.19916E-01  2.40088E-01 -1.20173E-01
    8988.080     -9.442  -0.240  1.26587E-01  2.55215E-01 -1.28627E-01
    8988.147     -9.375  -0.200  1.32678E-01  2.68586E-01 -1.35908E-01
    8988.202     -9.320  -0.160  1.37984E-01  2.79837E-01 -1.41854E-01
    8988.245     -9.277  -0.120  1.42324E-01  2.88735E-01 -1.46411E-01
    8988.275     -9.247  -0.080  1.45553E-01  2.95147E-01 -1.49594E-01
    8988.300     -9.222   0.000  1.48262E-01  3.00301E-01 -1.52038E-01
    8988.354     -9.167   0.120  1.54550E-01  3.11918E-01 -1.57368E-01
    8988.397     -9.125   0.160  1.59527E-01  3.20960E-01 -1.61433E-01
    8988.452     -9.070   0.200  1.66140E-01  3.32506E-01 -1.66367E-01
    8988.519     -9.003   0.240  1.74553E-01  3.46388E-01 -1.71835E-01
    8988.598     -8.924   0.280  1.85008E-01  3.62377E-01 -1.77369E-01
    8988.690     -8.832   0.320  1.97696E-01  3.80040E-01 -1.82344E-01
    8988.793     -8.728   0.360  2.12817E-01  3.98904E-01 -1.86087E-01
    8988.909     -8.613   0.400  2.30384E-01  4.18427E-01 -1.88044E-01
    8989.037     -8.485   0.440  2.49935E-01  4.38113E-01 -1.88177E-01
    8989.177     -8.344   0.480  2.70281E-01  4.57609E-01 -1.87329E-01
    8989.330     -8.192   0.520  2.88985E-01  4.76643E-01 -1.87658E-01
    8989.494     -8.027   0.560  3.02837E-01  4.95103E-01 -1.92267E-01
    8989.671     -7.851   0.600  3.09215E-01  5.13002E-01 -2.03786E-01
    8989.860     -7.662   0.640  3.08006E-01  5.30329E-01 -2.22323E-01
    8990.061     -7.460   0.680  3.02210E-01  5.47192E-01 -2.44982E-01
    8990.275     -7.247   0.720  2.96081E-01  5.63648E-01 -2.67567E-01
    8990.500     -7.022   0.760  2.92831E-01  5.79794E-01 -2.86964E-01
    8990.738     -6.784   0.800  2.92779E-01  5.95677E-01 -3.02898E-01
    8990.988     -6.534   0.840  2.93344E-01  6.11393E-01 -3.18049E-01
    8991.250     -6.272   0.880  2.91780E-01  6.26964E-01 -3.35183E-01
    8991.524     -5.997   0.920  2.89116E-01  6.42419E-01 -3.53302E-01
    8991.811     -5.711   0.960  2.88177E-01  6.57756E-01 -3.69579E-01
    8992.110     -5.412   1.000  2.88964E-01  6.73023E-01 -3.84059E-01
    8992.420     -5.101   1.040  2.89333E-01  6.88181E-01 -3.98848E-01
    8992.744     -4.778   1.080  2.89432E-01  7.03242E-01 -4.13811E-01
    8993.079     -4.443   1.120  2.92161E-01  7.18174E-01 -4.26013E-01
    8993.426     -4.095   1.160  3.00632E-01  7.32956E-01 -4.32324E-01
    8993.786     -3.736   1.200  3.15622E-01  7.47589E-01 -4.31967E-01
    8994.158     -3.364   1.240  3.35603E-01  7.62005E-01 -4.26403E-01
    8994.542     -2.980   1.280  3.58971E-01  7.76201E-01 -4.17229E-01
    8994.938     -2.584   1.320  3.87224E-01  7.90165E-01 -4.02941E-01
    8995.347     -2.175   1.360  4.26725E-01  8.03828E-01 -3.77103E-01
    8995.767     -1.755   1.400  4.87294E-01  8.17179E-01 -3.29885E-01
    8996.200     -1.322   1.440  5.79215E-01  8.30169E-01 -2.50954E-01
    8996.645     -0.877   1.480  7.08078E-01  8.42805E-01 -1.34727E-01
    8997.102     -0.420   1.520  8.57369E-01  8.55039E-01  2.32978E-03
    8997.572      0.050   1.560  9.64615E-01  8.66864E-01  9.77514E-02
    8998.053      0.531   1.600  9.63782E-01  8.78248E-01  8.55340E-02
    8998.547      1.025   1.640  8.98999E-01  8.89164E-01  9.83488E-03
    8999.053      1.531   1.680  8.62849E-01  8.99607E-01 -3.67574E-02
    8999.571      2.049   1.720  8.82739E-01  9.09571E-01 -2.68314E-02
    9000.101      2.580   1.760  9.41531E-01  9.19033E-01  2.24984E-02
    9000.644      3.122   1.800  1.01577E+00  9.27990E-01  8.77761E-02
    9001.199      3.677   1.840  1.09629E+00  9.36422E-01  1.59866E-01
    9001.766      4.244   1.880  1.18085E+00  9.44369E-01  2.36480E-01
    9002.345      4.823   1.920  1.25070E+00  9.51812E-01  2.98886E-01
    9002.936      5.414   1.960  1.28432E+00  9.58734E-01  3.25589E-01
    9003.540      6.018   2.000  1.27899E+00  9.65181E-01  3.13813E-01
    9004.155      6.633   2.040  1.24355E+00  9.71135E-01  2.72414E-01
    9004.783      7.261   2.080  1.20902E+00  9.76602E-01  2.32417E-01
    9005.423      7.901   2.120  1.19564E+00  9.81609E-01  2.14035E-01
    9006.075      8.554   2.160  1.18970E+00  9.86163E-01  2.03542E-01
    9006.740      9.218   2.200  1.17243E+00  9.90273E-01  1.82152E-01
    9007.417      9.895   2.240  1.14409E+00  9.93988E-01  1.50098E-01
    9008.105     10.584   2.280  1.11888E+00  9.97276E-01  1.21607E-01
    9008.806     11.285   2.320  1.11132E+00  1.00021E+00  1.11113E-01
    9009.520     11.998   2.360  1.13114E+00  1.00275E+00  1.28394E-01
    9010.245     12.723   2.400  1.18381E+00  1.00495E+00  1.78858E-01
    9010.983     13.461   2.440  1.26532E+00  1.00683E+00  2.58490E-01
    9011.733     14.211   2.480  1.34954E+00  1.00841E+00  3.41128E-01
    9012.495     14.973   2.520  1.39150E+00  1.00968E+00  3.81817E-01
    9013.269     15.747   2.560  1.36356E+00  1.01070E+00  3.52865E-01
    9014.055     16.533   2.600  1.27229E+00  1.01146E+00  2.60826E-01
    9014.854     17.332   2.640  1.16872E+00  1.01201E+00  1.56707E-01
    9015.664     18.143   2.680  1.08658E+00  1.01233E+00  7.42466E-02
    9016.487     18.966   2.720  1.02823E+00  1.01247E+00  1.57612E-02
    9017.323     19.801   2.760  9.89841E-01  1.01242E+00 -2.25751E-02
    9018.170     20.648   2.800  9.65062E-01  1.01222E+00 -4.71604E-02
    9019.029     21.508   2.840  9.48780E-01  1.01187E+00 -6.30946E-02
    9019.901     22.379   2.880  9.36636E-01  1.01140E+00 -7.47645E-02
    9020.785     23.263   2.920  9.25669E-01  1.01081E+00 -8.51378E-02
    9021.681     24.159   2.960  9.14740E-01  1.01012E+00 -9.53835E-02
    9022.589     25.068   3.000  9.03690E-01  1.00936E+00 -1.05665E-01
    9023.510     25.988   3.040  8.92959E-01  1.00851E+00 -1.15550E-01
    9024.443     26.921   3.080  8.83270E-01  1.00761E+00 -1.24340E-01
    9025.388     27.866   3.120  8.75138E-01  1.00665E+00 -1.31508E-01
    9026.345     28.823   3.160  8.68738E-01  1.00566E+00 -1.36925E-01
    9027.314     29.792   3.200  8.64126E-01  1.00464E+00 -1.40519E-01
    9028.295     30.773   3.240  8.61575E-01  1.00362E+00 -1.42042E-01
    9029.289     31.767   3.280  8.61191E-01  1.00256E+00 -1.41372E-01
    9030.295     32.773   3.320  8.63194E-01  1.00153E+00 -1.38333E-01
    9031.313     33.791   3.360  8.67788E-01  1.00049E+00 -1.32706E-01
    9032.343     34.821   3.400  8.74976E-01  9.99466E-01 -1.24490E-01
    9033.385     35.864   3.440  8.84282E-01  9.98446E-01 -1.14164E-01
    9034.440     36.918   3.480  8.95056E-01  9.97480E-01 -1.02424E-01
    9035.507     37.985   3.520  9.06411E-01  9.96527E-01 -9.01163E-02
    9036.586     39.064   3.560  9.17313E-01  9.95611E-01 -7.82977E-02
    9037.677     40.155   3.600  9.26948E-01  9.94733E-01 -6.77845E-02
    9038.780     41.259   3.640  9.34900E-01  9.93896E-01 -5.89967E-02
    9039.896     42.374   3.680  9.41315E-01  9.93102E-01 -5.17872E-02
    9041.024     43.502   3.720  9.46934E-01  9.92373E-01 -4.54390E-02
    9042.164     44.642   3.760  9.52810E-01  9.91689E-01 -3.88786E-02
    9043.316     45.794   3.800  9.59818E-01  9.91048E-01 -3.12300E-02
    9044.480     46.958   3.840  9.68305E-01  9.90454E-01 -2.21490E-02
    9045.657     48.135   3.880  9.78191E-01  9.89927E-01 -1.17355E-02
    9046.845     49.324   3.920  9.88842E-01  9.89448E-01 -6.05591E-04
    9048.046     50.524   3.960  9.99067E-01  9.89037E-01  1.00295E-02
    9049.259     51.738   4.000  1.00724E+00  9.88675E-01  1.85684E-02
    9050.485     52.963   4.040  1.01198E+00  9.88383E-01  2.35977E-02
    9051.722     54.200   4.080  1.01258E+00  9.88136E-01  2.44425E-02
    9052.972     55.450   4.120  1.00938E+00  9.87936E-01  2.14492E-02
    9054.234     56.712   4.160  1.00378E+00  9.87802E-01  1.59735E-02
    9055.508     57.986   4.200  9.97779E-01  9.87713E-01  1.00663E-02
    9056.794     59.272   4.240  9.93732E-01  9.87668E-01  6.06449E-03
    9058.092     60.571   4.280  9.93834E-01  9.87667E-01  6.16687E-03
    9059.403     61.881   4.320  9.99661E-01  9.87732E-01  1.19297E-02
    9060.726     63.204   4.360  1.01163E+00  9.87840E-01  2.37907E-02
    9062.061     64.539   4.400  1.02887E+00  9.87989E-01  4.08808E-02
    9063.408     65.886   4.440  1.04933E+00  9.88177E-01  6.11566E-02
    9064.768     67.246   4.480  1.07007E+00  9.88402E-01  8.16636E-02
    9066.139     68.617   4.520  1.08782E+00  9.88643E-01  9.91815E-02
    9067.523     70.001   4.560  1.10006E+00  9.88942E-01  1.11120E-01
    9068.919     71.397   4.600  1.10537E+00  9.89255E-01  1.16117E-01
    9070.327     72.805   4.640  1.10389E+00  9.89602E-01  1.14287E-01
    9071.747     74.226   4.680  1.09704E+00  9.89982E-01  1.07053E-01
    9073.180     75.658   4.720  1.08657E+00  9.90371E-01  9.61943E-02
    9074.625     77.103   4.760  1.07388E+00  9.90789E-01  8.30877E-02
    9076.082     78.560   4.800  1.05966E+00  9.91212E-01  6.84477E-02
    9077.551     80.029   4.840  1.04432E+00  9.91639E-01  5.26826E-02
    9079.032     81.510   4.880  1.02856E+00  9.92068E-01  3.64903E-02
    9080.526     83.004   4.920  1.01354E+00  9.92520E-01  2.10227E-02
    9082.031     84.509   4.960  1.00048E+00  9.92952E-01  7.52421E-03
    9083.549     86.027   5.000  9.90342E-01  9.93402E-01 -3.05995E-03
    9085.079     87.557   5.040  9.83571E-01  9.93829E-01 -1.02572E-02
    9086.622     89.100   5.080  9.80218E-01  9.94251E-01 -1.40329E-02
    9088.176     90.654   5.120  9.79883E-01  9.94668E-01 -1.47856E-02
    9089.743     92.221   5.160  9.81668E-01  9.95080E-01 -1.34124E-02
    9091.322     93.800   5.200  9.84161E-01  9.95462E-01 -1.13013E-02
    9092.913     95.391   5.240  9.85611E-01  9.95837E-01 -1.02254E-02
    9094.516     96.994   5.280  9.84245E-01  9.96200E-01 -1.19546E-02
    9096.131     98.609   5.320  9.78942E-01  9.96507E-01 -1.75655E-02
    9097.759    100.237   5.360  9.70066E-01  9.96802E-01 -2.67361E-02
    9099.399    101.877   5.400  9.59218E-01  9.97084E-01 -3.78653E-02
    9101.051    103.529   5.440  9.48321E-01  9.97308E-01 -4.89870E-02
    9102.715    105.193   5.480  9.38777E-01  9.97520E-01 -5.87429E-02
    9104.391    106.870   5.520  9.31113E-01  9.97716E-01 -6.66028E-02
    9106.080    108.558   5.560  9.25243E-01  9.97852E-01 -7.26087E-02
    9107.781    110.259   5.600  9.21105E-01  9.97950E-01 -7.68447E-02
    9109.494    111.972   5.640  9.19065E-01  9.98031E-01 -7.89659E-02
    9111.219    113.697   5.680  9.19941E-01  9.98074E-01 -7.81326E-02
    9112.956    115.434   5.720  9.24500E-01  9.98055E-01 -7.35551E-02
    9114.706    117.184   5.760  9.32891E-01  9.98018E-01 -6.51270E-02
    9116.467    118.946   5.800  9.44410E-01  9.97945E-01 -5.35350E-02
    9118.241    120.720   5.840  9.58078E-01  9.97834E-01 -3.97565E-02
    9120.028    122.506   5.880  9.72925E-01  9.97685E-01 -2.47596E-02
    9121.826    124.304   5.920  9.87693E-01  9.97498E-01 -9.80526E-03
    9123.636    126.115   5.960  1.00056E+00  9.97273E-01  3.29120E-03
    9125.459    127.937   6.000  1.00983E+00  9.97014E-01  1.28141E-02
