# # comment:                                                     FEFF 9.9.1  
# # Source:
# # Structure
# # Reduced
# # space
# # abc:
# # angles:104.255924
# # sites:
# # POT  SCF 100  7.0000   0, screened core-hole, AFOLP (folp(0)= 1.150)
# # Abs   Z=29 Rmt= 1.174 Rnm= 1.335 K  shell
# # Pot 1 Z=23 Rmt= 1.279 Rnm= 1.390
# # Pot 2 Z=29 Rmt= 1.172 Rnm= 1.333
# # Pot 3 Z=28 Rmt= 1.349 Rnm= 1.418
# # Pot 4 Z= 8 Rmt= 0.997 Rnm= 1.082
# # Gam_ch=1.729E+00 H-L exch Vi= 0.000E+00 Vr= 0.000E+00
# # Mu=-9.676E+00eV kf=2.169E+00 Vint=-1.855E+01eV Rs_int= 1.672
# FMS rfms= 9.0000
# # PATH  Rmax=-1.000,  Keep_limit= 0.00, Heap_limit 0.00  Pwcrit= 2.50%
#  S02=0.950  Temp=   0.00  Debye_temp=   0.00  Global_sig2= 0.00000
#  Energy zero shift, vr, vi    0.00000E+00   0.00000E+00
#  Curved wave amplitude ratio filter   4.000%
#     file         sig2 tot  cw amp ratio   deg  nlegs   reff  inp sig2
#     0/   0 paths used
#  xsedge+ 50, used to normalize mu           2.5065E-04
#  -----------------------------------------------------------------------
#  omega    e    k    mu    mu0     chi     @#
    8984.198    -13.486  -1.000  4.49721E-02  4.95528E-02 -4.58073E-03
    8984.497    -13.187  -0.960  4.81882E-02  5.30519E-02 -4.86372E-03
    8984.784    -12.901  -0.920  5.17855E-02  5.69332E-02 -5.14770E-03
    8985.058    -12.626  -0.880  5.58251E-02  6.12523E-02 -5.42726E-03
    8985.320    -12.364  -0.840  6.03788E-02  6.60743E-02 -5.69551E-03
    8985.570    -12.114  -0.800  6.55306E-02  7.14744E-02 -5.94382E-03
    8985.808    -11.877  -0.760  7.13770E-02  7.75387E-02 -6.16168E-03
    8986.033    -11.651  -0.720  7.80281E-02  8.43646E-02 -6.33652E-03
    8986.247    -11.438  -0.680  8.56056E-02  9.20594E-02 -6.45379E-03
    8986.448    -11.237  -0.640  9.42390E-02  1.00736E-01 -6.49701E-03
    8986.637    -11.048  -0.600  1.04057E-01  1.10505E-01 -6.44814E-03
    8986.814    -10.871  -0.560  1.15174E-01  1.21462E-01 -6.28798E-03
    8986.978    -10.706  -0.520  1.27665E-01  1.33662E-01 -5.99688E-03
    8987.131    -10.554  -0.480  1.41535E-01  1.47091E-01 -5.55556E-03
    8987.271    -10.414  -0.440  1.56686E-01  1.61632E-01 -4.94654E-03
    8987.399    -10.286  -0.400  1.72877E-01  1.77034E-01 -4.15673E-03
    8987.515    -10.170  -0.360  1.89718E-01  1.92900E-01 -3.18198E-03
    8987.618    -10.066  -0.320  2.06683E-01  2.08716E-01 -2.03352E-03
    8987.710     -9.975  -0.280  2.23169E-01  2.23913E-01 -7.44403E-04
    8987.789     -9.895  -0.240  2.38569E-01  2.37941E-01  6.27573E-04
    8987.856     -9.828  -0.200  2.52344E-01  2.50340E-01  2.00353E-03
    8987.911     -9.774  -0.160  2.64066E-01  2.60772E-01  3.29373E-03
    8987.954     -9.731  -0.120  2.73431E-01  2.69020E-01  4.41030E-03
    8987.984     -9.700  -0.080  2.80240E-01  2.74964E-01  5.27636E-03
    8988.008     -9.676   0.000  2.85762E-01  2.79740E-01  6.02198E-03
    8988.063     -9.621   0.120  2.97989E-01  2.90508E-01  7.48087E-03
    8988.106     -9.578   0.160  3.07649E-01  2.98876E-01  8.77295E-03
    8988.161     -9.524   0.200  3.20139E-01  3.09573E-01  1.05659E-02
    8988.228     -9.457   0.240  3.35382E-01  3.22459E-01  1.29222E-02
    8988.307     -9.377   0.280  3.53124E-01  3.37264E-01  1.58593E-02
    8988.399     -9.286   0.320  3.72908E-01  3.53621E-01  1.92875E-02
    8988.502     -9.182   0.360  3.93969E-01  3.71090E-01  2.28789E-02
    8988.618     -9.066   0.400  4.15052E-01  3.89146E-01  2.59057E-02
    8988.746     -8.938   0.440  4.34393E-01  4.07366E-01  2.70267E-02
    8988.886     -8.798   0.480  4.49562E-01  4.25384E-01  2.41771E-02
    8989.039     -8.646   0.520  4.57799E-01  4.42984E-01  1.48149E-02
    8989.203     -8.481   0.560  4.56893E-01  4.60068E-01 -3.17530E-03
    8989.380     -8.304   0.600  4.46512E-01  4.76606E-01 -3.00934E-02
    8989.569     -8.115   0.640  4.29067E-01  4.92650E-01 -6.35829E-02
    8989.770     -7.914   0.680  4.08916E-01  5.08264E-01 -9.93483E-02
    8989.984     -7.701   0.720  3.90491E-01  5.23522E-01 -1.33031E-01
    8990.209     -7.475   0.760  3.76638E-01  5.38517E-01 -1.61879E-01
    8990.447     -7.238   0.800  3.67917E-01  5.53335E-01 -1.85418E-01
    8990.697     -6.988   0.840  3.63239E-01  5.68029E-01 -2.04789E-01
    8990.959     -6.726   0.880  3.61271E-01  5.82621E-01 -2.21350E-01
    8991.233     -6.451   0.920  3.61887E-01  5.97180E-01 -2.35293E-01
    8991.520     -6.165   0.960  3.66523E-01  6.11707E-01 -2.45184E-01
    8991.818     -5.866   1.000  3.76750E-01  6.26213E-01 -2.49463E-01
    8992.129     -5.555   1.040  3.91213E-01  6.40718E-01 -2.49505E-01
    8992.452     -5.232   1.080  4.05160E-01  6.55198E-01 -2.50038E-01
    8992.788     -4.897   1.120  4.14589E-01  6.69663E-01 -2.55074E-01
    8993.135     -4.549   1.160  4.19406E-01  6.84097E-01 -2.64691E-01
    8993.495     -4.190   1.200  4.22544E-01  6.98481E-01 -2.75937E-01
    8993.867     -3.818   1.240  4.27597E-01  7.12772E-01 -2.85175E-01
    8994.251     -3.434   1.280  4.37605E-01  7.26966E-01 -2.89361E-01
    8994.647     -3.037   1.320  4.55025E-01  7.41036E-01 -2.86011E-01
    8995.055     -2.629   1.360  4.82774E-01  7.54952E-01 -2.72178E-01
    8995.476     -2.208   1.400  5.24399E-01  7.68684E-01 -2.44286E-01
    8995.909     -1.776   1.440  5.82893E-01  7.82184E-01 -1.99290E-01
    8996.354     -1.331   1.480  6.58581E-01  7.95458E-01 -1.36877E-01
    8996.811     -0.873   1.520  7.45681E-01  8.08456E-01 -6.27750E-02
    8997.280     -0.404   1.560  8.29275E-01  8.21148E-01  8.12775E-03
    8997.762      0.078   1.600  8.91555E-01  8.33523E-01  5.80317E-02
    8998.256      0.571   1.640  9.28172E-01  8.45572E-01  8.26003E-02
    8998.762      1.077   1.680  9.48813E-01  8.57222E-01  9.15906E-02
    8999.280      1.595   1.720  9.58505E-01  8.68508E-01  8.99972E-02
    8999.810      2.126   1.760  9.51533E-01  8.79382E-01  7.21508E-02
    9000.353      2.668   1.800  9.32522E-01  8.89815E-01  4.27064E-02
    9000.908      3.223   1.840  9.23816E-01  8.99841E-01  2.39746E-02
    9001.474      3.790   1.880  9.41765E-01  9.09398E-01  3.23671E-02
    9002.054      4.369   1.920  9.87935E-01  9.18502E-01  6.94335E-02
    9002.645      4.960   1.960  1.05540E+00  9.27148E-01  1.28255E-01
    9003.248      5.564   2.000  1.13428E+00  9.35337E-01  1.98944E-01
    9003.864      6.180   2.040  1.20985E+00  9.43049E-01  2.66799E-01
    9004.492      6.808   2.080  1.25136E+00  9.50302E-01  3.01062E-01
    9005.132      7.448   2.120  1.24844E+00  9.57079E-01  2.91360E-01
    9005.784      8.100   2.160  1.21781E+00  9.63422E-01  2.54390E-01
    9006.449      8.764   2.200  1.16571E+00  9.69276E-01  1.96434E-01
    9007.125      9.441   2.240  1.10052E+00  9.74704E-01  1.25814E-01
    9007.814     10.130   2.280  1.04000E+00  9.79692E-01  6.03123E-02
    9008.515     10.831   2.320  9.97699E-01  9.84263E-01  1.34364E-02
    9009.229     11.544   2.360  9.75014E-01  9.88405E-01 -1.33918E-02
    9009.954     12.270   2.400  9.61537E-01  9.92166E-01 -3.06288E-02
    9010.692     13.007   2.440  9.40410E-01  9.95530E-01 -5.51195E-02
    9011.441     13.757   2.480  9.06648E-01  9.98506E-01 -9.18579E-02
    9012.203     14.519   2.520  8.79491E-01  1.00114E+00 -1.21652E-01
    9012.978     15.293   2.560  8.82649E-01  1.00345E+00 -1.20799E-01
    9013.764     16.079   2.600  9.31762E-01  1.00541E+00 -7.36456E-02
    9014.563     16.878   2.640  9.91060E-01  1.00707E+00 -1.60126E-02
    9015.373     17.689   2.680  1.04682E+00  1.00845E+00  3.83721E-02
    9016.196     18.512   2.720  1.09318E+00  1.00953E+00  8.36498E-02
    9017.031     19.347   2.760  1.13049E+00  1.01038E+00  1.20111E-01
    9017.879     20.194   2.800  1.16080E+00  1.01096E+00  1.49833E-01
    9018.738     21.054   2.840  1.18383E+00  1.01134E+00  1.72488E-01
    9019.610     21.926   2.880  1.19630E+00  1.01151E+00  1.84794E-01
    9020.494     22.809   2.920  1.19316E+00  1.01148E+00  1.81678E-01
    9021.390     23.706   2.960  1.17185E+00  1.01128E+00  1.60564E-01
    9022.298     24.614   3.000  1.13608E+00  1.01092E+00  1.25158E-01
    9023.219     25.534   3.040  1.09322E+00  1.01041E+00  8.28091E-02
    9024.151     26.467   3.080  1.04985E+00  1.00977E+00  4.00860E-02
    9025.096     27.412   3.120  1.01074E+00  1.00900E+00  1.74207E-03
    9026.053     28.369   3.160  9.77784E-01  1.00812E+00 -3.03400E-02
    9027.023     29.338   3.200  9.50743E-01  1.00716E+00 -5.64147E-02
    9028.004     30.320   3.240  9.28929E-01  1.00611E+00 -7.71803E-02
    9028.998     31.313   3.280  9.11499E-01  1.00498E+00 -9.34842E-02
    9030.004     32.319   3.320  8.97791E-01  1.00381E+00 -1.06018E-01
    9031.022     33.337   3.360  8.87510E-01  1.00259E+00 -1.15078E-01
    9032.052     34.367   3.400  8.80602E-01  1.00131E+00 -1.20704E-01
    9033.094     35.410   3.440  8.76941E-01  1.00001E+00 -1.23068E-01
    9034.149     36.464   3.480  8.76362E-01  9.98700E-01 -1.22338E-01
    9035.216     37.531   3.520  8.78694E-01  9.97363E-01 -1.18669E-01
    9036.295     38.610   3.560  8.83717E-01  9.96024E-01 -1.12307E-01
    9037.386     39.701   3.600  8.91136E-01  9.94705E-01 -1.03569E-01
    9038.489     40.805   3.640  9.00660E-01  9.93368E-01 -9.27082E-02
    9039.605     41.920   3.680  9.12065E-01  9.92058E-01 -7.99932E-02
    9040.733     43.048   3.720  9.24922E-01  9.90757E-01 -6.58345E-02
    9041.872     44.188   3.760  9.38771E-01  9.89507E-01 -5.07361E-02
    9043.025     45.340   3.800  9.52863E-01  9.88251E-01 -3.53880E-02
    9044.189     46.505   3.840  9.66317E-01  9.87052E-01 -2.07352E-02
    9045.365     47.681   3.880  9.78009E-01  9.85892E-01 -7.88240E-03
    9046.554     48.870   3.920  9.87034E-01  9.84771E-01  2.26285E-03
    9047.755     50.071   3.960  9.92998E-01  9.83691E-01  9.30746E-03
    9048.968     51.284   4.000  9.96301E-01  9.82652E-01  1.36485E-02
    9050.193     52.509   4.040  9.97973E-01  9.81657E-01  1.63158E-02
    9051.431     53.747   4.080  9.99237E-01  9.80726E-01  1.85104E-02
    9052.681     54.996   4.120  1.00090E+00  9.79842E-01  2.10592E-02
    9053.943     56.258   4.160  1.00317E+00  9.79003E-01  2.41643E-02
    9055.217     57.532   4.200  1.00563E+00  9.78231E-01  2.73983E-02
    9056.503     58.818   4.240  1.00732E+00  9.77507E-01  2.98099E-02
    9057.801     60.117   4.280  1.00727E+00  9.76852E-01  3.04155E-02
    9059.112     61.427   4.320  1.00505E+00  9.76245E-01  2.88104E-02
    9060.435     62.750   4.360  1.00107E+00  9.75704E-01  2.53683E-02
    9061.770     64.085   4.400  9.96057E-01  9.75211E-01  2.08464E-02
    9063.117     65.433   4.440  9.90538E-01  9.74764E-01  1.57731E-02
    9064.476     66.792   4.480  9.84807E-01  9.74385E-01  1.04228E-02
    9065.848     68.163   4.520  9.79336E-01  9.74052E-01  5.28397E-03
    9067.232     69.547   4.560  9.75082E-01  9.73786E-01  1.29646E-03
    9068.628     70.943   4.600  9.73057E-01  9.73564E-01 -5.07324E-04
    9070.036     72.351   4.640  9.73931E-01  9.73386E-01  5.45353E-04
    9071.456     73.772   4.680  9.77847E-01  9.73251E-01  4.59579E-03
    9072.889     75.204   4.720  9.84469E-01  9.73179E-01  1.12902E-02
    9074.334     76.649   4.760  9.92981E-01  9.73128E-01  1.98531E-02
    9075.790     78.106   4.800  1.00227E+00  9.73138E-01  2.91362E-02
    9077.260     79.575   4.840  1.01086E+00  9.73187E-01  3.76688E-02
    9078.741     81.056   4.880  1.01706E+00  9.73253E-01  4.38078E-02
    9080.234     82.550   4.920  1.01961E+00  9.73378E-01  4.62336E-02
    9081.740     84.056   4.960  1.01811E+00  9.73519E-01  4.45888E-02
    9083.258     85.574   5.000  1.01335E+00  9.73715E-01  3.96382E-02
    9084.788     87.104   5.040  1.00685E+00  9.73903E-01  3.29449E-02
    9086.330     88.646   5.080  1.00038E+00  9.74143E-01  2.62368E-02
    9087.885     90.200   5.120  9.95411E-01  9.74392E-01  2.10189E-02
    9089.452     91.767   5.160  9.92936E-01  9.74650E-01  1.82868E-02
    9091.030     93.346   5.200  9.93223E-01  9.74938E-01  1.82855E-02
    9092.621     94.937   5.240  9.95706E-01  9.75252E-01  2.04537E-02
    9094.225     96.540   5.280  9.99085E-01  9.75550E-01  2.35340E-02
    9095.840     98.156   5.320  1.00198E+00  9.75873E-01  2.61054E-02
    9097.468     99.783   5.360  1.00343E+00  9.76197E-01  2.72324E-02
    9099.108    101.423   5.400  1.00323E+00  9.76523E-01  2.67063E-02
    9100.760    103.075   5.440  1.00134E+00  9.76844E-01  2.44995E-02
    9102.424    104.739   5.480  9.97216E-01  9.77142E-01  2.00736E-02
    9104.100    106.416   5.520  9.90069E-01  9.77461E-01  1.26078E-02
    9105.789    108.104   5.560  9.79649E-01  9.77776E-01  1.87287E-03
    9107.490    109.805   5.600  9.66733E-01  9.78064E-01 -1.13308E-02
    9109.203    111.518   5.640  9.52592E-01  9.78343E-01 -2.57516E-02
    9110.928    113.243   5.680  9.38327E-01  9.78592E-01 -4.02657E-02
    9112.665    114.981   5.720  9.25046E-01  9.78832E-01 -5.37863E-02
    9114.415    116.730   5.760  9.14068E-01  9.79041E-01 -6.49728E-02
    9116.176    118.492   5.800  9.06682E-01  9.79242E-01 -7.25602E-02
    9117.950    120.266   5.840  9.03470E-01  9.79433E-01 -7.59630E-02
    9119.736    122.052   5.880  9.04106E-01  9.79566E-01 -7.54606E-02
    9121.535    123.850   5.920  9.07806E-01  9.79687E-01 -7.18809E-02
    9123.345    125.661   5.960  9.13783E-01  9.79796E-01 -6.60130E-02
    9125.168    127.483   6.000  9.22000E-01  9.79829E-01 -5.78297E-02
