# # comment:                                                     FEFF 9.9.1  
# # Source:
# # Structure
# # Reduced
# # space
# # abc:
# # angles:
# # sites:
# # POT  SCF 100  7.0000   0, screened core-hole, AFOLP (folp(0)= 1.150)
# # Abs   Z=29 Rmt= 1.260 Rnm= 1.320 K  shell
# # Pot 1 Z=29 Rmt= 1.260 Rnm= 1.320
# # Pot 2 Z=15 Rmt= 0.935 Rnm= 1.155
# # Pot 3 Z= 7 Rmt= 1.680 Rnm= 1.680
# # Pot 4 Z= 8 Rmt= 0.874 Rnm= 1.047
# # Gam_ch=1.729E+00 H-L exch Vi= 0.000E+00 Vr= 0.000E+00
# # Mu=-8.031E+00eV kf=2.534E+00 Vint=-1.664E+01eV Rs_int= 1.431
# FMS rfms= 9.0000
# # PATH  Rmax=-1.000,  Keep_limit= 0.00, Heap_limit 0.00  Pwcrit= 2.50%
#  S02=0.950  Temp=   0.00  Debye_temp=   0.00  Global_sig2= 0.00000
#  Energy zero shift, vr, vi    0.00000E+00   0.00000E+00
#  Curved wave amplitude ratio filter   4.000%
#     file         sig2 tot  cw amp ratio   deg  nlegs   reff  inp sig2
#     0/   0 paths used
#  xsedge+ 50, used to normalize mu           2.4905E-04
#  -----------------------------------------------------------------------
#  omega    e    k    mu    mu0     chi     @#
    8983.271    -11.841  -1.000  2.70778E-02  4.63993E-02 -1.93214E-02
    8983.569    -11.542  -0.960  2.80657E-02  4.96090E-02 -2.15432E-02
    8983.856    -11.256  -0.920  2.90941E-02  5.31649E-02 -2.40708E-02
    8984.130    -10.981  -0.880  3.01655E-02  5.71175E-02 -2.69520E-02
    8984.392    -10.719  -0.840  3.12829E-02  6.15252E-02 -3.02423E-02
    8984.642    -10.469  -0.800  3.24495E-02  6.64556E-02 -3.40062E-02
    8984.880    -10.232  -0.760  3.36691E-02  7.19866E-02 -3.83175E-02
    8985.105    -10.006  -0.720  3.49462E-02  7.82057E-02 -4.32595E-02
    8985.319     -9.793  -0.680  3.62851E-02  8.52093E-02 -4.89242E-02
    8985.520     -9.591  -0.640  3.76907E-02  9.30992E-02 -5.54085E-02
    8985.709     -9.402  -0.600  3.91670E-02  1.01975E-01 -6.28081E-02
    8985.886     -9.226  -0.560  4.07165E-02  1.11922E-01 -7.12052E-02
    8986.050     -9.061  -0.520  4.23386E-02  1.22989E-01 -8.06503E-02
    8986.203     -8.909  -0.480  4.40277E-02  1.35164E-01 -9.11367E-02
    8986.343     -8.769  -0.440  4.57703E-02  1.48341E-01 -1.02571E-01
    8986.471     -8.640  -0.400  4.75432E-02  1.62293E-01 -1.14749E-01
    8986.587     -8.525  -0.360  4.93134E-02  1.76660E-01 -1.27347E-01
    8986.690     -8.421  -0.320  5.10390E-02  1.90982E-01 -1.39943E-01
    8986.782     -8.330  -0.280  5.26746E-02  2.04741E-01 -1.52067E-01
    8986.861     -8.250  -0.240  5.41759E-02  2.17443E-01 -1.63267E-01
    8986.928     -8.183  -0.200  5.55048E-02  2.28670E-01 -1.73165E-01
    8986.983     -8.128  -0.160  5.66314E-02  2.38118E-01 -1.81486E-01
    8987.026     -8.086  -0.120  5.75341E-02  2.45588E-01 -1.88054E-01
    8987.056     -8.055  -0.080  5.81973E-02  2.50972E-01 -1.92775E-01
    8987.081     -8.031   0.000  5.87536E-02  2.55299E-01 -1.96545E-01
    8987.135     -7.976   0.120  6.00133E-02  2.65067E-01 -2.05053E-01
    8987.178     -7.933   0.160  6.09582E-02  2.72662E-01 -2.11704E-01
    8987.233     -7.878   0.200  6.21386E-02  2.82352E-01 -2.20213E-01
    8987.300     -7.811   0.240  6.35685E-02  2.94034E-01 -2.30465E-01
    8987.379     -7.732   0.280  6.52316E-02  3.07484E-01 -2.42253E-01
    8987.471     -7.641   0.320  6.71050E-02  3.22353E-01 -2.55248E-01
    8987.574     -7.537   0.360  6.91911E-02  3.38253E-01 -2.69062E-01
    8987.690     -7.421   0.400  7.14310E-02  3.54707E-01 -2.83276E-01
    8987.818     -7.293   0.440  7.38137E-02  3.71340E-01 -2.97526E-01
    8987.958     -7.153   0.480  7.63682E-02  3.87844E-01 -3.11475E-01
    8988.111     -7.001   0.520  7.91215E-02  4.04024E-01 -3.24902E-01
    8988.275     -6.836   0.560  8.20880E-02  4.19753E-01 -3.37665E-01
    8988.452     -6.659   0.600  8.53906E-02  4.35066E-01 -3.49675E-01
    8988.641     -6.470   0.640  8.90838E-02  4.49949E-01 -3.60865E-01
    8988.842     -6.269   0.680  9.33096E-02  4.64518E-01 -3.71208E-01
    8989.056     -6.056   0.720  9.80742E-02  4.78837E-01 -3.80763E-01
    8989.281     -5.830   0.760  1.03382E-01  4.92953E-01 -3.89571E-01
    8989.519     -5.593   0.800  1.09286E-01  5.06962E-01 -3.97676E-01
    8989.769     -5.343   0.840  1.15870E-01  5.20913E-01 -4.05043E-01
    8990.031     -5.080   0.880  1.23249E-01  5.34839E-01 -4.11590E-01
    8990.305     -4.806   0.920  1.31705E-01  5.48789E-01 -4.17084E-01
    8990.592     -4.520   0.960  1.41835E-01  5.62798E-01 -4.20963E-01
    8990.891     -4.221   1.000  1.54452E-01  5.76832E-01 -4.22379E-01
    8991.201     -3.910   1.040  1.70231E-01  5.90932E-01 -4.20701E-01
    8991.525     -3.587   1.080  1.89373E-01  6.05073E-01 -4.15700E-01
    8991.860     -3.252   1.120  2.11806E-01  6.19284E-01 -4.07478E-01
    8992.207     -2.904   1.160  2.37600E-01  6.33509E-01 -3.95908E-01
    8992.567     -2.545   1.200  2.67646E-01  6.47767E-01 -3.80121E-01
    8992.939     -2.173   1.240  3.03399E-01  6.62018E-01 -3.58619E-01
    8993.323     -1.789   1.280  3.45384E-01  6.76255E-01 -3.30871E-01
    8993.719     -1.392   1.320  3.91347E-01  6.90430E-01 -2.99083E-01
    8994.127     -0.984   1.360  4.38948E-01  7.04536E-01 -2.65588E-01
    8994.548     -0.563   1.400  4.88524E-01  7.18522E-01 -2.29998E-01
    8994.981     -0.131   1.440  5.40316E-01  7.32379E-01 -1.92063E-01
    8995.426      0.314   1.480  5.92069E-01  7.46093E-01 -1.54024E-01
    8995.883      0.772   1.520  6.41690E-01  7.59593E-01 -1.17903E-01
    8996.353      1.241   1.560  6.95330E-01  7.72889E-01 -7.75582E-02
    8996.834      1.723   1.600  7.67378E-01  7.85926E-01 -1.85474E-02
    8997.328      2.216   1.640  8.64833E-01  7.98714E-01  6.61193E-02
    8997.834      2.722   1.680  9.71543E-01  8.11182E-01  1.60361E-01
    8998.352      3.241   1.720  1.05481E+00  8.23339E-01  2.31472E-01
    8998.882      3.771   1.760  1.10095E+00  8.35156E-01  2.65793E-01
    8999.425      4.313   1.800  1.13320E+00  8.46602E-01  2.86597E-01
    8999.980      4.868   1.840  1.17386E+00  8.57670E-01  3.16191E-01
    9000.547      5.435   1.880  1.21971E+00  8.68353E-01  3.51359E-01
    9001.126      6.014   1.920  1.25773E+00  8.78624E-01  3.79108E-01
    9001.717      6.606   1.960  1.28428E+00  8.88457E-01  3.95826E-01
    9002.320      7.209   2.000  1.30142E+00  8.97870E-01  4.03552E-01
    9002.936      7.825   2.040  1.31151E+00  9.06858E-01  4.04656E-01
    9003.564      8.453   2.080  1.32058E+00  9.15378E-01  4.05205E-01
    9004.204      9.093   2.120  1.32470E+00  9.23469E-01  4.01231E-01
    9004.856      9.745   2.160  1.30837E+00  9.31093E-01  3.77281E-01
    9005.521     10.409   2.200  1.27093E+00  9.38288E-01  3.32647E-01
    9006.198     11.086   2.240  1.23319E+00  9.45036E-01  2.88154E-01
    9006.886     11.775   2.280  1.21166E+00  9.51321E-01  2.60340E-01
    9007.587     12.476   2.320  1.20007E+00  9.57205E-01  2.42863E-01
    9008.301     13.189   2.360  1.18105E+00  9.62633E-01  2.18415E-01
    9009.026     13.915   2.400  1.14632E+00  9.67668E-01  1.78653E-01
    9009.764     14.652   2.440  1.10440E+00  9.72277E-01  1.32121E-01
    9010.513     15.402   2.480  1.07126E+00  9.76506E-01  9.47541E-02
    9011.275     16.164   2.520  1.05317E+00  9.80362E-01  7.28031E-02
    9012.050     16.938   2.560  1.04626E+00  9.83830E-01  6.24318E-02
    9012.836     17.725   2.600  1.04829E+00  9.86937E-01  6.13511E-02
    9013.635     18.523   2.640  1.06025E+00  9.89711E-01  7.05404E-02
    9014.445     19.334   2.680  1.07799E+00  9.92180E-01  8.58129E-02
    9015.268     20.157   2.720  1.08862E+00  9.94311E-01  9.43100E-02
    9016.103     20.992   2.760  1.07930E+00  9.96155E-01  8.31479E-02
    9016.951     21.839   2.800  1.04912E+00  9.97739E-01  5.13813E-02
    9017.810     22.699   2.840  1.00453E+00  9.99049E-01  5.48447E-03
    9018.682     23.571   2.880  9.50180E-01  1.00011E+00 -4.99347E-02
    9019.566     24.455   2.920  8.95532E-01  1.00094E+00 -1.05412E-01
    9020.462     25.351   2.960  8.52173E-01  1.00159E+00 -1.49413E-01
    9021.370     26.259   3.000  8.19904E-01  1.00201E+00 -1.82103E-01
    9022.291     27.179   3.040  7.96817E-01  1.00225E+00 -2.05437E-01
    9023.224     28.112   3.080  7.80788E-01  1.00234E+00 -2.21550E-01
    9024.168     29.057   3.120  7.69620E-01  1.00226E+00 -2.32642E-01
    9025.126     30.014   3.160  7.62284E-01  1.00203E+00 -2.39750E-01
    9026.095     30.983   3.200  7.58841E-01  1.00170E+00 -2.42862E-01
    9027.076     31.965   3.240  7.59770E-01  1.00126E+00 -2.41486E-01
    9028.070     32.958   3.280  7.65792E-01  1.00070E+00 -2.34905E-01
    9029.076     33.964   3.320  7.76525E-01  1.00008E+00 -2.23551E-01
    9030.094     34.982   3.360  7.91620E-01  9.99356E-01 -2.07736E-01
    9031.124     36.013   3.400  8.10788E-01  9.98603E-01 -1.87815E-01
    9032.166     37.055   3.440  8.33316E-01  9.97762E-01 -1.64445E-01
    9033.221     38.110   3.480  8.58365E-01  9.96899E-01 -1.38534E-01
    9034.288     39.176   3.520  8.84887E-01  9.95999E-01 -1.11112E-01
    9035.367     40.255   3.560  9.11999E-01  9.95086E-01 -8.30874E-02
    9036.458     41.346   3.600  9.38654E-01  9.94145E-01 -5.54907E-02
    9037.561     42.450   3.640  9.64279E-01  9.93198E-01 -2.89189E-02
    9038.677     43.565   3.680  9.88223E-01  9.92249E-01 -4.02527E-03
    9039.805     44.693   3.720  1.00983E+00  9.91303E-01  1.85283E-02
    9040.945     45.833   3.760  1.02868E+00  9.90383E-01  3.83010E-02
    9042.097     46.985   3.800  1.04463E+00  9.89472E-01  5.51584E-02
    9043.261     48.150   3.840  1.05765E+00  9.88590E-01  6.90622E-02
    9044.438     49.326   3.880  1.06810E+00  9.87723E-01  8.03773E-02
    9045.626     50.515   3.920  1.07658E+00  9.86913E-01  8.96673E-02
    9046.827     51.716   3.960  1.08354E+00  9.86119E-01  9.74233E-02
    9048.040     52.929   4.000  1.08927E+00  9.85363E-01  1.03906E-01
    9049.266     54.154   4.040  1.09383E+00  9.84669E-01  1.09158E-01
    9050.503     55.392   4.080  1.09701E+00  9.83996E-01  1.13017E-01
    9051.753     56.641   4.120  1.09855E+00  9.83388E-01  1.15160E-01
    9053.015     57.903   4.160  1.09820E+00  9.82824E-01  1.15380E-01
    9054.289     59.177   4.200  1.09583E+00  9.82325E-01  1.13509E-01
    9055.575     60.463   4.240  1.09137E+00  9.81849E-01  1.09523E-01
    9056.873     61.762   4.280  1.08513E+00  9.81440E-01  1.03688E-01
    9058.184     63.073   4.320  1.07752E+00  9.81098E-01  9.64229E-02
    9059.507     64.395   4.360  1.06875E+00  9.80780E-01  8.79741E-02
    9060.842     65.730   4.400  1.05900E+00  9.80529E-01  7.84754E-02
    9062.189     67.078   4.440  1.04852E+00  9.80344E-01  6.81796E-02
    9063.548     68.437   4.480  1.03773E+00  9.80182E-01  5.75434E-02
    9064.920     69.809   4.520  1.02728E+00  9.80085E-01  4.71964E-02
    9066.304     71.192   4.560  1.01766E+00  9.80033E-01  3.76221E-02
    9067.700     72.588   4.600  1.00890E+00  9.80045E-01  2.88551E-02
    9069.108     73.997   4.640  1.00064E+00  9.80078E-01  2.05611E-02
    9070.528     75.417   4.680  9.92478E-01  9.80173E-01  1.23047E-02
    9071.961     76.849   4.720  9.84066E-01  9.80285E-01  3.78064E-03
    9073.406     78.294   4.760  9.75437E-01  9.80458E-01 -5.02091E-03
    9074.863     79.751   4.800  9.66872E-01  9.80649E-01 -1.37765E-02
    9076.332     81.220   4.840  9.58924E-01  9.80898E-01 -2.19740E-02
    9077.813     82.702   4.880  9.52118E-01  9.81160E-01 -2.90422E-02
    9079.307     84.195   4.920  9.46928E-01  9.81454E-01 -3.45266E-02
    9080.812     85.701   4.960  9.43494E-01  9.81760E-01 -3.82664E-02
    9082.330     87.219   5.000  9.41645E-01  9.82099E-01 -4.04540E-02
    9083.860     88.749   5.040  9.40785E-01  9.82467E-01 -4.16822E-02
    9085.403     90.291   5.080  9.40179E-01  9.82842E-01 -4.26630E-02
    9086.957     91.846   5.120  9.39265E-01  9.83221E-01 -4.39558E-02
    9088.524     93.412   5.160  9.37850E-01  9.83603E-01 -4.57522E-02
    9090.103     94.991   5.200  9.36183E-01  9.84009E-01 -4.78268E-02
    9091.694     96.582   5.240  9.34602E-01  9.84417E-01 -4.98145E-02
    9093.297     98.185   5.280  9.33390E-01  9.84801E-01 -5.14107E-02
    9094.912     99.801   5.320  9.32659E-01  9.85203E-01 -5.25444E-02
    9096.540    101.428   5.360  9.32299E-01  9.85580E-01 -5.32806E-02
    9098.180    103.068   5.400  9.32306E-01  9.85951E-01 -5.36456E-02
    9099.832    104.720   5.440  9.32794E-01  9.86317E-01 -5.35227E-02
    9101.496    106.384   5.480  9.33918E-01  9.86652E-01 -5.27340E-02
    9103.172    108.061   5.520  9.35820E-01  9.86977E-01 -5.11571E-02
    9104.861    109.749   5.560  9.38448E-01  9.87268E-01 -4.88194E-02
    9106.562    111.450   5.600  9.41701E-01  9.87525E-01 -4.58241E-02
    9108.275    113.163   5.640  9.45505E-01  9.87770E-01 -4.22653E-02
    9110.000    114.888   5.680  9.49877E-01  9.87982E-01 -3.81048E-02
    9111.737    116.626   5.720  9.54969E-01  9.88180E-01 -3.32111E-02
    9113.487    118.375   5.760  9.60825E-01  9.88318E-01 -2.74929E-02
    9115.248    120.137   5.800  9.67400E-01  9.88441E-01 -2.10413E-02
    9117.022    121.911   5.840  9.74463E-01  9.88525E-01 -1.40627E-02
    9118.808    123.697   5.880  9.81793E-01  9.88546E-01 -6.75291E-03
    9120.607    125.495   5.920  9.89320E-01  9.88552E-01  7.67723E-04
    9122.417    127.306   5.960  9.96883E-01  9.88516E-01  8.36656E-03
    9124.240    129.129   6.000  1.00441E+00  9.88421E-01  1.59934E-02
