# # comment:                                                     FEFF 9.9.1  
# # Source:
# # Structure
# # Reduced
# # space
# # abc:
# # angles:114.396298
# # sites:
# # POT  SCF 100  7.0000   0, screened core-hole, AFOLP (folp(0)= 1.150)
# # Abs   Z=29 Rmt= 1.189 Rnm= 1.296 K  shell
# # Pot 1 Z=29 Rmt= 1.232 Rnm= 1.328
# # Pot 2 Z=14 Rmt= 1.004 Rnm= 1.222
# # Pot 3 Z= 8 Rmt= 0.920 Rnm= 1.083
# # Gam_ch=1.729E+00 H-L exch Vi= 0.000E+00 Vr= 0.000E+00
# # Mu=-7.587E+00eV kf=2.318E+00 Vint=-1.614E+01eV Rs_int= 1.565
# FMS rfms= 9.0000
# # PATH  Rmax=-1.000,  Keep_limit= 0.00, Heap_limit 0.00  Pwcrit= 2.50%
#  S02=0.950  Temp=   0.00  Debye_temp=   0.00  Global_sig2= 0.00000
#  Energy zero shift, vr, vi    0.00000E+00   0.00000E+00
#  Curved wave amplitude ratio filter   4.000%
#     file         sig2 tot  cw amp ratio   deg  nlegs   reff  inp sig2
#     0/   0 paths used
#  xsedge+ 50, used to normalize mu           2.4628E-04
#  -----------------------------------------------------------------------
#  omega    e    k    mu    mu0     chi     @#
    8983.431    -11.397  -1.000  3.63127E-02  5.30975E-02 -1.67848E-02
    8983.730    -11.098  -0.960  3.82104E-02  5.69270E-02 -1.87167E-02
    8984.016    -10.811  -0.920  4.02517E-02  6.11797E-02 -2.09280E-02
    8984.291    -10.537  -0.880  4.24513E-02  6.59177E-02 -2.34664E-02
    8984.553    -10.275  -0.840  4.48254E-02  7.12132E-02 -2.63878E-02
    8984.803    -10.025  -0.800  4.73916E-02  7.71497E-02 -2.97581E-02
    8985.040     -9.787  -0.760  5.01695E-02  8.38233E-02 -3.36537E-02
    8985.266     -9.562  -0.720  5.31797E-02  9.13421E-02 -3.81624E-02
    8985.479     -9.348  -0.680  5.64433E-02  9.98254E-02 -4.33822E-02
    8985.681     -9.147  -0.640  5.99810E-02  1.09399E-01 -4.94181E-02
    8985.869     -8.958  -0.600  6.38110E-02  1.20187E-01 -5.63757E-02
    8986.046     -8.781  -0.560  6.79450E-02  1.32293E-01 -6.43482E-02
    8986.211     -8.617  -0.520  7.23840E-02  1.45781E-01 -7.33971E-02
    8986.363     -8.464  -0.480  7.71114E-02  1.60636E-01 -8.35245E-02
    8986.503     -8.324  -0.440  8.20858E-02  1.76727E-01 -9.46417E-02
    8986.631     -8.196  -0.400  8.72347E-02  1.93776E-01 -1.06542E-01
    8986.747     -8.080  -0.360  9.24535E-02  2.11344E-01 -1.18891E-01
    8986.851     -7.977  -0.320  9.76100E-02  2.28860E-01 -1.31250E-01
    8986.942     -7.885  -0.280  1.02557E-01  2.45692E-01 -1.43135E-01
    8987.022     -7.806  -0.240  1.07150E-01  2.61230E-01 -1.54080E-01
    8987.089     -7.739  -0.200  1.11257E-01  2.74964E-01 -1.63707E-01
    8987.144     -7.684  -0.160  1.14767E-01  2.86519E-01 -1.71751E-01
    8987.186     -7.641  -0.120  1.17594E-01  2.95654E-01 -1.78060E-01
    8987.217     -7.611  -0.080  1.19672E-01  3.02236E-01 -1.82564E-01
    8987.241     -7.587   0.000  1.21394E-01  3.07524E-01 -1.86130E-01
    8987.296     -7.532   0.120  1.25314E-01  3.19455E-01 -1.94141E-01
    8987.339     -7.489   0.160  1.28360E-01  3.28721E-01 -2.00361E-01
    8987.393     -7.434   0.200  1.32372E-01  3.40578E-01 -2.08206E-01
    8987.461     -7.367   0.240  1.37357E-01  3.54829E-01 -2.17472E-01
    8987.540     -7.288   0.280  1.43427E-01  3.71216E-01 -2.27789E-01
    8987.631     -7.196   0.320  1.50706E-01  3.89331E-01 -2.38625E-01
    8987.735     -7.093   0.360  1.59287E-01  4.08625E-01 -2.49338E-01
    8987.851     -6.977   0.400  1.69395E-01  4.28575E-01 -2.59180E-01
    8987.979     -6.849   0.440  1.81278E-01  4.48688E-01 -2.67410E-01
    8988.119     -6.709   0.480  1.95132E-01  4.68561E-01 -2.73429E-01
    8988.271     -6.556   0.520  2.11105E-01  4.87927E-01 -2.76823E-01
    8988.436     -6.392   0.560  2.29118E-01  5.06677E-01 -2.77559E-01
    8988.613     -6.215   0.600  2.48859E-01  5.24799E-01 -2.75940E-01
    8988.802     -6.026   0.640  2.69892E-01  5.42305E-01 -2.72413E-01
    8989.003     -5.825   0.680  2.91951E-01  5.59286E-01 -2.67335E-01
    8989.216     -5.611   0.720  3.15018E-01  5.75821E-01 -2.60803E-01
    8989.442     -5.386   0.760  3.38962E-01  5.92011E-01 -2.53049E-01
    8989.679     -5.148   0.800  3.62708E-01  6.07907E-01 -2.45199E-01
    8989.929     -4.898   0.840  3.84261E-01  6.23586E-01 -2.39325E-01
    8990.192     -4.636   0.880  4.01603E-01  6.39072E-01 -2.37470E-01
    8990.466     -4.362   0.920  4.14478E-01  6.54398E-01 -2.39920E-01
    8990.752     -4.075   0.960  4.25077E-01  6.69605E-01 -2.44528E-01
    8991.051     -3.777   1.000  4.35705E-01  6.84680E-01 -2.48975E-01
    8991.362     -3.466   1.040  4.45262E-01  6.99646E-01 -2.54383E-01
    8991.685     -3.143   1.080  4.50750E-01  7.14456E-01 -2.63706E-01
    8992.020     -2.807   1.120  4.52939E-01  7.29120E-01 -2.76181E-01
    8992.368     -2.460   1.160  4.56481E-01  7.43617E-01 -2.87137E-01
    8992.727     -2.100   1.200  4.64634E-01  7.57931E-01 -2.93297E-01
    8993.099     -1.728   1.240  4.77353E-01  7.72036E-01 -2.94682E-01
    8993.483     -1.344   1.280  4.94253E-01  7.85864E-01 -2.91612E-01
    8993.880     -0.948   1.320  5.15511E-01  7.99451E-01 -2.83941E-01
    8994.288     -0.540   1.360  5.39559E-01  8.12705E-01 -2.73147E-01
    8994.709     -0.119   1.400  5.62790E-01  8.25659E-01 -2.62869E-01
    8995.141      0.314   1.440  5.82635E-01  8.38241E-01 -2.55607E-01
    8995.586      0.759   1.480  6.01218E-01  8.50424E-01 -2.49207E-01
    8996.044      1.216   1.520  6.23439E-01  8.62220E-01 -2.38781E-01
    8996.513      1.685   1.560  6.52041E-01  8.73598E-01 -2.21558E-01
    8996.995      2.167   1.600  6.88066E-01  8.84513E-01 -1.96447E-01
    8997.488      2.661   1.640  7.34418E-01  8.94977E-01 -1.60559E-01
    8997.994      3.167   1.680  7.91652E-01  9.04968E-01 -1.13316E-01
    8998.513      3.685   1.720  8.56845E-01  9.14460E-01 -5.76150E-02
    8999.043      4.215   1.760  9.32465E-01  9.23470E-01  8.99493E-03
    8999.585      4.758   1.800  1.02046E+00  9.31977E-01  8.84840E-02
    9000.140      5.313   1.840  1.09869E+00  9.40004E-01  1.58686E-01
    9000.707      5.879   1.880  1.14005E+00  9.47508E-01  1.92537E-01
    9001.286      6.459   1.920  1.16073E+00  9.54534E-01  2.06196E-01
    9001.878      7.050   1.960  1.19209E+00  9.61064E-01  2.31027E-01
    9002.481      7.653   2.000  1.23514E+00  9.67103E-01  2.68040E-01
    9003.097      8.269   2.040  1.26780E+00  9.72677E-01  2.95121E-01
    9003.725      8.897   2.080  1.27308E+00  9.77792E-01  2.95290E-01
    9004.365      9.537   2.120  1.25597E+00  9.82456E-01  2.73514E-01
    9005.017     10.189   2.160  1.23378E+00  9.86696E-01  2.47080E-01
    9005.681     10.854   2.200  1.21937E+00  9.90521E-01  2.28848E-01
    9006.358     11.530   2.240  1.21728E+00  9.93938E-01  2.23343E-01
    9007.047     12.219   2.280  1.22365E+00  9.96957E-01  2.26689E-01
    9007.748     12.920   2.320  1.22816E+00  9.99628E-01  2.28533E-01
    9008.461     13.634   2.360  1.22296E+00  1.00196E+00  2.21002E-01
    9009.187     14.359   2.400  1.21122E+00  1.00397E+00  2.07254E-01
    9009.924     15.097   2.440  1.20365E+00  1.00566E+00  1.97993E-01
    9010.674     15.846   2.480  1.20692E+00  1.00705E+00  1.99866E-01
    9011.436     16.608   2.520  1.21841E+00  1.00819E+00  2.10217E-01
    9012.210     17.383   2.560  1.22904E+00  1.00909E+00  2.19955E-01
    9012.997     18.169   2.600  1.23032E+00  1.00974E+00  2.20576E-01
    9013.795     18.967   2.640  1.21945E+00  1.01020E+00  2.09244E-01
    9014.606     19.778   2.680  1.19480E+00  1.01045E+00  1.84351E-01
    9015.429     20.601   2.720  1.15343E+00  1.01052E+00  1.42913E-01
    9016.264     21.436   2.760  1.10656E+00  1.01045E+00  9.61094E-02
    9017.111     22.284   2.800  1.06249E+00  1.01023E+00  5.22662E-02
    9017.971     23.143   2.840  1.02209E+00  1.00988E+00  1.22105E-02
    9018.843     24.015   2.880  9.86897E-01  1.00941E+00 -2.25090E-02
    9019.727     24.899   2.920  9.57068E-01  1.00884E+00 -5.17748E-02
    9020.623     25.795   2.960  9.32456E-01  1.00817E+00 -7.57180E-02
    9021.531     26.703   3.000  9.12911E-01  1.00745E+00 -9.45382E-02
    9022.451     27.624   3.040  8.97732E-01  1.00667E+00 -1.08942E-01
    9023.384     28.556   3.080  8.86066E-01  1.00585E+00 -1.19786E-01
    9024.329     29.501   3.120  8.77428E-01  1.00497E+00 -1.27541E-01
    9025.286     30.458   3.160  8.71017E-01  1.00407E+00 -1.33056E-01
    9026.255     31.428   3.200  8.66344E-01  1.00317E+00 -1.36823E-01
    9027.237     32.409   3.240  8.63321E-01  1.00225E+00 -1.38934E-01
    9028.230     33.403   3.280  8.61703E-01  1.00132E+00 -1.39617E-01
    9029.236     34.409   3.320  8.61194E-01  1.00041E+00 -1.39212E-01
    9030.254     35.427   3.360  8.61601E-01  9.99499E-01 -1.37898E-01
    9031.285     36.457   3.400  8.63109E-01  9.98601E-01 -1.35492E-01
    9032.327     37.499   3.440  8.65628E-01  9.97755E-01 -1.32127E-01
    9033.382     38.554   3.480  8.69121E-01  9.96924E-01 -1.27803E-01
    9034.448     39.621   3.520  8.73476E-01  9.96130E-01 -1.22654E-01
    9035.527     40.700   3.560  8.78504E-01  9.95373E-01 -1.16869E-01
    9036.618     41.791   3.600  8.84177E-01  9.94656E-01 -1.10479E-01
    9037.722     42.894   3.640  8.90797E-01  9.93981E-01 -1.03184E-01
    9038.837     44.010   3.680  8.98825E-01  9.93349E-01 -9.45242E-02
    9039.965     45.138   3.720  9.08509E-01  9.92782E-01 -8.42729E-02
    9041.105     46.277   3.760  9.19925E-01  9.92262E-01 -7.23371E-02
    9042.257     47.430   3.800  9.32924E-01  9.91788E-01 -5.88638E-02
    9043.422     48.594   3.840  9.47118E-01  9.91380E-01 -4.42625E-02
    9044.598     49.770   3.880  9.62021E-01  9.91020E-01 -2.89994E-02
    9045.787     50.959   3.920  9.77217E-01  9.90705E-01 -1.34887E-02
    9046.988     52.160   3.960  9.92262E-01  9.90458E-01  1.80351E-03
    9048.201     53.373   4.000  1.00662E+00  9.90261E-01  1.63591E-02
    9049.426     54.598   4.040  1.01981E+00  9.90130E-01  2.96837E-02
    9050.664     55.836   4.080  1.03142E+00  9.90046E-01  4.13756E-02
    9051.913     57.086   4.120  1.04113E+00  9.90009E-01  5.11205E-02
    9053.175     58.347   4.160  1.04892E+00  9.90037E-01  5.88814E-02
    9054.449     59.622   4.200  1.05488E+00  9.90110E-01  6.47727E-02
    9055.735     60.908   4.240  1.05921E+00  9.90224E-01  6.89821E-02
    9057.034     62.206   4.280  1.06211E+00  9.90380E-01  7.17275E-02
    9058.345     63.517   4.320  1.06375E+00  9.90576E-01  7.31787E-02
    9059.667     64.840   4.360  1.06421E+00  9.90812E-01  7.34031E-02
    9061.002     66.175   4.400  1.06346E+00  9.91087E-01  7.23694E-02
    9062.350     67.522   4.440  1.06161E+00  9.91400E-01  7.02077E-02
    9063.709     68.881   4.480  1.05889E+00  9.91751E-01  6.71354E-02
    9065.081     70.253   4.520  1.05559E+00  9.92136E-01  6.34502E-02
    9066.464     71.637   4.560  1.05199E+00  9.92534E-01  5.94611E-02
    9067.860     73.033   4.600  1.04834E+00  9.92964E-01  5.53789E-02
    9069.269     74.441   4.640  1.04471E+00  9.93425E-01  5.12892E-02
    9070.689     75.861   4.680  1.04110E+00  9.93893E-01  4.72020E-02
    9072.121     77.294   4.720  1.03741E+00  9.94365E-01  4.30421E-02
    9073.566     78.739   4.760  1.03356E+00  9.94840E-01  3.87182E-02
    9075.023     80.195   4.800  1.02960E+00  9.95341E-01  3.42610E-02
    9076.492     81.665   4.840  1.02570E+00  9.95842E-01  2.98612E-02
    9077.974     83.146   4.880  1.02213E+00  9.96321E-01  2.58086E-02
    9079.467     84.639   4.920  1.01918E+00  9.96821E-01  2.23599E-02
    9080.973     86.145   4.960  1.01688E+00  9.97318E-01  1.95665E-02
    9082.491     87.663   5.000  1.01500E+00  9.97788E-01  1.72138E-02
    9084.021     89.193   5.040  1.01312E+00  9.98251E-01  1.48699E-02
    9085.563     90.735   5.080  1.01078E+00  9.98706E-01  1.20700E-02
    9087.118     92.290   5.120  1.00769E+00  9.99133E-01  8.56051E-03
    9088.684     93.857   5.160  1.00397E+00  9.99549E-01  4.41788E-03
    9090.263     95.435   5.200  9.99931E-01  9.99932E-01 -1.33529E-06
    9091.854     97.026   5.240  9.96038E-01  1.00030E+00 -4.26597E-03
    9093.457     98.630   5.280  9.92505E-01  1.00064E+00 -8.13531E-03
    9095.073    100.245   5.320  9.89264E-01  1.00094E+00 -1.16775E-02
    9096.700    101.873   5.360  9.86010E-01  1.00123E+00 -1.52161E-02
    9098.340    103.513   5.400  9.82282E-01  1.00145E+00 -1.91687E-02
    9099.992    105.165   5.440  9.77814E-01  1.00166E+00 -2.38455E-02
    9101.656    106.829   5.480  9.72549E-01  1.00183E+00 -2.92814E-02
    9103.333    108.505   5.520  9.66820E-01  1.00196E+00 -3.51409E-02
    9105.021    110.194   5.560  9.61244E-01  1.00205E+00 -4.08082E-02
    9106.722    111.895   5.600  9.56539E-01  1.00210E+00 -4.55637E-02
    9108.435    113.607   5.640  9.53316E-01  1.00211E+00 -4.87962E-02
    9110.160    115.333   5.680  9.51953E-01  1.00208E+00 -5.01278E-02
    9111.898    117.070   5.720  9.52455E-01  1.00201E+00 -4.95550E-02
    9113.647    118.820   5.760  9.54467E-01  1.00190E+00 -4.74324E-02
    9115.409    120.581   5.800  9.57367E-01  1.00175E+00 -4.43844E-02
    9117.183    122.355   5.840  9.60535E-01  1.00159E+00 -4.10537E-02
    9118.969    124.141   5.880  9.63456E-01  1.00136E+00 -3.79077E-02
    9120.767    125.940   5.920  9.65941E-01  1.00110E+00 -3.51585E-02
    9122.578    127.750   5.960  9.68033E-01  1.00080E+00 -3.27634E-02
    9124.401    129.573   6.000  9.70059E-01  1.00043E+00 -3.03682E-02
