# # comment:                                                     FEFF 9.9.1  
# # Source:
# # Structure
# # Reduced
# # space
# # abc:
# # angles:
# # sites:
# # POT  SCF 100  7.0000   0, screened core-hole, AFOLP (folp(0)= 1.150)
# # Abs   Z=29 Rmt= 1.305 Rnm= 1.368 K  shell
# # Pot 1 Z=12 Rmt= 1.382 Rnm= 1.458
# # Pot 2 Z=29 Rmt= 1.234 Rnm= 1.317
# # Pot 3 Z= 8 Rmt= 1.019 Rnm= 1.102
# # Gam_ch=1.729E+00 H-L exch Vi= 0.000E+00 Vr= 0.000E+00
# # Mu=-8.036E+00eV kf=2.142E+00 Vint=-1.660E+01eV Rs_int= 1.693
# FMS rfms= 9.0000
# # PATH  Rmax=-1.000,  Keep_limit= 0.00, Heap_limit 0.00  Pwcrit= 2.50%
#  S02=0.950  Temp=   0.00  Debye_temp=   0.00  Global_sig2= 0.00000
#  Energy zero shift, vr, vi    0.00000E+00   0.00000E+00
#  Curved wave amplitude ratio filter   4.000%
#     file         sig2 tot  cw amp ratio   deg  nlegs   reff  inp sig2
#     0/   0 paths used
#  xsedge+ 50, used to normalize mu           2.4645E-04
#  -----------------------------------------------------------------------
#  omega    e    k    mu    mu0     chi     @#
    8983.899    -11.846  -1.000  3.37173E-02  4.99020E-02 -1.61847E-02
    8984.198    -11.548  -0.960  3.51611E-02  5.34230E-02 -1.82619E-02
    8984.484    -11.261  -0.920  3.66767E-02  5.73280E-02 -2.06513E-02
    8984.759    -10.987  -0.880  3.82683E-02  6.16727E-02 -2.34044E-02
    8985.021    -10.725  -0.840  3.99408E-02  6.65224E-02 -2.65816E-02
    8985.271    -10.475  -0.800  4.16992E-02  7.19522E-02 -3.02530E-02
    8985.508    -10.237  -0.760  4.35494E-02  7.80487E-02 -3.44994E-02
    8985.734    -10.011  -0.720  4.54972E-02  8.49094E-02 -3.94122E-02
    8985.947     -9.798  -0.680  4.75492E-02  9.26415E-02 -4.50923E-02
    8986.149     -9.597  -0.640  4.97112E-02  1.01358E-01 -5.16472E-02
    8986.338     -9.408  -0.600  5.19879E-02  1.11171E-01 -5.91829E-02
    8986.514     -9.231  -0.560  5.43810E-02  1.22173E-01 -6.77923E-02
    8986.679     -9.067  -0.520  5.68869E-02  1.34422E-01 -7.75348E-02
    8986.831     -8.914  -0.480  5.94928E-02  1.47903E-01 -8.84097E-02
    8986.972     -8.774  -0.440  6.21732E-02  1.62497E-01 -1.00324E-01
    8987.100     -8.646  -0.400  6.48867E-02  1.77954E-01 -1.13067E-01
    8987.215     -8.530  -0.360  6.75764E-02  1.93876E-01 -1.26300E-01
    8987.319     -8.426  -0.320  7.01738E-02  2.09749E-01 -1.39575E-01
    8987.410     -8.335  -0.280  7.26079E-02  2.25000E-01 -1.52392E-01
    8987.490     -8.256  -0.240  7.48144E-02  2.39079E-01 -1.64265E-01
    8987.557     -8.189  -0.200  7.67427E-02  2.51525E-01 -1.74782E-01
    8987.612     -8.134  -0.160  7.83578E-02  2.61998E-01 -1.83640E-01
    8987.654     -8.091  -0.120  7.96371E-02  2.70280E-01 -1.90643E-01
    8987.685     -8.061  -0.080  8.05668E-02  2.76249E-01 -1.95682E-01
    8987.709     -8.036   0.000  8.13342E-02  2.81047E-01 -1.99713E-01
    8987.764     -7.981   0.120  8.30674E-02  2.91855E-01 -2.08788E-01
    8987.807     -7.939   0.160  8.43940E-02  3.00281E-01 -2.15887E-01
    8987.862     -7.884   0.200  8.60651E-02  3.11023E-01 -2.24958E-01
    8987.929     -7.817   0.240  8.80776E-02  3.23961E-01 -2.35883E-01
    8988.008     -7.738   0.280  9.04590E-02  3.38849E-01 -2.48390E-01
    8988.099     -7.646   0.320  9.31833E-02  3.55319E-01 -2.62136E-01
    8988.203     -7.543   0.360  9.62663E-02  3.72898E-01 -2.76632E-01
    8988.319     -7.427   0.400  9.97973E-02  3.91100E-01 -2.91302E-01
    8988.447     -7.299   0.440  1.03850E-01  4.09481E-01 -3.05631E-01
    8988.587     -7.158   0.480  1.08569E-01  4.27680E-01 -3.19110E-01
    8988.739     -7.006   0.520  1.14209E-01  4.45498E-01 -3.31289E-01
    8988.904     -6.841   0.560  1.20962E-01  4.62797E-01 -3.41836E-01
    8989.081     -6.665   0.600  1.29209E-01  4.79590E-01 -3.50381E-01
    8989.270     -6.476   0.640  1.39296E-01  4.95906E-01 -3.56610E-01
    8989.471     -6.275   0.680  1.51641E-01  5.11807E-01 -3.60166E-01
    8989.684     -6.061   0.720  1.66672E-01  5.27387E-01 -3.60715E-01
    8989.910     -5.836   0.760  1.84718E-01  5.42696E-01 -3.57977E-01
    8990.148     -5.598   0.800  2.05830E-01  5.57839E-01 -3.52008E-01
    8990.397     -5.348   0.840  2.29394E-01  5.72867E-01 -3.43473E-01
    8990.660     -5.086   0.880  2.53808E-01  5.87822E-01 -3.34014E-01
    8990.934     -4.812   0.920  2.77005E-01  6.02711E-01 -3.25706E-01
    8991.220     -4.525   0.960  2.97985E-01  6.17592E-01 -3.19607E-01
    8991.519     -4.226   1.000  3.17102E-01  6.32453E-01 -3.15351E-01
    8991.830     -3.915   1.040  3.35197E-01  6.47294E-01 -3.12097E-01
    8992.153     -3.592   1.080  3.53398E-01  6.62127E-01 -3.08729E-01
    8992.488     -3.257   1.120  3.74346E-01  6.76920E-01 -3.02574E-01
    8992.836     -2.910   1.160  4.02520E-01  6.91657E-01 -2.89138E-01
    8993.196     -2.550   1.200  4.41438E-01  7.06316E-01 -2.64878E-01
    8993.567     -2.178   1.240  4.89139E-01  7.20871E-01 -2.31733E-01
    8993.951     -1.794   1.280  5.38680E-01  7.35297E-01 -1.96617E-01
    8994.348     -1.398   1.320  5.91825E-01  7.49583E-01 -1.57759E-01
    8994.756     -0.989   1.360  6.65043E-01  7.63681E-01 -9.86384E-02
    8995.177     -0.569   1.400  7.70574E-01  7.77538E-01 -6.96370E-03
    8995.610     -0.136   1.440  9.01401E-01  7.91163E-01  1.10238E-01
    8996.055      0.309   1.480  1.03224E+00  8.04504E-01  2.27731E-01
    8996.512      0.766   1.520  1.13410E+00  8.17548E-01  3.16550E-01
    8996.981      1.236   1.560  1.18680E+00  8.30245E-01  3.56553E-01
    8997.463      1.717   1.600  1.19549E+00  8.42582E-01  3.52908E-01
    8997.956      2.211   1.640  1.20128E+00  8.54550E-01  3.46731E-01
    8998.462      2.717   1.680  1.24916E+00  8.66078E-01  3.83085E-01
    8998.981      3.235   1.720  1.35143E+00  8.77198E-01  4.74232E-01
    8999.511      3.766   1.760  1.47721E+00  8.87883E-01  5.89325E-01
    9000.053      4.308   1.800  1.56613E+00  8.98087E-01  6.68047E-01
    9000.608      4.863   1.840  1.57853E+00  9.07844E-01  6.70686E-01
    9001.175      5.430   1.880  1.53060E+00  9.17110E-01  6.13493E-01
    9001.754      6.009   1.920  1.45857E+00  9.25882E-01  5.32687E-01
    9002.346      6.600   1.960  1.36357E+00  9.34159E-01  4.29414E-01
    9002.949      7.204   2.000  1.23966E+00  9.41962E-01  2.97695E-01
    9003.565      7.819   2.040  1.10868E+00  9.49271E-01  1.59407E-01
    9004.193      8.447   2.080  9.93350E-01  9.56087E-01  3.72624E-02
    9004.833      9.087   2.120  9.15614E-01  9.62417E-01 -4.68023E-02
    9005.485      9.740   2.160  8.80613E-01  9.68282E-01 -8.76689E-02
    9006.149     10.404   2.200  8.78414E-01  9.73689E-01 -9.52754E-02
    9006.826     11.081   2.240  8.96678E-01  9.78644E-01 -8.19657E-02
    9007.515     11.770   2.280  9.25533E-01  9.83152E-01 -5.76197E-02
    9008.216     12.471   2.320  9.55659E-01  9.87242E-01 -3.15835E-02
    9008.929     13.184   2.360  9.76285E-01  9.90921E-01 -1.46360E-02
    9009.655     13.909   2.400  9.76324E-01  9.94198E-01 -1.78732E-02
    9010.392     14.647   2.440  9.55468E-01  9.97101E-01 -4.16328E-02
    9011.142     15.397   2.480  9.27816E-01  9.99662E-01 -7.18451E-02
    9011.904     16.159   2.520  9.04593E-01  1.00187E+00 -9.72728E-02
    9012.678     16.933   2.560  8.89904E-01  1.00375E+00 -1.13841E-01
    9013.465     17.719   2.600  8.80130E-01  1.00533E+00 -1.25200E-01
    9014.263     18.518   2.640  8.72387E-01  1.00663E+00 -1.34242E-01
    9015.074     19.329   2.680  8.66597E-01  1.00767E+00 -1.41076E-01
    9015.897     20.151   2.720  8.63864E-01  1.00847E+00 -1.44606E-01
    9016.732     20.987   2.760  8.64997E-01  1.00903E+00 -1.44035E-01
    9017.579     21.834   2.800  8.70148E-01  1.00941E+00 -1.39259E-01
    9018.439     22.694   2.840  8.78764E-01  1.00956E+00 -1.30798E-01
    9019.311     23.565   2.880  8.89255E-01  1.00957E+00 -1.20313E-01
    9020.195     24.449   2.920  9.00397E-01  1.00939E+00 -1.08995E-01
    9021.091     25.345   2.960  9.11812E-01  1.00911E+00 -9.72931E-02
    9021.999     26.254   3.000  9.23170E-01  1.00867E+00 -8.55032E-02
    9022.919     27.174   3.040  9.34375E-01  1.00814E+00 -7.37696E-02
    9023.852     28.107   3.080  9.44919E-01  1.00751E+00 -6.25859E-02
    9024.797     29.052   3.120  9.54170E-01  1.00678E+00 -5.26125E-02
    9025.754     30.009   3.160  9.61322E-01  1.00601E+00 -4.46843E-02
    9026.723     30.978   3.200  9.66054E-01  1.00518E+00 -3.91276E-02
    9027.705     31.959   3.240  9.68505E-01  1.00429E+00 -3.57874E-02
    9028.698     32.953   3.280  9.69498E-01  1.00339E+00 -3.38871E-02
    9029.704     33.959   3.320  9.70234E-01  1.00245E+00 -3.22131E-02
    9030.722     34.977   3.360  9.72198E-01  1.00150E+00 -2.93027E-02
    9031.753     36.007   3.400  9.76720E-01  1.00055E+00 -2.38313E-02
    9032.795     37.050   3.440  9.84619E-01  9.99604E-01 -1.49852E-02
    9033.850     38.104   3.480  9.96360E-01  9.98683E-01 -2.32387E-03
    9034.916     39.171   3.520  1.01177E+00  9.97770E-01  1.39965E-02
    9035.995     40.250   3.560  1.03006E+00  9.96868E-01  3.31875E-02
    9037.087     41.341   3.600  1.04967E+00  9.96022E-01  5.36451E-02
    9038.190     42.444   3.640  1.06814E+00  9.95194E-01  7.29429E-02
    9039.305     43.560   3.680  1.08270E+00  9.94428E-01  8.82692E-02
    9040.433     44.688   3.720  1.09134E+00  9.93703E-01  9.76367E-02
    9041.573     45.828   3.760  1.09349E+00  9.93001E-01  1.00494E-01
    9042.725     46.980   3.800  1.09013E+00  9.92386E-01  9.77397E-02
    9043.890     48.144   3.840  1.08321E+00  9.91798E-01  9.14096E-02
    9045.066     49.321   3.880  1.07545E+00  9.91300E-01  8.41538E-02
    9046.255     50.509   3.920  1.06910E+00  9.90829E-01  7.82750E-02
    9047.456     51.710   3.960  1.06527E+00  9.90428E-01  7.48466E-02
    9048.669     52.923   4.000  1.06330E+00  9.90099E-01  7.32041E-02
    9049.894     54.149   4.040  1.06110E+00  9.89819E-01  7.12845E-02
    9051.132     55.386   4.080  1.05648E+00  9.89609E-01  6.68687E-02
    9052.381     56.636   4.120  1.04831E+00  9.89450E-01  5.88641E-02
    9053.643     57.898   4.160  1.03696E+00  9.89362E-01  4.75976E-02
    9054.917     59.172   4.200  1.02356E+00  9.89323E-01  3.42363E-02
    9056.203     60.458   4.240  1.00946E+00  9.89353E-01  2.01017E-02
    9057.502     61.757   4.280  9.95547E-01  9.89432E-01  6.11541E-03
    9058.813     63.067   4.320  9.82152E-01  9.89578E-01 -7.42591E-03
    9060.135     64.390   4.360  9.69146E-01  9.89770E-01 -2.06240E-02
    9061.470     65.725   4.400  9.56460E-01  9.90004E-01 -3.35444E-02
    9062.818     67.072   4.440  9.44480E-01  9.90280E-01 -4.58000E-02
    9064.177     68.432   4.480  9.34190E-01  9.90596E-01 -5.64064E-02
    9065.549     69.803   4.520  9.26818E-01  9.90955E-01 -6.41373E-02
    9066.932     71.187   4.560  9.23319E-01  9.91373E-01 -6.80538E-02
    9068.328     72.583   4.600  9.24012E-01  9.91805E-01 -6.77934E-02
    9069.737     73.991   4.640  9.28490E-01  9.92251E-01 -6.37611E-02
    9071.157     75.412   4.680  9.35679E-01  9.92753E-01 -5.70733E-02
    9072.589     76.844   4.720  9.44021E-01  9.93265E-01 -4.92443E-02
    9074.034     78.289   4.760  9.52093E-01  9.93808E-01 -4.17152E-02
    9075.491     79.746   4.800  9.58957E-01  9.94356E-01 -3.53987E-02
    9076.960     81.215   4.840  9.64484E-01  9.94907E-01 -3.04228E-02
    9078.442     82.696   4.880  9.69249E-01  9.95461E-01 -2.62116E-02
    9079.935     84.190   4.920  9.74138E-01  9.96037E-01 -2.18989E-02
    9081.441     85.695   4.960  9.79746E-01  9.96590E-01 -1.68431E-02
    9082.959     87.213   5.000  9.86218E-01  9.97138E-01 -1.09203E-02
    9084.489     88.743   5.040  9.93321E-01  9.97683E-01 -4.36167E-03
    9086.031     90.286   5.080  1.00086E+00  9.98221E-01  2.64142E-03
    9087.586     91.840   5.120  1.00875E+00  9.98729E-01  1.00201E-02
    9089.152     93.407   5.160  1.01687E+00  9.99227E-01  1.76427E-02
    9090.731     94.986   5.200  1.02472E+00  9.99692E-01  2.50265E-02
    9092.322     96.577   5.240  1.03155E+00  1.00014E+00  3.14088E-02
    9093.925     98.180   5.280  1.03669E+00  1.00054E+00  3.61574E-02
    9095.541     99.795   5.320  1.03983E+00  1.00091E+00  3.89134E-02
    9097.168    101.423   5.360  1.04042E+00  1.00128E+00  3.91462E-02
    9098.808    103.063   5.400  1.03767E+00  1.00158E+00  3.60959E-02
    9100.460    104.715   5.440  1.03140E+00  1.00183E+00  2.95639E-02
    9102.124    106.379   5.480  1.02258E+00  1.00205E+00  2.05332E-02
    9103.801    108.055   5.520  1.01289E+00  1.00222E+00  1.06649E-02
    9105.489    109.744   5.560  1.00368E+00  1.00236E+00  1.32586E-03
    9107.190    111.445   5.600  9.95664E-01  1.00244E+00 -6.77721E-03
    9108.903    113.158   5.640  9.89114E-01  1.00246E+00 -1.33469E-02
    9110.628    114.883   5.680  9.84125E-01  1.00244E+00 -1.83110E-02
    9112.366    116.620   5.720  9.80563E-01  1.00239E+00 -2.18270E-02
    9114.115    118.370   5.760  9.77974E-01  1.00226E+00 -2.42832E-02
    9115.877    120.132   5.800  9.75974E-01  1.00210E+00 -2.61295E-02
    9117.651    121.906   5.840  9.74260E-01  1.00191E+00 -2.76486E-02
    9119.437    123.692   5.880  9.72889E-01  1.00165E+00 -2.87591E-02
    9121.235    125.490   5.920  9.72376E-01  1.00135E+00 -2.89709E-02
    9123.046    127.300   5.960  9.73366E-01  1.00100E+00 -2.76383E-02
    9124.869    129.123   6.000  9.76548E-01  1.00059E+00 -2.40452E-02
