# # comment:                                                     FEFF 9.9.1  
# # Source:
# # Structure
# # Reduced
# # space
# # abc:
# # angles:116.936513
# # sites:
# # POT  SCF 100  7.0000   0, screened core-hole, AFOLP (folp(0)= 1.150)
# # Abs   Z=29 Rmt= 1.141 Rnm= 1.249 K  shell
# # Pot 1 Z= 3 Rmt= 1.303 Rnm= 1.351
# # Pot 2 Z=26 Rmt= 1.300 Rnm= 1.402
# # Pot 3 Z=29 Rmt= 1.148 Rnm= 1.259
# # Pot 4 Z= 8 Rmt= 1.038 Rnm= 1.104
# # Gam_ch=1.729E+00 H-L exch Vi= 0.000E+00 Vr= 0.000E+00
# # Mu=-9.128E+00eV kf=2.131E+00 Vint=-1.642E+01eV Rs_int= 1.702
# FMS rfms= 9.0000
# # PATH  Rmax=-1.000,  Keep_limit= 0.00, Heap_limit 0.00  Pwcrit= 2.50%
#  S02=0.950  Temp=   0.00  Debye_temp=   0.00  Global_sig2= 0.00000
#  Energy zero shift, vr, vi    0.00000E+00   0.00000E+00
#  Curved wave amplitude ratio filter   4.000%
#     file         sig2 tot  cw amp ratio   deg  nlegs   reff  inp sig2
#     0/   0 paths used
#  xsedge+ 50, used to normalize mu           2.4290E-04
#  -----------------------------------------------------------------------
#  omega    e    k    mu    mu0     chi     @#
    8984.623    -12.938  -1.000  3.18481E-02  5.55619E-02 -2.37137E-02
    8984.922    -12.639  -0.960  3.31893E-02  5.95586E-02 -2.63693E-02
    8985.208    -12.352  -0.920  3.46053E-02  6.39922E-02 -2.93869E-02
    8985.483    -12.078  -0.880  3.61030E-02  6.89258E-02 -3.28228E-02
    8985.745    -11.816  -0.840  3.76903E-02  7.44329E-02 -3.67426E-02
    8985.995    -11.566  -0.800  3.93767E-02  8.05985E-02 -4.12218E-02
    8986.232    -11.328  -0.760  4.11727E-02  8.75199E-02 -4.63472E-02
    8986.458    -11.103  -0.720  4.30904E-02  9.53069E-02 -5.22164E-02
    8986.671    -10.889  -0.680  4.51433E-02  1.04080E-01 -5.89367E-02
    8986.872    -10.688  -0.640  4.73453E-02  1.13967E-01 -6.66212E-02
    8987.061    -10.499  -0.600  4.97096E-02  1.25091E-01 -7.53811E-02
    8987.238    -10.323  -0.560  5.22463E-02  1.37558E-01 -8.53119E-02
    8987.403    -10.158  -0.520  5.49586E-02  1.51431E-01 -9.64726E-02
    8987.555    -10.006  -0.480  5.78377E-02  1.66694E-01 -1.08856E-01
    8987.695     -9.865  -0.440  6.08564E-02  1.83213E-01 -1.22356E-01
    8987.823     -9.737  -0.400  6.39653E-02  2.00703E-01 -1.36738E-01
    8987.939     -9.621  -0.360  6.70912E-02  2.18720E-01 -1.51629E-01
    8988.043     -9.518  -0.320  7.01435E-02  2.36683E-01 -1.66540E-01
    8988.134     -9.426  -0.280  7.30256E-02  2.53949E-01 -1.80923E-01
    8988.213     -9.347  -0.240  7.56498E-02  2.69895E-01 -1.94245E-01
    8988.281     -9.280  -0.200  7.79469E-02  2.83999E-01 -2.06052E-01
    8988.335     -9.225  -0.160  7.98705E-02  2.95875E-01 -2.16005E-01
    8988.378     -9.183  -0.120  8.13930E-02  3.05272E-01 -2.23879E-01
    8988.409     -9.152  -0.080  8.24993E-02  3.12048E-01 -2.29549E-01
    8988.433     -9.128   0.000  8.34142E-02  3.17498E-01 -2.34084E-01
    8988.488     -9.073   0.120  8.54286E-02  3.29782E-01 -2.44353E-01
    8988.530     -9.030   0.160  8.69726E-02  3.39364E-01 -2.52392E-01
    8988.585     -8.975   0.200  8.88863E-02  3.51601E-01 -2.62715E-01
    8988.652     -8.908   0.240  9.11476E-02  3.66347E-01 -2.75200E-01
    8988.732     -8.829   0.280  9.37332E-02  3.83356E-01 -2.89623E-01
    8988.823     -8.738   0.320  9.66053E-02  4.02213E-01 -3.05607E-01
    8988.927     -8.634   0.360  9.96698E-02  4.22420E-01 -3.22750E-01
    8989.043     -8.518   0.400  1.02864E-01  4.43427E-01 -3.40563E-01
    8989.171     -8.390   0.440  1.06048E-01  4.64748E-01 -3.58699E-01
    8989.311     -8.250   0.480  1.09101E-01  4.85984E-01 -3.76883E-01
    8989.463     -8.097   0.520  1.11917E-01  5.06873E-01 -3.94956E-01
    8989.628     -7.933   0.560  1.14603E-01  5.27324E-01 -4.12720E-01
    8989.805     -7.756   0.600  1.17445E-01  5.47259E-01 -4.29814E-01
    8989.994     -7.567   0.640  1.21044E-01  5.66749E-01 -4.45704E-01
    8990.195     -7.366   0.680  1.25951E-01  5.85834E-01 -4.59883E-01
    8990.408     -7.153   0.720  1.32773E-01  6.04587E-01 -4.71814E-01
    8990.634     -6.927   0.760  1.42023E-01  6.23059E-01 -4.81035E-01
    8990.871     -6.689   0.800  1.54346E-01  6.41349E-01 -4.87003E-01
    8991.121     -6.439   0.840  1.70274E-01  6.59445E-01 -4.89171E-01
    8991.383     -6.177   0.880  1.89960E-01  6.77420E-01 -4.87461E-01
    8991.658     -5.903   0.920  2.11956E-01  6.95253E-01 -4.83297E-01
    8991.944     -5.616   0.960  2.33963E-01  7.12952E-01 -4.78990E-01
    8992.243     -5.318   1.000  2.56374E-01  7.30474E-01 -4.74100E-01
    8992.554     -5.007   1.040  2.84779E-01  7.47850E-01 -4.63071E-01
    8992.877     -4.684   1.080  3.25971E-01  7.65019E-01 -4.39049E-01
    8993.212     -4.348   1.120  3.82676E-01  7.81939E-01 -3.99263E-01
    8993.560     -4.001   1.160  4.48129E-01  7.98559E-01 -3.50430E-01
    8993.919     -3.641   1.200  5.05646E-01  8.14870E-01 -3.09224E-01
    8994.291     -3.269   1.240  5.43788E-01  8.30817E-01 -2.87029E-01
    8994.675     -2.885   1.280  5.70828E-01  8.46345E-01 -2.75517E-01
    8995.071     -2.489   1.320  6.02355E-01  8.61419E-01 -2.59064E-01
    8995.480     -2.081   1.360  6.44423E-01  8.76002E-01 -2.31579E-01
    8995.901     -1.660   1.400  6.89548E-01  8.90040E-01 -2.00492E-01
    8996.333     -1.227   1.440  7.13713E-01  9.03518E-01 -1.89805E-01
    8996.778     -0.782   1.480  7.00339E-01  9.16385E-01 -2.16045E-01
    8997.236     -0.325   1.520  6.74575E-01  9.28630E-01 -2.54055E-01
    8997.705      0.144   1.560  6.73978E-01  9.40244E-01 -2.66267E-01
    8998.187      0.626   1.600  7.10755E-01  9.51180E-01 -2.40425E-01
    8998.680      1.120   1.640  7.76506E-01  9.61434E-01 -1.84927E-01
    8999.186      1.626   1.680  8.49818E-01  9.71025E-01 -1.21207E-01
    8999.704      2.144   1.720  9.09649E-01  9.79911E-01 -7.02620E-02
    9000.235      2.674   1.760  9.58846E-01  9.88116E-01 -2.92695E-02
    9000.777      3.217   1.800  1.00357E+00  9.95643E-01  7.92771E-03
    9001.332      3.771   1.840  1.05009E+00  1.00252E+00  4.75666E-02
    9001.899      4.338   1.880  1.11590E+00  1.00873E+00  1.07170E-01
    9002.478      4.917   1.920  1.22243E+00  1.01431E+00  2.08123E-01
    9003.069      5.509   1.960  1.37580E+00  1.01927E+00  3.56530E-01
    9003.673      6.112   2.000  1.54174E+00  1.02363E+00  5.18110E-01
    9004.289      6.728   2.040  1.66079E+00  1.02742E+00  6.33371E-01
    9004.916      7.356   2.080  1.69784E+00  1.03068E+00  6.67162E-01
    9005.557      7.996   2.120  1.65250E+00  1.03341E+00  6.19092E-01
    9006.209      8.648   2.160  1.54665E+00  1.03565E+00  5.11002E-01
    9006.873      9.313   2.200  1.41929E+00  1.03744E+00  3.81850E-01
    9007.550      9.989   2.240  1.29532E+00  1.03879E+00  2.56525E-01
    9008.239     10.678   2.280  1.18196E+00  1.03973E+00  1.42230E-01
    9008.940     11.379   2.320  1.08903E+00  1.04032E+00  4.87025E-02
    9009.653     12.092   2.360  1.02303E+00  1.04057E+00 -1.75420E-02
    9010.378     12.818   2.400  9.81778E-01  1.04050E+00 -5.87232E-02
    9011.116     13.555   2.440  9.63930E-01  1.04014E+00 -7.62081E-02
    9011.866     14.305   2.480  9.73323E-01  1.03952E+00 -6.61983E-02
    9012.628     15.067   2.520  1.01088E+00  1.03868E+00 -2.78073E-02
    9013.402     15.841   2.560  1.06453E+00  1.03764E+00  2.68874E-02
    9014.188     16.628   2.600  1.10767E+00  1.03640E+00  7.12702E-02
    9014.987     17.426   2.640  1.14174E+00  1.03501E+00  1.06726E-01
    9015.798     18.237   2.680  1.16636E+00  1.03347E+00  1.32887E-01
    9016.621     19.060   2.720  1.18080E+00  1.03184E+00  1.48962E-01
    9017.456     19.895   2.760  1.18547E+00  1.03009E+00  1.55386E-01
    9018.303     20.743   2.800  1.18062E+00  1.02828E+00  1.52342E-01
    9019.163     21.602   2.840  1.16692E+00  1.02639E+00  1.40526E-01
    9020.034     22.474   2.880  1.14557E+00  1.02447E+00  1.21100E-01
    9020.918     23.358   2.920  1.11805E+00  1.02253E+00  9.55258E-02
    9021.815     24.254   2.960  1.08603E+00  1.02056E+00  6.54680E-02
    9022.723     25.162   3.000  1.05086E+00  1.01861E+00  3.22547E-02
    9023.643     26.083   3.040  1.01401E+00  1.01667E+00 -2.65942E-03
    9024.576     27.015   3.080  9.78393E-01  1.01473E+00 -3.63390E-02
    9025.521     27.960   3.120  9.46969E-01  1.01283E+00 -6.58644E-02
    9026.478     28.917   3.160  9.21365E-01  1.01100E+00 -8.96326E-02
    9027.447     29.887   3.200  9.02117E-01  1.00919E+00 -1.07071E-01
    9028.429     30.868   3.240  8.89056E-01  1.00747E+00 -1.18412E-01
    9029.422     31.862   3.280  8.81272E-01  1.00580E+00 -1.24530E-01
    9030.428     32.867   3.320  8.77401E-01  1.00419E+00 -1.26791E-01
    9031.446     33.886   3.360  8.75844E-01  1.00268E+00 -1.26837E-01
    9032.476     34.916   3.400  8.74707E-01  1.00125E+00 -1.26548E-01
    9033.519     35.958   3.440  8.72839E-01  9.99912E-01 -1.27073E-01
    9034.573     37.013   3.480  8.70301E-01  9.98654E-01 -1.28353E-01
    9035.640     38.080   3.520  8.68255E-01  9.97484E-01 -1.29229E-01
    9036.719     39.159   3.560  8.68092E-01  9.96424E-01 -1.28332E-01
    9037.810     40.250   3.600  8.70787E-01  9.95477E-01 -1.24690E-01
    9038.914     41.353   3.640  8.76358E-01  9.94620E-01 -1.18262E-01
    9040.029     42.469   3.680  8.83984E-01  9.93854E-01 -1.09869E-01
    9041.157     43.596   3.720  8.92611E-01  9.93200E-01 -1.00588E-01
    9042.297     44.736   3.760  9.01488E-01  9.92658E-01 -9.11709E-02
    9043.449     45.888   3.800  9.10246E-01  9.92188E-01 -8.19418E-02
    9044.613     47.053   3.840  9.18958E-01  9.91850E-01 -7.28921E-02
    9045.790     48.229   3.880  9.27946E-01  9.91603E-01 -6.36563E-02
    9046.979     49.418   3.920  9.37688E-01  9.91446E-01 -5.37578E-02
    9048.180     50.619   3.960  9.48526E-01  9.91400E-01 -4.28741E-02
    9049.393     51.832   4.000  9.60386E-01  9.91442E-01 -3.10566E-02
    9050.618     53.057   4.040  9.73012E-01  9.91592E-01 -1.85795E-02
    9051.855     54.295   4.080  9.85848E-01  9.91806E-01 -5.95711E-03
    9053.105     55.544   4.120  9.98200E-01  9.92125E-01  6.07550E-03
    9054.367     56.806   4.160  1.00917E+00  9.92526E-01  1.66455E-02
    9055.641     58.080   4.200  1.01800E+00  9.92987E-01  2.50166E-02
    9056.927     59.367   4.240  1.02448E+00  9.93548E-01  3.09269E-02
    9058.226     60.665   4.280  1.02899E+00  9.94188E-01  3.48024E-02
    9059.536     61.976   4.320  1.03236E+00  9.94879E-01  3.74825E-02
    9060.859     63.299   4.360  1.03532E+00  9.95621E-01  3.97021E-02
    9062.194     64.634   4.400  1.03823E+00  9.96435E-01  4.17999E-02
    9063.541     65.981   4.440  1.04109E+00  9.97318E-01  4.37697E-02
    9064.901     67.340   4.480  1.04377E+00  9.98246E-01  4.55277E-02
    9066.272     68.712   4.520  1.04641E+00  9.99194E-01  4.72188E-02
    9067.656     70.096   4.560  1.04942E+00  1.00020E+00  4.92134E-02
    9069.052     71.492   4.600  1.05323E+00  1.00125E+00  5.19804E-02
    9070.460     72.900   4.640  1.05843E+00  1.00231E+00  5.61200E-02
    9071.881     74.320   4.680  1.06583E+00  1.00340E+00  6.24304E-02
    9073.313     75.753   4.720  1.07578E+00  1.00449E+00  7.12869E-02
    9074.758     77.197   4.760  1.08773E+00  1.00560E+00  8.21305E-02
    9076.215     78.654   4.800  1.10007E+00  1.00672E+00  9.33500E-02
    9077.684     80.123   4.840  1.11052E+00  1.00785E+00  1.02667E-01
    9079.165     81.605   4.880  1.11681E+00  1.00895E+00  1.07854E-01
    9080.659     83.098   4.920  1.11768E+00  1.01007E+00  1.07603E-01
    9082.165     84.604   4.960  1.11294E+00  1.01116E+00  1.01772E-01
    9083.683     86.122   5.000  1.10359E+00  1.01222E+00  9.13714E-02
    9085.213     87.652   5.040  1.09129E+00  1.01326E+00  7.80287E-02
    9086.755     89.194   5.080  1.07760E+00  1.01427E+00  6.33244E-02
    9088.309     90.749   5.120  1.06354E+00  1.01527E+00  4.82781E-02
    9089.876     92.315   5.160  1.04946E+00  1.01619E+00  3.32657E-02
    9091.455     93.894   5.200  1.03552E+00  1.01708E+00  1.84463E-02
    9093.046     95.485   5.240  1.02206E+00  1.01792E+00  4.14819E-03
    9094.649     97.089   5.280  1.00955E+00  1.01871E+00 -9.15698E-03
    9096.265     98.704   5.320  9.98249E-01  1.01943E+00 -2.11821E-02
    9097.892    100.332   5.360  9.88133E-01  1.02010E+00 -3.19702E-02
    9099.532    101.971   5.400  9.78969E-01  1.02073E+00 -4.17575E-02
    9101.184    103.623   5.440  9.70614E-01  1.02128E+00 -5.06607E-02
    9102.848    105.288   5.480  9.63242E-01  1.02174E+00 -5.85019E-02
    9104.525    106.964   5.520  9.57223E-01  1.02214E+00 -6.49130E-02
    9106.213    108.653   5.560  9.52715E-01  1.02248E+00 -6.97608E-02
    9107.914    110.353   5.600  9.49451E-01  1.02274E+00 -7.32873E-02
    9109.627    112.066   5.640  9.47094E-01  1.02295E+00 -7.58517E-02
    9111.352    113.792   5.680  9.45583E-01  1.02305E+00 -7.74700E-02
    9113.090    115.529   5.720  9.45418E-01  1.02310E+00 -7.76852E-02
    9114.839    117.278   5.760  9.47288E-01  1.02308E+00 -7.57881E-02
    9116.601    119.040   5.800  9.51654E-01  1.02297E+00 -7.13149E-02
    9118.375    120.814   5.840  9.58454E-01  1.02278E+00 -6.43293E-02
    9120.161    122.600   5.880  9.67147E-01  1.02252E+00 -5.53758E-02
    9121.959    124.399   5.920  9.77068E-01  1.02221E+00 -4.51424E-02
    9123.770    126.209   5.960  9.87529E-01  1.02181E+00 -3.42855E-02
    9125.592    128.032   6.000  9.98080E-01  1.02128E+00 -2.32034E-02
