# # comment:                                                     FEFF 9.9.1  
# # Source:
# # Structure
# # Reduced
# # space
# # abc:
# # angles:
# # sites:
# # POT  SCF 100  7.0000   0, screened core-hole, AFOLP (folp(0)= 1.150)
# # Abs   Z=29 Rmt= 1.247 Rnm= 1.317 K  shell
# # Pot 1 Z=25 Rmt= 1.266 Rnm= 1.378
# # Pot 2 Z=29 Rmt= 1.247 Rnm= 1.317
# # Pot 3 Z= 8 Rmt= 1.035 Rnm= 1.098
# # Gam_ch=1.729E+00 H-L exch Vi= 0.000E+00 Vr= 0.000E+00
# # Mu=-1.023E+01eV kf=2.216E+00 Vint=-1.817E+01eV Rs_int= 1.637
# FMS rfms= 9.0000
# # PATH  Rmax=-1.000,  Keep_limit= 0.00, Heap_limit 0.00  Pwcrit= 2.50%
#  S02=0.950  Temp=   0.00  Debye_temp=   0.00  Global_sig2= 0.00000
#  Energy zero shift, vr, vi    0.00000E+00   0.00000E+00
#  Curved wave amplitude ratio filter   4.000%
#     file         sig2 tot  cw amp ratio   deg  nlegs   reff  inp sig2
#     0/   0 paths used
#  xsedge+ 50, used to normalize mu           2.4835E-04
#  -----------------------------------------------------------------------
#  omega    e    k    mu    mu0     chi     @#
    8984.473    -14.039  -1.000  3.24949E-02  4.85501E-02 -1.60552E-02
    8984.772    -13.740  -0.960  3.39970E-02  5.19225E-02 -1.79255E-02
    8985.059    -13.454  -0.920  3.56036E-02  5.56574E-02 -2.00538E-02
    8985.333    -13.179  -0.880  3.73275E-02  5.98073E-02 -2.24798E-02
    8985.595    -12.917  -0.840  3.91836E-02  6.44330E-02 -2.52495E-02
    8985.845    -12.667  -0.800  4.11894E-02  6.96050E-02 -2.84156E-02
    8986.083    -12.430  -0.760  4.33655E-02  7.54038E-02 -3.20383E-02
    8986.308    -12.204  -0.720  4.57355E-02  8.19206E-02 -3.61851E-02
    8986.522    -11.991  -0.680  4.83257E-02  8.92554E-02 -4.09297E-02
    8986.723    -11.790  -0.640  5.11641E-02  9.75136E-02 -4.63495E-02
    8986.912    -11.601  -0.600  5.42783E-02  1.06798E-01 -5.25201E-02
    8987.088    -11.424  -0.560  5.76916E-02  1.17198E-01 -5.95059E-02
    8987.253    -11.259  -0.520  6.14159E-02  1.28762E-01 -6.73464E-02
    8987.405    -11.107  -0.480  6.54432E-02  1.41479E-01 -7.60362E-02
    8987.546    -10.967  -0.440  6.97350E-02  1.55237E-01 -8.55025E-02
    8987.674    -10.839  -0.400  7.42139E-02  1.69800E-01 -9.55861E-02
    8987.790    -10.723  -0.360  7.87613E-02  1.84796E-01 -1.06034E-01
    8987.893    -10.619  -0.320  8.32272E-02  1.99743E-01 -1.16515E-01
    8987.985    -10.528  -0.280  8.74504E-02  2.14105E-01 -1.26655E-01
    8988.064    -10.448  -0.240  9.12839E-02  2.27366E-01 -1.36082E-01
    8988.131    -10.381  -0.200  9.46144E-02  2.39092E-01 -1.44478E-01
    8988.186    -10.327  -0.160  9.73708E-02  2.48963E-01 -1.51592E-01
    8988.228    -10.284  -0.120  9.95187E-02  2.56772E-01 -1.57253E-01
    8988.259    -10.253  -0.080  1.01048E-01  2.62401E-01 -1.61353E-01
    8988.283    -10.229   0.000  1.02263E-01  2.66927E-01 -1.64664E-01
    8988.338    -10.174   0.120  1.04986E-01  2.77144E-01 -1.72159E-01
    8988.381    -10.131   0.160  1.07049E-01  2.85095E-01 -1.78045E-01
    8988.436    -10.077   0.200  1.09587E-01  2.95246E-01 -1.85659E-01
    8988.503    -10.010   0.240  1.12533E-01  3.07492E-01 -1.94959E-01
    8988.582     -9.930   0.280  1.15782E-01  3.21608E-01 -2.05825E-01
    8988.673     -9.839   0.320  1.19155E-01  3.37241E-01 -2.18086E-01
    8988.777     -9.735   0.360  1.22503E-01  3.53975E-01 -2.31471E-01
    8988.893     -9.619   0.400  1.25752E-01  3.71362E-01 -2.45610E-01
    8989.021     -9.491   0.440  1.28929E-01  3.88997E-01 -2.60068E-01
    8989.161     -9.351   0.480  1.32177E-01  4.06546E-01 -2.74368E-01
    8989.314     -9.199   0.520  1.35784E-01  4.23809E-01 -2.88024E-01
    8989.478     -9.034   0.560  1.40048E-01  4.40715E-01 -3.00667E-01
    8989.655     -8.857   0.600  1.44960E-01  4.57197E-01 -3.12238E-01
    8989.844     -8.668   0.640  1.50311E-01  4.73323E-01 -3.23012E-01
    8990.045     -8.467   0.680  1.55724E-01  4.89166E-01 -3.33442E-01
    8990.258     -8.254   0.720  1.60914E-01  5.04772E-01 -3.43859E-01
    8990.484     -8.028   0.760  1.66142E-01  5.20249E-01 -3.54107E-01
    8990.722     -7.791   0.800  1.72122E-01  5.35627E-01 -3.63504E-01
    8990.972     -7.541   0.840  1.80155E-01  5.50953E-01 -3.70798E-01
    8991.234     -7.279   0.880  1.91970E-01  5.66304E-01 -3.74334E-01
    8991.508     -7.004   0.920  2.09261E-01  5.81659E-01 -3.72397E-01
    8991.795     -6.718   0.960  2.33399E-01  5.97051E-01 -3.63652E-01
    8992.093     -6.419   1.000  2.64491E-01  6.12506E-01 -3.48015E-01
    8992.404     -6.108   1.040  3.00102E-01  6.27998E-01 -3.27896E-01
    8992.727     -5.785   1.080  3.35575E-01  6.43518E-01 -3.07943E-01
    8993.063     -5.450   1.120  3.68182E-01  6.59049E-01 -2.90867E-01
    8993.410     -5.102   1.160  3.99266E-01  6.74549E-01 -2.75283E-01
    8993.770     -4.743   1.200  4.30723E-01  6.90036E-01 -2.59312E-01
    8994.142     -4.371   1.240  4.64171E-01  7.05443E-01 -2.41272E-01
    8994.526     -3.987   1.280  5.03664E-01  7.20757E-01 -2.17093E-01
    8994.922     -3.590   1.320  5.55740E-01  7.35928E-01 -1.80188E-01
    8995.330     -3.182   1.360  6.21559E-01  7.50945E-01 -1.29386E-01
    8995.751     -2.761   1.400  6.85503E-01  7.65753E-01 -8.02500E-02
    8996.184     -2.329   1.440  7.28002E-01  7.80315E-01 -5.23131E-02
    8996.629     -1.884   1.480  7.47882E-01  7.94600E-01 -4.67179E-02
    8997.086     -1.426   1.520  7.58945E-01  8.08594E-01 -4.96482E-02
    8997.555     -0.957   1.560  7.73651E-01  8.22239E-01 -4.85879E-02
    8998.037     -0.475   1.600  7.92358E-01  8.35524E-01 -4.31660E-02
    8998.531      0.018   1.640  8.12223E-01  8.48395E-01 -3.61718E-02
    8999.037      0.524   1.680  8.44459E-01  8.60843E-01 -1.63837E-02
    8999.555      1.042   1.720  9.00949E-01  8.72856E-01  2.80926E-02
    9000.085      1.573   1.760  9.86942E-01  8.84405E-01  1.02537E-01
    9000.628      2.115   1.800  1.10492E+00  8.95441E-01  2.09477E-01
    9001.182      2.670   1.840  1.23660E+00  9.05998E-01  3.30602E-01
    9001.749      3.237   1.880  1.35490E+00  9.16051E-01  4.38850E-01
    9002.328      3.816   1.920  1.46714E+00  9.25576E-01  5.41560E-01
    9002.920      4.407   1.960  1.57226E+00  9.34571E-01  6.37689E-01
    9003.523      5.011   2.000  1.63039E+00  9.43034E-01  6.87357E-01
    9004.139      5.627   2.040  1.60791E+00  9.50966E-01  6.56946E-01
    9004.767      6.255   2.080  1.51277E+00  9.58367E-01  5.54402E-01
    9005.407      6.895   2.120  1.36994E+00  9.65262E-01  4.04677E-01
    9006.059      7.547   2.160  1.22231E+00  9.71634E-01  2.50680E-01
    9006.724      8.211   2.200  1.09773E+00  9.77487E-01  1.20246E-01
    9007.400      8.888   2.240  9.97926E-01  9.82868E-01  1.50573E-02
    9008.089      9.577   2.280  9.26253E-01  9.87743E-01 -6.14900E-02
    9008.790     10.278   2.320  8.90692E-01  9.92160E-01 -1.01468E-01
    9009.503     10.991   2.360  8.84469E-01  9.96127E-01 -1.11658E-01
    9010.229     11.717   2.400  8.83691E-01  9.99652E-01 -1.15960E-01
    9010.966     12.454   2.440  8.77153E-01  1.00276E+00 -1.25611E-01
    9011.716     13.204   2.480  8.81877E-01  1.00550E+00 -1.23618E-01
    9012.478     13.966   2.520  9.16733E-01  1.00783E+00 -9.11003E-02
    9013.252     14.740   2.560  9.73834E-01  1.00981E+00 -3.59712E-02
    9014.039     15.526   2.600  1.02664E+00  1.01143E+00  1.52139E-02
    9014.837     16.325   2.640  1.05865E+00  1.01274E+00  4.59047E-02
    9015.648     17.136   2.680  1.07177E+00  1.01377E+00  5.79971E-02
    9016.471     17.959   2.720  1.07305E+00  1.01449E+00  5.85603E-02
    9017.306     18.794   2.760  1.06561E+00  1.01498E+00  5.06335E-02
    9018.154     19.641   2.800  1.05132E+00  1.01521E+00  3.61133E-02
    9019.013     20.501   2.840  1.03225E+00  1.01522E+00  1.70254E-02
    9019.885     21.373   2.880  1.01023E+00  1.01504E+00 -4.80300E-03
    9020.769     22.256   2.920  9.86792E-01  1.01467E+00 -2.78826E-02
    9021.665     23.153   2.960  9.63492E-01  1.01413E+00 -5.06357E-02
    9022.573     24.061   3.000  9.41302E-01  1.01345E+00 -7.21429E-02
    9023.494     24.981   3.040  9.20577E-01  1.01264E+00 -9.20583E-02
    9024.426     25.914   3.080  9.01835E-01  1.01171E+00 -1.09871E-01
    9025.371     26.859   3.120  8.85716E-01  1.01066E+00 -1.24946E-01
    9026.328     27.816   3.160  8.73263E-01  1.00953E+00 -1.36270E-01
    9027.298     28.785   3.200  8.65372E-01  1.00835E+00 -1.42976E-01
    9028.279     29.767   3.240  8.62390E-01  1.00709E+00 -1.44699E-01
    9029.273     30.760   3.280  8.64187E-01  1.00579E+00 -1.41600E-01
    9030.278     31.766   3.320  8.70314E-01  1.00444E+00 -1.34130E-01
    9031.296     32.784   3.360  8.80302E-01  1.00307E+00 -1.22765E-01
    9032.327     33.814   3.400  8.93146E-01  1.00168E+00 -1.08535E-01
    9033.369     34.857   3.440  9.07852E-01  1.00029E+00 -9.24384E-02
    9034.424     35.911   3.480  9.23681E-01  9.98902E-01 -7.52215E-02
    9035.491     36.978   3.520  9.40254E-01  9.97540E-01 -5.72854E-02
    9036.570     38.057   3.560  9.57349E-01  9.96185E-01 -3.88360E-02
    9037.661     39.148   3.600  9.74581E-01  9.94843E-01 -2.02621E-02
    9038.764     40.252   3.640  9.91065E-01  9.93557E-01 -2.49248E-03
    9039.880     41.367   3.680  1.00558E+00  9.92310E-01  1.32691E-02
    9041.007     42.495   3.720  1.01726E+00  9.91083E-01  2.61738E-02
    9042.147     43.635   3.760  1.02580E+00  9.89918E-01  3.58860E-02
    9043.299     44.787   3.800  1.03112E+00  9.88800E-01  4.23198E-02
    9044.464     45.952   3.840  1.03343E+00  9.87750E-01  4.56770E-02
    9045.640     47.128   3.880  1.03331E+00  9.86749E-01  4.65632E-02
    9046.829     48.317   3.920  1.03180E+00  9.85819E-01  4.59849E-02
    9048.030     49.518   3.960  1.03005E+00  9.84940E-01  4.51065E-02
    9049.243     50.731   4.000  1.02894E+00  9.84133E-01  4.48043E-02
    9050.468     51.956   4.040  1.02881E+00  9.83401E-01  4.54078E-02
    9051.706     53.194   4.080  1.02938E+00  9.82722E-01  4.66534E-02
    9052.955     54.443   4.120  1.03011E+00  9.82139E-01  4.79698E-02
    9054.217     55.705   4.160  1.03032E+00  9.81609E-01  4.87060E-02
    9055.491     56.979   4.200  1.02943E+00  9.81133E-01  4.82987E-02
    9056.778     58.265   4.240  1.02724E+00  9.80752E-01  4.64868E-02
    9058.076     59.564   4.280  1.02389E+00  9.80425E-01  4.34682E-02
    9059.387     60.874   4.320  1.01999E+00  9.80172E-01  3.98148E-02
    9060.710     62.197   4.360  1.01618E+00  9.79993E-01  3.61860E-02
    9062.045     63.532   4.400  1.01293E+00  9.79864E-01  3.30693E-02
    9063.392     64.880   4.440  1.01044E+00  9.79806E-01  3.06342E-02
    9064.751     66.239   4.480  1.00852E+00  9.79798E-01  2.87190E-02
    9066.123     67.611   4.520  1.00686E+00  9.79859E-01  2.70031E-02
    9067.507     68.994   4.560  1.00531E+00  9.79969E-01  2.53447E-02
    9068.903     70.390   4.600  1.00411E+00  9.80146E-01  2.39687E-02
    9070.311     71.798   4.640  1.00359E+00  9.80369E-01  2.32205E-02
    9071.731     73.219   4.680  1.00372E+00  9.80634E-01  2.30850E-02
    9073.164     74.651   4.720  1.00385E+00  9.80942E-01  2.29082E-02
    9074.608     76.096   4.760  1.00307E+00  9.81311E-01  2.17598E-02
    9076.065     77.553   4.800  1.00064E+00  9.81697E-01  1.89412E-02
    9077.534     79.022   4.840  9.96474E-01  9.82119E-01  1.43550E-02
    9079.016     80.503   4.880  9.91305E-01  9.82575E-01  8.72998E-03
    9080.509     81.997   4.920  9.86379E-01  9.83043E-01  3.33570E-03
    9082.015     83.503   4.960  9.82929E-01  9.83543E-01 -6.14130E-04
    9083.533     85.021   5.000  9.81423E-01  9.84074E-01 -2.65128E-03
    9085.063     86.551   5.040  9.81216E-01  9.84611E-01 -3.39488E-03
    9086.605     88.093   5.080  9.81089E-01  9.85151E-01 -4.06281E-03
    9088.160     89.647   5.120  9.80121E-01  9.85695E-01 -5.57404E-03
    9089.726     91.214   5.160  9.78214E-01  9.86262E-01 -8.04790E-03
    9091.305     92.793   5.200  9.75658E-01  9.86808E-01 -1.11499E-02
    9092.896     94.384   5.240  9.72730E-01  9.87371E-01 -1.46415E-02
    9094.500     95.987   5.280  9.69402E-01  9.87909E-01 -1.85074E-02
    9096.115     97.603   5.320  9.65678E-01  9.88440E-01 -2.27619E-02
    9097.743     99.230   5.360  9.61746E-01  9.88941E-01 -2.71946E-02
    9099.382    100.870   5.400  9.58022E-01  9.89431E-01 -3.14089E-02
    9101.034    102.522   5.440  9.54926E-01  9.89890E-01 -3.49638E-02
    9102.699    104.186   5.480  9.52746E-01  9.90338E-01 -3.75925E-02
    9104.375    105.863   5.520  9.51426E-01  9.90752E-01 -3.93260E-02
    9106.064    107.551   5.560  9.50658E-01  9.91152E-01 -4.04936E-02
    9107.764    109.252   5.600  9.50023E-01  9.91493E-01 -4.14701E-02
    9109.477    110.965   5.640  9.49346E-01  9.91814E-01 -4.24681E-02
    9111.203    112.690   5.680  9.48656E-01  9.92074E-01 -4.34182E-02
    9112.940    114.428   5.720  9.48317E-01  9.92315E-01 -4.39975E-02
    9114.689    116.177   5.760  9.48645E-01  9.92494E-01 -4.38488E-02
    9116.451    117.939   5.800  9.49780E-01  9.92653E-01 -4.28731E-02
    9118.225    119.713   5.840  9.51405E-01  9.92748E-01 -4.13424E-02
    9120.011    121.499   5.880  9.53027E-01  9.92799E-01 -3.97720E-02
    9121.810    123.297   5.920  9.54363E-01  9.92807E-01 -3.84434E-02
    9123.620    125.108   5.960  9.55779E-01  9.92766E-01 -3.69871E-02
    9125.443    126.930   6.000  9.58483E-01  9.92626E-01 -3.41432E-02
