# # comment:                                                     FEFF 9.9.1  
# # Source:
# # Structure
# # Reduced
# # space
# # abc:
# # angles:120.426999
# # sites:
# # POT  SCF 100  7.0000   0, screened core-hole, AFOLP (folp(0)= 1.150)
# # Abs   Z=29 Rmt= 1.236 Rnm= 1.299 K  shell
# # Pot 1 Z=57 Rmt= 1.789 Rnm= 1.877
# # Pot 2 Z=29 Rmt= 1.236 Rnm= 1.299
# # Pot 3 Z= 8 Rmt= 1.071 Rnm= 1.127
# # Pot 4 Z= 9 Rmt= 1.041 Rnm= 1.082
# # Gam_ch=1.729E+00 H-L exch Vi= 0.000E+00 Vr= 0.000E+00
# # Mu=-7.392E+00eV kf=1.976E+00 Vint=-1.697E+01eV Rs_int= 1.835
# FMS rfms= 9.0000
# # PATH  Rmax=-1.000,  Keep_limit= 0.00, Heap_limit 0.00  Pwcrit= 2.50%
#  S02=0.950  Temp=   0.00  Debye_temp=   0.00  Global_sig2= 0.00000
#  Energy zero shift, vr, vi    0.00000E+00   0.00000E+00
#  Curved wave amplitude ratio filter   4.000%
#     file         sig2 tot  cw amp ratio   deg  nlegs   reff  inp sig2
#     0/   0 paths used
#  xsedge+ 50, used to normalize mu           2.4410E-04
#  -----------------------------------------------------------------------
#  omega    e    k    mu    mu0     chi     @#
    8984.699    -11.202  -1.000  3.61073E-02  5.67620E-02 -2.06547E-02
    8984.998    -10.903  -0.960  3.77285E-02  6.09807E-02 -2.32522E-02
    8985.284    -10.616  -0.920  3.94476E-02  6.56770E-02 -2.62293E-02
    8985.559    -10.342  -0.880  4.12747E-02  7.09218E-02 -2.96471E-02
    8985.821    -10.080  -0.840  4.32214E-02  7.67979E-02 -3.35765E-02
    8986.071     -9.830  -0.800  4.53013E-02  8.34012E-02 -3.80999E-02
    8986.308     -9.592  -0.760  4.75303E-02  9.08421E-02 -4.33118E-02
    8986.534     -9.367  -0.720  4.99263E-02  9.92452E-02 -4.93189E-02
    8986.747     -9.153  -0.680  5.25093E-02  1.08748E-01 -5.62385E-02
    8986.949     -8.952  -0.640  5.53002E-02  1.19495E-01 -6.41950E-02
    8987.138     -8.763  -0.600  5.83189E-02  1.31630E-01 -7.33112E-02
    8987.314     -8.586  -0.560  6.15812E-02  1.45275E-01 -8.36936E-02
    8987.479     -8.422  -0.520  6.50928E-02  1.60502E-01 -9.54096E-02
    8987.631     -8.269  -0.480  6.88421E-02  1.77298E-01 -1.08456E-01
    8987.772     -8.129  -0.440  7.27914E-02  1.95514E-01 -1.22723E-01
    8987.900     -8.001  -0.400  7.68704E-02  2.14831E-01 -1.37960E-01
    8988.015     -7.885  -0.360  8.09756E-02  2.34747E-01 -1.53771E-01
    8988.119     -7.782  -0.320  8.49790E-02  2.54609E-01 -1.69630E-01
    8988.210     -7.690  -0.280  8.87465E-02  2.73695E-01 -1.84948E-01
    8988.290     -7.611  -0.240  9.21580E-02  2.91307E-01 -1.99149E-01
    8988.357     -7.544  -0.200  9.51227E-02  3.06866E-01 -2.11744E-01
    8988.412     -7.489  -0.160  9.75826E-02  3.19949E-01 -2.22366E-01
    8988.454     -7.446  -0.120  9.95071E-02  3.30285E-01 -2.30778E-01
    8988.485     -7.416  -0.080  1.00883E-01  3.37729E-01 -2.36846E-01
    8988.509     -7.392   0.000  1.01982E-01  3.43706E-01 -2.41724E-01
    8988.564     -7.337   0.120  1.04543E-01  3.57186E-01 -2.52643E-01
    8988.607     -7.294   0.160  1.06485E-01  3.67641E-01 -2.61156E-01
    8988.662     -7.239   0.200  1.08928E-01  3.80983E-01 -2.72055E-01
    8988.729     -7.172   0.240  1.11864E-01  3.97022E-01 -2.85158E-01
    8988.808     -7.093   0.280  1.15216E-01  4.15403E-01 -3.00187E-01
    8988.899     -7.001   0.320  1.18972E-01  4.35638E-01 -3.16667E-01
    8989.003     -6.898   0.360  1.23082E-01  4.57127E-01 -3.34045E-01
    8989.119     -6.782   0.400  1.27582E-01  4.79206E-01 -3.51624E-01
    8989.247     -6.654   0.440  1.32497E-01  5.01293E-01 -3.68796E-01
    8989.387     -6.514   0.480  1.37915E-01  5.22937E-01 -3.85022E-01
    8989.539     -6.361   0.520  1.43825E-01  5.43808E-01 -3.99984E-01
    8989.704     -6.197   0.560  1.50277E-01  5.63775E-01 -4.13497E-01
    8989.881     -6.020   0.600  1.57296E-01  5.82801E-01 -4.25505E-01
    8990.070     -5.831   0.640  1.64855E-01  6.00971E-01 -4.36116E-01
    8990.271     -5.630   0.680  1.72752E-01  6.18328E-01 -4.45577E-01
    8990.484     -5.416   0.720  1.80710E-01  6.34995E-01 -4.54285E-01
    8990.710     -5.191   0.760  1.88529E-01  6.51068E-01 -4.62539E-01
    8990.948     -4.953   0.800  1.96178E-01  6.66657E-01 -4.70479E-01
    8991.197     -4.703   0.840  2.03642E-01  6.81816E-01 -4.78174E-01
    8991.460     -4.441   0.880  2.10939E-01  6.96606E-01 -4.85668E-01
    8991.734     -4.167   0.920  2.18081E-01  7.11091E-01 -4.93010E-01
    8992.020     -3.880   0.960  2.25587E-01  7.25284E-01 -4.99697E-01
    8992.319     -3.582   1.000  2.35226E-01  7.39204E-01 -5.03978E-01
    8992.630     -3.271   1.040  2.49323E-01  7.52884E-01 -5.03561E-01
    8992.953     -2.948   1.080  2.69704E-01  7.66305E-01 -4.96602E-01
    8993.288     -2.612   1.120  2.97345E-01  7.79465E-01 -4.82120E-01
    8993.636     -2.265   1.160  3.32749E-01  7.92352E-01 -4.59602E-01
    8993.996     -1.905   1.200  3.76959E-01  8.04973E-01 -4.28015E-01
    8994.367     -1.533   1.240  4.32508E-01  8.17293E-01 -3.84785E-01
    8994.751     -1.149   1.280  5.02756E-01  8.29290E-01 -3.26534E-01
    8995.148     -0.753   1.320  5.88334E-01  8.40964E-01 -2.52630E-01
    8995.556     -0.345   1.360  6.85369E-01  8.52273E-01 -1.66903E-01
    8995.977      0.076   1.400  7.92259E-01  8.63233E-01 -7.09740E-02
    8996.410      0.509   1.440  9.19998E-01  8.73800E-01  4.61980E-02
    8996.855      0.954   1.480  1.09582E+00  8.83973E-01  2.11850E-01
    8997.312      1.411   1.520  1.34579E+00  8.93725E-01  4.52065E-01
    8997.781      1.880   1.560  1.64523E+00  9.03076E-01  7.42150E-01
    8998.263      2.362   1.600  1.88951E+00  9.11963E-01  9.77549E-01
    8998.756      2.856   1.640  1.97059E+00  9.20424E-01  1.05016E+00
    8999.262      3.362   1.680  1.87970E+00  9.28439E-01  9.51257E-01
    8999.781      3.880   1.720  1.69994E+00  9.35988E-01  7.63957E-01
    9000.311      4.410   1.760  1.52797E+00  9.43114E-01  5.84853E-01
    9000.853      4.953   1.800  1.40470E+00  9.49778E-01  4.54921E-01
    9001.408      5.507   1.840  1.31697E+00  9.55982E-01  3.60983E-01
    9001.975      6.074   1.880  1.25747E+00  9.61772E-01  2.95697E-01
    9002.554      6.654   1.920  1.23961E+00  9.67112E-01  2.72493E-01
    9003.146      7.245   1.960  1.25359E+00  9.72048E-01  2.81542E-01
    9003.749      7.848   2.000  1.25428E+00  9.76545E-01  2.77732E-01
    9004.365      8.464   2.040  1.22037E+00  9.80674E-01  2.39692E-01
    9004.993      9.092   2.080  1.16609E+00  9.84419E-01  1.81675E-01
    9005.633      9.732   2.120  1.11060E+00  9.87768E-01  1.22831E-01
    9006.285     10.384   2.160  1.06844E+00  9.90793E-01  7.76477E-02
    9006.949     11.049   2.200  1.04777E+00  9.93459E-01  5.43071E-02
    9007.626     11.725   2.240  1.04893E+00  9.95816E-01  5.31121E-02
    9008.315     12.414   2.280  1.06145E+00  9.97853E-01  6.35931E-02
    9009.016     13.115   2.320  1.06889E+00  9.99621E-01  6.92688E-02
    9009.729     13.828   2.360  1.06606E+00  1.00113E+00  6.49331E-02
    9010.455     14.554   2.400  1.06310E+00  1.00236E+00  6.07363E-02
    9011.192     15.292   2.440  1.06228E+00  1.00338E+00  5.89014E-02
    9011.942     16.041   2.480  1.05965E+00  1.00418E+00  5.54682E-02
    9012.704     16.803   2.520  1.05152E+00  1.00477E+00  4.67453E-02
    9013.478     17.578   2.560  1.03613E+00  1.00520E+00  3.09331E-02
    9014.265     18.364   2.600  1.01393E+00  1.00545E+00  8.47625E-03
    9015.063     19.162   2.640  9.86498E-01  1.00557E+00 -1.90724E-02
    9015.874     19.973   2.680  9.55906E-01  1.00554E+00 -4.96319E-02
    9016.697     20.796   2.720  9.24859E-01  1.00540E+00 -8.05445E-02
    9017.532     21.631   2.760  8.95655E-01  1.00515E+00 -1.09498E-01
    9018.379     22.479   2.800  8.69316E-01  1.00481E+00 -1.35498E-01
    9019.239     23.338   2.840  8.46316E-01  1.00441E+00 -1.58098E-01
    9020.111     24.210   2.880  8.26457E-01  1.00392E+00 -1.77461E-01
    9020.995     25.094   2.920  8.09313E-01  1.00339E+00 -1.94080E-01
    9021.891     25.990   2.960  7.95101E-01  1.00280E+00 -2.07704E-01
    9022.799     26.898   3.000  7.84772E-01  1.00220E+00 -2.17428E-01
    9023.719     27.819   3.040  7.79000E-01  1.00158E+00 -2.22581E-01
    9024.652     28.751   3.080  7.77991E-01  1.00093E+00 -2.22943E-01
    9025.597     29.696   3.120  7.81673E-01  1.00028E+00 -2.18610E-01
    9026.554     30.653   3.160  7.89492E-01  9.99631E-01 -2.10139E-01
    9027.523     31.623   3.200  8.00844E-01  9.98983E-01 -1.98139E-01
    9028.505     32.604   3.240  8.15304E-01  9.98363E-01 -1.83058E-01
    9029.498     33.598   3.280  8.32392E-01  9.97773E-01 -1.65382E-01
    9030.504     34.604   3.320  8.51828E-01  9.97196E-01 -1.45369E-01
    9031.522     35.622   3.360  8.73292E-01  9.96656E-01 -1.23364E-01
    9032.553     36.652   3.400  8.96374E-01  9.96155E-01 -9.97806E-02
    9033.595     37.694   3.440  9.20418E-01  9.95715E-01 -7.52969E-02
    9034.650     38.749   3.480  9.45063E-01  9.95294E-01 -5.02315E-02
    9035.716     39.816   3.520  9.70096E-01  9.94916E-01 -2.48198E-02
    9036.795     40.895   3.560  9.95145E-01  9.94604E-01  5.41225E-04
    9037.887     41.986   3.600  1.01958E+00  9.94338E-01  2.52459E-02
    9038.990     43.089   3.640  1.04245E+00  9.94139E-01  4.83144E-02
    9040.105     44.205   3.680  1.06248E+00  9.93966E-01  6.85147E-02
    9041.233     45.332   3.720  1.07865E+00  9.93880E-01  8.47686E-02
    9042.373     46.472   3.760  1.09033E+00  9.93821E-01  9.65083E-02
    9043.525     47.625   3.800  1.09757E+00  9.93830E-01  1.03744E-01
    9044.690     48.789   3.840  1.10078E+00  9.93886E-01  1.06894E-01
    9045.866     49.965   3.880  1.10086E+00  9.94009E-01  1.06855E-01
    9047.055     51.154   3.920  1.09860E+00  9.94180E-01  1.04421E-01
    9048.256     52.355   3.960  1.09439E+00  9.94395E-01  9.99923E-02
    9049.469     53.568   4.000  1.08852E+00  9.94678E-01  9.38415E-02
    9050.694     54.793   4.040  1.08156E+00  9.95005E-01  8.65545E-02
    9051.932     56.031   4.080  1.07476E+00  9.95375E-01  7.93874E-02
    9053.181     57.281   4.120  1.06968E+00  9.95785E-01  7.38967E-02
    9054.443     58.542   4.160  1.06751E+00  9.96235E-01  7.12707E-02
    9055.717     59.817   4.200  1.06847E+00  9.96725E-01  7.17403E-02
    9057.004     61.103   4.240  1.07177E+00  9.97252E-01  7.45191E-02
    9058.302     62.401   4.280  1.07601E+00  9.97815E-01  7.81937E-02
    9059.613     63.712   4.320  1.07968E+00  9.98391E-01  8.12918E-02
    9060.935     65.035   4.360  1.08175E+00  9.99000E-01  8.27456E-02
    9062.270     66.370   4.400  1.08198E+00  9.99642E-01  8.23369E-02
    9063.618     67.717   4.440  1.08083E+00  1.00029E+00  8.05369E-02
    9064.977     69.076   4.480  1.07890E+00  1.00097E+00  7.79305E-02
    9066.349     70.448   4.520  1.07645E+00  1.00166E+00  7.47928E-02
    9067.732     71.832   4.560  1.07326E+00  1.00235E+00  7.09085E-02
    9069.128     73.228   4.600  1.06851E+00  1.00306E+00  6.54511E-02
    9070.537     74.636   4.640  1.06084E+00  1.00375E+00  5.70886E-02
    9071.957     76.056   4.680  1.04896E+00  1.00446E+00  4.44974E-02
    9073.389     77.489   4.720  1.03227E+00  1.00515E+00  2.71225E-02
    9074.834     78.934   4.760  1.01156E+00  1.00583E+00  5.73438E-03
    9076.291     80.390   4.800  9.88798E-01  1.00650E+00 -1.77031E-02
    9077.760     81.860   4.840  9.66342E-01  1.00714E+00 -4.08013E-02
    9079.242     83.341   4.880  9.46264E-01  1.00778E+00 -6.15112E-02
    9080.735     84.834   4.920  9.29668E-01  1.00837E+00 -7.87066E-02
    9082.241     86.340   4.960  9.16860E-01  1.00896E+00 -9.21010E-02
    9083.759     87.858   5.000  9.07724E-01  1.00951E+00 -1.01787E-01
    9085.289     89.388   5.040  9.02190E-01  1.01002E+00 -1.07834E-01
    9086.831     90.930   5.080  9.00423E-01  1.01050E+00 -1.10074E-01
    9088.386     92.485   5.120  9.02624E-01  1.01095E+00 -1.08328E-01
    9089.952     94.052   5.160  9.08563E-01  1.01135E+00 -1.02784E-01
    9091.531     95.630   5.200  9.17600E-01  1.01172E+00 -9.41216E-02
    9093.122     97.221   5.240  9.28694E-01  1.01203E+00 -8.33394E-02
    9094.725     98.825   5.280  9.40934E-01  1.01232E+00 -7.13886E-02
    9096.341    100.440   5.320  9.53354E-01  1.01255E+00 -5.91912E-02
    9097.968    102.068   5.360  9.65123E-01  1.01272E+00 -4.76002E-02
    9099.608    103.708   5.400  9.75631E-01  1.01286E+00 -3.72276E-02
    9101.260    105.360   5.440  9.84679E-01  1.01295E+00 -2.82711E-02
    9102.924    107.024   5.480  9.92341E-01  1.01300E+00 -2.06549E-02
    9104.601    108.700   5.520  9.98785E-01  1.01297E+00 -1.41874E-02
    9106.289    110.389   5.560  1.00439E+00  1.01290E+00 -8.51035E-03
    9107.990    112.090   5.600  1.00964E+00  1.01279E+00 -3.15179E-03
    9109.703    113.802   5.640  1.01467E+00  1.01264E+00  2.03451E-03
    9111.428    115.528   5.680  1.01879E+00  1.01244E+00  6.34873E-03
    9113.166    117.265   5.720  1.02052E+00  1.01218E+00  8.34830E-03
    9114.915    119.015   5.760  1.01870E+00  1.01189E+00  6.80858E-03
    9116.677    120.776   5.800  1.01331E+00  1.01155E+00  1.76644E-03
    9118.451    122.550   5.840  1.00608E+00  1.01118E+00 -5.10126E-03
    9120.237    124.336   5.880  9.99693E-01  1.01076E+00 -1.10665E-02
    9122.035    126.135   5.920  9.96975E-01  1.01030E+00 -1.33247E-02
    9123.846    127.945   5.960  9.99258E-01  1.00983E+00 -1.05727E-02
    9125.669    129.768   6.000  1.00641E+00  1.00927E+00 -2.86137E-03
