# # comment:                                                     FEFF 9.9.1  
# # Source:
# # Structure
# # Reduced
# # space
# # abc:
# # angles:
# # sites:
# # POT  SCF 100  7.0000   0, screened core-hole, AFOLP (folp(0)= 1.150)
# # Abs   Z=29 Rmt= 1.237 Rnm= 1.314 K  shell
# # Pot 1 Z=22 Rmt= 1.307 Rnm= 1.431
# # Pot 2 Z=41 Rmt= 1.326 Rnm= 1.444
# # Pot 3 Z=29 Rmt= 1.240 Rnm= 1.316
# # Pot 4 Z= 8 Rmt= 1.003 Rnm= 1.086
# # Gam_ch=1.729E+00 H-L exch Vi= 0.000E+00 Vr= 0.000E+00
# # Mu=-7.623E+00eV kf=2.230E+00 Vint=-1.687E+01eV Rs_int= 1.626
# FMS rfms= 9.0000
# # PATH  Rmax=-1.000,  Keep_limit= 0.00, Heap_limit 0.00  Pwcrit= 2.50%
#  S02=0.950  Temp=   0.00  Debye_temp=   0.00  Global_sig2= 0.00000
#  Energy zero shift, vr, vi    0.00000E+00   0.00000E+00
#  Curved wave amplitude ratio filter   4.000%
#     file         sig2 tot  cw amp ratio   deg  nlegs   reff  inp sig2
#     0/   0 paths used
#  xsedge+ 50, used to normalize mu           2.4529E-04
#  -----------------------------------------------------------------------
#  omega    e    k    mu    mu0     chi     @#
    8984.321    -11.433  -1.000  4.13675E-02  5.50620E-02 -1.36945E-02
    8984.620    -11.135  -0.960  4.36243E-02  5.91033E-02 -1.54790E-02
    8984.906    -10.848  -0.920  4.60496E-02  6.35977E-02 -1.75481E-02
    8985.180    -10.574  -0.880  4.86597E-02  6.86122E-02 -1.99526E-02
    8985.443    -10.312  -0.840  5.14724E-02  7.42250E-02 -2.27526E-02
    8985.693    -10.062  -0.800  5.45075E-02  8.05265E-02 -2.60189E-02
    8985.930     -9.824  -0.760  5.77867E-02  8.76205E-02 -2.98338E-02
    8986.156     -9.598  -0.720  6.13330E-02  9.56246E-02 -3.42916E-02
    8986.369     -9.385  -0.680  6.51706E-02  1.04668E-01 -3.94974E-02
    8986.570     -9.184  -0.640  6.93231E-02  1.14887E-01 -4.55643E-02
    8986.759     -8.995  -0.600  7.38116E-02  1.26417E-01 -5.26055E-02
    8986.936     -8.818  -0.560  7.86508E-02  1.39372E-01 -6.07209E-02
    8987.101     -8.653  -0.520  8.38435E-02  1.53820E-01 -6.99761E-02
    8987.253     -8.501  -0.480  8.93733E-02  1.69746E-01 -8.03732E-02
    8987.393     -8.361  -0.440  9.51958E-02  1.87012E-01 -9.18161E-02
    8987.521     -8.233  -0.400  1.01232E-01  2.05315E-01 -1.04083E-01
    8987.637     -8.117  -0.360  1.07364E-01  2.24181E-01 -1.16817E-01
    8987.741     -8.013  -0.320  1.13439E-01  2.42995E-01 -1.29555E-01
    8987.832     -7.922  -0.280  1.19286E-01  2.61072E-01 -1.41786E-01
    8987.911     -7.843  -0.240  1.24728E-01  2.77757E-01 -1.53029E-01
    8987.979     -7.776  -0.200  1.29600E-01  2.92499E-01 -1.62898E-01
    8988.033     -7.721  -0.160  1.33767E-01  3.04897E-01 -1.71130E-01
    8988.076     -7.678  -0.120  1.37121E-01  3.14696E-01 -1.77574E-01
    8988.107     -7.648  -0.080  1.39583E-01  3.21754E-01 -1.82170E-01
    8988.131     -7.623   0.000  1.41619E-01  3.27423E-01 -1.85805E-01
    8988.186     -7.568   0.120  1.46146E-01  3.40202E-01 -1.94056E-01
    8988.228     -7.526   0.160  1.49710E-01  3.50140E-01 -2.00430E-01
    8988.283     -7.471   0.200  1.54307E-01  3.62796E-01 -2.08489E-01
    8988.350     -7.404   0.240  1.60020E-01  3.78035E-01 -2.18016E-01
    8988.430     -7.325   0.280  1.66847E-01  3.95526E-01 -2.28679E-01
    8988.521     -7.233   0.320  1.74719E-01  4.14796E-01 -2.40077E-01
    8988.625     -7.129   0.360  1.83593E-01  4.35282E-01 -2.51688E-01
    8988.741     -7.014   0.400  1.93361E-01  4.56387E-01 -2.63027E-01
    8988.869     -6.886   0.440  2.03816E-01  4.77547E-01 -2.73731E-01
    8989.009     -6.745   0.480  2.14762E-01  4.98340E-01 -2.83578E-01
    8989.161     -6.593   0.520  2.25951E-01  5.18497E-01 -2.92546E-01
    8989.326     -6.428   0.560  2.37199E-01  5.37873E-01 -3.00674E-01
    8989.502     -6.252   0.600  2.48678E-01  5.56416E-01 -3.07738E-01
    8989.691     -6.063   0.640  2.61403E-01  5.74205E-01 -3.12802E-01
    8989.893     -5.861   0.680  2.77577E-01  5.91318E-01 -3.13741E-01
    8990.106     -5.648   0.720  3.00576E-01  6.07847E-01 -3.07271E-01
    8990.332     -5.423   0.760  3.34273E-01  6.23883E-01 -2.89610E-01
    8990.569     -5.185   0.800  3.81869E-01  6.39508E-01 -2.57640E-01
    8990.819     -4.935   0.840  4.43368E-01  6.54789E-01 -2.11421E-01
    8991.081     -4.673   0.880  5.12438E-01  6.69800E-01 -1.57362E-01
    8991.356     -4.398   0.920  5.79261E-01  6.84561E-01 -1.05300E-01
    8991.642     -4.112   0.960  6.42699E-01  6.99100E-01 -5.64009E-02
    8991.941     -3.813   1.000  7.10172E-01  7.13432E-01 -3.25957E-03
    8992.252     -3.502   1.040  7.76575E-01  7.27584E-01  4.89906E-02
    8992.575     -3.179   1.080  8.18449E-01  7.41537E-01  7.69117E-02
    8992.910     -2.844   1.120  8.22485E-01  7.55283E-01  6.72012E-02
    8993.258     -2.497   1.160  7.97521E-01  7.68810E-01  2.87109E-02
    8993.617     -2.137   1.200  7.53146E-01  7.82101E-01 -2.89555E-02
    8993.989     -1.765   1.240  6.98012E-01  7.95138E-01 -9.71269E-02
    8994.373     -1.381   1.280  6.46370E-01  8.07918E-01 -1.61548E-01
    8994.769     -0.985   1.320  6.11200E-01  8.20376E-01 -2.09176E-01
    8995.178     -0.576   1.360  6.03793E-01  8.32528E-01 -2.28735E-01
    8995.598     -0.156   1.400  6.33080E-01  8.44328E-01 -2.11249E-01
    8996.031      0.277   1.440  6.97060E-01  8.55771E-01 -1.58711E-01
    8996.476      0.722   1.480  7.67273E-01  8.66831E-01 -9.95574E-02
    8996.933      1.179   1.520  8.13214E-01  8.77502E-01 -6.42879E-02
    8997.403      1.649   1.560  8.39977E-01  8.87737E-01 -4.77598E-02
    8997.884      2.130   1.600  8.67061E-01  8.97574E-01 -3.05123E-02
    8998.378      2.624   1.640  9.00572E-01  9.06947E-01 -6.37447E-03
    8998.884      3.130   1.680  9.27375E-01  9.15855E-01  1.15205E-02
    8999.402      3.648   1.720  9.34753E-01  9.24336E-01  1.04163E-02
    8999.933      4.179   1.760  9.33633E-01  9.32329E-01  1.30355E-03
    9000.475      4.721   1.800  9.39110E-01  9.39877E-01 -7.66605E-04
    9001.030      5.276   1.840  9.69039E-01  9.46957E-01  2.20819E-02
    9001.597      5.843   1.880  1.04571E+00  9.53595E-01  9.21141E-02
    9002.176      6.422   1.920  1.16713E+00  9.59753E-01  2.07372E-01
    9002.767      7.013   1.960  1.29014E+00  9.65475E-01  3.24662E-01
    9003.371      7.617   2.000  1.35382E+00  9.70768E-01  3.83047E-01
    9003.987      8.232   2.040  1.35504E+00  9.75616E-01  3.79426E-01
    9004.614      8.860   2.080  1.33524E+00  9.80067E-01  3.55169E-01
    9005.254      9.500   2.120  1.30448E+00  9.84107E-01  3.20376E-01
    9005.907     10.153   2.160  1.25768E+00  9.87744E-01  2.69935E-01
    9006.571     10.817   2.200  1.20675E+00  9.91027E-01  2.15721E-01
    9007.248     11.494   2.240  1.17760E+00  9.93946E-01  1.83657E-01
    9007.937     12.183   2.280  1.18845E+00  9.96547E-01  1.91898E-01
    9008.638     12.884   2.320  1.23933E+00  9.98800E-01  2.40532E-01
    9009.351     13.597   2.360  1.30654E+00  1.00076E+00  3.05779E-01
    9010.076     14.322   2.400  1.33101E+00  1.00242E+00  3.28590E-01
    9010.814     15.060   2.440  1.27016E+00  1.00383E+00  2.66330E-01
    9011.564     15.810   2.480  1.16085E+00  1.00499E+00  1.55863E-01
    9012.326     16.572   2.520  1.05973E+00  1.00590E+00  5.38284E-02
    9013.100     17.346   2.560  9.90880E-01  1.00661E+00 -1.57255E-02
    9013.886     18.132   2.600  9.54266E-01  1.00713E+00 -5.28605E-02
    9014.685     18.931   2.640  9.40910E-01  1.00745E+00 -6.65433E-02
    9015.496     19.742   2.680  9.39901E-01  1.00761E+00 -6.77123E-02
    9016.319     20.565   2.720  9.46043E-01  1.00761E+00 -6.15717E-02
    9017.154     21.400   2.760  9.55931E-01  1.00751E+00 -5.15754E-02
    9018.001     22.247   2.800  9.65000E-01  1.00725E+00 -4.22547E-02
    9018.861     23.107   2.840  9.69103E-01  1.00691E+00 -3.78057E-02
    9019.732     23.978   2.880  9.66312E-01  1.00648E+00 -4.01642E-02
    9020.616     24.862   2.920  9.57243E-01  1.00596E+00 -4.87176E-02
    9021.512     25.758   2.960  9.43575E-01  1.00537E+00 -6.17943E-02
    9022.421     26.667   3.000  9.27008E-01  1.00475E+00 -7.77426E-02
    9023.341     27.587   3.040  9.08923E-01  1.00407E+00 -9.51439E-02
    9024.274     28.520   3.080  8.90744E-01  1.00335E+00 -1.12601E-01
    9025.219     29.465   3.120  8.73987E-01  1.00261E+00 -1.28623E-01
    9026.176     30.422   3.160  8.60121E-01  1.00187E+00 -1.41745E-01
    9027.145     31.391   3.200  8.50461E-01  1.00110E+00 -1.50635E-01
    9028.127     32.372   3.240  8.45983E-01  1.00035E+00 -1.54363E-01
    9029.120     33.366   3.280  8.46213E-01  9.99578E-01 -1.53365E-01
    9030.126     34.372   3.320  8.50651E-01  9.98857E-01 -1.48206E-01
    9031.144     35.390   3.360  8.58915E-01  9.98125E-01 -1.39211E-01
    9032.174     36.420   3.400  8.70811E-01  9.97446E-01 -1.26635E-01
    9033.217     37.463   3.440  8.85847E-01  9.96781E-01 -1.10933E-01
    9034.271     38.517   3.480  9.03456E-01  9.96151E-01 -9.26954E-02
    9035.338     39.584   3.520  9.22832E-01  9.95560E-01 -7.27280E-02
    9036.417     40.663   3.560  9.42824E-01  9.95009E-01 -5.21850E-02
    9037.508     41.754   3.600  9.62299E-01  9.94502E-01 -3.22023E-02
    9038.612     42.858   3.640  9.80015E-01  9.94059E-01 -1.40435E-02
    9039.727     43.973   3.680  9.94434E-01  9.93659E-01  7.74877E-04
    9040.855     45.101   3.720  1.00422E+00  9.93304E-01  1.09113E-02
    9041.995     46.241   3.760  1.00872E+00  9.92993E-01  1.57230E-02
    9043.147     47.393   3.800  1.00829E+00  9.92726E-01  1.55642E-02
    9044.311     48.557   3.840  1.00430E+00  9.92528E-01  1.17757E-02
    9045.488     49.734   3.880  9.98610E-01  9.92398E-01  6.21240E-03
    9046.677     50.923   3.920  9.92937E-01  9.92292E-01  6.44287E-04
    9047.878     52.123   3.960  9.88863E-01  9.92253E-01 -3.38997E-03
    9049.091     53.337   4.000  9.87962E-01  9.92282E-01 -4.32064E-03
    9050.316     54.562   4.040  9.91627E-01  9.92335E-01 -7.07557E-04
    9051.553     55.799   4.080  1.00089E+00  9.92451E-01  8.44095E-03
    9052.803     57.049   4.120  1.01592E+00  9.92611E-01  2.33107E-02
    9054.065     58.311   4.160  1.03590E+00  9.92813E-01  4.30864E-02
    9055.339     59.585   4.200  1.05907E+00  9.93056E-01  6.60091E-02
    9056.625     60.871   4.240  1.08249E+00  9.93341E-01  8.91480E-02
    9057.924     62.170   4.280  1.10272E+00  9.93687E-01  1.09030E-01
    9059.234     63.480   4.320  1.11658E+00  9.94050E-01  1.22535E-01
    9060.557     64.803   4.360  1.12209E+00  9.94447E-01  1.27643E-01
    9061.892     66.138   4.400  1.11873E+00  9.94858E-01  1.23876E-01
    9063.239     67.485   4.440  1.10772E+00  9.95325E-01  1.12395E-01
    9064.599     68.845   4.480  1.09137E+00  9.95805E-01  9.55655E-02
    9065.970     70.216   4.520  1.07276E+00  9.96316E-01  7.64490E-02
    9067.354     71.600   4.560  1.05504E+00  9.96833E-01  5.82089E-02
    9068.750     72.996   4.600  1.04052E+00  9.97356E-01  4.31669E-02
    9070.158     74.404   4.640  1.03027E+00  9.97906E-01  3.23669E-02
    9071.579     75.825   4.680  1.02402E+00  9.98461E-01  2.55617E-02
    9073.011     77.257   4.720  1.02062E+00  9.99018E-01  2.16053E-02
    9074.456     78.702   4.760  1.01864E+00  9.99598E-01  1.90375E-02
    9075.913     80.159   4.800  1.01669E+00  1.00015E+00  1.65368E-02
    9077.382     81.628   4.840  1.01394E+00  1.00071E+00  1.32330E-02
    9078.863     83.109   4.880  1.01021E+00  1.00125E+00  8.96065E-03
    9080.357     84.603   4.920  1.00581E+00  1.00177E+00  4.03782E-03
    9081.863     86.108   4.960  1.00099E+00  1.00231E+00 -1.31629E-03
    9083.381     87.626   5.000  9.95380E-01  1.00281E+00 -7.43234E-03
    9084.911     89.156   5.040  9.88041E-01  1.00328E+00 -1.52438E-02
    9086.453     90.699   5.080  9.78158E-01  1.00374E+00 -2.55870E-02
    9088.007     92.253   5.120  9.65613E-01  1.00417E+00 -3.85582E-02
    9089.574     93.820   5.160  9.51348E-01  1.00458E+00 -5.32369E-02
    9091.153     95.399   5.200  9.37046E-01  1.00494E+00 -6.78921E-02
    9092.744     96.990   5.240  9.24620E-01  1.00528E+00 -8.06578E-02
    9094.347     98.593   5.280  9.15548E-01  1.00560E+00 -9.00539E-02
    9095.963    100.208   5.320  9.10720E-01  1.00586E+00 -9.51451E-02
    9097.590    101.836   5.360  9.10664E-01  1.00609E+00 -9.54229E-02
    9099.230    103.476   5.400  9.15473E-01  1.00629E+00 -9.08182E-02
    9100.882    105.128   5.440  9.24659E-01  1.00643E+00 -8.17739E-02
    9102.546    106.792   5.480  9.37377E-01  1.00656E+00 -6.91785E-02
    9104.223    108.469   5.520  9.52535E-01  1.00661E+00 -5.40785E-02
    9105.911    110.157   5.560  9.69110E-01  1.00663E+00 -3.75200E-02
    9107.612    111.858   5.600  9.86188E-01  1.00663E+00 -2.04396E-02
    9109.325    113.571   5.640  1.00292E+00  1.00656E+00 -3.64115E-03
    9111.050    115.296   5.680  1.01874E+00  1.00645E+00  1.22915E-02
    9112.787    117.033   5.720  1.03327E+00  1.00630E+00  2.69640E-02
    9114.537    118.783   5.760  1.04608E+00  1.00614E+00  3.99374E-02
    9116.299    120.545   5.800  1.05623E+00  1.00591E+00  5.03178E-02
    9118.073    122.319   5.840  1.06223E+00  1.00564E+00  5.65904E-02
    9119.859    124.105   5.880  1.06237E+00  1.00533E+00  5.70433E-02
    9121.657    125.903   5.920  1.05574E+00  1.00499E+00  5.07480E-02
    9123.468    127.714   5.960  1.04313E+00  1.00461E+00  3.85223E-02
    9125.290    129.536   6.000  1.02696E+00  1.00419E+00  2.27714E-02
