# # comment:                                                     FEFF 9.9.1  
# # Source:
# # Structure
# # Reduced
# # space
# # abc:
# # angles:
# # sites:
# # POT  SCF 100  7.0000   0, screened core-hole, AFOLP (folp(0)= 1.150)
# # Abs   Z=29 Rmt= 1.182 Rnm= 1.279 K  shell
# # Pot 1 Z=39 Rmt= 1.675 Rnm= 1.721
# # Pot 2 Z=25 Rmt= 1.273 Rnm= 1.385
# # Pot 3 Z=29 Rmt= 1.224 Rnm= 1.306
# # Pot 4 Z= 8 Rmt= 1.028 Rnm= 1.098
# # Gam_ch=1.729E+00 H-L exch Vi= 0.000E+00 Vr= 0.000E+00
# # Mu=-1.007E+01eV kf=2.183E+00 Vint=-1.803E+01eV Rs_int= 1.662
# FMS rfms= 9.0000
# # PATH  Rmax=-1.000,  Keep_limit= 0.00, Heap_limit 0.00  Pwcrit= 2.50%
#  S02=0.950  Temp=   0.00  Debye_temp=   0.00  Global_sig2= 0.00000
#  Energy zero shift, vr, vi    0.00000E+00   0.00000E+00
#  Curved wave amplitude ratio filter   4.000%
#     file         sig2 tot  cw amp ratio   deg  nlegs   reff  inp sig2
#     0/   0 paths used
#  xsedge+ 50, used to normalize mu           2.4767E-04
#  -----------------------------------------------------------------------
#  omega    e    k    mu    mu0     chi     @#
    8984.503    -13.882  -1.000  3.41287E-02  5.13460E-02 -1.72173E-02
    8984.802    -13.583  -0.960  3.57592E-02  5.49823E-02 -1.92231E-02
    8985.088    -13.297  -0.920  3.74957E-02  5.90144E-02 -2.15186E-02
    8985.363    -13.022  -0.880  3.93478E-02  6.34995E-02 -2.41518E-02
    8985.625    -12.760  -0.840  4.13258E-02  6.85046E-02 -2.71788E-02
    8985.875    -12.510  -0.800  4.34416E-02  7.41068E-02 -3.06652E-02
    8986.113    -12.273  -0.760  4.57081E-02  8.03948E-02 -3.46867E-02
    8986.338    -12.047  -0.720  4.81393E-02  8.74685E-02 -3.93292E-02
    8986.551    -11.834  -0.680  5.07500E-02  9.54377E-02 -4.46877E-02
    8986.753    -11.633  -0.640  5.35547E-02  1.04418E-01 -5.08636E-02
    8986.942    -11.444  -0.600  5.65662E-02  1.14524E-01 -5.79576E-02
    8987.118    -11.267  -0.560  5.97927E-02  1.25851E-01 -6.60580E-02
    8987.283    -11.102  -0.520  6.32335E-02  1.38456E-01 -7.52221E-02
    8987.435    -10.950  -0.480  6.68733E-02  1.52325E-01 -8.54512E-02
    8987.576    -10.810  -0.440  7.06758E-02  1.67336E-01 -9.66602E-02
    8987.704    -10.682  -0.400  7.45784E-02  1.83231E-01 -1.08653E-01
    8987.819    -10.566  -0.360  7.84925E-02  1.99603E-01 -1.21111E-01
    8987.923    -10.462  -0.320  8.23099E-02  2.15925E-01 -1.33615E-01
    8988.015    -10.371  -0.280  8.59165E-02  2.31609E-01 -1.45693E-01
    8988.094    -10.292  -0.240  8.92074E-02  2.46091E-01 -1.56884E-01
    8988.161    -10.224  -0.200  9.20983E-02  2.58896E-01 -1.66798E-01
    8988.216    -10.170  -0.160  9.45281E-02  2.69674E-01 -1.75146E-01
    8988.258    -10.127  -0.120  9.64550E-02  2.78199E-01 -1.81744E-01
    8988.289    -10.096  -0.080  9.78511E-02  2.84344E-01 -1.86493E-01
    8988.313    -10.072   0.000  9.89854E-02  2.89284E-01 -1.90298E-01
    8988.368    -10.017   0.120  1.01677E-01  3.00433E-01 -1.98756E-01
    8988.411     -9.975   0.160  1.03732E-01  3.09108E-01 -2.05377E-01
    8988.466     -9.920   0.200  1.06347E-01  3.20182E-01 -2.13835E-01
    8988.533     -9.853   0.240  1.09567E-01  3.33535E-01 -2.23968E-01
    8988.612     -9.773   0.280  1.13438E-01  3.48919E-01 -2.35481E-01
    8988.703     -9.682   0.320  1.17964E-01  3.65946E-01 -2.47982E-01
    8988.807     -9.578   0.360  1.23262E-01  3.84156E-01 -2.60894E-01
    8988.923     -9.462   0.400  1.29467E-01  4.03037E-01 -2.73570E-01
    8989.051     -9.334   0.440  1.36790E-01  4.22162E-01 -2.85371E-01
    8989.191     -9.194   0.480  1.45401E-01  4.41163E-01 -2.95762E-01
    8989.343     -9.042   0.520  1.55349E-01  4.59819E-01 -3.04470E-01
    8989.508     -8.877   0.560  1.66441E-01  4.78009E-01 -3.11567E-01
    8989.685     -8.700   0.600  1.78158E-01  4.95702E-01 -3.17543E-01
    8989.874     -8.511   0.640  1.89901E-01  5.12948E-01 -3.23046E-01
    8990.075     -8.310   0.680  2.01255E-01  5.29807E-01 -3.28552E-01
    8990.288     -8.097   0.720  2.12185E-01  5.46372E-01 -3.34187E-01
    8990.514     -7.871   0.760  2.23015E-01  5.62692E-01 -3.39677E-01
    8990.752     -7.634   0.800  2.34563E-01  5.78848E-01 -3.44284E-01
    8991.002     -7.384   0.840  2.48613E-01  5.94889E-01 -3.46276E-01
    8991.264     -7.122   0.880  2.68676E-01  6.10854E-01 -3.42177E-01
    8991.538     -6.847   0.920  2.99792E-01  6.26766E-01 -3.26973E-01
    8991.825     -6.561   0.960  3.46001E-01  6.42618E-01 -2.96618E-01
    8992.123     -6.262   1.000  4.05734E-01  6.58437E-01 -2.52703E-01
    8992.434     -5.951   1.040  4.68721E-01  6.74197E-01 -2.05476E-01
    8992.757     -5.628   1.080  5.26980E-01  6.89907E-01 -1.62927E-01
    8993.092     -5.293   1.120  5.93403E-01  7.05512E-01 -1.12109E-01
    8993.440     -4.945   1.160  6.88836E-01  7.21009E-01 -3.21732E-02
    8993.800     -4.586   1.200  7.98604E-01  7.36374E-01  6.22297E-02
    8994.171     -4.214   1.240  8.49011E-01  7.51560E-01  9.74511E-02
    8994.555     -3.830   1.280  7.83967E-01  7.66535E-01  1.74316E-02
    8994.952     -3.434   1.320  6.54631E-01  7.81269E-01 -1.26638E-01
    8995.360     -3.025   1.360  5.44213E-01  7.95730E-01 -2.51517E-01
    8995.781     -2.604   1.400  4.86858E-01  8.09863E-01 -3.23004E-01
    8996.214     -2.172   1.440  4.79562E-01  8.23676E-01 -3.44114E-01
    8996.659     -1.727   1.480  5.07648E-01  8.37096E-01 -3.29448E-01
    8997.116     -1.269   1.520  5.53417E-01  8.50111E-01 -2.96694E-01
    8997.585     -0.800   1.560  5.98398E-01  8.62689E-01 -2.64291E-01
    8998.067     -0.318   1.600  6.36646E-01  8.74821E-01 -2.38175E-01
    8998.561      0.175   1.640  6.74826E-01  8.86457E-01 -2.11631E-01
    8999.067      0.681   1.680  7.09216E-01  8.97610E-01 -1.88394E-01
    8999.585      1.199   1.720  7.34343E-01  9.08254E-01 -1.73911E-01
    9000.115      1.730   1.760  7.67847E-01  9.18362E-01 -1.50515E-01
    9000.658      2.272   1.800  8.29786E-01  9.27931E-01 -9.81444E-02
    9001.212      2.827   1.840  9.11363E-01  9.36980E-01 -2.56166E-02
    9001.779      3.394   1.880  9.71221E-01  9.45467E-01  2.57542E-02
    9002.358      3.973   1.920  9.96425E-01  9.53414E-01  4.30105E-02
    9002.950      4.564   1.960  1.04187E+00  9.60824E-01  8.10496E-02
    9003.553      5.168   2.000  1.13253E+00  9.67718E-01  1.64812E-01
    9004.169      5.784   2.040  1.21210E+00  9.74064E-01  2.38036E-01
    9004.797      6.411   2.080  1.23432E+00  9.79905E-01  2.54412E-01
    9005.437      7.052   2.120  1.22961E+00  9.85247E-01  2.44358E-01
    9006.089      7.704   2.160  1.24679E+00  9.90100E-01  2.56695E-01
    9006.754      8.368   2.200  1.31587E+00  9.94472E-01  3.21402E-01
    9007.430      9.045   2.240  1.41882E+00  9.98390E-01  4.20426E-01
    9008.119      9.734   2.280  1.48649E+00  1.00188E+00  4.84603E-01
    9008.820     10.435   2.320  1.48625E+00  1.00495E+00  4.81300E-01
    9009.533     11.148   2.360  1.44888E+00  1.00762E+00  4.41256E-01
    9010.259     11.873   2.400  1.39545E+00  1.00993E+00  3.85518E-01
    9010.996     12.611   2.440  1.33247E+00  1.01185E+00  3.20618E-01
    9011.746     13.361   2.480  1.27163E+00  1.01347E+00  2.58168E-01
    9012.508     14.123   2.520  1.22060E+00  1.01476E+00  2.05836E-01
    9013.282     14.897   2.560  1.17629E+00  1.01576E+00  1.60525E-01
    9014.069     15.683   2.600  1.13203E+00  1.01648E+00  1.15542E-01
    9014.867     16.482   2.640  1.08761E+00  1.01696E+00  7.06567E-02
    9015.678     17.293   2.680  1.04401E+00  1.01721E+00  2.67970E-02
    9016.501     18.116   2.720  1.00694E+00  1.01724E+00 -1.03019E-02
    9017.336     18.951   2.760  9.79511E-01  1.01709E+00 -3.75784E-02
    9018.183     19.798   2.800  9.61427E-01  1.01675E+00 -5.53183E-02
    9019.043     20.658   2.840  9.50256E-01  1.01624E+00 -6.59845E-02
    9019.915     21.529   2.880  9.41747E-01  1.01560E+00 -7.38568E-02
    9020.799     22.413   2.920  9.32727E-01  1.01484E+00 -8.21165E-02
    9021.695     23.310   2.960  9.22412E-01  1.01399E+00 -9.15749E-02
    9022.603     24.218   3.000  9.11391E-01  1.01302E+00 -1.01629E-01
    9023.524     25.138   3.040  9.00745E-01  1.01197E+00 -1.11226E-01
    9024.456     26.071   3.080  8.91471E-01  1.01085E+00 -1.19376E-01
    9025.401     27.016   3.120  8.84223E-01  1.00969E+00 -1.25471E-01
    9026.358     27.973   3.160  8.79186E-01  1.00848E+00 -1.29292E-01
    9027.327     28.942   3.200  8.76663E-01  1.00722E+00 -1.30560E-01
    9028.309     29.924   3.240  8.76596E-01  1.00596E+00 -1.29363E-01
    9029.303     30.917   3.280  8.77909E-01  1.00469E+00 -1.26776E-01
    9030.308     31.923   3.320  8.79452E-01  1.00339E+00 -1.23937E-01
    9031.326     32.941   3.360  8.80849E-01  1.00211E+00 -1.21264E-01
    9032.357     33.971   3.400  8.82078E-01  1.00084E+00 -1.18766E-01
    9033.399     35.014   3.440  8.83143E-01  9.99604E-01 -1.16460E-01
    9034.454     36.068   3.480  8.84296E-01  9.98375E-01 -1.14079E-01
    9035.520     37.135   3.520  8.86184E-01  9.97182E-01 -1.10999E-01
    9036.599     38.214   3.560  8.89715E-01  9.96049E-01 -1.06334E-01
    9037.691     39.305   3.600  8.96010E-01  9.94932E-01 -9.89219E-02
    9038.794     40.409   3.640  9.06078E-01  9.93856E-01 -8.77783E-02
    9039.910     41.524   3.680  9.20431E-01  9.92823E-01 -7.23922E-02
    9041.037     42.652   3.720  9.38740E-01  9.91857E-01 -5.31172E-02
    9042.177     43.792   3.760  9.59661E-01  9.90938E-01 -3.12768E-02
    9043.329     44.944   3.800  9.80583E-01  9.90087E-01 -9.50386E-03
    9044.494     46.108   3.840  9.98099E-01  9.89286E-01  8.81272E-03
    9045.670     47.285   3.880  1.00951E+00  9.88555E-01  2.09517E-02
    9046.859     48.474   3.920  1.01368E+00  9.87873E-01  2.58041E-02
    9048.060     49.675   3.960  1.01123E+00  9.87261E-01  2.39705E-02
    9049.273     50.888   4.000  1.00400E+00  9.86699E-01  1.72972E-02
    9050.498     52.113   4.040  9.94657E-01  9.86207E-01  8.45006E-03
    9051.736     53.350   4.080  9.86297E-01  9.85766E-01  5.30816E-04
    9052.985     54.600   4.120  9.81834E-01  9.85397E-01 -3.56277E-03
    9054.247     55.862   4.160  9.83259E-01  9.85098E-01 -1.83846E-03
    9055.521     57.136   4.200  9.90980E-01  9.84847E-01  6.13323E-03
    9056.808     58.422   4.240  1.00357E+00  9.84644E-01  1.89283E-02
    9058.106     59.721   4.280  1.01825E+00  9.84510E-01  3.37381E-02
    9059.417     61.031   4.320  1.03199E+00  9.84424E-01  4.75695E-02
    9060.739     62.354   4.360  1.04292E+00  9.84404E-01  5.85207E-02
    9062.075     63.689   4.400  1.05072E+00  9.84430E-01  6.62895E-02
    9063.422     65.036   4.440  1.05596E+00  9.84499E-01  7.14605E-02
    9064.781     66.396   4.480  1.05871E+00  9.84610E-01  7.40982E-02
    9066.153     67.767   4.520  1.05844E+00  9.84785E-01  7.36569E-02
    9067.537     69.151   4.560  1.05501E+00  9.84980E-01  7.00341E-02
    9068.932     70.547   4.600  1.04958E+00  9.85233E-01  6.43493E-02
    9070.341     71.955   4.640  1.04411E+00  9.85502E-01  5.86090E-02
    9071.761     73.376   4.680  1.04055E+00  9.85806E-01  5.47433E-02
    9073.194     74.808   4.720  1.03991E+00  9.86144E-01  5.37649E-02
    9074.638     76.253   4.760  1.04211E+00  9.86492E-01  5.56212E-02
    9076.095     77.710   4.800  1.04636E+00  9.86872E-01  5.94914E-02
    9077.564     79.179   4.840  1.05143E+00  9.87260E-01  6.41749E-02
    9079.046     80.660   4.880  1.05596E+00  9.87676E-01  6.82819E-02
    9080.539     82.154   4.920  1.05836E+00  9.88100E-01  7.02611E-02
    9082.045     83.660   4.960  1.05727E+00  9.88549E-01  6.87168E-02
    9083.563     85.178   5.000  1.05198E+00  9.88979E-01  6.30055E-02
    9085.093     86.708   5.040  1.04287E+00  9.89432E-01  5.34400E-02
    9086.635     88.250   5.080  1.03081E+00  9.89883E-01  4.09279E-02
    9088.190     89.804   5.120  1.01670E+00  9.90311E-01  2.63841E-02
    9089.756     91.371   5.160  1.00127E+00  9.90757E-01  1.05128E-02
    9091.335     92.950   5.200  9.85051E-01  9.91176E-01 -6.12555E-03
    9092.926     94.541   5.240  9.68497E-01  9.91589E-01 -2.30919E-02
    9094.529     96.144   5.280  9.51933E-01  9.91973E-01 -4.00401E-02
    9096.145     97.760   5.320  9.35879E-01  9.92370E-01 -5.64906E-02
    9097.773     99.387   5.360  9.21069E-01  9.92713E-01 -7.16445E-02
    9099.412    101.027   5.400  9.08514E-01  9.93046E-01 -8.45317E-02
    9101.064    102.679   5.440  8.99092E-01  9.93366E-01 -9.42744E-02
    9102.729    104.343   5.480  8.93427E-01  9.93630E-01 -1.00203E-01
    9104.405    106.020   5.520  8.92031E-01  9.93881E-01 -1.01850E-01
    9106.094    107.708   5.560  8.95124E-01  9.94118E-01 -9.89947E-02
    9107.794    109.409   5.600  9.02469E-01  9.94298E-01 -9.18291E-02
    9109.507    111.122   5.640  9.13567E-01  9.94461E-01 -8.08942E-02
    9111.232    112.847   5.680  9.27793E-01  9.94584E-01 -6.67915E-02
    9112.970    114.585   5.720  9.44512E-01  9.94646E-01 -5.01347E-02
    9114.719    116.334   5.760  9.63075E-01  9.94694E-01 -3.16193E-02
    9116.481    118.096   5.800  9.82509E-01  9.94728E-01 -1.22194E-02
    9118.255    119.870   5.840  1.00138E+00  9.94701E-01  6.68205E-03
    9120.041    121.656   5.880  1.01800E+00  9.94633E-01  2.33625E-02
    9121.839    123.454   5.920  1.03071E+00  9.94525E-01  3.61818E-02
    9123.650    125.265   5.960  1.03836E+00  9.94376E-01  4.39834E-02
    9125.473    127.087   6.000  1.04014E+00  9.94193E-01  4.59497E-02
