# # comment:                                                     FEFF 9.9.1  
# # Source:
# # Structure
# # Reduced
# # space
# # abc:
# # angles:
# # sites:
# # POT  SCF 100  7.0000   0, screened core-hole, AFOLP (folp(0)= 1.150)
# # Abs   Z=29 Rmt= 1.267 Rnm= 1.326 K  shell
# # Pot 1 Z= 3 Rmt= 1.275 Rnm= 1.326
# # Pot 2 Z=29 Rmt= 1.235 Rnm= 1.298
# # Pot 3 Z= 8 Rmt= 1.070 Rnm= 1.119
# # Gam_ch=1.729E+00 H-L exch Vi= 0.000E+00 Vr= 0.000E+00
# # Mu=-8.356E+00eV kf=2.098E+00 Vint=-1.628E+01eV Rs_int= 1.729
# FMS rfms= 9.0000
# # PATH  Rmax=-1.000,  Keep_limit= 0.00, Heap_limit 0.00  Pwcrit= 2.50%
#  S02=0.950  Temp=   0.00  Debye_temp=   0.00  Global_sig2= 0.00000
#  Energy zero shift, vr, vi    0.00000E+00   0.00000E+00
#  Curved wave amplitude ratio filter   4.000%
#     file         sig2 tot  cw amp ratio   deg  nlegs   reff  inp sig2
#     0/   0 paths used
#  xsedge+ 50, used to normalize mu           2.4451E-04
#  -----------------------------------------------------------------------
#  omega    e    k    mu    mu0     chi     @#
    8984.207    -12.166  -1.000  3.56660E-02  5.80915E-02 -2.24254E-02
    8984.505    -11.868  -0.960  3.72782E-02  6.23974E-02 -2.51193E-02
    8984.792    -11.581  -0.920  3.89995E-02  6.71864E-02 -2.81869E-02
    8985.066    -11.307  -0.880  4.08449E-02  7.25294E-02 -3.16845E-02
    8985.328    -11.045  -0.840  4.28326E-02  7.85092E-02 -3.56766E-02
    8985.578    -10.795  -0.800  4.49851E-02  8.52218E-02 -4.02367E-02
    8985.816    -10.557  -0.760  4.73291E-02  9.27770E-02 -4.54479E-02
    8986.042    -10.331  -0.720  4.98969E-02  1.01299E-01 -5.14021E-02
    8986.255    -10.118  -0.680  5.27256E-02  1.10925E-01 -5.81990E-02
    8986.456     -9.917  -0.640  5.58558E-02  1.21798E-01 -6.59421E-02
    8986.645     -9.728  -0.600  5.93286E-02  1.34061E-01 -7.47320E-02
    8986.822     -9.551  -0.560  6.31781E-02  1.47833E-01 -8.46553E-02
    8986.986     -9.387  -0.520  6.74205E-02  1.63188E-01 -9.57678E-02
    8987.139     -9.234  -0.480  7.20377E-02  1.80109E-01 -1.08071E-01
    8987.279     -9.094  -0.440  7.69602E-02  1.98448E-01 -1.21487E-01
    8987.407     -8.966  -0.400  8.20540E-02  2.17885E-01 -1.35831E-01
    8987.523     -8.850  -0.360  8.71250E-02  2.37920E-01 -1.50795E-01
    8987.626     -8.747  -0.320  9.19447E-02  2.57901E-01 -1.65957E-01
    8987.718     -8.655  -0.280  9.62963E-02  2.77105E-01 -1.80809E-01
    8987.797     -8.576  -0.240  1.00021E-01  2.94836E-01 -1.94815E-01
    8987.864     -8.509  -0.200  1.03042E-01  3.10509E-01 -2.07467E-01
    8987.919     -8.454  -0.160  1.05364E-01  3.23696E-01 -2.18332E-01
    8987.962     -8.411  -0.120  1.07043E-01  3.34122E-01 -2.27080E-01
    8987.992     -8.381  -0.080  1.08149E-01  3.41635E-01 -2.33485E-01
    8988.017     -8.356   0.000  1.08926E-01  3.47670E-01 -2.38744E-01
    8988.071     -8.302   0.120  1.10768E-01  3.61300E-01 -2.50532E-01
    8988.114     -8.259   0.160  1.12051E-01  3.71871E-01 -2.59820E-01
    8988.169     -8.204   0.200  1.13521E-01  3.85402E-01 -2.71882E-01
    8988.236     -8.137   0.240  1.14981E-01  4.01676E-01 -2.86695E-01
    8988.315     -8.058   0.280  1.16251E-01  4.20374E-01 -3.04123E-01
    8988.407     -7.966   0.320  1.17164E-01  4.41033E-01 -3.23868E-01
    8988.510     -7.863   0.360  1.17644E-01  4.63051E-01 -3.45407E-01
    8988.626     -7.747   0.400  1.17715E-01  4.85811E-01 -3.68096E-01
    8988.754     -7.619   0.440  1.17565E-01  5.08725E-01 -3.91160E-01
    8988.894     -7.479   0.480  1.17422E-01  5.31334E-01 -4.13912E-01
    8989.047     -7.326   0.520  1.17596E-01  5.53356E-01 -4.35760E-01
    8989.211     -7.162   0.560  1.18323E-01  5.74616E-01 -4.56293E-01
    8989.388     -6.985   0.600  1.19827E-01  5.95097E-01 -4.75270E-01
    8989.577     -6.796   0.640  1.22269E-01  6.14812E-01 -4.92544E-01
    8989.778     -6.595   0.680  1.25802E-01  6.33857E-01 -5.08055E-01
    8989.992     -6.381   0.720  1.30607E-01  6.52300E-01 -5.21693E-01
    8990.217     -6.156   0.760  1.36890E-01  6.70205E-01 -5.33315E-01
    8990.455     -5.918   0.800  1.45025E-01  6.87690E-01 -5.42664E-01
    8990.705     -5.668   0.840  1.55477E-01  7.04754E-01 -5.49278E-01
    8990.967     -5.406   0.880  1.68995E-01  7.21465E-01 -5.52470E-01
    8991.241     -5.132   0.920  1.86604E-01  7.37835E-01 -5.51230E-01
    8991.528     -4.845   0.960  2.09645E-01  7.53861E-01 -5.44217E-01
    8991.827     -4.546   1.000  2.39529E-01  7.69575E-01 -5.30045E-01
    8992.137     -4.236   1.040  2.77241E-01  7.84953E-01 -5.07712E-01
    8992.461     -3.912   1.080  3.24103E-01  7.99948E-01 -4.75845E-01
    8992.796     -3.577   1.120  3.84031E-01  8.14587E-01 -4.30556E-01
    8993.143     -3.230   1.160  4.60852E-01  8.28812E-01 -3.67960E-01
    8993.503     -2.870   1.200  5.45515E-01  8.42600E-01 -2.97085E-01
    8993.875     -2.498   1.240  6.10161E-01  8.55948E-01 -2.45787E-01
    8994.259     -2.114   1.280  6.41592E-01  8.68791E-01 -2.27199E-01
    8994.655     -1.718   1.320  6.65318E-01  8.81125E-01 -2.15807E-01
    8995.064     -1.309   1.360  7.04162E-01  8.92922E-01 -1.88760E-01
    8995.484     -0.889   1.400  7.48804E-01  9.04181E-01 -1.55377E-01
    8995.917     -0.456   1.440  7.81307E-01  9.14855E-01 -1.33548E-01
    8996.362     -0.011   1.480  8.08621E-01  9.24942E-01 -1.16322E-01
    8996.819      0.446   1.520  8.56348E-01  9.34464E-01 -7.81161E-02
    8997.289      0.916   1.560  9.42648E-01  9.43359E-01 -7.11097E-04
    8997.770      1.397   1.600  1.07118E+00  9.51689E-01  1.19491E-01
    8998.264      1.891   1.640  1.23519E+00  9.59396E-01  2.75796E-01
    8998.770      2.397   1.680  1.39693E+00  9.66527E-01  4.30405E-01
    8999.288      2.915   1.720  1.50945E+00  9.73067E-01  5.36382E-01
    8999.818      3.445   1.760  1.62669E+00  9.79046E-01  6.47647E-01
    9000.361      3.988   1.800  1.83239E+00  9.84471E-01  8.47914E-01
    9000.916      4.543   1.840  2.06889E+00  9.89373E-01  1.07952E+00
    9001.483      5.110   1.880  2.18324E+00  9.93742E-01  1.18950E+00
    9002.062      5.689   1.920  2.10714E+00  9.97632E-01  1.10951E+00
    9002.653      6.280   1.960  1.91117E+00  1.00105E+00  9.10115E-01
    9003.257      6.884   2.000  1.69175E+00  1.00402E+00  6.87728E-01
    9003.872      7.499   2.040  1.48716E+00  1.00657E+00  4.80592E-01
    9004.500      8.127   2.080  1.30361E+00  1.00871E+00  2.94906E-01
    9005.140      8.767   2.120  1.15201E+00  1.01049E+00  1.41519E-01
    9005.792      9.419   2.160  1.04405E+00  1.01193E+00  3.21201E-02
    9006.457     10.084   2.200  9.76655E-01  1.01305E+00 -3.63974E-02
    9007.134     10.761   2.240  9.34292E-01  1.01388E+00 -7.95836E-02
    9007.822     11.449   2.280  8.99863E-01  1.01444E+00 -1.14578E-01
    9008.523     12.150   2.320  8.63920E-01  1.01476E+00 -1.50839E-01
    9009.237     12.864   2.360  8.27522E-01  1.01486E+00 -1.87342E-01
    9009.962     13.589   2.400  7.97839E-01  1.01479E+00 -2.16948E-01
    9010.700     14.327   2.440  7.80577E-01  1.01452E+00 -2.33940E-01
    9011.450     15.077   2.480  7.78396E-01  1.01411E+00 -2.35710E-01
    9012.212     15.839   2.520  8.00842E-01  1.01355E+00 -2.12705E-01
    9012.986     16.613   2.560  8.38143E-01  1.01289E+00 -1.74743E-01
    9013.772     17.399   2.600  8.81641E-01  1.01214E+00 -1.30495E-01
    9014.571     18.198   2.640  9.25349E-01  1.01130E+00 -8.59548E-02
    9015.381     19.008   2.680  9.61564E-01  1.01040E+00 -4.88324E-02
    9016.204     19.831   2.720  9.81825E-01  1.00944E+00 -2.76180E-02
    9017.040     20.667   2.760  9.83513E-01  1.00847E+00 -2.49584E-02
    9017.887     21.514   2.800  9.69422E-01  1.00747E+00 -3.80463E-02
    9018.746     22.373   2.840  9.44994E-01  1.00646E+00 -6.14651E-02
    9019.618     23.245   2.880  9.16016E-01  1.00545E+00 -8.94323E-02
    9020.502     24.129   2.920  8.87274E-01  1.00446E+00 -1.17189E-01
    9021.398     25.025   2.960  8.63556E-01  1.00349E+00 -1.39932E-01
    9022.306     25.933   3.000  8.47201E-01  1.00254E+00 -1.55344E-01
    9023.227     26.854   3.040  8.38015E-01  1.00162E+00 -1.63603E-01
    9024.160     27.787   3.080  8.34459E-01  1.00075E+00 -1.66293E-01
    9025.105     28.732   3.120  8.34426E-01  9.99931E-01 -1.65505E-01
    9026.062     29.689   3.160  8.36365E-01  9.99176E-01 -1.62811E-01
    9027.031     30.658   3.200  8.39915E-01  9.98470E-01 -1.58555E-01
    9028.012     31.639   3.240  8.46349E-01  9.97812E-01 -1.51464E-01
    9029.006     32.633   3.280  8.57100E-01  9.97226E-01 -1.40126E-01
    9030.012     33.639   3.320  8.73395E-01  9.96714E-01 -1.23318E-01
    9031.030     34.657   3.360  8.94990E-01  9.96253E-01 -1.01263E-01
    9032.060     35.687   3.400  9.19582E-01  9.95869E-01 -7.62871E-02
    9033.102     36.729   3.440  9.43670E-01  9.95561E-01 -5.18902E-02
    9034.157     37.784   3.480  9.64494E-01  9.95328E-01 -3.08333E-02
    9035.224     38.851   3.520  9.81189E-01  9.95149E-01 -1.39599E-02
    9036.303     39.930   3.560  9.94742E-01  9.95045E-01 -3.02995E-04
    9037.394     41.021   3.600  1.00725E+00  9.95016E-01  1.22336E-02
    9038.497     42.124   3.640  1.02067E+00  9.95063E-01  2.56047E-02
    9039.613     43.240   3.680  1.03594E+00  9.95163E-01  4.07783E-02
    9040.741     44.368   3.720  1.05346E+00  9.95335E-01  5.81272E-02
    9041.881     45.508   3.760  1.07306E+00  9.95579E-01  7.74824E-02
    9043.033     46.660   3.800  1.09400E+00  9.95871E-01  9.81337E-02
    9044.197     47.824   3.840  1.11483E+00  9.96208E-01  1.18622E-01
    9045.374     49.001   3.880  1.13365E+00  9.96591E-01  1.37062E-01
    9046.562     50.189   3.920  1.14896E+00  9.97041E-01  1.51921E-01
    9047.763     51.390   3.960  1.16018E+00  9.97533E-01  1.62651E-01
    9048.976     52.603   4.000  1.16785E+00  9.98067E-01  1.69783E-01
    9050.202     53.829   4.040  1.17245E+00  9.98640E-01  1.73813E-01
    9051.439     55.066   4.080  1.17356E+00  9.99251E-01  1.74313E-01
    9052.689     56.316   4.120  1.16962E+00  9.99897E-01  1.69727E-01
    9053.951     57.578   4.160  1.15884E+00  1.00055E+00  1.58281E-01
    9055.225     58.852   4.200  1.14053E+00  1.00124E+00  1.39286E-01
    9056.511     60.138   4.240  1.11592E+00  1.00196E+00  1.13961E-01
    9057.809     61.436   4.280  1.08764E+00  1.00266E+00  8.49731E-02
    9059.120     62.747   4.320  1.05849E+00  1.00339E+00  5.51035E-02
    9060.443     64.070   4.360  1.03069E+00  1.00412E+00  2.65784E-02
    9061.778     65.405   4.400  1.00586E+00  1.00484E+00  1.01762E-03
    9063.125     66.752   4.440  9.84977E-01  1.00557E+00 -2.05884E-02
    9064.485     68.112   4.480  9.68320E-01  1.00628E+00 -3.79647E-02
    9065.856     69.483   4.520  9.55566E-01  1.00698E+00 -5.14091E-02
    9067.240     70.867   4.560  9.46039E-01  1.00766E+00 -6.16188E-02
    9068.636     72.263   4.600  9.39040E-01  1.00833E+00 -6.92900E-02
    9070.044     73.671   4.640  9.34104E-01  1.00897E+00 -7.48647E-02
    9071.464     75.091   4.680  9.31125E-01  1.00957E+00 -7.84477E-02
    9072.897     76.524   4.720  9.30385E-01  1.01016E+00 -7.97772E-02
    9074.342     77.969   4.760  9.32310E-01  1.01071E+00 -7.84037E-02
    9075.799     79.426   4.800  9.36951E-01  1.01122E+00 -7.42739E-02
    9077.268     80.895   4.840  9.43568E-01  1.01169E+00 -6.81261E-02
    9078.749     82.376   4.880  9.50712E-01  1.01212E+00 -6.14072E-02
    9080.243     83.870   4.920  9.56843E-01  1.01248E+00 -5.56361E-02
    9081.748     85.375   4.960  9.61082E-01  1.01282E+00 -5.17367E-02
    9083.266     86.893   5.000  9.63262E-01  1.01311E+00 -4.98528E-02
    9084.796     88.423   5.040  9.63921E-01  1.01334E+00 -4.94217E-02
    9086.339     89.966   5.080  9.64447E-01  1.01352E+00 -4.90763E-02
    9087.893     91.520   5.120  9.66720E-01  1.01366E+00 -4.69410E-02
    9089.460     93.087   5.160  9.72336E-01  1.01375E+00 -4.14177E-02
    9091.039     94.666   5.200  9.81504E-01  1.01380E+00 -3.22954E-02
    9092.630     96.257   5.240  9.92322E-01  1.01378E+00 -2.14547E-02
    9094.233     97.860   5.280  1.00148E+00  1.01371E+00 -1.22286E-02
    9095.848     99.475   5.320  1.00609E+00  1.01359E+00 -7.50071E-03
    9097.476    101.103   5.360  1.00567E+00  1.01341E+00 -7.73920E-03
    9099.116    102.743   5.400  1.00236E+00  1.01320E+00 -1.08426E-02
    9100.768    104.395   5.440  9.99384E-01  1.01293E+00 -1.35458E-02
    9102.432    106.059   5.480  9.99615E-01  1.01261E+00 -1.29985E-02
    9104.108    107.735   5.520  1.00433E+00  1.01225E+00 -7.92699E-03
    9105.797    109.424   5.560  1.01258E+00  1.01185E+00  7.25176E-04
    9107.498    111.125   5.600  1.02177E+00  1.01141E+00  1.03617E-02
    9109.211    112.838   5.640  1.02925E+00  1.01093E+00  1.83181E-02
    9110.936    114.563   5.680  1.03353E+00  1.01042E+00  2.31103E-02
    9112.673    116.300   5.720  1.03438E+00  1.00989E+00  2.44914E-02
    9114.423    118.050   5.760  1.03204E+00  1.00932E+00  2.27127E-02
    9116.184    119.811   5.800  1.02700E+00  1.00872E+00  1.82717E-02
    9117.958    121.585   5.840  1.02048E+00  1.00809E+00  1.23824E-02
    9119.745    123.372   5.880  1.01433E+00  1.00746E+00  6.87352E-03
    9121.543    125.170   5.920  1.01013E+00  1.00680E+00  3.33388E-03
    9123.353    126.980   5.960  1.00885E+00  1.00614E+00  2.70425E-03
    9125.176    128.803   6.000  1.01102E+00  1.00544E+00  5.57062E-03
