# # comment:                                                     FEFF 9.9.1  
# # Source:
# # Structure
# # Reduced
# # space
# # abc:
# # angles:
# # sites:
# # POT  SCF 100  7.0000   0, screened core-hole, AFOLP (folp(0)= 1.150)
# # Abs   Z=29 Rmt= 1.253 Rnm= 1.313 K  shell
# # Pot 1 Z=24 Rmt= 1.164 Rnm= 1.351
# # Pot 2 Z=29 Rmt= 1.248 Rnm= 1.310
# # Pot 3 Z= 8 Rmt= 0.798 Rnm= 0.987
# # Pot 4 Z= 9 Rmt= 1.024 Rnm= 1.147
# # Gam_ch=1.729E+00 H-L exch Vi= 0.000E+00 Vr= 0.000E+00
# # Mu=-7.181E+00eV kf=2.334E+00 Vint=-1.489E+01eV Rs_int= 1.554
# FMS rfms= 9.0000
# # PATH  Rmax=-1.000,  Keep_limit= 0.00, Heap_limit 0.00  Pwcrit= 2.50%
#  S02=0.950  Temp=   0.00  Debye_temp=   0.00  Global_sig2= 0.00000
#  Energy zero shift, vr, vi    0.00000E+00   0.00000E+00
#  Curved wave amplitude ratio filter   4.000%
#     file         sig2 tot  cw amp ratio   deg  nlegs   reff  inp sig2
#     0/   0 paths used
#  xsedge+ 50, used to normalize mu           2.4446E-04
#  -----------------------------------------------------------------------
#  omega    e    k    mu    mu0     chi     @#
    8983.336    -10.991  -1.000  3.64932E-02  5.67028E-02 -2.02096E-02
    8983.635    -10.692  -0.960  3.82230E-02  6.08678E-02 -2.26447E-02
    8983.921    -10.405  -0.920  4.00621E-02  6.54967E-02 -2.54345E-02
    8984.195    -10.131  -0.880  4.20200E-02  7.06576E-02 -2.86376E-02
    8984.458     -9.869  -0.840  4.41069E-02  7.64296E-02 -3.23227E-02
    8984.707     -9.619  -0.800  4.63347E-02  8.29044E-02 -3.65697E-02
    8984.945     -9.381  -0.760  4.87158E-02  9.01870E-02 -4.14712E-02
    8985.171     -9.156  -0.720  5.12638E-02  9.83960E-02 -4.71321E-02
    8985.384     -8.942  -0.680  5.39927E-02  1.07662E-01 -5.36692E-02
    8985.585     -8.741  -0.640  5.69160E-02  1.18122E-01 -6.12063E-02
    8985.774     -8.552  -0.600  6.00455E-02  1.29912E-01 -6.98670E-02
    8985.951     -8.376  -0.560  6.33885E-02  1.43147E-01 -7.97589E-02
    8986.116     -8.211  -0.520  6.69442E-02  1.57895E-01 -9.09509E-02
    8986.268     -8.059  -0.480  7.06990E-02  1.74140E-01 -1.03441E-01
    8986.408     -7.918  -0.440  7.46210E-02  1.91740E-01 -1.17119E-01
    8986.536     -7.790  -0.400  7.86551E-02  2.10390E-01 -1.31734E-01
    8986.652     -7.674  -0.360  8.27223E-02  2.29609E-01 -1.46887E-01
    8986.756     -7.571  -0.320  8.67231E-02  2.48776E-01 -1.62053E-01
    8986.847     -7.479  -0.280  9.05473E-02  2.67198E-01 -1.76651E-01
    8986.926     -7.400  -0.240  9.40862E-02  2.84208E-01 -1.90122E-01
    8986.993     -7.333  -0.200  9.72423E-02  2.99246E-01 -2.02004E-01
    8987.048     -7.278  -0.160  9.99355E-02  3.11902E-01 -2.11966E-01
    8987.091     -7.236  -0.120  1.02105E-01  3.21910E-01 -2.19805E-01
    8987.121     -7.205  -0.080  1.03705E-01  3.29123E-01 -2.25418E-01
    8987.146     -7.181   0.000  1.05051E-01  3.34920E-01 -2.29869E-01
    8987.201     -7.126   0.120  1.08042E-01  3.47989E-01 -2.39947E-01
    8987.243     -7.083   0.160  1.10335E-01  3.58162E-01 -2.47827E-01
    8987.298     -7.028   0.200  1.13317E-01  3.71162E-01 -2.57845E-01
    8987.365     -6.961   0.240  1.16979E-01  3.86803E-01 -2.69823E-01
    8987.445     -6.882   0.280  1.21385E-01  4.04805E-01 -2.83420E-01
    8987.536     -6.791   0.320  1.26534E-01  4.24690E-01 -2.98156E-01
    8987.640     -6.687   0.360  1.32517E-01  4.45927E-01 -3.13410E-01
    8987.755     -6.571   0.400  1.39422E-01  4.67911E-01 -3.28489E-01
    8987.883     -6.443   0.440  1.47368E-01  4.90083E-01 -3.42715E-01
    8988.024     -6.303   0.480  1.56563E-01  5.12028E-01 -3.55465E-01
    8988.176     -6.150   0.520  1.67242E-01  5.33457E-01 -3.66215E-01
    8988.341     -5.986   0.560  1.79552E-01  5.54204E-01 -3.74652E-01
    8988.517     -5.809   0.600  1.93552E-01  5.74271E-01 -3.80719E-01
    8988.706     -5.620   0.640  2.08856E-01  5.93671E-01 -3.84815E-01
    8988.908     -5.419   0.680  2.24532E-01  6.12452E-01 -3.87921E-01
    8989.121     -5.206   0.720  2.39421E-01  6.30738E-01 -3.91317E-01
    8989.346     -4.980   0.760  2.52756E-01  6.48567E-01 -3.95811E-01
    8989.584     -4.742   0.800  2.65268E-01  6.66009E-01 -4.00741E-01
    8989.834     -4.492   0.840  2.78980E-01  6.83122E-01 -4.04142E-01
    8990.096     -4.230   0.880  2.95984E-01  6.99926E-01 -4.03941E-01
    8990.371     -3.956   0.920  3.17230E-01  7.16449E-01 -3.99219E-01
    8990.657     -3.669   0.960  3.41444E-01  7.32687E-01 -3.91243E-01
    8990.956     -3.371   1.000  3.65988E-01  7.48645E-01 -3.82657E-01
    8991.267     -3.060   1.040  3.89725E-01  7.64299E-01 -3.74573E-01
    8991.590     -2.737   1.080  4.14405E-01  7.79659E-01 -3.65254E-01
    8991.925     -2.401   1.120  4.42993E-01  7.94667E-01 -3.51674E-01
    8992.273     -2.054   1.160  4.78288E-01  8.09303E-01 -3.31015E-01
    8992.632     -1.694   1.200  5.22197E-01  8.23524E-01 -3.01327E-01
    8993.004     -1.322   1.240  5.75635E-01  8.37345E-01 -2.61710E-01
    8993.388     -0.938   1.280  6.37944E-01  8.50678E-01 -2.12734E-01
    8993.784     -0.542   1.320  7.05201E-01  8.63534E-01 -1.58334E-01
    8994.193     -0.134   1.360  7.69191E-01  8.75889E-01 -1.06698E-01
    8994.613      0.287   1.400  8.19708E-01  8.87694E-01 -6.79862E-02
    8995.046      0.720   1.440  8.52475E-01  8.98944E-01 -4.64691E-02
    8995.491      1.165   1.480  8.75045E-01  9.09613E-01 -3.45680E-02
    8995.948      1.622   1.520  8.98759E-01  9.19701E-01 -2.09422E-02
    8996.418      2.091   1.560  9.29495E-01  9.29206E-01  2.89010E-04
    8996.899      2.573   1.600  9.67506E-01  9.38106E-01  2.93995E-02
    8997.393      3.067   1.640  1.01738E+00  9.46405E-01  7.09783E-02
    8997.899      3.573   1.680  1.09153E+00  9.54127E-01  1.37402E-01
    8998.417      4.091   1.720  1.18847E+00  9.61235E-01  2.27234E-01
    8998.948      4.621   1.760  1.26557E+00  9.67797E-01  2.97772E-01
    8999.490      5.164   1.800  1.27354E+00  9.73782E-01  2.99756E-01
    9000.045      5.718   1.840  1.23134E+00  9.79217E-01  2.52123E-01
    9000.612      6.285   1.880  1.20030E+00  9.84113E-01  2.16186E-01
    9001.191      6.864   1.920  1.21064E+00  9.88522E-01  2.22121E-01
    9001.782      7.456   1.960  1.25465E+00  9.92436E-01  2.62215E-01
    9002.386      8.059   2.000  1.30976E+00  9.95887E-01  3.13870E-01
    9003.001      8.675   2.040  1.35223E+00  9.98888E-01  3.53340E-01
    9003.629      9.303   2.080  1.36808E+00  1.00149E+00  3.66581E-01
    9004.269      9.943   2.120  1.36074E+00  1.00372E+00  3.57022E-01
    9004.922     10.595   2.160  1.33513E+00  1.00557E+00  3.29559E-01
    9005.586     11.260   2.200  1.29112E+00  1.00709E+00  2.84034E-01
    9006.263     11.936   2.240  1.24071E+00  1.00828E+00  2.32428E-01
    9006.952     12.625   2.280  1.19850E+00  1.00921E+00  1.89295E-01
    9007.653     13.326   2.320  1.16654E+00  1.00986E+00  1.56682E-01
    9008.366     14.039   2.360  1.14263E+00  1.01029E+00  1.32339E-01
    9009.091     14.765   2.400  1.12367E+00  1.01050E+00  1.13163E-01
    9009.829     15.502   2.440  1.10273E+00  1.01054E+00  9.21886E-02
    9010.579     16.252   2.480  1.07622E+00  1.01039E+00  6.58274E-02
    9011.341     17.014   2.520  1.04752E+00  1.01010E+00  3.74196E-02
    9012.115     17.788   2.560  1.02378E+00  1.00969E+00  1.40928E-02
    9012.901     18.575   2.600  1.00834E+00  1.00915E+00 -8.13894E-04
    9013.700     19.373   2.640  1.00010E+00  1.00853E+00 -8.43288E-03
    9014.511     20.184   2.680  9.99990E-01  1.00785E+00 -7.85947E-03
    9015.334     21.007   2.720  1.00444E+00  1.00710E+00 -2.65989E-03
    9016.169     21.842   2.760  1.00337E+00  1.00630E+00 -2.92131E-03
    9017.016     22.690   2.800  9.95808E-01  1.00546E+00 -9.65118E-03
    9017.876     23.549   2.840  9.84869E-01  1.00461E+00 -1.97412E-02
    9018.747     24.421   2.880  9.72736E-01  1.00376E+00 -3.10202E-02
    9019.631     25.305   2.920  9.60402E-01  1.00290E+00 -4.25023E-02
    9020.527     26.201   2.960  9.48218E-01  1.00205E+00 -5.38373E-02
    9021.436     27.109   3.000  9.36534E-01  1.00124E+00 -6.47010E-02
    9022.356     28.030   3.040  9.25890E-01  1.00045E+00 -7.45606E-02
    9023.289     28.962   3.080  9.16835E-01  9.99682E-01 -8.28469E-02
    9024.234     29.907   3.120  9.09534E-01  9.98974E-01 -8.94399E-02
    9025.191     30.864   3.160  9.03557E-01  9.98308E-01 -9.47508E-02
    9026.160     31.834   3.200  8.98305E-01  9.97686E-01 -9.93811E-02
    9027.142     32.815   3.240  8.93493E-01  9.97112E-01 -1.03618E-01
    9028.135     33.809   3.280  8.89562E-01  9.96607E-01 -1.07045E-01
    9029.141     34.814   3.320  8.86713E-01  9.96175E-01 -1.09461E-01
    9030.159     35.833   3.360  8.85436E-01  9.95793E-01 -1.10357E-01
    9031.189     36.863   3.400  8.86283E-01  9.95484E-01 -1.09201E-01
    9032.232     37.905   3.440  8.89433E-01  9.95228E-01 -1.05794E-01
    9033.286     38.960   3.480  8.95110E-01  9.95044E-01 -9.99337E-02
    9034.353     40.027   3.520  9.03472E-01  9.94937E-01 -9.14641E-02
    9035.432     41.106   3.560  9.14257E-01  9.94903E-01 -8.06462E-02
    9036.523     42.197   3.600  9.27028E-01  9.94922E-01 -6.78944E-02
    9037.627     43.300   3.640  9.41225E-01  9.95013E-01 -5.37877E-02
    9038.742     44.416   3.680  9.56159E-01  9.95153E-01 -3.89946E-02
    9039.870     45.543   3.720  9.71233E-01  9.95366E-01 -2.41327E-02
    9041.010     46.683   3.760  9.85960E-01  9.95628E-01 -9.66779E-03
    9042.162     47.835   3.800  9.99887E-01  9.95959E-01  3.92867E-03
    9043.326     49.000   3.840  1.01257E+00  9.96338E-01  1.62345E-02
    9044.503     50.176   3.880  1.02390E+00  9.96784E-01  2.71147E-02
    9045.692     51.365   3.920  1.03389E+00  9.97273E-01  3.66193E-02
    9046.892     52.566   3.960  1.04262E+00  9.97782E-01  4.48339E-02
    9048.106     53.779   4.000  1.05011E+00  9.98352E-01  5.17580E-02
    9049.331     55.004   4.040  1.05606E+00  9.98963E-01  5.70977E-02
    9050.568     56.242   4.080  1.05979E+00  9.99609E-01  6.01780E-02
    9051.818     57.492   4.120  1.06057E+00  1.00027E+00  6.03055E-02
    9053.080     58.753   4.160  1.05802E+00  1.00096E+00  5.70629E-02
    9054.354     60.027   4.200  1.05216E+00  1.00166E+00  5.04986E-02
    9055.640     61.314   4.240  1.04356E+00  1.00239E+00  4.11661E-02
    9056.939     62.612   4.280  1.03328E+00  1.00315E+00  3.01372E-02
    9058.249     63.923   4.320  1.02269E+00  1.00388E+00  1.88010E-02
    9059.572     65.246   4.360  1.01333E+00  1.00465E+00  8.68687E-03
    9060.907     66.581   4.400  1.00652E+00  1.00538E+00  1.13559E-03
    9062.254     67.928   4.440  1.00311E+00  1.00614E+00 -3.03076E-03
    9063.614     69.287   4.480  1.00323E+00  1.00687E+00 -3.63962E-03
    9064.985     70.659   4.520  1.00653E+00  1.00759E+00 -1.05810E-03
    9066.369     72.043   4.560  1.01223E+00  1.00828E+00  3.95136E-03
    9067.765     73.439   4.600  1.01953E+00  1.00895E+00  1.05767E-02
    9069.173     74.847   4.640  1.02783E+00  1.00960E+00  1.82345E-02
    9070.594     76.267   4.680  1.03680E+00  1.01023E+00  2.65744E-02
    9072.026     77.700   4.720  1.04605E+00  1.01082E+00  3.52250E-02
    9073.471     79.144   4.760  1.05497E+00  1.01138E+00  4.35907E-02
    9074.928     80.601   4.800  1.06268E+00  1.01189E+00  5.07919E-02
    9076.397     82.070   4.840  1.06808E+00  1.01236E+00  5.57161E-02
    9077.878     83.552   4.880  1.07014E+00  1.01279E+00  5.73459E-02
    9079.372     85.045   4.920  1.06828E+00  1.01317E+00  5.51101E-02
    9080.878     86.551   4.960  1.06253E+00  1.01349E+00  4.90354E-02
    9082.395     88.069   5.000  1.05351E+00  1.01378E+00  3.97284E-02
    9083.926     89.599   5.040  1.04217E+00  1.01401E+00  2.81587E-02
    9085.468     91.141   5.080  1.02958E+00  1.01419E+00  1.53929E-02
    9087.022     92.696   5.120  1.01671E+00  1.01433E+00  2.38199E-03
    9088.589     94.262   5.160  1.00428E+00  1.01442E+00 -1.01358E-02
    9090.168     95.841   5.200  9.92794E-01  1.01443E+00 -2.16392E-02
    9091.759     97.432   5.240  9.82591E-01  1.01440E+00 -3.18119E-02
    9093.362     99.036   5.280  9.73923E-01  1.01430E+00 -4.03805E-02
    9094.978    100.651   5.320  9.67189E-01  1.01418E+00 -4.69923E-02
    9096.605    102.279   5.360  9.62797E-01  1.01399E+00 -5.11936E-02
    9098.245    103.918   5.400  9.61137E-01  1.01375E+00 -5.26149E-02
    9099.897    105.570   5.440  9.62352E-01  1.01345E+00 -5.10959E-02
    9101.561    107.235   5.480  9.66235E-01  1.01312E+00 -4.68871E-02
    9103.238    108.911   5.520  9.72130E-01  1.01275E+00 -4.06247E-02
    9104.926    110.600   5.560  9.79133E-01  1.01232E+00 -3.31888E-02
    9106.627    112.300   5.600  9.86440E-01  1.01185E+00 -2.54070E-02
    9108.340    114.013   5.640  9.93356E-01  1.01135E+00 -1.79984E-02
    9110.065    115.739   5.680  9.99169E-01  1.01080E+00 -1.16332E-02
    9111.802    117.476   5.720  1.00324E+00  1.01023E+00 -6.99874E-03
    9113.552    119.225   5.760  1.00497E+00  1.00963E+00 -4.66343E-03
    9115.314    120.987   5.800  1.00411E+00  1.00900E+00 -4.88583E-03
    9117.088    122.761   5.840  1.00092E+00  1.00835E+00 -7.43813E-03
    9118.874    124.547   5.880  9.96033E-01  1.00768E+00 -1.16503E-02
    9120.672    126.346   5.920  9.90357E-01  1.00699E+00 -1.66294E-02
    9122.483    128.156   5.960  9.84820E-01  1.00630E+00 -2.14757E-02
    9124.305    129.979   6.000  9.80246E-01  1.00559E+00 -2.53462E-02
