# # comment:                                                     FEFF 9.9.1  
# # Source:
# # Structure
# # Reduced
# # space
# # abc:
# # angles:
# # sites:
# # POT  SCF 100  7.0000   0, screened core-hole, AFOLP (folp(0)= 1.150)
# # Abs   Z=29 Rmt= 1.221 Rnm= 1.304 K  shell
# # Pot 1 Z=57 Rmt= 1.741 Rnm= 1.824
# # Pot 2 Z=29 Rmt= 1.246 Rnm= 1.323
# # Pot 3 Z= 8 Rmt= 1.037 Rnm= 1.099
# # Gam_ch=1.729E+00 H-L exch Vi= 0.000E+00 Vr= 0.000E+00
# # Mu=-7.604E+00eV kf=2.079E+00 Vint=-1.677E+01eV Rs_int= 1.744
# FMS rfms= 9.0000
# # PATH  Rmax=-1.000,  Keep_limit= 0.00, Heap_limit 0.00  Pwcrit= 2.50%
#  S02=0.950  Temp=   0.00  Debye_temp=   0.00  Global_sig2= 0.00000
#  Energy zero shift, vr, vi    0.00000E+00   0.00000E+00
#  Curved wave amplitude ratio filter   4.000%
#     file         sig2 tot  cw amp ratio   deg  nlegs   reff  inp sig2
#     0/   0 paths used
#  xsedge+ 50, used to normalize mu           2.4469E-04
#  -----------------------------------------------------------------------
#  omega    e    k    mu    mu0     chi     @#
    8984.367    -11.414  -1.000  3.89023E-02  5.57733E-02 -1.68711E-02
    8984.666    -11.116  -0.960  4.09379E-02  5.98827E-02 -1.89448E-02
    8984.952    -10.829  -0.920  4.31311E-02  6.44538E-02 -2.13226E-02
    8985.227    -10.555  -0.880  4.55008E-02  6.95550E-02 -2.40542E-02
    8985.489    -10.293  -0.840  4.80683E-02  7.52659E-02 -2.71976E-02
    8985.739    -10.043  -0.800  5.08586E-02  8.16788E-02 -3.08203E-02
    8985.977     -9.805  -0.760  5.39001E-02  8.88997E-02 -3.49996E-02
    8986.202     -9.579  -0.720  5.72249E-02  9.70483E-02 -3.98234E-02
    8986.415     -9.366  -0.680  6.08679E-02  1.06257E-01 -4.53886E-02
    8986.617     -9.165  -0.640  6.48661E-02  1.16664E-01 -5.17977E-02
    8986.806     -8.976  -0.600  6.92548E-02  1.28407E-01 -5.91522E-02
    8986.982     -8.799  -0.560  7.40634E-02  1.41603E-01 -6.75398E-02
    8987.147     -8.635  -0.520  7.93069E-02  1.56322E-01 -7.70153E-02
    8987.299     -8.482  -0.480  8.49751E-02  1.72549E-01 -8.75741E-02
    8987.440     -8.342  -0.440  9.10202E-02  1.90142E-01 -9.91214E-02
    8987.568     -8.214  -0.400  9.73456E-02  2.08792E-01 -1.11447E-01
    8987.683     -8.098  -0.360  1.03802E-01  2.28018E-01 -1.24215E-01
    8987.787     -7.995  -0.320  1.10198E-01  2.47190E-01 -1.36992E-01
    8987.878     -7.903  -0.280  1.16318E-01  2.65613E-01 -1.49295E-01
    8987.958     -7.824  -0.240  1.21954E-01  2.82616E-01 -1.60662E-01
    8988.025     -7.757  -0.200  1.26931E-01  2.97640E-01 -1.70709E-01
    8988.080     -7.702  -0.160  1.31120E-01  3.10275E-01 -1.79155E-01
    8988.122     -7.659  -0.120  1.34439E-01  3.20261E-01 -1.85822E-01
    8988.153     -7.629  -0.080  1.36842E-01  3.27454E-01 -1.90612E-01
    8988.177     -7.604   0.000  1.38801E-01  3.33232E-01 -1.94431E-01
    8988.232     -7.550   0.120  1.43107E-01  3.46248E-01 -2.03141E-01
    8988.275     -7.507   0.160  1.46409E-01  3.56375E-01 -2.09966E-01
    8988.330     -7.452   0.200  1.50587E-01  3.69288E-01 -2.18701E-01
    8988.397     -7.385   0.240  1.55567E-01  3.84805E-01 -2.29238E-01
    8988.476     -7.306   0.280  1.61211E-01  4.02610E-01 -2.41399E-01
    8988.567     -7.214   0.320  1.67368E-01  4.22244E-01 -2.54875E-01
    8988.671     -7.111   0.360  1.73821E-01  4.43131E-01 -2.69310E-01
    8988.787     -6.995   0.400  1.80360E-01  4.64623E-01 -2.84263E-01
    8988.915     -6.867   0.440  1.86941E-01  4.86182E-01 -2.99241E-01
    8989.055     -6.727   0.480  1.93653E-01  5.07359E-01 -3.13706E-01
    8989.207     -6.574   0.520  2.00816E-01  5.27859E-01 -3.27043E-01
    8989.372     -6.410   0.560  2.08920E-01  5.47555E-01 -3.38635E-01
    8989.549     -6.233   0.600  2.18423E-01  5.66434E-01 -3.48010E-01
    8989.738     -6.044   0.640  2.29527E-01  5.84495E-01 -3.54968E-01
    8989.939     -5.843   0.680  2.42179E-01  6.01877E-01 -3.59698E-01
    8990.152     -5.629   0.720  2.56006E-01  6.18635E-01 -3.62629E-01
    8990.378     -5.404   0.760  2.70723E-01  6.34880E-01 -3.64157E-01
    8990.616     -5.166   0.800  2.86260E-01  6.50674E-01 -3.64414E-01
    8990.865     -4.916   0.840  3.03016E-01  6.66127E-01 -3.63112E-01
    8991.128     -4.654   0.880  3.21587E-01  6.81273E-01 -3.59686E-01
    8991.402     -4.380   0.920  3.42561E-01  6.96153E-01 -3.53592E-01
    8991.688     -4.093   0.960  3.66074E-01  7.10794E-01 -3.44720E-01
    8991.987     -3.794   1.000  3.92082E-01  7.25192E-01 -3.33110E-01
    8992.298     -3.484   1.040  4.21966E-01  7.39375E-01 -3.17409E-01
    8992.621     -3.160   1.080  4.59290E-01  7.53342E-01 -2.94052E-01
    8992.956     -2.825   1.120  5.06665E-01  7.67066E-01 -2.60401E-01
    8993.304     -2.478   1.160  5.62142E-01  7.80554E-01 -2.18413E-01
    8993.664     -2.118   1.200  6.20105E-01  7.93771E-01 -1.73666E-01
    8994.035     -1.746   1.240  6.74516E-01  8.06695E-01 -1.32179E-01
    8994.419     -1.362   1.280  7.23311E-01  8.19327E-01 -9.60160E-02
    8994.816     -0.966   1.320  7.67296E-01  8.31623E-01 -6.43268E-02
    8995.224     -0.557   1.360  8.01674E-01  8.43598E-01 -4.19235E-02
    8995.645     -0.137   1.400  8.23730E-01  8.55184E-01 -3.14544E-02
    8996.078      0.296   1.440  8.42360E-01  8.66379E-01 -2.40193E-02
    8996.523      0.741   1.480  8.68571E-01  8.77177E-01 -8.60549E-03
    8996.980      1.198   1.520  9.06445E-01  8.87532E-01  1.89130E-02
    8997.449      1.668   1.560  9.55980E-01  8.97460E-01  5.85206E-02
    8997.931      2.149   1.600  1.01561E+00  9.06939E-01  1.08672E-01
    8998.424      2.643   1.640  1.08317E+00  9.15965E-01  1.67204E-01
    8998.930      3.149   1.680  1.15593E+00  9.24517E-01  2.31410E-01
    8999.449      3.667   1.720  1.22304E+00  9.32615E-01  2.90430E-01
    8999.979      4.197   1.760  1.26778E+00  9.40217E-01  3.27563E-01
    9000.522      4.740   1.800  1.28007E+00  9.47368E-01  3.32703E-01
    9001.076      5.295   1.840  1.26106E+00  9.54028E-01  3.07030E-01
    9001.643      5.862   1.880  1.23310E+00  9.60242E-01  2.72860E-01
    9002.222      6.441   1.920  1.22316E+00  9.65994E-01  2.57164E-01
    9002.814      7.032   1.960  1.23526E+00  9.71290E-01  2.63966E-01
    9003.417      7.636   2.000  1.25396E+00  9.76156E-01  2.77800E-01
    9004.033      8.251   2.040  1.26403E+00  9.80600E-01  2.83434E-01
    9004.661      8.879   2.080  1.25420E+00  9.84650E-01  2.69551E-01
    9005.301      9.519   2.120  1.21914E+00  9.88292E-01  2.30843E-01
    9005.953     10.171   2.160  1.16577E+00  9.91535E-01  1.74240E-01
    9006.617     10.836   2.200  1.10825E+00  9.94450E-01  1.13803E-01
    9007.294     11.513   2.240  1.06054E+00  9.97005E-01  6.35342E-02
    9007.983     12.201   2.280  1.02948E+00  9.99228E-01  3.02526E-02
    9008.684     12.902   2.320  1.01750E+00  1.00115E+00  1.63438E-02
    9009.397     13.616   2.360  1.02463E+00  1.00279E+00  2.18472E-02
    9010.123     14.341   2.400  1.04472E+00  1.00416E+00  4.05585E-02
    9010.860     15.079   2.440  1.06732E+00  1.00528E+00  6.20377E-02
    9011.610     15.829   2.480  1.08614E+00  1.00616E+00  7.99836E-02
    9012.372     16.591   2.520  1.09649E+00  1.00683E+00  8.96618E-02
    9013.146     17.365   2.560  1.09876E+00  1.00729E+00  9.14753E-02
    9013.933     18.151   2.600  1.09656E+00  1.00758E+00  8.89836E-02
    9014.731     18.950   2.640  1.09022E+00  1.00770E+00  8.25254E-02
    9015.542     19.760   2.680  1.07929E+00  1.00767E+00  7.16299E-02
    9016.365     20.583   2.720  1.06352E+00  1.00752E+00  5.59942E-02
    9017.200     21.419   2.760  1.04363E+00  1.00726E+00  3.63741E-02
    9018.047     22.266   2.800  1.02080E+00  1.00688E+00  1.39226E-02
    9018.907     23.125   2.840  9.96186E-01  1.00642E+00 -1.02324E-02
    9019.779     23.997   2.880  9.71199E-01  1.00589E+00 -3.46951E-02
    9020.663     24.881   2.920  9.47079E-01  1.00530E+00 -5.82189E-02
    9021.559     25.777   2.960  9.25138E-01  1.00465E+00 -7.95155E-02
    9022.467     26.685   3.000  9.06563E-01  1.00397E+00 -9.74047E-02
    9023.388     27.606   3.040  8.91878E-01  1.00324E+00 -1.11367E-01
    9024.320     28.539   3.080  8.81154E-01  1.00251E+00 -1.21357E-01
    9025.265     29.484   3.120  8.74265E-01  1.00177E+00 -1.27506E-01
    9026.222     30.441   3.160  8.70610E-01  1.00103E+00 -1.30418E-01
    9027.191     31.410   3.200  8.69628E-01  1.00027E+00 -1.30638E-01
    9028.173     32.391   3.240  8.71054E-01  9.99551E-01 -1.28497E-01
    9029.166     33.385   3.280  8.74329E-01  9.98844E-01 -1.24515E-01
    9030.172     34.391   3.320  8.78942E-01  9.98147E-01 -1.19205E-01
    9031.190     35.409   3.360  8.84447E-01  9.97485E-01 -1.13038E-01
    9032.221     36.439   3.400  8.90347E-01  9.96860E-01 -1.06514E-01
    9033.263     37.481   3.440  8.96068E-01  9.96296E-01 -1.00227E-01
    9034.318     38.536   3.480  9.01399E-01  9.95751E-01 -9.43524E-02
    9035.384     39.603   3.520  9.06569E-01  9.95248E-01 -8.86788E-02
    9036.463     40.682   3.560  9.12037E-01  9.94811E-01 -8.27741E-02
    9037.555     41.773   3.600  9.18318E-01  9.94418E-01 -7.60996E-02
    9038.658     42.876   3.640  9.25854E-01  9.94070E-01 -6.82163E-02
    9039.773     43.992   3.680  9.34859E-01  9.93791E-01 -5.89320E-02
    9040.901     45.120   3.720  9.45144E-01  9.93558E-01 -4.84141E-02
    9042.041     46.260   3.760  9.56552E-01  9.93371E-01 -3.68187E-02
    9043.193     47.412   3.800  9.68877E-01  9.93252E-01 -2.43751E-02
    9044.358     48.576   3.840  9.81801E-01  9.93181E-01 -1.13800E-02
    9045.534     49.753   3.880  9.95131E-01  9.93178E-01  1.95208E-03
    9046.723     50.941   3.920  1.00862E+00  9.93201E-01  1.54212E-02
    9047.924     52.142   3.960  1.02201E+00  9.93311E-01  2.87019E-02
    9049.137     53.355   4.000  1.03486E+00  9.93446E-01  4.14171E-02
    9050.362     54.581   4.040  1.04695E+00  9.93647E-01  5.32997E-02
    9051.600     55.818   4.080  1.05807E+00  9.93893E-01  6.41749E-02
    9052.849     57.068   4.120  1.06797E+00  9.94182E-01  7.37883E-02
    9054.111     58.330   4.160  1.07649E+00  9.94534E-01  8.19537E-02
    9055.385     59.604   4.200  1.08336E+00  9.94905E-01  8.84513E-02
    9056.672     60.890   4.240  1.08850E+00  9.95316E-01  9.31889E-02
    9057.970     62.188   4.280  1.09203E+00  9.95787E-01  9.62385E-02
    9059.281     63.499   4.320  1.09396E+00  9.96272E-01  9.76886E-02
    9060.603     64.822   4.360  1.09423E+00  9.96791E-01  9.74395E-02
    9061.938     66.157   4.400  1.09251E+00  9.97321E-01  9.51893E-02
    9063.286     67.504   4.440  1.08863E+00  9.97884E-01  9.07505E-02
    9064.645     68.864   4.480  1.08257E+00  9.98479E-01  8.40955E-02
    9066.017     70.235   4.520  1.07463E+00  9.99080E-01  7.55516E-02
    9067.400     71.619   4.560  1.06537E+00  9.99687E-01  6.56857E-02
    9068.796     73.015   4.600  1.05536E+00  1.00032E+00  5.50456E-02
    9070.205     74.423   4.640  1.04494E+00  1.00095E+00  4.39851E-02
    9071.625     75.843   4.680  1.03425E+00  1.00156E+00  3.26872E-02
    9073.058     77.276   4.720  1.02344E+00  1.00219E+00  2.12488E-02
    9074.502     78.721   4.760  1.01272E+00  1.00282E+00  9.89975E-03
    9075.959     80.178   4.800  1.00253E+00  1.00343E+00 -9.00718E-04
    9077.428     81.647   4.840  9.93441E-01  1.00405E+00 -1.06087E-02
    9078.910     83.128   4.880  9.85851E-01  1.00464E+00 -1.87889E-02
    9080.403     84.622   4.920  9.79891E-01  1.00520E+00 -2.53078E-02
    9081.909     86.127   4.960  9.75392E-01  1.00575E+00 -3.03534E-02
    9083.427     87.645   5.000  9.72022E-01  1.00626E+00 -3.42377E-02
    9084.957     89.175   5.040  9.69500E-01  1.00676E+00 -3.72606E-02
    9086.499     90.718   5.080  9.67606E-01  1.00723E+00 -3.96191E-02
    9088.054     92.272   5.120  9.66270E-01  1.00765E+00 -4.13814E-02
    9089.620     93.839   5.160  9.65477E-01  1.00804E+00 -4.25638E-02
    9091.199     95.418   5.200  9.65243E-01  1.00841E+00 -4.31681E-02
    9092.790     97.009   5.240  9.65523E-01  1.00872E+00 -4.31974E-02
    9094.393     98.612   5.280  9.66427E-01  1.00901E+00 -4.25837E-02
    9096.009    100.227   5.320  9.68044E-01  1.00924E+00 -4.11927E-02
    9097.636    101.855   5.360  9.70539E-01  1.00944E+00 -3.89035E-02
    9099.276    103.495   5.400  9.73800E-01  1.00958E+00 -3.57832E-02
    9100.928    105.147   5.440  9.77599E-01  1.00968E+00 -3.20838E-02
    9102.593    106.811   5.480  9.81671E-01  1.00976E+00 -2.80893E-02
    9104.269    108.487   5.520  9.85840E-01  1.00977E+00 -2.39308E-02
    9105.957    110.176   5.560  9.90156E-01  1.00972E+00 -1.95587E-02
    9107.658    111.877   5.600  9.94840E-01  1.00964E+00 -1.47995E-02
    9109.371    113.590   5.640  9.99927E-01  1.00952E+00 -9.59715E-03
    9111.096    115.315   5.680  1.00510E+00  1.00936E+00 -4.26836E-03
    9112.834    117.052   5.720  1.00955E+00  1.00914E+00  4.10197E-04
    9114.583    118.802   5.760  1.01245E+00  1.00890E+00  3.54998E-03
    9116.345    120.563   5.800  1.01318E+00  1.00859E+00  4.58632E-03
    9118.119    122.337   5.840  1.01177E+00  1.00824E+00  3.52993E-03
    9119.905    124.124   5.880  1.00873E+00  1.00788E+00  8.41545E-04
    9121.703    125.922   5.920  1.00457E+00  1.00747E+00 -2.89805E-03
    9123.514    127.732   5.960  9.99860E-01  1.00704E+00 -7.18131E-03
    9125.337    129.555   6.000  9.94996E-01  1.00656E+00 -1.15597E-02
