# # comment:                                                     FEFF 9.9.1  
# # Source:
# # Structure
# # Reduced
# # space
# # abc:
# # angles:
# # sites:
# # POT  SCF 100  7.0000   0, screened core-hole, AFOLP (folp(0)= 1.150)
# # Abs   Z=29 Rmt= 1.266 Rnm= 1.346 K  shell
# # Pot 1 Z=81 Rmt= 1.856 Rnm= 1.886
# # Pot 2 Z=23 Rmt= 1.093 Rnm= 1.314
# # Pot 3 Z=29 Rmt= 1.262 Rnm= 1.336
# # Pot 4 Z= 8 Rmt= 0.950 Rnm= 1.100
# # Gam_ch=1.729E+00 H-L exch Vi= 0.000E+00 Vr= 0.000E+00
# # Mu=-8.193E+00eV kf=2.217E+00 Vint=-1.648E+01eV Rs_int= 1.636
# FMS rfms= 9.0000
# # PATH  Rmax=-1.000,  Keep_limit= 0.00, Heap_limit 0.00  Pwcrit= 2.50%
#  S02=0.950  Temp=   0.00  Debye_temp=   0.00  Global_sig2= 0.00000
#  Energy zero shift, vr, vi    0.00000E+00   0.00000E+00
#  Curved wave amplitude ratio filter   4.000%
#     file         sig2 tot  cw amp ratio   deg  nlegs   reff  inp sig2
#     0/   0 paths used
#  xsedge+ 50, used to normalize mu           2.4666E-04
#  -----------------------------------------------------------------------
#  omega    e    k    mu    mu0     chi     @#
    8983.899    -12.003  -1.000  3.73017E-02  5.17402E-02 -1.44385E-02
    8984.198    -11.704  -0.960  3.92278E-02  5.54329E-02 -1.62051E-02
    8984.484    -11.417  -0.920  4.13004E-02  5.95305E-02 -1.82301E-02
    8984.759    -11.143  -0.880  4.35362E-02  6.40921E-02 -2.05559E-02
    8985.021    -10.881  -0.840  4.59540E-02  6.91864E-02 -2.32325E-02
    8985.271    -10.631  -0.800  4.85750E-02  7.48931E-02 -2.63181E-02
    8985.508    -10.393  -0.760  5.14230E-02  8.13034E-02 -2.98804E-02
    8985.734    -10.168  -0.720  5.45241E-02  8.85202E-02 -3.39960E-02
    8985.947     -9.954  -0.680  5.79063E-02  9.66569E-02 -3.87506E-02
    8986.149     -9.753  -0.640  6.15980E-02  1.05833E-01 -4.42351E-02
    8986.338     -9.564  -0.600  6.56260E-02  1.16166E-01 -5.05400E-02
    8986.514     -9.388  -0.560  7.00116E-02  1.27755E-01 -5.77437E-02
    8986.679     -9.223  -0.520  7.47658E-02  1.40660E-01 -6.58943E-02
    8986.831     -9.071  -0.480  7.98816E-02  1.54866E-01 -7.49846E-02
    8986.972     -8.930  -0.440  8.53260E-02  1.70249E-01 -8.49232E-02
    8987.100     -8.802  -0.400  9.10318E-02  1.86543E-01 -9.55109E-02
    8987.215     -8.686  -0.360  9.68933E-02  2.03329E-01 -1.06435E-01
    8987.319     -8.583  -0.320  1.02768E-01  2.20064E-01 -1.17296E-01
    8987.410     -8.491  -0.280  1.08486E-01  2.36146E-01 -1.27659E-01
    8987.490     -8.412  -0.240  1.13867E-01  2.50993E-01 -1.37126E-01
    8987.557     -8.345  -0.200  1.18733E-01  2.64117E-01 -1.45385E-01
    8987.612     -8.290  -0.160  1.22930E-01  2.75162E-01 -1.52232E-01
    8987.654     -8.248  -0.120  1.26332E-01  2.83896E-01 -1.57564E-01
    8987.685     -8.217  -0.080  1.28845E-01  2.90191E-01 -1.61346E-01
    8987.709     -8.193   0.000  1.30942E-01  2.95250E-01 -1.64308E-01
    8987.764     -8.138   0.120  1.35562E-01  3.06664E-01 -1.71102E-01
    8987.807     -8.095   0.160  1.39190E-01  3.15528E-01 -1.76338E-01
    8987.862     -8.040   0.200  1.43936E-01  3.26875E-01 -1.82939E-01
    8987.929     -7.973   0.240  1.49802E-01  3.40518E-01 -1.90716E-01
    8988.008     -7.894   0.280  1.56808E-01  3.56216E-01 -1.99408E-01
    8988.099     -7.803   0.320  1.64881E-01  3.73585E-01 -2.08704E-01
    8988.203     -7.699   0.360  1.73896E-01  3.92125E-01 -2.18228E-01
    8988.319     -7.583   0.400  1.83690E-01  4.11343E-01 -2.27653E-01
    8988.447     -7.455   0.440  1.94009E-01  4.30715E-01 -2.36706E-01
    8988.587     -7.315   0.480  2.04824E-01  4.49918E-01 -2.45094E-01
    8988.739     -7.162   0.520  2.16047E-01  4.68702E-01 -2.52655E-01
    8988.904     -6.998   0.560  2.27425E-01  4.86940E-01 -2.59515E-01
    8989.081     -6.821   0.600  2.38166E-01  5.04624E-01 -2.66458E-01
    8989.270     -6.632   0.640  2.46834E-01  5.21783E-01 -2.74949E-01
    8989.471     -6.431   0.680  2.51982E-01  5.38482E-01 -2.86501E-01
    8989.684     -6.218   0.720  2.53317E-01  5.54818E-01 -3.01501E-01
    8989.910     -5.992   0.760  2.52283E-01  5.70842E-01 -3.18559E-01
    8990.148     -5.754   0.800  2.51487E-01  5.86662E-01 -3.35176E-01
    8990.397     -5.504   0.840  2.53410E-01  6.02312E-01 -3.48902E-01
    8990.660     -5.242   0.880  2.59866E-01  6.17829E-01 -3.57963E-01
    8990.934     -4.968   0.920  2.72209E-01  6.33245E-01 -3.61035E-01
    8991.220     -4.681   0.960  2.91737E-01  6.48575E-01 -3.56838E-01
    8991.519     -4.383   1.000  3.19692E-01  6.63826E-01 -3.44134E-01
    8991.830     -4.072   1.040  3.56291E-01  6.78999E-01 -3.22708E-01
    8992.153     -3.749   1.080  4.00035E-01  6.94085E-01 -2.94050E-01
    8992.488     -3.413   1.120  4.49137E-01  7.09070E-01 -2.59933E-01
    8992.836     -3.066   1.160  5.03141E-01  7.23893E-01 -2.20752E-01
    8993.196     -2.706   1.200  5.61106E-01  7.38595E-01 -1.77488E-01
    8993.567     -2.334   1.240  6.18638E-01  7.53089E-01 -1.34451E-01
    8993.951     -1.950   1.280  6.70330E-01  7.67388E-01 -9.70578E-02
    8994.348     -1.554   1.320  7.15103E-01  7.81421E-01 -6.63181E-02
    8994.756     -1.146   1.360  7.57104E-01  7.95200E-01 -3.80953E-02
    8995.177     -0.725   1.400  7.97160E-01  8.08653E-01 -1.14928E-02
    8995.610     -0.292   1.440  8.30420E-01  8.21790E-01  8.63055E-03
    8996.055      0.153   1.480  8.61799E-01  8.34558E-01  2.72409E-02
    8996.512      0.610   1.520  9.01067E-01  8.46949E-01  5.41171E-02
    8996.981      1.079   1.560  9.39546E-01  8.58914E-01  8.06319E-02
    8997.463      1.561   1.600  9.61221E-01  8.70441E-01  9.07801E-02
    8997.956      2.055   1.640  9.73031E-01  8.81524E-01  9.15072E-02
    8998.462      2.561   1.680  9.96871E-01  8.92137E-01  1.04734E-01
    8998.981      3.079   1.720  1.04605E+00  9.02274E-01  1.43776E-01
    8999.511      3.609   1.760  1.11768E+00  9.11912E-01  2.05768E-01
    9000.053      4.152   1.800  1.20064E+00  9.21045E-01  2.79598E-01
    9000.608      4.706   1.840  1.28758E+00  9.29676E-01  3.57907E-01
    9001.175      5.273   1.880  1.36655E+00  9.37824E-01  4.28729E-01
    9001.754      5.852   1.920  1.42088E+00  9.45449E-01  4.75433E-01
    9002.346      6.444   1.960  1.43991E+00  9.52571E-01  4.87341E-01
    9002.949      7.047   2.000  1.42118E+00  9.59198E-01  4.61985E-01
    9003.565      7.663   2.040  1.37404E+00  9.65333E-01  4.08710E-01
    9004.193      8.291   2.080  1.31266E+00  9.71001E-01  3.41658E-01
    9004.833      8.931   2.120  1.24294E+00  9.76188E-01  2.66754E-01
    9005.485      9.583   2.160  1.16738E+00  9.80941E-01  1.86438E-01
    9006.149     10.248   2.200  1.09586E+00  9.85250E-01  1.10610E-01
    9006.826     10.924   2.240  1.04096E+00  9.89143E-01  5.18152E-02
    9007.515     11.613   2.280  1.00637E+00  9.92627E-01  1.37440E-02
    9008.216     12.314   2.320  9.85976E-01  9.95712E-01 -9.73594E-03
    9008.929     13.027   2.360  9.70475E-01  9.98448E-01 -2.79725E-02
    9009.655     13.753   2.400  9.56226E-01  1.00082E+00 -4.45980E-02
    9010.392     14.490   2.440  9.44815E-01  1.00287E+00 -5.80557E-02
    9011.142     15.240   2.480  9.38124E-01  1.00462E+00 -6.64952E-02
    9011.904     16.002   2.520  9.38032E-01  1.00608E+00 -6.80473E-02
    9012.678     16.776   2.560  9.45847E-01  1.00726E+00 -6.14131E-02
    9013.465     17.563   2.600  9.58761E-01  1.00819E+00 -4.94302E-02
    9014.263     18.361   2.640  9.72529E-01  1.00888E+00 -3.63521E-02
    9015.074     19.172   2.680  9.81187E-01  1.00938E+00 -2.81949E-02
    9015.897     19.995   2.720  9.86188E-01  1.00966E+00 -2.34726E-02
    9016.732     20.830   2.760  9.88105E-01  1.00977E+00 -2.16624E-02
    9017.579     21.678   2.800  9.86634E-01  1.00971E+00 -2.30764E-02
    9018.439     22.537   2.840  9.81527E-01  1.00952E+00 -2.79917E-02
    9019.311     23.409   2.880  9.73140E-01  1.00920E+00 -3.60599E-02
    9020.195     24.293   2.920  9.62294E-01  1.00874E+00 -4.64465E-02
    9021.091     25.189   2.960  9.50137E-01  1.00821E+00 -5.80732E-02
    9021.999     26.097   3.000  9.37756E-01  1.00757E+00 -6.98179E-02
    9022.919     27.018   3.040  9.26323E-01  1.00688E+00 -8.05544E-02
    9023.852     27.950   3.080  9.17035E-01  1.00611E+00 -8.90733E-02
    9024.797     28.895   3.120  9.10640E-01  1.00527E+00 -9.46323E-02
    9025.754     29.852   3.160  9.07578E-01  1.00442E+00 -9.68385E-02
    9026.723     30.822   3.200  9.07976E-01  1.00355E+00 -9.55694E-02
    9027.705     31.803   3.240  9.11692E-01  1.00264E+00 -9.09503E-02
    9028.698     32.797   3.280  9.18213E-01  1.00171E+00 -8.34990E-02
    9029.704     33.802   3.320  9.26717E-01  1.00080E+00 -7.40830E-02
    9030.722     34.820   3.360  9.36030E-01  9.99889E-01 -6.38583E-02
    9031.753     35.851   3.400  9.44977E-01  9.98981E-01 -5.40032E-02
    9032.795     36.893   3.440  9.52867E-01  9.98080E-01 -4.52134E-02
    9033.850     37.948   3.480  9.59761E-01  9.97211E-01 -3.74506E-02
    9034.916     39.015   3.520  9.66125E-01  9.96376E-01 -3.02506E-02
    9035.995     40.094   3.560  9.72465E-01  9.95579E-01 -2.31135E-02
    9037.087     41.185   3.600  9.78991E-01  9.94819E-01 -1.58281E-02
    9038.190     42.288   3.640  9.85691E-01  9.94097E-01 -8.40631E-03
    9039.305     43.404   3.680  9.92434E-01  9.93396E-01 -9.61563E-04
    9040.433     44.531   3.720  9.99079E-01  9.92758E-01  6.32110E-03
    9041.573     45.671   3.760  1.00532E+00  9.92186E-01  1.31320E-02
    9042.725     46.823   3.800  1.01064E+00  9.91637E-01  1.90010E-02
    9043.890     47.988   3.840  1.01463E+00  9.91155E-01  2.34756E-02
    9045.066     49.164   3.880  1.01711E+00  9.90740E-01  2.63676E-02
    9046.255     50.353   3.920  1.01816E+00  9.90349E-01  2.78076E-02
    9047.456     51.554   3.960  1.01819E+00  9.90025E-01  2.81606E-02
    9048.669     52.767   4.000  1.01777E+00  9.89748E-01  2.80197E-02
    9049.894     53.992   4.040  1.01763E+00  9.89537E-01  2.80963E-02
    9051.132     55.230   4.080  1.01849E+00  9.89374E-01  2.91119E-02
    9052.381     56.479   4.120  1.02088E+00  9.89256E-01  3.16216E-02
    9053.643     57.741   4.160  1.02496E+00  9.89204E-01  3.57586E-02
    9054.917     59.015   4.200  1.03022E+00  9.89195E-01  4.10259E-02
    9056.203     60.302   4.240  1.03567E+00  9.89230E-01  4.64407E-02
    9057.502     61.600   4.280  1.04030E+00  9.89306E-01  5.09917E-02
    9058.813     62.911   4.320  1.04338E+00  9.89424E-01  5.39522E-02
    9060.135     64.234   4.360  1.04456E+00  9.89605E-01  5.49534E-02
    9061.470     65.569   4.400  1.04368E+00  9.89802E-01  5.38796E-02
    9062.818     66.916   4.440  1.04083E+00  9.90037E-01  5.07942E-02
    9064.177     68.275   4.480  1.03620E+00  9.90310E-01  4.58889E-02
    9065.549     69.647   4.520  1.03023E+00  9.90619E-01  3.96067E-02
    9066.932     71.031   4.560  1.02370E+00  9.90963E-01  3.27353E-02
    9068.328     72.427   4.600  1.01745E+00  9.91320E-01  2.61257E-02
    9069.737     73.835   4.640  1.01211E+00  9.91708E-01  2.04030E-02
    9071.157     75.255   4.680  1.00796E+00  9.92127E-01  1.58340E-02
    9072.589     76.688   4.720  1.00490E+00  9.92552E-01  1.23473E-02
    9074.034     78.132   4.760  1.00261E+00  9.92982E-01  9.62948E-03
    9075.491     79.589   4.800  1.00055E+00  9.93415E-01  7.13650E-03
    9076.960     81.058   4.840  9.98017E-01  9.93870E-01  4.14647E-03
    9078.442     82.540   4.880  9.94350E-01  9.94307E-01  4.27209E-05
    9079.935     84.033   4.920  9.89359E-01  9.94766E-01 -5.40781E-03
    9081.441     85.539   4.960  9.83305E-01  9.95223E-01 -1.19181E-02
    9082.959     87.057   5.000  9.76845E-01  9.95655E-01 -1.88097E-02
    9084.489     88.587   5.040  9.70854E-01  9.96105E-01 -2.52508E-02
    9086.031     90.129   5.080  9.66115E-01  9.96526E-01 -3.04118E-02
    9087.586     91.684   5.120  9.63300E-01  9.96919E-01 -3.36182E-02
    9089.152     93.250   5.160  9.62774E-01  9.97325E-01 -3.45514E-02
    9090.731     94.829   5.200  9.64334E-01  9.97700E-01 -3.33659E-02
    9092.322     96.420   5.240  9.67358E-01  9.98041E-01 -3.06823E-02
    9093.925     98.024   5.280  9.70902E-01  9.98346E-01 -2.74445E-02
    9095.541     99.639   5.320  9.73862E-01  9.98641E-01 -2.47785E-02
    9097.168    101.267   5.360  9.75260E-01  9.98922E-01 -2.36628E-02
    9098.808    102.906   5.400  9.74529E-01  9.99147E-01 -2.46171E-02
    9100.460    104.558   5.440  9.71890E-01  9.99355E-01 -2.74646E-02
    9102.124    106.223   5.480  9.68160E-01  9.99526E-01 -3.13660E-02
    9103.801    107.899   5.520  9.64545E-01  9.99658E-01 -3.51127E-02
    9105.489    109.588   5.560  9.62170E-01  9.99752E-01 -3.75825E-02
    9107.190    111.288   5.600  9.61826E-01  9.99831E-01 -3.80054E-02
    9108.903    113.001   5.640  9.63744E-01  9.99847E-01 -3.61027E-02
    9110.628    114.727   5.680  9.67767E-01  9.99823E-01 -3.20560E-02
    9112.366    116.464   5.720  9.73290E-01  9.99784E-01 -2.64935E-02
    9114.115    118.213   5.760  9.79389E-01  9.99705E-01 -2.03155E-02
    9115.877    119.975   5.800  9.85183E-01  9.99564E-01 -1.43801E-02
    9117.651    121.749   5.840  9.90212E-01  9.99406E-01 -9.19396E-03
    9119.437    123.535   5.880  9.94406E-01  9.99188E-01 -4.78123E-03
    9121.235    125.334   5.920  9.98203E-01  9.98958E-01 -7.54319E-04
    9123.046    127.144   5.960  1.00238E+00  9.98692E-01  3.68419E-03
    9124.869    128.967   6.000  1.00751E+00  9.98365E-01  9.14920E-03
