# # comment:                                                     FEFF 9.9.1  
# # Source:
# # Structure
# # Reduced
# # space
# # abc:
# # angles:
# # sites:
# # POT  SCF 100  7.0000   0, screened core-hole, AFOLP (folp(0)= 1.150)
# # Abs   Z=29 Rmt= 1.282 Rnm= 1.353 K  shell
# # Pot 1 Z=26 Rmt= 1.327 Rnm= 1.411
# # Pot 2 Z=29 Rmt= 1.289 Rnm= 1.361
# # Pot 3 Z= 8 Rmt= 1.018 Rnm= 1.095
# # Gam_ch=1.729E+00 H-L exch Vi= 0.000E+00 Vr= 0.000E+00
# # Mu=-1.139E+01eV kf=2.164E+00 Vint=-1.839E+01eV Rs_int= 1.676
# FMS rfms= 9.0000
# # PATH  Rmax=-1.000,  Keep_limit= 0.00, Heap_limit 0.00  Pwcrit= 2.50%
#  S02=0.950  Temp=   0.00  Debye_temp=   0.00  Global_sig2= 0.00000
#  Energy zero shift, vr, vi    0.00000E+00   0.00000E+00
#  Curved wave amplitude ratio filter   4.000%
#     file         sig2 tot  cw amp ratio   deg  nlegs   reff  inp sig2
#     0/   0 paths used
#  xsedge+ 50, used to normalize mu           2.5119E-04
#  -----------------------------------------------------------------------
#  omega    e    k    mu    mu0     chi     @#
    8984.228    -15.202  -1.000  3.00007E-02  4.27718E-02 -1.27710E-02
    8984.527    -14.903  -0.960  3.13749E-02  4.55783E-02 -1.42035E-02
    8984.814    -14.616  -0.920  3.28439E-02  4.86740E-02 -1.58301E-02
    8985.088    -14.342  -0.880  3.44182E-02  5.20996E-02 -1.76814E-02
    8985.350    -14.080  -0.840  3.61098E-02  5.59024E-02 -1.97926E-02
    8985.600    -13.830  -0.800  3.79324E-02  6.01372E-02 -2.22048E-02
    8985.838    -13.592  -0.760  3.99013E-02  6.48665E-02 -2.49652E-02
    8986.063    -13.367  -0.720  4.20333E-02  7.01607E-02 -2.81274E-02
    8986.277    -13.153  -0.680  4.43469E-02  7.60972E-02 -3.17503E-02
    8986.478    -12.952  -0.640  4.68605E-02  8.27571E-02 -3.58966E-02
    8986.667    -12.763  -0.600  4.95918E-02  9.02198E-02 -4.06280E-02
    8986.844    -12.586  -0.560  5.25541E-02  9.85522E-02 -4.59981E-02
    8987.008    -12.422  -0.520  5.57530E-02  1.07793E-01 -5.20398E-02
    8987.161    -12.270  -0.480  5.91806E-02  1.17930E-01 -5.87492E-02
    8987.301    -12.129  -0.440  6.28087E-02  1.28875E-01 -6.60660E-02
    8987.429    -12.001  -0.400  6.65841E-02  1.40442E-01 -7.38578E-02
    8987.545    -11.885  -0.360  7.04260E-02  1.52341E-01 -8.19150E-02
    8987.648    -11.782  -0.320  7.42305E-02  1.64195E-01 -8.99643E-02
    8987.740    -11.690  -0.280  7.78809E-02  1.75584E-01 -9.77031E-02
    8987.819    -11.611  -0.240  8.12617E-02  1.86103E-01 -1.04841E-01
    8987.886    -11.544  -0.200  8.42710E-02  1.95410E-01 -1.11139E-01
    8987.941    -11.489  -0.160  8.68266E-02  2.03250E-01 -1.16423E-01
    8987.984    -11.447  -0.120  8.88659E-02  2.09457E-01 -1.20591E-01
    8988.014    -11.416  -0.080  9.03444E-02  2.13935E-01 -1.23591E-01
    8988.038    -11.392   0.000  9.15322E-02  2.17538E-01 -1.26006E-01
    8988.093    -11.337   0.120  9.44809E-02  2.25675E-01 -1.31194E-01
    8988.136    -11.294   0.160  9.67612E-02  2.32015E-01 -1.35254E-01
    8988.191    -11.239   0.200  9.97174E-02  2.40134E-01 -1.40417E-01
    8988.258    -11.172   0.240  1.03357E-01  2.49944E-01 -1.46588E-01
    8988.337    -11.093   0.280  1.07693E-01  2.61281E-01 -1.53588E-01
    8988.429    -11.002   0.320  1.12741E-01  2.73892E-01 -1.61150E-01
    8988.532    -10.898   0.360  1.18563E-01  2.87472E-01 -1.68909E-01
    8988.648    -10.782   0.400  1.25245E-01  3.01685E-01 -1.76440E-01
    8988.776    -10.654   0.440  1.32894E-01  3.16223E-01 -1.83329E-01
    8988.916    -10.514   0.480  1.41515E-01  3.30846E-01 -1.89331E-01
    8989.069    -10.361   0.520  1.50826E-01  3.45414E-01 -1.94587E-01
    8989.233    -10.197   0.560  1.59981E-01  3.59851E-01 -1.99870E-01
    8989.410    -10.020   0.600  1.67479E-01  3.74174E-01 -2.06695E-01
    8989.599     -9.831   0.640  1.71422E-01  3.88361E-01 -2.16940E-01
    8989.800     -9.630   0.680  1.70814E-01  4.02512E-01 -2.31697E-01
    8990.013     -9.417   0.720  1.66773E-01  4.16693E-01 -2.49920E-01
    8990.239     -9.191   0.760  1.62169E-01  4.30932E-01 -2.68762E-01
    8990.477     -8.953   0.800  1.59905E-01  4.45287E-01 -2.85382E-01
    8990.727     -8.703   0.840  1.61697E-01  4.59808E-01 -2.98111E-01
    8990.989     -8.441   0.880  1.68138E-01  4.74518E-01 -3.06381E-01
    8991.263     -8.167   0.920  1.79524E-01  4.89451E-01 -3.09926E-01
    8991.550     -7.880   0.960  1.96652E-01  5.04610E-01 -3.07958E-01
    8991.848     -7.582   1.000  2.21476E-01  5.19996E-01 -2.98520E-01
    8992.159     -7.271   1.040  2.57300E-01  5.35618E-01 -2.78318E-01
    8992.482     -6.948   1.080  3.07709E-01  5.51445E-01 -2.43737E-01
    8992.818     -6.612   1.120  3.72970E-01  5.67477E-01 -1.94506E-01
    8993.165     -6.265   1.160  4.43363E-01  5.83691E-01 -1.40328E-01
    8993.525     -5.905   1.200  4.95910E-01  6.00062E-01 -1.04153E-01
    8993.897     -5.533   1.240  5.09540E-01  6.16561E-01 -1.07021E-01
    8994.281     -5.149   1.280  4.93080E-01  6.33136E-01 -1.40057E-01
    8994.677     -4.753   1.320  4.74561E-01  6.49775E-01 -1.75214E-01
    8995.085     -4.345   1.360  4.65604E-01  6.66441E-01 -2.00837E-01
    8995.506     -3.924   1.400  4.63558E-01  6.83077E-01 -2.19519E-01
    8995.939     -3.491   1.440  4.69109E-01  6.99667E-01 -2.30558E-01
    8996.384     -3.046   1.480  4.88484E-01  7.16152E-01 -2.27669E-01
    8996.841     -2.589   1.520  5.30010E-01  7.32474E-01 -2.02464E-01
    8997.310     -2.120   1.560  5.99426E-01  7.48632E-01 -1.49205E-01
    8997.792     -1.638   1.600  6.80506E-01  7.64567E-01 -8.40612E-02
    8998.286     -1.144   1.640  7.29626E-01  7.80222E-01 -5.05953E-02
    8998.792     -0.638   1.680  7.27492E-01  7.95576E-01 -6.80837E-02
    8999.310     -0.120   1.720  7.05532E-01  8.10592E-01 -1.05060E-01
    8999.840      0.410   1.760  7.02187E-01  8.25212E-01 -1.23026E-01
    9000.383      0.953   1.800  7.41242E-01  8.39421E-01 -9.81790E-02
    9000.937      1.507   1.840  8.38646E-01  8.53203E-01 -1.45571E-02
    9001.504      2.074   1.880  1.00482E+00  8.66506E-01  1.38316E-01
    9002.084      2.653   1.920  1.22640E+00  8.79296E-01  3.47101E-01
    9002.675      3.245   1.960  1.41049E+00  8.91582E-01  5.18907E-01
    9003.278      3.848   2.000  1.42634E+00  9.03312E-01  5.23031E-01
    9003.894      4.464   2.040  1.31952E+00  9.14482E-01  4.05042E-01
    9004.522      5.092   2.080  1.23008E+00  9.25082E-01  3.04996E-01
    9005.162      5.732   2.120  1.18086E+00  9.35089E-01  2.45775E-01
    9005.814      6.384   2.160  1.15299E+00  9.44520E-01  2.08467E-01
    9006.479      7.049   2.200  1.15933E+00  9.53351E-01  2.05976E-01
    9007.155      7.725   2.240  1.20110E+00  9.61584E-01  2.39520E-01
    9007.844      8.414   2.280  1.24446E+00  9.69219E-01  2.75245E-01
    9008.545      9.115   2.320  1.25941E+00  9.76277E-01  2.83129E-01
    9009.258      9.828   2.360  1.24627E+00  9.82744E-01  2.63526E-01
    9009.984     10.554   2.400  1.19884E+00  9.88643E-01  2.10199E-01
    9010.722     11.291   2.440  1.11166E+00  9.93960E-01  1.17705E-01
    9011.471     12.041   2.480  1.02357E+00  9.98743E-01  2.48247E-02
    9012.233     12.803   2.520  9.64533E-01  1.00300E+00 -3.84685E-02
    9013.007     13.577   2.560  9.29408E-01  1.00674E+00 -7.73323E-02
    9013.794     14.364   2.600  9.18336E-01  1.00999E+00 -9.16576E-02
    9014.592     15.162   2.640  9.21158E-01  1.01277E+00 -9.16112E-02
    9015.403     15.973   2.680  9.31546E-01  1.01508E+00 -8.35311E-02
    9016.226     16.796   2.720  9.44131E-01  1.01697E+00 -7.28390E-02
    9017.061     17.631   2.760  9.54492E-01  1.01846E+00 -6.39648E-02
    9017.909     18.479   2.800  9.62164E-01  1.01955E+00 -5.73872E-02
    9018.768     19.338   2.840  9.69038E-01  1.02028E+00 -5.12466E-02
    9019.640     20.210   2.880  9.76720E-01  1.02069E+00 -4.39685E-02
    9020.524     21.094   2.920  9.85032E-01  1.02077E+00 -3.57428E-02
    9021.420     21.990   2.960  9.91685E-01  1.02055E+00 -2.88678E-02
    9022.328     22.898   3.000  9.93470E-01  1.02008E+00 -2.66075E-02
    9023.249     23.819   3.040  9.87993E-01  1.01936E+00 -3.13668E-02
    9024.181     24.751   3.080  9.75541E-01  1.01841E+00 -4.28686E-02
    9025.126     25.696   3.120  9.58884E-01  1.01728E+00 -5.83957E-02
    9026.083     26.653   3.160  9.40964E-01  1.01596E+00 -7.49951E-02
    9027.053     27.623   3.200  9.24092E-01  1.01448E+00 -9.03849E-02
    9028.034     28.604   3.240  9.09773E-01  1.01284E+00 -1.03071E-01
    9029.028     29.598   3.280  8.98908E-01  1.01111E+00 -1.12202E-01
    9030.034     30.603   3.320  8.91938E-01  1.00926E+00 -1.17327E-01
    9031.052     31.622   3.360  8.89010E-01  1.00734E+00 -1.18325E-01
    9032.082     32.652   3.400  8.89417E-01  1.00533E+00 -1.15913E-01
    9033.124     33.694   3.440  8.92250E-01  1.00328E+00 -1.11028E-01
    9034.179     34.749   3.480  8.96579E-01  1.00119E+00 -1.04607E-01
    9035.246     35.816   3.520  9.01659E-01  9.99059E-01 -9.74007E-02
    9036.325     36.895   3.560  9.07121E-01  9.96949E-01 -8.98280E-02
    9037.416     37.986   3.600  9.13019E-01  9.94818E-01 -8.17992E-02
    9038.519     39.089   3.640  9.19845E-01  9.92713E-01 -7.28686E-02
    9039.635     40.205   3.680  9.28188E-01  9.90620E-01 -6.24317E-02
    9040.762     41.332   3.720  9.38685E-01  9.88582E-01 -4.98967E-02
    9041.902     42.472   3.760  9.51517E-01  9.86565E-01 -3.50479E-02
    9043.055     43.624   3.800  9.66226E-01  9.84611E-01 -1.83848E-02
    9044.219     44.789   3.840  9.82019E-01  9.82705E-01 -6.86213E-04
    9045.395     45.965   3.880  9.98481E-01  9.80871E-01  1.76092E-02
    9046.584     47.154   3.920  1.01536E+00  9.79092E-01  3.62672E-02
    9047.785     48.355   3.960  1.03216E+00  9.77411E-01  5.47467E-02
    9048.998     49.568   4.000  1.04780E+00  9.75811E-01  7.19844E-02
    9050.223     50.793   4.040  1.06090E+00  9.74293E-01  8.66028E-02
    9051.461     52.031   4.080  1.07052E+00  9.72859E-01  9.76586E-02
    9052.711     53.281   4.120  1.07711E+00  9.71531E-01  1.05582E-01
    9053.972     54.542   4.160  1.08217E+00  9.70289E-01  1.11884E-01
    9055.247     55.816   4.200  1.08742E+00  9.69133E-01  1.18285E-01
    9056.533     57.103   4.240  1.09418E+00  9.68089E-01  1.26091E-01
    9057.831     58.401   4.280  1.10284E+00  9.67155E-01  1.35681E-01
    9059.142     59.712   4.320  1.11192E+00  9.66310E-01  1.45611E-01
    9060.465     61.035   4.360  1.11734E+00  9.65575E-01  1.51766E-01
    9061.800     62.370   4.400  1.11323E+00  9.64931E-01  1.48295E-01
    9063.147     63.717   4.440  1.09530E+00  9.64397E-01  1.30903E-01
    9064.506     65.076   4.480  1.06394E+00  9.63973E-01  9.99673E-02
    9065.878     66.448   4.520  1.02406E+00  9.63637E-01  6.04249E-02
    9067.262     67.832   4.560  9.82197E-01  9.63386E-01  1.88111E-02
    9068.658     69.228   4.600  9.43603E-01  9.63242E-01 -1.96394E-02
    9070.066     70.636   4.640  9.11297E-01  9.63183E-01 -5.18859E-02
    9071.486     72.056   4.680  8.86507E-01  9.63204E-01 -7.66970E-02
    9072.919     73.489   4.720  8.69332E-01  9.63308E-01 -9.39760E-02
    9074.363     74.933   4.760  8.59292E-01  9.63514E-01 -1.04222E-01
    9075.820     76.390   4.800  8.55660E-01  9.63775E-01 -1.08115E-01
    9077.290     77.859   4.840  8.57897E-01  9.64112E-01 -1.06215E-01
    9078.771     79.341   4.880  8.65758E-01  9.64523E-01 -9.87655E-02
    9080.264     80.834   4.920  8.79352E-01  9.64987E-01 -8.56351E-02
    9081.770     82.340   4.960  8.99060E-01  9.65542E-01 -6.64820E-02
    9083.288     83.858   5.000  9.24230E-01  9.66122E-01 -4.18919E-02
    9084.818     85.388   5.040  9.52145E-01  9.66765E-01 -1.46206E-02
    9086.360     86.930   5.080  9.78012E-01  9.67429E-01  1.05833E-02
    9087.915     88.485   5.120  9.97441E-01  9.68153E-01  2.92881E-02
    9089.481     90.051   5.160  1.00891E+00  9.68915E-01  3.99983E-02
    9091.060     91.630   5.200  1.01398E+00  9.69689E-01  4.42943E-02
    9092.651     93.221   5.240  1.01508E+00  9.70493E-01  4.45848E-02
    9094.255     94.825   5.280  1.01332E+00  9.71306E-01  4.20177E-02
    9095.870     96.440   5.320  1.00822E+00  9.72146E-01  3.60790E-02
    9097.498     98.068   5.360  9.98611E-01  9.72986E-01  2.56248E-02
    9099.138     99.707   5.400  9.84101E-01  9.73804E-01  1.02973E-02
    9100.790    101.359   5.440  9.66236E-01  9.74639E-01 -8.40287E-03
    9102.454    103.024   5.480  9.48269E-01  9.75448E-01 -2.71792E-02
    9104.130    104.700   5.520  9.33765E-01  9.76247E-01 -4.24823E-02
    9105.819    106.389   5.560  9.24464E-01  9.77014E-01 -5.25497E-02
    9107.519    108.089   5.600  9.19604E-01  9.77746E-01 -5.81412E-02
    9109.232    109.802   5.640  9.16924E-01  9.78464E-01 -6.15395E-02
    9110.958    111.528   5.680  9.14163E-01  9.79142E-01 -6.49786E-02
    9112.695    113.265   5.720  9.10058E-01  9.79757E-01 -6.96993E-02
    9114.445    115.014   5.760  9.04883E-01  9.80351E-01 -7.54684E-02
    9116.206    116.776   5.800  9.00428E-01  9.80879E-01 -8.04509E-02
    9117.980    118.550   5.840  8.99267E-01  9.81361E-01 -8.20936E-02
    9119.766    120.336   5.880  9.03119E-01  9.81794E-01 -7.86746E-02
    9121.565    122.135   5.920  9.12403E-01  9.82150E-01 -6.97473E-02
    9123.375    123.945   5.960  9.27069E-01  9.82417E-01 -5.53472E-02
    9125.198    125.768   6.000  9.47920E-01  9.82598E-01 -3.46785E-02
