# # comment:                                                     FEFF 9.9.1  
# # Source:
# # Structure
# # Reduced
# # space
# # abc:
# # angles:
# # sites:
# # POT  SCF 100  7.0000   0, screened core-hole, AFOLP (folp(0)= 1.150)
# # Abs   Z=29 Rmt= 1.158 Rnm= 1.346 K  shell
# # Pot 1 Z=56 Rmt= 2.068 Rnm= 2.134
# # Pot 2 Z=29 Rmt= 1.158 Rnm= 1.346
# # Pot 3 Z=80 Rmt= 1.391 Rnm= 1.559
# # Pot 4 Z= 8 Rmt= 1.027 Rnm= 1.119
# # Gam_ch=1.729E+00 H-L exch Vi= 0.000E+00 Vr= 0.000E+00
# # Mu=-6.200E+00eV kf=1.957E+00 Vint=-1.450E+01eV Rs_int= 1.853
# FMS rfms= 9.0000
# # PATH  Rmax=-1.000,  Keep_limit= 0.00, Heap_limit 0.00  Pwcrit= 2.50%
#  S02=0.950  Temp=   0.00  Debye_temp=   0.00  Global_sig2= 0.00000
#  Energy zero shift, vr, vi    0.00000E+00   0.00000E+00
#  Curved wave amplitude ratio filter   4.000%
#     file         sig2 tot  cw amp ratio   deg  nlegs   reff  inp sig2
#     0/   0 paths used
#  xsedge+ 50, used to normalize mu           2.4333E-04
#  -----------------------------------------------------------------------
#  omega    e    k    mu    mu0     chi     @#
    8983.627    -10.010  -1.000  4.72106E-02  5.78945E-02 -1.06840E-02
    8983.926     -9.711  -0.960  5.02256E-02  6.21565E-02 -1.19309E-02
    8984.212     -9.424  -0.920  5.35335E-02  6.68942E-02 -1.33607E-02
    8984.487     -9.150  -0.880  5.71726E-02  7.21775E-02 -1.50049E-02
    8984.749     -8.888  -0.840  6.11871E-02  7.80878E-02 -1.69007E-02
    8984.999     -8.638  -0.800  6.56271E-02  8.47194E-02 -1.90922E-02
    8985.236     -8.400  -0.760  7.05495E-02  9.21803E-02 -2.16307E-02
    8985.462     -8.175  -0.720  7.60173E-02  1.00593E-01 -2.45752E-02
    8985.675     -7.961  -0.680  8.20986E-02  1.10091E-01 -2.79919E-02
    8985.876     -7.760  -0.640  8.88638E-02  1.20816E-01 -3.19524E-02
    8986.065     -7.571  -0.600  9.63797E-02  1.32908E-01 -3.65287E-02
    8986.242     -7.394  -0.560  1.04701E-01  1.46486E-01 -4.17856E-02
    8986.407     -7.230  -0.520  1.13853E-01  1.61620E-01 -4.77671E-02
    8986.559     -7.077  -0.480  1.23815E-01  1.78293E-01 -5.44780E-02
    8986.699     -6.937  -0.440  1.34498E-01  1.96360E-01 -6.18627E-02
    8986.827     -6.809  -0.400  1.45721E-01  2.15507E-01 -6.97866E-02
    8986.943     -6.693  -0.360  1.57212E-01  2.35241E-01 -7.80288E-02
    8987.047     -6.590  -0.320  1.68623E-01  2.54919E-01 -8.62962E-02
    8987.138     -6.498  -0.280  1.79571E-01  2.73831E-01 -9.42597E-02
    8987.218     -6.419  -0.240  1.89688E-01  2.91291E-01 -1.01603E-01
    8987.285     -6.352  -0.200  1.98660E-01  3.06724E-01 -1.08064E-01
    8987.339     -6.297  -0.160  2.06249E-01  3.19710E-01 -1.13461E-01
    8987.382     -6.254  -0.120  2.12287E-01  3.29977E-01 -1.17690E-01
    8987.413     -6.224  -0.080  2.16665E-01  3.37376E-01 -1.20710E-01
    8987.437     -6.200   0.000  2.20215E-01  3.43321E-01 -1.23106E-01
    8987.492     -6.145   0.120  2.28390E-01  3.56736E-01 -1.28346E-01
    8987.535     -6.102   0.160  2.34750E-01  3.67158E-01 -1.32408E-01
    8987.589     -6.047   0.200  2.42995E-01  3.80468E-01 -1.37472E-01
    8987.656     -5.980   0.240  2.53154E-01  3.96489E-01 -1.43335E-01
    8987.736     -5.901   0.280  2.65241E-01  4.14889E-01 -1.49648E-01
    8987.827     -5.809   0.320  2.79347E-01  4.35229E-01 -1.55883E-01
    8987.931     -5.706   0.360  2.95575E-01  4.56919E-01 -1.61344E-01
    8988.047     -5.590   0.400  3.14112E-01  4.79348E-01 -1.65235E-01
    8988.175     -5.462   0.440  3.35141E-01  5.01918E-01 -1.66777E-01
    8988.315     -5.322   0.480  3.58766E-01  5.24198E-01 -1.65432E-01
    8988.467     -5.169   0.520  3.84712E-01  5.45912E-01 -1.61200E-01
    8988.632     -5.005   0.560  4.11995E-01  5.66910E-01 -1.54915E-01
    8988.809     -4.828   0.600  4.38735E-01  5.87156E-01 -1.48421E-01
    8988.998     -4.639   0.640  4.62376E-01  6.06687E-01 -1.44312E-01
    8989.199     -4.438   0.680  4.80646E-01  6.25579E-01 -1.44933E-01
    8989.412     -4.225   0.720  4.92888E-01  6.43921E-01 -1.51033E-01
    8989.638     -3.999   0.760  5.00427E-01  6.61801E-01 -1.61375E-01
    8989.875     -3.761   0.800  5.05387E-01  6.79297E-01 -1.73910E-01
    8990.125     -3.511   0.840  5.09319E-01  6.96470E-01 -1.87152E-01
    8990.387     -3.249   0.880  5.13232E-01  7.13329E-01 -2.00097E-01
    8990.662     -2.975   0.920  5.18811E-01  7.29948E-01 -2.11138E-01
    8990.948     -2.688   0.960  5.28188E-01  7.46307E-01 -2.18119E-01
    8991.247     -2.390   1.000  5.42100E-01  7.62415E-01 -2.20316E-01
    8991.558     -2.079   1.040  5.58492E-01  7.78253E-01 -2.19761E-01
    8991.881     -1.756   1.080  5.74613E-01  7.93832E-01 -2.19219E-01
    8992.216     -1.420   1.120  5.90693E-01  8.09119E-01 -2.18427E-01
    8992.564     -1.073   1.160  6.10184E-01  8.24095E-01 -2.13911E-01
    8992.923     -0.713   1.200  6.36006E-01  8.38695E-01 -2.02689E-01
    8993.295     -0.341   1.240  6.69867E-01  8.52936E-01 -1.83069E-01
    8993.679      0.043   1.280  7.13282E-01  8.66749E-01 -1.53467E-01
    8994.076      0.439   1.320  7.63816E-01  8.80148E-01 -1.16331E-01
    8994.484      0.847   1.360  8.12586E-01  8.93040E-01 -8.04542E-02
    8994.905      1.268   1.400  8.54534E-01  9.05459E-01 -5.09256E-02
    8995.337      1.701   1.440  8.92579E-01  9.17337E-01 -2.47584E-02
    8995.782      2.146   1.480  9.26200E-01  9.28666E-01 -2.46623E-03
    8996.240      2.603   1.520  9.49952E-01  9.39438E-01  1.05138E-02
    8996.709      3.072   1.560  9.60556E-01  9.49630E-01  1.09264E-02
    8997.191      3.554   1.600  9.57450E-01  9.59218E-01 -1.76789E-03
    8997.684      4.048   1.640  9.47961E-01  9.68200E-01 -2.02389E-02
    8998.190      4.554   1.680  9.46138E-01  9.76597E-01 -3.04592E-02
    8998.708      5.072   1.720  9.56413E-01  9.84390E-01 -2.79768E-02
    8999.239      5.602   1.760  9.71775E-01  9.91561E-01 -1.97854E-02
    8999.781      6.145   1.800  9.88308E-01  9.98155E-01 -9.84739E-03
    9000.336      6.699   1.840  1.00969E+00  1.00416E+00  5.52942E-03
    9000.903      7.266   1.880  1.04036E+00  1.00958E+00  3.07783E-02
    9001.482      7.846   1.920  1.07580E+00  1.01445E+00  6.13537E-02
    9002.073      8.437   1.960  1.10485E+00  1.01879E+00  8.60595E-02
    9002.677      9.040   2.000  1.11975E+00  1.02259E+00  9.71536E-02
    9003.293      9.656   2.040  1.12346E+00  1.02590E+00  9.75679E-02
    9003.921     10.284   2.080  1.12514E+00  1.02873E+00  9.64117E-02
    9004.561     10.924   2.120  1.13020E+00  1.03110E+00  9.90959E-02
    9005.213     11.576   2.160  1.13965E+00  1.03305E+00  1.06598E-01
    9005.877     12.241   2.200  1.15656E+00  1.03459E+00  1.21975E-01
    9006.554     12.917   2.240  1.18134E+00  1.03574E+00  1.45594E-01
    9007.243     13.606   2.280  1.20461E+00  1.03655E+00  1.68062E-01
    9007.944     14.307   2.320  1.21823E+00  1.03701E+00  1.81217E-01
    9008.657     15.020   2.360  1.22001E+00  1.03719E+00  1.82820E-01
    9009.383     15.746   2.400  1.20448E+00  1.03709E+00  1.67394E-01
    9010.120     16.484   2.440  1.18679E+00  1.03673E+00  1.50067E-01
    9010.870     17.233   2.480  1.17062E+00  1.03615E+00  1.34471E-01
    9011.632     17.995   2.520  1.15544E+00  1.03534E+00  1.20105E-01
    9012.406     18.770   2.560  1.14018E+00  1.03435E+00  1.05828E-01
    9013.193     19.556   2.600  1.12501E+00  1.03322E+00  9.17852E-02
    9013.991     20.354   2.640  1.11054E+00  1.03193E+00  7.86058E-02
    9014.802     21.165   2.680  1.09617E+00  1.03052E+00  6.56451E-02
    9015.625     21.988   2.720  1.08196E+00  1.02899E+00  5.29685E-02
    9016.460     22.823   2.760  1.06861E+00  1.02740E+00  4.12163E-02
    9017.307     23.671   2.800  1.05654E+00  1.02573E+00  3.08093E-02
    9018.167     24.530   2.840  1.04592E+00  1.02401E+00  2.19119E-02
    9019.039     25.402   2.880  1.03621E+00  1.02222E+00  1.39858E-02
    9019.922     26.286   2.920  1.02618E+00  1.02044E+00  5.73413E-03
    9020.819     27.182   2.960  1.01498E+00  1.01864E+00 -3.66205E-03
    9021.727     28.090   3.000  1.00209E+00  1.01683E+00 -1.47454E-02
    9022.647     29.011   3.040  9.87285E-01  1.01503E+00 -2.77422E-02
    9023.580     29.943   3.080  9.70900E-01  1.01325E+00 -4.23535E-02
    9024.525     30.888   3.120  9.53829E-01  1.01152E+00 -5.76872E-02
    9025.482     31.845   3.160  9.37365E-01  1.00982E+00 -7.24523E-02
    9026.451     32.815   3.200  9.22642E-01  1.00816E+00 -8.55179E-02
    9027.433     33.796   3.240  9.10305E-01  1.00655E+00 -9.62445E-02
    9028.426     34.790   3.280  9.00561E-01  1.00501E+00 -1.04450E-01
    9029.432     35.796   3.320  8.93495E-01  1.00352E+00 -1.10029E-01
    9030.450     36.814   3.360  8.89495E-01  1.00213E+00 -1.12639E-01
    9031.480     37.844   3.400  8.88825E-01  1.00080E+00 -1.11979E-01
    9032.523     38.886   3.440  8.91628E-01  9.99553E-01 -1.07925E-01
    9033.577     39.941   3.480  8.97773E-01  9.98406E-01 -1.00633E-01
    9034.644     41.008   3.520  9.06736E-01  9.97323E-01 -9.05870E-02
    9035.723     42.087   3.560  9.17732E-01  9.96346E-01 -7.86143E-02
    9036.814     43.178   3.600  9.29808E-01  9.95456E-01 -6.56484E-02
    9037.918     44.281   3.640  9.42141E-01  9.94675E-01 -5.25343E-02
    9039.033     45.397   3.680  9.53981E-01  9.93981E-01 -4.00000E-02
    9040.161     46.524   3.720  9.64792E-01  9.93374E-01 -2.85827E-02
    9041.301     47.664   3.760  9.74620E-01  9.92854E-01 -1.82336E-02
    9042.453     48.817   3.800  9.83951E-01  9.92440E-01 -8.48889E-03
    9043.618     49.981   3.840  9.93343E-01  9.92114E-01  1.22909E-03
    9044.794     51.157   3.880  1.00289E+00  9.91877E-01  1.10154E-02
    9045.983     52.346   3.920  1.01211E+00  9.91747E-01  2.03657E-02
    9047.184     53.547   3.960  1.02005E+00  9.91703E-01  2.83474E-02
    9048.397     54.760   4.000  1.02580E+00  9.91743E-01  3.40545E-02
    9049.622     55.985   4.040  1.02879E+00  9.91865E-01  3.69285E-02
    9050.860     57.223   4.080  1.02889E+00  9.92069E-01  3.68230E-02
    9052.109     58.473   4.120  1.02620E+00  9.92353E-01  3.38466E-02
    9053.371     59.734   4.160  1.02117E+00  9.92718E-01  2.84517E-02
    9054.645     61.009   4.200  1.01448E+00  9.93162E-01  2.13175E-02
    9055.931     62.295   4.240  1.00696E+00  9.93681E-01  1.32746E-02
    9057.230     63.593   4.280  9.99505E-01  9.94254E-01  5.25089E-03
    9058.540     64.904   4.320  9.92947E-01  9.94898E-01 -1.95131E-03
    9059.863     66.227   4.360  9.87792E-01  9.95591E-01 -7.79981E-03
    9061.198     67.562   4.400  9.84367E-01  9.96354E-01 -1.19871E-02
    9062.546     68.909   4.440  9.82779E-01  9.97162E-01 -1.43831E-02
    9063.905     70.268   4.480  9.82959E-01  9.98011E-01 -1.50524E-02
    9065.277     71.640   4.520  9.84739E-01  9.98900E-01 -1.41611E-02
    9066.660     73.024   4.560  9.87941E-01  9.99825E-01 -1.18847E-02
    9068.056     74.420   4.600  9.92506E-01  1.00076E+00 -8.25816E-03
    9069.464     75.828   4.640  9.98603E-01  1.00174E+00 -3.13282E-03
    9070.885     77.248   4.680  1.00634E+00  1.00274E+00  3.60400E-03
    9072.317     78.681   4.720  1.01547E+00  1.00375E+00  1.17208E-02
    9073.762     80.125   4.760  1.02533E+00  1.00479E+00  2.05424E-02
    9075.219     81.582   4.800  1.03496E+00  1.00581E+00  2.91530E-02
    9076.688     83.052   4.840  1.04358E+00  1.00682E+00  3.67549E-02
    9078.169     84.533   4.880  1.05067E+00  1.00786E+00  4.28174E-02
    9079.663     86.026   4.920  1.05598E+00  1.00886E+00  4.71101E-02
    9081.169     87.532   4.960  1.05962E+00  1.00986E+00  4.97547E-02
    9082.687     89.050   5.000  1.06204E+00  1.01083E+00  5.12094E-02
    9084.217     90.580   5.040  1.06387E+00  1.01176E+00  5.21142E-02
    9085.759     92.122   5.080  1.06569E+00  1.01268E+00  5.30097E-02
    9087.313     93.677   5.120  1.06755E+00  1.01356E+00  5.39921E-02
    9088.880     95.244   5.160  1.06913E+00  1.01440E+00  5.47302E-02
    9090.459     96.822   5.200  1.06961E+00  1.01522E+00  5.43955E-02
    9092.050     98.413   5.240  1.06778E+00  1.01595E+00  5.18339E-02
    9093.653    100.017   5.280  1.06261E+00  1.01666E+00  4.59483E-02
    9095.269    101.632   5.320  1.05356E+00  1.01732E+00  3.62363E-02
    9096.896    103.260   5.360  1.04126E+00  1.01791E+00  2.33527E-02
    9098.536    104.900   5.400  1.02762E+00  1.01843E+00  9.18465E-03
    9100.188    106.552   5.440  1.01492E+00  1.01892E+00 -3.99770E-03
    9101.852    108.216   5.480  1.00467E+00  1.01932E+00 -1.46430E-02
    9103.529    109.892   5.520  9.96958E-01  1.01966E+00 -2.26992E-02
    9105.217    111.581   5.560  9.90640E-01  1.01995E+00 -2.93072E-02
    9106.918    113.282   5.600  9.84507E-01  1.02014E+00 -3.56329E-02
    9108.631    114.994   5.640  9.78227E-01  1.02030E+00 -4.20741E-02
    9110.356    116.720   5.680  9.71988E-01  1.02036E+00 -4.83756E-02
    9112.094    118.457   5.720  9.66075E-01  1.02037E+00 -5.42971E-02
    9113.843    120.207   5.760  9.60627E-01  1.02030E+00 -5.96768E-02
    9115.605    121.968   5.800  9.56137E-01  1.02016E+00 -6.40213E-02
    9117.379    123.742   5.840  9.53615E-01  1.01994E+00 -6.63227E-02
    9119.165    125.528   5.880  9.54230E-01  1.01967E+00 -6.54402E-02
    9120.963    127.327   5.920  9.58629E-01  1.01936E+00 -6.07263E-02
    9122.774    129.137   5.960  9.66509E-01  1.01896E+00 -5.24513E-02
    9124.596    130.960   6.000  9.76890E-01  1.01844E+00 -4.15457E-02
