# # comment:                                                     FEFF 9.9.1  
# # Source:
# # Structure
# # Reduced
# # space
# # abc:
# # angles:
# # sites:
# # POT  SCF 100  7.0000   0, screened core-hole, AFOLP (folp(0)= 1.150)
# # Abs   Z=29 Rmt= 1.238 Rnm= 1.305 K  shell
# # Pot 1 Z= 3 Rmt= 1.268 Rnm= 1.325
# # Pot 2 Z=25 Rmt= 1.295 Rnm= 1.397
# # Pot 3 Z=29 Rmt= 1.159 Rnm= 1.258
# # Pot 4 Z= 8 Rmt= 1.032 Rnm= 1.099
# # Gam_ch=1.729E+00 H-L exch Vi= 0.000E+00 Vr= 0.000E+00
# # Mu=-1.051E+01eV kf=2.166E+00 Vint=-1.831E+01eV Rs_int= 1.674
# FMS rfms= 9.0000
# # PATH  Rmax=-1.000,  Keep_limit= 0.00, Heap_limit 0.00  Pwcrit= 2.50%
#  S02=0.950  Temp=   0.00  Debye_temp=   0.00  Global_sig2= 0.00000
#  Energy zero shift, vr, vi    0.00000E+00   0.00000E+00
#  Curved wave amplitude ratio filter   4.000%
#     file         sig2 tot  cw amp ratio   deg  nlegs   reff  inp sig2
#     0/   0 paths used
#  xsedge+ 50, used to normalize mu           2.4698E-04
#  -----------------------------------------------------------------------
#  omega    e    k    mu    mu0     chi     @#
    8985.015    -14.323  -1.000  3.37729E-02  5.03683E-02 -1.65953E-02
    8985.314    -14.024  -0.960  3.53392E-02  5.39138E-02 -1.85746E-02
    8985.600    -13.738  -0.920  3.70067E-02  5.78435E-02 -2.08368E-02
    8985.874    -13.464  -0.880  3.87855E-02  6.22131E-02 -2.34276E-02
    8986.136    -13.201  -0.840  4.06874E-02  6.70873E-02 -2.63999E-02
    8986.386    -12.951  -0.800  4.27256E-02  7.25409E-02 -2.98153E-02
    8986.624    -12.714  -0.760  4.49154E-02  7.86597E-02 -3.37443E-02
    8986.850    -12.488  -0.720  4.72734E-02  8.55403E-02 -3.82669E-02
    8987.063    -12.275  -0.680  4.98182E-02  9.32893E-02 -4.34710E-02
    8987.264    -12.074  -0.640  5.25686E-02  1.02019E-01 -4.94499E-02
    8987.453    -11.885  -0.600  5.55422E-02  1.11838E-01 -5.62958E-02
    8987.630    -11.708  -0.560  5.87520E-02  1.22841E-01 -6.40889E-02
    8987.795    -11.543  -0.520  6.22019E-02  1.35082E-01 -7.28801E-02
    8987.947    -11.391  -0.480  6.58793E-02  1.48547E-01 -8.26680E-02
    8988.087    -11.251  -0.440  6.97479E-02  1.63119E-01 -9.33712E-02
    8988.215    -11.123  -0.400  7.37417E-02  1.78546E-01 -1.04805E-01
    8988.331    -11.007  -0.360  7.77642E-02  1.94435E-01 -1.16671E-01
    8988.435    -10.903  -0.320  8.16965E-02  2.10274E-01 -1.28578E-01
    8988.526    -10.812  -0.280  8.54127E-02  2.25495E-01 -1.40082E-01
    8988.605    -10.733  -0.240  8.87979E-02  2.39549E-01 -1.50751E-01
    8988.672    -10.665  -0.200  9.17613E-02  2.51977E-01 -1.60215E-01
    8988.727    -10.611  -0.160  9.42403E-02  2.62438E-01 -1.68197E-01
    8988.770    -10.568  -0.120  9.61954E-02  2.70713E-01 -1.74518E-01
    8988.800    -10.537  -0.080  9.76024E-02  2.76678E-01 -1.79076E-01
    8988.825    -10.513   0.000  9.87270E-02  2.81474E-01 -1.82747E-01
    8988.880    -10.458   0.120  1.01332E-01  2.92296E-01 -1.90964E-01
    8988.922    -10.416   0.160  1.03354E-01  3.00714E-01 -1.97361E-01
    8988.977    -10.361   0.200  1.05948E-01  3.11487E-01 -2.05539E-01
    8989.044    -10.294   0.240  1.09120E-01  3.24462E-01 -2.15342E-01
    8989.123    -10.214   0.280  1.12857E-01  3.39419E-01 -2.26562E-01
    8989.215    -10.123   0.320  1.17148E-01  3.55963E-01 -2.38815E-01
    8989.319    -10.019   0.360  1.22028E-01  3.73672E-01 -2.51644E-01
    8989.434     -9.903   0.400  1.27574E-01  3.92073E-01 -2.64498E-01
    8989.562     -9.775   0.440  1.33835E-01  4.10732E-01 -2.76897E-01
    8989.703     -9.635   0.480  1.40792E-01  4.29275E-01 -2.88483E-01
    8989.855     -9.483   0.520  1.48413E-01  4.47488E-01 -2.99075E-01
    8990.020     -9.318   0.560  1.56564E-01  4.65295E-01 -3.08731E-01
    8990.196     -9.141   0.600  1.64904E-01  4.82643E-01 -3.17739E-01
    8990.385     -8.953   0.640  1.73096E-01  4.99583E-01 -3.26487E-01
    8990.587     -8.751   0.680  1.80841E-01  5.16172E-01 -3.35331E-01
    8990.800     -8.538   0.720  1.87970E-01  5.32498E-01 -3.44529E-01
    8991.025     -8.312   0.760  1.94645E-01  5.48627E-01 -3.53981E-01
    8991.263     -8.075   0.800  2.01531E-01  5.64597E-01 -3.63067E-01
    8991.513     -7.825   0.840  2.09930E-01  5.80477E-01 -3.70547E-01
    8991.775     -7.563   0.880  2.21390E-01  5.96299E-01 -3.74910E-01
    8992.050     -7.288   0.920  2.37361E-01  6.12086E-01 -3.74725E-01
    8992.336     -7.002   0.960  2.59139E-01  6.27852E-01 -3.68713E-01
    8992.635     -6.703   1.000  2.88645E-01  6.43600E-01 -3.54955E-01
    8992.946     -6.392   1.040  3.29725E-01  6.59323E-01 -3.29598E-01
    8993.269     -6.069   1.080  3.88192E-01  6.74969E-01 -2.86777E-01
    8993.604     -5.734   1.120  4.66824E-01  6.90582E-01 -2.23758E-01
    8993.952     -5.386   1.160  5.52061E-01  7.06080E-01 -1.54018E-01
    8994.311     -5.027   1.200  6.14651E-01  7.21456E-01 -1.06805E-01
    8994.683     -4.655   1.240  6.41863E-01  7.36663E-01 -9.48007E-02
    8995.067     -4.271   1.280  6.44080E-01  7.51691E-01 -1.07611E-01
    8995.463     -3.875   1.320  6.32850E-01  7.66487E-01 -1.33637E-01
    8995.872     -3.466   1.360  6.22983E-01  7.81039E-01 -1.58057E-01
    8996.292     -3.046   1.400  6.30510E-01  7.95274E-01 -1.64764E-01
    8996.725     -2.613   1.440  6.61224E-01  8.09198E-01 -1.47974E-01
    8997.170     -2.168   1.480  7.09512E-01  8.22756E-01 -1.13245E-01
    8997.627     -1.710   1.520  7.68554E-01  8.35920E-01 -6.73658E-02
    8998.097     -1.241   1.560  8.25436E-01  8.48674E-01 -2.32383E-02
    8998.578     -0.760   1.600  8.57080E-01  8.60968E-01 -3.88728E-03
    8999.072     -0.266   1.640  8.67181E-01  8.72813E-01 -5.63193E-03
    8999.578      0.240   1.680  8.79107E-01  8.84162E-01 -5.05528E-03
    9000.096      0.758   1.720  8.95591E-01  8.95027E-01  5.64430E-04
    9000.627      1.289   1.760  9.19279E-01  9.05361E-01  1.39180E-02
    9001.169      1.831   1.800  9.65115E-01  9.15163E-01  4.99526E-02
    9001.724      2.386   1.840  1.04084E+00  9.24448E-01  1.16390E-01
    9002.291      2.953   1.880  1.14962E+00  9.33196E-01  2.16424E-01
    9002.870      3.532   1.920  1.29796E+00  9.41430E-01  3.56529E-01
    9003.461      4.123   1.960  1.48330E+00  9.49108E-01  5.34192E-01
    9004.065      4.727   2.000  1.67104E+00  9.56274E-01  7.14765E-01
    9004.680      5.343   2.040  1.79359E+00  9.62913E-01  8.30680E-01
    9005.308      5.970   2.080  1.77944E+00  9.69050E-01  8.10391E-01
    9005.948      6.611   2.120  1.62396E+00  9.74670E-01  6.49288E-01
    9006.601      7.263   2.160  1.41830E+00  9.79823E-01  4.38473E-01
    9007.265      7.927   2.200  1.23826E+00  9.84515E-01  2.53745E-01
    9007.942      8.604   2.240  1.09554E+00  9.88735E-01  1.06805E-01
    9008.631      9.293   2.280  9.82093E-01  9.92533E-01 -1.04393E-02
    9009.332      9.994   2.320  8.96715E-01  9.95919E-01 -9.92042E-02
    9010.045     10.707   2.360  8.43261E-01  9.98921E-01 -1.55660E-01
    9010.770     11.432   2.400  8.18660E-01  1.00153E+00 -1.82869E-01
    9011.508     12.170   2.440  8.14895E-01  1.00378E+00 -1.88881E-01
    9012.258     12.920   2.480  8.24237E-01  1.00569E+00 -1.81452E-01
    9013.020     13.682   2.520  8.44927E-01  1.00730E+00 -1.62375E-01
    9013.794     14.456   2.560  8.83074E-01  1.00860E+00 -1.25529E-01
    9014.580     15.242   2.600  9.34940E-01  1.00964E+00 -7.47027E-02
    9015.379     16.041   2.640  9.79024E-01  1.01041E+00 -3.13874E-02
    9016.190     16.852   2.680  1.01463E+00  1.01096E+00  3.66796E-03
    9017.013     17.675   2.720  1.04210E+00  1.01128E+00  3.08227E-02
    9017.848     18.510   2.760  1.06209E+00  1.01142E+00  5.06737E-02
    9018.695     19.357   2.800  1.07339E+00  1.01138E+00  6.20056E-02
    9019.555     20.217   2.840  1.07464E+00  1.01117E+00  6.34756E-02
    9020.426     21.088   2.880  1.06617E+00  1.01081E+00  5.53582E-02
    9021.310     21.972   2.920  1.04909E+00  1.01033E+00  3.87584E-02
    9022.206     22.868   2.960  1.02592E+00  1.00974E+00  1.61866E-02
    9023.115     23.777   3.000  9.99191E-01  1.00905E+00 -9.85987E-03
    9024.035     24.697   3.040  9.70969E-01  1.00828E+00 -3.73116E-02
    9024.968     25.630   3.080  9.43437E-01  1.00743E+00 -6.39954E-02
    9025.913     26.575   3.120  9.18544E-01  1.00653E+00 -8.79908E-02
    9026.870     27.532   3.160  8.97365E-01  1.00559E+00 -1.08227E-01
    9027.839     28.501   3.200  8.80475E-01  1.00459E+00 -1.24112E-01
    9028.820     29.483   3.240  8.68127E-01  1.00359E+00 -1.35462E-01
    9029.814     30.476   3.280  8.60069E-01  1.00254E+00 -1.42472E-01
    9030.820     31.482   3.320  8.56191E-01  1.00151E+00 -1.45318E-01
    9031.838     32.500   3.360  8.56324E-01  1.00048E+00 -1.44152E-01
    9032.868     33.530   3.400  8.59750E-01  9.99446E-01 -1.39696E-01
    9033.911     34.573   3.440  8.65467E-01  9.98422E-01 -1.32954E-01
    9034.965     35.627   3.480  8.72590E-01  9.97428E-01 -1.24838E-01
    9036.032     36.694   3.520  8.80563E-01  9.96467E-01 -1.15904E-01
    9037.111     37.773   3.560  8.89381E-01  9.95521E-01 -1.06140E-01
    9038.202     38.864   3.600  8.99640E-01  9.94633E-01 -9.49925E-02
    9039.306     39.968   3.640  9.11876E-01  9.93763E-01 -8.18872E-02
    9040.421     41.083   3.680  9.26498E-01  9.92955E-01 -6.64574E-02
    9041.549     42.211   3.720  9.43567E-01  9.92169E-01 -4.86021E-02
    9042.689     43.351   3.760  9.63251E-01  9.91449E-01 -2.81980E-02
    9043.841     44.503   3.800  9.85603E-01  9.90798E-01 -5.19552E-03
    9045.005     45.667   3.840  1.01040E+00  9.90192E-01  2.02100E-02
    9046.182     46.844   3.880  1.03697E+00  9.89631E-01  4.73394E-02
    9047.371     48.033   3.920  1.06387E+00  9.89118E-01  7.47555E-02
    9048.571     49.234   3.960  1.08898E+00  9.88673E-01  1.00310E-01
    9049.785     50.447   4.000  1.10995E+00  9.88299E-01  1.21651E-01
    9051.010     51.672   4.040  1.12474E+00  9.87973E-01  1.36771E-01
    9052.247     52.909   4.080  1.13219E+00  9.87693E-01  1.44494E-01
    9053.497     54.159   4.120  1.13222E+00  9.87481E-01  1.44739E-01
    9054.759     55.421   4.160  1.12562E+00  9.87315E-01  1.38307E-01
    9056.033     56.695   4.200  1.11367E+00  9.87195E-01  1.26472E-01
    9057.319     57.981   4.240  1.09786E+00  9.87144E-01  1.10717E-01
    9058.618     59.280   4.280  1.07972E+00  9.87139E-01  9.25798E-02
    9059.928     60.590   4.320  1.06074E+00  9.87198E-01  7.35400E-02
    9061.251     61.913   4.360  1.04217E+00  9.87280E-01  5.48877E-02
    9062.586     63.248   4.400  1.02499E+00  9.87425E-01  3.75666E-02
    9063.933     64.595   4.440  1.00968E+00  9.87609E-01  2.20735E-02
    9065.293     65.955   4.480  9.96222E-01  9.87812E-01  8.40943E-03
    9066.664     67.326   4.520  9.84387E-01  9.88076E-01 -3.68939E-03
    9068.048     68.710   4.560  9.73949E-01  9.88377E-01 -1.44279E-02
    9069.444     70.106   4.600  9.64982E-01  9.88692E-01 -2.37099E-02
    9070.852     71.514   4.640  9.57917E-01  9.89041E-01 -3.11235E-02
    9072.273     72.935   4.680  9.53385E-01  9.89422E-01 -3.60371E-02
    9073.705     74.367   4.720  9.51842E-01  9.89814E-01 -3.79719E-02
    9075.150     75.812   4.760  9.53409E-01  9.90236E-01 -3.68267E-02
    9076.607     77.269   4.800  9.57726E-01  9.90667E-01 -3.29410E-02
    9078.076     78.738   4.840  9.64167E-01  9.91125E-01 -2.69574E-02
    9079.557     80.219   4.880  9.72070E-01  9.91586E-01 -1.95159E-02
    9081.051     81.713   4.920  9.80895E-01  9.92049E-01 -1.11547E-02
    9082.556     83.219   4.960  9.90125E-01  9.92513E-01 -2.38742E-03
    9084.074     84.737   5.000  9.99125E-01  9.92975E-01  6.14974E-03
    9085.604     86.267   5.040  1.00702E+00  9.93436E-01  1.35880E-02
    9087.147     87.809   5.080  1.01280E+00  9.93892E-01  1.89116E-02
    9088.701     89.363   5.120  1.01573E+00  9.94323E-01  2.14102E-02
    9090.268     90.930   5.160  1.01588E+00  9.94769E-01  2.11081E-02
    9091.847     92.509   5.200  1.01388E+00  9.95187E-01  1.86907E-02
    9093.438     94.100   5.240  1.01060E+00  9.95573E-01  1.50284E-02
    9095.041     95.703   5.280  1.00678E+00  9.95949E-01  1.08268E-02
    9096.656     97.319   5.320  1.00276E+00  9.96316E-01  6.44304E-03
    9098.284     98.946   5.360  9.98611E-01  9.96649E-01  1.96186E-03
    9099.924    100.586   5.400  9.94102E-01  9.96945E-01 -2.84319E-03
    9101.576    102.238   5.440  9.88730E-01  9.97205E-01 -8.47542E-03
    9103.240    103.902   5.480  9.81841E-01  9.97451E-01 -1.56106E-02
    9104.917    105.579   5.520  9.73051E-01  9.97661E-01 -2.46101E-02
    9106.605    107.267   5.560  9.62587E-01  9.97833E-01 -3.52459E-02
    9108.306    108.968   5.600  9.51353E-01  9.97965E-01 -4.66116E-02
    9110.019    110.681   5.640  9.40540E-01  9.98056E-01 -5.75152E-02
    9111.744    112.406   5.680  9.31070E-01  9.98109E-01 -6.70393E-02
    9113.481    114.144   5.720  9.23286E-01  9.98147E-01 -7.48609E-02
    9115.231    115.893   5.760  9.17069E-01  9.98121E-01 -8.10526E-02
    9116.993    117.655   5.800  9.12419E-01  9.98057E-01 -8.56380E-02
    9118.767    119.429   5.840  9.09762E-01  9.97977E-01 -8.82147E-02
    9120.553    121.215   5.880  9.09945E-01  9.97836E-01 -8.78914E-02
    9122.351    123.013   5.920  9.14126E-01  9.97680E-01 -8.35534E-02
    9124.162    124.824   5.960  9.23147E-01  9.97460E-01 -7.43124E-02
    9125.984    126.646   6.000  9.37903E-01  9.97204E-01 -5.93010E-02
