# # comment:                                                     FEFF 9.9.1  
# # Source:
# # Structure
# # Reduced
# # space
# # abc:
# # angles:103.864015
# # sites:
# # POT  SCF 100  7.0000   0, screened core-hole, AFOLP (folp(0)= 1.150)
# # Abs   Z=29 Rmt= 1.230 Rnm= 1.311 K  shell
# # Pot 1 Z=22 Rmt= 1.272 Rnm= 1.397
# # Pot 2 Z=29 Rmt= 1.242 Rnm= 1.326
# # Pot 3 Z= 5 Rmt= 0.762 Rnm= 0.979
# # Pot 4 Z= 8 Rmt= 0.900 Rnm= 1.044
# # Gam_ch=1.729E+00 H-L exch Vi= 0.000E+00 Vr= 0.000E+00
# # Mu=-7.082E+00eV kf=2.402E+00 Vint=-1.765E+01eV Rs_int= 1.510
# FMS rfms= 9.0000
# # PATH  Rmax=-1.000,  Keep_limit= 0.00, Heap_limit 0.00  Pwcrit= 2.50%
#  S02=0.950  Temp=   0.00  Debye_temp=   0.00  Global_sig2= 0.00000
#  Energy zero shift, vr, vi    0.00000E+00   0.00000E+00
#  Curved wave amplitude ratio filter   4.000%
#     file         sig2 tot  cw amp ratio   deg  nlegs   reff  inp sig2
#     0/   0 paths used
#  xsedge+ 50, used to normalize mu           2.4982E-04
#  -----------------------------------------------------------------------
#  omega    e    k    mu    mu0     chi     @#
    8983.382    -10.892  -1.000  3.94711E-02  5.08382E-02 -1.13671E-02
    8983.681    -10.593  -0.960  4.19576E-02  5.45075E-02 -1.25499E-02
    8983.967    -10.306  -0.920  4.47142E-02  5.85861E-02 -1.38719E-02
    8984.242    -10.032  -0.880  4.77840E-02  6.31346E-02 -1.53506E-02
    8984.504     -9.770  -0.840  5.12181E-02  6.82238E-02 -1.70058E-02
    8984.754     -9.520  -0.800  5.50764E-02  7.39356E-02 -1.88592E-02
    8984.991     -9.282  -0.760  5.94288E-02  8.03641E-02 -2.09353E-02
    8985.217     -9.057  -0.720  6.43555E-02  8.76157E-02 -2.32602E-02
    8985.430     -8.843  -0.680  6.99459E-02  9.58079E-02 -2.58620E-02
    8985.632     -8.642  -0.640  7.62959E-02  1.05064E-01 -2.87686E-02
    8985.821     -8.453  -0.600  8.35014E-02  1.15507E-01 -3.20060E-02
    8985.997     -8.276  -0.560  9.16470E-02  1.27241E-01 -3.55939E-02
    8986.162     -8.112  -0.520  1.00787E-01  1.40327E-01 -3.95402E-02
    8986.314     -7.959  -0.480  1.10921E-01  1.54753E-01 -4.38325E-02
    8986.454     -7.819  -0.440  1.21962E-01  1.70392E-01 -4.84295E-02
    8986.583     -7.691  -0.400  1.33717E-01  1.86970E-01 -5.32530E-02
    8986.698     -7.575  -0.360  1.45871E-01  2.04057E-01 -5.81859E-02
    8986.802     -7.472  -0.320  1.58014E-01  2.21094E-01 -6.30798E-02
    8986.893     -7.380  -0.280  1.69691E-01  2.37462E-01 -6.77707E-02
    8986.973     -7.301  -0.240  1.80463E-01  2.52564E-01 -7.21010E-02
    8987.040     -7.234  -0.200  1.89969E-01  2.65905E-01 -7.59366E-02
    8987.095     -7.179  -0.160  1.97947E-01  2.77123E-01 -7.91758E-02
    8987.137     -7.136  -0.120  2.04235E-01  2.85985E-01 -8.17502E-02
    8987.168     -7.106  -0.080  2.08748E-01  2.92368E-01 -8.36200E-02
    8987.192     -7.082   0.000  2.12338E-01  2.97496E-01 -8.51581E-02
    8987.247     -7.027   0.120  2.20342E-01  3.09041E-01 -8.86982E-02
    8987.290     -6.984   0.160  2.26613E-01  3.18017E-01 -9.14035E-02
    8987.345     -6.929   0.200  2.34569E-01  3.29455E-01 -9.48859E-02
    8987.412     -6.862   0.240  2.44069E-01  3.43211E-01 -9.91422E-02
    8987.491     -6.783   0.280  2.54783E-01  3.58976E-01 -1.04193E-01
    8987.582     -6.691   0.320  2.66262E-01  3.76333E-01 -1.10071E-01
    8987.686     -6.588   0.360  2.77852E-01  3.94746E-01 -1.16894E-01
    8987.802     -6.472   0.400  2.88816E-01  4.13705E-01 -1.24889E-01
    8987.930     -6.344   0.440  2.98277E-01  4.32671E-01 -1.34394E-01
    8988.070     -6.204   0.480  3.05445E-01  4.51259E-01 -1.45814E-01
    8988.222     -6.051   0.520  3.09678E-01  4.69225E-01 -1.59548E-01
    8988.387     -5.887   0.560  3.10536E-01  4.86437E-01 -1.75901E-01
    8988.564     -5.710   0.600  3.07919E-01  5.02907E-01 -1.94988E-01
    8988.753     -5.521   0.640  3.02071E-01  5.18655E-01 -2.16584E-01
    8988.954     -5.320   0.680  2.93936E-01  5.33774E-01 -2.39837E-01
    8989.167     -5.106   0.720  2.85104E-01  5.48394E-01 -2.63289E-01
    8989.393     -4.881   0.760  2.77288E-01  5.62559E-01 -2.85271E-01
    8989.631     -4.643   0.800  2.71872E-01  5.76390E-01 -3.04518E-01
    8989.880     -4.393   0.840  2.69500E-01  5.89956E-01 -3.20456E-01
    8990.143     -4.131   0.880  2.70232E-01  6.03329E-01 -3.33097E-01
    8990.417     -3.857   0.920  2.73731E-01  6.16549E-01 -3.42818E-01
    8990.703     -3.570   0.960  2.79730E-01  6.29629E-01 -3.49899E-01
    8991.002     -3.272   1.000  2.88375E-01  6.42647E-01 -3.54272E-01
    8991.313     -2.961   1.040  3.00172E-01  6.55573E-01 -3.55401E-01
    8991.636     -2.638   1.080  3.16314E-01  6.68433E-01 -3.52119E-01
    8991.971     -2.302   1.120  3.38713E-01  6.81243E-01 -3.42530E-01
    8992.319     -1.955   1.160  3.69540E-01  6.93976E-01 -3.24437E-01
    8992.678     -1.595   1.200  4.10439E-01  7.06640E-01 -2.96201E-01
    8993.050     -1.223   1.240  4.61775E-01  7.19217E-01 -2.57442E-01
    8993.434     -0.839   1.280  5.21940E-01  7.31691E-01 -2.09751E-01
    8993.831     -0.443   1.320  5.85632E-01  7.44059E-01 -1.58427E-01
    8994.239     -0.035   1.360  6.40263E-01  7.56281E-01 -1.16018E-01
    8994.660      0.386   1.400  6.70680E-01  7.68371E-01 -9.76908E-02
    8995.092      0.819   1.440  6.79631E-01  7.80284E-01 -1.00654E-01
    8995.538      1.264   1.480  6.86627E-01  7.92014E-01 -1.05386E-01
    8995.995      1.721   1.520  7.05138E-01  8.03533E-01 -9.83944E-02
    8996.464      2.190   1.560  7.38200E-01  8.14815E-01 -7.66152E-02
    8996.946      2.672   1.600  7.84019E-01  8.25853E-01 -4.18345E-02
    8997.439      3.166   1.640  8.39102E-01  8.36619E-01  2.48322E-03
    8997.945      3.672   1.680  8.97912E-01  8.47087E-01  5.08253E-02
    8998.464      4.190   1.720  9.51905E-01  8.57270E-01  9.46346E-02
    8998.994      4.720   1.760  9.96150E-01  8.67143E-01  1.29007E-01
    8999.536      5.263   1.800  1.03158E+00  8.76681E-01  1.54899E-01
    9000.091      5.818   1.840  1.05390E+00  8.85877E-01  1.68019E-01
    9000.658      6.384   1.880  1.05964E+00  8.94707E-01  1.64936E-01
    9001.237      6.964   1.920  1.06074E+00  9.03188E-01  1.57556E-01
    9001.829      7.555   1.960  1.06929E+00  9.11299E-01  1.57992E-01
    9002.432      8.158   2.000  1.07743E+00  9.19056E-01  1.58379E-01
    9003.048      8.774   2.040  1.07732E+00  9.26418E-01  1.50901E-01
    9003.676      9.402   2.080  1.08486E+00  9.33404E-01  1.51452E-01
    9004.316     10.042   2.120  1.11334E+00  9.39994E-01  1.73349E-01
    9004.968     10.694   2.160  1.15700E+00  9.46230E-01  2.10769E-01
    9005.632     11.359   2.200  1.20510E+00  9.52072E-01  2.53029E-01
    9006.309     12.035   2.240  1.24807E+00  9.57544E-01  2.90524E-01
    9006.998     12.724   2.280  1.27494E+00  9.62648E-01  3.12291E-01
    9007.699     13.425   2.320  1.28566E+00  9.67408E-01  3.18248E-01
    9008.412     14.139   2.360  1.28997E+00  9.71785E-01  3.18181E-01
    9009.138     14.864   2.400  1.28728E+00  9.75828E-01  3.11454E-01
    9009.875     15.602   2.440  1.28117E+00  9.79539E-01  3.01629E-01
    9010.625     16.351   2.480  1.27921E+00  9.82924E-01  2.96283E-01
    9011.387     17.113   2.520  1.27074E+00  9.85990E-01  2.84755E-01
    9012.161     17.888   2.560  1.23815E+00  9.88759E-01  2.49393E-01
    9012.948     18.674   2.600  1.18165E+00  9.91240E-01  1.90412E-01
    9013.746     19.473   2.640  1.11598E+00  9.93419E-01  1.22557E-01
    9014.557     20.283   2.680  1.04915E+00  9.95340E-01  5.38146E-02
    9015.380     21.106   2.720  9.86182E-01  9.97011E-01 -1.08291E-02
    9016.215     21.941   2.760  9.32031E-01  9.98419E-01 -6.63882E-02
    9017.062     22.789   2.800  8.94635E-01  9.99631E-01 -1.04996E-01
    9017.922     23.648   2.840  8.74968E-01  1.00059E+00 -1.25625E-01
    9018.794     24.520   2.880  8.66434E-01  1.00137E+00 -1.34938E-01
    9019.678     25.404   2.920  8.64777E-01  1.00198E+00 -1.37199E-01
    9020.574     26.300   2.960  8.66890E-01  1.00237E+00 -1.35477E-01
    9021.482     27.208   3.000  8.70925E-01  1.00262E+00 -1.31691E-01
    9022.402     28.129   3.040  8.75552E-01  1.00271E+00 -1.27156E-01
    9023.335     29.062   3.080  8.79953E-01  1.00267E+00 -1.22718E-01
    9024.280     30.006   3.120  8.83606E-01  1.00251E+00 -1.18902E-01
    9025.237     30.963   3.160  8.86072E-01  1.00223E+00 -1.16155E-01
    9026.206     31.933   3.200  8.87143E-01  1.00183E+00 -1.14686E-01
    9027.188     32.914   3.240  8.87031E-01  1.00134E+00 -1.14312E-01
    9028.181     33.908   3.280  8.86320E-01  1.00078E+00 -1.14456E-01
    9029.187     34.914   3.320  8.85393E-01  1.00013E+00 -1.14737E-01
    9030.205     35.932   3.360  8.84925E-01  9.99430E-01 -1.14506E-01
    9031.236     36.962   3.400  8.85713E-01  9.98662E-01 -1.12950E-01
    9032.278     38.004   3.440  8.88399E-01  9.97851E-01 -1.09452E-01
    9033.333     39.059   3.480  8.93450E-01  9.97021E-01 -1.03571E-01
    9034.399     40.126   3.520  9.01020E-01  9.96134E-01 -9.51136E-02
    9035.478     41.205   3.560  9.10975E-01  9.95254E-01 -8.42797E-02
    9036.570     42.296   3.600  9.22442E-01  9.94327E-01 -7.18851E-02
    9037.673     43.399   3.640  9.34607E-01  9.93415E-01 -5.88074E-02
    9038.788     44.515   3.680  9.46541E-01  9.92502E-01 -4.59609E-02
    9039.916     45.643   3.720  9.57508E-01  9.91589E-01 -3.40808E-02
    9041.056     46.783   3.760  9.67118E-01  9.90679E-01 -2.35604E-02
    9042.208     47.935   3.800  9.75311E-01  9.89773E-01 -1.44619E-02
    9043.373     49.099   3.840  9.82216E-01  9.88897E-01 -6.68132E-03
    9044.549     50.275   3.880  9.88132E-01  9.88052E-01  8.03474E-05
    9045.738     51.464   3.920  9.93398E-01  9.87219E-01  6.17895E-03
    9046.939     52.665   3.960  9.98299E-01  9.86419E-01  1.18799E-02
    9048.152     53.878   4.000  1.00300E+00  9.85654E-01  1.73500E-02
    9049.377     55.104   4.040  1.00763E+00  9.84905E-01  2.27205E-02
    9050.615     56.341   4.080  1.01229E+00  9.84215E-01  2.80756E-02
    9051.864     57.591   4.120  1.01702E+00  9.83567E-01  3.34537E-02
    9053.126     58.853   4.160  1.02182E+00  9.82957E-01  3.88608E-02
    9054.400     60.127   4.200  1.02665E+00  9.82387E-01  4.42623E-02
    9055.686     61.413   4.240  1.03141E+00  9.81837E-01  4.95777E-02
    9056.985     62.711   4.280  1.03601E+00  9.81370E-01  5.46374E-02
    9058.296     64.022   4.320  1.04015E+00  9.80924E-01  5.92294E-02
    9059.618     65.345   4.360  1.04357E+00  9.80520E-01  6.30454E-02
    9060.953     66.680   4.400  1.04586E+00  9.80180E-01  6.56845E-02
    9062.301     68.027   4.440  1.04670E+00  9.79883E-01  6.68202E-02
    9063.660     69.386   4.480  1.04590E+00  9.79627E-01  6.62738E-02
    9065.032     70.758   4.520  1.04350E+00  9.79411E-01  6.40890E-02
    9066.415     72.142   4.560  1.03990E+00  9.79235E-01  6.06689E-02
    9067.811     73.538   4.600  1.03575E+00  9.79100E-01  5.66529E-02
    9069.220     74.946   4.640  1.03161E+00  9.79007E-01  5.26077E-02
    9070.640     76.366   4.680  1.02785E+00  9.78973E-01  4.88729E-02
    9072.072     77.799   4.720  1.02447E+00  9.78957E-01  4.55099E-02
    9073.517     79.244   4.760  1.02138E+00  9.78978E-01  4.24030E-02
    9074.974     80.701   4.800  1.01848E+00  9.79037E-01  3.94457E-02
    9076.443     82.170   4.840  1.01568E+00  9.79133E-01  3.65450E-02
    9077.925     83.651   4.880  1.01277E+00  9.79263E-01  3.35062E-02
    9079.418     85.144   4.920  1.00944E+00  9.79405E-01  3.00362E-02
    9080.924     86.650   4.960  1.00539E+00  9.79580E-01  2.58058E-02
    9082.442     88.168   5.000  1.00034E+00  9.79789E-01  2.05496E-02
    9083.972     89.698   5.040  9.94111E-01  9.80007E-01  1.41049E-02
    9085.514     91.240   5.080  9.86716E-01  9.80254E-01  6.46137E-03
    9087.069     92.795   5.120  9.78386E-01  9.80509E-01 -2.12294E-03
    9088.635     94.362   5.160  9.69681E-01  9.80790E-01 -1.11094E-02
    9090.214     95.940   5.200  9.61279E-01  9.81054E-01 -1.97750E-02
    9091.805     97.531   5.240  9.53864E-01  9.81342E-01 -2.74779E-02
    9093.408     99.135   5.280  9.47781E-01  9.81635E-01 -3.38536E-02
    9095.024    100.750   5.320  9.43095E-01  9.81949E-01 -3.88539E-02
    9096.651    102.378   5.360  9.39625E-01  9.82242E-01 -4.26169E-02
    9098.291    104.018   5.400  9.37243E-01  9.82531E-01 -4.52884E-02
    9099.943    105.670   5.440  9.35851E-01  9.82816E-01 -4.69654E-02
    9101.607    107.334   5.480  9.35292E-01  9.83075E-01 -4.77829E-02
    9103.284    109.010   5.520  9.35350E-01  9.83351E-01 -4.80016E-02
    9104.972    110.699   5.560  9.35661E-01  9.83602E-01 -4.79402E-02
    9106.673    112.400   5.600  9.36055E-01  9.83843E-01 -4.77884E-02
    9108.386    114.113   5.640  9.36451E-01  9.84055E-01 -4.76045E-02
    9110.111    115.838   5.680  9.36806E-01  9.84260E-01 -4.74536E-02
    9111.849    117.575   5.720  9.37005E-01  9.84453E-01 -4.74478E-02
    9113.598    119.325   5.760  9.36993E-01  9.84590E-01 -4.75972E-02
    9115.360    121.086   5.800  9.36999E-01  9.84716E-01 -4.77174E-02
    9117.134    122.860   5.840  9.37390E-01  9.84831E-01 -4.74409E-02
    9118.920    124.646   5.880  9.38635E-01  9.84888E-01 -4.62530E-02
    9120.718    126.445   5.920  9.41343E-01  9.84933E-01 -4.35895E-02
    9122.529    128.255   5.960  9.46019E-01  9.84964E-01 -3.89456E-02
    9124.352    130.078   6.000  9.53210E-01  9.84917E-01 -3.17064E-02
