# # comment:                                                     FEFF 9.9.1  
# # Source:
# # Structure
# # Reduced
# # space
# # abc:
# # angles:
# # sites:
# # POT  SCF 100  7.0000   0, screened core-hole, AFOLP (folp(0)= 1.150)
# # Abs   Z=29 Rmt= 1.255 Rnm= 1.324 K  shell
# # Pot 1 Z= 3 Rmt= 1.259 Rnm= 1.309
# # Pot 2 Z=40 Rmt= 1.411 Rnm= 1.532
# # Pot 3 Z=29 Rmt= 1.211 Rnm= 1.290
# # Pot 4 Z= 8 Rmt= 1.056 Rnm= 1.114
# # Gam_ch=1.729E+00 H-L exch Vi= 0.000E+00 Vr= 0.000E+00
# # Mu=-8.338E+00eV kf=2.078E+00 Vint=-1.739E+01eV Rs_int= 1.745
# FMS rfms= 9.0000
# # PATH  Rmax=-1.000,  Keep_limit= 0.00, Heap_limit 0.00  Pwcrit= 2.50%
#  S02=0.950  Temp=   0.00  Debye_temp=   0.00  Global_sig2= 0.00000
#  Energy zero shift, vr, vi    0.00000E+00   0.00000E+00
#  Curved wave amplitude ratio filter   4.000%
#     file         sig2 tot  cw amp ratio   deg  nlegs   reff  inp sig2
#     0/   0 paths used
#  xsedge+ 50, used to normalize mu           2.4578E-04
#  -----------------------------------------------------------------------
#  omega    e    k    mu    mu0     chi     @#
    8984.620    -12.148  -1.000  3.72336E-02  5.39317E-02 -1.66981E-02
    8984.919    -11.850  -0.960  3.89477E-02  5.78690E-02 -1.89214E-02
    8985.205    -11.563  -0.920  4.07532E-02  6.22463E-02 -2.14932E-02
    8985.480    -11.289  -0.880  4.26550E-02  6.71286E-02 -2.44736E-02
    8985.742    -11.027  -0.840  4.46581E-02  7.25914E-02 -2.79333E-02
    8985.992    -10.777  -0.800  4.67678E-02  7.87225E-02 -3.19547E-02
    8986.230    -10.539  -0.760  4.89892E-02  8.56226E-02 -3.66333E-02
    8986.455    -10.314  -0.720  5.13274E-02  9.34053E-02 -4.20780E-02
    8986.668    -10.100  -0.680  5.37867E-02  1.02196E-01 -4.84093E-02
    8986.870     -9.899  -0.640  5.63706E-02  1.12127E-01 -5.57563E-02
    8987.059     -9.710  -0.600  5.90807E-02  1.23328E-01 -6.42473E-02
    8987.235     -9.533  -0.560  6.19151E-02  1.35910E-01 -7.39953E-02
    8987.400     -9.369  -0.520  6.48667E-02  1.49940E-01 -8.50733E-02
    8987.552     -9.216  -0.480  6.79206E-02  1.65403E-01 -9.74821E-02
    8987.693     -9.076  -0.440  7.10510E-02  1.82162E-01 -1.11111E-01
    8987.821     -8.948  -0.400  7.42192E-02  1.99927E-01 -1.25708E-01
    8987.936     -8.832  -0.360  7.73725E-02  2.18237E-01 -1.40865E-01
    8988.040     -8.729  -0.320  8.04460E-02  2.36496E-01 -1.56050E-01
    8988.132     -8.637  -0.280  8.33678E-02  2.54040E-01 -1.70672E-01
    8988.211     -8.558  -0.240  8.60652E-02  2.70233E-01 -1.84168E-01
    8988.278     -8.491  -0.200  8.84707E-02  2.84542E-01 -1.96071E-01
    8988.333     -8.436  -0.160  9.05253E-02  2.96576E-01 -2.06051E-01
    8988.375     -8.393  -0.120  9.21800E-02  3.06087E-01 -2.13907E-01
    8988.406     -8.363  -0.080  9.33967E-02  3.12938E-01 -2.19541E-01
    8988.430     -8.338   0.000  9.44076E-02  3.18441E-01 -2.24033E-01
    8988.485     -8.284   0.120  9.67708E-02  3.30848E-01 -2.34077E-01
    8988.528     -8.241   0.160  9.86047E-02  3.40501E-01 -2.41897E-01
    8988.583     -8.186   0.200  1.00948E-01  3.52797E-01 -2.51849E-01
    8988.650     -8.119   0.240  1.03878E-01  3.67607E-01 -2.63729E-01
    8988.729     -8.040   0.280  1.07379E-01  3.84589E-01 -2.77210E-01
    8988.820     -7.948   0.320  1.11499E-01  4.03329E-01 -2.91829E-01
    8988.924     -7.845   0.360  1.16259E-01  4.23263E-01 -3.07005E-01
    8989.040     -7.729   0.400  1.21683E-01  4.43815E-01 -3.22132E-01
    8989.168     -7.601   0.440  1.27793E-01  4.64438E-01 -3.36646E-01
    8989.308     -7.461   0.480  1.34629E-01  4.84727E-01 -3.50097E-01
    8989.460     -7.308   0.520  1.42291E-01  5.04400E-01 -3.62110E-01
    8989.625     -7.144   0.560  1.51050E-01  5.23358E-01 -3.72308E-01
    8989.802     -6.967   0.600  1.61287E-01  5.41528E-01 -3.80241E-01
    8989.991     -6.778   0.640  1.73672E-01  5.58988E-01 -3.85316E-01
    8990.192     -6.577   0.680  1.88918E-01  5.75813E-01 -3.86895E-01
    8990.405     -6.363   0.720  2.07868E-01  5.92089E-01 -3.84221E-01
    8990.631     -6.138   0.760  2.31487E-01  6.07904E-01 -3.76417E-01
    8990.869     -5.900   0.800  2.60894E-01  6.23336E-01 -3.62442E-01
    8991.119     -5.650   0.840  2.96944E-01  6.38471E-01 -3.41528E-01
    8991.381     -5.388   0.880  3.39234E-01  6.53337E-01 -3.14103E-01
    8991.655     -5.114   0.920  3.85608E-01  6.67992E-01 -2.82384E-01
    8991.942     -4.827   0.960  4.32642E-01  6.82442E-01 -2.49799E-01
    8992.240     -4.528   1.000  4.76679E-01  6.96701E-01 -2.20022E-01
    8992.551     -4.218   1.040  5.13750E-01  7.10796E-01 -1.97046E-01
    8992.874     -3.895   1.080  5.41583E-01  7.24703E-01 -1.83121E-01
    8993.209     -3.559   1.120  5.64071E-01  7.38436E-01 -1.74365E-01
    8993.557     -3.212   1.160  5.89642E-01  7.51960E-01 -1.62318E-01
    8993.917     -2.852   1.200  6.22959E-01  7.65261E-01 -1.42302E-01
    8994.288     -2.480   1.240  6.61753E-01  7.78316E-01 -1.16564E-01
    8994.673     -2.096   1.280  7.01524E-01  7.91124E-01 -8.96005E-02
    8995.069     -1.700   1.320  7.41413E-01  8.03641E-01 -6.22281E-02
    8995.477     -1.292   1.360  7.85712E-01  8.15840E-01 -3.01281E-02
    8995.898     -0.871   1.400  8.37544E-01  8.27738E-01  9.80619E-03
    8996.331     -0.438   1.440  8.96896E-01  8.39267E-01  5.76292E-02
    8996.776      0.007   1.480  9.61536E-01  8.50441E-01  1.11095E-01
    8997.233      0.464   1.520  1.02800E+00  8.61235E-01  1.66760E-01
    8997.702      0.934   1.560  1.10334E+00  8.71622E-01  2.31717E-01
    8998.184      1.415   1.600  1.20817E+00  8.81579E-01  3.26587E-01
    8998.678      1.909   1.640  1.34422E+00  8.91123E-01  4.53096E-01
    8999.184      2.415   1.680  1.46827E+00  9.00229E-01  5.68045E-01
    8999.702      2.933   1.720  1.54167E+00  9.08897E-01  6.32778E-01
    9000.232      3.463   1.760  1.54055E+00  9.17104E-01  6.23443E-01
    9000.775      4.006   1.800  1.47677E+00  9.24874E-01  5.51899E-01
    9001.329      4.561   1.840  1.40181E+00  9.32206E-01  4.69608E-01
    9001.896      5.128   1.880  1.34226E+00  9.39081E-01  4.03175E-01
    9002.475      5.707   1.920  1.29782E+00  9.45505E-01  3.52315E-01
    9003.067      6.298   1.960  1.25925E+00  9.51500E-01  3.07748E-01
    9003.670      6.901   2.000  1.21353E+00  9.57071E-01  2.56458E-01
    9004.286      7.517   2.040  1.15545E+00  9.62246E-01  1.93206E-01
    9004.914      8.145   2.080  1.08896E+00  9.66990E-01  1.21968E-01
    9005.554      8.785   2.120  1.01933E+00  9.71350E-01  4.79778E-02
    9006.206      9.437   2.160  9.53645E-01  9.75333E-01 -2.16882E-02
    9006.871     10.102   2.200  8.99907E-01  9.78967E-01 -7.90601E-02
    9007.547     10.779   2.240  8.62128E-01  9.82241E-01 -1.20113E-01
    9008.236     11.467   2.280  8.38928E-01  9.85183E-01 -1.46255E-01
    9008.937     12.168   2.320  8.28700E-01  9.87800E-01 -1.59100E-01
    9009.650     12.882   2.360  8.35747E-01  9.90143E-01 -1.54396E-01
    9010.376     13.607   2.400  8.63966E-01  9.92201E-01 -1.28235E-01
    9011.113     14.345   2.440  9.06538E-01  9.93981E-01 -8.74430E-02
    9011.863     15.094   2.480  9.50518E-01  9.95514E-01 -4.49958E-02
    9012.625     15.856   2.520  9.81277E-01  9.96828E-01 -1.55508E-02
    9013.399     16.631   2.560  9.91211E-01  9.97932E-01 -6.72110E-03
    9014.186     17.417   2.600  9.87601E-01  9.98834E-01 -1.12332E-02
    9014.984     18.216   2.640  9.76590E-01  9.99563E-01 -2.29725E-02
    9015.795     19.026   2.680  9.62222E-01  1.00012E+00 -3.79021E-02
    9016.618     19.849   2.720  9.47465E-01  1.00053E+00 -5.30633E-02
    9017.453     20.684   2.760  9.34086E-01  1.00080E+00 -6.67168E-02
    9018.301     21.532   2.800  9.22896E-01  1.00095E+00 -7.80578E-02
    9019.160     22.391   2.840  9.15443E-01  1.00101E+00 -8.55652E-02
    9020.032     23.263   2.880  9.12158E-01  1.00095E+00 -8.87955E-02
    9020.916     24.147   2.920  9.12561E-01  1.00083E+00 -8.82739E-02
    9021.812     25.043   2.960  9.15392E-01  1.00062E+00 -8.52262E-02
    9022.720     25.951   3.000  9.19147E-01  1.00037E+00 -8.12225E-02
    9023.641     26.872   3.040  9.22666E-01  1.00005E+00 -7.73882E-02
    9024.573     27.805   3.080  9.25753E-01  9.99695E-01 -7.39417E-02
    9025.518     28.749   3.120  9.28604E-01  9.99297E-01 -7.06929E-02
    9026.475     29.707   3.160  9.31404E-01  9.98888E-01 -6.74833E-02
    9027.444     30.676   3.200  9.34453E-01  9.98469E-01 -6.40162E-02
    9028.426     31.657   3.240  9.38046E-01  9.98024E-01 -5.99776E-02
    9029.420     32.651   3.280  9.42696E-01  9.97576E-01 -5.48796E-02
    9030.425     33.657   3.320  9.49024E-01  9.97151E-01 -4.81274E-02
    9031.443     34.675   3.360  9.57621E-01  9.96729E-01 -3.91081E-02
    9032.474     35.705   3.400  9.68727E-01  9.96313E-01 -2.75862E-02
    9033.516     36.747   3.440  9.82112E-01  9.95926E-01 -1.38139E-02
    9034.571     37.802   3.480  9.97464E-01  9.95548E-01  1.91629E-03
    9035.637     38.869   3.520  1.01438E+00  9.95201E-01  1.91811E-02
    9036.716     39.948   3.560  1.03210E+00  9.94866E-01  3.72322E-02
    9037.808     41.039   3.600  1.04949E+00  9.94589E-01  5.48975E-02
    9038.911     42.142   3.640  1.06499E+00  9.94329E-01  7.06614E-02
    9040.027     43.258   3.680  1.07699E+00  9.94127E-01  8.28648E-02
    9041.154     44.386   3.720  1.08421E+00  9.93940E-01  9.02711E-02
    9042.294     45.526   3.760  1.08603E+00  9.93791E-01  9.22342E-02
    9043.446     46.678   3.800  1.08272E+00  9.93680E-01  8.90351E-02
    9044.611     47.842   3.840  1.07561E+00  9.93608E-01  8.19978E-02
    9045.787     49.019   3.880  1.06659E+00  9.93574E-01  7.30123E-02
    9046.976     50.207   3.920  1.05724E+00  9.93580E-01  6.36587E-02
    9048.177     51.408   3.960  1.04819E+00  9.93624E-01  5.45694E-02
    9049.390     52.621   4.000  1.03907E+00  9.93707E-01  4.53631E-02
    9050.615     53.847   4.040  1.02878E+00  9.93828E-01  3.49559E-02
    9051.853     55.084   4.080  1.01623E+00  9.93984E-01  2.22453E-02
    9053.102     56.334   4.120  1.00105E+00  9.94155E-01  6.89390E-03
    9054.364     57.596   4.160  9.84074E-01  9.94360E-01 -1.02859E-02
    9055.638     58.870   4.200  9.66959E-01  9.94599E-01 -2.76400E-02
    9056.925     60.156   4.240  9.51617E-01  9.94873E-01 -4.32557E-02
    9058.223     61.454   4.280  9.39725E-01  9.95158E-01 -5.54331E-02
    9059.534     62.765   4.320  9.32402E-01  9.95477E-01 -6.30747E-02
    9060.857     64.088   4.360  9.30203E-01  9.95826E-01 -6.56225E-02
    9062.192     65.423   4.400  9.33146E-01  9.96182E-01 -6.30357E-02
    9063.539     66.770   4.440  9.40719E-01  9.96544E-01 -5.58252E-02
    9064.898     68.129   4.480  9.52120E-01  9.96934E-01 -4.48137E-02
    9066.270     69.501   4.520  9.66393E-01  9.97326E-01 -3.09330E-02
    9067.654     70.885   4.560  9.82551E-01  9.97721E-01 -1.51701E-02
    9069.049     72.281   4.600  9.99418E-01  9.98117E-01  1.30135E-03
    9070.458     73.689   4.640  1.01545E+00  9.98513E-01  1.69346E-02
    9071.878     75.109   4.680  1.02889E+00  9.98931E-01  2.99603E-02
    9073.311     76.542   4.720  1.03825E+00  9.99326E-01  3.89236E-02
    9074.755     77.987   4.760  1.04294E+00  9.99716E-01  4.32188E-02
    9076.212     79.444   4.800  1.04336E+00  1.00010E+00  4.32565E-02
    9077.681     80.913   4.840  1.04068E+00  1.00048E+00  4.01941E-02
    9079.163     82.394   4.880  1.03620E+00  1.00084E+00  3.53672E-02
    9080.656     83.888   4.920  1.03103E+00  1.00118E+00  2.98506E-02
    9082.162     85.393   4.960  1.02571E+00  1.00152E+00  2.41928E-02
    9083.680     86.911   5.000  1.02015E+00  1.00182E+00  1.83222E-02
    9085.210     88.441   5.040  1.01386E+00  1.00212E+00  1.17400E-02
    9086.752     89.983   5.080  1.00636E+00  1.00238E+00  3.97365E-03
    9088.307     91.538   5.120  9.97713E-01  1.00264E+00 -4.92236E-03
    9089.873     93.105   5.160  9.88685E-01  1.00285E+00 -1.41664E-02
    9091.452     94.683   5.200  9.80516E-01  1.00303E+00 -2.25143E-02
    9093.043     96.275   5.240  9.74404E-01  1.00317E+00 -2.87691E-02
    9094.646     97.878   5.280  9.71133E-01  1.00330E+00 -3.21679E-02
    9096.262     99.493   5.320  9.70923E-01  1.00339E+00 -3.24710E-02
    9097.890    101.121   5.360  9.73609E-01  1.00345E+00 -2.98401E-02
    9099.529    102.761   5.400  9.78756E-01  1.00349E+00 -2.47345E-02
    9101.181    104.413   5.440  9.85619E-01  1.00347E+00 -1.78519E-02
    9102.846    106.077   5.480  9.93371E-01  1.00344E+00 -1.00654E-02
    9104.522    107.753   5.520  1.00115E+00  1.00337E+00 -2.21423E-03
    9106.211    109.442   5.560  1.00837E+00  1.00328E+00  5.08714E-03
    9107.911    111.143   5.600  1.01461E+00  1.00314E+00  1.14722E-02
    9109.624    112.856   5.640  1.01973E+00  1.00298E+00  1.67547E-02
    9111.349    114.581   5.680  1.02360E+00  1.00278E+00  2.08140E-02
    9113.087    116.318   5.720  1.02605E+00  1.00255E+00  2.34981E-02
    9114.836    118.068   5.760  1.02685E+00  1.00228E+00  2.45736E-02
    9116.598    119.829   5.800  1.02579E+00  1.00200E+00  2.37916E-02
    9118.372    121.603   5.840  1.02269E+00  1.00169E+00  2.10030E-02
    9120.158    123.389   5.880  1.01756E+00  1.00134E+00  1.62139E-02
    9121.956    125.188   5.920  1.01057E+00  1.00099E+00  9.57423E-03
    9123.767    126.998   5.960  1.00210E+00  1.00061E+00  1.48716E-03
    9125.590    128.821   6.000  9.92683E-01  1.00019E+00 -7.50352E-03
