# # comment:                                                     FEFF 9.9.1  
# # Source:
# # Structure
# # Reduced
# # space
# # abc:
# # angles:
# # sites:
# # POT  SCF 100  7.0000   0, screened core-hole, AFOLP (folp(0)= 1.150)
# # Abs   Z=29 Rmt= 1.194 Rnm= 1.311 K  shell
# # Pot 1 Z=30 Rmt= 1.339 Rnm= 1.419
# # Pot 2 Z=29 Rmt= 1.219 Rnm= 1.286
# # Pot 3 Z= 8 Rmt= 1.054 Rnm= 1.120
# # Gam_ch=1.729E+00 H-L exch Vi= 0.000E+00 Vr= 0.000E+00
# # Mu=-8.606E+00eV kf=2.177E+00 Vint=-1.591E+01eV Rs_int= 1.666
# FMS rfms= 9.0000
# # PATH  Rmax=-1.000,  Keep_limit= 0.00, Heap_limit 0.00  Pwcrit= 2.50%
#  S02=0.950  Temp=   0.00  Debye_temp=   0.00  Global_sig2= 0.00000
#  Energy zero shift, vr, vi    0.00000E+00   0.00000E+00
#  Curved wave amplitude ratio filter   4.000%
#     file         sig2 tot  cw amp ratio   deg  nlegs   reff  inp sig2
#     0/   0 paths used
#  xsedge+ 50, used to normalize mu           2.4604E-04
#  -----------------------------------------------------------------------
#  omega    e    k    mu    mu0     chi     @#
    8983.730    -12.416  -1.000  3.01257E-02  5.06364E-02 -2.05107E-02
    8984.029    -12.117  -0.960  3.14361E-02  5.41899E-02 -2.27538E-02
    8984.316    -11.831  -0.920  3.28364E-02  5.81264E-02 -2.52901E-02
    8984.590    -11.556  -0.880  3.43386E-02  6.25013E-02 -2.81627E-02
    8984.852    -11.294  -0.840  3.59574E-02  6.73785E-02 -3.14211E-02
    8985.102    -11.044  -0.800  3.77106E-02  7.28323E-02 -3.51217E-02
    8985.340    -10.807  -0.760  3.96192E-02  7.89475E-02 -3.93282E-02
    8985.565    -10.581  -0.720  4.17085E-02  8.58199E-02 -4.41114E-02
    8985.779    -10.368  -0.680  4.40070E-02  9.35546E-02 -4.95476E-02
    8985.980    -10.167  -0.640  4.65460E-02  1.02262E-01 -5.57165E-02
    8986.169     -9.978  -0.600  4.93568E-02  1.12052E-01 -6.26950E-02
    8986.346     -9.801  -0.560  5.24658E-02  1.23015E-01 -7.05488E-02
    8986.510     -9.636  -0.520  5.58860E-02  1.35205E-01 -7.93188E-02
    8986.663     -9.484  -0.480  5.96054E-02  1.48608E-01 -8.90025E-02
    8986.803     -9.344  -0.440  6.35739E-02  1.63107E-01 -9.95330E-02
    8986.931     -9.216  -0.400  6.76938E-02  1.78453E-01 -1.10759E-01
    8987.047     -9.100  -0.360  7.18204E-02  1.94256E-01 -1.22436E-01
    8987.150     -8.996  -0.320  7.57801E-02  2.10009E-01 -1.34229E-01
    8987.242     -8.905  -0.280  7.94018E-02  2.25148E-01 -1.45747E-01
    8987.321     -8.825  -0.240  8.25520E-02  2.39130E-01 -1.56578E-01
    8987.388     -8.758  -0.200  8.51565E-02  2.51497E-01 -1.66340E-01
    8987.443     -8.703  -0.160  8.72010E-02  2.61910E-01 -1.74709E-01
    8987.486     -8.661  -0.120  8.87128E-02  2.70150E-01 -1.81438E-01
    8987.516     -8.630  -0.080  8.97374E-02  2.76092E-01 -1.86355E-01
    8987.540     -8.606   0.000  9.05067E-02  2.80871E-01 -1.90364E-01
    8987.595     -8.551   0.120  9.23757E-02  2.91641E-01 -1.99266E-01
    8987.638     -8.508   0.160  9.36796E-02  3.00041E-01 -2.06362E-01
    8987.693     -8.454   0.200  9.51825E-02  3.10793E-01 -2.15610E-01
    8987.760     -8.386   0.240  9.67069E-02  3.23749E-01 -2.27042E-01
    8987.839     -8.307   0.280  9.80889E-02  3.38677E-01 -2.40588E-01
    8987.931     -8.216   0.320  9.92046E-02  3.55235E-01 -2.56030E-01
    8988.034     -8.112   0.360  9.99389E-02  3.72990E-01 -2.73051E-01
    8988.150     -7.996   0.400  1.00348E-01  3.91480E-01 -2.91132E-01
    8988.278     -7.868   0.440  1.00585E-01  4.10282E-01 -3.09698E-01
    8988.418     -7.728   0.480  1.00859E-01  4.29028E-01 -3.28169E-01
    8988.571     -7.576   0.520  1.01442E-01  4.47510E-01 -3.46067E-01
    8988.735     -7.411   0.560  1.02597E-01  4.65630E-01 -3.63033E-01
    8988.912     -7.234   0.600  1.04552E-01  4.83379E-01 -3.78827E-01
    8989.101     -7.045   0.640  1.07472E-01  5.00762E-01 -3.93290E-01
    8989.302     -6.844   0.680  1.11566E-01  5.17874E-01 -4.06308E-01
    8989.516     -6.631   0.720  1.17021E-01  5.34738E-01 -4.17717E-01
    8989.741     -6.405   0.760  1.24141E-01  5.51437E-01 -4.27296E-01
    8989.979     -6.168   0.800  1.33282E-01  5.68045E-01 -4.34763E-01
    8990.229     -5.918   0.840  1.44860E-01  5.84583E-01 -4.39723E-01
    8990.491     -5.655   0.880  1.59415E-01  6.01083E-01 -4.41668E-01
    8990.765     -5.381   0.920  1.77763E-01  6.17561E-01 -4.39798E-01
    8991.052     -5.095   0.960  2.01450E-01  6.34026E-01 -4.32576E-01
    8991.350     -4.796   1.000  2.32806E-01  6.50477E-01 -4.17671E-01
    8991.661     -4.485   1.040  2.74145E-01  6.66863E-01 -3.92718E-01
    8991.984     -4.162   1.080  3.24889E-01  6.83210E-01 -3.58321E-01
    8992.320     -3.827   1.120  3.77856E-01  6.99454E-01 -3.21598E-01
    8992.667     -3.479   1.160  4.22531E-01  7.15572E-01 -2.93041E-01
    8993.027     -3.120   1.200  4.54162E-01  7.31534E-01 -2.77372E-01
    8993.399     -2.748   1.240  4.71929E-01  7.47287E-01 -2.75358E-01
    8993.783     -2.364   1.280  4.73736E-01  7.62819E-01 -2.89082E-01
    8994.179     -1.967   1.320  4.63376E-01  7.78076E-01 -3.14699E-01
    8994.587     -1.559   1.360  4.56189E-01  7.93022E-01 -3.36833E-01
    8995.008     -1.138   1.400  4.67224E-01  8.07602E-01 -3.40378E-01
    8995.441     -0.706   1.440  5.01018E-01  8.21801E-01 -3.20783E-01
    8995.886     -0.261   1.480  5.54615E-01  8.35562E-01 -2.80948E-01
    8996.343      0.197   1.520  6.23536E-01  8.48876E-01 -2.25340E-01
    8996.812      0.666   1.560  7.01903E-01  8.61709E-01 -1.59806E-01
    8997.294      1.148   1.600  7.72903E-01  8.74052E-01 -1.01149E-01
    8997.788      1.641   1.640  8.12108E-01  8.85853E-01 -7.37449E-02
    8998.294      2.147   1.680  8.10454E-01  8.97105E-01 -8.66501E-02
    8998.812      2.666   1.720  7.90027E-01  9.07803E-01 -1.17776E-01
    8999.342      3.196   1.760  7.94814E-01  9.17923E-01 -1.23108E-01
    8999.885      3.738   1.800  8.51590E-01  9.27463E-01 -7.58727E-02
    9000.440      4.293   1.840  9.62609E-01  9.36442E-01  2.61666E-02
    9001.006      4.860   1.880  1.11228E+00  9.44842E-01  1.67435E-01
    9001.586      5.439   1.920  1.25237E+00  9.52665E-01  2.99702E-01
    9002.177      6.031   1.960  1.31595E+00  9.59916E-01  3.56039E-01
    9002.780      6.634   2.000  1.31115E+00  9.66620E-01  3.44530E-01
    9003.396      7.250   2.040  1.29998E+00  9.72783E-01  3.27195E-01
    9004.024      7.878   2.080  1.29397E+00  9.78413E-01  3.15561E-01
    9004.664      8.518   2.120  1.27096E+00  9.83540E-01  2.87423E-01
    9005.316      9.170   2.160  1.24634E+00  9.88151E-01  2.58185E-01
    9005.981      9.834   2.200  1.25812E+00  9.92318E-01  2.65799E-01
    9006.657     10.511   2.240  1.31079E+00  9.96010E-01  3.14778E-01
    9007.346     11.200   2.280  1.36631E+00  9.99260E-01  3.67048E-01
    9008.047     11.901   2.320  1.38085E+00  1.00212E+00  3.78731E-01
    9008.761     12.614   2.360  1.34598E+00  1.00457E+00  3.41410E-01
    9009.486     13.340   2.400  1.27871E+00  1.00667E+00  2.72049E-01
    9010.224     14.077   2.440  1.19377E+00  1.00842E+00  1.85347E-01
    9010.973     14.827   2.480  1.11323E+00  1.00985E+00  1.03378E-01
    9011.735     15.589   2.520  1.06048E+00  1.01101E+00  4.94757E-02
    9012.510     16.363   2.560  1.04325E+00  1.01186E+00  3.13867E-02
    9013.296     17.150   2.600  1.05042E+00  1.01247E+00  3.79470E-02
    9014.094     17.948   2.640  1.05852E+00  1.01286E+00  4.56632E-02
    9014.905     18.759   2.680  1.06020E+00  1.01304E+00  4.71653E-02
    9015.728     19.582   2.720  1.05282E+00  1.01300E+00  3.98198E-02
    9016.563     20.417   2.760  1.03626E+00  1.01281E+00  2.34490E-02
    9017.411     21.264   2.800  1.01522E+00  1.01248E+00  2.74249E-03
    9018.270     22.124   2.840  9.96542E-01  1.01198E+00 -1.54430E-02
    9019.142     22.996   2.880  9.84046E-01  1.01141E+00 -2.73613E-02
    9020.026     23.880   2.920  9.77785E-01  1.01070E+00 -3.29108E-02
    9020.922     24.776   2.960  9.75847E-01  1.00992E+00 -3.40725E-02
    9021.830     25.684   3.000  9.74740E-01  1.00907E+00 -3.43251E-02
    9022.751     26.604   3.040  9.70523E-01  1.00814E+00 -3.76155E-02
    9023.683     27.537   3.080  9.60716E-01  1.00717E+00 -4.64511E-02
    9024.628     28.482   3.120  9.45526E-01  1.00618E+00 -6.06515E-02
    9025.585     29.439   3.160  9.27107E-01  1.00516E+00 -7.80484E-02
    9026.555     30.408   3.200  9.08122E-01  1.00412E+00 -9.60017E-02
    9027.536     31.390   3.240  8.90509E-01  1.00307E+00 -1.12560E-01
    9028.530     32.383   3.280  8.75374E-01  1.00204E+00 -1.26662E-01
    9029.536     33.389   3.320  8.63395E-01  1.00101E+00 -1.37613E-01
    9030.554     34.407   3.360  8.55372E-01  1.00001E+00 -1.44638E-01
    9031.584     35.437   3.400  8.51502E-01  9.99023E-01 -1.47522E-01
    9032.626     36.480   3.440  8.51880E-01  9.98094E-01 -1.46215E-01
    9033.681     37.534   3.480  8.56202E-01  9.97181E-01 -1.40979E-01
    9034.748     38.601   3.520  8.63726E-01  9.96307E-01 -1.32582E-01
    9035.827     39.680   3.560  8.73185E-01  9.95476E-01 -1.22291E-01
    9036.918     40.771   3.600  8.83387E-01  9.94710E-01 -1.11323E-01
    9038.021     41.875   3.640  8.93335E-01  9.93989E-01 -1.00654E-01
    9039.137     42.990   3.680  9.02400E-01  9.93315E-01 -9.09147E-02
    9040.265     44.118   3.720  9.10588E-01  9.92710E-01 -8.21213E-02
    9041.404     45.258   3.760  9.18509E-01  9.92153E-01 -7.36440E-02
    9042.557     46.410   3.800  9.27026E-01  9.91666E-01 -6.46399E-02
    9043.721     47.575   3.840  9.36872E-01  9.91230E-01 -5.43576E-02
    9044.897     48.751   3.880  9.48711E-01  9.90863E-01 -4.21522E-02
    9046.086     49.940   3.920  9.62984E-01  9.90547E-01 -2.75630E-02
    9047.287     51.141   3.960  9.79782E-01  9.90301E-01 -1.05184E-02
    9048.500     52.354   4.000  9.98539E-01  9.90104E-01  8.43542E-03
    9049.725     53.579   4.040  1.01791E+00  9.89980E-01  2.79275E-02
    9050.963     54.817   4.080  1.03587E+00  9.89925E-01  4.59422E-02
    9052.213     56.066   4.120  1.05066E+00  9.89896E-01  6.07685E-02
    9053.474     57.328   4.160  1.06190E+00  9.89956E-01  7.19400E-02
    9054.749     58.602   4.200  1.07049E+00  9.90042E-01  8.04523E-02
    9056.035     59.888   4.240  1.07829E+00  9.90193E-01  8.80946E-02
    9057.333     61.187   4.280  1.08670E+00  9.90387E-01  9.63180E-02
    9058.644     62.498   4.320  1.09606E+00  9.90623E-01  1.05436E-01
    9059.967     63.820   4.360  1.10540E+00  9.90899E-01  1.14500E-01
    9061.302     65.155   4.400  1.11274E+00  9.91215E-01  1.21521E-01
    9062.649     66.503   4.440  1.11537E+00  9.91571E-01  1.23797E-01
    9064.008     67.862   4.480  1.11092E+00  9.91963E-01  1.18955E-01
    9065.380     69.234   4.520  1.09865E+00  9.92390E-01  1.06257E-01
    9066.764     70.617   4.560  1.07988E+00  9.92830E-01  8.70517E-02
    9068.160     72.013   4.600  1.05727E+00  9.93303E-01  6.39659E-02
    9069.568     73.421   4.640  1.03363E+00  9.93807E-01  3.98247E-02
    9070.988     74.842   4.680  1.01133E+00  9.94318E-01  1.70117E-02
    9072.421     76.274   4.720  9.92166E-01  9.94834E-01 -2.66754E-03
    9073.866     77.719   4.760  9.77519E-01  9.95374E-01 -1.78548E-02
    9075.322     79.176   4.800  9.68126E-01  9.95895E-01 -2.77686E-02
    9076.792     80.645   4.840  9.64051E-01  9.96438E-01 -3.23876E-02
    9078.273     82.127   4.880  9.64584E-01  9.96982E-01 -3.23983E-02
    9079.766     83.620   4.920  9.68693E-01  9.97523E-01 -2.88299E-02
    9081.272     85.126   4.960  9.75514E-01  9.98036E-01 -2.25225E-02
    9082.790     86.644   5.000  9.84720E-01  9.98543E-01 -1.38233E-02
    9084.320     88.174   5.040  9.96094E-01  9.99043E-01 -2.94895E-03
    9085.862     89.716   5.080  1.00872E+00  9.99513E-01  9.20735E-03
    9087.417     91.271   5.120  1.02065E+00  9.99974E-01  2.06712E-02
    9088.984     92.837   5.160  1.02948E+00  1.00043E+00  2.90533E-02
    9090.562     94.416   5.200  1.03380E+00  1.00084E+00  3.29591E-02
    9092.153     96.007   5.240  1.03403E+00  1.00122E+00  3.28108E-02
    9093.757     97.610   5.280  1.03166E+00  1.00157E+00  3.00964E-02
    9095.372     99.226   5.320  1.02775E+00  1.00187E+00  2.58767E-02
    9097.000    100.853   5.360  1.02230E+00  1.00216E+00  2.01368E-02
    9098.640    102.493   5.400  1.01462E+00  1.00241E+00  1.22085E-02
    9100.292    104.145   5.440  1.00423E+00  1.00263E+00  1.60125E-03
    9101.956    105.809   5.480  9.91283E-01  1.00280E+00 -1.15146E-02
    9103.632    107.486   5.520  9.76691E-01  1.00293E+00 -2.62388E-02
    9105.321    109.174   5.560  9.61850E-01  1.00302E+00 -4.11698E-02
    9107.022    110.875   5.600  9.48257E-01  1.00307E+00 -5.48140E-02
    9108.734    112.588   5.640  9.36914E-01  1.00308E+00 -6.61647E-02
    9110.460    114.313   5.680  9.28103E-01  1.00304E+00 -7.49411E-02
    9112.197    116.051   5.720  9.21585E-01  1.00294E+00 -8.13598E-02
    9113.947    117.800   5.760  9.17048E-01  1.00283E+00 -8.57814E-02
    9115.708    119.562   5.800  9.14051E-01  1.00267E+00 -8.86239E-02
    9117.482    121.336   5.840  9.12349E-01  1.00248E+00 -9.01310E-02
    9119.268    123.122   5.880  9.12196E-01  1.00222E+00 -9.00268E-02
    9121.067    124.920   5.920  9.14523E-01  1.00195E+00 -8.74290E-02
    9122.877    126.731   5.960  9.20395E-01  1.00165E+00 -8.12506E-02
    9124.700    128.553   6.000  9.31164E-01  1.00128E+00 -7.01131E-02
