# # comment:                                                     FEFF 9.9.1  
# # Source:
# # Structure
# # Reduced
# # space
# # abc:
# # angles:
# # sites:
# # POT  SCF 100  7.0000   0, screened core-hole, AFOLP (folp(0)= 1.150)
# # Abs   Z=29 Rmt= 1.243 Rnm= 1.311 K  shell
# # Pot 1 Z= 3 Rmt= 1.288 Rnm= 1.338
# # Pot 2 Z=26 Rmt= 1.323 Rnm= 1.417
# # Pot 3 Z=29 Rmt= 1.251 Rnm= 1.311
# # Pot 4 Z= 8 Rmt= 1.060 Rnm= 1.115
# # Gam_ch=1.729E+00 H-L exch Vi= 0.000E+00 Vr= 0.000E+00
# # Mu=-8.797E+00eV kf=2.086E+00 Vint=-1.640E+01eV Rs_int= 1.739
# FMS rfms= 9.0000
# # PATH  Rmax=-1.000,  Keep_limit= 0.00, Heap_limit 0.00  Pwcrit= 2.50%
#  S02=0.950  Temp=   0.00  Debye_temp=   0.00  Global_sig2= 0.00000
#  Energy zero shift, vr, vi    0.00000E+00   0.00000E+00
#  Curved wave amplitude ratio filter   4.000%
#     file         sig2 tot  cw amp ratio   deg  nlegs   reff  inp sig2
#     0/   0 paths used
#  xsedge+ 50, used to normalize mu           2.4459E-04
#  -----------------------------------------------------------------------
#  omega    e    k    mu    mu0     chi     @#
    8984.476    -12.607  -1.000  3.41360E-02  5.49409E-02 -2.08049E-02
    8984.775    -12.308  -0.960  3.56780E-02  5.89331E-02 -2.32551E-02
    8985.061    -12.022  -0.920  3.73238E-02  6.33668E-02 -2.60430E-02
    8985.336    -11.748  -0.880  3.90867E-02  6.83063E-02 -2.92196E-02
    8985.598    -11.485  -0.840  4.09827E-02  7.38268E-02 -3.28441E-02
    8985.848    -11.235  -0.800  4.30307E-02  8.00149E-02 -3.69843E-02
    8986.085    -10.998  -0.760  4.52534E-02  8.69703E-02 -4.17168E-02
    8986.311    -10.772  -0.720  4.76773E-02  9.48051E-02 -4.71277E-02
    8986.524    -10.559  -0.680  5.03324E-02  1.03643E-01 -5.33104E-02
    8986.725    -10.358  -0.640  5.32512E-02  1.13614E-01 -6.03625E-02
    8986.914    -10.169  -0.600  5.64667E-02  1.24846E-01 -6.83788E-02
    8987.091     -9.992  -0.560  6.00072E-02  1.37447E-01 -7.74397E-02
    8987.256     -9.827  -0.520  6.38892E-02  1.51482E-01 -8.75929E-02
    8987.408     -9.675  -0.480  6.81070E-02  1.66936E-01 -9.88288E-02
    8987.548     -9.535  -0.440  7.26210E-02  1.83673E-01 -1.11052E-01
    8987.676     -9.407  -0.400  7.73472E-02  2.01403E-01 -1.24056E-01
    8987.792     -9.291  -0.360  8.21558E-02  2.19673E-01 -1.37517E-01
    8987.896     -9.187  -0.320  8.68817E-02  2.37891E-01 -1.51009E-01
    8987.987     -9.096  -0.280  9.13481E-02  2.55400E-01 -1.64052E-01
    8988.067     -9.017  -0.240  9.53944E-02  2.71568E-01 -1.76174E-01
    8988.134     -8.949  -0.200  9.88990E-02  2.85864E-01 -1.86965E-01
    8988.188     -8.895  -0.160  1.01788E-01  2.97896E-01 -1.96108E-01
    8988.231     -8.852  -0.120  1.04031E-01  3.07412E-01 -2.03381E-01
    8988.262     -8.821  -0.080  1.05625E-01  3.14272E-01 -2.08647E-01
    8988.286     -8.797   0.000  1.06895E-01  3.19785E-01 -2.12890E-01
    8988.341     -8.742   0.120  1.09669E-01  3.32235E-01 -2.22567E-01
    8988.384     -8.700   0.160  1.11726E-01  3.41905E-01 -2.30179E-01
    8988.438     -8.645   0.200  1.14254E-01  3.54275E-01 -2.40022E-01
    8988.505     -8.578   0.240  1.17074E-01  3.69171E-01 -2.52097E-01
    8988.585     -8.498   0.280  1.19978E-01  3.86312E-01 -2.66334E-01
    8988.676     -8.407   0.320  1.22673E-01  4.05265E-01 -2.82592E-01
    8988.780     -8.303   0.360  1.24846E-01  4.25533E-01 -3.00687E-01
    8988.896     -8.187   0.400  1.26186E-01  4.46544E-01 -3.20357E-01
    8989.024     -8.059   0.440  1.26518E-01  4.67772E-01 -3.41253E-01
    8989.164     -7.919   0.480  1.25956E-01  4.88825E-01 -3.62869E-01
    8989.316     -7.767   0.520  1.24864E-01  5.09410E-01 -3.84547E-01
    8989.481     -7.602   0.560  1.23801E-01  5.29432E-01 -4.05631E-01
    8989.658     -7.426   0.600  1.23246E-01  5.48832E-01 -4.25586E-01
    8989.847     -7.237   0.640  1.23649E-01  5.67640E-01 -4.43991E-01
    8990.048     -7.035   0.680  1.25280E-01  5.85944E-01 -4.60664E-01
    8990.261     -6.822   0.720  1.28389E-01  6.03797E-01 -4.75408E-01
    8990.487     -6.596   0.760  1.33217E-01  6.21277E-01 -4.88060E-01
    8990.724     -6.359   0.800  1.40051E-01  6.38447E-01 -4.98397E-01
    8990.974     -6.109   0.840  1.49331E-01  6.55340E-01 -5.06009E-01
    8991.236     -5.847   0.880  1.61781E-01  6.72014E-01 -5.10233E-01
    8991.511     -5.572   0.920  1.78325E-01  6.88474E-01 -5.10148E-01
    8991.797     -5.286   0.960  2.00233E-01  7.04692E-01 -5.04458E-01
    8992.096     -4.987   1.000  2.28794E-01  7.20712E-01 -4.91918E-01
    8992.407     -4.676   1.040  2.65052E-01  7.36489E-01 -4.71437E-01
    8992.730     -4.353   1.080  3.10780E-01  7.52030E-01 -4.41250E-01
    8993.065     -4.018   1.120  3.69671E-01  7.67256E-01 -3.97585E-01
    8993.413     -3.670   1.160  4.43297E-01  7.82208E-01 -3.38910E-01
    8993.772     -3.311   1.200  5.19594E-01  7.96796E-01 -2.77203E-01
    8994.144     -2.939   1.240  5.75003E-01  8.11017E-01 -2.36015E-01
    8994.528     -2.555   1.280  6.03924E-01  8.24821E-01 -2.20897E-01
    8994.925     -2.159   1.320  6.27843E-01  8.38198E-01 -2.10355E-01
    8995.333     -1.750   1.360  6.63965E-01  8.51121E-01 -1.87156E-01
    8995.754     -1.330   1.400  7.09395E-01  8.63540E-01 -1.54144E-01
    8996.186     -0.897   1.440  7.53141E-01  8.75425E-01 -1.22285E-01
    8996.631     -0.452   1.480  7.99574E-01  8.86793E-01 -8.72188E-02
    8997.089      0.005   1.520  8.65418E-01  8.97615E-01 -3.21974E-02
    8997.558      0.475   1.560  9.48575E-01  9.07850E-01  4.07245E-02
    8998.040      0.956   1.600  1.01878E+00  9.17536E-01  1.01240E-01
    8998.533      1.450   1.640  1.06452E+00  9.26629E-01  1.37886E-01
    8999.039      1.956   1.680  1.13218E+00  9.35135E-01  1.97047E-01
    8999.557      2.474   1.720  1.25537E+00  9.43095E-01  3.12275E-01
    9000.088      3.005   1.760  1.39614E+00  9.50451E-01  4.45694E-01
    9000.630      3.547   1.800  1.53453E+00  9.57273E-01  5.77257E-01
    9001.185      4.102   1.840  1.67753E+00  9.63526E-01  7.14001E-01
    9001.752      4.669   1.880  1.78931E+00  9.69258E-01  8.20057E-01
    9002.331      5.248   1.920  1.81736E+00  9.74480E-01  8.42878E-01
    9002.922      5.839   1.960  1.75865E+00  9.79200E-01  7.79446E-01
    9003.526      6.443   2.000  1.64382E+00  9.83431E-01  6.60393E-01
    9004.142      7.059   2.040  1.50337E+00  9.87224E-01  5.16143E-01
    9004.770      7.686   2.080  1.35749E+00  9.90570E-01  3.66916E-01
    9005.410      8.326   2.120  1.22224E+00  9.93503E-01  2.28739E-01
    9006.062      8.979   2.160  1.11134E+00  9.96056E-01  1.15285E-01
    9006.726      9.643   2.200  1.02983E+00  9.98261E-01  3.15643E-02
    9007.403     10.320   2.240  9.71190E-01  1.00013E+00 -2.89423E-02
    9008.092     11.009   2.280  9.22658E-01  1.00168E+00 -7.90227E-02
    9008.793     11.710   2.320  8.75843E-01  1.00294E+00 -1.27097E-01
    9009.506     12.423   2.360  8.33443E-01  1.00394E+00 -1.70498E-01
    9010.232     13.148   2.400  8.04530E-01  1.00470E+00 -2.00167E-01
    9010.969     13.886   2.440  7.93676E-01  1.00524E+00 -2.11565E-01
    9011.719     14.636   2.480  8.01364E-01  1.00560E+00 -2.04238E-01
    9012.481     15.398   2.520  8.38252E-01  1.00577E+00 -1.67520E-01
    9013.255     16.172   2.560  8.83641E-01  1.00580E+00 -1.22159E-01
    9014.042     16.958   2.600  9.30060E-01  1.00568E+00 -7.56170E-02
    9014.840     17.757   2.640  9.69473E-01  1.00543E+00 -3.59573E-02
    9015.651     18.568   2.680  9.96723E-01  1.00511E+00 -8.38870E-03
    9016.474     19.391   2.720  1.00985E+00  1.00469E+00  5.16752E-03
    9017.309     20.226   2.760  1.01038E+00  1.00418E+00  6.20101E-03
    9018.156     21.073   2.800  1.00042E+00  1.00363E+00 -3.21589E-03
    9019.016     21.933   2.840  9.82724E-01  1.00303E+00 -2.03106E-02
    9019.888     22.804   2.880  9.61618E-01  1.00242E+00 -4.08044E-02
    9020.771     23.688   2.920  9.41151E-01  1.00178E+00 -6.06282E-02
    9021.668     24.584   2.960  9.24710E-01  1.00113E+00 -7.64189E-02
    9022.576     25.493   3.000  9.13414E-01  1.00048E+00 -8.70630E-02
    9023.496     26.413   3.040  9.06454E-01  9.99829E-01 -9.33755E-02
    9024.429     27.346   3.080  9.02335E-01  9.99209E-01 -9.68735E-02
    9025.374     28.291   3.120  8.99381E-01  9.98598E-01 -9.92170E-02
    9026.331     29.248   3.160  8.96911E-01  9.98022E-01 -1.01111E-01
    9027.300     30.217   3.200  8.95518E-01  9.97484E-01 -1.01966E-01
    9028.282     31.199   3.240  8.96360E-01  9.96986E-01 -1.00626E-01
    9029.275     32.192   3.280  9.00123E-01  9.96550E-01 -9.64272E-02
    9030.281     33.198   3.320  9.06520E-01  9.96137E-01 -8.96174E-02
    9031.299     34.216   3.360  9.14415E-01  9.95790E-01 -8.13743E-02
    9032.329     35.246   3.400  9.22368E-01  9.95487E-01 -7.31198E-02
    9033.372     36.289   3.440  9.29887E-01  9.95232E-01 -6.53441E-02
    9034.426     37.343   3.480  9.37684E-01  9.95043E-01 -5.73592E-02
    9035.493     38.410   3.520  9.46897E-01  9.94904E-01 -4.80060E-02
    9036.572     39.489   3.560  9.58535E-01  9.94834E-01 -3.62991E-02
    9037.663     40.580   3.600  9.73107E-01  9.94813E-01 -2.17065E-02
    9038.767     41.684   3.640  9.90480E-01  9.94861E-01 -4.38081E-03
    9039.882     42.799   3.680  1.00983E+00  9.94956E-01  1.48700E-02
    9041.010     43.927   3.720  1.03001E+00  9.95098E-01  3.49133E-02
    9042.150     45.067   3.760  1.04985E+00  9.95307E-01  5.45407E-02
    9043.302     46.219   3.800  1.06811E+00  9.95561E-01  7.25531E-02
    9044.467     47.383   3.840  1.08408E+00  9.95860E-01  8.82196E-02
    9045.643     48.560   3.880  1.09752E+00  9.96223E-01  1.01298E-01
    9046.832     49.749   3.920  1.10841E+00  9.96607E-01  1.11801E-01
    9048.033     50.950   3.960  1.11663E+00  9.97051E-01  1.19582E-01
    9049.246     52.163   4.000  1.12172E+00  9.97515E-01  1.24206E-01
    9050.471     53.388   4.040  1.12286E+00  9.98036E-01  1.24828E-01
    9051.709     54.625   4.080  1.11908E+00  9.98573E-01  1.20508E-01
    9052.958     55.875   4.120  1.10980E+00  9.99143E-01  1.10655E-01
    9054.220     57.137   4.160  1.09502E+00  9.99747E-01  9.52752E-02
    9055.494     58.411   4.200  1.07534E+00  1.00036E+00  7.49834E-02
    9056.780     59.697   4.240  1.05217E+00  1.00098E+00  5.11905E-02
    9058.079     60.996   4.280  1.02759E+00  1.00162E+00  2.59716E-02
    9059.389     62.306   4.320  1.00373E+00  1.00227E+00  1.46310E-03
    9060.712     63.629   4.360  9.82329E-01  1.00295E+00 -2.06167E-02
    9062.047     64.964   4.400  9.64558E-01  1.00360E+00 -3.90401E-02
    9063.395     66.311   4.440  9.51236E-01  1.00425E+00 -5.30130E-02
    9064.754     67.671   4.480  9.42848E-01  1.00492E+00 -6.20704E-02
    9066.126     69.042   4.520  9.39343E-01  1.00556E+00 -6.62172E-02
    9067.509     70.426   4.560  9.39991E-01  1.00617E+00 -6.61817E-02
    9068.905     71.822   4.600  9.43484E-01  1.00680E+00 -6.33136E-02
    9070.313     73.230   4.640  9.48241E-01  1.00737E+00 -5.91294E-02
    9071.734     74.651   4.680  9.53194E-01  1.00795E+00 -5.47575E-02
    9073.166     76.083   4.720  9.57981E-01  1.00848E+00 -5.04944E-02
    9074.611     77.528   4.760  9.63045E-01  1.00899E+00 -4.59407E-02
    9076.068     78.985   4.800  9.69140E-01  1.00946E+00 -4.03189E-02
    9077.537     80.454   4.840  9.77088E-01  1.00989E+00 -3.28065E-02
    9079.018     81.935   4.880  9.87381E-01  1.01031E+00 -2.29301E-02
    9080.512     83.429   4.920  9.99680E-01  1.01067E+00 -1.09866E-02
    9082.018     84.935   4.960  1.01285E+00  1.01100E+00  1.85266E-03
    9083.536     86.453   5.000  1.02521E+00  1.01127E+00  1.39417E-02
    9085.066     87.983   5.040  1.03539E+00  1.01150E+00  2.38916E-02
    9086.608     89.525   5.080  1.04281E+00  1.01171E+00  3.11029E-02
    9088.162     91.079   5.120  1.04748E+00  1.01185E+00  3.56338E-02
    9089.729     92.646   5.160  1.04933E+00  1.01195E+00  3.73803E-02
    9091.308     94.225   5.200  1.04751E+00  1.01200E+00  3.55077E-02
    9092.899     95.816   5.240  1.04124E+00  1.01201E+00  2.92391E-02
    9094.502     97.419   5.280  1.03144E+00  1.01195E+00  1.94970E-02
    9096.118     99.035   5.320  1.02109E+00  1.01187E+00  9.21911E-03
    9097.745    100.662   5.360  1.01343E+00  1.01172E+00  1.70660E-03
    9099.385    102.302   5.400  1.01029E+00  1.01153E+00 -1.24308E-03
    9101.037    103.954   5.440  1.01147E+00  1.01133E+00  1.42212E-04
    9102.701    105.618   5.480  1.01528E+00  1.01106E+00  4.22666E-03
    9104.378    107.295   5.520  1.01960E+00  1.01074E+00  8.86076E-03
    9106.066    108.983   5.560  1.02253E+00  1.01041E+00  1.21215E-02
    9107.767    110.684   5.600  1.02288E+00  1.01002E+00  1.28552E-02
    9109.480    112.397   5.640  1.02040E+00  1.00961E+00  1.07899E-02
    9111.205    114.122   5.680  1.01538E+00  1.00914E+00  6.23465E-03
    9112.943    115.859   5.720  1.00829E+00  1.00866E+00 -3.67292E-04
    9114.692    117.609   5.760  9.99615E-01  1.00814E+00 -8.52689E-03
    9116.454    119.371   5.800  9.90164E-01  1.00762E+00 -1.74525E-02
    9118.228    121.145   5.840  9.81181E-01  1.00706E+00 -2.58790E-02
    9120.014    122.931   5.880  9.74127E-01  1.00647E+00 -3.23475E-02
    9121.812    124.729   5.920  9.70100E-01  1.00589E+00 -3.57907E-02
    9123.623    126.540   5.960  9.69398E-01  1.00531E+00 -3.59151E-02
    9125.445    128.362   6.000  9.71644E-01  1.00469E+00 -3.30502E-02
