# # comment:                                                     FEFF 9.9.1  
# # Source:
# # Structure
# # Reduced
# # space
# # abc:
# # angles:
# # sites:
# # POT  SCF 100  7.0000   0, screened core-hole, AFOLP (folp(0)= 1.150)
# # Abs   Z=29 Rmt= 1.284 Rnm= 1.343 K  shell
# # Pot 1 Z= 3 Rmt= 1.222 Rnm= 1.284
# # Pot 2 Z=29 Rmt= 1.284 Rnm= 1.343
# # Pot 3 Z= 5 Rmt= 0.773 Rnm= 0.989
# # Pot 4 Z= 8 Rmt= 0.937 Rnm= 1.053
# # Gam_ch=1.729E+00 H-L exch Vi= 0.000E+00 Vr= 0.000E+00
# # Mu=-7.215E+00eV kf=2.334E+00 Vint=-1.770E+01eV Rs_int= 1.554
# FMS rfms= 9.0000
# # PATH  Rmax=-1.000,  Keep_limit= 0.00, Heap_limit 0.00  Pwcrit= 2.50%
#  S02=0.950  Temp=   0.00  Debye_temp=   0.00  Global_sig2= 0.00000
#  Energy zero shift, vr, vi    0.00000E+00   0.00000E+00
#  Curved wave amplitude ratio filter   4.000%
#     file         sig2 tot  cw amp ratio   deg  nlegs   reff  inp sig2
#     0/   0 paths used
#  xsedge+ 50, used to normalize mu           2.4768E-04
#  -----------------------------------------------------------------------
#  omega    e    k    mu    mu0     chi     @#
    8983.861    -11.025  -1.000  4.26922E-02  5.47592E-02 -1.20669E-02
    8984.160    -10.726  -0.960  4.50656E-02  5.87923E-02 -1.37267E-02
    8984.446    -10.440  -0.920  4.76233E-02  6.32804E-02 -1.56571E-02
    8984.721    -10.165  -0.880  5.03843E-02  6.82911E-02 -1.79069E-02
    8984.983     -9.903  -0.840  5.33697E-02  7.39033E-02 -2.05336E-02
    8985.233     -9.653  -0.800  5.66033E-02  8.02086E-02 -2.36053E-02
    8985.470     -9.416  -0.760  6.01109E-02  8.73120E-02 -2.72011E-02
    8985.696     -9.190  -0.720  6.39206E-02  9.53324E-02 -3.14119E-02
    8985.909     -8.977  -0.680  6.80619E-02  1.04401E-01 -3.63392E-02
    8986.110     -8.775  -0.640  7.25642E-02  1.14656E-01 -4.20923E-02
    8986.299     -8.586  -0.600  7.74538E-02  1.26235E-01 -4.87810E-02
    8986.476     -8.410  -0.560  8.27493E-02  1.39253E-01 -5.65036E-02
    8986.641     -8.245  -0.520  8.84542E-02  1.53781E-01 -6.53263E-02
    8986.793     -8.093  -0.480  9.45472E-02  1.69804E-01 -7.52564E-02
    8986.933     -7.953  -0.440  1.00971E-01  1.87181E-01 -8.62098E-02
    8987.061     -7.824  -0.400  1.07624E-01  2.05608E-01 -9.79839E-02
    8987.177     -7.709  -0.360  1.14356E-01  2.24605E-01 -1.10249E-01
    8987.281     -7.605  -0.320  1.20981E-01  2.43549E-01 -1.22568E-01
    8987.372     -7.514  -0.280  1.27295E-01  2.61750E-01 -1.34455E-01
    8987.452     -7.434  -0.240  1.33100E-01  2.78544E-01 -1.45444E-01
    8987.519     -7.367  -0.200  1.38232E-01  2.93378E-01 -1.55146E-01
    8987.573     -7.312  -0.160  1.42564E-01  3.05849E-01 -1.63285E-01
    8987.616     -7.270  -0.120  1.46010E-01  3.15702E-01 -1.69692E-01
    8987.647     -7.239  -0.080  1.48513E-01  3.22796E-01 -1.74283E-01
    8987.671     -7.215   0.000  1.50555E-01  3.28494E-01 -1.77938E-01
    8987.726     -7.160   0.120  1.55105E-01  3.41334E-01 -1.86229E-01
    8987.769     -7.117   0.160  1.58646E-01  3.51297E-01 -1.92651E-01
    8987.823     -7.063   0.200  1.63198E-01  3.64016E-01 -2.00819E-01
    8987.890     -6.995   0.240  1.68785E-01  3.79285E-01 -2.10501E-01
    8987.970     -6.916   0.280  1.75387E-01  3.96781E-01 -2.21394E-01
    8988.061     -6.825   0.320  1.83032E-01  4.16014E-01 -2.32981E-01
    8988.165     -6.721   0.360  1.91829E-01  4.36447E-01 -2.44618E-01
    8988.281     -6.605   0.400  2.01938E-01  4.57425E-01 -2.55487E-01
    8988.409     -6.477   0.440  2.13705E-01  4.78366E-01 -2.64661E-01
    8988.549     -6.337   0.480  2.27726E-01  4.98878E-01 -2.71152E-01
    8988.701     -6.185   0.520  2.44717E-01  5.18628E-01 -2.73911E-01
    8988.866     -6.020   0.560  2.65574E-01  5.37508E-01 -2.71933E-01
    8989.043     -5.843   0.600  2.91015E-01  5.55488E-01 -2.64472E-01
    8989.232     -5.654   0.640  3.21378E-01  5.72632E-01 -2.51253E-01
    8989.433     -5.453   0.680  3.56230E-01  5.89023E-01 -2.32793E-01
    8989.646     -5.240   0.720  3.94151E-01  6.04760E-01 -2.10610E-01
    8989.872     -5.014   0.760  4.32998E-01  6.19962E-01 -1.86964E-01
    8990.109     -4.777   0.800  4.70496E-01  6.34717E-01 -1.64221E-01
    8990.359     -4.527   0.840  5.04922E-01  6.49120E-01 -1.44199E-01
    8990.621     -4.264   0.880  5.34523E-01  6.63214E-01 -1.28691E-01
    8990.896     -3.990   0.920  5.56824E-01  6.77043E-01 -1.20219E-01
    8991.182     -3.704   0.960  5.70340E-01  6.90682E-01 -1.20342E-01
    8991.481     -3.405   1.000  5.76743E-01  7.04115E-01 -1.27372E-01
    8991.792     -3.094   1.040  5.79660E-01  7.17395E-01 -1.37735E-01
    8992.115     -2.771   1.080  5.81224E-01  7.30526E-01 -1.49302E-01
    8992.450     -2.436   1.120  5.81965E-01  7.43465E-01 -1.61500E-01
    8992.798     -2.088   1.160  5.83338E-01  7.56269E-01 -1.72931E-01
    8993.157     -1.729   1.200  5.87778E-01  7.68884E-01 -1.81106E-01
    8993.529     -1.357   1.240  5.99830E-01  7.81314E-01 -1.81484E-01
    8993.913     -0.973   1.280  6.25540E-01  7.93541E-01 -1.68002E-01
    8994.310     -0.576   1.320  6.66245E-01  8.05545E-01 -1.39300E-01
    8994.718     -0.168   1.360  7.14942E-01  8.17322E-01 -1.02380E-01
    8995.139      0.253   1.400  7.60678E-01  8.28830E-01 -6.81519E-02
    8995.571      0.685   1.440  7.99409E-01  8.40084E-01 -4.06753E-02
    8996.016      1.130   1.480  8.38411E-01  8.51039E-01 -1.26285E-02
    8996.474      1.588   1.520  8.90606E-01  8.61668E-01  2.89375E-02
    8996.943      2.057   1.560  9.65361E-01  8.71987E-01  9.33736E-02
    8997.425      2.539   1.600  1.06383E+00  8.81950E-01  1.81877E-01
    8997.918      3.032   1.640  1.17699E+00  8.91553E-01  2.85438E-01
    8998.424      3.538   1.680  1.28163E+00  9.00792E-01  3.80837E-01
    8998.942      4.057   1.720  1.35328E+00  9.09641E-01  4.43638E-01
    8999.473      4.587   1.760  1.39024E+00  9.18099E-01  4.72146E-01
    9000.015      5.129   1.800  1.40674E+00  9.26163E-01  4.80576E-01
    9000.570      5.684   1.840  1.40713E+00  9.33833E-01  4.73299E-01
    9001.137      6.251   1.880  1.39493E+00  9.41087E-01  4.53846E-01
    9001.716      6.830   1.920  1.36758E+00  9.47924E-01  4.19660E-01
    9002.307      7.422   1.960  1.31692E+00  9.54346E-01  3.62574E-01
    9002.911      8.025   2.000  1.25889E+00  9.60377E-01  2.98511E-01
    9003.527      8.641   2.040  1.21372E+00  9.66018E-01  2.47706E-01
    9004.155      9.269   2.080  1.18423E+00  9.71231E-01  2.12999E-01
    9004.795      9.909   2.120  1.16713E+00  9.76080E-01  1.91048E-01
    9005.447     10.561   2.160  1.15747E+00  9.80530E-01  1.76940E-01
    9006.111     11.225   2.200  1.14794E+00  9.84606E-01  1.63339E-01
    9006.788     11.902   2.240  1.13495E+00  9.88314E-01  1.46637E-01
    9007.477     12.591   2.280  1.11685E+00  9.91680E-01  1.25173E-01
    9008.178     13.292   2.320  1.09187E+00  9.94692E-01  9.71802E-02
    9008.891     14.005   2.360  1.06462E+00  9.97394E-01  6.72284E-02
    9009.617     14.731   2.400  1.04152E+00  9.99776E-01  4.17445E-02
    9010.354     15.468   2.440  1.02077E+00  1.00186E+00  1.89086E-02
    9011.104     16.218   2.480  9.96257E-01  1.00367E+00 -7.40952E-03
    9011.866     16.980   2.520  9.66263E-01  1.00521E+00 -3.89474E-02
    9012.640     17.754   2.560  9.36679E-01  1.00648E+00 -6.98040E-02
    9013.427     18.541   2.600  9.14937E-01  1.00753E+00 -9.25971E-02
    9014.225     19.339   2.640  9.01095E-01  1.00835E+00 -1.07253E-01
    9015.036     20.150   2.680  8.90655E-01  1.00895E+00 -1.18299E-01
    9015.859     20.973   2.720  8.78891E-01  1.00936E+00 -1.30468E-01
    9016.694     21.808   2.760  8.68527E-01  1.00959E+00 -1.41065E-01
    9017.541     22.655   2.800  8.61030E-01  1.00966E+00 -1.48632E-01
    9018.401     23.515   2.840  8.58187E-01  1.00959E+00 -1.51407E-01
    9019.273     24.387   2.880  8.59973E-01  1.00937E+00 -1.49402E-01
    9020.156     25.271   2.920  8.64845E-01  1.00903E+00 -1.44186E-01
    9021.053     26.167   2.960  8.71104E-01  1.00859E+00 -1.37486E-01
    9021.961     27.075   3.000  8.77472E-01  1.00804E+00 -1.30566E-01
    9022.881     27.995   3.040  8.83308E-01  1.00740E+00 -1.24093E-01
    9023.814     28.928   3.080  8.88575E-01  1.00668E+00 -1.18107E-01
    9024.759     29.873   3.120  8.93746E-01  1.00591E+00 -1.12164E-01
    9025.716     30.830   3.160  8.99280E-01  1.00507E+00 -1.05790E-01
    9026.685     31.799   3.200  9.05381E-01  1.00421E+00 -9.88242E-02
    9027.667     32.781   3.240  9.12344E-01  1.00328E+00 -9.09384E-02
    9028.660     33.774   3.280  9.20365E-01  1.00235E+00 -8.19808E-02
    9029.666     34.780   3.320  9.29336E-01  1.00140E+00 -7.20626E-02
    9030.684     35.798   3.360  9.39057E-01  1.00043E+00 -6.13686E-02
    9031.714     36.829   3.400  9.49259E-01  9.99471E-01 -5.02112E-02
    9032.757     37.871   3.440  9.59408E-01  9.98496E-01 -3.90878E-02
    9033.811     38.926   3.480  9.69164E-01  9.97547E-01 -2.83832E-02
    9034.878     39.992   3.520  9.78411E-01  9.96625E-01 -1.82141E-02
    9035.957     41.071   3.560  9.87223E-01  9.95713E-01 -8.48990E-03
    9037.048     42.162   3.600  9.95947E-01  9.94810E-01  1.13692E-03
    9038.152     43.266   3.640  1.00506E+00  9.93941E-01  1.11220E-02
    9039.267     44.381   3.680  1.01499E+00  9.93131E-01  2.18608E-02
    9040.395     45.509   3.720  1.02585E+00  9.92339E-01  3.35064E-02
    9041.535     46.649   3.760  1.03757E+00  9.91586E-01  4.59817E-02
    9042.687     47.801   3.800  1.04988E+00  9.90894E-01  5.89869E-02
    9043.852     48.966   3.840  1.06212E+00  9.90224E-01  7.18977E-02
    9045.028     50.142   3.880  1.07354E+00  9.89617E-01  8.39200E-02
    9046.217     51.331   3.920  1.08329E+00  9.89055E-01  9.42379E-02
    9047.418     52.532   3.960  1.09063E+00  9.88537E-01  1.02095E-01
    9048.631     53.745   4.000  1.09490E+00  9.88086E-01  1.06814E-01
    9049.856     54.970   4.040  1.09568E+00  9.87679E-01  1.08003E-01
    9051.094     56.208   4.080  1.09272E+00  9.87316E-01  1.05400E-01
    9052.343     57.457   4.120  1.08605E+00  9.87020E-01  9.90292E-02
    9053.605     58.719   4.160  1.07614E+00  9.86747E-01  8.93956E-02
    9054.879     59.993   4.200  1.06398E+00  9.86540E-01  7.74372E-02
    9056.165     61.279   4.240  1.05061E+00  9.86400E-01  6.42093E-02
    9057.464     62.578   4.280  1.03695E+00  9.86303E-01  5.06428E-02
    9058.774     63.889   4.320  1.02371E+00  9.86228E-01  3.74837E-02
    9060.097     65.211   4.360  1.01147E+00  9.86215E-01  2.52553E-02
    9061.432     66.546   4.400  1.00064E+00  9.86247E-01  1.43962E-02
    9062.780     67.894   4.440  9.91593E-01  9.86340E-01  5.25303E-03
    9064.139     69.253   4.480  9.84415E-01  9.86451E-01 -2.03677E-03
    9065.511     70.625   4.520  9.79083E-01  9.86600E-01 -7.51752E-03
    9066.894     72.008   4.560  9.75449E-01  9.86787E-01 -1.13380E-02
    9068.290     73.404   4.600  9.73294E-01  9.87012E-01 -1.37172E-02
    9069.698     74.813   4.640  9.72322E-01  9.87270E-01 -1.49480E-02
    9071.119     76.233   4.680  9.72087E-01  9.87542E-01 -1.54549E-02
    9072.551     77.665   4.720  9.71969E-01  9.87847E-01 -1.58777E-02
    9073.996     79.110   4.760  9.71298E-01  9.88183E-01 -1.68847E-02
    9075.453     80.567   4.800  9.69581E-01  9.88528E-01 -1.89464E-02
    9076.922     82.036   4.840  9.66715E-01  9.88900E-01 -2.21848E-02
    9078.404     83.518   4.880  9.62932E-01  9.89257E-01 -2.63247E-02
    9079.897     85.011   4.920  9.58883E-01  9.89661E-01 -3.07778E-02
    9081.403     86.517   4.960  9.55128E-01  9.90046E-01 -3.49183E-02
    9082.921     88.035   5.000  9.52183E-01  9.90432E-01 -3.82490E-02
    9084.451     89.565   5.040  9.50277E-01  9.90839E-01 -4.05620E-02
    9085.993     91.107   5.080  9.49270E-01  9.91222E-01 -4.19520E-02
    9087.547     92.662   5.120  9.48930E-01  9.91602E-01 -4.26723E-02
    9089.114     94.228   5.160  9.49009E-01  9.91979E-01 -4.29698E-02
    9090.693     95.807   5.200  9.49537E-01  9.92352E-01 -4.28150E-02
    9092.284     97.398   5.240  9.50745E-01  9.92718E-01 -4.19731E-02
    9093.887     99.001   5.280  9.52810E-01  9.93053E-01 -4.02435E-02
    9095.503    100.617   5.320  9.55644E-01  9.93355E-01 -3.77119E-02
    9097.130    102.244   5.360  9.58876E-01  9.93649E-01 -3.47734E-02
    9098.770    103.884   5.400  9.62035E-01  9.93933E-01 -3.18974E-02
    9100.422    105.536   5.440  9.64822E-01  9.94182E-01 -2.93599E-02
    9102.086    107.200   5.480  9.67279E-01  9.94395E-01 -2.71165E-02
    9103.763    108.877   5.520  9.69703E-01  9.94573E-01 -2.48698E-02
    9105.451    110.565   5.560  9.72534E-01  9.94737E-01 -2.22026E-02
    9107.152    112.266   5.600  9.76198E-01  9.94864E-01 -1.86664E-02
    9108.865    113.979   5.640  9.81100E-01  9.94952E-01 -1.38520E-02
    9110.590    115.704   5.680  9.87426E-01  9.95003E-01 -7.57621E-03
    9112.328    117.442   5.720  9.94956E-01  9.95015E-01 -5.85952E-05
    9114.077    119.191   5.760  1.00307E+00  9.95012E-01  8.05680E-03
    9115.839    120.953   5.800  1.01082E+00  9.94947E-01  1.58709E-02
    9117.613    122.727   5.840  1.01739E+00  9.94843E-01  2.25464E-02
    9119.399    124.513   5.880  1.02235E+00  9.94725E-01  2.76237E-02
    9121.197    126.311   5.920  1.02570E+00  9.94546E-01  3.11527E-02
    9123.008    128.122   5.960  1.02780E+00  9.94352E-01  3.34430E-02
    9124.830    129.945   6.000  1.02877E+00  9.94100E-01  3.46675E-02
