# # comment:                                                     FEFF 9.9.1  
# # Source:
# # Structure
# # Reduced
# # space
# # abc:
# # angles:
# # sites:
# # POT  SCF 100  7.0000   0, screened core-hole, AFOLP (folp(0)= 1.150)
# # Abs   Z=29 Rmt= 1.271 Rnm= 1.343 K  shell
# # Pot 1 Z=24 Rmt= 1.314 Rnm= 1.414
# # Pot 2 Z=48 Rmt= 1.429 Rnm= 1.519
# # Pot 3 Z=29 Rmt= 1.299 Rnm= 1.368
# # Pot 4 Z= 8 Rmt= 1.026 Rnm= 1.096
# # Gam_ch=1.729E+00 H-L exch Vi= 0.000E+00 Vr= 0.000E+00
# # Mu=-1.053E+01eV kf=2.177E+00 Vint=-1.857E+01eV Rs_int= 1.666
# FMS rfms= 9.0000
# # PATH  Rmax=-1.000,  Keep_limit= 0.00, Heap_limit 0.00  Pwcrit= 2.50%
#  S02=0.950  Temp=   0.00  Debye_temp=   0.00  Global_sig2= 0.00000
#  Energy zero shift, vr, vi    0.00000E+00   0.00000E+00
#  Curved wave amplitude ratio filter   4.000%
#     file         sig2 tot  cw amp ratio   deg  nlegs   reff  inp sig2
#     0/   0 paths used
#  xsedge+ 50, used to normalize mu           2.5038E-04
#  -----------------------------------------------------------------------
#  omega    e    k    mu    mu0     chi     @#
    8984.258    -14.343  -1.000  3.31011E-02  4.62034E-02 -1.31024E-02
    8984.557    -14.044  -0.960  3.47436E-02  4.93515E-02 -1.46079E-02
    8984.844    -13.758  -0.920  3.65110E-02  5.28339E-02 -1.63230E-02
    8985.118    -13.483  -0.880  3.84180E-02  5.66988E-02 -1.82808E-02
    8985.380    -13.221  -0.840  4.04817E-02  6.10021E-02 -2.05204E-02
    8985.630    -12.971  -0.800  4.27215E-02  6.58082E-02 -2.30867E-02
    8985.868    -12.734  -0.760  4.51597E-02  7.11914E-02 -2.60317E-02
    8986.093    -12.508  -0.720  4.78210E-02  7.72349E-02 -2.94139E-02
    8986.307    -12.295  -0.680  5.07326E-02  8.40307E-02 -3.32981E-02
    8986.508    -12.094  -0.640  5.39225E-02  9.16753E-02 -3.77528E-02
    8986.697    -11.905  -0.600  5.74172E-02  1.00263E-01 -4.28461E-02
    8986.874    -11.728  -0.560  6.12376E-02  1.09875E-01 -4.86375E-02
    8987.038    -11.563  -0.520  6.53917E-02  1.20557E-01 -5.51657E-02
    8987.190    -11.411  -0.480  6.98660E-02  1.32298E-01 -6.24315E-02
    8987.331    -11.271  -0.440  7.46144E-02  1.44993E-01 -7.03786E-02
    8987.459    -11.143  -0.400  7.95502E-02  1.58426E-01 -7.88756E-02
    8987.575    -11.027  -0.360  8.45451E-02  1.72255E-01 -8.77094E-02
    8987.678    -10.923  -0.320  8.94397E-02  1.86036E-01 -9.65961E-02
    8987.770    -10.832  -0.280  9.40647E-02  1.99277E-01 -1.05212E-01
    8987.849    -10.752  -0.240  9.82672E-02  2.11502E-01 -1.13235E-01
    8987.916    -10.685  -0.200  1.01929E-01  2.22312E-01 -1.20383E-01
    8987.971    -10.630  -0.160  1.04973E-01  2.31413E-01 -1.26440E-01
    8988.013    -10.588  -0.120  1.07355E-01  2.38612E-01 -1.31257E-01
    8988.044    -10.557  -0.080  1.09053E-01  2.43803E-01 -1.34750E-01
    8988.068    -10.533   0.000  1.10383E-01  2.47976E-01 -1.37593E-01
    8988.123    -10.478   0.120  1.13534E-01  2.57393E-01 -1.43860E-01
    8988.166    -10.435   0.160  1.15979E-01  2.64718E-01 -1.48740E-01
    8988.221    -10.381   0.200  1.19115E-01  2.74092E-01 -1.54978E-01
    8988.288    -10.313   0.240  1.22926E-01  2.85403E-01 -1.62477E-01
    8988.367    -10.234   0.280  1.27380E-01  2.98423E-01 -1.71044E-01
    8988.458    -10.143   0.320  1.32529E-01  3.12867E-01 -1.80338E-01
    8988.562    -10.039   0.360  1.38444E-01  3.28333E-01 -1.89890E-01
    8988.678     -9.923   0.400  1.45352E-01  3.44436E-01 -1.99084E-01
    8988.806     -9.795   0.440  1.53542E-01  3.60763E-01 -2.07220E-01
    8988.946     -9.655   0.480  1.63392E-01  3.77065E-01 -2.13673E-01
    8989.099     -9.503   0.520  1.75063E-01  3.93123E-01 -2.18059E-01
    8989.263     -9.338   0.560  1.88365E-01  4.08874E-01 -2.20509E-01
    8989.440     -9.161   0.600  2.02463E-01  4.24293E-01 -2.21830E-01
    8989.629     -8.972   0.640  2.15816E-01  4.39407E-01 -2.23591E-01
    8989.830     -8.771   0.680  2.26267E-01  4.54306E-01 -2.28039E-01
    8990.043     -8.558   0.720  2.31777E-01  4.69072E-01 -2.37294E-01
    8990.269     -8.332   0.760  2.32102E-01  4.83744E-01 -2.51642E-01
    8990.507     -8.095   0.800  2.30084E-01  4.98373E-01 -2.68289E-01
    8990.757     -7.845   0.840  2.30621E-01  5.13064E-01 -2.82443E-01
    8991.019     -7.582   0.880  2.38111E-01  5.27807E-01 -2.89696E-01
    8991.293     -7.308   0.920  2.55704E-01  5.42664E-01 -2.86961E-01
    8991.580     -7.022   0.960  2.85434E-01  5.57629E-01 -2.72194E-01
    8991.878     -6.723   1.000  3.27907E-01  5.72706E-01 -2.44798E-01
    8992.189     -6.412   1.040  3.79355E-01  5.87930E-01 -2.08575E-01
    8992.512     -6.089   1.080  4.25241E-01  6.03274E-01 -1.78033E-01
    8992.848     -5.754   1.120  4.43044E-01  6.18722E-01 -1.75678E-01
    8993.195     -5.406   1.160  4.29599E-01  6.34256E-01 -2.04657E-01
    8993.555     -5.047   1.200  4.10229E-01  6.49852E-01 -2.39623E-01
    8993.927     -4.675   1.240  4.05399E-01  6.65485E-01 -2.60087E-01
    8994.311     -4.291   1.280  4.17331E-01  6.81148E-01 -2.63817E-01
    8994.707     -3.894   1.320  4.42190E-01  6.96787E-01 -2.54597E-01
    8995.115     -3.486   1.360  4.76662E-01  7.12370E-01 -2.35708E-01
    8995.536     -3.065   1.400  5.15661E-01  7.27865E-01 -2.12204E-01
    8995.969     -2.633   1.440  5.54903E-01  7.43237E-01 -1.88334E-01
    8996.414     -2.188   1.480  5.99228E-01  7.58427E-01 -1.59199E-01
    8996.871     -1.730   1.520  6.57681E-01  7.73443E-01 -1.15762E-01
    8997.340     -1.261   1.560  7.24065E-01  7.88207E-01 -6.41421E-02
    8997.822     -0.779   1.600  7.71993E-01  8.02722E-01 -3.07293E-02
    8998.316     -0.286   1.640  7.83832E-01  8.16915E-01 -3.30830E-02
    8998.822      0.220   1.680  7.78670E-01  8.30768E-01 -5.20986E-02
    8999.340      0.739   1.720  7.93434E-01  8.44269E-01 -5.08348E-02
    8999.870      1.269   1.760  8.51170E-01  8.57362E-01 -6.19144E-03
    9000.413      1.811   1.800  9.58195E-01  8.70034E-01  8.81609E-02
    9000.967      2.366   1.840  1.11316E+00  8.82256E-01  2.30907E-01
    9001.534      2.933   1.880  1.29087E+00  8.93993E-01  3.96878E-01
    9002.113      3.512   1.920  1.40814E+00  9.05237E-01  5.02899E-01
    9002.705      4.103   1.960  1.37878E+00  9.15963E-01  4.62815E-01
    9003.308      4.707   2.000  1.25025E+00  9.26182E-01  3.24072E-01
    9003.924      5.323   2.040  1.15074E+00  9.35849E-01  2.14895E-01
    9004.552      5.951   2.080  1.13525E+00  9.45001E-01  1.90248E-01
    9005.192      6.591   2.120  1.18489E+00  9.53576E-01  2.31313E-01
    9005.844      7.243   2.160  1.26207E+00  9.61610E-01  3.00457E-01
    9006.509      7.907   2.200  1.33756E+00  9.69085E-01  3.68472E-01
    9007.185      8.584   2.240  1.36792E+00  9.76003E-01  3.91913E-01
    9007.874      9.273   2.280  1.32248E+00  9.82406E-01  3.40070E-01
    9008.575      9.974   2.320  1.23248E+00  9.88240E-01  2.44240E-01
    9009.288     10.687   2.360  1.13280E+00  9.93567E-01  1.39231E-01
    9010.014     11.413   2.400  1.02645E+00  9.98374E-01  2.80789E-02
    9010.751     12.150   2.440  9.33405E-01  1.00267E+00 -6.92638E-02
    9011.501     12.900   2.480  8.87273E-01  1.00650E+00 -1.19224E-01
    9012.263     13.662   2.520  8.87357E-01  1.00983E+00 -1.22472E-01
    9013.037     14.436   2.560  9.18400E-01  1.01273E+00 -9.43324E-02
    9013.824     15.223   2.600  9.59167E-01  1.01518E+00 -5.60104E-02
    9014.622     16.021   2.640  9.89619E-01  1.01723E+00 -2.76152E-02
    9015.433     16.832   2.680  1.01242E+00  1.01887E+00 -6.45339E-03
    9016.256     17.655   2.720  1.02677E+00  1.02016E+00  6.61020E-03
    9017.091     18.490   2.760  1.03194E+00  1.02107E+00  1.08716E-02
    9017.939     19.337   2.800  1.02948E+00  1.02168E+00  7.80015E-03
    9018.798     20.197   2.840  1.02127E+00  1.02195E+00 -6.73410E-04
    9019.670     21.069   2.880  1.00907E+00  1.02195E+00 -1.28795E-02
    9020.554     21.953   2.920  9.94182E-01  1.02168E+00 -2.74970E-02
    9021.450     22.849   2.960  9.77552E-01  1.02117E+00 -4.36144E-02
    9022.358     23.757   3.000  9.59654E-01  1.02042E+00 -6.07658E-02
    9023.279     24.677   3.040  9.41491E-01  1.01949E+00 -7.79999E-02
    9024.211     25.610   3.080  9.24897E-01  1.01837E+00 -9.34719E-02
    9025.156     26.555   3.120  9.11600E-01  1.01706E+00 -1.05463E-01
    9026.113     27.512   3.160  9.02132E-01  1.01564E+00 -1.13512E-01
    9027.083     28.481   3.200  8.96158E-01  1.01408E+00 -1.17923E-01
    9028.064     29.463   3.240  8.93139E-01  1.01240E+00 -1.19262E-01
    9029.058     30.456   3.280  8.92495E-01  1.01066E+00 -1.18160E-01
    9030.063     31.462   3.320  8.93649E-01  1.00881E+00 -1.15160E-01
    9031.082     32.480   3.360  8.96073E-01  1.00691E+00 -1.10838E-01
    9032.112     33.510   3.400  8.98964E-01  1.00495E+00 -1.05983E-01
    9033.154     34.553   3.440  9.01650E-01  1.00297E+00 -1.01316E-01
    9034.209     35.607   3.480  9.03849E-01  1.00098E+00 -9.71263E-02
    9035.276     36.674   3.520  9.05767E-01  9.98960E-01 -9.31930E-02
    9036.355     37.753   3.560  9.07971E-01  9.96964E-01 -8.89935E-02
    9037.446     38.844   3.600  9.11361E-01  9.94954E-01 -8.35936E-02
    9038.549     39.948   3.640  9.16999E-01  9.92995E-01 -7.59957E-02
    9039.665     41.063   3.680  9.25626E-01  9.91051E-01 -6.54253E-02
    9040.792     42.191   3.720  9.37566E-01  9.89145E-01 -5.15792E-02
    9041.932     43.331   3.760  9.52713E-01  9.87305E-01 -3.45927E-02
    9043.084     44.483   3.800  9.70367E-01  9.85513E-01 -1.51467E-02
    9044.249     45.648   3.840  9.89620E-01  9.83790E-01  5.82973E-03
    9045.425     46.824   3.880  1.00960E+00  9.82118E-01  2.74783E-02
    9046.614     48.013   3.920  1.02935E+00  9.80524E-01  4.88290E-02
    9047.815     49.214   3.960  1.04748E+00  9.79007E-01  6.84742E-02
    9049.028     50.427   4.000  1.06238E+00  9.77593E-01  8.47912E-02
    9050.253     51.652   4.040  1.07267E+00  9.76239E-01  9.64317E-02
    9051.491     52.890   4.080  1.07799E+00  9.74989E-01  1.03006E-01
    9052.741     54.139   4.120  1.07930E+00  9.73823E-01  1.05476E-01
    9054.002     55.401   4.160  1.07857E+00  9.72743E-01  1.05830E-01
    9055.276     56.675   4.200  1.07825E+00  9.71770E-01  1.06479E-01
    9056.563     57.961   4.240  1.08075E+00  9.70885E-01  1.09862E-01
    9057.861     59.260   4.280  1.08733E+00  9.70106E-01  1.17220E-01
    9059.172     60.571   4.320  1.09638E+00  9.69413E-01  1.26968E-01
    9060.495     61.893   4.360  1.10324E+00  9.68807E-01  1.34433E-01
    9061.830     63.228   4.400  1.10215E+00  9.68308E-01  1.33842E-01
    9063.177     64.576   4.440  1.08932E+00  9.67895E-01  1.21430E-01
    9064.536     65.935   4.480  1.06485E+00  9.67566E-01  9.72850E-02
    9065.908     67.307   4.520  1.03226E+00  9.67344E-01  6.49195E-02
    9067.292     68.690   4.560  9.96577E-01  9.67206E-01  2.93710E-02
    9068.688     70.086   4.600  9.62410E-01  9.67151E-01 -4.74115E-03
    9070.096     71.494   4.640  9.33012E-01  9.67199E-01 -3.41869E-02
    9071.516     72.915   4.680  9.09909E-01  9.67303E-01 -5.73943E-02
    9072.949     74.347   4.720  8.93283E-01  9.67485E-01 -7.42024E-02
    9074.393     75.792   4.760  8.82632E-01  9.67745E-01 -8.51136E-02
    9075.850     77.249   4.800  8.77529E-01  9.68080E-01 -9.05514E-02
    9077.319     78.718   4.840  8.77993E-01  9.68487E-01 -9.04944E-02
    9078.801     80.200   4.880  8.84442E-01  9.68943E-01 -8.45004E-02
    9080.294     81.693   4.920  8.97208E-01  9.69445E-01 -7.22374E-02
    9081.800     83.199   4.960  9.15788E-01  9.70016E-01 -5.42280E-02
    9083.318     84.717   5.000  9.38090E-01  9.70628E-01 -3.25377E-02
    9084.848     86.247   5.040  9.60548E-01  9.71280E-01 -1.07313E-02
    9086.390     87.789   5.080  9.79268E-01  9.71969E-01  7.29915E-03
    9087.945     89.344   5.120  9.91766E-01  9.72673E-01  1.90929E-02
    9089.511     90.910   5.160  9.97950E-01  9.73432E-01  2.45182E-02
    9091.090     92.489   5.200  9.99142E-01  9.74200E-01  2.49421E-02
    9092.681     94.080   5.240  9.96912E-01  9.74973E-01  2.19390E-02
    9094.285     95.683   5.280  9.92523E-01  9.75751E-01  1.67724E-02
    9095.900     97.299   5.320  9.86843E-01  9.76553E-01  1.02897E-02
    9097.528     98.926   5.360  9.80271E-01  9.77356E-01  2.91555E-03
    9099.167    100.566   5.400  9.72970E-01  9.78131E-01 -5.16165E-03
    9100.819    102.218   5.440  9.65440E-01  9.78901E-01 -1.34608E-02
    9102.484    103.882   5.480  9.58623E-01  9.79664E-01 -2.10408E-02
    9104.160    105.559   5.520  9.53308E-01  9.80396E-01 -2.70880E-02
    9105.849    107.247   5.560  9.49287E-01  9.81116E-01 -3.18289E-02
    9107.549    108.948   5.600  9.45060E-01  9.81800E-01 -3.67407E-02
    9109.262    110.661   5.640  9.38715E-01  9.82444E-01 -4.37296E-02
    9110.988    112.386   5.680  9.29438E-01  9.83024E-01 -5.35864E-02
    9112.725    114.124   5.720  9.18444E-01  9.83586E-01 -6.51423E-02
    9114.474    115.873   5.760  9.08250E-01  9.84106E-01 -7.58557E-02
    9116.236    117.635   5.800  9.01277E-01  9.84557E-01 -8.32804E-02
    9118.010    119.409   5.840  8.99031E-01  9.84962E-01 -8.59311E-02
    9119.796    121.195   5.880  9.02293E-01  9.85320E-01 -8.30265E-02
    9121.595    122.993   5.920  9.11633E-01  9.85601E-01 -7.39680E-02
    9123.405    124.804   5.960  9.27522E-01  9.85822E-01 -5.82999E-02
    9125.228    126.626   6.000  9.50565E-01  9.85933E-01 -3.53677E-02
