# # comment:                                                     FEFF 9.9.1  
# # Source:
# # Structure
# # Reduced
# # space
# # abc:
# # angles:
# # sites:
# # POT  SCF 100  7.0000   0, screened core-hole, AFOLP (folp(0)= 1.150)
# # Abs   Z=29 Rmt= 1.270 Rnm= 1.336 K  shell
# # Pot 1 Z=19 Rmt= 1.902 Rnm= 1.939
# # Pot 2 Z=29 Rmt= 1.270 Rnm= 1.337
# # Pot 3 Z= 6 Rmt= 0.713 Rnm= 0.928
# # Pot 4 Z= 8 Rmt= 0.880 Rnm= 1.020
# # Gam_ch=1.729E+00 H-L exch Vi= 0.000E+00 Vr= 0.000E+00
# # Mu=-8.134E+00eV kf=2.505E+00 Vint=-1.794E+01eV Rs_int= 1.448
# FMS rfms= 9.0000
# # PATH  Rmax=-1.000,  Keep_limit= 0.00, Heap_limit 0.00  Pwcrit= 2.50%
#  S02=0.950  Temp=   0.00  Debye_temp=   0.00  Global_sig2= 0.00000
#  Energy zero shift, vr, vi    0.00000E+00   0.00000E+00
#  Curved wave amplitude ratio filter   4.000%
#     file         sig2 tot  cw amp ratio   deg  nlegs   reff  inp sig2
#     0/   0 paths used
#  xsedge+ 50, used to normalize mu           2.4915E-04
#  -----------------------------------------------------------------------
#  omega    e    k    mu    mu0     chi     @#
    8983.888    -11.944  -1.000  3.67989E-02  4.92575E-02 -1.24586E-02
    8984.187    -11.646  -0.960  3.87604E-02  5.27519E-02 -1.39914E-02
    8984.473    -11.359  -0.920  4.08711E-02  5.66307E-02 -1.57596E-02
    8984.748    -11.085  -0.880  4.31455E-02  6.09505E-02 -1.78050E-02
    8985.010    -10.823  -0.840  4.55998E-02  6.57771E-02 -2.01772E-02
    8985.260    -10.573  -0.800  4.82514E-02  7.11867E-02 -2.29352E-02
    8985.498    -10.335  -0.760  5.11191E-02  7.72668E-02 -2.61477E-02
    8985.723    -10.110  -0.720  5.42224E-02  8.41164E-02 -2.98940E-02
    8985.937     -9.896  -0.680  5.75814E-02  9.18444E-02 -3.42630E-02
    8986.138     -9.695  -0.640  6.12148E-02  1.00566E-01 -3.93510E-02
    8986.327     -9.506  -0.600  6.51387E-02  1.10393E-01 -4.52547E-02
    8986.503     -9.329  -0.560  6.93633E-02  1.21424E-01 -5.20605E-02
    8986.668     -9.165  -0.520  7.38886E-02  1.33714E-01 -5.98256E-02
    8986.820     -9.012  -0.480  7.86987E-02  1.47251E-01 -6.85527E-02
    8986.961     -8.872  -0.440  8.37562E-02  1.61917E-01 -7.81606E-02
    8987.089     -8.744  -0.400  8.89958E-02  1.77455E-01 -8.84591E-02
    8987.204     -8.628  -0.360  9.43224E-02  1.93465E-01 -9.91426E-02
    8987.308     -8.525  -0.320  9.96132E-02  2.09426E-01 -1.09813E-01
    8987.400     -8.433  -0.280  1.04727E-01  2.24760E-01 -1.20034E-01
    8987.479     -8.354  -0.240  1.09514E-01  2.38912E-01 -1.29398E-01
    8987.546     -8.287  -0.200  1.13833E-01  2.51416E-01 -1.37583E-01
    8987.601     -8.232  -0.160  1.17555E-01  2.61932E-01 -1.44377E-01
    8987.643     -8.189  -0.120  1.20574E-01  2.70244E-01 -1.49670E-01
    8987.674     -8.159  -0.080  1.22810E-01  2.76232E-01 -1.53422E-01
    8987.698     -8.134   0.000  1.24688E-01  2.81042E-01 -1.56355E-01
    8987.753     -8.080   0.120  1.28954E-01  2.91887E-01 -1.62933E-01
    8987.796     -8.037   0.160  1.32289E-01  3.00318E-01 -1.68028E-01
    8987.851     -7.982   0.200  1.36646E-01  3.11077E-01 -1.74431E-01
    8987.918     -7.915   0.240  1.42124E-01  3.24017E-01 -1.81892E-01
    8987.997     -7.836   0.280  1.48789E-01  3.38875E-01 -1.90086E-01
    8988.088     -7.744   0.320  1.56744E-01  3.55249E-01 -1.98506E-01
    8988.192     -7.641   0.360  1.66116E-01  3.72689E-01 -2.06573E-01
    8988.308     -7.525   0.400  1.77052E-01  3.90689E-01 -2.13637E-01
    8988.436     -7.397   0.440  1.89670E-01  4.08752E-01 -2.19082E-01
    8988.576     -7.257   0.480  2.04176E-01  4.26566E-01 -2.22390E-01
    8988.728     -7.104   0.520  2.20615E-01  4.43868E-01 -2.23252E-01
    8988.893     -6.940   0.560  2.38940E-01  4.60554E-01 -2.21614E-01
    8989.070     -6.763   0.600  2.58912E-01  4.76638E-01 -2.17726E-01
    8989.259     -6.574   0.640  2.80203E-01  4.92134E-01 -2.11931E-01
    8989.460     -6.373   0.680  3.02881E-01  5.07129E-01 -2.04248E-01
    8989.673     -6.159   0.720  3.27655E-01  5.21724E-01 -1.94069E-01
    8989.899     -5.934   0.760  3.55366E-01  5.35995E-01 -1.80629E-01
    8990.137     -5.696   0.800  3.85817E-01  5.50033E-01 -1.64217E-01
    8990.387     -5.446   0.840  4.16189E-01  5.63899E-01 -1.47710E-01
    8990.649     -5.184   0.880  4.41092E-01  5.77638E-01 -1.36547E-01
    8990.923     -4.910   0.920  4.55293E-01  5.91305E-01 -1.36013E-01
    8991.210     -4.623   0.960  4.57699E-01  6.04947E-01 -1.47248E-01
    8991.508     -4.324   1.000  4.53572E-01  6.18556E-01 -1.64984E-01
    8991.819     -4.014   1.040  4.52523E-01  6.32160E-01 -1.79637E-01
    8992.142     -3.690   1.080  4.62572E-01  6.45759E-01 -1.83187E-01
    8992.477     -3.355   1.120  4.84307E-01  6.59346E-01 -1.75039E-01
    8992.825     -3.008   1.160  5.10034E-01  6.72910E-01 -1.62876E-01
    8993.185     -2.648   1.200  5.29461E-01  6.86476E-01 -1.57015E-01
    8993.556     -2.276   1.240  5.35596E-01  6.99984E-01 -1.64388E-01
    8993.941     -1.892   1.280  5.29393E-01  7.13434E-01 -1.84041E-01
    8994.337     -1.496   1.320  5.20895E-01  7.26801E-01 -2.05906E-01
    8994.745     -1.087   1.360  5.20397E-01  7.40060E-01 -2.19663E-01
    8995.166     -0.667   1.400  5.31295E-01  7.53203E-01 -2.21907E-01
    8995.599     -0.234   1.440  5.53286E-01  7.66203E-01 -2.12917E-01
    8996.044      0.211   1.480  5.87091E-01  7.79030E-01 -1.91938E-01
    8996.501      0.668   1.520  6.35760E-01  7.91634E-01 -1.55874E-01
    8996.970      1.138   1.560  7.03276E-01  8.04025E-01 -1.00749E-01
    8997.452      1.619   1.600  7.84872E-01  8.16174E-01 -3.13019E-02
    8997.946      2.113   1.640  8.64621E-01  8.28051E-01  3.65695E-02
    8998.452      2.619   1.680  9.20320E-01  8.39626E-01  8.06944E-02
    8998.970      3.137   1.720  9.42876E-01  8.50890E-01  9.19861E-02
    8999.500      3.667   1.760  9.41218E-01  8.61794E-01  7.94239E-02
    9000.043      4.210   1.800  9.35087E-01  8.72370E-01  6.27174E-02
    9000.597      4.765   1.840  9.50498E-01  8.82572E-01  6.79258E-02
    9001.164      5.332   1.880  9.99763E-01  8.92392E-01  1.07371E-01
    9001.743      5.911   1.920  1.06856E+00  9.01804E-01  1.66753E-01
    9002.335      6.502   1.960  1.13213E+00  9.10805E-01  2.21324E-01
    9002.938      7.106   2.000  1.17176E+00  9.19390E-01  2.52371E-01
    9003.554      7.721   2.040  1.18822E+00  9.27556E-01  2.60664E-01
    9004.182      8.349   2.080  1.19153E+00  9.35283E-01  2.56243E-01
    9004.822      8.989   2.120  1.18555E+00  9.42589E-01  2.42964E-01
    9005.474      9.641   2.160  1.17632E+00  9.49453E-01  2.26868E-01
    9006.139     10.306   2.200  1.17449E+00  9.55898E-01  2.18594E-01
    9006.815     10.983   2.240  1.18463E+00  9.61926E-01  2.22705E-01
    9007.504     11.671   2.280  1.20035E+00  9.67515E-01  2.32833E-01
    9008.205     12.372   2.320  1.21226E+00  9.72693E-01  2.39563E-01
    9008.918     13.086   2.360  1.21794E+00  9.77440E-01  2.40499E-01
    9009.644     13.811   2.400  1.21873E+00  9.81802E-01  2.36930E-01
    9010.381     14.549   2.440  1.21411E+00  9.85766E-01  2.28342E-01
    9011.131     15.298   2.480  1.20103E+00  9.89359E-01  2.11671E-01
    9011.893     16.060   2.520  1.17641E+00  9.92583E-01  1.83829E-01
    9012.667     16.835   2.560  1.14355E+00  9.95448E-01  1.48105E-01
    9013.454     17.621   2.600  1.10956E+00  9.97980E-01  1.11578E-01
    9014.252     18.420   2.640  1.07788E+00  1.00019E+00  7.76956E-02
    9015.063     19.230   2.680  1.04895E+00  1.00207E+00  4.68717E-02
    9015.886     20.053   2.720  1.02279E+00  1.00367E+00  1.91195E-02
    9016.721     20.889   2.760  9.99256E-01  1.00498E+00 -5.72896E-03
    9017.569     21.736   2.800  9.79095E-01  1.00602E+00 -2.69296E-02
    9018.428     22.595   2.840  9.63712E-01  1.00684E+00 -4.31256E-02
    9019.300     23.467   2.880  9.50872E-01  1.00739E+00 -5.65200E-02
    9020.184     24.351   2.920  9.36295E-01  1.00776E+00 -7.14622E-02
    9021.080     25.247   2.960  9.18933E-01  1.00790E+00 -8.89659E-02
    9021.988     26.155   3.000  9.00684E-01  1.00786E+00 -1.07180E-01
    9022.909     27.076   3.040  8.83930E-01  1.00764E+00 -1.23714E-01
    9023.841     28.009   3.080  8.69993E-01  1.00729E+00 -1.37293E-01
    9024.786     28.953   3.120  8.58970E-01  1.00680E+00 -1.47826E-01
    9025.743     29.911   3.160  8.50673E-01  1.00616E+00 -1.55488E-01
    9026.712     30.880   3.200  8.44931E-01  1.00543E+00 -1.60497E-01
    9027.694     31.861   3.240  8.41638E-01  1.00458E+00 -1.62946E-01
    9028.688     32.855   3.280  8.41002E-01  1.00366E+00 -1.62653E-01
    9029.693     33.861   3.320  8.43059E-01  1.00265E+00 -1.59589E-01
    9030.711     34.879   3.360  8.47805E-01  1.00159E+00 -1.53784E-01
    9031.742     35.909   3.400  8.55537E-01  1.00048E+00 -1.44945E-01
    9032.784     36.951   3.440  8.66430E-01  9.99313E-01 -1.32883E-01
    9033.839     38.006   3.480  8.80201E-01  9.98130E-01 -1.17929E-01
    9034.905     39.073   3.520  8.96346E-01  9.96936E-01 -1.00590E-01
    9035.984     40.152   3.560  9.14146E-01  9.95715E-01 -8.15691E-02
    9037.076     41.243   3.600  9.32621E-01  9.94490E-01 -6.18696E-02
    9038.179     42.346   3.640  9.51039E-01  9.93289E-01 -4.22498E-02
    9039.295     43.462   3.680  9.68924E-01  9.92072E-01 -2.31476E-02
    9040.422     44.590   3.720  9.86051E-01  9.90904E-01 -4.85233E-03
    9041.562     45.730   3.760  1.00219E+00  9.89748E-01  1.24419E-02
    9042.714     46.882   3.800  1.01712E+00  9.88605E-01  2.85122E-02
    9043.879     48.046   3.840  1.03041E+00  9.87520E-01  4.28933E-02
    9045.055     49.223   3.880  1.04144E+00  9.86476E-01  5.49614E-02
    9046.244     50.411   3.920  1.04954E+00  9.85474E-01  6.40670E-02
    9047.445     51.612   3.960  1.05416E+00  9.84514E-01  6.96504E-02
    9048.658     52.825   4.000  1.05507E+00  9.83599E-01  7.14701E-02
    9049.883     54.051   4.040  1.05268E+00  9.82753E-01  6.99272E-02
    9051.121     55.288   4.080  1.04788E+00  9.81977E-01  6.59026E-02
    9052.370     56.538   4.120  1.04183E+00  9.81249E-01  6.05824E-02
    9053.632     57.800   4.160  1.03578E+00  9.80570E-01  5.52092E-02
    9054.906     59.074   4.200  1.03076E+00  9.79962E-01  5.08004E-02
    9056.193     60.360   4.240  1.02732E+00  9.79426E-01  4.78973E-02
    9057.491     61.658   4.280  1.02546E+00  9.78942E-01  4.65210E-02
    9058.802     62.969   4.320  1.02488E+00  9.78530E-01  4.63476E-02
    9060.125     64.292   4.360  1.02507E+00  9.78193E-01  4.68822E-02
    9061.460     65.627   4.400  1.02565E+00  9.77905E-01  4.77468E-02
    9062.807     66.974   4.440  1.02655E+00  9.77690E-01  4.88606E-02
    9064.166     68.333   4.480  1.02792E+00  9.77547E-01  5.03767E-02
    9065.538     69.705   4.520  1.02986E+00  9.77452E-01  5.24100E-02
    9066.922     71.089   4.560  1.03209E+00  9.77404E-01  5.46852E-02
    9068.318     72.485   4.600  1.03381E+00  9.77426E-01  5.63850E-02
    9069.726     73.893   4.640  1.03388E+00  9.77517E-01  5.63610E-02
    9071.146     75.313   4.680  1.03130E+00  9.77631E-01  5.36670E-02
    9072.579     76.746   4.720  1.02572E+00  9.77812E-01  4.79111E-02
    9074.023     78.191   4.760  1.01731E+00  9.78059E-01  3.92550E-02
    9075.480     79.648   4.800  1.00655E+00  9.78326E-01  2.82247E-02
    9076.949     81.117   4.840  9.94152E-01  9.78632E-01  1.55201E-02
    9078.431     82.598   4.880  9.80939E-01  9.78998E-01  1.94104E-03
    9079.924     84.092   4.920  9.67777E-01  9.79381E-01 -1.16031E-02
    9081.430     85.597   4.960  9.55628E-01  9.79798E-01 -2.41693E-02
    9082.948     87.115   5.000  9.45311E-01  9.80249E-01 -3.49376E-02
    9084.478     88.645   5.040  9.37347E-01  9.80711E-01 -4.33636E-02
    9086.020     90.188   5.080  9.31953E-01  9.81202E-01 -4.92483E-02
    9087.575     91.742   5.120  9.29062E-01  9.81698E-01 -5.26359E-02
    9089.141     93.309   5.160  9.28506E-01  9.82201E-01 -5.36945E-02
    9090.720     94.888   5.200  9.30128E-01  9.82728E-01 -5.26001E-02
    9092.311     96.479   5.240  9.33599E-01  9.83259E-01 -4.96597E-02
    9093.915     98.082   5.280  9.38462E-01  9.83787E-01 -4.53250E-02
    9095.530     99.697   5.320  9.44124E-01  9.84292E-01 -4.01684E-02
    9097.158    101.325   5.360  9.50032E-01  9.84815E-01 -3.47831E-02
    9098.797    102.965   5.400  9.55665E-01  9.85310E-01 -2.96446E-02
    9100.449    104.617   5.440  9.60819E-01  9.85797E-01 -2.49784E-02
    9102.114    106.281   5.480  9.65484E-01  9.86254E-01 -2.07699E-02
    9103.790    107.957   5.520  9.69733E-01  9.86700E-01 -1.69664E-02
    9105.479    109.646   5.560  9.73489E-01  9.87114E-01 -1.36247E-02
    9107.179    111.347   5.600  9.76438E-01  9.87515E-01 -1.10768E-02
    9108.892    113.060   5.640  9.78283E-01  9.87879E-01 -9.59605E-03
    9110.617    114.785   5.680  9.78779E-01  9.88182E-01 -9.40233E-03
    9112.355    116.522   5.720  9.77874E-01  9.88467E-01 -1.05928E-02
    9114.104    118.272   5.760  9.75641E-01  9.88714E-01 -1.30729E-02
    9115.866    120.033   5.800  9.72412E-01  9.88922E-01 -1.65095E-02
    9117.640    121.807   5.840  9.68711E-01  9.89089E-01 -2.03780E-02
    9119.426    123.593   5.880  9.65272E-01  9.89214E-01 -2.39418E-02
    9121.224    125.392   5.920  9.63135E-01  9.89270E-01 -2.61345E-02
    9123.035    127.202   5.960  9.62672E-01  9.89301E-01 -2.66292E-02
    9124.858    129.025   6.000  9.64425E-01  9.89237E-01 -2.48118E-02
