# # comment:                                                     FEFF 9.9.1  
# # Source:
# # Structure
# # Reduced
# # space
# # abc:
# # angles:107.711333
# # sites:
# # POT  SCF 100  7.0000   0, screened core-hole, AFOLP (folp(0)= 1.150)
# # Abs   Z=29 Rmt= 1.288 Rnm= 1.359 K  shell
# # Pot 1 Z= 3 Rmt= 1.341 Rnm= 1.404
# # Pot 2 Z=29 Rmt= 1.294 Rnm= 1.366
# # Pot 3 Z=15 Rmt= 0.939 Rnm= 1.153
# # Pot 4 Z= 8 Rmt= 0.868 Rnm= 1.037
# # Gam_ch=1.729E+00 H-L exch Vi= 0.000E+00 Vr= 0.000E+00
# # Mu=-5.754E+00eV kf=2.501E+00 Vint=-1.731E+01eV Rs_int= 1.450
# FMS rfms= 9.0000
# # PATH  Rmax=-1.000,  Keep_limit= 0.00, Heap_limit 0.00  Pwcrit= 2.50%
#  S02=0.950  Temp=   0.00  Debye_temp=   0.00  Global_sig2= 0.00000
#  Energy zero shift, vr, vi    0.00000E+00   0.00000E+00
#  Curved wave amplitude ratio filter   4.000%
#     file         sig2 tot  cw amp ratio   deg  nlegs   reff  inp sig2
#     0/   0 paths used
#  xsedge+ 50, used to normalize mu           2.4881E-04
#  -----------------------------------------------------------------------
#  omega    e    k    mu    mu0     chi     @#
    8983.374     -9.564  -1.000  4.87528E-02  5.45287E-02 -5.77589E-03
    8983.673     -9.265  -0.960  5.20787E-02  5.85517E-02 -6.47298E-03
    8983.959     -8.979  -0.920  5.57664E-02  6.30300E-02 -7.26365E-03
    8984.233     -8.704  -0.880  5.98706E-02  6.80317E-02 -8.16110E-03
    8984.496     -8.442  -0.840  6.44558E-02  7.36361E-02 -9.18027E-03
    8984.746     -8.192  -0.800  6.95970E-02  7.99351E-02 -1.03381E-02
    8984.983     -7.955  -0.760  7.53812E-02  8.70344E-02 -1.16532E-02
    8985.209     -7.729  -0.720  8.19074E-02  9.50539E-02 -1.31464E-02
    8985.422     -7.516  -0.680  8.92858E-02  1.04125E-01 -1.48396E-02
    8985.623     -7.314  -0.640  9.76333E-02  1.14388E-01 -1.67551E-02
    8985.812     -7.125  -0.600  1.07066E-01  1.25980E-01 -1.89142E-02
    8985.989     -6.949  -0.560  1.17685E-01  1.39019E-01 -2.13341E-02
    8986.154     -6.784  -0.520  1.29551E-01  1.53575E-01 -2.40242E-02
    8986.306     -6.632  -0.480  1.42654E-01  1.69635E-01 -2.69803E-02
    8986.446     -6.491  -0.440  1.56877E-01  1.87056E-01 -3.01791E-02
    8986.574     -6.363  -0.400  1.71961E-01  2.05532E-01 -3.35719E-02
    8986.690     -6.248  -0.360  1.87499E-01  2.24583E-01 -3.70836E-02
    8986.794     -6.144  -0.320  2.02966E-01  2.43581E-01 -4.06149E-02
    8986.885     -6.053  -0.280  2.17779E-01  2.61831E-01 -4.40520E-02
    8986.964     -5.973  -0.240  2.31390E-01  2.78669E-01 -4.72790E-02
    8987.032     -5.906  -0.200  2.43350E-01  2.93538E-01 -5.01884E-02
    8987.086     -5.851  -0.160  2.53348E-01  3.06036E-01 -5.26873E-02
    8987.129     -5.809  -0.120  2.61206E-01  3.15906E-01 -5.47005E-02
    8987.160     -5.778  -0.080  2.66838E-01  3.23011E-01 -5.61732E-02
    8987.184     -5.754   0.000  2.71336E-01  3.28715E-01 -5.73797E-02
    8987.239     -5.699   0.120  2.81135E-01  3.41563E-01 -6.04277E-02
    8987.281     -5.656   0.160  2.88756E-01  3.51541E-01 -6.27854E-02
    8987.336     -5.601   0.200  2.98389E-01  3.64258E-01 -6.58689E-02
    8987.403     -5.534   0.240  3.09808E-01  3.79520E-01 -6.97121E-02
    8987.483     -5.455   0.280  3.22654E-01  3.96996E-01 -7.43427E-02
    8987.574     -5.364   0.320  3.36426E-01  4.16212E-01 -7.97857E-02
    8987.678     -5.260   0.360  3.50550E-01  4.36574E-01 -8.60241E-02
    8987.794     -5.144   0.400  3.64464E-01  4.57419E-01 -9.29545E-02
    8987.922     -5.016   0.440  3.77865E-01  4.78217E-01 -1.00352E-01
    8988.062     -4.876   0.480  3.90669E-01  4.98490E-01 -1.07821E-01
    8988.214     -4.724   0.520  4.03072E-01  5.17960E-01 -1.14888E-01
    8988.379     -4.559   0.560  4.15341E-01  5.36521E-01 -1.21179E-01
    8988.556     -4.382   0.600  4.27516E-01  5.54122E-01 -1.26606E-01
    8988.745     -4.193   0.640  4.39549E-01  5.70830E-01 -1.31281E-01
    8988.946     -3.992   0.680  4.51407E-01  5.86753E-01 -1.35345E-01
    8989.159     -3.779   0.720  4.62957E-01  6.01972E-01 -1.39015E-01
    8989.385     -3.553   0.760  4.73720E-01  6.16651E-01 -1.42932E-01
    8989.622     -3.315   0.800  4.82809E-01  6.30844E-01 -1.48035E-01
    8989.872     -3.066   0.840  4.89876E-01  6.44670E-01 -1.54794E-01
    8990.134     -2.803   0.880  4.95714E-01  6.58174E-01 -1.62460E-01
    8990.409     -2.529   0.920  5.02474E-01  6.71447E-01 -1.68973E-01
    8990.695     -2.243   0.960  5.12605E-01  6.84507E-01 -1.71902E-01
    8990.994     -1.944   1.000  5.27490E-01  6.97382E-01 -1.69892E-01
    8991.305     -1.633   1.040  5.47083E-01  7.10128E-01 -1.63045E-01
    8991.628     -1.310   1.080  5.70312E-01  7.22713E-01 -1.52401E-01
    8991.963     -0.975   1.120  5.95063E-01  7.35202E-01 -1.40139E-01
    8992.311     -0.627   1.160  6.18504E-01  7.47529E-01 -1.29024E-01
    8992.670     -0.267   1.200  6.39504E-01  7.59744E-01 -1.20241E-01
    8993.042      0.104   1.240  6.59163E-01  7.71816E-01 -1.12653E-01
    8993.426      0.488   1.280  6.78708E-01  7.83727E-01 -1.05019E-01
    8993.822      0.885   1.320  6.96873E-01  7.95501E-01 -9.86279E-02
    8994.231      1.293   1.360  7.11867E-01  8.07055E-01 -9.51880E-02
    8994.652      1.714   1.400  7.26373E-01  8.18447E-01 -9.20738E-02
    8995.084      2.147   1.440  7.47219E-01  8.29594E-01 -8.23741E-02
    8995.529      2.592   1.480  7.80815E-01  8.40531E-01 -5.97167E-02
    8995.987      3.049   1.520  8.31201E-01  8.51213E-01 -2.00121E-02
    8996.456      3.518   1.560  8.97992E-01  8.61614E-01  3.63783E-02
    8996.938      4.000   1.600  9.66966E-01  8.71748E-01  9.52173E-02
    8997.431      4.493   1.640  1.01377E+00  8.81571E-01  1.32198E-01
    8997.937      4.999   1.680  1.02554E+00  8.91075E-01  1.34465E-01
    8998.455      5.518   1.720  1.02057E+00  9.00257E-01  1.20314E-01
    8998.986      6.048   1.760  1.03109E+00  9.09072E-01  1.22022E-01
    8999.528      6.590   1.800  1.07160E+00  9.17554E-01  1.54046E-01
    9000.083      7.145   1.840  1.13886E+00  9.25662E-01  2.13199E-01
    9000.650      7.712   1.880  1.21865E+00  9.33414E-01  2.85239E-01
    9001.229      8.291   1.920  1.28829E+00  9.40763E-01  3.47526E-01
    9001.820      8.883   1.960  1.32402E+00  9.47751E-01  3.76272E-01
    9002.424      9.486   2.000  1.31783E+00  9.54338E-01  3.63494E-01
    9003.040     10.102   2.040  1.28299E+00  9.60542E-01  3.22444E-01
    9003.667     10.730   2.080  1.23963E+00  9.66364E-01  2.73265E-01
    9004.308     11.370   2.120  1.20146E+00  9.71785E-01  2.29679E-01
    9004.960     12.022   2.160  1.17591E+00  9.76829E-01  1.99083E-01
    9005.624     12.686   2.200  1.16483E+00  9.81497E-01  1.83337E-01
    9006.301     13.363   2.240  1.16462E+00  9.85795E-01  1.78824E-01
    9006.990     14.052   2.280  1.16840E+00  9.89725E-01  1.78680E-01
    9007.691     14.753   2.320  1.16825E+00  9.93312E-01  1.74935E-01
    9008.404     15.466   2.360  1.16011E+00  9.96541E-01  1.63569E-01
    9009.129     16.192   2.400  1.14644E+00  9.99437E-01  1.47000E-01
    9009.867     16.929   2.440  1.13074E+00  1.00201E+00  1.28736E-01
    9010.617     17.679   2.480  1.11312E+00  1.00426E+00  1.08864E-01
    9011.379     18.441   2.520  1.08967E+00  1.00623E+00  8.34398E-02
    9012.153     19.215   2.560  1.05957E+00  1.00790E+00  5.16697E-02
    9012.939     20.002   2.600  1.02662E+00  1.00929E+00  1.73296E-02
    9013.738     20.800   2.640  9.92828E-01  1.01042E+00 -1.75934E-02
    9014.549     21.611   2.680  9.59286E-01  1.01131E+00 -5.20247E-02
    9015.372     22.434   2.720  9.29719E-01  1.01198E+00 -8.22638E-02
    9016.207     23.269   2.760  9.09332E-01  1.01242E+00 -1.03090E-01
    9017.054     24.116   2.800  8.99237E-01  1.01266E+00 -1.13421E-01
    9017.914     24.976   2.840  8.95333E-01  1.01272E+00 -1.17383E-01
    9018.785     25.848   2.880  8.94211E-01  1.01259E+00 -1.18375E-01
    9019.669     26.732   2.920  8.94150E-01  1.01231E+00 -1.18162E-01
    9020.566     27.628   2.960  8.93062E-01  1.01188E+00 -1.18822E-01
    9021.474     28.536   3.000  8.91115E-01  1.01131E+00 -1.20191E-01
    9022.394     29.456   3.040  8.87904E-01  1.01063E+00 -1.22722E-01
    9023.327     30.389   3.080  8.83594E-01  1.00983E+00 -1.26238E-01
    9024.272     31.334   3.120  8.79176E-01  1.00895E+00 -1.29774E-01
    9025.229     32.291   3.160  8.76028E-01  1.00798E+00 -1.31956E-01
    9026.198     33.260   3.200  8.74771E-01  1.00696E+00 -1.32190E-01
    9027.180     34.242   3.240  8.75719E-01  1.00585E+00 -1.30128E-01
    9028.173     35.235   3.280  8.79233E-01  1.00471E+00 -1.25474E-01
    9029.179     36.241   3.320  8.85362E-01  1.00352E+00 -1.18163E-01
    9030.197     37.259   3.360  8.94100E-01  1.00231E+00 -1.08205E-01
    9031.227     38.290   3.400  9.05415E-01  1.00105E+00 -9.56378E-02
    9032.270     39.332   3.440  9.18932E-01  9.99793E-01 -8.08615E-02
    9033.324     40.387   3.480  9.33965E-01  9.98552E-01 -6.45877E-02
    9034.391     41.453   3.520  9.49985E-01  9.97289E-01 -4.73049E-02
    9035.470     42.532   3.560  9.66505E-01  9.96030E-01 -2.95253E-02
    9036.561     43.624   3.600  9.82868E-01  9.94800E-01 -1.19313E-02
    9037.665     44.727   3.640  9.98377E-01  9.93601E-01  4.77579E-03
    9038.780     45.842   3.680  1.01238E+00  9.92437E-01  1.99431E-02
    9039.908     46.970   3.720  1.02435E+00  9.91286E-01  3.30603E-02
    9041.048     48.110   3.760  1.03411E+00  9.90172E-01  4.39346E-02
    9042.200     49.262   3.800  1.04164E+00  9.89100E-01  5.25426E-02
    9043.364     50.427   3.840  1.04697E+00  9.88091E-01  5.88832E-02
    9044.541     51.603   3.880  1.05027E+00  9.87127E-01  6.31460E-02
    9045.730     52.792   3.920  1.05191E+00  9.86208E-01  6.57060E-02
    9046.931     53.993   3.960  1.05234E+00  9.85357E-01  6.69876E-02
    9048.144     55.206   4.000  1.05183E+00  9.84552E-01  6.72741E-02
    9049.369     56.431   4.040  1.05056E+00  9.83794E-01  6.67658E-02
    9050.606     57.669   4.080  1.04860E+00  9.83108E-01  6.54920E-02
    9051.856     58.918   4.120  1.04595E+00  9.82494E-01  6.34585E-02
    9053.118     60.180   4.160  1.04271E+00  9.81930E-01  6.07832E-02
    9054.392     61.454   4.200  1.03913E+00  9.81439E-01  5.76949E-02
    9055.678     62.741   4.240  1.03541E+00  9.81020E-01  5.43897E-02
    9056.977     64.039   4.280  1.03160E+00  9.80652E-01  5.09485E-02
    9058.287     65.350   4.320  1.02766E+00  9.80354E-01  4.73031E-02
    9059.610     66.672   4.360  1.02331E+00  9.80105E-01  4.32011E-02
    9060.945     68.007   4.400  1.01832E+00  9.79925E-01  3.83963E-02
    9062.292     69.355   4.440  1.01263E+00  9.79794E-01  3.28363E-02
    9063.652     70.714   4.480  1.00640E+00  9.79710E-01  2.66866E-02
    9065.023     72.086   4.520  9.99987E-01  9.79717E-01  2.02697E-02
    9066.407     73.469   4.560  9.93714E-01  9.79750E-01  1.39643E-02
    9067.803     74.865   4.600  9.87942E-01  9.79848E-01  8.09482E-03
    9069.211     76.274   4.640  9.82892E-01  9.79989E-01  2.90268E-03
    9070.632     77.694   4.680  9.78737E-01  9.80172E-01 -1.43556E-03
    9072.064     79.126   4.720  9.75546E-01  9.80398E-01 -4.85254E-03
    9073.509     80.571   4.760  9.73275E-01  9.80686E-01 -7.41099E-03
    9074.966     82.028   4.800  9.71741E-01  9.80990E-01 -9.24911E-03
    9076.435     83.497   4.840  9.70770E-01  9.81330E-01 -1.05598E-02
    9077.916     84.979   4.880  9.70154E-01  9.81705E-01 -1.15508E-02
    9079.410     86.472   4.920  9.69667E-01  9.82092E-01 -1.24248E-02
    9080.916     87.978   4.960  9.69118E-01  9.82533E-01 -1.34153E-02
    9082.434     89.496   5.000  9.68201E-01  9.82962E-01 -1.47618E-02
    9083.964     91.026   5.040  9.66731E-01  9.83420E-01 -1.66890E-02
    9085.506     92.568   5.080  9.64557E-01  9.83907E-01 -1.93494E-02
    9087.060     94.123   5.120  9.61669E-01  9.84396E-01 -2.27267E-02
    9088.627     95.689   5.160  9.58226E-01  9.84864E-01 -2.66372E-02
    9090.206     97.268   5.200  9.54652E-01  9.85354E-01 -3.07011E-02
    9091.797     98.859   5.240  9.51425E-01  9.85844E-01 -3.44185E-02
    9093.400    100.462   5.280  9.49067E-01  9.86331E-01 -3.72639E-02
    9095.016    102.078   5.320  9.47992E-01  9.86790E-01 -3.87986E-02
    9096.643    103.705   5.360  9.48483E-01  9.87243E-01 -3.87608E-02
    9098.283    105.345   5.400  9.50600E-01  9.87690E-01 -3.70902E-02
    9099.935    106.997   5.440  9.54114E-01  9.88105E-01 -3.39911E-02
    9101.599    108.661   5.480  9.58600E-01  9.88510E-01 -2.99099E-02
    9103.276    110.338   5.520  9.63467E-01  9.88880E-01 -2.54132E-02
    9104.964    112.026   5.560  9.68227E-01  9.89216E-01 -2.09889E-02
    9106.665    113.727   5.600  9.72645E-01  9.89539E-01 -1.68949E-02
    9108.378    115.440   5.640  9.76679E-01  9.89826E-01 -1.31469E-02
    9110.103    117.165   5.680  9.80419E-01  9.90073E-01 -9.65399E-03
    9111.841    118.903   5.720  9.83878E-01  9.90278E-01 -6.39981E-03
    9113.590    120.652   5.760  9.86936E-01  9.90420E-01 -3.48344E-03
    9115.352    122.414   5.800  9.89525E-01  9.90544E-01 -1.01966E-03
    9117.126    124.188   5.840  9.91614E-01  9.90630E-01  9.83913E-04
    9118.912    125.974   5.880  9.93330E-01  9.90675E-01  2.65585E-03
    9120.710    127.772   5.920  9.94859E-01  9.90653E-01  4.20615E-03
    9122.521    129.583   5.960  9.96426E-01  9.90608E-01  5.81742E-03
    9124.343    131.406   6.000  9.98059E-01  9.90467E-01  7.59189E-03
