# # comment:                                                     FEFF 9.9.1  
# # Source:
# # Structure
# # Reduced
# # space
# # abc:
# # angles:
# # sites:
# # POT  SCF 100  7.0000   0, screened core-hole, AFOLP (folp(0)= 1.150)
# # Abs   Z=29 Rmt= 1.276 Rnm= 1.347 K  shell
# # Pot 1 Z= 3 Rmt= 1.260 Rnm= 1.363
# # Pot 2 Z=29 Rmt= 1.276 Rnm= 1.347
# # Pot 3 Z=15 Rmt= 0.936 Rnm= 1.152
# # Pot 4 Z= 8 Rmt= 0.865 Rnm= 1.037
# # Gam_ch=1.729E+00 H-L exch Vi= 0.000E+00 Vr= 0.000E+00
# # Mu=-6.612E+00eV kf=2.499E+00 Vint=-1.733E+01eV Rs_int= 1.451
# FMS rfms= 9.0000
# # PATH  Rmax=-1.000,  Keep_limit= 0.00, Heap_limit 0.00  Pwcrit= 2.50%
#  S02=0.950  Temp=   0.00  Debye_temp=   0.00  Global_sig2= 0.00000
#  Energy zero shift, vr, vi    0.00000E+00   0.00000E+00
#  Curved wave amplitude ratio filter   4.000%
#     file         sig2 tot  cw amp ratio   deg  nlegs   reff  inp sig2
#     0/   0 paths used
#  xsedge+ 50, used to normalize mu           2.4926E-04
#  -----------------------------------------------------------------------
#  omega    e    k    mu    mu0     chi     @#
    8983.276    -10.422  -1.000  4.14260E-02  5.14481E-02 -1.00221E-02
    8983.575    -10.123  -0.960  4.37809E-02  5.51631E-02 -1.13822E-02
    8983.861     -9.836  -0.920  4.63241E-02  5.92922E-02 -1.29681E-02
    8984.136     -9.562  -0.880  4.90748E-02  6.38970E-02 -1.48222E-02
    8984.398     -9.300  -0.840  5.20536E-02  6.90489E-02 -1.69953E-02
    8984.648     -9.050  -0.800  5.52834E-02  7.48307E-02 -1.95473E-02
    8984.885     -8.812  -0.760  5.87887E-02  8.13378E-02 -2.25492E-02
    8985.111     -8.587  -0.720  6.25951E-02  8.86778E-02 -2.60828E-02
    8985.324     -8.373  -0.680  6.67288E-02  9.69695E-02 -3.02406E-02
    8985.525     -8.172  -0.640  7.12150E-02  1.06338E-01 -3.51232E-02
    8985.714     -7.983  -0.600  7.60751E-02  1.16907E-01 -4.08322E-02
    8985.891     -7.807  -0.560  8.13228E-02  1.28782E-01 -4.74594E-02
    8986.056     -7.642  -0.520  8.69585E-02  1.42026E-01 -5.50673E-02
    8986.208     -7.490  -0.480  9.29620E-02  1.56625E-01 -6.36628E-02
    8986.348     -7.349  -0.440  9.92836E-02  1.72451E-01 -7.31672E-02
    8986.476     -7.221  -0.400  1.05837E-01  1.89227E-01 -8.33898E-02
    8986.592     -7.105  -0.360  1.12497E-01  2.06518E-01 -9.40208E-02
    8986.696     -7.002  -0.320  1.19103E-01  2.23759E-01 -1.04655E-01
    8986.787     -6.910  -0.280  1.25472E-01  2.40321E-01 -1.14849E-01
    8986.867     -6.831  -0.240  1.31416E-01  2.55604E-01 -1.24188E-01
    8986.934     -6.764  -0.200  1.36757E-01  2.69103E-01 -1.32346E-01
    8986.988     -6.709  -0.160  1.41343E-01  2.80453E-01 -1.39110E-01
    8987.031     -6.667  -0.120  1.45048E-01  2.89420E-01 -1.44371E-01
    8987.062     -6.636  -0.080  1.47777E-01  2.95877E-01 -1.48100E-01
    8987.086     -6.612   0.000  1.50040E-01  3.01062E-01 -1.51021E-01
    8987.141     -6.557   0.120  1.55175E-01  3.12754E-01 -1.57580E-01
    8987.184     -6.514   0.160  1.59205E-01  3.21830E-01 -1.62625E-01
    8987.238     -6.459   0.200  1.64493E-01  3.33417E-01 -1.68923E-01
    8987.305     -6.392   0.240  1.71120E-01  3.47327E-01 -1.76207E-01
    8987.385     -6.313   0.280  1.79177E-01  3.63269E-01 -1.84092E-01
    8987.476     -6.222   0.320  1.88827E-01  3.80840E-01 -1.92014E-01
    8987.580     -6.118   0.360  2.00151E-01  3.99478E-01 -1.99327E-01
    8987.696     -6.002   0.400  2.13397E-01  4.18667E-01 -2.05270E-01
    8987.824     -5.874   0.440  2.28760E-01  4.37861E-01 -2.09100E-01
    8987.964     -5.734   0.480  2.46554E-01  4.56670E-01 -2.10115E-01
    8988.116     -5.582   0.520  2.67191E-01  4.74847E-01 -2.07656E-01
    8988.281     -5.417   0.560  2.91172E-01  4.92280E-01 -2.01108E-01
    8988.458     -5.240   0.600  3.18972E-01  5.08942E-01 -1.89970E-01
    8988.647     -5.051   0.640  3.50927E-01  5.24892E-01 -1.73965E-01
    8988.848     -4.850   0.680  3.86956E-01  5.40226E-01 -1.53270E-01
    8989.061     -4.637   0.720  4.26159E-01  5.55014E-01 -1.28855E-01
    8989.287     -4.411   0.760  4.66230E-01  5.69385E-01 -1.03155E-01
    8989.524     -4.173   0.800  5.02907E-01  5.83420E-01 -8.05133E-02
    8989.774     -3.923   0.840  5.30944E-01  5.97208E-01 -6.62641E-02
    8990.036     -3.661   0.880  5.46760E-01  6.10782E-01 -6.40220E-02
    8990.311     -3.387   0.920  5.50940E-01  6.24205E-01 -7.32658E-02
    8990.597     -3.100   0.960  5.47622E-01  6.37530E-01 -8.99087E-02
    8990.896     -2.802   1.000  5.41713E-01  6.50777E-01 -1.09063E-01
    8991.207     -2.491   1.040  5.36552E-01  6.63955E-01 -1.27403E-01
    8991.530     -2.168   1.080  5.33579E-01  6.77091E-01 -1.43512E-01
    8991.865     -1.832   1.120  5.34099E-01  6.90162E-01 -1.56063E-01
    8992.213     -1.485   1.160  5.41089E-01  7.03179E-01 -1.62090E-01
    8992.572     -1.125   1.200  5.57478E-01  7.16131E-01 -1.58653E-01
    8992.944     -0.753   1.240  5.83063E-01  7.29000E-01 -1.45937E-01
    8993.328     -0.369   1.280  6.14314E-01  7.41788E-01 -1.27475E-01
    8993.725      0.027   1.320  6.45917E-01  7.54476E-01 -1.08559E-01
    8994.133      0.435   1.360  6.73550E-01  7.67017E-01 -9.34667E-02
    8994.554      0.856   1.400  6.97961E-01  7.79428E-01 -8.14666E-02
    8994.986      1.289   1.440  7.24344E-01  7.91663E-01 -6.73181E-02
    8995.431      1.734   1.480  7.58597E-01  8.03714E-01 -4.51171E-02
    8995.889      2.191   1.520  8.05507E-01  8.15554E-01 -1.00465E-02
    8996.358      2.660   1.560  8.65714E-01  8.27175E-01  3.85390E-02
    8996.840      3.142   1.600  9.30565E-01  8.38527E-01  9.20378E-02
    8997.333      3.636   1.640  9.82885E-01  8.49603E-01  1.33282E-01
    8997.839      4.142   1.680  1.01209E+00  8.60374E-01  1.51711E-01
    8998.357      4.660   1.720  1.02585E+00  8.70834E-01  1.55020E-01
    8998.888      5.190   1.760  1.04001E+00  8.80975E-01  1.59034E-01
    8999.430      5.733   1.800  1.06435E+00  8.90750E-01  1.73605E-01
    8999.985      6.287   1.840  1.09911E+00  9.00172E-01  1.98935E-01
    9000.552      6.854   1.880  1.13590E+00  9.09217E-01  2.26686E-01
    9001.131      7.433   1.920  1.16683E+00  9.17881E-01  2.48951E-01
    9001.722      8.025   1.960  1.18895E+00  9.26159E-01  2.62788E-01
    9002.326      8.628   2.000  1.19927E+00  9.34008E-01  2.65258E-01
    9002.942      9.244   2.040  1.19537E+00  9.41465E-01  2.53904E-01
    9003.570      9.872   2.080  1.17970E+00  9.48512E-01  2.31192E-01
    9004.210     10.512   2.120  1.15882E+00  9.55146E-01  2.03673E-01
    9004.862     11.164   2.160  1.13909E+00  9.61367E-01  1.77726E-01
    9005.526     11.829   2.200  1.12303E+00  9.67178E-01  1.55852E-01
    9006.203     12.505   2.240  1.11078E+00  9.72580E-01  1.38202E-01
    9006.892     13.194   2.280  1.10294E+00  9.77574E-01  1.25368E-01
    9007.593     13.895   2.320  1.10042E+00  9.82167E-01  1.18258E-01
    9008.306     14.608   2.360  1.10396E+00  9.86381E-01  1.17574E-01
    9009.031     15.334   2.400  1.11131E+00  9.90222E-01  1.21088E-01
    9009.769     16.071   2.440  1.11801E+00  9.93673E-01  1.24337E-01
    9010.519     16.821   2.480  1.12077E+00  9.96780E-01  1.23985E-01
    9011.281     17.583   2.520  1.11769E+00  9.99530E-01  1.18160E-01
    9012.055     18.357   2.560  1.10784E+00  1.00195E+00  1.05889E-01
    9012.841     19.144   2.600  1.09205E+00  1.00405E+00  8.79999E-02
    9013.640     19.942   2.640  1.07066E+00  1.00583E+00  6.48324E-02
    9014.451     20.753   2.680  1.04329E+00  1.00734E+00  3.59502E-02
    9015.274     21.576   2.720  1.01055E+00  1.00855E+00  2.00210E-03
    9016.109     22.411   2.760  9.74873E-01  1.00950E+00 -3.46300E-02
    9016.956     23.259   2.800  9.41052E-01  1.01021E+00 -6.91603E-02
    9017.816     24.118   2.840  9.15972E-01  1.01068E+00 -9.47111E-02
    9018.688     24.990   2.880  9.07726E-01  1.01095E+00 -1.03220E-01
    9019.571     25.874   2.920  9.13716E-01  1.01101E+00 -9.72896E-02
    9020.468     26.770   2.960  9.20831E-01  1.01089E+00 -9.00592E-02
    9021.376     27.678   3.000  9.25257E-01  1.01059E+00 -8.53305E-02
    9022.296     28.599   3.040  9.26674E-01  1.01015E+00 -8.34727E-02
    9023.229     29.531   3.080  9.25355E-01  1.00955E+00 -8.41969E-02
    9024.174     30.476   3.120  9.21632E-01  1.00883E+00 -8.71979E-02
    9025.131     31.433   3.160  9.16187E-01  1.00799E+00 -9.18026E-02
    9026.100     32.403   3.200  9.09770E-01  1.00704E+00 -9.72669E-02
    9027.082     33.384   3.240  9.03385E-01  1.00602E+00 -1.02634E-01
    9028.075     34.378   3.280  8.97919E-01  1.00492E+00 -1.07003E-01
    9029.081     35.383   3.320  8.93985E-01  1.00375E+00 -1.09767E-01
    9030.099     36.401   3.360  8.92042E-01  1.00253E+00 -1.10492E-01
    9031.129     37.432   3.400  8.92544E-01  1.00127E+00 -1.08731E-01
    9032.172     38.474   3.440  8.95709E-01  9.99975E-01 -1.04266E-01
    9033.226     39.529   3.480  9.01394E-01  9.98645E-01 -9.72511E-02
    9034.293     40.596   3.520  9.09386E-01  9.97328E-01 -8.79422E-02
    9035.372     41.674   3.560  9.19305E-01  9.95988E-01 -7.66832E-02
    9036.463     42.766   3.600  9.30643E-01  9.94671E-01 -6.40278E-02
    9037.567     43.869   3.640  9.42816E-01  9.93358E-01 -5.05412E-02
    9038.682     44.985   3.680  9.55280E-01  9.92051E-01 -3.67716E-02
    9039.810     46.112   3.720  9.67526E-01  9.90776E-01 -2.32499E-02
    9040.950     47.252   3.760  9.79196E-01  9.89536E-01 -1.03396E-02
    9042.102     48.404   3.800  9.90188E-01  9.88313E-01  1.87555E-03
    9043.266     49.569   3.840  1.00053E+00  9.87150E-01  1.33779E-02
    9044.443     50.745   3.880  1.01021E+00  9.86033E-01  2.41780E-02
    9045.632     51.934   3.920  1.01926E+00  9.84982E-01  3.42740E-02
    9046.833     53.135   3.960  1.02759E+00  9.83976E-01  4.36091E-02
    9048.046     54.348   4.000  1.03505E+00  9.83018E-01  5.20291E-02
    9049.271     55.573   4.040  1.04156E+00  9.82127E-01  5.94312E-02
    9050.509     56.811   4.080  1.04700E+00  9.81287E-01  6.57161E-02
    9051.758     58.060   4.120  1.05125E+00  9.80520E-01  7.07346E-02
    9053.020     59.322   4.160  1.05415E+00  9.79825E-01  7.43298E-02
    9054.294     60.596   4.200  1.05553E+00  9.79181E-01  7.63463E-02
    9055.580     61.883   4.240  1.05521E+00  9.78611E-01  7.65988E-02
    9056.879     63.181   4.280  1.05308E+00  9.78114E-01  7.49607E-02
    9058.189     64.492   4.320  1.04919E+00  9.77670E-01  7.15208E-02
    9059.512     65.815   4.360  1.04377E+00  9.77300E-01  6.64738E-02
    9060.847     67.150   4.400  1.03715E+00  9.77005E-01  6.01412E-02
    9062.194     68.497   4.440  1.02974E+00  9.76783E-01  5.29555E-02
    9063.554     69.856   4.480  1.02196E+00  9.76613E-01  4.53452E-02
    9064.925     71.228   4.520  1.01422E+00  9.76516E-01  3.77061E-02
    9066.309     72.612   4.560  1.00687E+00  9.76491E-01  3.03844E-02
    9067.705     74.008   4.600  1.00014E+00  9.76513E-01  2.36262E-02
    9069.113     75.416   4.640  9.94140E-01  9.76582E-01  1.75578E-02
    9070.534     76.836   4.680  9.88931E-01  9.76718E-01  1.22123E-02
    9071.966     78.269   4.720  9.84412E-01  9.76900E-01  7.51208E-03
    9073.411     79.713   4.760  9.80390E-01  9.77127E-01  3.26319E-03
    9074.868     81.170   4.800  9.76625E-01  9.77418E-01 -7.92976E-04
    9076.337     82.639   4.840  9.72823E-01  9.77749E-01 -4.92693E-03
    9077.818     84.121   4.880  9.68811E-01  9.78100E-01 -9.28838E-03
    9079.312     85.614   4.920  9.64717E-01  9.78508E-01 -1.37911E-02
    9080.818     87.120   4.960  9.60801E-01  9.78931E-01 -1.81298E-02
    9082.336     88.638   5.000  9.57518E-01  9.79389E-01 -2.18713E-02
    9083.866     90.168   5.040  9.55273E-01  9.79881E-01 -2.46084E-02
    9085.408     91.710   5.080  9.54301E-01  9.80404E-01 -2.61037E-02
    9086.962     93.265   5.120  9.54543E-01  9.80912E-01 -2.63691E-02
    9088.529     94.831   5.160  9.55724E-01  9.81447E-01 -2.57224E-02
    9090.108     96.410   5.200  9.57357E-01  9.82007E-01 -2.46502E-02
    9091.699     98.001   5.240  9.58891E-01  9.82546E-01 -2.36557E-02
    9093.302     99.605   5.280  9.59975E-01  9.83086E-01 -2.31117E-02
    9094.918    101.220   5.320  9.60449E-01  9.83647E-01 -2.31981E-02
    9096.545    102.848   5.360  9.60280E-01  9.84181E-01 -2.39006E-02
    9098.185    104.487   5.400  9.59680E-01  9.84708E-01 -2.50278E-02
    9099.837    106.139   5.440  9.58908E-01  9.85207E-01 -2.62991E-02
    9101.501    107.804   5.480  9.58273E-01  9.85697E-01 -2.74241E-02
    9103.178    109.480   5.520  9.58049E-01  9.86176E-01 -2.81271E-02
    9104.866    111.169   5.560  9.58424E-01  9.86600E-01 -2.81769E-02
    9106.567    112.869   5.600  9.59577E-01  9.87033E-01 -2.74558E-02
    9108.280    114.582   5.640  9.61365E-01  9.87407E-01 -2.60426E-02
    9110.005    116.308   5.680  9.63545E-01  9.87743E-01 -2.41974E-02
    9111.743    118.045   5.720  9.65810E-01  9.88062E-01 -2.22515E-02
    9113.492    119.794   5.760  9.67871E-01  9.88318E-01 -2.04478E-02
    9115.254    121.556   5.800  9.69724E-01  9.88555E-01 -1.88313E-02
    9117.028    123.330   5.840  9.71484E-01  9.88728E-01 -1.72447E-02
    9118.814    125.116   5.880  9.73423E-01  9.88858E-01 -1.54353E-02
    9120.612    126.915   5.920  9.75741E-01  9.88943E-01 -1.32023E-02
    9122.423    128.725   5.960  9.78482E-01  9.88979E-01 -1.04963E-02
    9124.245    130.548   6.000  9.81592E-01  9.88914E-01 -7.32214E-03
