# # comment:                                                     FEFF 9.9.1  
# # Source:
# # Structure
# # Reduced
# # space
# # abc:
# # angles:
# # sites:
# # POT  SCF 100  7.0000   0, screened core-hole, AFOLP (folp(0)= 1.150)
# # Abs   Z=29 Rmt= 1.220 Rnm= 1.324 K  shell
# # Pot 1 Z=29 Rmt= 1.220 Rnm= 1.324
# # Pot 2 Z=42 Rmt= 1.188 Rnm= 1.370
# # Pot 3 Z= 8 Rmt= 0.925 Rnm= 1.073
# # Gam_ch=1.729E+00 H-L exch Vi= 0.000E+00 Vr= 0.000E+00
# # Mu=-5.960E+00eV kf=2.332E+00 Vint=-1.600E+01eV Rs_int= 1.555
# FMS rfms= 9.0000
# # PATH  Rmax=-1.000,  Keep_limit= 0.00, Heap_limit 0.00  Pwcrit= 2.50%
#  S02=0.950  Temp=   0.00  Debye_temp=   0.00  Global_sig2= 0.00000
#  Energy zero shift, vr, vi    0.00000E+00   0.00000E+00
#  Curved wave amplitude ratio filter   4.000%
#     file         sig2 tot  cw amp ratio   deg  nlegs   reff  inp sig2
#     0/   0 paths used
#  xsedge+ 50, used to normalize mu           2.4616E-04
#  -----------------------------------------------------------------------
#  omega    e    k    mu    mu0     chi     @#
    8983.385     -9.770  -1.000  4.32071E-02  5.70996E-02 -1.38925E-02
    8983.684     -9.471  -0.960  4.58003E-02  6.13540E-02 -1.55537E-02
    8983.970     -9.185  -0.920  4.86384E-02  6.60912E-02 -1.74528E-02
    8984.244     -8.910  -0.880  5.17549E-02  7.13829E-02 -1.96280E-02
    8984.507     -8.648  -0.840  5.51892E-02  7.73132E-02 -2.21240E-02
    8984.756     -8.398  -0.800  5.89868E-02  8.39793E-02 -2.49925E-02
    8984.994     -8.160  -0.760  6.32001E-02  9.14928E-02 -2.82927E-02
    8985.220     -7.935  -0.720  6.78883E-02  9.99802E-02 -3.20918E-02
    8985.433     -7.721  -0.680  7.31171E-02  1.09581E-01 -3.64636E-02
    8985.634     -7.520  -0.640  7.89555E-02  1.20442E-01 -4.14863E-02
    8985.823     -7.331  -0.600  8.54716E-02  1.32708E-01 -4.72366E-02
    8986.000     -7.155  -0.560  9.27230E-02  1.46504E-01 -5.37810E-02
    8986.165     -6.990  -0.520  1.00743E-01  1.61904E-01 -6.11604E-02
    8986.317     -6.838  -0.480  1.09522E-01  1.78892E-01 -6.93700E-02
    8986.457     -6.697  -0.440  1.18984E-01  1.97320E-01 -7.83362E-02
    8986.585     -6.569  -0.400  1.28967E-01  2.16864E-01 -8.78965E-02
    8986.701     -6.454  -0.360  1.39221E-01  2.37015E-01 -9.77942E-02
    8986.805     -6.350  -0.320  1.49417E-01  2.57112E-01 -1.07695E-01
    8986.896     -6.258  -0.280  1.59193E-01  2.76422E-01 -1.17229E-01
    8986.975     -6.179  -0.240  1.68201E-01  2.94240E-01 -1.26040E-01
    8987.042     -6.112  -0.200  1.76148E-01  3.09980E-01 -1.33831E-01
    8987.097     -6.057  -0.160  1.82824E-01  3.23212E-01 -1.40388E-01
    8987.140     -6.015  -0.120  1.88092E-01  3.33666E-01 -1.45573E-01
    8987.170     -5.984  -0.080  1.91880E-01  3.41193E-01 -1.49313E-01
    8987.195     -5.960   0.000  1.94909E-01  3.47237E-01 -1.52329E-01
    8987.250     -5.905   0.120  2.01736E-01  3.60844E-01 -1.59108E-01
    8987.292     -5.862   0.160  2.07038E-01  3.71421E-01 -1.64383E-01
    8987.347     -5.807   0.200  2.13786E-01  3.84923E-01 -1.71137E-01
    8987.414     -5.740   0.240  2.21831E-01  4.01111E-01 -1.79280E-01
    8987.494     -5.661   0.280  2.30985E-01  4.19684E-01 -1.88699E-01
    8987.585     -5.570   0.320  2.40906E-01  4.40105E-01 -1.99199E-01
    8987.689     -5.466   0.360  2.51182E-01  4.61758E-01 -2.10576E-01
    8987.804     -5.350   0.400  2.61360E-01  4.84012E-01 -2.22653E-01
    8987.932     -5.222   0.440  2.70985E-01  5.06233E-01 -2.35248E-01
    8988.073     -5.082   0.480  2.79759E-01  5.27959E-01 -2.48200E-01
    8988.225     -4.930   0.520  2.87699E-01  5.48877E-01 -2.61178E-01
    8988.390     -4.765   0.560  2.95230E-01  5.68852E-01 -2.73623E-01
    8988.566     -4.588   0.600  3.03187E-01  5.87872E-01 -2.84685E-01
    8988.755     -4.399   0.640  3.12419E-01  6.05961E-01 -2.93541E-01
    8988.957     -4.198   0.680  3.23737E-01  6.23227E-01 -2.99491E-01
    8989.170     -3.985   0.720  3.37956E-01  6.39775E-01 -3.01819E-01
    8989.395     -3.759   0.760  3.56019E-01  6.55706E-01 -2.99686E-01
    8989.633     -3.521   0.800  3.78669E-01  6.71112E-01 -2.92444E-01
    8989.883     -3.271   0.840  4.05465E-01  6.86093E-01 -2.80628E-01
    8990.145     -3.009   0.880  4.33922E-01  7.00712E-01 -2.66790E-01
    8990.420     -2.735   0.920  4.60145E-01  7.14997E-01 -2.54852E-01
    8990.706     -2.448   0.960  4.81588E-01  7.28983E-01 -2.47395E-01
    8991.005     -2.150   1.000  4.99763E-01  7.42712E-01 -2.42949E-01
    8991.316     -1.839   1.040  5.19449E-01  7.56198E-01 -2.36750E-01
    8991.639     -1.516   1.080  5.44332E-01  7.69428E-01 -2.25096E-01
    8991.974     -1.181   1.120  5.74400E-01  7.82418E-01 -2.08018E-01
    8992.322     -0.833   1.160  6.08809E-01  7.95161E-01 -1.86351E-01
    8992.681     -0.473   1.200  6.47104E-01  8.07645E-01 -1.60540E-01
    8993.053     -0.102   1.240  6.84956E-01  8.19833E-01 -1.34877E-01
    8993.437      0.283   1.280  7.14530E-01  8.31728E-01 -1.17198E-01
    8993.833      0.679   1.320  7.32647E-01  8.43310E-01 -1.10663E-01
    8994.242      1.087   1.360  7.43121E-01  8.54577E-01 -1.11456E-01
    8994.662      1.508   1.400  7.49868E-01  8.65506E-01 -1.15637E-01
    8995.095      1.941   1.440  7.54236E-01  8.76054E-01 -1.21818E-01
    8995.540      2.386   1.480  7.56938E-01  8.86238E-01 -1.29300E-01
    8995.997      2.843   1.520  7.60935E-01  8.96013E-01 -1.35078E-01
    8996.467      3.312   1.560  7.73905E-01  9.05398E-01 -1.31493E-01
    8996.948      3.794   1.600  8.03150E-01  9.14369E-01 -1.11219E-01
    8997.442      4.288   1.640  8.51227E-01  9.22904E-01 -7.16766E-02
    8997.948      4.794   1.680  9.14528E-01  9.31023E-01 -1.64951E-02
    8998.466      5.312   1.720  9.81163E-01  9.38685E-01  4.24785E-02
    8998.997      5.842   1.760  1.04107E+00  9.45931E-01  9.51400E-02
    8999.539      6.385   1.800  1.09808E+00  9.52742E-01  1.45340E-01
    9000.094      6.939   1.840  1.15986E+00  9.59099E-01  2.00758E-01
    9000.661      7.506   1.880  1.22151E+00  9.65048E-01  2.56458E-01
    9001.240      8.085   1.920  1.27236E+00  9.70550E-01  3.01810E-01
    9001.831      8.677   1.960  1.31206E+00  9.75652E-01  3.36407E-01
    9002.435      9.280   2.000  1.34565E+00  9.80317E-01  3.65336E-01
    9003.050      9.896   2.040  1.37416E+00  9.84613E-01  3.89544E-01
    9003.678     10.524   2.080  1.39324E+00  9.88506E-01  4.04738E-01
    9004.318     11.164   2.120  1.38953E+00  9.92022E-01  3.97504E-01
    9004.971     11.816   2.160  1.35144E+00  9.95191E-01  3.56246E-01
    9005.635     12.481   2.200  1.29252E+00  9.98019E-01  2.94496E-01
    9006.312     13.157   2.240  1.24229E+00  1.00049E+00  2.41801E-01
    9007.001     13.846   2.280  1.22457E+00  1.00267E+00  2.21904E-01
    9007.702     14.547   2.320  1.24053E+00  1.00454E+00  2.35986E-01
    9008.415     15.260   2.360  1.26219E+00  1.00613E+00  2.56054E-01
    9009.140     15.986   2.400  1.25593E+00  1.00747E+00  2.48463E-01
    9009.878     16.723   2.440  1.21002E+00  1.00855E+00  2.01474E-01
    9010.628     17.473   2.480  1.13920E+00  1.00941E+00  1.29783E-01
    9011.390     18.235   2.520  1.07089E+00  1.01005E+00  6.08475E-02
    9012.164     19.009   2.560  1.02133E+00  1.01050E+00  1.08369E-02
    9012.950     19.796   2.600  9.90129E-01  1.01075E+00 -2.06232E-02
    9013.749     20.594   2.640  9.73772E-01  1.01084E+00 -3.70669E-02
    9014.560     21.405   2.680  9.69517E-01  1.01079E+00 -4.12707E-02
    9015.383     22.228   2.720  9.70207E-01  1.01059E+00 -4.03783E-02
    9016.218     23.063   2.760  9.68798E-01  1.01028E+00 -4.14811E-02
    9017.065     23.911   2.800  9.61626E-01  1.00986E+00 -4.82292E-02
    9017.925     24.770   2.840  9.49627E-01  1.00932E+00 -5.96941E-02
    9018.796     25.642   2.880  9.35350E-01  1.00872E+00 -7.33742E-02
    9019.680     26.526   2.920  9.21389E-01  1.00805E+00 -8.66620E-02
    9020.576     27.422   2.960  9.09509E-01  1.00733E+00 -9.78171E-02
    9021.485     28.330   3.000  9.00525E-01  1.00655E+00 -1.06029E-01
    9022.405     29.251   3.040  8.94247E-01  1.00572E+00 -1.11476E-01
    9023.338     30.183   3.080  8.90248E-01  1.00490E+00 -1.14647E-01
    9024.283     31.128   3.120  8.88055E-01  1.00402E+00 -1.15961E-01
    9025.240     32.085   3.160  8.87150E-01  1.00315E+00 -1.15999E-01
    9026.209     33.054   3.200  8.87306E-01  1.00226E+00 -1.14954E-01
    9027.191     34.036   3.240  8.88548E-01  1.00139E+00 -1.12845E-01
    9028.184     35.030   3.280  8.90435E-01  1.00053E+00 -1.10094E-01
    9029.190     36.035   3.320  8.92639E-01  9.99672E-01 -1.07033E-01
    9030.208     37.053   3.360  8.95320E-01  9.98846E-01 -1.03526E-01
    9031.238     38.084   3.400  8.98917E-01  9.98052E-01 -9.91349E-02
    9032.281     39.126   3.440  9.03658E-01  9.97295E-01 -9.36372E-02
    9033.335     40.181   3.480  9.09551E-01  9.96554E-01 -8.70025E-02
    9034.402     41.247   3.520  9.16360E-01  9.95872E-01 -7.95113E-02
    9035.481     42.326   3.560  9.23624E-01  9.95209E-01 -7.15851E-02
    9036.572     43.418   3.600  9.31107E-01  9.94610E-01 -6.35028E-02
    9037.676     44.521   3.640  9.38809E-01  9.94055E-01 -5.52455E-02
    9038.791     45.637   3.680  9.46991E-01  9.93544E-01 -4.65524E-02
    9039.919     46.764   3.720  9.56056E-01  9.93098E-01 -3.70417E-02
    9041.059     47.904   3.760  9.66514E-01  9.92697E-01 -2.61837E-02
    9042.211     49.056   3.800  9.78625E-01  9.92341E-01 -1.37160E-02
    9043.375     50.221   3.840  9.92226E-01  9.92030E-01  1.96454E-04
    9044.552     51.397   3.880  1.00666E+00  9.91786E-01  1.48748E-02
    9045.741     52.586   3.920  1.02083E+00  9.91589E-01  2.92409E-02
    9046.941     53.787   3.960  1.03351E+00  9.91461E-01  4.20490E-02
    9048.155     55.000   4.000  1.04374E+00  9.91377E-01  5.23623E-02
    9049.380     56.225   4.040  1.05103E+00  9.91336E-01  5.96994E-02
    9050.617     57.463   4.080  1.05523E+00  9.91337E-01  6.38887E-02
    9051.867     58.712   4.120  1.05637E+00  9.91382E-01  6.49834E-02
    9053.129     59.974   4.160  1.05485E+00  9.91492E-01  6.33560E-02
    9054.403     61.248   4.200  1.05120E+00  9.91644E-01  5.95559E-02
    9055.689     62.535   4.240  1.04616E+00  9.91836E-01  5.43195E-02
    9056.988     63.833   4.280  1.04051E+00  9.92046E-01  4.84625E-02
    9058.298     65.144   4.320  1.03510E+00  9.92316E-01  4.27887E-02
    9059.621     66.467   4.360  1.03062E+00  9.92624E-01  3.79948E-02
    9060.956     67.802   4.400  1.02752E+00  9.92947E-01  3.45745E-02
    9062.303     69.149   4.440  1.02607E+00  9.93324E-01  3.27408E-02
    9063.663     70.508   4.480  1.02604E+00  9.93692E-01  3.23497E-02
    9065.034     71.880   4.520  1.02715E+00  9.94114E-01  3.30380E-02
    9066.418     73.264   4.560  1.02894E+00  9.94545E-01  3.43961E-02
    9067.814     74.660   4.600  1.03104E+00  9.94983E-01  3.60541E-02
    9069.222     76.068   4.640  1.03304E+00  9.95448E-01  3.75960E-02
    9070.643     77.488   4.680  1.03447E+00  9.95917E-01  3.85538E-02
    9072.075     78.921   4.720  1.03485E+00  9.96388E-01  3.84660E-02
    9073.520     80.365   4.760  1.03388E+00  9.96861E-01  3.70227E-02
    9074.977     81.822   4.800  1.03158E+00  9.97356E-01  3.42213E-02
    9076.446     83.291   4.840  1.02820E+00  9.97827E-01  3.03759E-02
    9077.927     84.773   4.880  1.02428E+00  9.98295E-01  2.59889E-02
    9079.421     86.266   4.920  1.02027E+00  9.98759E-01  2.15117E-02
    9080.927     87.772   4.960  1.01631E+00  9.99217E-01  1.70884E-02
    9082.444     89.290   5.000  1.01218E+00  9.99647E-01  1.25287E-02
    9083.975     90.820   5.040  1.00756E+00  1.00007E+00  7.49210E-03
    9085.517     92.362   5.080  1.00218E+00  1.00048E+00  1.69707E-03
    9087.071     93.917   5.120  9.95931E-01  1.00086E+00 -4.92931E-03
    9088.638     95.483   5.160  9.88986E-01  1.00121E+00 -1.22188E-02
    9090.217     97.062   5.200  9.81792E-01  1.00154E+00 -1.97455E-02
    9091.808     98.653   5.240  9.74879E-01  1.00183E+00 -2.69558E-02
    9093.411    100.257   5.280  9.68758E-01  1.00210E+00 -3.33370E-02
    9095.027    101.872   5.320  9.63794E-01  1.00234E+00 -3.85456E-02
    9096.654    103.500   5.360  9.60148E-01  1.00252E+00 -4.23757E-02
    9098.294    105.139   5.400  9.57931E-01  1.00269E+00 -4.47612E-02
    9099.946    106.791   5.440  9.57033E-01  1.00282E+00 -4.57889E-02
    9101.610    108.456   5.480  9.57234E-01  1.00291E+00 -4.56784E-02
    9103.287    110.132   5.520  9.58297E-01  1.00296E+00 -4.46650E-02
    9104.975    111.821   5.560  9.60051E-01  1.00297E+00 -4.29205E-02
    9106.676    113.521   5.600  9.62397E-01  1.00294E+00 -4.05436E-02
    9108.389    115.234   5.640  9.65253E-01  1.00287E+00 -3.76170E-02
    9110.114    116.959   5.680  9.68556E-01  1.00276E+00 -3.42046E-02
    9111.851    118.697   5.720  9.72263E-01  1.00263E+00 -3.03710E-02
    9113.601    120.446   5.760  9.76257E-01  1.00245E+00 -2.61882E-02
    9115.363    122.208   5.800  9.80419E-01  1.00222E+00 -2.17958E-02
    9117.137    123.982   5.840  9.84531E-01  1.00195E+00 -1.74153E-02
    9118.923    125.768   5.880  9.88344E-01  1.00164E+00 -1.32983E-02
    9120.721    127.566   5.920  9.91744E-01  1.00133E+00 -9.58364E-03
    9122.532    129.377   5.960  9.94750E-01  1.00095E+00 -6.20318E-03
    9124.354    131.200   6.000  9.97696E-01  1.00054E+00 -2.84654E-03
