# # comment:                                                     FEFF 9.9.1  
# # Source:
# # Structure
# # Reduced
# # space
# # abc:
# # angles:
# # sites:
# # POT  SCF 100  7.0000   0, screened core-hole, AFOLP (folp(0)= 1.150)
# # Abs   Z=29 Rmt= 1.152 Rnm= 1.268 K  shell
# # Pot 1 Z=29 Rmt= 1.285 Rnm= 1.422
# # Pot 2 Z= 6 Rmt= 0.627 Rnm= 0.913
# # Pot 3 Z= 8 Rmt= 0.880 Rnm= 1.052
# # Gam_ch=1.729E+00 H-L exch Vi= 0.000E+00 Vr= 0.000E+00
# # Mu=-5.735E+00eV kf=2.585E+00 Vint=-1.671E+01eV Rs_int= 1.403
# FMS rfms= 9.0000
# # PATH  Rmax=-1.000,  Keep_limit= 0.00, Heap_limit 0.00  Pwcrit= 2.50%
#  S02=0.950  Temp=   0.00  Debye_temp=   0.00  Global_sig2= 0.00000
#  Energy zero shift, vr, vi    0.00000E+00   0.00000E+00
#  Curved wave amplitude ratio filter   4.000%
#     file         sig2 tot  cw amp ratio   deg  nlegs   reff  inp sig2
#     0/   0 paths used
#  xsedge+ 50, used to normalize mu           2.4661E-04
#  -----------------------------------------------------------------------
#  omega    e    k    mu    mu0     chi     @#
    8983.281     -9.545  -1.000  4.55770E-02  5.63922E-02 -1.08152E-02
    8983.580     -9.246  -0.960  4.87090E-02  6.05953E-02 -1.18863E-02
    8983.867     -8.959  -0.920  5.21942E-02  6.52767E-02 -1.30826E-02
    8984.141     -8.685  -0.880  5.60878E-02  7.05080E-02 -1.44202E-02
    8984.403     -8.423  -0.840  6.04551E-02  7.63726E-02 -1.59175E-02
    8984.653     -8.173  -0.800  6.53724E-02  8.29671E-02 -1.75947E-02
    8984.891     -7.935  -0.760  7.09286E-02  9.04030E-02 -1.94744E-02
    8985.116     -7.710  -0.720  7.72253E-02  9.88061E-02 -2.15808E-02
    8985.330     -7.496  -0.680  8.43757E-02  1.08315E-01 -2.39394E-02
    8985.531     -7.295  -0.640  9.25009E-02  1.19077E-01 -2.65763E-02
    8985.720     -7.106  -0.600  1.01721E-01  1.31237E-01 -2.95155E-02
    8985.897     -6.929  -0.560  1.12140E-01  1.44917E-01 -3.27768E-02
    8986.061     -6.765  -0.520  1.23822E-01  1.60193E-01 -3.63715E-02
    8986.214     -6.612  -0.480  1.36754E-01  1.77051E-01 -4.02969E-02
    8986.354     -6.472  -0.440  1.50811E-01  1.95341E-01 -4.45303E-02
    8986.482     -6.344  -0.400  1.65720E-01  2.14742E-01 -4.90226E-02
    8986.598     -6.228  -0.360  1.81054E-01  2.34748E-01 -5.36936E-02
    8986.701     -6.125  -0.320  1.96268E-01  2.54700E-01 -5.84318E-02
    8986.793     -6.033  -0.280  2.10769E-01  2.73868E-01 -6.30990E-02
    8986.872     -5.954  -0.240  2.24013E-01  2.91554E-01 -6.75410E-02
    8986.939     -5.887  -0.200  2.35571E-01  3.07172E-01 -7.16006E-02
    8986.994     -5.832  -0.160  2.45168E-01  3.20299E-01 -7.51308E-02
    8987.037     -5.789  -0.120  2.52662E-01  3.30667E-01 -7.80052E-02
    8987.067     -5.759  -0.080  2.58002E-01  3.38131E-01 -8.01290E-02
    8987.091     -5.735   0.000  2.62228E-01  3.44124E-01 -8.18952E-02
    8987.146     -5.680   0.120  2.71423E-01  3.57627E-01 -8.62043E-02
    8987.189     -5.637   0.160  2.78543E-01  3.68092E-01 -8.95497E-02
    8987.244     -5.582   0.200  2.87528E-01  3.81459E-01 -9.39312E-02
    8987.311     -5.515   0.240  2.98108E-01  3.97486E-01 -9.93782E-02
    8987.390     -5.436   0.280  3.09946E-01  4.15847E-01 -1.05901E-01
    8987.482     -5.344   0.320  3.22576E-01  4.36017E-01 -1.13441E-01
    8987.585     -5.241   0.360  3.35565E-01  4.57400E-01 -1.21836E-01
    8987.701     -5.125   0.400  3.48474E-01  4.79299E-01 -1.30825E-01
    8987.829     -4.997   0.440  3.61053E-01  5.01116E-01 -1.40063E-01
    8987.969     -4.857   0.480  3.73215E-01  5.22388E-01 -1.49173E-01
    8988.122     -4.704   0.520  3.84977E-01  5.42824E-01 -1.57846E-01
    8988.286     -4.540   0.560  3.96346E-01  5.62266E-01 -1.65920E-01
    8988.463     -4.363   0.600  4.07269E-01  5.80684E-01 -1.73415E-01
    8988.652     -4.174   0.640  4.17684E-01  5.98147E-01 -1.80463E-01
    8988.853     -3.973   0.680  4.27525E-01  6.14763E-01 -1.87238E-01
    8989.067     -3.760   0.720  4.36676E-01  6.30620E-01 -1.93943E-01
    8989.292     -3.534   0.760  4.44922E-01  6.45844E-01 -2.00921E-01
    8989.530     -3.296   0.800  4.51954E-01  6.60531E-01 -2.08578E-01
    8989.780     -3.046   0.840  4.57709E-01  6.74786E-01 -2.17077E-01
    8990.042     -2.784   0.880  4.62642E-01  6.88653E-01 -2.26012E-01
    8990.316     -2.510   0.920  4.67860E-01  7.02206E-01 -2.34346E-01
    8990.603     -2.223   0.960  4.74731E-01  7.15502E-01 -2.40771E-01
    8990.901     -1.925   1.000  4.84055E-01  7.28550E-01 -2.44495E-01
    8991.212     -1.614   1.040  4.95510E-01  7.41366E-01 -2.45856E-01
    8991.535     -1.291   1.080  5.07825E-01  7.53980E-01 -2.46155E-01
    8991.871     -0.955   1.120  5.19596E-01  7.66392E-01 -2.46796E-01
    8992.218     -0.608   1.160  5.30227E-01  7.78578E-01 -2.48352E-01
    8992.578     -0.248   1.200  5.40363E-01  7.90570E-01 -2.50207E-01
    8992.950      0.124   1.240  5.51859E-01  8.02332E-01 -2.50473E-01
    8993.334      0.508   1.280  5.67048E-01  8.13849E-01 -2.46802E-01
    8993.730      0.904   1.320  5.86271E-01  8.25145E-01 -2.38874E-01
    8994.138      1.312   1.360  6.06449E-01  8.36157E-01 -2.29708E-01
    8994.559      1.733   1.400  6.23395E-01  8.46906E-01 -2.23511E-01
    8994.992      2.166   1.440  6.34900E-01  8.57348E-01 -2.22448E-01
    8995.437      2.611   1.480  6.41920E-01  8.67500E-01 -2.25580E-01
    8995.894      3.068   1.520  6.47294E-01  8.77318E-01 -2.30024E-01
    8996.363      3.537   1.560  6.54232E-01  8.86800E-01 -2.32568E-01
    8996.845      4.019   1.600  6.65365E-01  8.95941E-01 -2.30576E-01
    8997.339      4.513   1.640  6.82213E-01  9.04720E-01 -2.22506E-01
    8997.845      5.019   1.680  7.05111E-01  9.13134E-01 -2.08023E-01
    8998.363      5.537   1.720  7.33609E-01  9.21159E-01 -1.87550E-01
    8998.893      6.067   1.760  7.67446E-01  9.28817E-01 -1.61371E-01
    8999.436      6.610   1.800  8.06190E-01  9.36086E-01 -1.29896E-01
    8999.991      7.164   1.840  8.48223E-01  9.42965E-01 -9.47423E-02
    9000.557      7.731   1.880  8.91918E-01  9.49456E-01 -5.75381E-02
    9001.137      8.311   1.920  9.38777E-01  9.55560E-01 -1.67830E-02
    9001.728      8.902   1.960  9.94197E-01  9.61279E-01  3.29185E-02
    9002.331      9.505   2.000  1.06238E+00  9.66615E-01  9.57604E-02
    9002.947     10.121   2.040  1.14145E+00  9.71552E-01  1.69894E-01
    9003.575     10.749   2.080  1.22461E+00  9.76135E-01  2.48472E-01
    9004.215     11.389   2.120  1.30063E+00  9.80368E-01  3.20260E-01
    9004.867     12.041   2.160  1.35602E+00  9.84237E-01  3.71787E-01
    9005.532     12.706   2.200  1.38722E+00  9.87768E-01  3.99448E-01
    9006.208     13.382   2.240  1.40538E+00  9.90964E-01  4.14421E-01
    9006.897     14.071   2.280  1.42127E+00  9.93834E-01  4.27435E-01
    9007.598     14.772   2.320  1.43451E+00  9.96404E-01  4.38101E-01
    9008.312     15.485   2.360  1.43731E+00  9.98680E-01  4.38629E-01
    9009.037     16.211   2.400  1.42017E+00  1.00067E+00  4.19494E-01
    9009.775     16.949   2.440  1.38063E+00  1.00240E+00  3.78224E-01
    9010.524     17.698   2.480  1.32686E+00  1.00386E+00  3.23001E-01
    9011.286     18.460   2.520  1.27044E+00  1.00510E+00  2.65343E-01
    9012.061     19.234   2.560  1.22071E+00  1.00612E+00  2.14589E-01
    9012.847     20.021   2.600  1.18212E+00  1.00694E+00  1.75185E-01
    9013.645     20.819   2.640  1.15656E+00  1.00753E+00  1.49031E-01
    9014.456     21.630   2.680  1.14423E+00  1.00796E+00  1.36271E-01
    9015.279     22.453   2.720  1.13551E+00  1.00821E+00  1.27293E-01
    9016.114     23.288   2.760  1.11654E+00  1.00832E+00  1.08214E-01
    9016.962     24.136   2.800  1.08090E+00  1.00830E+00  7.25992E-02
    9017.821     24.995   2.840  1.03173E+00  1.00813E+00  2.36012E-02
    9018.693     25.867   2.880  9.78968E-01  1.00786E+00 -2.88954E-02
    9019.577     26.751   2.920  9.33432E-01  1.00748E+00 -7.40477E-02
    9020.473     27.647   2.960  9.04046E-01  1.00701E+00 -1.02962E-01
    9021.381     28.555   3.000  8.93621E-01  1.00645E+00 -1.12834E-01
    9022.302     29.476   3.040  8.93189E-01  1.00585E+00 -1.12657E-01
    9023.234     30.408   3.080  8.96836E-01  1.00516E+00 -1.08329E-01
    9024.179     31.353   3.120  9.01545E-01  1.00444E+00 -1.02892E-01
    9025.136     32.310   3.160  9.06058E-01  1.00367E+00 -9.76119E-02
    9026.106     33.280   3.200  9.10340E-01  1.00289E+00 -9.25453E-02
    9027.087     34.261   3.240  9.14947E-01  1.00207E+00 -8.71199E-02
    9028.081     35.255   3.280  9.19716E-01  1.00122E+00 -8.15036E-02
    9029.087     36.261   3.320  9.24211E-01  1.00039E+00 -7.61767E-02
    9030.105     37.279   3.360  9.27621E-01  9.99534E-01 -7.19135E-02
    9031.135     38.309   3.400  9.29058E-01  9.98702E-01 -6.96443E-02
    9032.177     39.351   3.440  9.27899E-01  9.97876E-01 -6.99770E-02
    9033.232     40.406   3.480  9.24099E-01  9.97079E-01 -7.29801E-02
    9034.299     41.473   3.520  9.18140E-01  9.96290E-01 -7.81501E-02
    9035.378     42.552   3.560  9.11001E-01  9.95533E-01 -8.45312E-02
    9036.469     43.643   3.600  9.03975E-01  9.94790E-01 -9.08147E-02
    9037.572     44.746   3.640  8.98311E-01  9.94104E-01 -9.57925E-02
    9038.688     45.862   3.680  8.94800E-01  9.93437E-01 -9.86373E-02
    9039.816     46.989   3.720  8.93877E-01  9.92831E-01 -9.89540E-02
    9040.955     48.129   3.760  8.95506E-01  9.92264E-01 -9.67589E-02
    9042.108     49.282   3.800  8.99378E-01  9.91719E-01 -9.23415E-02
    9043.272     50.446   3.840  9.05050E-01  9.91238E-01 -8.61873E-02
    9044.448     51.622   3.880  9.12184E-01  9.90821E-01 -7.86376E-02
    9045.637     52.811   3.920  9.20395E-01  9.90428E-01 -7.00330E-02
    9046.838     54.012   3.960  9.29341E-01  9.90101E-01 -6.07598E-02
    9048.051     55.225   4.000  9.38563E-01  9.89817E-01 -5.12542E-02
    9049.276     56.450   4.040  9.47625E-01  9.89578E-01 -4.19535E-02
    9050.514     57.688   4.080  9.56173E-01  9.89405E-01 -3.32325E-02
    9051.764     58.938   4.120  9.64055E-01  9.89277E-01 -2.52228E-02
    9053.025     60.199   4.160  9.71431E-01  9.89193E-01 -1.77619E-02
    9054.300     61.474   4.200  9.78606E-01  9.89152E-01 -1.05454E-02
    9055.586     62.760   4.240  9.85901E-01  9.89174E-01 -3.27358E-03
    9056.884     64.058   4.280  9.93512E-01  9.89220E-01  4.29259E-03
    9058.195     65.369   4.320  1.00162E+00  9.89328E-01  1.22970E-02
    9059.518     66.692   4.360  1.01026E+00  9.89477E-01  2.07809E-02
    9060.853     68.027   4.400  1.01945E+00  9.89669E-01  2.97765E-02
    9062.200     69.374   4.440  1.02915E+00  9.89900E-01  3.92526E-02
    9063.559     70.733   4.480  1.03920E+00  9.90171E-01  4.90248E-02
    9064.931     72.105   4.520  1.04924E+00  9.90479E-01  5.87601E-02
    9066.315     73.489   4.560  1.05883E+00  9.90825E-01  6.80012E-02
    9067.711     74.885   4.600  1.06737E+00  9.91206E-01  7.61641E-02
    9069.119     76.293   4.640  1.07425E+00  9.91599E-01  8.26492E-02
    9070.539     77.713   4.680  1.07900E+00  9.92022E-01  8.69744E-02
    9071.972     79.146   4.720  1.08128E+00  9.92455E-01  8.88217E-02
    9073.417     80.590   4.760  1.08103E+00  9.92915E-01  8.81102E-02
    9074.873     82.047   4.800  1.07845E+00  9.93382E-01  8.50689E-02
    9076.343     83.517   4.840  1.07394E+00  9.93855E-01  8.00836E-02
    9077.824     84.998   4.880  1.06802E+00  9.94355E-01  7.36680E-02
    9079.317     86.491   4.920  1.06124E+00  9.94857E-01  6.63782E-02
    9080.823     87.997   4.960  1.05408E+00  9.95359E-01  5.87207E-02
    9082.341     89.515   5.000  1.04699E+00  9.95862E-01  5.11271E-02
    9083.871     91.045   5.040  1.04025E+00  9.96362E-01  4.38880E-02
    9085.413     92.587   5.080  1.03401E+00  9.96858E-01  3.71480E-02
    9086.968     94.142   5.120  1.02829E+00  9.97326E-01  3.09604E-02
    9088.535     95.708   5.160  1.02310E+00  9.97788E-01  2.53072E-02
    9090.113     97.287   5.200  1.01836E+00  9.98245E-01  2.01134E-02
    9091.704     98.878   5.240  1.01390E+00  9.98694E-01  1.52021E-02
    9093.308    100.482   5.280  1.00940E+00  9.99111E-01  1.02906E-02
    9094.923    102.097   5.320  1.00452E+00  9.99493E-01  5.03116E-03
    9096.551    103.725   5.360  9.98977E-01  9.99863E-01 -8.86964E-04
    9098.191    105.365   5.400  9.92588E-01  1.00020E+00 -7.61107E-03
    9099.843    107.017   5.440  9.85484E-01  1.00050E+00 -1.50135E-02
    9101.507    108.681   5.480  9.78088E-01  1.00078E+00 -2.26916E-02
    9103.183    110.357   5.520  9.70921E-01  1.00100E+00 -3.00822E-02
    9104.872    112.046   5.560  9.64609E-01  1.00121E+00 -3.66018E-02
    9106.573    113.746   5.600  9.59614E-01  1.00138E+00 -4.17667E-02
    9108.285    115.459   5.640  9.56224E-01  1.00151E+00 -4.52849E-02
    9110.011    117.185   5.680  9.54485E-01  1.00160E+00 -4.71120E-02
    9111.748    118.922   5.720  9.54220E-01  1.00164E+00 -4.74230E-02
    9113.498    120.672   5.760  9.55083E-01  1.00163E+00 -4.65429E-02
    9115.259    122.433   5.800  9.56719E-01  1.00159E+00 -4.48718E-02
    9117.033    124.207   5.840  9.58721E-01  1.00152E+00 -4.27957E-02
    9118.819    125.993   5.880  9.60752E-01  1.00140E+00 -4.06514E-02
    9120.618    127.792   5.920  9.62566E-01  1.00122E+00 -3.86585E-02
    9122.428    129.602   5.960  9.64121E-01  1.00103E+00 -3.69042E-02
    9124.251    131.425   6.000  9.65477E-01  1.00073E+00 -3.52497E-02
