# # comment:                                                     FEFF 9.9.1  
# # Source:
# # Structure
# # Reduced
# # space
# # abc:
# # angles:
# # sites:
# # POT  SCF 100  7.0000   0, screened core-hole, AFOLP (folp(0)= 1.150)
# # Abs   Z=29 Rmt= 1.124 Rnm= 1.237 K  shell
# # Pot 1 Z=29 Rmt= 1.124 Rnm= 1.238
# # Pot 2 Z= 1 Rmt= 0.890 Rnm= 0.974
# # Pot 3 Z=35 Rmt= 1.740 Rnm= 1.792
# # Pot 4 Z= 8 Rmt= 1.087 Rnm= 1.142
# # Gam_ch=1.729E+00 H-L exch Vi= 0.000E+00 Vr= 0.000E+00
# # Mu=-6.235E+00eV kf=1.943E+00 Vint=-1.168E+01eV Rs_int= 1.867
# FMS rfms= 9.0000
# # PATH  Rmax=-1.000,  Keep_limit= 0.00, Heap_limit 0.00  Pwcrit= 2.50%
#  S02=0.950  Temp=   0.00  Debye_temp=   0.00  Global_sig2= 0.00000
#  Energy zero shift, vr, vi    0.00000E+00   0.00000E+00
#  Curved wave amplitude ratio filter   4.000%
#     file         sig2 tot  cw amp ratio   deg  nlegs   reff  inp sig2
#     0/   0 paths used
#  xsedge+ 50, used to normalize mu           2.3909E-04
#  -----------------------------------------------------------------------
#  omega    e    k    mu    mu0     chi     @#
    8983.320    -10.045  -1.000  3.15301E-02  5.88947E-02 -2.73646E-02
    8983.618     -9.746  -0.960  3.29050E-02  6.30835E-02 -3.01785E-02
    8983.905     -9.460  -0.920  3.43725E-02  6.77176E-02 -3.33451E-02
    8984.179     -9.185  -0.880  3.59441E-02  7.28597E-02 -3.69156E-02
    8984.441     -8.923  -0.840  3.76331E-02  7.85823E-02 -4.09492E-02
    8984.691     -8.673  -0.800  3.94552E-02  8.49688E-02 -4.55135E-02
    8984.929     -8.436  -0.760  4.14289E-02  9.21146E-02 -5.06856E-02
    8985.154     -8.210  -0.720  4.35752E-02  1.00127E-01 -5.65514E-02
    8985.368     -7.997  -0.680  4.59177E-02  1.09122E-01 -6.32045E-02
    8985.569     -7.796  -0.640  4.84816E-02  1.19224E-01 -7.07428E-02
    8985.758     -7.607  -0.600  5.12909E-02  1.30553E-01 -7.92617E-02
    8985.935     -7.430  -0.560  5.43649E-02  1.43208E-01 -8.88428E-02
    8986.099     -7.265  -0.520  5.77110E-02  1.57248E-01 -9.95367E-02
    8986.252     -7.113  -0.480  6.13149E-02  1.72653E-01 -1.11339E-01
    8986.392     -6.973  -0.440  6.51308E-02  1.89292E-01 -1.24161E-01
    8986.520     -6.845  -0.400  6.90735E-02  2.06883E-01 -1.37809E-01
    8986.636     -6.729  -0.360  7.30195E-02  2.24987E-01 -1.51967E-01
    8986.739     -6.625  -0.320  7.68217E-02  2.43035E-01 -1.66213E-01
    8986.831     -6.534  -0.280  8.03345E-02  2.60392E-01 -1.80057E-01
    8986.910     -6.454  -0.240  8.34409E-02  2.76441E-01 -1.93000E-01
    8986.977     -6.387  -0.200  8.60686E-02  2.90657E-01 -2.04589E-01
    8987.032     -6.333  -0.160  8.81901E-02  3.02649E-01 -2.14459E-01
    8987.075     -6.290  -0.120  8.98078E-02  3.12155E-01 -2.22347E-01
    8987.105     -6.259  -0.080  9.09365E-02  3.19021E-01 -2.28084E-01
    8987.130     -6.235   0.000  9.18023E-02  3.24551E-01 -2.32748E-01
    8987.184     -6.180   0.120  9.38675E-02  3.37035E-01 -2.43168E-01
    8987.227     -6.137   0.160  9.53957E-02  3.46790E-01 -2.51394E-01
    8987.282     -6.083   0.200  9.72604E-02  3.59304E-01 -2.62044E-01
    8987.349     -6.016   0.240  9.93818E-02  3.74463E-01 -2.75081E-01
    8987.428     -5.936   0.280  1.01709E-01  3.92043E-01 -2.90333E-01
    8987.520     -5.845   0.320  1.04180E-01  4.11680E-01 -3.07499E-01
    8987.623     -5.741   0.360  1.06804E-01  4.32934E-01 -3.26130E-01
    8987.739     -5.625   0.400  1.09758E-01  4.55350E-01 -3.45592E-01
    8987.867     -5.497   0.440  1.13221E-01  4.78427E-01 -3.65205E-01
    8988.007     -5.357   0.480  1.17623E-01  5.01843E-01 -3.84219E-01
    8988.160     -5.205   0.520  1.23404E-01  5.25355E-01 -4.01951E-01
    8988.324     -5.040   0.560  1.31053E-01  5.48814E-01 -4.17761E-01
    8988.501     -4.863   0.600  1.41015E-01  5.72196E-01 -4.31181E-01
    8988.690     -4.674   0.640  1.53499E-01  5.95497E-01 -4.41998E-01
    8988.891     -4.473   0.680  1.68213E-01  6.18735E-01 -4.50522E-01
    8989.105     -4.260   0.720  1.83779E-01  6.41956E-01 -4.58178E-01
    8989.330     -4.034   0.760  1.97471E-01  6.65183E-01 -4.67712E-01
    8989.568     -3.797   0.800  2.06092E-01  6.88423E-01 -4.82331E-01
    8989.818     -3.547   0.840  2.08717E-01  7.11650E-01 -5.02933E-01
    8990.080     -3.285   0.880  2.08236E-01  7.34824E-01 -5.26588E-01
    8990.354     -3.010   0.920  2.08894E-01  7.57910E-01 -5.49015E-01
    8990.641     -2.724   0.960  2.13413E-01  7.80860E-01 -5.67447E-01
    8990.940     -2.425   1.000  2.22596E-01  8.03577E-01 -5.80980E-01
    8991.250     -2.114   1.040  2.36075E-01  8.25974E-01 -5.89899E-01
    8991.573     -1.791   1.080  2.52677E-01  8.47981E-01 -5.95304E-01
    8991.909     -1.456   1.120  2.70738E-01  8.69504E-01 -5.98766E-01
    8992.256     -1.108   1.160  2.89817E-01  8.90441E-01 -6.00624E-01
    8992.616     -0.749   1.200  3.13064E-01  9.10695E-01 -5.97631E-01
    8992.988     -0.377   1.240  3.44104E-01  9.30190E-01 -5.86086E-01
    8993.372      0.007   1.280  3.81191E-01  9.48849E-01 -5.67658E-01
    8993.768      0.404   1.320  4.17413E-01  9.66600E-01 -5.49188E-01
    8994.176      0.812   1.360  4.50393E-01  9.83375E-01 -5.32981E-01
    8994.597      1.233   1.400  4.86691E-01  9.99129E-01 -5.12438E-01
    8995.030      1.665   1.440  5.36109E-01  1.01380E+00 -4.77695E-01
    8995.475      2.110   1.480  6.06693E-01  1.02739E+00 -4.20694E-01
    8995.932      2.568   1.520  6.96155E-01  1.03985E+00 -3.43696E-01
    8996.402      3.037   1.560  7.78168E-01  1.05117E+00 -2.73002E-01
    8996.883      3.519   1.600  8.15685E-01  1.06139E+00 -2.45707E-01
    8997.377      4.012   1.640  8.04067E-01  1.07048E+00 -2.66415E-01
    8997.883      4.518   1.680  7.68428E-01  1.07849E+00 -3.10065E-01
    8998.401      5.036   1.720  7.30170E-01  1.08544E+00 -3.55270E-01
    8998.931      5.567   1.760  7.04325E-01  1.09136E+00 -3.87039E-01
    8999.474      6.109   1.800  7.06730E-01  1.09629E+00 -3.89558E-01
    9000.029      6.664   1.840  7.44211E-01  1.10030E+00 -3.56087E-01
    9000.596      7.231   1.880  8.12528E-01  1.10342E+00 -2.90891E-01
    9001.175      7.810   1.920  9.07391E-01  1.10570E+00 -1.98309E-01
    9001.766      8.401   1.960  1.02928E+00  1.10719E+00 -7.79066E-02
    9002.369      9.005   2.000  1.17281E+00  1.10798E+00  6.48284E-02
    9002.985      9.621   2.040  1.31545E+00  1.10810E+00  2.07352E-01
    9003.613     10.249   2.080  1.44784E+00  1.10762E+00  3.40220E-01
    9004.253     10.889   2.120  1.59901E+00  1.10658E+00  4.92426E-01
    9004.905     11.541   2.160  1.79196E+00  1.10505E+00  6.86911E-01
    9005.570     12.205   2.200  2.01289E+00  1.10306E+00  9.09834E-01
    9006.247     12.882   2.240  2.19600E+00  1.10068E+00  1.09532E+00
    9006.935     13.571   2.280  2.24958E+00  1.09795E+00  1.15163E+00
    9007.636     14.272   2.320  2.14584E+00  1.09493E+00  1.05091E+00
    9008.350     14.985   2.360  1.95454E+00  1.09165E+00  8.62890E-01
    9009.075     15.711   2.400  1.76195E+00  1.08815E+00  6.73796E-01
    9009.813     16.448   2.440  1.59355E+00  1.08446E+00  5.09084E-01
    9010.562     17.198   2.480  1.45080E+00  1.08066E+00  3.70136E-01
    9011.324     17.960   2.520  1.33221E+00  1.07671E+00  2.55502E-01
    9012.099     18.734   2.560  1.23569E+00  1.07270E+00  1.62990E-01
    9012.885     19.521   2.600  1.15748E+00  1.06865E+00  8.88373E-02
    9013.684     20.319   2.640  1.09442E+00  1.06456E+00  2.98661E-02
    9014.494     21.130   2.680  1.04429E+00  1.06046E+00 -1.61701E-02
    9015.317     21.953   2.720  1.00475E+00  1.05640E+00 -5.16465E-02
    9016.152     22.788   2.760  9.74524E-01  1.05235E+00 -7.78289E-02
    9017.000     23.635   2.800  9.52354E-01  1.04840E+00 -9.60419E-02
    9017.859     24.495   2.840  9.36387E-01  1.04450E+00 -1.08111E-01
    9018.731     25.367   2.880  9.24861E-01  1.04068E+00 -1.15824E-01
    9019.615     26.250   2.920  9.15378E-01  1.03696E+00 -1.21577E-01
    9020.511     27.147   2.960  9.05899E-01  1.03335E+00 -1.27452E-01
    9021.419     28.055   3.000  8.95478E-01  1.02989E+00 -1.34415E-01
    9022.340     28.975   3.040  8.84096E-01  1.02653E+00 -1.42438E-01
    9023.273     29.908   3.080  8.72195E-01  1.02334E+00 -1.51141E-01
    9024.217     30.853   3.120  8.60475E-01  1.02027E+00 -1.59799E-01
    9025.175     31.810   3.160  8.49718E-01  1.01736E+00 -1.67646E-01
    9026.144     32.779   3.200  8.40257E-01  1.01461E+00 -1.74353E-01
    9027.125     33.761   3.240  8.31989E-01  1.01203E+00 -1.80040E-01
    9028.119     34.754   3.280  8.24754E-01  1.00962E+00 -1.84869E-01
    9029.125     35.760   3.320  8.18552E-01  1.00737E+00 -1.88818E-01
    9030.143     36.778   3.360  8.13388E-01  1.00526E+00 -1.91877E-01
    9031.173     37.808   3.400  8.09608E-01  1.00336E+00 -1.93749E-01
    9032.215     38.851   3.440  8.07609E-01  1.00161E+00 -1.94004E-01
    9033.270     39.905   3.480  8.07834E-01  1.00006E+00 -1.92221E-01
    9034.337     40.972   3.520  8.10053E-01  9.98648E-01 -1.88595E-01
    9035.416     42.051   3.560  8.14163E-01  9.97408E-01 -1.83245E-01
    9036.507     43.142   3.600  8.20075E-01  9.96357E-01 -1.76282E-01
    9037.610     44.246   3.640  8.27584E-01  9.95451E-01 -1.67867E-01
    9038.726     45.361   3.680  8.36502E-01  9.94733E-01 -1.58230E-01
    9039.854     46.489   3.720  8.46734E-01  9.94157E-01 -1.47423E-01
    9040.994     47.629   3.760  8.58466E-01  9.93744E-01 -1.35278E-01
    9042.146     48.781   3.800  8.72228E-01  9.93493E-01 -1.21265E-01
    9043.310     49.946   3.840  8.88944E-01  9.93402E-01 -1.04458E-01
    9044.487     51.122   3.880  9.09572E-01  9.93449E-01 -8.38765E-02
    9045.675     52.311   3.920  9.34497E-01  9.93649E-01 -5.91523E-02
    9046.876     53.512   3.960  9.62954E-01  9.93982E-01 -3.10277E-02
    9048.089     54.725   4.000  9.93014E-01  9.94445E-01 -1.43098E-03
    9049.315     55.950   4.040  1.02183E+00  9.95057E-01  2.67712E-02
    9050.552     57.188   4.080  1.04632E+00  9.95773E-01  5.05447E-02
    9051.802     58.437   4.120  1.06451E+00  9.96631E-01  6.78754E-02
    9053.064     59.699   4.160  1.07593E+00  9.97586E-01  7.83427E-02
    9054.338     60.973   4.200  1.08169E+00  9.98634E-01  8.30585E-02
    9055.624     62.259   4.240  1.08384E+00  9.99794E-01  8.40411E-02
    9056.922     63.558   4.280  1.08446E+00  1.00104E+00  8.34197E-02
    9058.233     64.868   4.320  1.08502E+00  1.00240E+00  8.26179E-02
    9059.556     66.191   4.360  1.08601E+00  1.00382E+00  8.21980E-02
    9060.891     67.526   4.400  1.08739E+00  1.00531E+00  8.20829E-02
    9062.238     68.874   4.440  1.08887E+00  1.00685E+00  8.20212E-02
    9063.597     70.233   4.480  1.09031E+00  1.00846E+00  8.18497E-02
    9064.969     71.605   4.520  1.09180E+00  1.01012E+00  8.16765E-02
    9066.353     72.988   4.560  1.09376E+00  1.01182E+00  8.19408E-02
    9067.749     74.384   4.600  1.09686E+00  1.01356E+00  8.32982E-02
    9069.157     75.792   4.640  1.10177E+00  1.01531E+00  8.64655E-02
    9070.577     77.213   4.680  1.10896E+00  1.01709E+00  9.18694E-02
    9072.010     78.645   4.720  1.11821E+00  1.01887E+00  9.93462E-02
    9073.455     80.090   4.760  1.12872E+00  1.02065E+00  1.08077E-01
    9074.912     81.547   4.800  1.13940E+00  1.02242E+00  1.16980E-01
    9076.381     83.016   4.840  1.14889E+00  1.02417E+00  1.24722E-01
    9077.862     84.498   4.880  1.15572E+00  1.02590E+00  1.29813E-01
    9079.356     85.991   4.920  1.15838E+00  1.02760E+00  1.30783E-01
    9080.861     87.497   4.960  1.15571E+00  1.02926E+00  1.26458E-01
    9082.379     89.015   5.000  1.14722E+00  1.03087E+00  1.16346E-01
    9083.909     90.545   5.040  1.13305E+00  1.03244E+00  1.00609E-01
    9085.451     92.087   5.080  1.11382E+00  1.03395E+00  7.98642E-02
    9087.006     93.641   5.120  1.09069E+00  1.03540E+00  5.52941E-02
    9088.573     95.208   5.160  1.06550E+00  1.03676E+00  2.87421E-02
    9090.151     96.787   5.200  1.04069E+00  1.03807E+00  2.62223E-03
    9091.743     98.378   5.240  1.01848E+00  1.03926E+00 -2.07855E-02
    9093.346     99.981   5.280  1.00041E+00  1.04037E+00 -3.99625E-02
    9094.961    101.597   5.320  9.86927E-01  1.04140E+00 -5.44698E-02
    9096.589    103.224   5.360  9.77545E-01  1.04233E+00 -6.47866E-02
    9098.229    104.864   5.400  9.71304E-01  1.04318E+00 -7.18730E-02
    9099.881    106.516   5.440  9.67337E-01  1.04391E+00 -7.65687E-02
    9101.545    108.180   5.480  9.65192E-01  1.04452E+00 -7.93251E-02
    9103.221    109.857   5.520  9.64862E-01  1.04503E+00 -8.01707E-02
    9104.910    111.545   5.560  9.66365E-01  1.04543E+00 -7.90678E-02
    9106.611    113.246   5.600  9.69513E-01  1.04574E+00 -7.62258E-02
    9108.324    114.959   5.640  9.73683E-01  1.04593E+00 -7.22458E-02
    9110.049    116.684   5.680  9.78163E-01  1.04602E+00 -6.78610E-02
    9111.786    118.422   5.720  9.82273E-01  1.04600E+00 -6.37281E-02
    9113.536    120.171   5.760  9.85513E-01  1.04586E+00 -6.03486E-02
    9115.297    121.933   5.800  9.87549E-01  1.04563E+00 -5.80810E-02
    9117.071    123.707   5.840  9.88273E-01  1.04528E+00 -5.70118E-02
    9118.857    125.493   5.880  9.87921E-01  1.04485E+00 -5.69304E-02
    9120.656    127.291   5.920  9.86898E-01  1.04431E+00 -5.74095E-02
    9122.466    129.102   5.960  9.85824E-01  1.04369E+00 -5.78674E-02
    9124.289    130.924   6.000  9.85373E-01  1.04288E+00 -5.75094E-02
