# # comment:                                                     FEFF 9.9.1  
# # Source:
# # Structure
# # Reduced
# # space
# # abc:
# # angles:
# # sites:
# # POT  SCF 100  7.0000   0, screened core-hole, AFOLP (folp(0)= 1.150)
# # Abs   Z=29 Rmt= 1.206 Rnm= 1.268 K  shell
# # Pot 1 Z= 3 Rmt= 1.153 Rnm= 1.229
# # Pot 2 Z=26 Rmt= 1.288 Rnm= 1.384
# # Pot 3 Z=29 Rmt= 1.210 Rnm= 1.275
# # Pot 4 Z= 8 Rmt= 0.996 Rnm= 1.093
# # Gam_ch=1.729E+00 H-L exch Vi= 0.000E+00 Vr= 0.000E+00
# # Mu=-1.104E+01eV kf=2.136E+00 Vint=-1.809E+01eV Rs_int= 1.698
# FMS rfms= 9.0000
# # PATH  Rmax=-1.000,  Keep_limit= 0.00, Heap_limit 0.00  Pwcrit= 2.50%
#  S02=0.950  Temp=   0.00  Debye_temp=   0.00  Global_sig2= 0.00000
#  Energy zero shift, vr, vi    0.00000E+00   0.00000E+00
#  Curved wave amplitude ratio filter   4.000%
#     file         sig2 tot  cw amp ratio   deg  nlegs   reff  inp sig2
#     0/   0 paths used
#  xsedge+ 50, used to normalize mu           2.4723E-04
#  -----------------------------------------------------------------------
#  omega    e    k    mu    mu0     chi     @#
    8984.781    -14.850  -1.000  2.69960E-02  4.85155E-02 -2.15194E-02
    8985.079    -14.551  -0.960  2.80339E-02  5.18598E-02 -2.38259E-02
    8985.366    -14.265  -0.920  2.91317E-02  5.55600E-02 -2.64283E-02
    8985.640    -13.990  -0.880  3.02966E-02  5.96667E-02 -2.93701E-02
    8985.902    -13.728  -0.840  3.15377E-02  6.42391E-02 -3.27014E-02
    8986.152    -13.478  -0.800  3.28656E-02  6.93454E-02 -3.64797E-02
    8986.390    -13.241  -0.760  3.42931E-02  7.50638E-02 -4.07706E-02
    8986.616    -13.015  -0.720  3.58349E-02  8.14823E-02 -4.56474E-02
    8986.829    -12.802  -0.680  3.75075E-02  8.86975E-02 -5.11900E-02
    8987.030    -12.601  -0.640  3.93289E-02  9.68112E-02 -5.74823E-02
    8987.219    -12.412  -0.600  4.13166E-02  1.05923E-01 -6.46062E-02
    8987.396    -12.235  -0.560  4.34850E-02  1.16116E-01 -7.26315E-02
    8987.561    -12.070  -0.520  4.58405E-02  1.27441E-01 -8.16008E-02
    8987.713    -11.918  -0.480  4.83752E-02  1.39883E-01 -9.15081E-02
    8987.853    -11.778  -0.440  5.10598E-02  1.53334E-01 -1.02274E-01
    8987.981    -11.650  -0.400  5.38379E-02  1.67564E-01 -1.13726E-01
    8988.097    -11.534  -0.360  5.66269E-02  1.82213E-01 -1.25586E-01
    8988.201    -11.430  -0.320  5.93273E-02  1.96812E-01 -1.37485E-01
    8988.292    -11.339  -0.280  6.18389E-02  2.10843E-01 -1.49004E-01
    8988.371    -11.259  -0.240  6.40789E-02  2.23803E-01 -1.59724E-01
    8988.438    -11.192  -0.200  6.59928E-02  2.35268E-01 -1.69275E-01
    8988.493    -11.138  -0.160  6.75548E-02  2.44924E-01 -1.77369E-01
    8988.536    -11.095  -0.120  6.87588E-02  2.52568E-01 -1.83809E-01
    8988.566    -11.064  -0.080  6.96078E-02  2.58081E-01 -1.88473E-01
    8988.591    -11.040   0.000  7.02712E-02  2.62516E-01 -1.92245E-01
    8988.646    -10.985   0.120  7.18858E-02  2.72526E-01 -2.00640E-01
    8988.688    -10.942   0.160  7.30659E-02  2.80313E-01 -2.07247E-01
    8988.743    -10.888   0.200  7.45439E-02  2.90296E-01 -2.15752E-01
    8988.810    -10.821   0.240  7.62602E-02  3.02341E-01 -2.26081E-01
    8988.889    -10.741   0.280  7.81975E-02  3.16240E-01 -2.38043E-01
    8988.981    -10.650   0.320  8.02950E-02  3.31683E-01 -2.51388E-01
    8989.085    -10.546   0.360  8.25675E-02  3.48274E-01 -2.65707E-01
    8989.200    -10.430   0.400  8.50394E-02  3.65575E-01 -2.80536E-01
    8989.328    -10.302   0.440  8.77847E-02  3.83223E-01 -2.95438E-01
    8989.469    -10.162   0.480  9.07627E-02  4.00877E-01 -3.10114E-01
    8989.621    -10.010   0.520  9.39199E-02  4.18390E-01 -3.24471E-01
    8989.786     -9.845   0.560  9.68951E-02  4.35616E-01 -3.38721E-01
    8989.962     -9.668   0.600  9.92680E-02  4.52564E-01 -3.53296E-01
    8990.151     -9.479   0.640  1.00781E-01  4.69258E-01 -3.68478E-01
    8990.353     -9.278   0.680  1.01481E-01  4.85748E-01 -3.84267E-01
    8990.566     -9.065   0.720  1.01764E-01  5.02130E-01 -4.00366E-01
    8990.791     -8.839   0.760  1.02152E-01  5.18421E-01 -4.16269E-01
    8991.029     -8.602   0.800  1.03260E-01  5.34687E-01 -4.31427E-01
    8991.279     -8.352   0.840  1.05646E-01  5.50988E-01 -4.45342E-01
    8991.541     -8.090   0.880  1.09717E-01  5.67327E-01 -4.57610E-01
    8991.816     -7.815   0.920  1.15896E-01  5.83700E-01 -4.67804E-01
    8992.102     -7.529   0.960  1.24661E-01  6.00152E-01 -4.75491E-01
    8992.401     -7.230   1.000  1.36439E-01  6.16659E-01 -4.80220E-01
    8992.712     -6.919   1.040  1.51371E-01  6.33189E-01 -4.81818E-01
    8993.035     -6.596   1.080  1.69271E-01  6.49746E-01 -4.80475E-01
    8993.370     -6.261   1.120  1.90039E-01  6.66267E-01 -4.76228E-01
    8993.717     -5.913   1.160  2.12515E-01  6.82765E-01 -4.70249E-01
    8994.077     -5.554   1.200  2.31672E-01  6.99148E-01 -4.67475E-01
    8994.449     -5.182   1.240  2.43195E-01  7.15425E-01 -4.72229E-01
    8994.833     -4.798   1.280  2.51599E-01  7.31521E-01 -4.79922E-01
    8995.229     -4.401   1.320  2.66488E-01  7.47419E-01 -4.80931E-01
    8995.638     -3.993   1.360  2.92860E-01  7.63063E-01 -4.70204E-01
    8996.058     -3.572   1.400  3.27706E-01  7.78415E-01 -4.50709E-01
    8996.491     -3.140   1.440  3.66300E-01  7.93439E-01 -4.27139E-01
    8996.936     -2.695   1.480  4.09098E-01  8.08098E-01 -3.99001E-01
    8997.393     -2.237   1.520  4.59695E-01  8.22335E-01 -3.62640E-01
    8997.863     -1.768   1.560  5.23047E-01  8.36136E-01 -3.13089E-01
    8998.344     -1.286   1.600  6.02016E-01  8.49489E-01 -2.47473E-01
    8998.838     -0.793   1.640  6.94293E-01  8.62339E-01 -1.68046E-01
    8999.344     -0.287   1.680  7.97177E-01  8.74657E-01 -7.74794E-02
    8999.862      0.231   1.720  9.04087E-01  8.86454E-01  1.76331E-02
    9000.393      0.762   1.760  1.00136E+00  8.97683E-01  1.03682E-01
    9000.935      1.304   1.800  1.09215E+00  9.08339E-01  1.83812E-01
    9001.490      1.859   1.840  1.19097E+00  9.18439E-01  2.72531E-01
    9002.057      2.426   1.880  1.30112E+00  9.27961E-01  3.73160E-01
    9002.636      3.005   1.920  1.41905E+00  9.36903E-01  4.82151E-01
    9003.227      3.596   1.960  1.52561E+00  9.45248E-01  5.80362E-01
    9003.831      4.200   2.000  1.58977E+00  9.53039E-01  6.36728E-01
    9004.446      4.816   2.040  1.62860E+00  9.60261E-01  6.68343E-01
    9005.074      5.444   2.080  1.68650E+00  9.66918E-01  7.19585E-01
    9005.714      6.084   2.120  1.74416E+00  9.73058E-01  7.71099E-01
    9006.367      6.736   2.160  1.71583E+00  9.78646E-01  7.37186E-01
    9007.031      7.400   2.200  1.57894E+00  9.83734E-01  5.95205E-01
    9007.708      8.077   2.240  1.41328E+00  9.88309E-01  4.24975E-01
    9008.397      8.766   2.280  1.27180E+00  9.92443E-01  2.79360E-01
    9009.098      9.467   2.320  1.15721E+00  9.96105E-01  1.61105E-01
    9009.811     10.180   2.360  1.06763E+00  9.99326E-01  6.83082E-02
    9010.536     10.906   2.400  1.00230E+00  1.00216E+00  1.41967E-04
    9011.274     11.643   2.440  9.57385E-01  1.00459E+00 -4.72068E-02
    9012.024     12.393   2.480  9.29595E-01  1.00666E+00 -7.70642E-02
    9012.786     13.155   2.520  9.21320E-01  1.00839E+00 -8.70736E-02
    9013.560     13.929   2.560  9.43507E-01  1.00980E+00 -6.62973E-02
    9014.346     14.716   2.600  9.80853E-01  1.01092E+00 -3.00693E-02
    9015.145     15.514   2.640  1.01861E+00  1.01176E+00  6.85467E-03
    9015.956     16.325   2.680  1.04715E+00  1.01235E+00  3.48063E-02
    9016.779     17.148   2.720  1.06132E+00  1.01270E+00  4.86245E-02
    9017.614     17.983   2.760  1.06103E+00  1.01284E+00  4.81938E-02
    9018.461     18.830   2.800  1.04857E+00  1.01280E+00  3.57730E-02
    9019.321     19.690   2.840  1.02715E+00  1.01257E+00  1.45835E-02
    9020.192     20.562   2.880  9.99631E-01  1.01218E+00 -1.25497E-02
    9021.076     21.445   2.920  9.67926E-01  1.01166E+00 -4.37346E-02
    9021.972     22.342   2.960  9.34493E-01  1.01102E+00 -7.65239E-02
    9022.881     23.250   3.000  9.01961E-01  1.01026E+00 -1.08298E-01
    9023.801     24.170   3.040  8.72581E-01  1.00944E+00 -1.36854E-01
    9024.734     25.103   3.080  8.48260E-01  1.00851E+00 -1.60252E-01
    9025.679     26.048   3.120  8.29498E-01  1.00753E+00 -1.78036E-01
    9026.636     27.005   3.160  8.15904E-01  1.00651E+00 -1.90607E-01
    9027.605     27.974   3.200  8.07008E-01  1.00545E+00 -1.98440E-01
    9028.586     28.956   3.240  8.02537E-01  1.00435E+00 -2.01811E-01
    9029.580     29.949   3.280  8.01642E-01  1.00324E+00 -2.01597E-01
    9030.586     30.955   3.320  8.03820E-01  1.00210E+00 -1.98283E-01
    9031.604     31.973   3.360  8.08777E-01  1.00099E+00 -1.92209E-01
    9032.634     33.003   3.400  8.16074E-01  9.99873E-01 -1.83800E-01
    9033.677     34.046   3.440  8.25227E-01  9.98766E-01 -1.73539E-01
    9034.731     35.100   3.480  8.36007E-01  9.97690E-01 -1.61683E-01
    9035.798     36.167   3.520  8.48540E-01  9.96649E-01 -1.48109E-01
    9036.877     37.246   3.560  8.63070E-01  9.95622E-01 -1.32552E-01
    9037.968     38.337   3.600  8.80308E-01  9.94654E-01 -1.14346E-01
    9039.072     39.441   3.640  9.00740E-01  9.93707E-01 -9.29670E-02
    9040.187     40.556   3.680  9.24411E-01  9.92823E-01 -6.84113E-02
    9041.315     41.684   3.720  9.50744E-01  9.91984E-01 -4.12401E-02
    9042.455     42.824   3.760  9.78833E-01  9.91211E-01 -1.23782E-02
    9043.607     43.976   3.800  1.00731E+00  9.90464E-01  1.68475E-02
    9044.771     45.141   3.840  1.03471E+00  9.89805E-01  4.49017E-02
    9045.948     46.317   3.880  1.05963E+00  9.89173E-01  7.04611E-02
    9047.137     47.506   3.920  1.08123E+00  9.88611E-01  9.26184E-02
    9048.337     48.707   3.960  1.09899E+00  9.88120E-01  1.10871E-01
    9049.551     49.920   4.000  1.11299E+00  9.87680E-01  1.25306E-01
    9050.776     51.145   4.040  1.12355E+00  9.87309E-01  1.36246E-01
    9052.013     52.383   4.080  1.13097E+00  9.86987E-01  1.43982E-01
    9053.263     53.632   4.120  1.13529E+00  9.86736E-01  1.48557E-01
    9054.525     54.894   4.160  1.13627E+00  9.86534E-01  1.49732E-01
    9055.799     56.168   4.200  1.13337E+00  9.86401E-01  1.46970E-01
    9057.085     57.454   4.240  1.12601E+00  9.86316E-01  1.39699E-01
    9058.384     58.753   4.280  1.11416E+00  9.86300E-01  1.27860E-01
    9059.694     60.063   4.320  1.09845E+00  9.86328E-01  1.12126E-01
    9061.017     61.386   4.360  1.08023E+00  9.86399E-01  9.38293E-02
    9062.352     62.721   4.400  1.06114E+00  9.86513E-01  7.46316E-02
    9063.699     64.069   4.440  1.04275E+00  9.86668E-01  5.60831E-02
    9065.059     65.428   4.480  1.02613E+00  9.86887E-01  3.92392E-02
    9066.430     66.800   4.520  1.01177E+00  9.87125E-01  2.46410E-02
    9067.814     68.183   4.560  9.99834E-01  9.87423E-01  1.24116E-02
    9069.210     69.579   4.600  9.90085E-01  9.87735E-01  2.35019E-03
    9070.618     70.987   4.640  9.82278E-01  9.88082E-01 -5.80426E-03
    9072.039     72.408   4.680  9.76232E-01  9.88464E-01 -1.22319E-02
    9073.471     73.840   4.720  9.71811E-01  9.88856E-01 -1.70444E-02
    9074.916     75.285   4.760  9.68997E-01  9.89278E-01 -2.02809E-02
    9076.373     76.742   4.800  9.67763E-01  9.89708E-01 -2.19456E-02
    9077.842     78.211   4.840  9.68045E-01  9.90168E-01 -2.21230E-02
    9079.323     79.693   4.880  9.69602E-01  9.90634E-01 -2.10323E-02
    9080.817     81.186   4.920  9.72111E-01  9.91124E-01 -1.90135E-02
    9082.322     82.692   4.960  9.75012E-01  9.91593E-01 -1.65810E-02
    9083.840     84.210   5.000  9.77671E-01  9.92061E-01 -1.43902E-02
    9085.370     85.740   5.040  9.79439E-01  9.92551E-01 -1.31115E-02
    9086.913     87.282   5.080  9.79935E-01  9.93015E-01 -1.30801E-02
    9088.467     88.836   5.120  9.79291E-01  9.93475E-01 -1.41840E-02
    9090.034     90.403   5.160  9.77872E-01  9.93927E-01 -1.60549E-02
    9091.613     91.982   5.200  9.76114E-01  9.94350E-01 -1.82359E-02
    9093.204     93.573   5.240  9.74418E-01  9.94765E-01 -2.03463E-02
    9094.807     95.176   5.280  9.73027E-01  9.95148E-01 -2.21208E-02
    9096.422     96.792   5.320  9.71943E-01  9.95522E-01 -2.35784E-02
    9098.050     98.419   5.360  9.70968E-01  9.95883E-01 -2.49153E-02
    9099.690    100.059   5.400  9.69799E-01  9.96188E-01 -2.63893E-02
    9101.342    101.711   5.440  9.68250E-01  9.96478E-01 -2.82280E-02
    9103.006    103.375   5.480  9.66151E-01  9.96731E-01 -3.05796E-02
    9104.683    105.052   5.520  9.63572E-01  9.96947E-01 -3.33754E-02
    9106.371    106.740   5.560  9.60673E-01  9.97148E-01 -3.64745E-02
    9108.072    108.441   5.600  9.57396E-01  9.97286E-01 -3.98902E-02
    9109.785    110.154   5.640  9.53650E-01  9.97408E-01 -4.37577E-02
    9111.510    111.879   5.680  9.49440E-01  9.97469E-01 -4.80289E-02
    9113.247    113.617   5.720  9.45129E-01  9.97512E-01 -5.23827E-02
    9114.997    115.366   5.760  9.41164E-01  9.97516E-01 -5.63520E-02
    9116.759    117.128   5.800  9.38035E-01  9.97456E-01 -5.94206E-02
    9118.533    118.902   5.840  9.36474E-01  9.97380E-01 -6.09065E-02
    9120.319    120.688   5.880  9.37285E-01  9.97266E-01 -5.99814E-02
    9122.117    122.486   5.920  9.41150E-01  9.97090E-01 -5.59403E-02
    9123.928    124.297   5.960  9.48485E-01  9.96897E-01 -4.84121E-02
    9125.750    126.119   6.000  9.59779E-01  9.96640E-01 -3.68617E-02
