# # comment:                                                     FEFF 9.9.1  
# # Source:
# # Structure
# # Reduced
# # space
# # abc:
# # angles:
# # sites:
# # POT  SCF 100  7.0000   0, screened core-hole, AFOLP (folp(0)= 1.150)
# # Abs   Z=29 Rmt= 1.288 Rnm= 1.355 K  shell
# # Pot 1 Z=29 Rmt= 1.288 Rnm= 1.355
# # Pot 2 Z=15 Rmt= 0.941 Rnm= 1.158
# # Pot 3 Z= 1 Rmt= 0.893 Rnm= 0.991
# # Pot 4 Z= 8 Rmt= 0.927 Rnm= 1.045
# # Gam_ch=1.729E+00 H-L exch Vi= 0.000E+00 Vr= 0.000E+00
# # Mu=-6.921E+00eV kf=2.394E+00 Vint=-1.617E+01eV Rs_int= 1.515
# FMS rfms= 9.0000
# # PATH  Rmax=-1.000,  Keep_limit= 0.00, Heap_limit 0.00  Pwcrit= 2.50%
#  S02=0.950  Temp=   0.00  Debye_temp=   0.00  Global_sig2= 0.00000
#  Energy zero shift, vr, vi    0.00000E+00   0.00000E+00
#  Curved wave amplitude ratio filter   4.000%
#     file         sig2 tot  cw amp ratio   deg  nlegs   reff  inp sig2
#     0/   0 paths used
#  xsedge+ 50, used to normalize mu           2.4782E-04
#  -----------------------------------------------------------------------
#  omega    e    k    mu    mu0     chi     @#
    8983.347    -10.731  -1.000  3.46944E-02  4.98601E-02 -1.51657E-02
    8983.645    -10.433  -0.960  3.62829E-02  5.34032E-02 -1.71203E-02
    8983.932    -10.146  -0.920  3.79603E-02  5.73357E-02 -1.93754E-02
    8984.206     -9.872  -0.880  3.97322E-02  6.17149E-02 -2.19827E-02
    8984.468     -9.610  -0.840  4.16045E-02  6.66072E-02 -2.50027E-02
    8984.718     -9.360  -0.800  4.35836E-02  7.20897E-02 -2.85061E-02
    8984.956     -9.122  -0.760  4.56758E-02  7.82507E-02 -3.25749E-02
    8985.182     -8.897  -0.720  4.78878E-02  8.51901E-02 -3.73023E-02
    8985.395     -8.683  -0.680  5.02257E-02  9.30180E-02 -4.27922E-02
    8985.596     -8.482  -0.640  5.26950E-02  1.01850E-01 -4.91553E-02
    8985.785     -8.293  -0.600  5.52990E-02  1.11801E-01 -5.65021E-02
    8985.962     -8.116  -0.560  5.80377E-02  1.22967E-01 -6.49297E-02
    8986.127     -7.952  -0.520  6.09056E-02  1.35407E-01 -7.45013E-02
    8986.279     -7.799  -0.480  6.38883E-02  1.49106E-01 -8.52180E-02
    8986.419     -7.659  -0.440  6.69594E-02  1.63945E-01 -9.69860E-02
    8986.547     -7.531  -0.400  7.00780E-02  1.79666E-01 -1.09588E-01
    8986.663     -7.415  -0.360  7.31878E-02  1.95864E-01 -1.22676E-01
    8986.767     -7.312  -0.320  7.62198E-02  2.12013E-01 -1.35793E-01
    8986.858     -7.220  -0.280  7.90985E-02  2.27528E-01 -1.48429E-01
    8986.937     -7.141  -0.240  8.17494E-02  2.41848E-01 -1.60099E-01
    8987.004     -7.074  -0.200  8.41055E-02  2.54504E-01 -1.70398E-01
    8987.059     -7.019  -0.160  8.61109E-02  2.65149E-01 -1.79038E-01
    8987.102     -6.976  -0.120  8.77206E-02  2.73565E-01 -1.85844E-01
    8987.132     -6.946  -0.080  8.89005E-02  2.79629E-01 -1.90728E-01
    8987.157     -6.921   0.000  8.98771E-02  2.84501E-01 -1.94624E-01
    8987.212     -6.867   0.120  9.21657E-02  2.95472E-01 -2.03307E-01
    8987.254     -6.824   0.160  9.39285E-02  3.04016E-01 -2.10088E-01
    8987.309     -6.769   0.200  9.62088E-02  3.14925E-01 -2.18717E-01
    8987.376     -6.702   0.240  9.90057E-02  3.28032E-01 -2.29026E-01
    8987.455     -6.623   0.280  1.02364E-01  3.43095E-01 -2.40731E-01
    8987.547     -6.531   0.320  1.06334E-01  3.59735E-01 -2.53401E-01
    8987.651     -6.428   0.360  1.10911E-01  3.77437E-01 -2.66526E-01
    8987.766     -6.312   0.400  1.16241E-01  3.95735E-01 -2.79495E-01
    8987.894     -6.184   0.440  1.22409E-01  4.14153E-01 -2.91744E-01
    8988.035     -6.044   0.480  1.29558E-01  4.32315E-01 -3.02757E-01
    8988.187     -5.891   0.520  1.37926E-01  4.49994E-01 -3.12068E-01
    8988.352     -5.727   0.560  1.47855E-01  4.67109E-01 -3.19254E-01
    8988.528     -5.550   0.600  1.59706E-01  4.83592E-01 -3.23886E-01
    8988.717     -5.361   0.640  1.74072E-01  4.99536E-01 -3.25464E-01
    8988.918     -5.160   0.680  1.91540E-01  5.14967E-01 -3.23426E-01
    8989.132     -4.946   0.720  2.12672E-01  5.30023E-01 -3.17351E-01
    8989.357     -4.721   0.760  2.37458E-01  5.44760E-01 -3.07302E-01
    8989.595     -4.483   0.800  2.65027E-01  5.59268E-01 -2.94241E-01
    8989.845     -4.233   0.840  2.93529E-01  5.73603E-01 -2.80074E-01
    8990.107     -3.971   0.880  3.20662E-01  5.87812E-01 -2.67150E-01
    8990.382     -3.697   0.920  3.45320E-01  6.01946E-01 -2.56627E-01
    8990.668     -3.410   0.960  3.68794E-01  6.16010E-01 -2.47216E-01
    8990.967     -3.112   1.000  3.93499E-01  6.30053E-01 -2.36554E-01
    8991.278     -2.801   1.040  4.20398E-01  6.44061E-01 -2.23662E-01
    8991.601     -2.478   1.080  4.49281E-01  6.58032E-01 -2.08751E-01
    8991.936     -2.142   1.120  4.80034E-01  6.71957E-01 -1.91923E-01
    8992.283     -1.795   1.160  5.12856E-01  6.85842E-01 -1.72987E-01
    8992.643     -1.435   1.200  5.48253E-01  6.99671E-01 -1.51419E-01
    8993.015     -1.063   1.240  5.86750E-01  7.13402E-01 -1.26651E-01
    8993.399     -0.679   1.280  6.28627E-01  7.27051E-01 -9.84242E-02
    8993.795     -0.283   1.320  6.73261E-01  7.40556E-01 -6.72945E-02
    8994.204      0.125   1.360  7.18082E-01  7.53906E-01 -3.58242E-02
    8994.624      0.546   1.400  7.58226E-01  7.67074E-01 -8.84790E-03
    8995.057      0.979   1.440  7.92143E-01  7.80051E-01  1.20919E-02
    8995.502      1.424   1.480  8.27815E-01  7.92787E-01  3.50273E-02
    8995.959      1.881   1.520  8.77606E-01  8.05275E-01  7.23312E-02
    8996.429      2.350   1.560  9.41647E-01  8.17481E-01  1.24165E-01
    8996.910      2.832   1.600  1.00478E+00  8.29397E-01  1.75380E-01
    8997.404      3.326   1.640  1.06207E+00  8.40975E-01  2.21099E-01
    8997.910      3.832   1.680  1.11759E+00  8.52206E-01  2.65387E-01
    8998.428      4.350   1.720  1.16170E+00  8.63081E-01  2.98623E-01
    8998.959      4.880   1.760  1.18517E+00  8.73572E-01  3.11600E-01
    8999.501      5.423   1.800  1.19435E+00  8.83654E-01  3.10693E-01
    9000.056      5.978   1.840  1.20416E+00  8.93341E-01  3.10816E-01
    9000.623      6.545   1.880  1.21926E+00  9.02610E-01  3.16654E-01
    9001.202      7.124   1.920  1.22030E+00  9.11456E-01  3.08849E-01
    9001.793      7.715   1.960  1.18987E+00  9.19855E-01  2.70013E-01
    9002.397      8.318   2.000  1.13800E+00  9.27828E-01  2.10175E-01
    9003.012      8.934   2.040  1.08742E+00  9.35355E-01  1.52066E-01
    9003.640      9.562   2.080  1.05437E+00  9.42435E-01  1.11930E-01
    9004.280     10.202   2.120  1.04232E+00  9.49089E-01  9.32263E-02
    9004.933     10.854   2.160  1.04909E+00  9.55300E-01  9.37914E-02
    9005.597     11.519   2.200  1.07168E+00  9.61093E-01  1.10591E-01
    9006.274     12.195   2.240  1.09833E+00  9.66470E-01  1.31864E-01
    9006.963     12.884   2.280  1.10925E+00  9.71436E-01  1.37810E-01
    9007.664     13.585   2.320  1.09735E+00  9.75996E-01  1.21355E-01
    9008.377     14.299   2.360  1.07622E+00  9.80154E-01  9.60672E-02
    9009.102     15.024   2.400  1.06001E+00  9.83939E-01  7.60690E-02
    9009.840     15.762   2.440  1.04947E+00  9.87358E-01  6.21075E-02
    9010.590     16.511   2.480  1.03916E+00  9.90436E-01  4.87194E-02
    9011.352     17.273   2.520  1.02884E+00  9.93162E-01  3.56746E-02
    9012.126     18.048   2.560  1.02115E+00  9.95584E-01  2.55673E-02
    9012.912     18.834   2.600  1.01452E+00  9.97689E-01  1.68302E-02
    9013.711     19.633   2.640  1.00414E+00  9.99505E-01  4.63737E-03
    9014.522     20.443   2.680  9.89278E-01  1.00104E+00 -1.17620E-02
    9015.345     21.266   2.720  9.76569E-01  1.00232E+00 -2.57542E-02
    9016.180     22.101   2.760  9.70226E-01  1.00336E+00 -3.31353E-02
    9017.027     22.949   2.800  9.66454E-01  1.00416E+00 -3.77100E-02
    9017.887     23.808   2.840  9.58266E-01  1.00478E+00 -4.65130E-02
    9018.758     24.680   2.880  9.45591E-01  1.00517E+00 -5.95818E-02
    9019.642     25.564   2.920  9.30975E-01  1.00540E+00 -7.44204E-02
    9020.538     26.460   2.960  9.16924E-01  1.00547E+00 -8.85504E-02
    9021.447     27.368   3.000  9.05000E-01  1.00537E+00 -1.00374E-01
    9022.367     28.289   3.040  8.95833E-01  1.00515E+00 -1.09312E-01
    9023.300     29.222   3.080  8.89482E-01  1.00482E+00 -1.15333E-01
    9024.245     30.166   3.120  8.86125E-01  1.00435E+00 -1.18223E-01
    9025.202     31.123   3.160  8.86111E-01  1.00381E+00 -1.17699E-01
    9026.171     32.093   3.200  8.89264E-01  1.00317E+00 -1.13907E-01
    9027.152     33.074   3.240  8.95215E-01  1.00247E+00 -1.07258E-01
    9028.146     34.068   3.280  9.03143E-01  1.00170E+00 -9.85594E-02
    9029.152     35.074   3.320  9.11876E-01  1.00089E+00 -8.90099E-02
    9030.170     36.092   3.360  9.20260E-01  1.00003E+00 -7.97663E-02
    9031.200     37.122   3.400  9.27642E-01  9.99130E-01 -7.14876E-02
    9032.243     38.164   3.440  9.33787E-01  9.98222E-01 -6.44352E-02
    9033.297     39.219   3.480  9.38831E-01  9.97287E-01 -5.84556E-02
    9034.364     40.286   3.520  9.43275E-01  9.96367E-01 -5.30925E-02
    9035.443     41.365   3.560  9.47658E-01  9.95426E-01 -4.77682E-02
    9036.534     42.456   3.600  9.52685E-01  9.94510E-01 -4.18246E-02
    9037.638     43.559   3.640  9.59099E-01  9.93601E-01 -3.45013E-02
    9038.753     44.675   3.680  9.67628E-01  9.92720E-01 -2.50914E-02
    9039.881     45.803   3.720  9.78613E-01  9.91849E-01 -1.32365E-02
    9041.021     46.943   3.760  9.91895E-01  9.91014E-01  8.81033E-04
    9042.173     48.095   3.800  1.00676E+00  9.90215E-01  1.65401E-02
    9043.337     49.259   3.840  1.02190E+00  9.89454E-01  3.24496E-02
    9044.514     50.436   3.880  1.03587E+00  9.88735E-01  4.71344E-02
    9045.702     51.624   3.920  1.04737E+00  9.88057E-01  5.93182E-02
    9046.903     52.825   3.960  1.05560E+00  9.87442E-01  6.81590E-02
    9048.116     54.038   4.000  1.06020E+00  9.86850E-01  7.33466E-02
    9049.342     55.264   4.040  1.06150E+00  9.86324E-01  7.51796E-02
    9050.579     56.501   4.080  1.06013E+00  9.85865E-01  7.42641E-02
    9051.829     57.751   4.120  1.05673E+00  9.85429E-01  7.13001E-02
    9053.091     59.013   4.160  1.05207E+00  9.85059E-01  6.70072E-02
    9054.365     60.287   4.200  1.04672E+00  9.84737E-01  6.19795E-02
    9055.651     61.573   4.240  1.04105E+00  9.84482E-01  5.65637E-02
    9056.950     62.871   4.280  1.03522E+00  9.84272E-01  5.09432E-02
    9058.260     64.182   4.320  1.02937E+00  9.84108E-01  4.52608E-02
    9059.583     65.505   4.360  1.02372E+00  9.84012E-01  3.97097E-02
    9060.918     66.840   4.400  1.01851E+00  9.83961E-01  3.45484E-02
    9062.265     68.187   4.440  1.01393E+00  9.83954E-01  2.99798E-02
    9063.625     69.546   4.480  1.01001E+00  9.84011E-01  2.59963E-02
    9064.996     70.918   4.520  1.00648E+00  9.84090E-01  2.23893E-02
    9066.380     72.302   4.560  1.00311E+00  9.84232E-01  1.88728E-02
    9067.776     73.698   4.600  9.99629E-01  9.84417E-01  1.52120E-02
    9069.184     75.106   4.640  9.95952E-01  9.84640E-01  1.13129E-02
    9070.605     76.526   4.680  9.92220E-01  9.84900E-01  7.31998E-03
    9072.037     77.959   4.720  9.88838E-01  9.85176E-01  3.66139E-03
    9073.482     79.404   4.760  9.86437E-01  9.85509E-01  9.27569E-04
    9074.939     80.861   4.800  9.85498E-01  9.85856E-01 -3.57794E-04
    9076.408     82.330   4.840  9.86171E-01  9.86234E-01 -6.29380E-05
    9077.889     83.811   4.880  9.88003E-01  9.86622E-01  1.38098E-03
    9079.383     85.305   4.920  9.90106E-01  9.87041E-01  3.06591E-03
    9080.888     86.810   4.960  9.91396E-01  9.87466E-01  3.93000E-03
    9082.406     88.328   5.000  9.91144E-01  9.87919E-01  3.22447E-03
    9083.936     89.858   5.040  9.89139E-01  9.88377E-01  7.62841E-04
    9085.479     91.400   5.080  9.85723E-01  9.88835E-01 -3.11273E-03
    9087.033     92.955   5.120  9.81597E-01  9.89295E-01 -7.69795E-03
    9088.600     94.522   5.160  9.77507E-01  9.89752E-01 -1.22451E-02
    9090.179     96.100   5.200  9.74051E-01  9.90206E-01 -1.61558E-02
    9091.770     97.692   5.240  9.71405E-01  9.90635E-01 -1.92299E-02
    9093.373     99.295   5.280  9.69308E-01  9.91081E-01 -2.17723E-02
    9094.988    100.910   5.320  9.67023E-01  9.91499E-01 -2.44756E-02
    9096.616    102.538   5.360  9.63878E-01  9.91908E-01 -2.80302E-02
    9098.256    104.178   5.400  9.59577E-01  9.92287E-01 -3.27105E-02
    9099.908    105.830   5.440  9.54411E-01  9.92655E-01 -3.82433E-02
    9101.572    107.494   5.480  9.49024E-01  9.92988E-01 -4.39640E-02
    9103.248    109.170   5.520  9.44174E-01  9.93287E-01 -4.91128E-02
    9104.937    110.859   5.560  9.40502E-01  9.93572E-01 -5.30709E-02
    9106.638    112.560   5.600  9.38339E-01  9.93822E-01 -5.54830E-02
    9108.351    114.273   5.640  9.37817E-01  9.94032E-01 -5.62148E-02
    9110.076    115.998   5.680  9.38948E-01  9.94203E-01 -5.52553E-02
    9111.813    117.735   5.720  9.41624E-01  9.94335E-01 -5.27104E-02
    9113.563    119.485   5.760  9.45654E-01  9.94429E-01 -4.87758E-02
    9115.325    121.246   5.800  9.50759E-01  9.94507E-01 -4.37481E-02
    9117.099    123.020   5.840  9.56567E-01  9.94522E-01 -3.79548E-02
    9118.885    124.806   5.880  9.62927E-01  9.94494E-01 -3.15667E-02
    9120.683    126.605   5.920  9.69986E-01  9.94425E-01 -2.44394E-02
    9122.493    128.415   5.960  9.78114E-01  9.94314E-01 -1.62008E-02
    9124.316    130.238   6.000  9.87891E-01  9.94138E-01 -6.24657E-03
