# # comment:                                                     FEFF 9.9.1  
# # Source:
# # Structure
# # Reduced
# # space
# # abc:
# # angles:
# # sites:
# # POT  SCF 100  7.0000   0, screened core-hole, AFOLP (folp(0)= 1.150)
# # Abs   Z=29 Rmt= 1.262 Rnm= 1.384 K  shell
# # Pot 1 Z=29 Rmt= 1.236 Rnm= 1.329
# # Pot 2 Z=34 Rmt= 1.099 Rnm= 1.336
# # Pot 3 Z=17 Rmt= 1.412 Rnm= 1.556
# # Pot 4 Z= 8 Rmt= 1.004 Rnm= 1.104
# # Gam_ch=1.729E+00 H-L exch Vi= 0.000E+00 Vr= 0.000E+00
# # Mu=-6.020E+00eV kf=2.023E+00 Vint=-1.341E+01eV Rs_int= 1.792
# FMS rfms= 9.0000
# # PATH  Rmax=-1.000,  Keep_limit= 0.00, Heap_limit 0.00  Pwcrit= 2.50%
#  S02=0.950  Temp=   0.00  Debye_temp=   0.00  Global_sig2= 0.00000
#  Energy zero shift, vr, vi    0.00000E+00   0.00000E+00
#  Curved wave amplitude ratio filter   4.000%
#     file         sig2 tot  cw amp ratio   deg  nlegs   reff  inp sig2
#     0/   0 paths used
#  xsedge+ 50, used to normalize mu           2.4263E-04
#  -----------------------------------------------------------------------
#  omega    e    k    mu    mu0     chi     @#
    8983.328     -9.830  -1.000  4.60304E-02  5.88958E-02 -1.28654E-02
    8983.626     -9.531  -0.960  4.87260E-02  6.32740E-02 -1.45480E-02
    8983.913     -9.245  -0.920  5.16405E-02  6.81432E-02 -1.65027E-02
    8984.187     -8.970  -0.880  5.47961E-02  7.35753E-02 -1.87793E-02
    8984.449     -8.708  -0.840  5.82175E-02  7.96545E-02 -2.14369E-02
    8984.699     -8.458  -0.800  6.19319E-02  8.64777E-02 -2.45457E-02
    8984.937     -8.221  -0.760  6.59686E-02  9.41564E-02 -2.81878E-02
    8985.163     -7.995  -0.720  7.03588E-02  1.02816E-01 -3.24575E-02
    8985.376     -7.782  -0.680  7.51345E-02  1.12596E-01 -3.74613E-02
    8985.577     -7.581  -0.640  8.03270E-02  1.23641E-01 -4.33137E-02
    8985.766     -7.392  -0.600  8.59639E-02  1.36094E-01 -5.01306E-02
    8985.943     -7.215  -0.560  9.20639E-02  1.50079E-01 -5.80150E-02
    8986.107     -7.050  -0.520  9.86306E-02  1.65667E-01 -6.70360E-02
    8986.260     -6.898  -0.480  1.05643E-01  1.82841E-01 -7.71978E-02
    8986.400     -6.758  -0.440  1.13046E-01  2.01452E-01 -8.84058E-02
    8986.528     -6.630  -0.400  1.20740E-01  2.21176E-01 -1.00437E-01
    8986.644     -6.514  -0.360  1.28576E-01  2.41507E-01 -1.12930E-01
    8986.748     -6.410  -0.320  1.36365E-01  2.61784E-01 -1.25419E-01
    8986.839     -6.319  -0.280  1.43884E-01  2.81275E-01 -1.37391E-01
    8986.918     -6.239  -0.240  1.50907E-01  2.99274E-01 -1.48367E-01
    8986.985     -6.172  -0.200  1.57218E-01  3.15187E-01 -1.57970E-01
    8987.040     -6.118  -0.160  1.62631E-01  3.28581E-01 -1.65949E-01
    8987.083     -6.075  -0.120  1.67000E-01  3.39173E-01 -1.72173E-01
    8987.113     -6.044  -0.080  1.70216E-01  3.46807E-01 -1.76591E-01
    8987.138     -6.020   0.000  1.72885E-01  3.52942E-01 -1.80058E-01
    8987.193     -5.965   0.120  1.78852E-01  3.66779E-01 -1.87927E-01
    8987.235     -5.922   0.160  1.83543E-01  3.77542E-01 -1.93999E-01
    8987.290     -5.868   0.200  1.89638E-01  3.91290E-01 -2.01652E-01
    8987.357     -5.801   0.240  1.97222E-01  4.07847E-01 -2.10625E-01
    8987.436     -5.721   0.280  2.06359E-01  4.26900E-01 -2.20542E-01
    8987.528     -5.630   0.320  2.17064E-01  4.47964E-01 -2.30900E-01
    8987.631     -5.526   0.360  2.29346E-01  4.70439E-01 -2.41093E-01
    8987.747     -5.410   0.400  2.43286E-01  4.93705E-01 -2.50418E-01
    8987.875     -5.282   0.440  2.59049E-01  5.17193E-01 -2.58144E-01
    8988.016     -5.142   0.480  2.76912E-01  5.40400E-01 -2.63488E-01
    8988.168     -4.990   0.520  2.97454E-01  5.63062E-01 -2.65608E-01
    8988.332     -4.825   0.560  3.21365E-01  5.84982E-01 -2.63618E-01
    8988.509     -4.648   0.600  3.49321E-01  6.06158E-01 -2.56838E-01
    8988.698     -4.459   0.640  3.81646E-01  6.26601E-01 -2.44955E-01
    8988.899     -4.258   0.680  4.18115E-01  6.46361E-01 -2.28247E-01
    8989.113     -4.045   0.720  4.58091E-01  6.65521E-01 -2.07431E-01
    8989.338     -3.819   0.760  5.00674E-01  6.84143E-01 -1.83469E-01
    8989.576     -3.582   0.800  5.44741E-01  7.02296E-01 -1.57555E-01
    8989.826     -3.332   0.840  5.88074E-01  7.20017E-01 -1.31943E-01
    8990.088     -3.070   0.880  6.26530E-01  7.37347E-01 -1.10817E-01
    8990.362     -2.795   0.920  6.55277E-01  7.54271E-01 -9.89947E-02
    8990.649     -2.509   0.960  6.71881E-01  7.70826E-01 -9.89454E-02
    8990.948     -2.210   1.000  6.77255E-01  7.86973E-01 -1.09718E-01
    8991.259     -1.899   1.040  6.75466E-01  8.02708E-01 -1.27243E-01
    8991.582     -1.576   1.080  6.74093E-01  8.17979E-01 -1.43886E-01
    8991.917     -1.241   1.120  6.81474E-01  8.32809E-01 -1.51334E-01
    8992.264     -0.893   1.160  7.00288E-01  8.47136E-01 -1.46848E-01
    8992.624     -0.534   1.200  7.24200E-01  8.60917E-01 -1.36718E-01
    8992.996     -0.162   1.240  7.42794E-01  8.74169E-01 -1.31376E-01
    8993.380      0.222   1.280  7.53628E-01  8.86807E-01 -1.33179E-01
    8993.776      0.619   1.320  7.64677E-01  8.98865E-01 -1.34188E-01
    8994.185      1.027   1.360  7.83501E-01  9.10277E-01 -1.26776E-01
    8994.605      1.448   1.400  8.12453E-01  9.21063E-01 -1.08610E-01
    8995.038      1.880   1.440  8.50390E-01  9.31181E-01 -8.07907E-02
    8995.483      2.325   1.480  8.94084E-01  9.40651E-01 -4.65671E-02
    8995.940      2.783   1.520  9.42424E-01  9.49456E-01 -7.03163E-03
    8996.410      3.252   1.560  9.97618E-01  9.57577E-01  4.00415E-02
    8996.891      3.734   1.600  1.05809E+00  9.65064E-01  9.30264E-02
    8997.385      4.227   1.640  1.11391E+00  9.71903E-01  1.42006E-01
    8997.891      4.733   1.680  1.15644E+00  9.78123E-01  1.78315E-01
    8998.409      5.251   1.720  1.18820E+00  9.83715E-01  2.04481E-01
    8998.939      5.782   1.760  1.21368E+00  9.88731E-01  2.24953E-01
    8999.482      6.324   1.800  1.22989E+00  9.93165E-01  2.36730E-01
    9000.037      6.879   1.840  1.23163E+00  9.97071E-01  2.34558E-01
    9000.604      7.446   1.880  1.21892E+00  1.00046E+00  2.18460E-01
    9001.183      8.025   1.920  1.19987E+00  1.00336E+00  1.96509E-01
    9001.774      8.616   1.960  1.18290E+00  1.00582E+00  1.77083E-01
    9002.378      9.220   2.000  1.16694E+00  1.00785E+00  1.59090E-01
    9002.993      9.836   2.040  1.14875E+00  1.00947E+00  1.39283E-01
    9003.621     10.464   2.080  1.13375E+00  1.01074E+00  1.23013E-01
    9004.261     11.104   2.120  1.12903E+00  1.01167E+00  1.17357E-01
    9004.914     11.756   2.160  1.13334E+00  1.01230E+00  1.21041E-01
    9005.578     12.420   2.200  1.13801E+00  1.01267E+00  1.25335E-01
    9006.255     13.097   2.240  1.13517E+00  1.01279E+00  1.22382E-01
    9006.944     13.786   2.280  1.12432E+00  1.01267E+00  1.11650E-01
    9007.645     14.487   2.320  1.10942E+00  1.01237E+00  9.70515E-02
    9008.358     15.200   2.360  1.08909E+00  1.01192E+00  7.71767E-02
    9009.083     15.926   2.400  1.06024E+00  1.01129E+00  4.89560E-02
    9009.821     16.663   2.440  1.03337E+00  1.01056E+00  2.28121E-02
    9010.571     17.413   2.480  1.02071E+00  1.00973E+00  1.09797E-02
    9011.333     18.175   2.520  1.01777E+00  1.00882E+00  8.95245E-03
    9012.107     18.949   2.560  1.01853E+00  1.00783E+00  1.06991E-02
    9012.893     19.736   2.600  1.01984E+00  1.00680E+00  1.30377E-02
    9013.692     20.534   2.640  1.02018E+00  1.00575E+00  1.44328E-02
    9014.503     21.345   2.680  1.01894E+00  1.00469E+00  1.42414E-02
    9015.325     22.168   2.720  1.01568E+00  1.00361E+00  1.20669E-02
    9016.161     23.003   2.760  1.01007E+00  1.00256E+00  7.51213E-03
    9017.008     23.850   2.800  1.00169E+00  1.00154E+00  1.55629E-04
    9017.867     24.710   2.840  9.90438E-01  1.00053E+00 -1.00894E-02
    9018.739     25.582   2.880  9.76886E-01  9.99580E-01 -2.26933E-02
    9019.623     26.465   2.920  9.62087E-01  9.98656E-01 -3.65689E-02
    9020.519     27.362   2.960  9.47601E-01  9.97821E-01 -5.02202E-02
    9021.428     28.270   3.000  9.34788E-01  9.97039E-01 -6.22505E-02
    9022.348     29.190   3.040  9.24465E-01  9.96310E-01 -7.18448E-02
    9023.281     30.123   3.080  9.16946E-01  9.95677E-01 -7.87306E-02
    9024.226     31.068   3.120  9.12124E-01  9.95103E-01 -8.29790E-02
    9025.183     32.025   3.160  9.09468E-01  9.94611E-01 -8.51423E-02
    9026.152     32.994   3.200  9.08321E-01  9.94221E-01 -8.59001E-02
    9027.133     33.976   3.240  9.08146E-01  9.93915E-01 -8.57688E-02
    9028.127     34.969   3.280  9.08606E-01  9.93671E-01 -8.50658E-02
    9029.133     35.975   3.320  9.09700E-01  9.93532E-01 -8.38324E-02
    9030.151     36.993   3.360  9.11652E-01  9.93479E-01 -8.18267E-02
    9031.181     38.023   3.400  9.14749E-01  9.93531E-01 -7.87822E-02
    9032.224     39.066   3.440  9.19039E-01  9.93645E-01 -7.46065E-02
    9033.278     40.120   3.480  9.24590E-01  9.93863E-01 -6.92733E-02
    9034.345     41.187   3.520  9.31316E-01  9.94141E-01 -6.28248E-02
    9035.424     42.266   3.560  9.39258E-01  9.94521E-01 -5.52626E-02
    9036.515     43.357   3.600  9.48467E-01  9.94960E-01 -4.64928E-02
    9037.618     44.461   3.640  9.59031E-01  9.95497E-01 -3.64658E-02
    9038.734     45.576   3.680  9.70823E-01  9.96090E-01 -2.52666E-02
    9039.862     46.704   3.720  9.83510E-01  9.96735E-01 -1.32257E-02
    9041.002     47.844   3.760  9.96708E-01  9.97476E-01 -7.68174E-04
    9042.154     48.996   3.800  1.00998E+00  9.98265E-01  1.17121E-02
    9043.318     50.161   3.840  1.02294E+00  9.99102E-01  2.38365E-02
    9044.495     51.337   3.880  1.03526E+00  9.99983E-01  3.52805E-02
    9045.683     52.526   3.920  1.04665E+00  1.00093E+00  4.57266E-02
    9046.884     53.727   3.960  1.05669E+00  1.00189E+00  5.47962E-02
    9048.097     54.940   4.000  1.06500E+00  1.00291E+00  6.20867E-02
    9049.323     56.165   4.040  1.07130E+00  1.00395E+00  6.73461E-02
    9050.560     57.403   4.080  1.07552E+00  1.00502E+00  7.05063E-02
    9051.810     58.652   4.120  1.07781E+00  1.00609E+00  7.17207E-02
    9053.072     59.914   4.160  1.07860E+00  1.00720E+00  7.14011E-02
    9054.346     61.188   4.200  1.07831E+00  1.00828E+00  7.00360E-02
    9055.632     62.474   4.240  1.07747E+00  1.00938E+00  6.80863E-02
    9056.930     63.773   4.280  1.07622E+00  1.01049E+00  6.57302E-02
    9058.241     65.083   4.320  1.07445E+00  1.01156E+00  6.28847E-02
    9059.564     66.406   4.360  1.07187E+00  1.01265E+00  5.92203E-02
    9060.899     67.741   4.400  1.06807E+00  1.01369E+00  5.43782E-02
    9062.246     69.089   4.440  1.06295E+00  1.01474E+00  4.82166E-02
    9063.606     70.448   4.480  1.05649E+00  1.01573E+00  4.07671E-02
    9064.977     71.820   4.520  1.04889E+00  1.01669E+00  3.21964E-02
    9066.361     73.203   4.560  1.04035E+00  1.01760E+00  2.27465E-02
    9067.757     74.599   4.600  1.03114E+00  1.01849E+00  1.26497E-02
    9069.165     76.007   4.640  1.02143E+00  1.01930E+00  2.12677E-03
    9070.585     77.428   4.680  1.01152E+00  1.02007E+00 -8.55340E-03
    9072.018     78.860   4.720  1.00173E+00  1.02080E+00 -1.90642E-02
    9073.463     80.305   4.760  9.92487E-01  1.02147E+00 -2.89843E-02
    9074.920     81.762   4.800  9.84257E-01  1.02207E+00 -3.78145E-02
    9076.389     83.231   4.840  9.77508E-01  1.02260E+00 -4.50900E-02
    9077.870     84.713   4.880  9.72669E-01  1.02307E+00 -5.03995E-02
    9079.364     86.206   4.920  9.70034E-01  1.02347E+00 -5.34312E-02
    9080.869     87.712   4.960  9.69782E-01  1.02381E+00 -5.40270E-02
    9082.387     89.230   5.000  9.71878E-01  1.02408E+00 -5.21998E-02
    9083.917     90.760   5.040  9.76099E-01  1.02429E+00 -4.81906E-02
    9085.460     92.302   5.080  9.81968E-01  1.02440E+00 -4.24335E-02
    9087.014     93.856   5.120  9.88924E-01  1.02446E+00 -3.55332E-02
    9088.581     95.423   5.160  9.96282E-01  1.02446E+00 -2.81774E-02
    9090.160     97.002   5.200  1.00339E+00  1.02436E+00 -2.09782E-02
    9091.751     98.593   5.240  1.00982E+00  1.02421E+00 -1.43941E-02
    9093.354    100.196   5.280  1.01523E+00  1.02401E+00 -8.78417E-03
    9094.969    101.812   5.320  1.01920E+00  1.02373E+00 -4.53840E-03
    9096.597    103.439   5.360  1.02135E+00  1.02338E+00 -2.03311E-03
    9098.237    105.079   5.400  1.02149E+00  1.02298E+00 -1.49383E-03
    9099.889    106.731   5.440  1.01971E+00  1.02254E+00 -2.82883E-03
    9101.553    108.395   5.480  1.01651E+00  1.02205E+00 -5.54008E-03
    9103.229    110.072   5.520  1.01275E+00  1.02148E+00 -8.73439E-03
    9104.918    111.760   5.560  1.00958E+00  1.02088E+00 -1.13030E-02
    9106.619    113.461   5.600  1.00796E+00  1.02023E+00 -1.22723E-02
    9108.332    115.174   5.640  1.00847E+00  1.01957E+00 -1.10991E-02
    9110.057    116.899   5.680  1.01115E+00  1.01884E+00 -7.69507E-03
    9111.794    118.637   5.720  1.01585E+00  1.01808E+00 -2.22382E-03
    9113.544    120.386   5.760  1.02237E+00  1.01730E+00  5.06464E-03
    9115.306    122.148   5.800  1.03021E+00  1.01650E+00  1.37104E-02
    9117.079    123.922   5.840  1.03849E+00  1.01569E+00  2.27921E-02
    9118.866    125.708   5.880  1.04587E+00  1.01489E+00  3.09772E-02
    9120.664    127.506   5.920  1.05107E+00  1.01406E+00  3.70046E-02
    9122.474    129.317   5.960  1.05332E+00  1.01325E+00  4.00689E-02
    9124.297    131.139   6.000  1.05205E+00  1.01240E+00  3.96415E-02
