# # comment:                                                     FEFF 9.9.1  
# # Source:
# # Structure
# # Reduced
# # space
# # abc:
# # angles:
# # sites:
# # POT  SCF 100  7.0000   0, screened core-hole, AFOLP (folp(0)= 1.150)
# # Abs   Z=29 Rmt= 1.120 Rnm= 1.283 K  shell
# # Pot 1 Z=11 Rmt= 1.482 Rnm= 1.534
# # Pot 2 Z=29 Rmt= 1.201 Rnm= 1.310
# # Pot 3 Z= 8 Rmt= 1.094 Rnm= 1.152
# # Gam_ch=1.729E+00 H-L exch Vi= 0.000E+00 Vr= 0.000E+00
# # Mu=-9.427E+00eV kf=1.835E+00 Vint=-1.505E+01eV Rs_int= 1.976
# FMS rfms= 9.0000
# # PATH  Rmax=-1.000,  Keep_limit= 0.00, Heap_limit 0.00  Pwcrit= 2.50%
#  S02=0.950  Temp=   0.00  Debye_temp=   0.00  Global_sig2= 0.00000
#  Energy zero shift, vr, vi    0.00000E+00   0.00000E+00
#  Curved wave amplitude ratio filter   4.000%
#     file         sig2 tot  cw amp ratio   deg  nlegs   reff  inp sig2
#     0/   0 paths used
#  xsedge+ 50, used to normalize mu           2.4264E-04
#  -----------------------------------------------------------------------
#  omega    e    k    mu    mu0     chi     @#
    8984.759    -13.237  -1.000  3.00654E-02  4.88498E-02 -1.87844E-02
    8985.058    -12.938  -0.960  3.13202E-02  5.21434E-02 -2.08232E-02
    8985.344    -12.652  -0.920  3.26398E-02  5.57768E-02 -2.31370E-02
    8985.619    -12.377  -0.880  3.40281E-02  5.97974E-02 -2.57693E-02
    8985.881    -12.115  -0.840  3.54886E-02  6.42599E-02 -2.87713E-02
    8986.131    -11.865  -0.800  3.70254E-02  6.92274E-02 -3.22019E-02
    8986.368    -11.628  -0.760  3.86424E-02  7.47719E-02 -3.61295E-02
    8986.594    -11.402  -0.720  4.03432E-02  8.09744E-02 -4.06312E-02
    8986.807    -11.189  -0.680  4.21312E-02  8.79234E-02 -4.57922E-02
    8987.008    -10.988  -0.640  4.40087E-02  9.57117E-02 -5.17030E-02
    8987.197    -10.799  -0.600  4.59766E-02  1.04430E-01 -5.84530E-02
    8987.374    -10.622  -0.560  4.80332E-02  1.14153E-01 -6.61200E-02
    8987.539    -10.457  -0.520  5.01726E-02  1.24925E-01 -7.47528E-02
    8987.691    -10.305  -0.480  5.23828E-02  1.36731E-01 -8.43486E-02
    8987.831    -10.165  -0.440  5.46435E-02  1.49469E-01 -9.48254E-02
    8987.959    -10.037  -0.400  5.69246E-02  1.62924E-01 -1.06000E-01
    8988.075     -9.921  -0.360  5.91859E-02  1.76763E-01 -1.17577E-01
    8988.179     -9.817  -0.320  6.13795E-02  1.90552E-01 -1.29172E-01
    8988.270     -9.726  -0.280  6.34546E-02  2.03807E-01 -1.40352E-01
    8988.350     -9.646  -0.240  6.53623E-02  2.16060E-01 -1.50697E-01
    8988.417     -9.579  -0.200  6.70591E-02  2.26912E-01 -1.59852E-01
    8988.471     -9.525  -0.160  6.85073E-02  2.36064E-01 -1.67556E-01
    8988.514     -9.482  -0.120  6.96770E-02  2.43318E-01 -1.73641E-01
    8988.545     -9.451  -0.080  7.05506E-02  2.48557E-01 -1.78006E-01
    8988.569     -9.427   0.000  7.13423E-02  2.52776E-01 -1.81434E-01
    8988.624     -9.372   0.120  7.34485E-02  2.62312E-01 -1.88864E-01
    8988.667     -9.329   0.160  7.48638E-02  2.69753E-01 -1.94889E-01
    8988.721     -9.275   0.200  7.66204E-02  2.79303E-01 -2.02683E-01
    8988.788     -9.208   0.240  7.87070E-02  2.90871E-01 -2.12164E-01
    8988.868     -9.128   0.280  8.11359E-02  3.04296E-01 -2.23160E-01
    8988.959     -9.037   0.320  8.39013E-02  3.19295E-01 -2.35394E-01
    8989.063     -8.933   0.360  8.70559E-02  3.35536E-01 -2.48480E-01
    8989.179     -8.817   0.400  9.07102E-02  3.52657E-01 -2.61947E-01
    8989.307     -8.689   0.440  9.49717E-02  3.70327E-01 -2.75355E-01
    8989.447     -8.549   0.480  1.00063E-01  3.88287E-01 -2.88223E-01
    8989.599     -8.397   0.520  1.06233E-01  4.06331E-01 -3.00099E-01
    8989.764     -8.232   0.560  1.13874E-01  4.24427E-01 -3.10552E-01
    8989.941     -8.055   0.600  1.23362E-01  4.42502E-01 -3.19140E-01
    8990.130     -7.866   0.640  1.35320E-01  4.60633E-01 -3.25313E-01
    8990.331     -7.665   0.680  1.50306E-01  4.78814E-01 -3.28508E-01
    8990.544     -7.452   0.720  1.68916E-01  4.97109E-01 -3.28192E-01
    8990.770     -7.226   0.760  1.91551E-01  5.15533E-01 -3.23983E-01
    8991.007     -6.989   0.800  2.18192E-01  5.34160E-01 -3.15968E-01
    8991.257     -6.739   0.840  2.47661E-01  5.52967E-01 -3.05306E-01
    8991.519     -6.477   0.880  2.76795E-01  5.71962E-01 -2.95167E-01
    8991.794     -6.202   0.920  3.00742E-01  5.91142E-01 -2.90400E-01
    8992.080     -5.916   0.960  3.16173E-01  6.10454E-01 -2.94281E-01
    8992.379     -5.617   1.000  3.24720E-01  6.29917E-01 -3.05197E-01
    8992.690     -5.306   1.040  3.31433E-01  6.49422E-01 -3.17989E-01
    8993.013     -4.983   1.080  3.41519E-01  6.68974E-01 -3.27454E-01
    8993.348     -4.648   1.120  3.58938E-01  6.88473E-01 -3.29534E-01
    8993.696     -4.300   1.160  3.86008E-01  7.07875E-01 -3.21868E-01
    8994.055     -3.941   1.200  4.21051E-01  7.27115E-01 -3.06064E-01
    8994.427     -3.569   1.240  4.57554E-01  7.46145E-01 -2.88591E-01
    8994.811     -3.185   1.280  4.88748E-01  7.64875E-01 -2.76127E-01
    8995.208     -2.788   1.320  5.12706E-01  7.83234E-01 -2.70527E-01
    8995.616     -2.380   1.360  5.28597E-01  8.01173E-01 -2.72576E-01
    8996.037     -1.959   1.400  5.35042E-01  8.18646E-01 -2.83604E-01
    8996.469     -1.527   1.440  5.37137E-01  8.35565E-01 -2.98428E-01
    8996.914     -1.082   1.480  5.44454E-01  8.51885E-01 -3.07430E-01
    8997.372     -0.624   1.520  5.61333E-01  8.67586E-01 -3.06252E-01
    8997.841     -0.155   1.560  5.92201E-01  8.82607E-01 -2.90406E-01
    8998.323      0.327   1.600  6.42308E-01  8.96912E-01 -2.54604E-01
    8998.816      0.820   1.640  7.02230E-01  9.10468E-01 -2.08237E-01
    8999.322      1.326   1.680  7.51896E-01  9.23285E-01 -1.71389E-01
    8999.840      1.844   1.720  7.89198E-01  9.35316E-01 -1.46118E-01
    9000.371      2.375   1.760  8.22791E-01  9.46556E-01 -1.23765E-01
    9000.913      2.917   1.800  8.50765E-01  9.57026E-01 -1.06261E-01
    9001.468      3.472   1.840  8.69865E-01  9.66686E-01 -9.68210E-02
    9002.035      4.039   1.880  8.83611E-01  9.75583E-01 -9.19718E-02
    9002.614      4.618   1.920  8.99645E-01  9.83723E-01 -8.40775E-02
    9003.205      5.209   1.960  9.24325E-01  9.91115E-01 -6.67905E-02
    9003.809      5.813   2.000  9.61329E-01  9.97790E-01 -3.64616E-02
    9004.425      6.429   2.040  1.00993E+00  1.00374E+00  6.19116E-03
    9005.053      7.057   2.080  1.06692E+00  1.00904E+00  5.78815E-02
    9005.693      7.697   2.120  1.12777E+00  1.01366E+00  1.14105E-01
    9006.345      8.349   2.160  1.18660E+00  1.01771E+00  1.68886E-01
    9007.009      9.013   2.200  1.24091E+00  1.02115E+00  2.19760E-01
    9007.686      9.690   2.240  1.29407E+00  1.02405E+00  2.70013E-01
    9008.375     10.379   2.280  1.33447E+00  1.02642E+00  3.08050E-01
    9009.076     11.080   2.320  1.37029E+00  1.02832E+00  3.41966E-01
    9009.789     11.793   2.360  1.40068E+00  1.02977E+00  3.70901E-01
    9010.515     12.519   2.400  1.42143E+00  1.03083E+00  3.90600E-01
    9011.252     13.256   2.440  1.42342E+00  1.03149E+00  3.91926E-01
    9012.002     14.006   2.480  1.40168E+00  1.03181E+00  3.69867E-01
    9012.764     14.768   2.520  1.35839E+00  1.03181E+00  3.26589E-01
    9013.538     15.542   2.560  1.30174E+00  1.03154E+00  2.70203E-01
    9014.325     16.329   2.600  1.24204E+00  1.03101E+00  2.11028E-01
    9015.123     17.127   2.640  1.18610E+00  1.03025E+00  1.55849E-01
    9015.934     17.938   2.680  1.13713E+00  1.02928E+00  1.07850E-01
    9016.757     18.761   2.720  1.09642E+00  1.02815E+00  6.82773E-02
    9017.592     19.596   2.760  1.06306E+00  1.02687E+00  3.61929E-02
    9018.439     20.443   2.800  1.03559E+00  1.02545E+00  1.01389E-02
    9019.299     21.303   2.840  1.01299E+00  1.02393E+00 -1.09438E-02
    9020.171     22.175   2.880  9.94530E-01  1.02235E+00 -2.78234E-02
    9021.054     23.058   2.920  9.79035E-01  1.02068E+00 -4.16431E-02
    9021.951     23.955   2.960  9.65504E-01  1.01898E+00 -5.34722E-02
    9022.859     24.863   3.000  9.52969E-01  1.01722E+00 -6.42475E-02
    9023.779     25.783   3.040  9.40621E-01  1.01547E+00 -7.48468E-02
    9024.712     26.716   3.080  9.28020E-01  1.01370E+00 -8.56764E-02
    9025.657     27.661   3.120  9.15249E-01  1.01195E+00 -9.67021E-02
    9026.614     28.618   3.160  9.02643E-01  1.01021E+00 -1.07571E-01
    9027.583     29.587   3.200  8.90830E-01  1.00851E+00 -1.17685E-01
    9028.565     30.569   3.240  8.80828E-01  1.00686E+00 -1.26030E-01
    9029.558     31.562   3.280  8.73560E-01  1.00527E+00 -1.31706E-01
    9030.564     32.568   3.320  8.69677E-01  1.00372E+00 -1.34047E-01
    9031.582     33.586   3.360  8.69553E-01  1.00226E+00 -1.32705E-01
    9032.612     34.616   3.400  8.73224E-01  1.00085E+00 -1.27622E-01
    9033.655     35.659   3.440  8.80427E-01  9.99536E-01 -1.19109E-01
    9034.709     36.713   3.480  8.90734E-01  9.98287E-01 -1.07553E-01
    9035.776     37.780   3.520  9.03796E-01  9.97144E-01 -9.33479E-02
    9036.855     38.859   3.560  9.18898E-01  9.96088E-01 -7.71900E-02
    9037.946     39.950   3.600  9.35151E-01  9.95142E-01 -5.99913E-02
    9039.050     41.054   3.640  9.51223E-01  9.94263E-01 -4.30401E-02
    9040.165     42.169   3.680  9.65585E-01  9.93516E-01 -2.79309E-02
    9041.293     43.297   3.720  9.76623E-01  9.92838E-01 -1.62151E-02
    9042.433     44.437   3.760  9.83609E-01  9.92294E-01 -8.68436E-03
    9043.585     45.589   3.800  9.86762E-01  9.91819E-01 -5.05726E-03
    9044.750     46.754   3.840  9.87135E-01  9.91456E-01 -4.32124E-03
    9045.926     47.930   3.880  9.85936E-01  9.91206E-01 -5.26926E-03
    9047.115     49.119   3.920  9.84040E-01  9.91047E-01 -7.00665E-03
    9048.316     50.320   3.960  9.81796E-01  9.90999E-01 -9.20334E-03
    9049.529     51.533   4.000  9.79124E-01  9.91040E-01 -1.19158E-02
    9050.754     52.758   4.040  9.76012E-01  9.91166E-01 -1.51548E-02
    9051.992     53.996   4.080  9.72675E-01  9.91380E-01 -1.87050E-02
    9053.241     55.245   4.120  9.69612E-01  9.91701E-01 -2.20887E-02
    9054.503     56.507   4.160  9.67353E-01  9.92106E-01 -2.47523E-02
    9055.777     57.781   4.200  9.66329E-01  9.92592E-01 -2.62625E-02
    9057.063     59.067   4.240  9.66759E-01  9.93137E-01 -2.63779E-02
    9058.362     60.366   4.280  9.68894E-01  9.93783E-01 -2.48886E-02
    9059.672     61.676   4.320  9.72980E-01  9.94506E-01 -2.15263E-02
    9060.995     62.999   4.360  9.79209E-01  9.95281E-01 -1.60718E-02
    9062.330     64.334   4.400  9.87524E-01  9.96105E-01 -8.58146E-03
    9063.678     65.682   4.440  9.97443E-01  9.96999E-01  4.44395E-04
    9065.037     67.041   4.480  1.00802E+00  9.97940E-01  1.00823E-02
    9066.409     68.413   4.520  1.01807E+00  9.98945E-01  1.91230E-02
    9067.792     69.796   4.560  1.02663E+00  9.99969E-01  2.66566E-02
    9069.188     71.192   4.600  1.03333E+00  1.00103E+00  3.22991E-02
    9070.596     72.600   4.640  1.03838E+00  1.00213E+00  3.62495E-02
    9072.017     74.021   4.680  1.04252E+00  1.00326E+00  3.92594E-02
    9073.449     75.453   4.720  1.04683E+00  1.00441E+00  4.24196E-02
    9074.894     76.898   4.760  1.05220E+00  1.00557E+00  4.66214E-02
    9076.351     78.355   4.800  1.05874E+00  1.00672E+00  5.20143E-02
    9077.820     79.824   4.840  1.06570E+00  1.00790E+00  5.77986E-02
    9079.301     81.305   4.880  1.07176E+00  1.00907E+00  6.26933E-02
    9080.795     82.799   4.920  1.07605E+00  1.01024E+00  6.58129E-02
    9082.301     84.305   4.960  1.07850E+00  1.01137E+00  6.71240E-02
    9083.819     85.823   5.000  1.07983E+00  1.01248E+00  6.73546E-02
    9085.349     87.353   5.040  1.08104E+00  1.01357E+00  6.74731E-02
    9086.891     88.895   5.080  1.08264E+00  1.01465E+00  6.79889E-02
    9088.445     90.449   5.120  1.08423E+00  1.01566E+00  6.85638E-02
    9090.012     92.016   5.160  1.08468E+00  1.01666E+00  6.80230E-02
    9091.591     93.595   5.200  1.08247E+00  1.01759E+00  6.48795E-02
    9093.182     95.186   5.240  1.07654E+00  1.01848E+00  5.80630E-02
    9094.785     96.789   5.280  1.06668E+00  1.01932E+00  4.73602E-02
    9096.401     98.405   5.320  1.05357E+00  1.02011E+00  3.34562E-02
    9098.028    100.032   5.360  1.03838E+00  1.02083E+00  1.75443E-02
    9099.668    101.672   5.400  1.02243E+00  1.02150E+00  9.36420E-04
    9101.320    103.324   5.440  1.00708E+00  1.02207E+00 -1.49888E-02
    9102.984    104.988   5.480  9.93907E-01  1.02260E+00 -2.86947E-02
    9104.661    106.665   5.520  9.84294E-01  1.02304E+00 -3.87450E-02
    9106.349    108.353   5.560  9.78966E-01  1.02342E+00 -4.44533E-02
    9108.050    110.054   5.600  9.77464E-01  1.02372E+00 -4.62561E-02
    9109.763    111.767   5.640  9.78543E-01  1.02394E+00 -4.53995E-02
    9111.488    113.492   5.680  9.80902E-01  1.02408E+00 -4.31821E-02
    9113.226    115.230   5.720  9.83612E-01  1.02415E+00 -4.05337E-02
    9114.975    116.979   5.760  9.86030E-01  1.02415E+00 -3.81217E-02
    9116.737    118.741   5.800  9.87448E-01  1.02406E+00 -3.66084E-02
    9118.511    120.515   5.840  9.87377E-01  1.02391E+00 -3.65295E-02
    9120.297    122.301   5.880  9.85681E-01  1.02368E+00 -3.79987E-02
    9122.095    124.099   5.920  9.82806E-01  1.02337E+00 -4.05683E-02
    9123.906    125.910   5.960  9.79717E-01  1.02298E+00 -4.32654E-02
    9125.728    127.732   6.000  9.77631E-01  1.02248E+00 -4.48526E-02
