# # comment:                                                     FEFF 9.9.1  
# # Source:
# # Structure
# # Reduced
# # space
# # abc:
# # angles:
# # sites:
# # POT  SCF 100  7.0000   0, screened core-hole, AFOLP (folp(0)= 1.150)
# # Abs   Z=29 Rmt= 1.275 Rnm= 1.362 K  shell
# # Pot 1 Z=29 Rmt= 1.275 Rnm= 1.362
# # Pot 2 Z= 8 Rmt= 1.057 Rnm= 1.127
# # Gam_ch=1.729E+00 H-L exch Vi= 0.000E+00 Vr= 0.000E+00
# # Mu=-6.431E+00eV kf=2.086E+00 Vint=-1.460E+01eV Rs_int= 1.739
# FMS rfms= 9.0000
# # PATH  Rmax=-1.000,  Keep_limit= 0.00, Heap_limit 0.00  Pwcrit= 2.50%
#  S02=0.950  Temp=   0.00  Debye_temp=   0.00  Global_sig2= 0.00000
#  Energy zero shift, vr, vi    0.00000E+00   0.00000E+00
#  Curved wave amplitude ratio filter   4.000%
#     file         sig2 tot  cw amp ratio   deg  nlegs   reff  inp sig2
#     0/   0 paths used
#  xsedge+ 50, used to normalize mu           2.4381E-04
#  -----------------------------------------------------------------------
#  omega    e    k    mu    mu0     chi     @#
    8983.575    -10.241  -1.000  4.34647E-02  5.90825E-02 -1.56177E-02
    8983.874     -9.942  -0.960  4.58035E-02  6.34981E-02 -1.76946E-02
    8984.161     -9.656  -0.920  4.83082E-02  6.84125E-02 -2.01043E-02
    8984.435     -9.381  -0.880  5.09929E-02  7.38994E-02 -2.29066E-02
    8984.697     -9.119  -0.840  5.38726E-02  8.00447E-02 -2.61721E-02
    8984.947     -8.869  -0.800  5.69637E-02  8.69479E-02 -2.99842E-02
    8985.185     -8.631  -0.760  6.02831E-02  9.47232E-02 -3.44400E-02
    8985.410     -8.406  -0.720  6.38485E-02  1.03500E-01 -3.96510E-02
    8985.624     -8.193  -0.680  6.76772E-02  1.13419E-01 -4.57420E-02
    8985.825     -7.991  -0.640  7.17848E-02  1.24632E-01 -5.28472E-02
    8986.014     -7.802  -0.600  7.61838E-02  1.37286E-01 -6.11018E-02
    8986.191     -7.626  -0.560  8.08794E-02  1.51506E-01 -7.06262E-02
    8986.355     -7.461  -0.520  8.58658E-02  1.67367E-01 -8.15014E-02
    8986.507     -7.309  -0.480  9.11196E-02  1.84854E-01 -9.37348E-02
    8986.648     -7.168  -0.440  9.65934E-02  2.03814E-01 -1.07220E-01
    8986.776     -7.040  -0.400  1.02210E-01  2.23915E-01 -1.21704E-01
    8986.892     -6.925  -0.360  1.07862E-01  2.44637E-01 -1.36775E-01
    8986.995     -6.821  -0.320  1.13416E-01  2.65305E-01 -1.51890E-01
    8987.087     -6.730  -0.280  1.18722E-01  2.85169E-01 -1.66447E-01
    8987.166     -6.650  -0.240  1.23635E-01  3.03507E-01 -1.79873E-01
    8987.233     -6.583  -0.200  1.28020E-01  3.19715E-01 -1.91695E-01
    8987.288     -6.528  -0.160  1.31763E-01  3.33349E-01 -2.01586E-01
    8987.330     -6.486  -0.120  1.34771E-01  3.44127E-01 -2.09356E-01
    8987.361     -6.455  -0.080  1.36971E-01  3.51891E-01 -2.14920E-01
    8987.385     -6.431   0.000  1.38768E-01  3.58129E-01 -2.19361E-01
    8987.440     -6.376   0.120  1.43042E-01  3.72190E-01 -2.29148E-01
    8987.483     -6.333   0.160  1.46385E-01  3.83119E-01 -2.36735E-01
    8987.538     -6.278   0.200  1.50763E-01  3.97067E-01 -2.46304E-01
    8987.605     -6.211   0.240  1.56269E-01  4.13865E-01 -2.57596E-01
    8987.684     -6.132   0.280  1.62962E-01  4.33140E-01 -2.70178E-01
    8987.775     -6.041   0.320  1.70958E-01  4.54403E-01 -2.83445E-01
    8987.879     -5.937   0.360  1.80414E-01  4.77045E-01 -2.96631E-01
    8987.995     -5.821   0.400  1.91521E-01  5.00418E-01 -3.08897E-01
    8988.123     -5.693   0.440  2.04470E-01  5.23867E-01 -3.19397E-01
    8988.263     -5.553   0.480  2.19496E-01  5.46952E-01 -3.27457E-01
    8988.416     -5.401   0.520  2.36846E-01  5.69358E-01 -3.32512E-01
    8988.580     -5.236   0.560  2.56933E-01  5.90925E-01 -3.33993E-01
    8988.757     -5.059   0.600  2.80494E-01  6.11613E-01 -3.31120E-01
    8988.946     -4.870   0.640  3.08837E-01  6.31439E-01 -3.22603E-01
    8989.147     -4.669   0.680  3.43814E-01  6.50504E-01 -3.06690E-01
    8989.360     -4.456   0.720  3.87167E-01  6.68899E-01 -2.81732E-01
    8989.586     -4.230   0.760  4.38977E-01  6.86678E-01 -2.47701E-01
    8989.824     -3.992   0.800  4.95377E-01  7.03942E-01 -2.08564E-01
    8990.074     -3.742   0.840  5.46783E-01  7.20757E-01 -1.73974E-01
    8990.336     -3.480   0.880  5.81674E-01  7.37134E-01 -1.55460E-01
    8990.610     -3.206   0.920  5.95836E-01  7.53110E-01 -1.57273E-01
    8990.897     -2.920   0.960  5.96188E-01  7.68729E-01 -1.72541E-01
    8991.195     -2.621   1.000  5.94037E-01  7.83962E-01 -1.89925E-01
    8991.506     -2.310   1.040  5.97363E-01  7.98812E-01 -2.01449E-01
    8991.829     -1.987   1.080  6.07977E-01  8.13275E-01 -2.05298E-01
    8992.165     -1.652   1.120  6.21240E-01  8.27340E-01 -2.06100E-01
    8992.512     -1.304   1.160  6.29941E-01  8.40951E-01 -2.11010E-01
    8992.872     -0.944   1.200  6.33873E-01  8.54110E-01 -2.20236E-01
    8993.244     -0.573   1.240  6.42388E-01  8.66816E-01 -2.24429E-01
    8993.628     -0.189   1.280  6.63969E-01  8.79007E-01 -2.15037E-01
    8994.024      0.208   1.320  6.98343E-01  8.90659E-01 -1.92315E-01
    8994.432      0.616   1.360  7.41865E-01  9.01812E-01 -1.59947E-01
    8994.853      1.037   1.400  7.99419E-01  9.12381E-01 -1.12963E-01
    8995.286      1.470   1.440  8.82753E-01  9.22388E-01 -3.96342E-02
    8995.731      1.915   1.480  9.90338E-01  9.31828E-01  5.85098E-02
    8996.188      2.372   1.520  1.09918E+00  9.40706E-01  1.58470E-01
    8996.657      2.841   1.560  1.18668E+00  9.48980E-01  2.37701E-01
    8997.139      3.323   1.600  1.24286E+00  9.56675E-01  2.86180E-01
    8997.633      3.817   1.640  1.26679E+00  9.63776E-01  3.03012E-01
    8998.139      4.322   1.680  1.27807E+00  9.70330E-01  3.07743E-01
    8998.657      4.841   1.720  1.31291E+00  9.76324E-01  3.36590E-01
    8999.187      5.371   1.760  1.39204E+00  9.81766E-01  4.10278E-01
    8999.730      5.914   1.800  1.48820E+00  9.86687E-01  5.01508E-01
    9000.284      6.468   1.840  1.54336E+00  9.91118E-01  5.52244E-01
    9000.851      7.035   1.880  1.52804E+00  9.95029E-01  5.33012E-01
    9001.430      7.614   1.920  1.45192E+00  9.98493E-01  4.53431E-01
    9002.022      8.206   1.960  1.33708E+00  1.00152E+00  3.35557E-01
    9002.625      8.809   2.000  1.19372E+00  1.00413E+00  1.89590E-01
    9003.241      9.425   2.040  1.04851E+00  1.00633E+00  4.21770E-02
    9003.869     10.053   2.080  9.37342E-01  1.00818E+00 -7.08366E-02
    9004.509     10.693   2.120  8.75023E-01  1.00966E+00 -1.34641E-01
    9005.161     11.345   2.160  8.60317E-01  1.01084E+00 -1.50524E-01
    9005.826     12.010   2.200  8.88227E-01  1.01175E+00 -1.23519E-01
    9006.502     12.686   2.240  9.52463E-01  1.01237E+00 -5.99067E-02
    9007.191     13.375   2.280  1.04522E+00  1.01274E+00  3.24767E-02
    9007.892     14.076   2.320  1.14454E+00  1.01290E+00  1.31633E-01
    9008.605     14.789   2.360  1.21205E+00  1.01288E+00  1.99172E-01
    9009.331     15.515   2.400  1.22911E+00  1.01266E+00  2.16450E-01
    9010.068     16.252   2.440  1.21717E+00  1.01231E+00  2.04863E-01
    9010.818     17.002   2.480  1.20822E+00  1.01182E+00  1.96398E-01
    9011.580     17.764   2.520  1.18868E+00  1.01121E+00  1.77476E-01
    9012.354     18.538   2.560  1.14777E+00  1.01049E+00  1.37286E-01
    9013.141     19.325   2.600  1.08991E+00  1.00970E+00  8.02111E-02
    9013.939     20.123   2.640  1.03471E+00  1.00887E+00  2.58420E-02
    9014.750     20.934   2.680  9.88683E-01  1.00798E+00 -1.93007E-02
    9015.573     21.757   2.720  9.49671E-01  1.00704E+00 -5.73689E-02
    9016.408     22.592   2.760  9.15026E-01  1.00611E+00 -9.10792E-02
    9017.256     23.439   2.800  8.84763E-01  1.00514E+00 -1.20380E-01
    9018.115     24.299   2.840  8.60810E-01  1.00418E+00 -1.43370E-01
    9018.987     25.171   2.880  8.43960E-01  1.00324E+00 -1.59282E-01
    9019.871     26.055   2.920  8.34211E-01  1.00231E+00 -1.68102E-01
    9020.767     26.951   2.960  8.31397E-01  1.00142E+00 -1.70023E-01
    9021.675     27.859   3.000  8.34387E-01  1.00056E+00 -1.66176E-01
    9022.596     28.780   3.040  8.41649E-01  9.99769E-01 -1.58120E-01
    9023.528     29.712   3.080  8.51017E-01  9.98998E-01 -1.47981E-01
    9024.473     30.657   3.120  8.60167E-01  9.98293E-01 -1.38126E-01
    9025.430     31.614   3.160  8.67262E-01  9.97636E-01 -1.30373E-01
    9026.400     32.583   3.200  8.71695E-01  9.97049E-01 -1.25355E-01
    9027.381     33.565   3.240  8.74065E-01  9.96515E-01 -1.22451E-01
    9028.375     34.559   3.280  8.75870E-01  9.96056E-01 -1.20186E-01
    9029.380     35.564   3.320  8.79020E-01  9.95672E-01 -1.16652E-01
    9030.399     36.582   3.360  8.85258E-01  9.95365E-01 -1.10106E-01
    9031.429     37.613   3.400  8.95297E-01  9.95134E-01 -9.98368E-02
    9032.471     38.655   3.440  9.08733E-01  9.94958E-01 -8.62246E-02
    9033.526     39.710   3.480  9.24690E-01  9.94858E-01 -7.01681E-02
    9034.593     40.776   3.520  9.42114E-01  9.94836E-01 -5.27216E-02
    9035.672     41.855   3.560  9.60152E-01  9.94888E-01 -3.47359E-02
    9036.763     42.947   3.600  9.78371E-01  9.94993E-01 -1.66220E-02
    9037.866     44.050   3.640  9.96449E-01  9.95174E-01  1.27523E-03
    9038.982     45.166   3.680  1.01366E+00  9.95429E-01  1.82267E-02
    9040.109     46.293   3.720  1.02888E+00  9.95756E-01  3.31246E-02
    9041.249     47.433   3.760  1.04086E+00  9.96112E-01  4.47533E-02
    9042.401     48.585   3.800  1.04865E+00  9.96557E-01  5.20896E-02
    9043.566     49.750   3.840  1.05229E+00  9.97027E-01  5.52646E-02
    9044.742     50.926   3.880  1.05362E+00  9.97565E-01  5.60516E-02
    9045.931     52.115   3.920  1.05533E+00  9.98146E-01  5.71841E-02
    9047.132     53.316   3.960  1.05998E+00  9.98792E-01  6.11914E-02
    9048.345     54.529   4.000  1.06895E+00  9.99456E-01  6.94950E-02
    9049.570     55.754   4.040  1.08214E+00  1.00016E+00  8.19793E-02
    9050.808     56.992   4.080  1.09795E+00  1.00089E+00  9.70647E-02
    9052.058     58.241   4.120  1.11376E+00  1.00164E+00  1.12118E-01
    9053.319     59.503   4.160  1.12675E+00  1.00244E+00  1.24308E-01
    9054.593     60.777   4.200  1.13458E+00  1.00322E+00  1.31350E-01
    9055.880     62.064   4.240  1.13616E+00  1.00404E+00  1.32121E-01
    9057.178     63.362   4.280  1.13146E+00  1.00485E+00  1.26602E-01
    9058.489     64.673   4.320  1.12100E+00  1.00567E+00  1.15329E-01
    9059.812     65.995   4.360  1.10572E+00  1.00651E+00  9.92125E-02
    9061.147     67.330   4.400  1.08701E+00  1.00733E+00  7.96833E-02
    9062.494     68.678   4.440  1.06679E+00  1.00814E+00  5.86553E-02
    9063.853     70.037   4.480  1.04688E+00  1.00891E+00  3.79672E-02
    9065.225     71.409   4.520  1.02863E+00  1.00971E+00  1.89228E-02
    9066.609     72.792   4.560  1.01248E+00  1.01044E+00  2.03866E-03
    9068.005     74.188   4.600  9.98389E-01  1.01117E+00 -1.27788E-02
    9069.413     75.597   4.640  9.86198E-01  1.01188E+00 -2.56801E-02
    9070.833     77.017   4.680  9.76072E-01  1.01253E+00 -3.64573E-02
    9072.266     78.450   4.720  9.68526E-01  1.01316E+00 -4.46373E-02
    9073.710     79.894   4.760  9.63753E-01  1.01375E+00 -5.00013E-02
    9075.167     81.351   4.800  9.61255E-01  1.01428E+00 -5.30274E-02
    9076.636     82.820   4.840  9.60135E-01  1.01479E+00 -5.46541E-02
    9078.118     84.302   4.880  9.59560E-01  1.01525E+00 -5.56924E-02
    9079.611     85.795   4.920  9.58986E-01  1.01565E+00 -5.66613E-02
    9081.117     87.301   4.960  9.58296E-01  1.01599E+00 -5.76980E-02
    9082.635     88.819   5.000  9.57728E-01  1.01629E+00 -5.85665E-02
    9084.165     90.349   5.040  9.57761E-01  1.01653E+00 -5.87649E-02
    9085.707     91.891   5.080  9.58910E-01  1.01673E+00 -5.78214E-02
    9087.262     93.446   5.120  9.61176E-01  1.01685E+00 -5.56694E-02
    9088.828     95.012   5.160  9.64139E-01  1.01693E+00 -5.27935E-02
    9090.407     96.591   5.200  9.67015E-01  1.01695E+00 -4.99351E-02
    9091.998     98.182   5.240  9.69396E-01  1.01692E+00 -4.75242E-02
    9093.602     99.785   5.280  9.71521E-01  1.01684E+00 -4.53229E-02
    9095.217    101.401   5.320  9.74205E-01  1.01670E+00 -4.24921E-02
    9096.845    103.028   5.360  9.78768E-01  1.01650E+00 -3.77364E-02
    9098.484    104.668   5.400  9.86501E-01  1.01627E+00 -2.97657E-02
    9100.136    106.320   5.440  9.98016E-01  1.01598E+00 -1.79678E-02
    9101.801    107.985   5.480  1.01263E+00  1.01563E+00 -3.00760E-03
    9103.477    109.661   5.520  1.02821E+00  1.01526E+00  1.29491E-02
    9105.166    111.350   5.560  1.04142E+00  1.01483E+00  2.65948E-02
    9106.866    113.050   5.600  1.04922E+00  1.01435E+00  3.48690E-02
    9108.579    114.763   5.640  1.05042E+00  1.01386E+00  3.65665E-02
    9110.305    116.488   5.680  1.04597E+00  1.01330E+00  3.26698E-02
    9112.042    118.226   5.720  1.03818E+00  1.01273E+00  2.54459E-02
    9113.791    119.975   5.760  1.02972E+00  1.01213E+00  1.75867E-02
    9115.553    121.737   5.800  1.02298E+00  1.01149E+00  1.14906E-02
    9117.327    123.511   5.840  1.01924E+00  1.01085E+00  8.39439E-03
    9119.113    125.297   5.880  1.01826E+00  1.01018E+00  8.07793E-03
    9120.912    127.095   5.920  1.01895E+00  1.00951E+00  9.44402E-03
    9122.722    128.906   5.960  1.01993E+00  1.00882E+00  1.11115E-02
    9124.545    130.729   6.000  1.01964E+00  1.00812E+00  1.15237E-02
