# # comment:                                                     FEFF 9.9.1  
# # Source:
# # Structure
# # Reduced
# # space
# # abc:
# # angles:106.713447
# # sites:
# # POT  SCF 100  7.0000   0, screened core-hole, AFOLP (folp(0)= 1.150)
# # Abs   Z=29 Rmt= 1.224 Rnm= 1.313 K  shell
# # Pot 1 Z=27 Rmt= 1.249 Rnm= 1.347
# # Pot 2 Z=29 Rmt= 1.238 Rnm= 1.296
# # Pot 3 Z= 8 Rmt= 1.023 Rnm= 1.092
# # Gam_ch=1.729E+00 H-L exch Vi= 0.000E+00 Vr= 0.000E+00
# # Mu=-1.101E+01eV kf=2.236E+00 Vint=-1.848E+01eV Rs_int= 1.622
# FMS rfms= 9.0000
# # PATH  Rmax=-1.000,  Keep_limit= 0.00, Heap_limit 0.00  Pwcrit= 2.50%
#  S02=0.950  Temp=   0.00  Debye_temp=   0.00  Global_sig2= 0.00000
#  Energy zero shift, vr, vi    0.00000E+00   0.00000E+00
#  Curved wave amplitude ratio filter   4.000%
#     file         sig2 tot  cw amp ratio   deg  nlegs   reff  inp sig2
#     0/   0 paths used
#  xsedge+ 50, used to normalize mu           2.5133E-04
#  -----------------------------------------------------------------------
#  omega    e    k    mu    mu0     chi     @#
    8984.144    -14.824  -1.000  2.85707E-02  4.37816E-02 -1.52109E-02
    8984.443    -14.525  -0.960  2.98671E-02  4.67157E-02 -1.68487E-02
    8984.729    -14.239  -0.920  3.12580E-02  4.99579E-02 -1.86999E-02
    8985.004    -13.964  -0.880  3.27552E-02  5.35520E-02 -2.07968E-02
    8985.266    -13.702  -0.840  3.43723E-02  5.75492E-02 -2.31769E-02
    8985.516    -13.452  -0.800  3.61248E-02  6.20085E-02 -2.58837E-02
    8985.753    -13.214  -0.760  3.80304E-02  6.69975E-02 -2.89671E-02
    8985.979    -12.989  -0.720  4.01090E-02  7.25923E-02 -3.24833E-02
    8986.192    -12.776  -0.680  4.23821E-02  7.88767E-02 -3.64946E-02
    8986.393    -12.574  -0.640  4.48721E-02  8.59386E-02 -4.10665E-02
    8986.582    -12.385  -0.600  4.76007E-02  9.38642E-02 -4.62635E-02
    8986.759    -12.209  -0.560  5.05854E-02  1.02726E-01 -5.21410E-02
    8986.924    -12.044  -0.520  5.38355E-02  1.12568E-01 -5.87320E-02
    8987.076    -11.892  -0.480  5.73461E-02  1.23375E-01 -6.60293E-02
    8987.216    -11.751  -0.440  6.10906E-02  1.35056E-01 -7.39653E-02
    8987.344    -11.623  -0.400  6.50151E-02  1.47409E-01 -8.23942E-02
    8987.460    -11.508  -0.360  6.90359E-02  1.60123E-01 -9.10873E-02
    8987.564    -11.404  -0.320  7.30437E-02  1.72792E-01 -9.97483E-02
    8987.655    -11.312  -0.280  7.69143E-02  1.84964E-01 -1.08050E-01
    8987.735    -11.233  -0.240  8.05235E-02  1.96205E-01 -1.15682E-01
    8987.802    -11.166  -0.200  8.37588E-02  2.06147E-01 -1.22388E-01
    8987.856    -11.111  -0.160  8.65267E-02  2.14519E-01 -1.27993E-01
    8987.899    -11.069  -0.120  8.87546E-02  2.21145E-01 -1.32390E-01
    8987.930    -11.038  -0.080  9.03918E-02  2.25923E-01 -1.35531E-01
    8987.954    -11.014   0.000  9.17620E-02  2.29766E-01 -1.38004E-01
    8988.009    -10.959   0.120  9.50606E-02  2.38441E-01 -1.43381E-01
    8988.052    -10.916   0.160  9.75606E-02  2.45197E-01 -1.47637E-01
    8988.106    -10.861   0.200  1.00786E-01  2.53841E-01 -1.53055E-01
    8988.173    -10.794   0.240  1.04752E-01  2.64272E-01 -1.59521E-01
    8988.253    -10.715   0.280  1.09486E-01  2.76306E-01 -1.66820E-01
    8988.344    -10.624   0.320  1.15005E-01  2.89666E-01 -1.74661E-01
    8988.448    -10.520   0.360  1.21329E-01  3.04012E-01 -1.82684E-01
    8988.564    -10.404   0.400  1.28431E-01  3.18988E-01 -1.90558E-01
    8988.692    -10.276   0.440  1.36086E-01  3.34221E-01 -1.98134E-01
    8988.832    -10.136   0.480  1.43834E-01  3.49470E-01 -2.05637E-01
    8988.984     -9.984   0.520  1.50721E-01  3.64574E-01 -2.13853E-01
    8989.149     -9.819   0.560  1.55343E-01  3.79439E-01 -2.24096E-01
    8989.326     -9.642   0.600  1.56321E-01  3.94081E-01 -2.37761E-01
    8989.515     -9.453   0.640  1.53114E-01  4.08501E-01 -2.55386E-01
    8989.716     -9.252   0.680  1.46861E-01  4.22781E-01 -2.75920E-01
    8989.929     -9.039   0.720  1.39881E-01  4.36956E-01 -2.97075E-01
    8990.155     -8.813   0.760  1.34487E-01  4.51135E-01 -3.16648E-01
    8990.392     -8.575   0.800  1.31964E-01  4.65324E-01 -3.33360E-01
    8990.642     -8.325   0.840  1.32940E-01  4.79597E-01 -3.46658E-01
    8990.904     -8.063   0.880  1.37519E-01  4.93960E-01 -3.56441E-01
    8991.179     -7.789   0.920  1.45904E-01  5.08470E-01 -3.62566E-01
    8991.465     -7.503   0.960  1.58369E-01  5.23134E-01 -3.64765E-01
    8991.764     -7.204   1.000  1.75791E-01  5.37933E-01 -3.62142E-01
    8992.075     -6.893   1.040  2.00227E-01  5.52880E-01 -3.52653E-01
    8992.398     -6.570   1.080  2.34840E-01  5.67963E-01 -3.33124E-01
    8992.733     -6.235   1.120  2.82676E-01  5.83166E-01 -3.00489E-01
    8993.081     -5.887   1.160  3.43274E-01  5.98488E-01 -2.55214E-01
    8993.440     -5.527   1.200  4.07315E-01  6.13865E-01 -2.06550E-01
    8993.812     -5.156   1.240  4.53992E-01  6.29310E-01 -1.75318E-01
    8994.196     -4.772   1.280  4.64827E-01  6.44793E-01 -1.79966E-01
    8994.593     -4.375   1.320  4.50325E-01  6.60243E-01 -2.09917E-01
    8995.001     -3.967   1.360  4.37482E-01  6.75667E-01 -2.38185E-01
    8995.422     -3.546   1.400  4.35213E-01  6.90993E-01 -2.55780E-01
    8995.854     -3.113   1.440  4.40699E-01  7.06224E-01 -2.65525E-01
    8996.299     -2.668   1.480  4.56456E-01  7.21326E-01 -2.64870E-01
    8996.757     -2.211   1.520  4.87473E-01  7.36224E-01 -2.48751E-01
    8997.226     -1.742   1.560  5.37599E-01  7.50902E-01 -2.13303E-01
    8997.708     -1.260   1.600  6.07656E-01  7.65346E-01 -1.57691E-01
    8998.201     -0.766   1.640  6.77679E-01  7.79521E-01 -1.01843E-01
    8998.707     -0.260   1.680  7.17250E-01  7.93372E-01 -7.61211E-02
    8999.225      0.258   1.720  7.20181E-01  8.06886E-01 -8.67049E-02
    8999.756      0.788   1.760  7.06898E-01  8.20030E-01 -1.13132E-01
    9000.298      1.331   1.800  7.06878E-01  8.32772E-01 -1.25894E-01
    9000.853      1.885   1.840  7.42494E-01  8.45104E-01 -1.02609E-01
    9001.420      2.452   1.880  8.26603E-01  8.57014E-01 -3.04104E-02
    9001.999      3.031   1.920  9.68513E-01  8.68475E-01  1.00037E-01
    9002.590      3.623   1.960  1.15794E+00  8.79461E-01  2.78483E-01
    9003.194      4.226   2.000  1.32721E+00  8.89966E-01  4.37247E-01
    9003.810      4.842   2.040  1.37805E+00  9.00003E-01  4.78045E-01
    9004.438      5.470   2.080  1.30866E+00  9.09532E-01  3.99130E-01
    9005.078      6.110   2.120  1.22500E+00  9.18548E-01  3.06453E-01
    9005.730      6.762   2.160  1.17828E+00  9.27093E-01  2.51187E-01
    9006.394      7.427   2.200  1.15200E+00  9.35105E-01  2.16899E-01
    9007.071      8.103   2.240  1.14929E+00  9.42645E-01  2.06644E-01
    9007.760      8.792   2.280  1.18617E+00  9.49678E-01  2.36487E-01
    9008.461      9.493   2.320  1.24431E+00  9.56227E-01  2.88086E-01
    9009.174     10.206   2.360  1.27931E+00  9.62293E-01  3.17014E-01
    9009.900     10.932   2.400  1.27347E+00  9.67883E-01  3.05584E-01
    9010.637     11.669   2.440  1.23716E+00  9.73022E-01  2.64142E-01
    9011.387     12.419   2.480  1.16918E+00  9.77698E-01  1.91487E-01
    9012.149     13.181   2.520  1.07915E+00  9.81957E-01  9.71903E-02
    9012.923     13.955   2.560  1.00858E+00  9.85806E-01  2.27730E-02
    9013.710     14.742   2.600  9.76917E-01  9.89235E-01 -1.23178E-02
    9014.508     15.540   2.640  9.70015E-01  9.92290E-01 -2.22759E-02
    9015.319     16.351   2.680  9.73151E-01  9.94981E-01 -2.18298E-02
    9016.142     17.174   2.720  9.79467E-01  9.97315E-01 -1.78482E-02
    9016.977     18.009   2.760  9.87963E-01  9.99323E-01 -1.13601E-02
    9017.824     18.856   2.800  9.94921E-01  1.00101E+00 -6.09029E-03
    9018.684     19.716   2.840  9.95884E-01  1.00239E+00 -6.50605E-03
    9019.556     20.588   2.880  9.90633E-01  1.00351E+00 -1.28737E-02
    9020.439     21.472   2.920  9.82648E-01  1.00433E+00 -2.16843E-02
    9021.336     22.368   2.960  9.76267E-01  1.00494E+00 -2.86695E-02
    9022.244     23.276   3.000  9.73404E-01  1.00533E+00 -3.19218E-02
    9023.164     24.197   3.040  9.72712E-01  1.00549E+00 -3.27779E-02
    9024.097     25.129   3.080  9.70981E-01  1.00546E+00 -3.44745E-02
    9025.042     26.074   3.120  9.64827E-01  1.00525E+00 -4.04247E-02
    9025.999     27.031   3.160  9.53131E-01  1.00487E+00 -5.17350E-02
    9026.968     28.000   3.200  9.37574E-01  1.00437E+00 -6.67929E-02
    9027.950     28.982   3.240  9.20808E-01  1.00372E+00 -8.29147E-02
    9028.943     29.976   3.280  9.05050E-01  1.00296E+00 -9.79074E-02
    9029.949     30.981   3.320  8.91670E-01  1.00208E+00 -1.10407E-01
    9030.967     31.999   3.360  8.81518E-01  1.00111E+00 -1.19595E-01
    9031.997     33.030   3.400  8.74639E-01  1.00009E+00 -1.25448E-01
    9033.040     34.072   3.440  8.70818E-01  9.98969E-01 -1.28151E-01
    9034.094     35.127   3.480  8.69825E-01  9.97821E-01 -1.27996E-01
    9035.161     36.193   3.520  8.71176E-01  9.96611E-01 -1.25435E-01
    9036.240     37.272   3.560  8.74275E-01  9.95362E-01 -1.21087E-01
    9037.331     38.364   3.600  8.78727E-01  9.94099E-01 -1.15373E-01
    9038.435     39.467   3.640  8.84294E-01  9.92829E-01 -1.08535E-01
    9039.550     40.583   3.680  8.90755E-01  9.91533E-01 -1.00779E-01
    9040.678     41.710   3.720  8.98022E-01  9.90235E-01 -9.22127E-02
    9041.818     42.850   3.760  9.06167E-01  9.88961E-01 -8.27941E-02
    9042.970     44.002   3.800  9.15313E-01  9.87692E-01 -7.23784E-02
    9044.135     45.167   3.840  9.25628E-01  9.86430E-01 -6.08021E-02
    9045.311     46.343   3.880  9.37301E-01  9.85200E-01 -4.78991E-02
    9046.500     47.532   3.920  9.50375E-01  9.84007E-01 -3.36317E-02
    9047.701     48.733   3.960  9.64887E-01  9.82850E-01 -1.79627E-02
    9048.914     49.946   4.000  9.81064E-01  9.81732E-01 -6.67545E-04
    9050.139     51.171   4.040  9.99128E-01  9.80653E-01  1.84745E-02
    9051.377     52.409   4.080  1.01865E+00  9.79615E-01  3.90327E-02
    9052.626     53.658   4.120  1.03842E+00  9.78620E-01  5.98036E-02
    9053.888     54.920   4.160  1.05646E+00  9.77690E-01  7.87695E-02
    9055.162     56.194   4.200  1.07074E+00  9.76785E-01  9.39501E-02
    9056.448     57.481   4.240  1.08074E+00  9.75968E-01  1.04769E-01
    9057.747     58.779   4.280  1.08761E+00  9.75199E-01  1.12414E-01
    9059.057     60.090   4.320  1.09311E+00  9.74479E-01  1.18627E-01
    9060.380     61.412   4.360  1.09834E+00  9.73826E-01  1.24518E-01
    9061.715     62.748   4.400  1.10362E+00  9.73221E-01  1.30397E-01
    9063.063     64.095   4.440  1.10835E+00  9.72687E-01  1.35665E-01
    9064.422     65.454   4.480  1.11066E+00  9.72222E-01  1.38434E-01
    9065.794     66.826   4.520  1.10727E+00  9.71785E-01  1.35487E-01
    9067.177     68.210   4.560  1.09518E+00  9.71439E-01  1.23739E-01
    9068.573     69.605   4.600  1.07345E+00  9.71138E-01  1.02316E-01
    9069.981     71.014   4.640  1.04427E+00  9.70884E-01  7.33827E-02
    9071.402     72.434   4.680  1.01160E+00  9.70677E-01  4.09247E-02
    9072.834     73.867   4.720  9.79316E-01  9.70557E-01  8.75897E-03
    9074.279     75.311   4.760  9.50099E-01  9.70461E-01 -2.03618E-02
    9075.736     76.768   4.800  9.25697E-01  9.70408E-01 -4.47105E-02
    9077.205     78.237   4.840  9.07145E-01  9.70419E-01 -6.32741E-02
    9078.687     79.719   4.880  8.94890E-01  9.70473E-01 -7.55836E-02
    9080.180     81.212   4.920  8.88788E-01  9.70568E-01 -8.17797E-02
    9081.686     82.718   4.960  8.88205E-01  9.70701E-01 -8.24963E-02
    9083.204     84.236   5.000  8.92324E-01  9.70874E-01 -7.85507E-02
    9084.734     85.766   5.040  9.00690E-01  9.71086E-01 -7.03958E-02
    9086.276     87.308   5.080  9.13512E-01  9.71332E-01 -5.78194E-02
    9087.830     88.863   5.120  9.31082E-01  9.71591E-01 -4.05095E-02
    9089.397     90.429   5.160  9.52682E-01  9.71904E-01 -1.92229E-02
    9090.976     92.008   5.200  9.75543E-01  9.72208E-01  3.33545E-03
    9092.567     93.599   5.240  9.95788E-01  9.72560E-01  2.32278E-02
    9094.170     95.202   5.280  1.01033E+00  9.72899E-01  3.74269E-02
    9095.786     96.818   5.320  1.01864E+00  9.73264E-01  4.53794E-02
    9097.413     98.446   5.360  1.02204E+00  9.73634E-01  4.84035E-02
    9099.053    100.085   5.400  1.02181E+00  9.74029E-01  4.77789E-02
    9100.705    101.737   5.440  1.01795E+00  9.74404E-01  4.35414E-02
    9102.369    103.402   5.480  1.00967E+00  9.74799E-01  3.48750E-02
    9104.046    105.078   5.520  9.96520E-01  9.75172E-01  2.13485E-02
    9105.734    106.767   5.560  9.79283E-01  9.75564E-01  3.71906E-03
    9107.435    108.467   5.600  9.59776E-01  9.75930E-01 -1.61543E-02
    9109.148    110.180   5.640  9.40532E-01  9.76289E-01 -3.57578E-02
    9110.873    111.905   5.680  9.23959E-01  9.76618E-01 -5.26591E-02
    9112.611    113.643   5.720  9.11512E-01  9.76938E-01 -6.54259E-02
    9114.360    115.392   5.760  9.03146E-01  9.77226E-01 -7.40803E-02
    9116.122    117.154   5.800  8.97795E-01  9.77504E-01 -7.97090E-02
    9117.896    118.928   5.840  8.94158E-01  9.77749E-01 -8.35910E-02
    9119.682    120.714   5.880  8.91312E-01  9.77983E-01 -8.66716E-02
    9121.480    122.512   5.920  8.88942E-01  9.78181E-01 -8.92395E-02
    9123.291    124.323   5.960  8.87729E-01  9.78336E-01 -9.06064E-02
    9125.113    126.146   6.000  8.89677E-01  9.78437E-01 -8.87607E-02
