# # comment:                                                     FEFF 9.9.1  
# # Source:
# # Structure
# # Reduced
# # space
# # abc:
# # angles:104.048291
# # sites:
# # POT  SCF 100  7.0000   0, screened core-hole, AFOLP (folp(0)= 1.150)
# # Abs   Z=29 Rmt= 1.214 Rnm= 1.309 K  shell
# # Pot 1 Z=23 Rmt= 1.094 Rnm= 1.306
# # Pot 2 Z=30 Rmt= 1.331 Rnm= 1.424
# # Pot 3 Z=29 Rmt= 1.228 Rnm= 1.317
# # Pot 4 Z= 8 Rmt= 0.923 Rnm= 1.089
# # Gam_ch=1.729E+00 H-L exch Vi= 0.000E+00 Vr= 0.000E+00
# # Mu=-8.846E+00eV kf=2.271E+00 Vint=-1.728E+01eV Rs_int= 1.597
# FMS rfms= 9.0000
# # PATH  Rmax=-1.000,  Keep_limit= 0.00, Heap_limit 0.00  Pwcrit= 2.50%
#  S02=0.950  Temp=   0.00  Debye_temp=   0.00  Global_sig2= 0.00000
#  Energy zero shift, vr, vi    0.00000E+00   0.00000E+00
#  Curved wave amplitude ratio filter   4.000%
#     file         sig2 tot  cw amp ratio   deg  nlegs   reff  inp sig2
#     0/   0 paths used
#  xsedge+ 50, used to normalize mu           2.4785E-04
#  -----------------------------------------------------------------------
#  omega    e    k    mu    mu0     chi     @#
    8983.956    -12.656  -1.000  3.54277E-02  5.02382E-02 -1.48105E-02
    8984.255    -12.357  -0.960  3.73416E-02  5.37945E-02 -1.64530E-02
    8984.542    -12.070  -0.920  3.94240E-02  5.77392E-02 -1.83152E-02
    8984.816    -11.796  -0.880  4.16978E-02  6.21289E-02 -2.04311E-02
    8985.078    -11.534  -0.840  4.41895E-02  6.70293E-02 -2.28398E-02
    8985.328    -11.284  -0.800  4.69298E-02  7.25168E-02 -2.55870E-02
    8985.566    -11.046  -0.760  4.99540E-02  7.86788E-02 -2.87248E-02
    8985.791    -10.821  -0.720  5.33016E-02  8.56139E-02 -3.23123E-02
    8986.005    -10.607  -0.680  5.70161E-02  9.34307E-02 -3.64146E-02
    8986.206    -10.406  -0.640  6.11434E-02  1.02244E-01 -4.11005E-02
    8986.395    -10.217  -0.600  6.57280E-02  1.12166E-01 -4.64375E-02
    8986.571    -10.040  -0.560  7.08076E-02  1.23291E-01 -5.24837E-02
    8986.736     -9.876  -0.520  7.64039E-02  1.35678E-01 -5.92738E-02
    8986.888     -9.723  -0.480  8.25100E-02  1.49311E-01 -6.68009E-02
    8987.029     -9.583  -0.440  8.90765E-02  1.64072E-01 -7.49951E-02
    8987.157     -9.455  -0.400  9.59985E-02  1.79704E-01 -8.37059E-02
    8987.273     -9.339  -0.360  1.03111E-01  1.95808E-01 -9.26971E-02
    8987.376     -9.236  -0.320  1.10199E-01  2.11863E-01 -1.01663E-01
    8987.468     -9.144  -0.280  1.17020E-01  2.27289E-01 -1.10269E-01
    8987.547     -9.065  -0.240  1.23335E-01  2.41531E-01 -1.18196E-01
    8987.614     -8.998  -0.200  1.28940E-01  2.54121E-01 -1.25181E-01
    8987.669     -8.943  -0.160  1.33678E-01  2.64715E-01 -1.31037E-01
    8987.711     -8.901  -0.120  1.37446E-01  2.73093E-01 -1.35647E-01
    8987.742     -8.870  -0.080  1.40179E-01  2.79132E-01 -1.38953E-01
    8987.766     -8.846   0.000  1.42402E-01  2.83986E-01 -1.41584E-01
    8987.821     -8.791   0.120  1.47257E-01  2.94922E-01 -1.47665E-01
    8987.864     -8.748   0.160  1.51055E-01  3.03436E-01 -1.52381E-01
    8987.919     -8.693   0.200  1.55904E-01  3.14306E-01 -1.58402E-01
    8987.986     -8.626   0.240  1.61770E-01  3.27411E-01 -1.65640E-01
    8988.065     -8.547   0.280  1.68549E-01  3.42481E-01 -1.73932E-01
    8988.156     -8.456   0.320  1.76061E-01  3.59126E-01 -1.83065E-01
    8988.260     -8.352   0.360  1.84160E-01  3.76906E-01 -1.92746E-01
    8988.376     -8.236   0.400  1.92700E-01  3.95331E-01 -2.02632E-01
    8988.504     -8.108   0.440  2.01584E-01  4.13936E-01 -2.12352E-01
    8988.644     -7.968   0.480  2.10845E-01  4.32372E-01 -2.21527E-01
    8988.796     -7.815   0.520  2.20574E-01  4.50398E-01 -2.29824E-01
    8988.961     -7.651   0.560  2.30834E-01  4.67915E-01 -2.37081E-01
    8989.138     -7.474   0.600  2.41405E-01  4.84894E-01 -2.43488E-01
    8989.327     -7.285   0.640  2.51634E-01  5.01405E-01 -2.49770E-01
    8989.528     -7.084   0.680  2.60468E-01  5.17490E-01 -2.57023E-01
    8989.741     -6.871   0.720  2.66999E-01  5.33223E-01 -2.66225E-01
    8989.967     -6.645   0.760  2.70987E-01  5.48695E-01 -2.77708E-01
    8990.205     -6.407   0.800  2.72848E-01  5.63991E-01 -2.91143E-01
    8990.455     -6.157   0.840  2.73245E-01  5.79141E-01 -3.05896E-01
    8990.717     -5.895   0.880  2.73248E-01  5.94206E-01 -3.20958E-01
    8990.991     -5.621   0.920  2.74140E-01  6.09193E-01 -3.35053E-01
    8991.278     -5.334   0.960  2.77037E-01  6.24161E-01 -3.47124E-01
    8991.576     -5.036   1.000  2.82777E-01  6.39076E-01 -3.56299E-01
    8991.887     -4.725   1.040  2.92515E-01  6.53937E-01 -3.61422E-01
    8992.210     -4.402   1.080  3.07247E-01  6.68779E-01 -3.61532E-01
    8992.546     -4.066   1.120  3.26649E-01  6.83548E-01 -3.56898E-01
    8992.893     -3.719   1.160  3.49543E-01  6.98246E-01 -3.48704E-01
    8993.253     -3.359   1.200  3.75864E-01  7.12832E-01 -3.36968E-01
    8993.625     -2.987   1.240  4.06893E-01  7.27300E-01 -3.20407E-01
    8994.009     -2.603   1.280  4.42851E-01  7.41605E-01 -2.98755E-01
    8994.405     -2.207   1.320  4.82018E-01  7.55739E-01 -2.73721E-01
    8994.813     -1.799   1.360  5.24126E-01  7.69650E-01 -2.45525E-01
    8995.234     -1.378   1.400  5.70280E-01  7.83328E-01 -2.13049E-01
    8995.667     -0.945   1.440  6.17110E-01  7.96722E-01 -1.79612E-01
    8996.112     -0.500   1.480  6.60411E-01  8.09821E-01 -1.49410E-01
    8996.569     -0.043   1.520  7.03857E-01  8.22593E-01 -1.18736E-01
    8997.038      0.426   1.560  7.56934E-01  8.35009E-01 -7.80753E-02
    8997.520      0.908   1.600  8.23100E-01  8.47038E-01 -2.39380E-02
    8998.014      1.402   1.640  8.94249E-01  8.58691E-01  3.55584E-02
    8998.520      1.908   1.680  9.56849E-01  8.69899E-01  8.69504E-02
    8999.038      2.426   1.720  1.00806E+00  8.80675E-01  1.27382E-01
    8999.568      2.956   1.760  1.05251E+00  8.90994E-01  1.61512E-01
    9000.111      3.499   1.800  1.08743E+00  9.00870E-01  1.86557E-01
    9000.665      4.053   1.840  1.11193E+00  9.10259E-01  2.01667E-01
    9001.232      4.620   1.880  1.13066E+00  9.19160E-01  2.11501E-01
    9001.811      5.199   1.920  1.14839E+00  9.27591E-01  2.20802E-01
    9002.403      5.791   1.960  1.17079E+00  9.35553E-01  2.35233E-01
    9003.006      6.394   2.000  1.20378E+00  9.43006E-01  2.60776E-01
    9003.622      7.010   2.040  1.24818E+00  9.49993E-01  2.98186E-01
    9004.250      7.638   2.080  1.29670E+00  9.56517E-01  3.40185E-01
    9004.890      8.278   2.120  1.33380E+00  9.62563E-01  3.71239E-01
    9005.542      8.930   2.160  1.34216E+00  9.68174E-01  3.73984E-01
    9006.207      9.595   2.200  1.32271E+00  9.73316E-01  3.49397E-01
    9006.883     10.271   2.240  1.28904E+00  9.78037E-01  3.11004E-01
    9007.572     10.960   2.280  1.25073E+00  9.82322E-01  2.68407E-01
    9008.273     11.661   2.320  1.21424E+00  9.86220E-01  2.28025E-01
    9008.986     12.374   2.360  1.18410E+00  9.89718E-01  1.94377E-01
    9009.712     13.100   2.400  1.16042E+00  9.92847E-01  1.67572E-01
    9010.449     13.837   2.440  1.13794E+00  9.95613E-01  1.42326E-01
    9011.199     14.587   2.480  1.11256E+00  9.98045E-01  1.14512E-01
    9011.961     15.349   2.520  1.08375E+00  1.00018E+00  8.35734E-02
    9012.735     16.123   2.560  1.05215E+00  1.00197E+00  5.01828E-02
    9013.522     16.910   2.600  1.02185E+00  1.00350E+00  1.83540E-02
    9014.320     17.708   2.640  9.95721E-01  1.00477E+00 -9.05208E-03
    9015.131     18.519   2.680  9.76244E-01  1.00578E+00 -2.95354E-02
    9015.954     19.342   2.720  9.63064E-01  1.00657E+00 -4.35022E-02
    9016.789     20.177   2.760  9.53552E-01  1.00712E+00 -5.35706E-02
    9017.637     21.025   2.800  9.46645E-01  1.00750E+00 -6.08520E-02
    9018.496     21.884   2.840  9.41959E-01  1.00768E+00 -6.57201E-02
    9019.368     22.756   2.880  9.38922E-01  1.00770E+00 -6.87743E-02
    9020.252     23.640   2.920  9.36803E-01  1.00756E+00 -7.07537E-02
    9021.148     24.536   2.960  9.34969E-01  1.00731E+00 -7.23383E-02
    9022.056     25.444   3.000  9.32758E-01  1.00692E+00 -7.41595E-02
    9022.977     26.365   3.040  9.30042E-01  1.00643E+00 -7.63901E-02
    9023.909     27.297   3.080  9.27260E-01  1.00584E+00 -7.85777E-02
    9024.854     28.242   3.120  9.24862E-01  1.00518E+00 -8.03193E-02
    9025.811     29.199   3.160  9.23046E-01  1.00445E+00 -8.14027E-02
    9026.781     30.169   3.200  9.21857E-01  1.00365E+00 -8.17890E-02
    9027.762     31.150   3.240  9.21113E-01  1.00282E+00 -8.17053E-02
    9028.756     32.144   3.280  9.20359E-01  1.00193E+00 -8.15693E-02
    9029.761     33.149   3.320  9.19297E-01  1.00102E+00 -8.17267E-02
    9030.779     34.168   3.360  9.17889E-01  1.00009E+00 -8.22001E-02
    9031.810     35.198   3.400  9.16236E-01  9.99148E-01 -8.29124E-02
    9032.852     36.240   3.440  9.14709E-01  9.98225E-01 -8.35167E-02
    9033.907     37.295   3.480  9.13717E-01  9.97283E-01 -8.35660E-02
    9034.974     38.362   3.520  9.13621E-01  9.96342E-01 -8.27208E-02
    9036.052     39.441   3.560  9.14632E-01  9.95428E-01 -8.07953E-02
    9037.144     40.532   3.600  9.16862E-01  9.94545E-01 -7.76822E-02
    9038.247     41.635   3.640  9.20361E-01  9.93675E-01 -7.33144E-02
    9039.363     42.751   3.680  9.25150E-01  9.92838E-01 -6.76885E-02
    9040.490     43.878   3.720  9.31269E-01  9.92035E-01 -6.07670E-02
    9041.630     45.018   3.760  9.38797E-01  9.91252E-01 -5.24548E-02
    9042.782     46.170   3.800  9.47786E-01  9.90528E-01 -4.27423E-02
    9043.947     47.335   3.840  9.58064E-01  9.89844E-01 -3.17809E-02
    9045.123     48.511   3.880  9.69365E-01  9.89203E-01 -1.98381E-02
    9046.312     49.700   3.920  9.81244E-01  9.88607E-01 -7.36285E-03
    9047.513     50.901   3.960  9.93146E-01  9.88075E-01  5.07123E-03
    9048.726     52.114   4.000  1.00454E+00  9.87587E-01  1.69509E-02
    9049.951     53.339   4.040  1.01503E+00  9.87143E-01  2.78850E-02
    9051.189     54.577   4.080  1.02422E+00  9.86742E-01  3.74781E-02
    9052.438     55.827   4.120  1.03180E+00  9.86407E-01  4.53892E-02
    9053.700     57.088   4.160  1.03759E+00  9.86097E-01  5.14905E-02
    9054.974     58.362   4.200  1.04175E+00  9.85872E-01  5.58819E-02
    9056.261     59.649   4.240  1.04447E+00  9.85672E-01  5.87978E-02
    9057.559     60.947   4.280  1.04606E+00  9.85536E-01  6.05225E-02
    9058.870     62.258   4.320  1.04664E+00  9.85444E-01  6.11927E-02
    9060.193     63.581   4.360  1.04621E+00  9.85393E-01  6.08162E-02
    9061.528     64.916   4.400  1.04481E+00  9.85383E-01  5.94260E-02
    9062.875     66.263   4.440  1.04262E+00  9.85414E-01  5.72022E-02
    9064.234     67.622   4.480  1.03997E+00  9.85486E-01  5.44804E-02
    9065.606     68.994   4.520  1.03737E+00  9.85620E-01  5.17505E-02
    9066.990     70.378   4.560  1.03530E+00  9.85770E-01  4.95312E-02
    9068.386     71.774   4.600  1.03414E+00  9.85957E-01  4.81803E-02
    9069.794     73.182   4.640  1.03399E+00  9.86181E-01  4.78054E-02
    9071.214     74.602   4.680  1.03465E+00  9.86438E-01  4.82095E-02
    9072.647     76.035   4.720  1.03555E+00  9.86706E-01  4.88400E-02
    9074.091     77.479   4.760  1.03598E+00  9.87007E-01  4.89745E-02
    9075.548     78.936   4.800  1.03528E+00  9.87317E-01  4.79640E-02
    9077.017     80.405   4.840  1.03305E+00  9.87658E-01  4.53882E-02
    9078.499     81.887   4.880  1.02911E+00  9.88028E-01  4.10805E-02
    9079.992     83.380   4.920  1.02351E+00  9.88404E-01  3.51089E-02
    9081.498     84.886   4.960  1.01653E+00  9.88762E-01  2.77724E-02
    9083.016     86.404   5.000  1.00875E+00  9.89163E-01  1.95831E-02
    9084.546     87.934   5.040  1.00062E+00  9.89545E-01  1.10772E-02
    9086.088     89.476   5.080  9.92490E-01  9.89925E-01  2.56513E-03
    9087.643     91.031   5.120  9.84356E-01  9.90304E-01 -5.94801E-03
    9089.209     92.597   5.160  9.76054E-01  9.90680E-01 -1.46261E-02
    9090.788     94.176   5.200  9.67527E-01  9.91054E-01 -2.35269E-02
    9092.379     95.767   5.240  9.58984E-01  9.91423E-01 -3.24394E-02
    9093.983     97.371   5.280  9.50875E-01  9.91763E-01 -4.08874E-02
    9095.598     98.986   5.320  9.43811E-01  9.92096E-01 -4.82852E-02
    9097.226    100.614   5.360  9.38433E-01  9.92421E-01 -5.39881E-02
    9098.865    102.253   5.400  9.35268E-01  9.92714E-01 -5.74456E-02
    9100.517    103.905   5.440  9.34572E-01  9.92973E-01 -5.84007E-02
    9102.182    105.570   5.480  9.36174E-01  9.93219E-01 -5.70451E-02
    9103.858    107.246   5.520  9.39546E-01  9.93432E-01 -5.38869E-02
    9105.547    108.935   5.560  9.44018E-01  9.93633E-01 -4.96143E-02
    9107.247    110.635   5.600  9.48881E-01  9.93775E-01 -4.48943E-02
    9108.960    112.348   5.640  9.53744E-01  9.93904E-01 -4.01600E-02
    9110.686    114.074   5.680  9.58597E-01  9.94019E-01 -3.54224E-02
    9112.423    115.811   5.720  9.63649E-01  9.94073E-01 -3.04242E-02
    9114.172    117.560   5.760  9.69081E-01  9.94089E-01 -2.50081E-02
    9115.934    119.322   5.800  9.74700E-01  9.94093E-01 -1.93928E-02
    9117.708    121.096   5.840  9.80004E-01  9.94059E-01 -1.40547E-02
    9119.494    122.882   5.880  9.84494E-01  9.93988E-01 -9.49425E-03
    9121.292    124.681   5.920  9.87764E-01  9.93880E-01 -6.11581E-03
    9123.103    126.491   5.960  9.89488E-01  9.93731E-01 -4.24267E-03
    9124.926    128.314   6.000  9.89470E-01  9.93521E-01 -4.05101E-03
