# # comment:                                                     FEFF 9.9.1  
# # Source:
# # Structure
# # Reduced
# # space
# # abc:
# # angles:
# # sites:
# # POT  SCF 100  7.0000   0, screened core-hole, AFOLP (folp(0)= 1.150)
# # Abs   Z=29 Rmt= 1.218 Rnm= 1.294 K  shell
# # Pot 1 Z=56 Rmt= 1.946 Rnm= 2.000
# # Pot 2 Z=63 Rmt= 1.675 Rnm= 1.746
# # Pot 3 Z=29 Rmt= 1.218 Rnm= 1.294
# # Pot 4 Z= 8 Rmt= 1.056 Rnm= 1.108
# # Gam_ch=1.729E+00 H-L exch Vi= 0.000E+00 Vr= 0.000E+00
# # Mu=-8.228E+00eV kf=2.027E+00 Vint=-1.763E+01eV Rs_int= 1.789
# FMS rfms= 9.0000
# # PATH  Rmax=-1.000,  Keep_limit= 0.00, Heap_limit 0.00  Pwcrit= 2.50%
#  S02=0.950  Temp=   0.00  Debye_temp=   0.00  Global_sig2= 0.00000
#  Energy zero shift, vr, vi    0.00000E+00   0.00000E+00
#  Curved wave amplitude ratio filter   4.000%
#     file         sig2 tot  cw amp ratio   deg  nlegs   reff  inp sig2
#     0/   0 paths used
#  xsedge+ 50, used to normalize mu           2.4418E-04
#  -----------------------------------------------------------------------
#  omega    e    k    mu    mu0     chi     @#
    8985.056    -12.038  -1.000  4.07253E-02  5.83920E-02 -1.76667E-02
    8985.354    -11.740  -0.960  4.29355E-02  6.27595E-02 -1.98240E-02
    8985.641    -11.453  -0.920  4.53311E-02  6.76227E-02 -2.22916E-02
    8985.915    -11.179  -0.880  4.79363E-02  7.30554E-02 -2.51191E-02
    8986.177    -10.917  -0.840  5.07796E-02  7.91435E-02 -2.83639E-02
    8986.427    -10.667  -0.800  5.38941E-02  8.59867E-02 -3.20926E-02
    8986.665    -10.429  -0.760  5.73180E-02  9.36995E-02 -3.63814E-02
    8986.891    -10.204  -0.720  6.10950E-02  1.02411E-01 -4.13163E-02
    8987.104     -9.990  -0.680  6.52732E-02  1.12265E-01 -4.69916E-02
    8987.305     -9.789  -0.640  6.99039E-02  1.23411E-01 -5.35070E-02
    8987.494     -9.600  -0.600  7.50369E-02  1.35998E-01 -6.09607E-02
    8987.671     -9.423  -0.560  8.07144E-02  1.50152E-01 -6.94377E-02
    8987.835     -9.259  -0.520  8.69587E-02  1.65950E-01 -7.89914E-02
    8987.988     -9.106  -0.480  9.37580E-02  1.83377E-01 -8.96186E-02
    8988.128     -8.966  -0.440  1.01047E-01  2.02278E-01 -1.01230E-01
    8988.256     -8.838  -0.400  1.08696E-01  2.22323E-01 -1.13627E-01
    8988.372     -8.722  -0.360  1.16503E-01  2.42991E-01 -1.26488E-01
    8988.475     -8.619  -0.320  1.24213E-01  2.63604E-01 -1.39392E-01
    8988.567     -8.527  -0.280  1.31550E-01  2.83412E-01 -1.51862E-01
    8988.646     -8.448  -0.240  1.38259E-01  3.01691E-01 -1.63432E-01
    8988.713     -8.381  -0.200  1.44137E-01  3.17841E-01 -1.73704E-01
    8988.768     -8.326  -0.160  1.49044E-01  3.31420E-01 -1.82376E-01
    8988.811     -8.283  -0.120  1.52899E-01  3.42149E-01 -1.89250E-01
    8988.841     -8.253  -0.080  1.55661E-01  3.49876E-01 -1.94215E-01
    8988.866     -8.228   0.000  1.57856E-01  3.56082E-01 -1.98225E-01
    8988.920     -8.174   0.120  1.62829E-01  3.70058E-01 -2.07229E-01
    8988.963     -8.131   0.160  1.66677E-01  3.80913E-01 -2.14236E-01
    8989.018     -8.076   0.200  1.71573E-01  3.94770E-01 -2.23197E-01
    8989.085     -8.009   0.240  1.77445E-01  4.11430E-01 -2.33985E-01
    8989.164     -7.930   0.280  1.84117E-01  4.30507E-01 -2.46390E-01
    8989.256     -7.838   0.320  1.91414E-01  4.51518E-01 -2.60103E-01
    8989.359     -7.735   0.360  1.99084E-01  4.73836E-01 -2.74752E-01
    8989.475     -7.619   0.400  2.06802E-01  4.96758E-01 -2.89955E-01
    8989.603     -7.491   0.440  2.14249E-01  5.19698E-01 -3.05450E-01
    8989.743     -7.351   0.480  2.21094E-01  5.42168E-01 -3.21074E-01
    8989.896     -7.198   0.520  2.27135E-01  5.63827E-01 -3.36692E-01
    8990.060     -7.034   0.560  2.32558E-01  5.84557E-01 -3.51998E-01
    8990.237     -6.857   0.600  2.37877E-01  6.04321E-01 -3.66444E-01
    8990.426     -6.668   0.640  2.43801E-01  6.23144E-01 -3.79342E-01
    8990.627     -6.467   0.680  2.51058E-01  6.41153E-01 -3.90095E-01
    8990.841     -6.253   0.720  2.60317E-01  6.58411E-01 -3.98094E-01
    8991.066     -6.028   0.760  2.72532E-01  6.75060E-01 -4.02528E-01
    8991.304     -5.790   0.800  2.89007E-01  6.91151E-01 -4.02144E-01
    8991.554     -5.540   0.840  3.11445E-01  7.06800E-01 -3.95355E-01
    8991.816     -5.278   0.880  3.40917E-01  7.22029E-01 -3.81112E-01
    8992.090     -5.004   0.920  3.76723E-01  7.36904E-01 -3.60181E-01
    8992.377     -4.717   0.960  4.14607E-01  7.51457E-01 -3.36850E-01
    8992.676     -4.418   1.000  4.47002E-01  7.65690E-01 -3.18688E-01
    8992.986     -4.108   1.040  4.67307E-01  7.79632E-01 -3.12325E-01
    8993.310     -3.784   1.080  4.75091E-01  7.93267E-01 -3.18176E-01
    8993.645     -3.449   1.120  4.76774E-01  8.06590E-01 -3.29816E-01
    8993.992     -3.102   1.160  4.81058E-01  8.19590E-01 -3.38532E-01
    8994.352     -2.742   1.200  4.94230E-01  8.32255E-01 -3.38025E-01
    8994.724     -2.370   1.240  5.19141E-01  8.44587E-01 -3.25447E-01
    8995.108     -1.986   1.280  5.55534E-01  8.56527E-01 -3.00993E-01
    8995.504     -1.590   1.320  6.01103E-01  8.68094E-01 -2.66991E-01
    8995.913     -1.181   1.360  6.54511E-01  8.79245E-01 -2.24734E-01
    8996.333     -0.761   1.400  7.20597E-01  8.89979E-01 -1.69381E-01
    8996.766     -0.328   1.440  8.09327E-01  9.00291E-01 -9.09647E-02
    8997.211      0.117   1.480  9.21848E-01  9.10119E-01  1.17293E-02
    8997.668      0.574   1.520  1.04584E+00  9.19501E-01  1.26339E-01
    8998.138      1.044   1.560  1.16280E+00  9.28416E-01  2.34382E-01
    8998.619      1.525   1.600  1.24732E+00  9.36843E-01  3.10473E-01
    8999.113      2.019   1.640  1.28967E+00  9.44782E-01  3.44890E-01
    8999.619      2.525   1.680  1.33615E+00  9.52254E-01  3.83896E-01
    9000.137      3.043   1.720  1.45084E+00  9.59221E-01  4.91623E-01
    9000.667      3.573   1.760  1.62027E+00  9.65706E-01  6.54565E-01
    9001.210      4.116   1.800  1.72178E+00  9.71714E-01  7.50064E-01
    9001.765      4.671   1.840  1.67035E+00  9.77250E-01  6.93101E-01
    9002.332      5.238   1.880  1.52438E+00  9.82320E-01  5.42061E-01
    9002.911      5.817   1.920  1.37780E+00  9.86951E-01  3.90846E-01
    9003.502      6.408   1.960  1.26657E+00  9.91151E-01  2.75415E-01
    9004.106      7.012   2.000  1.18230E+00  9.94929E-01  1.87369E-01
    9004.721      7.627   2.040  1.12412E+00  9.98292E-01  1.25823E-01
    9005.349      8.255   2.080  1.10277E+00  1.00129E+00  1.01480E-01
    9005.989      8.895   2.120  1.11211E+00  1.00389E+00  1.08216E-01
    9006.641      9.547   2.160  1.12531E+00  1.00615E+00  1.19158E-01
    9007.306     10.212   2.200  1.10607E+00  1.00810E+00  9.79749E-02
    9007.983     10.889   2.240  1.05405E+00  1.00972E+00  4.43319E-02
    9008.671     11.577   2.280  1.00600E+00  1.01102E+00 -5.02115E-03
    9009.372     12.278   2.320  9.83180E-01  1.01208E+00 -2.89009E-02
    9010.086     12.992   2.360  9.83071E-01  1.01289E+00 -2.98185E-02
    9010.811     13.717   2.400  9.95133E-01  1.01345E+00 -1.83215E-02
    9011.549     14.455   2.440  1.01670E+00  1.01379E+00  2.91383E-03
    9012.299     15.205   2.480  1.04577E+00  1.01395E+00  3.18162E-02
    9013.061     15.966   2.520  1.07213E+00  1.01393E+00  5.82041E-02
    9013.835     16.741   2.560  1.08904E+00  1.01374E+00  7.53038E-02
    9014.621     17.527   2.600  1.09225E+00  1.01341E+00  7.88412E-02
    9015.420     18.326   2.640  1.08213E+00  1.01296E+00  6.91750E-02
    9016.230     19.136   2.680  1.06243E+00  1.01239E+00  5.00455E-02
    9017.053     19.959   2.720  1.03859E+00  1.01172E+00  2.68692E-02
    9017.889     20.795   2.760  1.01495E+00  1.01097E+00  3.97960E-03
    9018.736     21.642   2.800  9.92845E-01  1.01017E+00 -1.73259E-02
    9019.595     22.501   2.840  9.71526E-01  1.00930E+00 -3.77728E-02
    9020.467     23.373   2.880  9.49623E-01  1.00840E+00 -5.87796E-02
    9021.351     24.257   2.920  9.26348E-01  1.00745E+00 -8.11001E-02
    9022.247     25.153   2.960  9.02635E-01  1.00650E+00 -1.03868E-01
    9023.155     26.061   3.000  8.80558E-01  1.00553E+00 -1.24973E-01
    9024.076     26.982   3.040  8.62321E-01  1.00456E+00 -1.42235E-01
    9025.009     27.915   3.080  8.49395E-01  1.00358E+00 -1.54187E-01
    9025.954     28.859   3.120  8.42640E-01  1.00264E+00 -1.59996E-01
    9026.911     29.817   3.160  8.41362E-01  1.00172E+00 -1.60360E-01
    9027.880     30.786   3.200  8.44427E-01  1.00082E+00 -1.56393E-01
    9028.861     31.767   3.240  8.50639E-01  9.99955E-01 -1.49316E-01
    9029.855     32.761   3.280  8.58880E-01  9.99128E-01 -1.40249E-01
    9030.861     33.767   3.320  8.68314E-01  9.98344E-01 -1.30030E-01
    9031.879     34.785   3.360  8.78578E-01  9.97625E-01 -1.19047E-01
    9032.909     35.815   3.400  8.89989E-01  9.96953E-01 -1.06964E-01
    9033.951     36.857   3.440  9.02917E-01  9.96327E-01 -9.34105E-02
    9035.006     37.912   3.480  9.17882E-01  9.95770E-01 -7.78885E-02
    9036.073     38.979   3.520  9.35059E-01  9.95264E-01 -6.02053E-02
    9037.152     40.058   3.560  9.54159E-01  9.94831E-01 -4.06719E-02
    9038.243     41.149   3.600  9.74487E-01  9.94469E-01 -1.99824E-02
    9039.346     42.252   3.640  9.95008E-01  9.94159E-01  8.48127E-04
    9040.462     43.368   3.680  1.01462E+00  9.93922E-01  2.06941E-02
    9041.590     44.496   3.720  1.03219E+00  9.93737E-01  3.84522E-02
    9042.730     45.636   3.760  1.04690E+00  9.93625E-01  5.32718E-02
    9043.882     46.788   3.800  1.05787E+00  9.93585E-01  6.42849E-02
    9045.046     47.952   3.840  1.06408E+00  9.93596E-01  7.04833E-02
    9046.223     49.129   3.880  1.06505E+00  9.93679E-01  7.13743E-02
    9047.411     50.317   3.920  1.06113E+00  9.93813E-01  6.73150E-02
    9048.612     51.518   3.960  1.05371E+00  9.94015E-01  5.96986E-02
    9049.825     52.731   4.000  1.04489E+00  9.94265E-01  5.06250E-02
    9051.051     53.957   4.040  1.03671E+00  9.94583E-01  4.21228E-02
    9052.288     55.194   4.080  1.03040E+00  9.94925E-01  3.54737E-02
    9053.538     56.444   4.120  1.02629E+00  9.95332E-01  3.09526E-02
    9054.800     57.706   4.160  1.02394E+00  9.95805E-01  2.81368E-02
    9056.074     58.980   4.200  1.02252E+00  9.96298E-01  2.62195E-02
    9057.360     60.266   4.240  1.02141E+00  9.96828E-01  2.45867E-02
    9058.658     61.564   4.280  1.02071E+00  9.97396E-01  2.33121E-02
    9059.969     62.875   4.320  1.02108E+00  9.98002E-01  2.30751E-02
    9061.292     64.198   4.360  1.02311E+00  9.98642E-01  2.44721E-02
    9062.627     65.533   4.400  1.02683E+00  9.99292E-01  2.75422E-02
    9063.974     66.880   4.440  1.03193E+00  9.99973E-01  3.19582E-02
    9065.334     68.239   4.480  1.03807E+00  1.00066E+00  3.74066E-02
    9066.705     69.611   4.520  1.04524E+00  1.00138E+00  4.38600E-02
    9068.089     70.995   4.560  1.05335E+00  1.00207E+00  5.12821E-02
    9069.485     72.391   4.600  1.06178E+00  1.00279E+00  5.89832E-02
    9070.893     73.799   4.640  1.06888E+00  1.00351E+00  6.53646E-02
    9072.313     75.219   4.680  1.07268E+00  1.00423E+00  6.84452E-02
    9073.746     76.652   4.720  1.07180E+00  1.00495E+00  6.68525E-02
    9075.191     78.097   4.760  1.06608E+00  1.00563E+00  6.04494E-02
    9076.648     79.554   4.800  1.05656E+00  1.00634E+00  5.02263E-02
    9078.117     81.023   4.840  1.04462E+00  1.00698E+00  3.76401E-02
    9079.598     82.504   4.880  1.03166E+00  1.00762E+00  2.40418E-02
    9081.092     83.998   4.920  1.01867E+00  1.00825E+00  1.04253E-02
    9082.597     85.503   4.960  1.00623E+00  1.00884E+00 -2.60221E-03
    9084.115     87.021   5.000  9.94773E-01  1.00939E+00 -1.46167E-02
    9085.645     88.551   5.040  9.84677E-01  1.00990E+00 -2.52267E-02
    9087.188     90.094   5.080  9.76407E-01  1.01040E+00 -3.39937E-02
    9088.742     91.648   5.120  9.70400E-01  1.01083E+00 -4.04354E-02
    9090.309     93.215   5.160  9.66972E-01  1.01125E+00 -4.42770E-02
    9091.888     94.794   5.200  9.65891E-01  1.01160E+00 -4.57080E-02
    9093.479     96.385   5.240  9.66379E-01  1.01191E+00 -4.55256E-02
    9095.082     97.988   5.280  9.67357E-01  1.01219E+00 -4.48333E-02
    9096.697     99.603   5.320  9.67932E-01  1.01241E+00 -4.44752E-02
    9098.325    101.231   5.360  9.67761E-01  1.01256E+00 -4.47950E-02
    9099.965    102.871   5.400  9.67283E-01  1.01268E+00 -4.53996E-02
    9101.617    104.523   5.440  9.67355E-01  1.01274E+00 -4.53874E-02
    9103.281    106.187   5.480  9.68830E-01  1.01278E+00 -4.39470E-02
    9104.957    107.863   5.520  9.71883E-01  1.01272E+00 -4.08406E-02
    9106.646    109.552   5.560  9.76118E-01  1.01265E+00 -3.65290E-02
    9108.347    111.253   5.600  9.80591E-01  1.01253E+00 -3.19349E-02
    9110.060    112.966   5.640  9.84289E-01  1.01234E+00 -2.80486E-02
    9111.785    114.691   5.680  9.86577E-01  1.01210E+00 -2.55273E-02
    9113.522    116.428   5.720  9.87244E-01  1.01183E+00 -2.45829E-02
    9115.272    118.178   5.760  9.86585E-01  1.01151E+00 -2.49238E-02
    9117.033    119.939   5.800  9.85235E-01  1.01113E+00 -2.58904E-02
    9118.807    121.713   5.840  9.84140E-01  1.01073E+00 -2.65869E-02
    9120.594    123.499   5.880  9.84190E-01  1.01029E+00 -2.61038E-02
    9122.392    125.298   5.920  9.86013E-01  1.00982E+00 -2.38120E-02
    9124.202    127.108   5.960  9.89778E-01  1.00929E+00 -1.95166E-02
    9126.025    128.931   6.000  9.95362E-01  1.00873E+00 -1.33638E-02
