# # comment:                                                     FEFF 9.9.1  
# # Source:
# # Structure
# # Reduced
# # space
# # abc:
# # angles:
# # sites:
# # POT  SCF 100  7.0000   0, screened core-hole, AFOLP (folp(0)= 1.150)
# # Abs   Z=29 Rmt= 1.166 Rnm= 1.270 K  shell
# # Pot 1 Z=56 Rmt= 1.912 Rnm= 1.960
# # Pot 2 Z=57 Rmt= 1.833 Rnm= 1.903
# # Pot 3 Z=29 Rmt= 1.192 Rnm= 1.286
# # Pot 4 Z= 8 Rmt= 1.067 Rnm= 1.116
# # Gam_ch=1.729E+00 H-L exch Vi= 0.000E+00 Vr= 0.000E+00
# # Mu=-8.853E+00eV kf=1.991E+00 Vint=-1.802E+01eV Rs_int= 1.821
# FMS rfms= 9.0000
# # PATH  Rmax=-1.000,  Keep_limit= 0.00, Heap_limit 0.00  Pwcrit= 2.50%
#  S02=0.950  Temp=   0.00  Debye_temp=   0.00  Global_sig2= 0.00000
#  Energy zero shift, vr, vi    0.00000E+00   0.00000E+00
#  Curved wave amplitude ratio filter   4.000%
#     file         sig2 tot  cw amp ratio   deg  nlegs   reff  inp sig2
#     0/   0 paths used
#  xsedge+ 50, used to normalize mu           2.4466E-04
#  -----------------------------------------------------------------------
#  omega    e    k    mu    mu0     chi     @#
    8985.227    -12.663  -1.000  3.60745E-02  5.72370E-02 -2.11626E-02
    8985.526    -12.364  -0.960  3.78280E-02  6.14685E-02 -2.36405E-02
    8985.812    -12.077  -0.920  3.97067E-02  6.61758E-02 -2.64691E-02
    8986.087    -11.803  -0.880  4.17245E-02  7.14292E-02 -2.97047E-02
    8986.349    -11.541  -0.840  4.38974E-02  7.73108E-02 -3.34134E-02
    8986.599    -11.291  -0.800  4.62439E-02  8.39155E-02 -3.76716E-02
    8986.836    -11.053  -0.760  4.87849E-02  9.13525E-02 -4.25676E-02
    8987.062    -10.828  -0.720  5.15440E-02  9.97451E-02 -4.82011E-02
    8987.275    -10.614  -0.680  5.45467E-02  1.09229E-01 -5.46823E-02
    8987.476    -10.413  -0.640  5.78197E-02  1.19948E-01 -6.21281E-02
    8987.665    -10.224  -0.600  6.13882E-02  1.32042E-01 -7.06542E-02
    8987.842    -10.047  -0.560  6.52727E-02  1.45633E-01 -8.03606E-02
    8988.007     -9.883  -0.520  6.94824E-02  1.60792E-01 -9.13099E-02
    8988.159     -9.730  -0.480  7.40077E-02  1.77504E-01 -1.03496E-01
    8988.299     -9.590  -0.440  7.88106E-02  1.95622E-01 -1.16811E-01
    8988.427     -9.462  -0.400  8.38166E-02  2.14829E-01 -1.31013E-01
    8988.543     -9.346  -0.360  8.89128E-02  2.34629E-01 -1.45716E-01
    8988.647     -9.243  -0.320  9.39540E-02  2.54374E-01 -1.60420E-01
    8988.738     -9.151  -0.280  9.87793E-02  2.73347E-01 -1.74568E-01
    8988.818     -9.072  -0.240  1.03232E-01  2.90859E-01 -1.87627E-01
    8988.885     -9.005  -0.200  1.07179E-01  3.06332E-01 -1.99154E-01
    8988.940     -8.950  -0.160  1.10513E-01  3.19346E-01 -2.08833E-01
    8988.982     -8.907  -0.120  1.13160E-01  3.29631E-01 -2.16471E-01
    8989.013     -8.877  -0.080  1.15071E-01  3.37040E-01 -2.21969E-01
    8989.037     -8.853   0.000  1.16611E-01  3.42991E-01 -2.26380E-01
    8989.092     -8.798   0.120  1.20484E-01  3.56417E-01 -2.35933E-01
    8989.135     -8.755   0.160  1.23405E-01  3.66841E-01 -2.43436E-01
    8989.189     -8.700   0.200  1.27124E-01  3.80143E-01 -2.53019E-01
    8989.257     -8.633   0.240  1.31591E-01  3.96137E-01 -2.64546E-01
    8989.336     -8.554   0.280  1.36736E-01  4.14479E-01 -2.77742E-01
    8989.427     -8.462   0.320  1.42444E-01  4.34713E-01 -2.92269E-01
    8989.531     -8.359   0.360  1.48572E-01  4.56232E-01 -3.07660E-01
    8989.647     -8.243   0.400  1.54932E-01  4.78407E-01 -3.23476E-01
    8989.775     -8.115   0.440  1.61278E-01  5.00628E-01 -3.39350E-01
    8989.915     -7.975   0.480  1.67501E-01  5.22492E-01 -3.54991E-01
    8990.067     -7.822   0.520  1.73346E-01  5.43656E-01 -3.70310E-01
    8990.232     -7.658   0.560  1.78714E-01  5.63989E-01 -3.85275E-01
    8990.409     -7.481   0.600  1.83562E-01  5.83478E-01 -3.99916E-01
    8990.598     -7.292   0.640  1.88061E-01  6.02163E-01 -4.14102E-01
    8990.799     -7.091   0.680  1.92778E-01  6.20125E-01 -4.27347E-01
    8991.012     -6.877   0.720  1.98767E-01  6.37482E-01 -4.38716E-01
    8991.238     -6.652   0.760  2.07153E-01  6.54288E-01 -4.47135E-01
    8991.475     -6.414   0.800  2.19072E-01  6.70647E-01 -4.51575E-01
    8991.725     -6.164   0.840  2.35413E-01  6.86652E-01 -4.51239E-01
    8991.987     -5.902   0.880  2.56912E-01  7.02336E-01 -4.45424E-01
    8992.262     -5.628   0.920  2.84235E-01  7.17722E-01 -4.33487E-01
    8992.548     -5.341   0.960  3.17915E-01  7.32877E-01 -4.14962E-01
    8992.847     -5.043   1.000  3.57399E-01  7.47778E-01 -3.90379E-01
    8993.158     -4.732   1.040  4.01011E-01  7.62452E-01 -3.61441E-01
    8993.481     -4.409   1.080  4.48779E-01  7.76876E-01 -3.28097E-01
    8993.816     -4.073   1.120  5.02926E-01  7.91045E-01 -2.88120E-01
    8994.164     -3.726   1.160  5.58620E-01  8.04946E-01 -2.46325E-01
    8994.523     -3.366   1.200  6.00869E-01  8.18558E-01 -2.17689E-01
    8994.895     -2.994   1.240  6.25432E-01  8.31865E-01 -2.06432E-01
    8995.279     -2.610   1.280  6.44839E-01  8.44842E-01 -2.00003E-01
    8995.676     -2.214   1.320  6.62188E-01  8.57464E-01 -1.95276E-01
    8996.084     -1.806   1.360  6.73540E-01  8.69685E-01 -1.96145E-01
    8996.505     -1.385   1.400  6.84374E-01  8.81519E-01 -1.97145E-01
    8996.937     -0.952   1.440  7.05395E-01  8.92902E-01 -1.87507E-01
    8997.382     -0.507   1.480  7.41385E-01  9.03867E-01 -1.62482E-01
    8997.840     -0.050   1.520  7.68039E-01  9.14348E-01 -1.46309E-01
    8998.309      0.419   1.560  7.61393E-01  9.24358E-01 -1.62966E-01
    8998.791      0.901   1.600  7.46378E-01  9.33876E-01 -1.87498E-01
    8999.284      1.395   1.640  7.59947E-01  9.42879E-01 -1.82932E-01
    8999.790      1.901   1.680  8.18263E-01  9.51385E-01 -1.33122E-01
    9000.309      2.419   1.720  9.21965E-01  9.59374E-01 -3.74092E-02
    9000.839      2.949   1.760  1.06692E+00  9.66846E-01  1.00075E-01
    9001.381      3.492   1.800  1.21800E+00  9.73803E-01  2.44197E-01
    9001.936      4.047   1.840  1.31177E+00  9.80249E-01  3.31522E-01
    9002.503      4.613   1.880  1.36565E+00  9.86187E-01  3.79459E-01
    9003.082      5.193   1.920  1.41304E+00  9.91644E-01  4.21398E-01
    9003.673      5.784   1.960  1.43313E+00  9.96605E-01  4.36527E-01
    9004.277      6.387   2.000  1.42137E+00  1.00110E+00  4.20268E-01
    9004.893      7.003   2.040  1.39791E+00  1.00513E+00  3.92782E-01
    9005.521      7.631   2.080  1.36147E+00  1.00871E+00  3.52763E-01
    9006.161      8.271   2.120  1.31436E+00  1.01188E+00  3.02480E-01
    9006.813      8.923   2.160  1.27530E+00  1.01463E+00  2.60677E-01
    9007.477      9.588   2.200  1.25595E+00  1.01701E+00  2.38942E-01
    9008.154     10.264   2.240  1.25325E+00  1.01900E+00  2.34259E-01
    9008.843     10.953   2.280  1.25501E+00  1.02064E+00  2.34372E-01
    9009.544     11.654   2.320  1.24400E+00  1.02198E+00  2.22021E-01
    9010.257     12.368   2.360  1.21194E+00  1.02299E+00  1.88952E-01
    9010.983     13.093   2.400  1.17137E+00  1.02372E+00  1.47656E-01
    9011.720     13.831   2.440  1.14401E+00  1.02418E+00  1.19829E-01
    9012.470     14.580   2.480  1.12972E+00  1.02440E+00  1.05312E-01
    9013.232     15.342   2.520  1.11890E+00  1.02441E+00  9.44955E-02
    9014.006     16.117   2.560  1.10618E+00  1.02420E+00  8.19772E-02
    9014.793     16.903   2.600  1.09026E+00  1.02380E+00  6.64668E-02
    9015.591     17.702   2.640  1.07138E+00  1.02323E+00  4.81548E-02
    9016.402     18.512   2.680  1.05009E+00  1.02252E+00  2.75788E-02
    9017.225     19.335   2.720  1.02810E+00  1.02168E+00  6.42677E-03
    9018.060     20.170   2.760  1.00759E+00  1.02072E+00 -1.31267E-02
    9018.907     21.018   2.800  9.89955E-01  1.01964E+00 -2.96857E-02
    9019.767     21.877   2.840  9.76452E-01  1.01850E+00 -4.20489E-02
    9020.639     22.749   2.880  9.67244E-01  1.01726E+00 -5.00186E-02
    9021.522     23.633   2.920  9.61183E-01  1.01599E+00 -5.48110E-02
    9022.419     24.529   2.960  9.56329E-01  1.01466E+00 -5.83327E-02
    9023.327     25.437   3.000  9.50987E-01  1.01331E+00 -6.23255E-02
    9024.247     26.358   3.040  9.44285E-01  1.01195E+00 -6.76674E-02
    9025.180     27.290   3.080  9.36113E-01  1.01056E+00 -7.44507E-02
    9026.125     28.235   3.120  9.26978E-01  1.00917E+00 -8.21946E-02
    9027.082     29.192   3.160  9.17402E-01  1.00778E+00 -9.03825E-02
    9028.051     30.162   3.200  9.07758E-01  1.00642E+00 -9.86660E-02
    9029.033     31.143   3.240  8.98194E-01  1.00510E+00 -1.06903E-01
    9030.026     32.137   3.280  8.88602E-01  1.00379E+00 -1.15184E-01
    9031.032     33.143   3.320  8.78952E-01  1.00253E+00 -1.23581E-01
    9032.050     34.161   3.360  8.69506E-01  1.00130E+00 -1.31794E-01
    9033.080     35.191   3.400  8.61259E-01  1.00013E+00 -1.38875E-01
    9034.123     36.233   3.440  8.55230E-01  9.99037E-01 -1.43806E-01
    9035.177     37.288   3.480  8.52357E-01  9.97966E-01 -1.45609E-01
    9036.244     38.355   3.520  8.53392E-01  9.96988E-01 -1.43596E-01
    9037.323     39.434   3.560  8.58552E-01  9.96062E-01 -1.37510E-01
    9038.414     40.525   3.600  8.67804E-01  9.95190E-01 -1.27387E-01
    9039.518     41.628   3.640  8.81119E-01  9.94415E-01 -1.13296E-01
    9040.633     42.744   3.680  8.98273E-01  9.93698E-01 -9.54247E-02
    9041.761     43.872   3.720  9.18905E-01  9.93080E-01 -7.41748E-02
    9042.901     45.011   3.760  9.42421E-01  9.92518E-01 -5.00965E-02
    9044.053     46.164   3.800  9.67737E-01  9.92033E-01 -2.42951E-02
    9045.218     47.328   3.840  9.92767E-01  9.91627E-01  1.14005E-03
    9046.394     48.504   3.880  1.01478E+00  9.91299E-01  2.34819E-02
    9047.583     49.693   3.920  1.03143E+00  9.91029E-01  4.04047E-02
    9048.784     50.894   3.960  1.04140E+00  9.90858E-01  5.05452E-02
    9049.997     52.107   4.000  1.04467E+00  9.90765E-01  5.39084E-02
    9051.222     53.332   4.040  1.04242E+00  9.90728E-01  5.16904E-02
    9052.460     54.570   4.080  1.03652E+00  9.90766E-01  4.57552E-02
    9053.709     55.820   4.120  1.02905E+00  9.90880E-01  3.81738E-02
    9054.971     57.081   4.160  1.02201E+00  9.91048E-01  3.09614E-02
    9056.245     58.356   4.200  1.01707E+00  9.91310E-01  2.57650E-02
    9057.531     59.642   4.240  1.01514E+00  9.91601E-01  2.35399E-02
    9058.830     60.940   4.280  1.01638E+00  9.91963E-01  2.44194E-02
    9060.140     62.251   4.320  1.02024E+00  9.92395E-01  2.78486E-02
    9061.463     63.574   4.360  1.02568E+00  9.92873E-01  3.28033E-02
    9062.798     64.909   4.400  1.03172E+00  9.93394E-01  3.83235E-02
    9064.146     66.256   4.440  1.03793E+00  9.93959E-01  4.39715E-02
    9065.505     67.615   4.480  1.04448E+00  9.94587E-01  4.98912E-02
    9066.877     68.987   4.520  1.05163E+00  9.95233E-01  5.63972E-02
    9068.260     70.371   4.560  1.05948E+00  9.95915E-01  6.35620E-02
    9069.656     71.767   4.600  1.06758E+00  9.96634E-01  7.09415E-02
    9071.064     73.175   4.640  1.07499E+00  9.97387E-01  7.75994E-02
    9072.485     74.595   4.680  1.08061E+00  9.98150E-01  8.24648E-02
    9073.917     76.028   4.720  1.08361E+00  9.98942E-01  8.46631E-02
    9075.362     77.473   4.760  1.08345E+00  9.99741E-01  8.37135E-02
    9076.819     78.929   4.800  1.08009E+00  1.00054E+00  7.95508E-02
    9078.288     80.399   4.840  1.07385E+00  1.00134E+00  7.25047E-02
    9079.770     81.880   4.880  1.06547E+00  1.00217E+00  6.33052E-02
    9081.263     83.373   4.920  1.05602E+00  1.00297E+00  5.30559E-02
    9082.769     84.879   4.960  1.04673E+00  1.00376E+00  4.29669E-02
    9084.287     86.397   5.000  1.03859E+00  1.00455E+00  3.40395E-02
    9085.817     87.927   5.040  1.03218E+00  1.00531E+00  2.68726E-02
    9087.359     89.469   5.080  1.02741E+00  1.00606E+00  2.13512E-02
    9088.913     91.024   5.120  1.02296E+00  1.00680E+00  1.61583E-02
    9090.480     92.591   5.160  1.01633E+00  1.00748E+00  8.85102E-03
    9092.059     94.169   5.200  1.00535E+00  1.00815E+00 -2.79934E-03
    9093.650     95.760   5.240  9.89712E-01  1.00877E+00 -1.90595E-02
    9095.253     97.364   5.280  9.71412E-01  1.00936E+00 -3.79463E-02
    9096.869     98.979   5.320  9.53625E-01  1.00990E+00 -5.62788E-02
    9098.496    100.607   5.360  9.39361E-01  1.01041E+00 -7.10452E-02
    9100.136    102.247   5.400  9.30635E-01  1.01087E+00 -8.02312E-02
    9101.788    103.899   5.440  9.28188E-01  1.01128E+00 -8.30912E-02
    9103.452    105.563   5.480  9.31435E-01  1.01162E+00 -8.01891E-02
    9105.129    107.239   5.520  9.38771E-01  1.01192E+00 -7.31514E-02
    9106.817    108.928   5.560  9.48195E-01  1.01217E+00 -6.39793E-02
    9108.518    110.629   5.600  9.58342E-01  1.01236E+00 -5.40131E-02
    9110.231    112.342   5.640  9.68602E-01  1.01249E+00 -4.38871E-02
    9111.956    114.067   5.680  9.79052E-01  1.01258E+00 -3.35234E-02
    9113.694    115.804   5.720  9.89317E-01  1.01259E+00 -2.32747E-02
    9115.443    117.554   5.760  9.98471E-01  1.01256E+00 -1.40874E-02
    9117.205    119.315   5.800  1.00506E+00  1.01245E+00 -7.39141E-03
    9118.979    121.089   5.840  1.00759E+00  1.01230E+00 -4.70866E-03
    9120.765    122.875   5.880  1.00528E+00  1.01208E+00 -6.79989E-03
    9122.563    124.674   5.920  9.98940E-01  1.01181E+00 -1.28727E-02
    9124.374    126.484   5.960  9.91118E-01  1.01150E+00 -2.03772E-02
    9126.196    128.307   6.000  9.84424E-01  1.01106E+00 -2.66370E-02
