# # comment:                                                     FEFF 9.9.1  
# # Source:
# # Structure
# # Reduced
# # space
# # abc:
# # angles:
# # sites:
# # POT  SCF 100  7.0000   0, screened core-hole, AFOLP (folp(0)= 1.150)
# # Abs   Z=29 Rmt= 1.177 Rnm= 1.282 K  shell
# # Pot 1 Z=29 Rmt= 1.203 Rnm= 1.284
# # Pot 2 Z=17 Rmt= 1.572 Rnm= 1.613
# # Pot 3 Z= 8 Rmt= 1.028 Rnm= 1.128
# # Gam_ch=1.729E+00 H-L exch Vi= 0.000E+00 Vr= 0.000E+00
# # Mu=-7.594E+00eV kf=2.090E+00 Vint=-1.347E+01eV Rs_int= 1.735
# FMS rfms= 9.0000
# # PATH  Rmax=-1.000,  Keep_limit= 0.00, Heap_limit 0.00  Pwcrit= 2.50%
#  S02=0.950  Temp=   0.00  Debye_temp=   0.00  Global_sig2= 0.00000
#  Energy zero shift, vr, vi    0.00000E+00   0.00000E+00
#  Curved wave amplitude ratio filter   4.000%
#     file         sig2 tot  cw amp ratio   deg  nlegs   reff  inp sig2
#     0/   0 paths used
#  xsedge+ 50, used to normalize mu           2.4081E-04
#  -----------------------------------------------------------------------
#  omega    e    k    mu    mu0     chi     @#
    8983.475    -11.404  -1.000  2.98735E-02  5.52069E-02 -2.53334E-02
    8983.773    -11.106  -0.960  3.10314E-02  5.90880E-02 -2.80566E-02
    8984.060    -10.819  -0.920  3.22487E-02  6.33813E-02 -3.11325E-02
    8984.334    -10.545  -0.880  3.35314E-02  6.81448E-02 -3.46134E-02
    8984.596    -10.283  -0.840  3.48866E-02  7.34461E-02 -3.85595E-02
    8984.846    -10.033  -0.800  3.63226E-02  7.93629E-02 -4.30403E-02
    8985.084     -9.795  -0.760  3.78493E-02  8.59841E-02 -4.81348E-02
    8985.310     -9.570  -0.720  3.94779E-02  9.34096E-02 -5.39317E-02
    8985.523     -9.356  -0.680  4.12212E-02  1.01749E-01 -6.05276E-02
    8985.724     -9.155  -0.640  4.30928E-02  1.11117E-01 -6.80240E-02
    8985.913     -8.966  -0.600  4.51059E-02  1.21625E-01 -7.65195E-02
    8986.090     -8.789  -0.560  4.72720E-02  1.33369E-01 -8.60975E-02
    8986.254     -8.625  -0.520  4.95970E-02  1.46403E-01 -9.68060E-02
    8986.407     -8.472  -0.480  5.20780E-02  1.60709E-01 -1.08631E-01
    8986.547     -8.332  -0.440  5.46975E-02  1.76164E-01 -1.21467E-01
    8986.675     -8.204  -0.400  5.74197E-02  1.92506E-01 -1.35086E-01
    8986.791     -8.088  -0.360  6.01882E-02  2.09325E-01 -1.49137E-01
    8986.894     -7.985  -0.320  6.29291E-02  2.26091E-01 -1.63162E-01
    8986.986     -7.893  -0.280  6.55582E-02  2.42210E-01 -1.76652E-01
    8987.065     -7.814  -0.240  6.79921E-02  2.57110E-01 -1.89118E-01
    8987.132     -7.747  -0.200  7.01580E-02  2.70302E-01 -2.00144E-01
    8987.187     -7.692  -0.160  7.19994E-02  2.81425E-01 -2.09426E-01
    8987.230     -7.649  -0.120  7.34791E-02  2.90238E-01 -2.16759E-01
    8987.260     -7.619  -0.080  7.45757E-02  2.96600E-01 -2.22025E-01
    8987.285     -7.594   0.000  7.55326E-02  3.01722E-01 -2.26190E-01
    8987.339     -7.540   0.120  7.76294E-02  3.13293E-01 -2.35663E-01
    8987.382     -7.497   0.160  7.91239E-02  3.22313E-01 -2.43190E-01
    8987.437     -7.442   0.200  8.09784E-02  3.33891E-01 -2.52913E-01
    8987.504     -7.375   0.240  8.31177E-02  3.47893E-01 -2.64775E-01
    8987.583     -7.296   0.280  8.54470E-02  3.64099E-01 -2.78652E-01
    8987.675     -7.204   0.320  8.78223E-02  3.82178E-01 -2.94356E-01
    8987.778     -7.101   0.360  9.01044E-02  4.01710E-01 -3.11605E-01
    8987.894     -6.985   0.400  9.20739E-02  4.22218E-01 -3.30144E-01
    8988.022     -6.857   0.440  9.35661E-02  4.43285E-01 -3.49719E-01
    8988.162     -6.717   0.480  9.45024E-02  4.64587E-01 -3.70085E-01
    8988.315     -6.564   0.520  9.49201E-02  4.85871E-01 -3.90951E-01
    8988.479     -6.400   0.560  9.50171E-02  5.07059E-01 -4.12042E-01
    8988.656     -6.223   0.600  9.50868E-02  5.28074E-01 -4.32988E-01
    8988.845     -6.034   0.640  9.54927E-02  5.48954E-01 -4.53462E-01
    8989.046     -5.833   0.680  9.65663E-02  5.69743E-01 -4.73177E-01
    8989.260     -5.619   0.720  9.85177E-02  5.90493E-01 -4.91975E-01
    8989.485     -5.394   0.760  1.01492E-01  6.11230E-01 -5.09739E-01
    8989.723     -5.156   0.800  1.05562E-01  6.31973E-01 -5.26411E-01
    8989.973     -4.906   0.840  1.10898E-01  6.52725E-01 -5.41827E-01
    8990.235     -4.644   0.880  1.17745E-01  6.73496E-01 -5.55751E-01
    8990.509     -4.370   0.920  1.26452E-01  6.94264E-01 -5.67811E-01
    8990.796     -4.083   0.960  1.37565E-01  7.14995E-01 -5.77430E-01
    8991.095     -3.784   1.000  1.51828E-01  7.35624E-01 -5.83796E-01
    8991.406     -3.474   1.040  1.70171E-01  7.56100E-01 -5.85929E-01
    8991.729     -3.151   1.080  1.93689E-01  7.76362E-01 -5.82673E-01
    8992.064     -2.815   1.120  2.23894E-01  7.96328E-01 -5.72434E-01
    8992.411     -2.468   1.160  2.64284E-01  8.15953E-01 -5.51668E-01
    8992.771     -2.108   1.200  3.20915E-01  8.35145E-01 -5.14230E-01
    8993.143     -1.736   1.240  3.98674E-01  8.53835E-01 -4.55161E-01
    8993.527     -1.352   1.280  4.92205E-01  8.71974E-01 -3.79769E-01
    8993.923     -0.956   1.320  5.80990E-01  8.89451E-01 -3.08462E-01
    8994.332     -0.548   1.360  6.48164E-01  9.06263E-01 -2.58099E-01
    8994.752     -0.127   1.400  6.98117E-01  9.22301E-01 -2.24185E-01
    8995.185      0.306   1.440  7.44444E-01  9.37547E-01 -1.93103E-01
    8995.630      0.751   1.480  7.95836E-01  9.51984E-01 -1.56148E-01
    8996.087      1.208   1.520  8.47562E-01  9.65534E-01 -1.17973E-01
    8996.557      1.678   1.560  8.79052E-01  9.78189E-01 -9.91369E-02
    8997.038      2.159   1.600  8.69394E-01  9.89963E-01 -1.20569E-01
    8997.532      2.653   1.640  8.29578E-01  1.00081E+00 -1.71235E-01
    8998.038      3.159   1.680  7.91988E-01  1.01074E+00 -2.18749E-01
    8998.556      3.677   1.720  7.79720E-01  1.01976E+00 -2.40044E-01
    8999.086      4.207   1.760  7.93008E-01  1.02790E+00 -2.34891E-01
    8999.629      4.750   1.800  8.28374E-01  1.03515E+00 -2.06780E-01
    9000.184      5.305   1.840  8.93001E-01  1.04156E+00 -1.48562E-01
    9000.751      5.872   1.880  1.00345E+00  1.04716E+00 -4.37161E-02
    9001.330      6.451   1.920  1.16373E+00  1.05197E+00  1.11762E-01
    9001.921      7.042   1.960  1.33550E+00  1.05602E+00  2.79481E-01
    9002.525      7.645   2.000  1.46190E+00  1.05936E+00  4.02550E-01
    9003.140      8.261   2.040  1.52512E+00  1.06204E+00  4.63079E-01
    9003.768      8.889   2.080  1.56236E+00  1.06408E+00  4.98290E-01
    9004.408      9.529   2.120  1.61851E+00  1.06552E+00  5.52993E-01
    9005.060     10.181   2.160  1.69598E+00  1.06642E+00  6.29555E-01
    9005.725     10.846   2.200  1.73872E+00  1.06684E+00  6.71886E-01
    9006.402     11.522   2.240  1.66929E+00  1.06678E+00  6.02512E-01
    9007.090     12.211   2.280  1.50899E+00  1.06631E+00  4.42679E-01
    9007.791     12.912   2.320  1.35246E+00  1.06545E+00  2.87015E-01
    9008.505     13.626   2.360  1.24949E+00  1.06427E+00  1.85215E-01
    9009.230     14.351   2.400  1.20198E+00  1.06277E+00  1.39213E-01
    9009.968     15.089   2.440  1.18835E+00  1.06101E+00  1.27342E-01
    9010.718     15.838   2.480  1.17498E+00  1.05901E+00  1.15973E-01
    9011.480     16.600   2.520  1.14153E+00  1.05682E+00  8.47125E-02
    9012.254     17.375   2.560  1.10401E+00  1.05444E+00  4.95671E-02
    9013.040     18.161   2.600  1.07455E+00  1.05195E+00  2.26017E-02
    9013.839     18.960   2.640  1.05521E+00  1.04932E+00  5.88934E-03
    9014.649     19.770   2.680  1.04463E+00  1.04662E+00 -1.98395E-03
    9015.472     20.593   2.720  1.04102E+00  1.04384E+00 -2.82383E-03
    9016.308     21.428   2.760  1.04149E+00  1.04102E+00  4.64957E-04
    9017.155     22.276   2.800  1.04251E+00  1.03819E+00  4.31757E-03
    9018.014     23.135   2.840  1.04112E+00  1.03534E+00  5.78502E-03
    9018.886     24.007   2.880  1.03539E+00  1.03251E+00  2.88366E-03
    9019.770     24.891   2.920  1.02477E+00  1.02971E+00 -4.93930E-03
    9020.666     25.787   2.960  1.01009E+00  1.02696E+00 -1.68689E-02
    9021.574     26.695   3.000  9.92915E-01  1.02425E+00 -3.13331E-02
    9022.495     27.616   3.040  9.74846E-01  1.02159E+00 -4.67465E-02
    9023.428     28.549   3.080  9.57132E-01  1.01904E+00 -6.19050E-02
    9024.373     29.493   3.120  9.40399E-01  1.01657E+00 -7.61674E-02
    9025.330     30.450   3.160  9.25001E-01  1.01418E+00 -8.91828E-02
    9026.299     31.420   3.200  9.11466E-01  1.01189E+00 -1.00427E-01
    9027.280     32.401   3.240  9.00170E-01  1.00974E+00 -1.09569E-01
    9028.274     33.395   3.280  8.91033E-01  1.00768E+00 -1.16652E-01
    9029.280     34.401   3.320  8.83845E-01  1.00575E+00 -1.21905E-01
    9030.298     35.419   3.360  8.78603E-01  1.00394E+00 -1.25336E-01
    9031.328     36.449   3.400  8.74972E-01  1.00225E+00 -1.27282E-01
    9032.370     37.491   3.440  8.72797E-01  1.00070E+00 -1.27900E-01
    9033.425     38.546   3.480  8.72110E-01  9.99288E-01 -1.27178E-01
    9034.492     39.613   3.520  8.73013E-01  9.98008E-01 -1.24995E-01
    9035.571     40.692   3.560  8.75732E-01  9.96857E-01 -1.21126E-01
    9036.662     41.783   3.600  8.80611E-01  9.95836E-01 -1.15225E-01
    9037.765     42.886   3.640  8.87966E-01  9.94966E-01 -1.07001E-01
    9038.881     44.002   3.680  8.97755E-01  9.94227E-01 -9.64726E-02
    9040.009     45.130   3.720  9.09733E-01  9.93637E-01 -8.39046E-02
    9041.149     46.270   3.760  9.23369E-01  9.93154E-01 -6.97855E-02
    9042.301     47.422   3.800  9.37869E-01  9.92821E-01 -5.49515E-02
    9043.465     48.586   3.840  9.52159E-01  9.92614E-01 -4.04550E-02
    9044.642     49.763   3.880  9.65335E-01  9.92532E-01 -2.71968E-02
    9045.830     50.951   3.920  9.76738E-01  9.92574E-01 -1.58352E-02
    9047.031     52.152   3.960  9.86013E-01  9.92737E-01 -6.72418E-03
    9048.244     53.365   4.000  9.93331E-01  9.93022E-01  3.09492E-04
    9049.470     54.591   4.040  9.99143E-01  9.93404E-01  5.73904E-03
    9050.707     55.828   4.080  1.00384E+00  9.93925E-01  9.91462E-03
    9051.957     57.078   4.120  1.00743E+00  9.94540E-01  1.28931E-02
    9053.219     58.340   4.160  1.00974E+00  9.95244E-01  1.44980E-02
    9054.493     59.614   4.200  1.01080E+00  9.96035E-01  1.47630E-02
    9055.779     60.900   4.240  1.01122E+00  9.96936E-01  1.42800E-02
    9057.077     62.198   4.280  1.01206E+00  9.97921E-01  1.41373E-02
    9058.388     63.509   4.320  1.01443E+00  9.98985E-01  1.54405E-02
    9059.711     64.832   4.360  1.01908E+00  1.00010E+00  1.89718E-02
    9061.046     66.167   4.400  1.02647E+00  1.00130E+00  2.51715E-02
    9062.393     67.514   4.440  1.03659E+00  1.00257E+00  3.40207E-02
    9063.753     68.873   4.480  1.04882E+00  1.00388E+00  4.49342E-02
    9065.124     70.245   4.520  1.06214E+00  1.00524E+00  5.68982E-02
    9066.508     71.629   4.560  1.07541E+00  1.00664E+00  6.87671E-02
    9067.904     73.025   4.600  1.08762E+00  1.00807E+00  7.95434E-02
    9069.312     74.433   4.640  1.09798E+00  1.00952E+00  8.84567E-02
    9070.732     75.853   4.680  1.10599E+00  1.01100E+00  9.49861E-02
    9072.165     77.286   4.720  1.11121E+00  1.01251E+00  9.87060E-02
    9073.610     78.731   4.760  1.11338E+00  1.01400E+00  9.93812E-02
    9075.067     80.188   4.800  1.11249E+00  1.01551E+00  9.69866E-02
    9076.536     81.657   4.840  1.10865E+00  1.01699E+00  9.16618E-02
    9078.017     83.138   4.880  1.10221E+00  1.01847E+00  8.37486E-02
    9079.511     84.632   4.920  1.09385E+00  1.01993E+00  7.39133E-02
    9081.016     86.137   4.960  1.08438E+00  1.02137E+00  6.30135E-02
    9082.534     87.655   5.000  1.07467E+00  1.02276E+00  5.19144E-02
    9084.064     89.185   5.040  1.06537E+00  1.02411E+00  4.12623E-02
    9085.607     90.727   5.080  1.05681E+00  1.02542E+00  3.13904E-02
    9087.161     92.282   5.120  1.04911E+00  1.02668E+00  2.24376E-02
    9088.728     93.849   5.160  1.04242E+00  1.02786E+00  1.45618E-02
    9090.307     95.427   5.200  1.03704E+00  1.02900E+00  8.03692E-03
    9091.898     97.019   5.240  1.03306E+00  1.03006E+00  3.00141E-03
    9093.501     98.622   5.280  1.03004E+00  1.03106E+00 -1.02355E-03
    9095.116    100.237   5.320  1.02661E+00  1.03196E+00 -5.35645E-03
    9096.744    101.865   5.360  1.02120E+00  1.03281E+00 -1.16038E-02
    9098.384    103.505   5.400  1.01287E+00  1.03356E+00 -2.06936E-02
    9100.036    105.157   5.440  1.00190E+00  1.03421E+00 -3.23193E-02
    9101.700    106.821   5.480  9.89632E-01  1.03480E+00 -4.51702E-02
    9103.376    108.497   5.520  9.77802E-01  1.03528E+00 -5.74777E-02
    9105.065    110.186   5.560  9.68127E-01  1.03567E+00 -6.75431E-02
    9106.766    111.887   5.600  9.61821E-01  1.03597E+00 -7.41520E-02
    9108.479    113.600   5.640  9.59243E-01  1.03617E+00 -7.69227E-02
    9110.204    115.325   5.680  9.60026E-01  1.03629E+00 -7.62669E-02
    9111.941    117.062   5.720  9.63232E-01  1.03629E+00 -7.30547E-02
    9113.691    118.812   5.760  9.68021E-01  1.03622E+00 -6.81960E-02
    9115.452    120.573   5.800  9.73609E-01  1.03606E+00 -6.24547E-02
    9117.226    122.347   5.840  9.79507E-01  1.03580E+00 -5.62938E-02
    9119.013    124.133   5.880  9.85646E-01  1.03545E+00 -4.98080E-02
    9120.811    125.932   5.920  9.92086E-01  1.03502E+00 -4.29347E-02
    9122.621    127.742   5.960  9.98497E-01  1.03447E+00 -3.59717E-02
    9124.444    129.565   6.000  1.00425E+00  1.03379E+00 -2.95384E-02
