# # comment:                                                     FEFF 9.9.1  
# # Source:
# # Structure
# # Reduced
# # space
# # abc:
# # angles:
# # sites:
# # POT  SCF 100  7.0000   0, screened core-hole, AFOLP (folp(0)= 1.150)
# # Abs   Z=29 Rmt= 1.167 Rnm= 1.343 K  shell
# # Pot 1 Z=29 Rmt= 1.209 Rnm= 1.362
# # Pot 2 Z=74 Rmt= 1.234 Rnm= 1.426
# # Pot 3 Z= 8 Rmt= 0.949 Rnm= 1.098
# # Gam_ch=1.729E+00 H-L exch Vi= 0.000E+00 Vr= 0.000E+00
# # Mu=-6.026E+00eV kf=2.186E+00 Vint=-1.512E+01eV Rs_int= 1.659
# FMS rfms= 9.0000
# # PATH  Rmax=-1.000,  Keep_limit= 0.00, Heap_limit 0.00  Pwcrit= 2.50%
#  S02=0.950  Temp=   0.00  Debye_temp=   0.00  Global_sig2= 0.00000
#  Energy zero shift, vr, vi    0.00000E+00   0.00000E+00
#  Curved wave amplitude ratio filter   4.000%
#     file         sig2 tot  cw amp ratio   deg  nlegs   reff  inp sig2
#     0/   0 paths used
#  xsedge+ 50, used to normalize mu           2.4425E-04
#  -----------------------------------------------------------------------
#  omega    e    k    mu    mu0     chi     @#
    8983.556     -9.836  -1.000  4.85670E-02  5.76572E-02 -9.09022E-03
    8983.855     -9.537  -0.960  5.18390E-02  6.19261E-02 -1.00871E-02
    8984.141     -9.251  -0.920  5.54551E-02  6.66751E-02 -1.12200E-02
    8984.416     -8.976  -0.880  5.94649E-02  7.19754E-02 -1.25105E-02
    8984.678     -8.714  -0.840  6.39256E-02  7.79097E-02 -1.39841E-02
    8984.928     -8.464  -0.800  6.89036E-02  8.45739E-02 -1.56703E-02
    8985.166     -8.227  -0.760  7.44751E-02  9.20780E-02 -1.76030E-02
    8985.391     -8.001  -0.720  8.07258E-02  1.00547E-01 -1.98208E-02
    8985.605     -7.788  -0.680  8.77503E-02  1.10117E-01 -2.23663E-02
    8985.806     -7.586  -0.640  9.56480E-02  1.20933E-01 -2.52850E-02
    8985.995     -7.397  -0.600  1.04516E-01  1.33138E-01 -2.86215E-02
    8986.171     -7.221  -0.560  1.14438E-01  1.46853E-01 -3.24148E-02
    8986.336     -7.056  -0.520  1.25460E-01  1.62150E-01 -3.66895E-02
    8986.488     -6.904  -0.480  1.37570E-01  1.79014E-01 -4.14437E-02
    8986.629     -6.763  -0.440  1.50661E-01  1.97297E-01 -4.66359E-02
    8986.757     -6.635  -0.400  1.64507E-01  2.16680E-01 -5.21732E-02
    8986.872     -6.520  -0.360  1.78753E-01  2.36661E-01 -5.79075E-02
    8986.976     -6.416  -0.320  1.92941E-01  2.56587E-01 -6.36456E-02
    8987.068     -6.325  -0.280  2.06562E-01  2.75734E-01 -6.91723E-02
    8987.147     -6.245  -0.240  2.19127E-01  2.93407E-01 -7.42805E-02
    8987.214     -6.178  -0.200  2.30227E-01  3.09023E-01 -7.87969E-02
    8987.269     -6.123  -0.160  2.39563E-01  3.22158E-01 -8.25948E-02
    8987.311     -6.081  -0.120  2.46944E-01  3.32538E-01 -8.55940E-02
    8987.342     -6.050  -0.080  2.52264E-01  3.40016E-01 -8.77513E-02
    8987.366     -6.026   0.000  2.56541E-01  3.46023E-01 -8.94819E-02
    8987.421     -5.971   0.120  2.66129E-01  3.59571E-01 -9.34415E-02
    8987.464     -5.928   0.160  2.73571E-01  3.70074E-01 -9.65029E-02
    8987.519     -5.873   0.200  2.83107E-01  3.83518E-01 -1.00411E-01
    8987.586     -5.806   0.240  2.94563E-01  3.99655E-01 -1.05092E-01
    8987.665     -5.727   0.280  3.07739E-01  4.18178E-01 -1.10439E-01
    8987.756     -5.636   0.320  3.22332E-01  4.38609E-01 -1.16277E-01
    8987.860     -5.532   0.360  3.37928E-01  4.60334E-01 -1.22405E-01
    8987.976     -5.416   0.400  3.54120E-01  4.82721E-01 -1.28601E-01
    8988.104     -5.288   0.440  3.70509E-01  5.05174E-01 -1.34665E-01
    8988.244     -5.148   0.480  3.86793E-01  5.27246E-01 -1.40454E-01
    8988.396     -4.996   0.520  4.02755E-01  5.48632E-01 -1.45877E-01
    8988.561     -4.831   0.560  4.18386E-01  5.69180E-01 -1.50795E-01
    8988.738     -4.654   0.600  4.33921E-01  5.88876E-01 -1.54955E-01
    8988.927     -4.465   0.640  4.49841E-01  6.07759E-01 -1.57918E-01
    8989.128     -4.264   0.680  4.66767E-01  6.25913E-01 -1.59146E-01
    8989.341     -4.051   0.720  4.85392E-01  6.43434E-01 -1.58042E-01
    8989.567     -3.825   0.760  5.06244E-01  6.60417E-01 -1.54173E-01
    8989.805     -3.587   0.800  5.29108E-01  6.76967E-01 -1.47860E-01
    8990.055     -3.338   0.840  5.52189E-01  6.93116E-01 -1.40927E-01
    8990.317     -3.075   0.880  5.72367E-01  7.08958E-01 -1.36591E-01
    8990.591     -2.801   0.920  5.86768E-01  7.24495E-01 -1.37727E-01
    8990.878     -2.515   0.960  5.95483E-01  7.39774E-01 -1.44291E-01
    8991.176     -2.216   1.000  6.01928E-01  7.54791E-01 -1.52864E-01
    8991.487     -1.905   1.040  6.10566E-01  7.69553E-01 -1.58988E-01
    8991.810     -1.582   1.080  6.24471E-01  7.84080E-01 -1.59609E-01
    8992.146     -1.247   1.120  6.44252E-01  7.98322E-01 -1.54071E-01
    8992.493     -0.899   1.160  6.67689E-01  8.12286E-01 -1.44597E-01
    8992.853     -0.539   1.200  6.89562E-01  8.25956E-01 -1.36394E-01
    8993.224     -0.168   1.240  7.04083E-01  8.39288E-01 -1.35204E-01
    8993.609      0.216   1.280  7.08568E-01  8.52260E-01 -1.43692E-01
    8994.005      0.613   1.320  7.04006E-01  8.64868E-01 -1.60862E-01
    8994.413      1.021   1.360  6.94168E-01  8.77066E-01 -1.82897E-01
    8994.834      1.442   1.400  6.84800E-01  8.88848E-01 -2.04048E-01
    8995.267      1.875   1.440  6.81458E-01  9.00189E-01 -2.18731E-01
    8995.712      2.320   1.480  6.87108E-01  9.11060E-01 -2.23952E-01
    8996.169      2.777   1.520  7.01290E-01  9.21438E-01 -2.20148E-01
    8996.638      3.246   1.560  7.22572E-01  9.31340E-01 -2.08767E-01
    8997.120      3.728   1.600  7.51040E-01  9.40719E-01 -1.89679E-01
    8997.614      4.221   1.640  7.87562E-01  9.49595E-01 -1.62033E-01
    8998.120      4.727   1.680  8.31924E-01  9.57926E-01 -1.26002E-01
    8998.638      5.246   1.720  8.82468E-01  9.65754E-01 -8.32856E-02
    8999.168      5.776   1.760  9.36436E-01  9.73037E-01 -3.66011E-02
    8999.711      6.318   1.800  9.90507E-01  9.79799E-01  1.07077E-02
    9000.265      6.873   1.840  1.04012E+00  9.86046E-01  5.40779E-02
    9000.832      7.440   1.880  1.08297E+00  9.91781E-01  9.11923E-02
    9001.411      8.019   1.920  1.12309E+00  9.96988E-01  1.26100E-01
    9002.003      8.611   1.960  1.16715E+00  1.00174E+00  1.65412E-01
    9002.606      9.214   2.000  1.21659E+00  1.00600E+00  2.10593E-01
    9003.222      9.830   2.040  1.26297E+00  1.00979E+00  2.53174E-01
    9003.850     10.458   2.080  1.29397E+00  1.01316E+00  2.80815E-01
    9004.490     11.098   2.120  1.30530E+00  1.01610E+00  2.89206E-01
    9005.142     11.750   2.160  1.30237E+00  1.01860E+00  2.83763E-01
    9005.807     12.414   2.200  1.29076E+00  1.02075E+00  2.70009E-01
    9006.483     13.091   2.240  1.26895E+00  1.02252E+00  2.46431E-01
    9007.172     13.780   2.280  1.23372E+00  1.02396E+00  2.09759E-01
    9007.873     14.481   2.320  1.18818E+00  1.02506E+00  1.63118E-01
    9008.586     15.194   2.360  1.14120E+00  1.02587E+00  1.15329E-01
    9009.312     15.920   2.400  1.10305E+00  1.02639E+00  7.66601E-02
    9010.049     16.657   2.440  1.08039E+00  1.02666E+00  5.37344E-02
    9010.799     17.407   2.480  1.07252E+00  1.02670E+00  4.58193E-02
    9011.561     18.169   2.520  1.07418E+00  1.02650E+00  4.76740E-02
    9012.335     18.943   2.560  1.08134E+00  1.02611E+00  5.52296E-02
    9013.122     19.730   2.600  1.08617E+00  1.02553E+00  6.06362E-02
    9013.920     20.528   2.640  1.08293E+00  1.02482E+00  5.81086E-02
    9014.731     21.339   2.680  1.07413E+00  1.02395E+00  5.01772E-02
    9015.554     22.162   2.720  1.06277E+00  1.02296E+00  3.98160E-02
    9016.389     22.997   2.760  1.05113E+00  1.02187E+00  2.92637E-02
    9017.237     23.844   2.800  1.04051E+00  1.02066E+00  1.98463E-02
    9018.096     24.704   2.840  1.03179E+00  1.01940E+00  1.23897E-02
    9018.968     25.576   2.880  1.02516E+00  1.01807E+00  7.09537E-03
    9019.852     26.460   2.920  1.01985E+00  1.01668E+00  3.16917E-03
    9020.748     27.356   2.960  1.01480E+00  1.01526E+00 -4.60125E-04
    9021.656     28.264   3.000  1.00906E+00  1.01383E+00 -4.76690E-03
    9022.577     29.184   3.040  1.00210E+00  1.01236E+00 -1.02666E-02
    9023.509     30.117   3.080  9.94207E-01  1.01092E+00 -1.67098E-02
    9024.454     31.062   3.120  9.86137E-01  1.00947E+00 -2.33377E-02
    9025.411     32.019   3.160  9.78433E-01  1.00804E+00 -2.96048E-02
    9026.381     32.988   3.200  9.71236E-01  1.00663E+00 -3.53963E-02
    9027.362     33.970   3.240  9.64371E-01  1.00524E+00 -4.08708E-02
    9028.356     34.963   3.280  9.57541E-01  1.00391E+00 -4.63708E-02
    9029.361     35.969   3.320  9.50477E-01  1.00262E+00 -5.21467E-02
    9030.379     36.987   3.360  9.43209E-01  1.00138E+00 -5.81720E-02
    9031.410     38.018   3.400  9.35961E-01  1.00021E+00 -6.42454E-02
    9032.452     39.060   3.440  9.28952E-01  9.99081E-01 -7.01289E-02
    9033.507     40.115   3.480  9.22455E-01  9.98006E-01 -7.55516E-02
    9034.573     41.181   3.520  9.16874E-01  9.97027E-01 -8.01531E-02
    9035.652     42.260   3.560  9.12534E-01  9.96105E-01 -8.35707E-02
    9036.744     43.352   3.600  9.09849E-01  9.95259E-01 -8.54105E-02
    9037.847     44.455   3.640  9.09163E-01  9.94492E-01 -8.53284E-02
    9038.963     45.570   3.680  9.10705E-01  9.93804E-01 -8.30993E-02
    9040.090     46.698   3.720  9.14522E-01  9.93198E-01 -7.86753E-02
    9041.230     47.838   3.760  9.20642E-01  9.92671E-01 -7.20291E-02
    9042.382     48.990   3.800  9.28958E-01  9.92225E-01 -6.32667E-02
    9043.547     50.155   3.840  9.39118E-01  9.91860E-01 -5.27418E-02
    9044.723     51.331   3.880  9.50544E-01  9.91575E-01 -4.10309E-02
    9045.912     52.520   3.920  9.62568E-01  9.91371E-01 -2.88025E-02
    9047.113     53.721   3.960  9.74480E-01  9.91246E-01 -1.67654E-02
    9048.326     54.934   4.000  9.85611E-01  9.91199E-01 -5.58745E-03
    9049.551     56.159   4.040  9.95411E-01  9.91209E-01  4.20204E-03
    9050.789     57.397   4.080  1.00356E+00  9.91319E-01  1.22398E-02
    9052.038     58.646   4.120  1.00995E+00  9.91483E-01  1.84670E-02
    9053.300     59.908   4.160  1.01491E+00  9.91723E-01  2.31866E-02
    9054.574     61.182   4.200  1.01892E+00  9.92037E-01  2.68823E-02
    9055.861     62.469   4.240  1.02237E+00  9.92403E-01  2.99702E-02
    9057.159     63.767   4.280  1.02551E+00  9.92840E-01  3.26664E-02
    9058.470     65.078   4.320  1.02830E+00  9.93325E-01  3.49790E-02
    9059.793     66.400   4.360  1.03063E+00  9.93877E-01  3.67493E-02
    9061.128     67.735   4.400  1.03222E+00  9.94452E-01  3.77676E-02
    9062.475     69.083   4.440  1.03298E+00  9.95091E-01  3.78923E-02
    9063.834     70.442   4.480  1.03284E+00  9.95774E-01  3.70684E-02
    9065.206     71.814   4.520  1.03188E+00  9.96497E-01  3.53839E-02
    9066.590     73.197   4.560  1.03032E+00  9.97257E-01  3.30583E-02
    9067.986     74.593   4.600  1.02840E+00  9.98052E-01  3.03522E-02
    9069.394     76.002   4.640  1.02640E+00  9.98861E-01  2.75386E-02
    9070.814     77.422   4.680  1.02463E+00  9.99699E-01  2.49306E-02
    9072.247     78.854   4.720  1.02341E+00  1.00055E+00  2.28673E-02
    9073.691     80.299   4.760  1.02309E+00  1.00142E+00  2.16724E-02
    9075.148     81.756   4.800  1.02387E+00  1.00229E+00  2.15772E-02
    9076.617     83.225   4.840  1.02578E+00  1.00315E+00  2.26332E-02
    9078.099     84.707   4.880  1.02868E+00  1.00402E+00  2.46560E-02
    9079.592     86.200   4.920  1.03212E+00  1.00489E+00  2.72307E-02
    9081.098     87.706   4.960  1.03545E+00  1.00574E+00  2.97101E-02
    9082.616     89.224   5.000  1.03789E+00  1.00657E+00  3.13125E-02
    9084.146     90.754   5.040  1.03873E+00  1.00740E+00  3.13303E-02
    9085.688     92.296   5.080  1.03754E+00  1.00820E+00  2.93422E-02
    9087.243     93.851   5.120  1.03432E+00  1.00896E+00  2.53636E-02
    9088.809     95.417   5.160  1.02950E+00  1.00970E+00  1.97973E-02
    9090.388     96.996   5.200  1.02366E+00  1.01041E+00  1.32475E-02
    9091.979     98.587   5.240  1.01742E+00  1.01108E+00  6.33938E-03
    9093.583    100.190   5.280  1.01129E+00  1.01171E+00 -4.13001E-04
    9095.198    101.806   5.320  1.00563E+00  1.01227E+00 -6.63863E-03
    9096.826    103.433   5.360  1.00068E+00  1.01280E+00 -1.21227E-02
    9098.465    105.073   5.400  9.96543E-01  1.01330E+00 -1.67560E-02
    9100.117    106.725   5.440  9.93229E-01  1.01372E+00 -2.04953E-02
    9101.782    108.389   5.480  9.90791E-01  1.01410E+00 -2.33100E-02
    9103.458    110.066   5.520  9.89289E-01  1.01441E+00 -2.51175E-02
    9105.147    111.754   5.560  9.88917E-01  1.01466E+00 -2.57473E-02
    9106.847    113.455   5.600  9.89898E-01  1.01487E+00 -2.49736E-02
    9108.560    115.168   5.640  9.92354E-01  1.01501E+00 -2.26536E-02
    9110.285    116.893   5.680  9.96180E-01  1.01507E+00 -1.88893E-02
    9112.023    118.631   5.720  1.00092E+00  1.01508E+00 -1.41656E-02
    9113.772    120.380   5.760  1.00573E+00  1.01505E+00 -9.31806E-03
    9115.534    122.142   5.800  1.00959E+00  1.01494E+00 -5.35456E-03
    9117.308    123.916   5.840  1.01163E+00  1.01479E+00 -3.15693E-03
    9119.094    125.702   5.880  1.01138E+00  1.01456E+00 -3.18310E-03
    9120.892    127.500   5.920  1.00901E+00  1.01426E+00 -5.25245E-03
    9122.703    129.311   5.960  1.00543E+00  1.01394E+00 -8.51244E-03
    9124.526    131.134   6.000  1.00174E+00  1.01347E+00 -1.17231E-02
