# # comment:                                                     FEFF 9.9.1  
# # Source:
# # Structure
# # Reduced
# # space
# # abc:
# # angles:
# # sites:
# # POT  SCF 100  7.0000   0, screened core-hole, AFOLP (folp(0)= 1.150)
# # Abs   Z=29 Rmt= 1.267 Rnm= 1.325 K  shell
# # Pot 1 Z= 3 Rmt= 1.233 Rnm= 1.300
# # Pot 2 Z=25 Rmt= 1.223 Rnm= 1.341
# # Pot 3 Z=29 Rmt= 1.272 Rnm= 1.330
# # Pot 4 Z= 8 Rmt= 1.023 Rnm= 1.098
# # Gam_ch=1.729E+00 H-L exch Vi= 0.000E+00 Vr= 0.000E+00
# # Mu=-1.103E+01eV kf=2.169E+00 Vint=-1.816E+01eV Rs_int= 1.672
# FMS rfms= 9.0000
# # PATH  Rmax=-1.000,  Keep_limit= 0.00, Heap_limit 0.00  Pwcrit= 2.50%
#  S02=0.950  Temp=   0.00  Debye_temp=   0.00  Global_sig2= 0.00000
#  Energy zero shift, vr, vi    0.00000E+00   0.00000E+00
#  Curved wave amplitude ratio filter   4.000%
#     file         sig2 tot  cw amp ratio   deg  nlegs   reff  inp sig2
#     0/   0 paths used
#  xsedge+ 50, used to normalize mu           2.4796E-04
#  -----------------------------------------------------------------------
#  omega    e    k    mu    mu0     chi     @#
    8984.803    -14.844  -1.000  3.03996E-02  4.71735E-02 -1.67738E-02
    8985.101    -14.545  -0.960  3.17019E-02  5.03952E-02 -1.86933E-02
    8985.388    -14.258  -0.920  3.30866E-02  5.39579E-02 -2.08713E-02
    8985.662    -13.984  -0.880  3.45638E-02  5.79103E-02 -2.33465E-02
    8985.924    -13.722  -0.840  3.61453E-02  6.23087E-02 -2.61634E-02
    8986.174    -13.472  -0.800  3.78455E-02  6.72185E-02 -2.93730E-02
    8986.412    -13.234  -0.760  3.96814E-02  7.27146E-02 -3.30332E-02
    8986.637    -13.009  -0.720  4.16724E-02  7.88811E-02 -3.72087E-02
    8986.851    -12.795  -0.680  4.38409E-02  8.58105E-02 -4.19696E-02
    8987.052    -12.594  -0.640  4.62110E-02  9.36001E-02 -4.73892E-02
    8987.241    -12.405  -0.600  4.88064E-02  1.02345E-01 -5.35387E-02
    8987.418    -12.228  -0.560  5.16475E-02  1.12126E-01 -6.04785E-02
    8987.582    -12.064  -0.520  5.47449E-02  1.22990E-01 -6.82447E-02
    8987.735    -11.911  -0.480  5.80916E-02  1.34922E-01 -7.68309E-02
    8987.875    -11.771  -0.440  6.16535E-02  1.47821E-01 -8.61672E-02
    8988.003    -11.643  -0.400  6.53614E-02  1.61464E-01 -9.61025E-02
    8988.119    -11.527  -0.360  6.91098E-02  1.75507E-01 -1.06397E-01
    8988.222    -11.424  -0.320  7.27654E-02  1.89502E-01 -1.16737E-01
    8988.314    -11.332  -0.280  7.61874E-02  2.02951E-01 -1.26764E-01
    8988.393    -11.253  -0.240  7.92515E-02  2.15373E-01 -1.36121E-01
    8988.460    -11.186  -0.200  8.18697E-02  2.26361E-01 -1.44491E-01
    8988.515    -11.131  -0.160  8.39972E-02  2.35615E-01 -1.51618E-01
    8988.558    -11.088  -0.120  8.56250E-02  2.42940E-01 -1.57315E-01
    8988.588    -11.058  -0.080  8.67654E-02  2.48224E-01 -1.61458E-01
    8988.613    -11.034   0.000  8.76556E-02  2.52473E-01 -1.64817E-01
    8988.667    -10.979   0.120  8.96016E-02  2.62078E-01 -1.72477E-01
    8988.710    -10.936   0.160  9.10176E-02  2.69536E-01 -1.78518E-01
    8988.765    -10.881   0.200  9.27320E-02  2.79115E-01 -1.86383E-01
    8988.832    -10.814   0.240  9.46061E-02  2.90645E-01 -1.96039E-01
    8988.911    -10.735   0.280  9.65285E-02  3.03967E-01 -2.07438E-01
    8989.003    -10.643   0.320  9.83804E-02  3.18783E-01 -2.20402E-01
    8989.106    -10.540   0.360  1.00070E-01  3.34676E-01 -2.34606E-01
    8989.222    -10.424   0.400  1.01666E-01  3.51284E-01 -2.49617E-01
    8989.350    -10.296   0.440  1.03342E-01  3.68198E-01 -2.64856E-01
    8989.490    -10.156   0.480  1.05367E-01  3.85135E-01 -2.79767E-01
    8989.643    -10.003   0.520  1.08130E-01  4.01934E-01 -2.93805E-01
    8989.807     -9.839   0.560  1.11883E-01  4.18474E-01 -3.06591E-01
    8989.984     -9.662   0.600  1.16798E-01  4.34766E-01 -3.17968E-01
    8990.173     -9.473   0.640  1.22713E-01  4.50833E-01 -3.28120E-01
    8990.374     -9.272   0.680  1.29082E-01  4.66723E-01 -3.37641E-01
    8990.588     -9.058   0.720  1.35128E-01  4.82510E-01 -3.47382E-01
    8990.813     -8.833   0.760  1.40039E-01  4.98231E-01 -3.58192E-01
    8991.051     -8.595   0.800  1.43720E-01  5.13972E-01 -3.70252E-01
    8991.301     -8.345   0.840  1.47083E-01  5.29769E-01 -3.82686E-01
    8991.563     -8.083   0.880  1.51812E-01  5.45628E-01 -3.93816E-01
    8991.837     -7.809   0.920  1.59635E-01  5.61583E-01 -4.01948E-01
    8992.124     -7.522   0.960  1.71878E-01  5.77640E-01 -4.05762E-01
    8992.423     -7.224   1.000  1.89463E-01  5.93778E-01 -4.04315E-01
    8992.733     -6.913   1.040  2.13315E-01  6.10006E-01 -3.96691E-01
    8993.057     -6.590   1.080  2.44463E-01  6.26288E-01 -3.81824E-01
    8993.392     -6.254   1.120  2.82625E-01  6.42603E-01 -3.59978E-01
    8993.739     -5.907   1.160  3.23375E-01  6.58924E-01 -3.35550E-01
    8994.099     -5.547   1.200  3.58619E-01  6.75225E-01 -3.16606E-01
    8994.471     -5.175   1.240  3.85834E-01  6.91472E-01 -3.05638E-01
    8994.855     -4.791   1.280  4.18371E-01  7.07613E-01 -2.89242E-01
    8995.251     -4.395   1.320  4.72366E-01  7.23611E-01 -2.51245E-01
    8995.659     -3.987   1.360  5.41084E-01  7.39409E-01 -1.98325E-01
    8996.080     -3.566   1.400  6.03562E-01  7.55013E-01 -1.51451E-01
    8996.513     -3.133   1.440  6.58851E-01  7.70323E-01 -1.11472E-01
    8996.958     -2.688   1.480  7.18740E-01  7.85343E-01 -6.66027E-02
    8997.415     -2.231   1.520  7.77707E-01  8.00036E-01 -2.23291E-02
    8997.885     -1.762   1.560  8.17371E-01  8.14347E-01  3.02498E-03
    8998.366     -1.280   1.600  8.36396E-01  8.28238E-01  8.15786E-03
    8998.860     -0.786   1.640  8.55570E-01  8.41697E-01  1.38731E-02
    8999.366     -0.280   1.680  8.91700E-01  8.54694E-01  3.70063E-02
    8999.884      0.238   1.720  9.51274E-01  8.67193E-01  8.40805E-02
    9000.414      0.768   1.760  1.02914E+00  8.79187E-01  1.49952E-01
    9000.957      1.311   1.800  1.11350E+00  8.90648E-01  2.22850E-01
    9001.512      1.866   1.840  1.21288E+00  9.01571E-01  3.11311E-01
    9002.079      2.432   1.880  1.33461E+00  9.11948E-01  4.22658E-01
    9002.658      3.012   1.920  1.44385E+00  9.21757E-01  5.22097E-01
    9003.249      3.603   1.960  1.50277E+00  9.30998E-01  5.71775E-01
    9003.852      4.206   2.000  1.53299E+00  9.39690E-01  5.93305E-01
    9004.468      4.822   2.040  1.57831E+00  9.47793E-01  6.30513E-01
    9005.096      5.450   2.080  1.63435E+00  9.55351E-01  6.78995E-01
    9005.736      6.090   2.120  1.64649E+00  9.62368E-01  6.84121E-01
    9006.388      6.742   2.160  1.56840E+00  9.68830E-01  5.99567E-01
    9007.053      7.407   2.200  1.39989E+00  9.74762E-01  4.25128E-01
    9007.730      8.083   2.240  1.20150E+00  9.80192E-01  2.21308E-01
    9008.418      8.772   2.280  1.04492E+00  9.85129E-01  5.97896E-02
    9009.119      9.473   2.320  9.46203E-01  9.89560E-01 -4.33570E-02
    9009.833     10.187   2.360  8.89417E-01  9.93555E-01 -1.04138E-01
    9010.558     10.912   2.400  8.61710E-01  9.97085E-01 -1.35375E-01
    9011.296     11.650   2.440  8.54708E-01  1.00020E+00 -1.45491E-01
    9012.045     12.399   2.480  8.51844E-01  1.00291E+00 -1.51064E-01
    9012.807     13.161   2.520  8.38907E-01  1.00524E+00 -1.66337E-01
    9013.582     13.936   2.560  8.27164E-01  1.00722E+00 -1.80054E-01
    9014.368     14.722   2.600  8.42271E-01  1.00886E+00 -1.66589E-01
    9015.167     15.520   2.640  8.66789E-01  1.01018E+00 -1.43390E-01
    9015.977     16.331   2.680  8.89120E-01  1.01121E+00 -1.22090E-01
    9016.800     17.154   2.720  9.05670E-01  1.01196E+00 -1.06292E-01
    9017.635     17.989   2.760  9.16740E-01  1.01246E+00 -9.57230E-02
    9018.483     18.837   2.800  9.23642E-01  1.01273E+00 -8.90835E-02
    9019.342     19.696   2.840  9.27627E-01  1.01278E+00 -8.51531E-02
    9020.214     20.568   2.880  9.29338E-01  1.01264E+00 -8.32977E-02
    9021.098     21.452   2.920  9.28938E-01  1.01232E+00 -8.33849E-02
    9021.994     22.348   2.960  9.26376E-01  1.01187E+00 -8.54952E-02
    9022.902     23.256   3.000  9.21486E-01  1.01127E+00 -8.97825E-02
    9023.823     24.177   3.040  9.14367E-01  1.01052E+00 -9.61529E-02
    9024.756     25.109   3.080  9.05753E-01  1.00970E+00 -1.03945E-01
    9025.700     26.054   3.120  8.96585E-01  1.00877E+00 -1.12182E-01
    9026.658     27.011   3.160  8.88077E-01  1.00776E+00 -1.19678E-01
    9027.627     27.981   3.200  8.81211E-01  1.00667E+00 -1.25459E-01
    9028.608     28.962   3.240  8.76609E-01  1.00556E+00 -1.28949E-01
    9029.602     29.956   3.280  8.74703E-01  1.00438E+00 -1.29681E-01
    9030.608     30.962   3.320  8.76454E-01  1.00319E+00 -1.26740E-01
    9031.626     31.980   3.360  8.82823E-01  1.00197E+00 -1.19149E-01
    9032.656     33.010   3.400  8.93784E-01  1.00075E+00 -1.06963E-01
    9033.698     34.052   3.440  9.08245E-01  9.99520E-01 -9.12751E-02
    9034.753     35.107   3.480  9.24601E-01  9.98317E-01 -7.37157E-02
    9035.820     36.174   3.520  9.41376E-01  9.97099E-01 -5.57231E-02
    9036.899     37.253   3.560  9.58396E-01  9.95933E-01 -3.75372E-02
    9037.990     38.344   3.600  9.76487E-01  9.94780E-01 -1.82938E-02
    9039.093     39.447   3.640  9.96546E-01  9.93663E-01  2.88326E-03
    9040.209     40.563   3.680  1.01847E+00  9.92584E-01  2.58904E-02
    9041.337     41.691   3.720  1.04119E+00  9.91546E-01  4.96445E-02
    9042.477     42.830   3.760  1.06324E+00  9.90552E-01  7.26836E-02
    9043.629     43.983   3.800  1.08328E+00  9.89624E-01  9.36598E-02
    9044.793     45.147   3.840  1.10048E+00  9.88741E-01  1.11735E-01
    9045.970     46.323   3.880  1.11445E+00  9.87906E-01  1.26539E-01
    9047.158     47.512   3.920  1.12510E+00  9.87142E-01  1.37957E-01
    9048.359     48.713   3.960  1.13259E+00  9.86448E-01  1.46139E-01
    9049.572     49.926   4.000  1.13748E+00  9.85805E-01  1.51673E-01
    9050.798     51.151   4.040  1.14038E+00  9.85233E-01  1.55150E-01
    9052.035     52.389   4.080  1.14141E+00  9.84712E-01  1.56693E-01
    9053.285     53.639   4.120  1.13985E+00  9.84261E-01  1.55590E-01
    9054.547     54.900   4.160  1.13420E+00  9.83860E-01  1.50345E-01
    9055.821     56.175   4.200  1.12276E+00  9.83532E-01  1.39230E-01
    9057.107     57.461   4.240  1.10444E+00  9.83276E-01  1.21164E-01
    9058.405     58.759   4.280  1.07964E+00  9.83070E-01  9.65668E-02
    9059.716     60.070   4.320  1.05037E+00  9.82933E-01  6.74395E-02
    9061.039     61.393   4.360  1.01943E+00  9.82847E-01  3.65847E-02
    9062.374     62.728   4.400  9.89478E-01  9.82828E-01  6.64970E-03
    9063.721     64.075   4.440  9.62405E-01  9.82855E-01 -2.04504E-02
    9065.080     65.434   4.480  9.39322E-01  9.82925E-01 -4.36033E-02
    9066.452     66.806   4.520  9.20690E-01  9.83040E-01 -6.23493E-02
    9067.836     68.190   4.560  9.06394E-01  9.83219E-01 -7.68252E-02
    9069.232     69.586   4.600  8.95891E-01  9.83441E-01 -8.75499E-02
    9070.640     70.994   4.640  8.88581E-01  9.83703E-01 -9.51218E-02
    9072.060     72.414   4.680  8.83976E-01  9.83980E-01 -1.00004E-01
    9073.493     73.847   4.720  8.81831E-01  9.84316E-01 -1.02485E-01
    9074.938     75.292   4.760  8.81991E-01  9.84668E-01 -1.02678E-01
    9076.395     76.748   4.800  8.84486E-01  9.85076E-01 -1.00590E-01
    9077.864     78.218   4.840  8.89336E-01  9.85474E-01 -9.61377E-02
    9079.345     79.699   4.880  8.96821E-01  9.85924E-01 -8.91034E-02
    9080.839     81.192   4.920  9.07146E-01  9.86383E-01 -7.92364E-02
    9082.344     82.698   4.960  9.20443E-01  9.86845E-01 -6.64019E-02
    9083.862     84.216   5.000  9.36430E-01  9.87312E-01 -5.08819E-02
    9085.392     85.746   5.040  9.54239E-01  9.87802E-01 -3.35623E-02
    9086.935     87.288   5.080  9.72484E-01  9.88272E-01 -1.57876E-02
    9088.489     88.843   5.120  9.89818E-01  9.88764E-01  1.05409E-03
    9090.056     90.410   5.160  1.00524E+00  9.89254E-01  1.59829E-02
    9091.635     91.988   5.200  1.01824E+00  9.89717E-01  2.85266E-02
    9093.226     93.579   5.240  1.02877E+00  9.90175E-01  3.85917E-02
    9094.829     95.183   5.280  1.03684E+00  9.90626E-01  4.62185E-02
    9096.444     96.798   5.320  1.04238E+00  9.91046E-01  5.13329E-02
    9098.072     98.426   5.360  1.04527E+00  9.91459E-01  5.38135E-02
    9099.712    100.066   5.400  1.04549E+00  9.91861E-01  5.36297E-02
    9101.364    101.718   5.440  1.04291E+00  9.92207E-01  5.07029E-02
    9103.028    103.382   5.480  1.03738E+00  9.92539E-01  4.48361E-02
    9104.704    105.058   5.520  1.02891E+00  9.92859E-01  3.60469E-02
    9106.393    106.747   5.560  1.01798E+00  9.93119E-01  2.48570E-02
    9108.094    108.448   5.600  1.00543E+00  9.93362E-01  1.20637E-02
    9109.807    110.160   5.640  9.91903E-01  9.93544E-01 -1.64033E-03
    9111.532    111.886   5.680  9.78080E-01  9.93710E-01 -1.56295E-02
    9113.269    113.623   5.720  9.64740E-01  9.93837E-01 -2.90970E-02
    9115.019    115.373   5.760  9.52854E-01  9.93925E-01 -4.10702E-02
    9116.780    117.134   5.800  9.43266E-01  9.93972E-01 -5.07053E-02
    9118.554    118.908   5.840  9.36586E-01  9.93953E-01 -5.73666E-02
    9120.340    120.694   5.880  9.33431E-01  9.93918E-01 -6.04869E-02
    9122.139    122.493   5.920  9.34230E-01  9.93844E-01 -5.96145E-02
    9123.949    124.303   5.960  9.39121E-01  9.93701E-01 -5.45804E-02
    9125.772    126.126   6.000  9.48297E-01  9.93519E-01 -4.52226E-02
