# # comment:                                                     FEFF 9.9.1  
# # Source:
# # Structure
# # Reduced
# # space
# # abc:
# # angles:
# # sites:
# # POT  SCF 100  7.0000   0, screened core-hole, AFOLP (folp(0)= 1.150)
# # Abs   Z=29 Rmt= 1.207 Rnm= 1.301 K  shell
# # Pot 1 Z=38 Rmt= 1.784 Rnm= 1.840
# # Pot 2 Z=29 Rmt= 1.208 Rnm= 1.301
# # Pot 3 Z= 8 Rmt= 1.069 Rnm= 1.120
# # Gam_ch=1.729E+00 H-L exch Vi= 0.000E+00 Vr= 0.000E+00
# # Mu=-8.618E+00eV kf=1.994E+00 Vint=-1.706E+01eV Rs_int= 1.819
# FMS rfms= 9.0000
# # PATH  Rmax=-1.000,  Keep_limit= 0.00, Heap_limit 0.00  Pwcrit= 2.50%
#  S02=0.950  Temp=   0.00  Debye_temp=   0.00  Global_sig2= 0.00000
#  Energy zero shift, vr, vi    0.00000E+00   0.00000E+00
#  Curved wave amplitude ratio filter   4.000%
#     file         sig2 tot  cw amp ratio   deg  nlegs   reff  inp sig2
#     0/   0 paths used
#  xsedge+ 50, used to normalize mu           2.4406E-04
#  -----------------------------------------------------------------------
#  omega    e    k    mu    mu0     chi     @#
    8984.797    -12.428  -1.000  4.31441E-02  5.82587E-02 -1.51146E-02
    8985.096    -12.130  -0.960  4.58743E-02  6.25781E-02 -1.67037E-02
    8985.382    -11.843  -0.920  4.89020E-02  6.73827E-02 -1.84807E-02
    8985.657    -11.569  -0.880  5.22755E-02  7.27441E-02 -2.04687E-02
    8985.919    -11.307  -0.840  5.60521E-02  7.87458E-02 -2.26937E-02
    8986.169    -11.057  -0.800  6.02997E-02  8.54842E-02 -2.51845E-02
    8986.406    -10.819  -0.760  6.50974E-02  9.30702E-02 -2.79728E-02
    8986.632    -10.594  -0.720  7.05363E-02  1.01629E-01 -3.10926E-02
    8986.845    -10.380  -0.680  7.67186E-02  1.11298E-01 -3.45798E-02
    8987.047    -10.179  -0.640  8.37542E-02  1.22224E-01 -3.84699E-02
    8987.236     -9.990  -0.600  9.17536E-02  1.34549E-01 -4.27954E-02
    8987.412     -9.813  -0.560  1.00815E-01  1.48395E-01 -4.75799E-02
    8987.577     -9.649  -0.520  1.11004E-01  1.63835E-01 -5.28310E-02
    8987.729     -9.496  -0.480  1.22324E-01  1.80853E-01 -5.85290E-02
    8987.869     -9.356  -0.440  1.34684E-01  1.99299E-01 -6.46153E-02
    8987.998     -9.228  -0.400  1.47870E-01  2.18853E-01 -7.09829E-02
    8988.113     -9.112  -0.360  1.61535E-01  2.39009E-01 -7.74739E-02
    8988.217     -9.009  -0.320  1.75220E-01  2.59110E-01 -8.38904E-02
    8988.308     -8.917  -0.280  1.88411E-01  2.78428E-01 -9.00172E-02
    8988.388     -8.838  -0.240  2.00611E-01  2.96261E-01 -9.56500E-02
    8988.455     -8.771  -0.200  2.11403E-01  3.12021E-01 -1.00618E-01
    8988.510     -8.716  -0.160  2.20484E-01  3.25280E-01 -1.04796E-01
    8988.552     -8.673  -0.120  2.27665E-01  3.35761E-01 -1.08096E-01
    8988.583     -8.643  -0.080  2.32840E-01  3.43312E-01 -1.10472E-01
    8988.607     -8.618   0.000  2.36999E-01  3.49379E-01 -1.12380E-01
    8988.662     -8.564   0.120  2.46074E-01  3.63055E-01 -1.16981E-01
    8988.705     -8.521   0.160  2.53172E-01  3.73691E-01 -1.20519E-01
    8988.760     -8.466   0.200  2.62201E-01  3.87274E-01 -1.25073E-01
    8988.827     -8.399   0.240  2.72953E-01  4.03603E-01 -1.30650E-01
    8988.906     -8.320   0.280  2.85075E-01  4.22353E-01 -1.37278E-01
    8988.997     -8.228   0.320  2.97999E-01  4.43049E-01 -1.45050E-01
    8989.101     -8.125   0.360  3.10870E-01  4.65101E-01 -1.54230E-01
    8989.217     -8.009   0.400  3.22464E-01  4.87838E-01 -1.65373E-01
    8989.345     -7.881   0.440  3.31299E-01  5.10705E-01 -1.79406E-01
    8989.485     -7.741   0.480  3.35693E-01  5.33216E-01 -1.97523E-01
    8989.637     -7.588   0.520  3.34369E-01  5.55106E-01 -2.20738E-01
    8989.802     -7.424   0.560  3.27023E-01  5.76181E-01 -2.49158E-01
    8989.979     -7.247   0.600  3.14889E-01  5.96443E-01 -2.81554E-01
    8990.168     -7.058   0.640  3.00156E-01  6.15912E-01 -3.15756E-01
    8990.369     -6.857   0.680  2.85150E-01  6.34665E-01 -3.49514E-01
    8990.582     -6.643   0.720  2.71649E-01  6.52816E-01 -3.81167E-01
    8990.808     -6.418   0.760  2.60764E-01  6.70416E-01 -4.09651E-01
    8991.045     -6.180   0.800  2.53328E-01  6.87586E-01 -4.34259E-01
    8991.295     -5.930   0.840  2.50023E-01  7.04353E-01 -4.54330E-01
    8991.558     -5.668   0.880  2.51562E-01  7.20788E-01 -4.69226E-01
    8991.832     -5.394   0.920  2.58610E-01  7.36887E-01 -4.78277E-01
    8992.118     -5.107   0.960  2.71716E-01  7.52694E-01 -4.80978E-01
    8992.417     -4.808   1.000  2.91031E-01  7.68222E-01 -4.77191E-01
    8992.728     -4.498   1.040  3.15944E-01  7.83432E-01 -4.67489E-01
    8993.051     -4.174   1.080  3.45598E-01  7.98340E-01 -4.52742E-01
    8993.386     -3.839   1.120  3.79944E-01  8.12915E-01 -4.32971E-01
    8993.734     -3.492   1.160  4.20361E-01  8.27160E-01 -4.06799E-01
    8994.093     -3.132   1.200  4.69843E-01  8.41015E-01 -3.71172E-01
    8994.465     -2.760   1.240  5.32464E-01  8.54458E-01 -3.21994E-01
    8994.849     -2.376   1.280  6.03894E-01  8.67483E-01 -2.63589E-01
    8995.246     -1.980   1.320  6.64823E-01  8.80067E-01 -2.15245E-01
    8995.654     -1.571   1.360  7.05724E-01  8.92162E-01 -1.86438E-01
    8996.075     -1.151   1.400  7.47854E-01  9.03763E-01 -1.55909E-01
    8996.507     -0.718   1.440  8.11956E-01  9.14822E-01 -1.02866E-01
    8996.952     -0.273   1.480  8.84387E-01  9.25378E-01 -4.09907E-02
    8997.410      0.184   1.520  9.31923E-01  9.35366E-01 -3.44320E-03
    8997.879      0.654   1.560  9.43615E-01  9.44783E-01 -1.16785E-03
    8998.361      1.135   1.600  9.41526E-01  9.53649E-01 -1.21239E-02
    8998.854      1.629   1.640  9.62059E-01  9.61924E-01  1.35148E-04
    8999.360      2.135   1.680  1.03522E+00  9.69650E-01  6.55686E-02
    8999.879      2.653   1.720  1.17799E+00  9.76788E-01  2.01202E-01
    9000.409      3.183   1.760  1.37749E+00  9.83365E-01  3.94120E-01
    9000.951      3.726   1.800  1.53258E+00  9.89387E-01  5.43192E-01
    9001.506      4.281   1.840  1.53031E+00  9.94861E-01  5.35447E-01
    9002.073      4.848   1.880  1.44970E+00  9.99815E-01  4.49884E-01
    9002.652      5.427   1.920  1.38872E+00  1.00426E+00  3.84463E-01
    9003.244      6.018   1.960  1.35197E+00  1.00822E+00  3.43747E-01
    9003.847      6.622   2.000  1.32991E+00  1.01170E+00  3.18216E-01
    9004.463      7.237   2.040  1.31191E+00  1.01471E+00  2.97200E-01
    9005.091      7.865   2.080  1.28104E+00  1.01730E+00  2.63746E-01
    9005.731      8.505   2.120  1.23019E+00  1.01947E+00  2.10718E-01
    9006.383      9.157   2.160  1.17708E+00  1.02129E+00  1.55791E-01
    9007.047      9.822   2.200  1.14545E+00  1.02271E+00  1.22737E-01
    9007.724     10.499   2.240  1.14466E+00  1.02382E+00  1.20846E-01
    9008.413     11.187   2.280  1.16447E+00  1.02460E+00  1.39868E-01
    9009.114     11.888   2.320  1.18297E+00  1.02512E+00  1.57853E-01
    9009.827     12.602   2.360  1.18826E+00  1.02535E+00  1.62903E-01
    9010.553     13.327   2.400  1.17918E+00  1.02534E+00  1.53839E-01
    9011.290     14.065   2.440  1.15570E+00  1.02514E+00  1.30560E-01
    9012.040     14.815   2.480  1.13024E+00  1.02471E+00  1.05537E-01
    9012.802     15.577   2.520  1.11145E+00  1.02413E+00  8.73185E-02
    9013.576     16.351   2.560  1.09855E+00  1.02336E+00  7.51880E-02
    9014.363     17.137   2.600  1.08598E+00  1.02249E+00  6.34963E-02
    9015.161     17.936   2.640  1.06787E+00  1.02149E+00  4.63777E-02
    9015.972     18.746   2.680  1.04085E+00  1.02038E+00  2.04693E-02
    9016.795     19.569   2.720  1.00611E+00  1.01920E+00 -1.30914E-02
    9017.630     20.405   2.760  9.67986E-01  1.01793E+00 -4.99425E-02
    9018.477     21.252   2.800  9.30716E-01  1.01663E+00 -8.59111E-02
    9019.337     22.111   2.840  8.97674E-01  1.01529E+00 -1.17611E-01
    9020.209     22.983   2.880  8.71056E-01  1.01391E+00 -1.42852E-01
    9021.093     23.867   2.920  8.52305E-01  1.01252E+00 -1.60217E-01
    9021.989     24.763   2.960  8.41946E-01  1.01113E+00 -1.69186E-01
    9022.897     25.671   3.000  8.40005E-01  1.00975E+00 -1.69742E-01
    9023.817     26.592   3.040  8.45860E-01  1.00839E+00 -1.62531E-01
    9024.750     27.525   3.080  8.58422E-01  1.00707E+00 -1.48644E-01
    9025.695     28.469   3.120  8.75899E-01  1.00576E+00 -1.29857E-01
    9026.652     29.427   3.160  8.95657E-01  1.00449E+00 -1.08829E-01
    9027.621     30.396   3.200  9.14508E-01  1.00328E+00 -8.87724E-02
    9028.603     31.377   3.240  9.29401E-01  1.00212E+00 -7.27182E-02
    9029.596     32.371   3.280  9.38414E-01  1.00101E+00 -6.25926E-02
    9030.602     33.377   3.320  9.41822E-01  9.99967E-01 -5.81454E-02
    9031.620     34.395   3.360  9.41535E-01  9.99002E-01 -5.74668E-02
    9032.651     35.425   3.400  9.39805E-01  9.98091E-01 -5.82856E-02
    9033.693     36.467   3.440  9.38289E-01  9.97277E-01 -5.89876E-02
    9034.748     37.522   3.480  9.37904E-01  9.96520E-01 -5.86165E-02
    9035.814     38.589   3.520  9.38880E-01  9.95842E-01 -5.69628E-02
    9036.893     39.668   3.560  9.40639E-01  9.95243E-01 -5.46042E-02
    9037.984     40.759   3.600  9.42409E-01  9.94724E-01 -5.23146E-02
    9039.088     41.862   3.640  9.43918E-01  9.94285E-01 -5.03671E-02
    9040.203     42.978   3.680  9.45593E-01  9.93926E-01 -4.83324E-02
    9041.331     44.106   3.720  9.48013E-01  9.93646E-01 -4.56327E-02
    9042.471     45.246   3.760  9.51586E-01  9.93445E-01 -4.18587E-02
    9043.623     46.398   3.800  9.56336E-01  9.93302E-01 -3.69664E-02
    9044.788     47.562   3.840  9.62155E-01  9.93259E-01 -3.11040E-02
    9045.964     48.739   3.880  9.68927E-01  9.93294E-01 -2.43676E-02
    9047.153     49.927   3.920  9.76879E-01  9.93383E-01 -1.65039E-02
    9048.354     51.128   3.960  9.86500E-01  9.93546E-01 -7.04608E-03
    9049.567     52.341   4.000  9.98203E-01  9.93763E-01  4.43970E-03
    9050.792     53.567   4.040  1.01183E+00  9.94073E-01  1.77560E-02
    9052.030     54.804   4.080  1.02641E+00  9.94411E-01  3.20031E-02
    9053.279     56.054   4.120  1.04081E+00  9.94819E-01  4.59875E-02
    9054.541     57.316   4.160  1.05409E+00  9.95297E-01  5.87933E-02
    9055.815     58.590   4.200  1.06589E+00  9.95817E-01  7.00692E-02
    9057.101     59.876   4.240  1.07642E+00  9.96359E-01  8.00607E-02
    9058.400     61.174   4.280  1.08631E+00  9.96961E-01  8.93518E-02
    9059.711     62.485   4.320  1.09600E+00  9.97605E-01  9.83901E-02
    9061.033     63.808   4.360  1.10514E+00  9.98285E-01  1.06854E-01
    9062.368     65.143   4.400  1.11246E+00  9.98976E-01  1.13484E-01
    9063.716     66.490   4.440  1.11624E+00  9.99700E-01  1.16545E-01
    9065.075     67.849   4.480  1.11512E+00  1.00043E+00  1.14687E-01
    9066.447     69.221   4.520  1.10864E+00  1.00119E+00  1.07444E-01
    9067.830     70.605   4.560  1.09748E+00  1.00196E+00  9.55221E-02
    9069.226     72.001   4.600  1.08314E+00  1.00275E+00  8.03902E-02
    9070.635     73.409   4.640  1.06739E+00  1.00353E+00  6.38618E-02
    9072.055     74.829   4.680  1.05169E+00  1.00432E+00  4.73717E-02
    9073.487     76.262   4.720  1.03662E+00  1.00508E+00  3.15341E-02
    9074.932     77.707   4.760  1.02208E+00  1.00584E+00  1.62363E-02
    9076.389     79.164   4.800  1.00777E+00  1.00657E+00  1.19730E-03
    9077.858     80.633   4.840  9.93606E-01  1.00731E+00 -1.37038E-02
    9079.340     82.114   4.880  9.79807E-01  1.00800E+00 -2.81893E-02
    9080.833     83.608   4.920  9.67287E-01  1.00867E+00 -4.13813E-02
    9082.339     85.113   4.960  9.57577E-01  1.00931E+00 -5.17296E-02
    9083.857     86.631   5.000  9.52634E-01  1.00993E+00 -5.72931E-02
    9085.387     88.161   5.040  9.53992E-01  1.01049E+00 -5.64942E-02
    9086.929     89.704   5.080  9.62104E-01  1.01103E+00 -4.89224E-02
    9088.484     91.258   5.120  9.75606E-01  1.01150E+00 -3.58969E-02
    9090.050     92.825   5.160  9.91837E-01  1.01196E+00 -2.01202E-02
    9091.629     94.404   5.200  1.00767E+00  1.01235E+00 -4.67473E-03
    9093.220     95.995   5.240  1.02039E+00  1.01269E+00  7.70477E-03
    9094.823     97.598   5.280  1.02786E+00  1.01299E+00  1.48762E-02
    9096.439     99.213   5.320  1.02868E+00  1.01324E+00  1.54388E-02
    9098.066    100.841   5.360  1.02260E+00  1.01342E+00  9.17889E-03
    9099.706    102.481   5.400  1.01079E+00  1.01356E+00 -2.76669E-03
    9101.358    104.133   5.440  9.95403E-01  1.01365E+00 -1.82477E-02
    9103.022    105.797   5.480  9.79049E-01  1.01369E+00 -3.46453E-02
    9104.699    107.473   5.520  9.64430E-01  1.01367E+00 -4.92377E-02
    9106.387    109.162   5.560  9.53857E-01  1.01359E+00 -5.97345E-02
    9108.088    110.863   5.600  9.48326E-01  1.01345E+00 -6.51197E-02
    9109.801    112.576   5.640  9.47033E-01  1.01325E+00 -6.62211E-02
    9111.526    114.301   5.680  9.48031E-01  1.01302E+00 -6.49883E-02
    9113.264    116.038   5.720  9.49553E-01  1.01274E+00 -6.31881E-02
    9115.013    117.788   5.760  9.50562E-01  1.01242E+00 -6.18571E-02
    9116.775    119.549   5.800  9.50390E-01  1.01203E+00 -6.16402E-02
    9118.549    121.323   5.840  9.49109E-01  1.01160E+00 -6.24910E-02
    9120.335    123.109   5.880  9.48393E-01  1.01113E+00 -6.27402E-02
    9122.133    124.908   5.920  9.51417E-01  1.01066E+00 -5.92395E-02
    9123.944    126.718   5.960  9.61064E-01  1.01012E+00 -4.90569E-02
    9125.767    128.541   6.000  9.79023E-01  1.00952E+00 -3.04931E-02
