# # comment:                                                     FEFF 9.9.1  
# # Source:
# # Structure
# # Reduced
# # space
# # abc:
# # angles:114.407009
# # sites:
# # POT  SCF 100  7.0000   0, screened core-hole, AFOLP (folp(0)= 1.150)
# # Abs   Z=29 Rmt= 1.228 Rnm= 1.304 K  shell
# # Pot 1 Z=56 Rmt= 1.960 Rnm= 2.013
# # Pot 2 Z=62 Rmt= 1.677 Rnm= 1.749
# # Pot 3 Z=29 Rmt= 1.235 Rnm= 1.305
# # Pot 4 Z= 8 Rmt= 1.057 Rnm= 1.109
# # Gam_ch=1.729E+00 H-L exch Vi= 0.000E+00 Vr= 0.000E+00
# # Mu=-8.175E+00eV kf=1.997E+00 Vint=-1.744E+01eV Rs_int= 1.816
# FMS rfms= 9.0000
# # PATH  Rmax=-1.000,  Keep_limit= 0.00, Heap_limit 0.00  Pwcrit= 2.50%
#  S02=0.950  Temp=   0.00  Debye_temp=   0.00  Global_sig2= 0.00000
#  Energy zero shift, vr, vi    0.00000E+00   0.00000E+00
#  Curved wave amplitude ratio filter   4.000%
#     file         sig2 tot  cw amp ratio   deg  nlegs   reff  inp sig2
#     0/   0 paths used
#  xsedge+ 50, used to normalize mu           2.4389E-04
#  -----------------------------------------------------------------------
#  omega    e    k    mu    mu0     chi     @#
    8985.069    -11.985  -1.000  4.33124E-02  5.86890E-02 -1.53766E-02
    8985.368    -11.686  -0.960  4.58134E-02  6.30812E-02 -1.72677E-02
    8985.654    -11.399  -0.920  4.85380E-02  6.79717E-02 -1.94337E-02
    8985.929    -11.125  -0.880  5.15157E-02  7.34348E-02 -2.19191E-02
    8986.191    -10.863  -0.840  5.47812E-02  7.95567E-02 -2.47755E-02
    8986.441    -10.613  -0.800  5.83744E-02  8.64376E-02 -2.80633E-02
    8986.679    -10.375  -0.760  6.23412E-02  9.41926E-02 -3.18514E-02
    8986.904    -10.150  -0.720  6.67335E-02  1.02952E-01 -3.62182E-02
    8987.117     -9.936  -0.680  7.16083E-02  1.12858E-01 -4.12499E-02
    8987.319     -9.735  -0.640  7.70258E-02  1.24064E-01 -4.70378E-02
    8987.508     -9.546  -0.600  8.30449E-02  1.36717E-01 -5.36718E-02
    8987.684     -9.369  -0.560  8.97155E-02  1.50945E-01 -6.12294E-02
    8987.849     -9.205  -0.520  9.70669E-02  1.66825E-01 -6.97578E-02
    8988.001     -9.052  -0.480  1.05091E-01  1.84340E-01 -7.92497E-02
    8988.142     -8.912  -0.440  1.13722E-01  2.03338E-01 -8.96158E-02
    8988.270     -8.784  -0.400  1.22823E-01  2.23485E-01 -1.00662E-01
    8988.385     -8.668  -0.360  1.32175E-01  2.44257E-01 -1.12082E-01
    8988.489     -8.565  -0.320  1.41493E-01  2.64975E-01 -1.23481E-01
    8988.581     -8.473  -0.280  1.50454E-01  2.84883E-01 -1.34429E-01
    8988.660     -8.394  -0.240  1.58741E-01  3.03255E-01 -1.44514E-01
    8988.727     -8.327  -0.200  1.66083E-01  3.19487E-01 -1.53405E-01
    8988.782     -8.272  -0.160  1.72275E-01  3.33136E-01 -1.60861E-01
    8988.824     -8.230  -0.120  1.77183E-01  3.43921E-01 -1.66737E-01
    8988.855     -8.199  -0.080  1.80730E-01  3.51687E-01 -1.70957E-01
    8988.879     -8.175   0.000  1.83593E-01  3.57924E-01 -1.74331E-01
    8988.934     -8.120   0.120  1.89932E-01  3.71982E-01 -1.82050E-01
    8988.977     -8.077   0.160  1.94855E-01  3.82912E-01 -1.88057E-01
    8989.032     -8.022   0.200  2.01111E-01  3.96834E-01 -1.95723E-01
    8989.099     -7.955   0.240  2.08600E-01  4.13572E-01 -2.04972E-01
    8989.178     -7.876   0.280  2.17115E-01  4.32777E-01 -2.15662E-01
    8989.269     -7.785   0.320  2.26318E-01  4.53904E-01 -2.27587E-01
    8989.373     -7.681   0.360  2.35839E-01  4.76348E-01 -2.40508E-01
    8989.489     -7.565   0.400  2.45240E-01  4.99441E-01 -2.54202E-01
    8989.617     -7.437   0.440  2.54160E-01  5.22538E-01 -2.68377E-01
    8989.757     -7.297   0.480  2.62419E-01  5.45145E-01 -2.82726E-01
    8989.909     -7.144   0.520  2.70245E-01  5.67005E-01 -2.96760E-01
    8990.074     -6.980   0.560  2.78021E-01  5.87916E-01 -3.09895E-01
    8990.251     -6.803   0.600  2.86341E-01  6.07842E-01 -3.21500E-01
    8990.440     -6.614   0.640  2.95852E-01  6.26867E-01 -3.31014E-01
    8990.641     -6.413   0.680  3.07156E-01  6.45037E-01 -3.37881E-01
    8990.854     -6.200   0.720  3.21266E-01  6.62496E-01 -3.41230E-01
    8991.080     -5.974   0.760  3.39677E-01  6.79324E-01 -3.39648E-01
    8991.318     -5.736   0.800  3.64021E-01  6.95593E-01 -3.31571E-01
    8991.568     -5.486   0.840  3.94801E-01  7.11419E-01 -3.16619E-01
    8991.830     -5.224   0.880  4.29458E-01  7.26823E-01 -2.97365E-01
    8992.104     -4.950   0.920  4.61500E-01  7.41868E-01 -2.80368E-01
    8992.390     -4.663   0.960  4.82726E-01  7.56590E-01 -2.73864E-01
    8992.689     -4.365   1.000  4.89670E-01  7.70964E-01 -2.81294E-01
    8993.000     -4.054   1.040  4.86879E-01  7.85044E-01 -2.98165E-01
    8993.323     -3.731   1.080  4.82296E-01  7.98809E-01 -3.16513E-01
    8993.658     -3.395   1.120  4.82399E-01  8.12255E-01 -3.29856E-01
    8994.006     -3.048   1.160  4.90763E-01  8.25353E-01 -3.34590E-01
    8994.366     -2.688   1.200  5.08788E-01  8.38109E-01 -3.29321E-01
    8994.737     -2.316   1.240  5.36709E-01  8.50503E-01 -3.13794E-01
    8995.121     -1.932   1.280  5.74076E-01  8.62516E-01 -2.88440E-01
    8995.518     -1.536   1.320  6.20495E-01  8.74107E-01 -2.53611E-01
    8995.926     -1.128   1.360  6.78400E-01  8.85293E-01 -2.06893E-01
    8996.347     -0.707   1.400  7.53430E-01  8.96031E-01 -1.42601E-01
    8996.780     -0.274   1.440  8.50568E-01  9.06299E-01 -5.57306E-02
    8997.225      0.171   1.480  9.63675E-01  9.16114E-01  4.75614E-02
    8997.682      0.628   1.520  1.07705E+00  9.25453E-01  1.51601E-01
    8998.151      1.097   1.560  1.17732E+00  9.34297E-01  2.43021E-01
    8998.633      1.579   1.600  1.24502E+00  9.42624E-01  3.02398E-01
    8999.127      2.073   1.640  1.27733E+00  9.50475E-01  3.26856E-01
    8999.633      2.579   1.680  1.32997E+00  9.57812E-01  3.72160E-01
    9000.151      3.097   1.720  1.45720E+00  9.64656E-01  4.92539E-01
    9000.681      3.627   1.760  1.62198E+00  9.71014E-01  6.50965E-01
    9001.224      4.170   1.800  1.69995E+00  9.76869E-01  7.23080E-01
    9001.778      4.724   1.840  1.62697E+00  9.82246E-01  6.44724E-01
    9002.345      5.291   1.880  1.47793E+00  9.87174E-01  4.90760E-01
    9002.924      5.870   1.920  1.34198E+00  9.91617E-01  3.50367E-01
    9003.516      6.462   1.960  1.24210E+00  9.95648E-01  2.46454E-01
    9004.119      7.065   2.000  1.16988E+00  9.99233E-01  1.70648E-01
    9004.735      7.681   2.040  1.12455E+00  1.00242E+00  1.22129E-01
    9005.363      8.309   2.080  1.11124E+00  1.00520E+00  1.06045E-01
    9006.003      8.949   2.120  1.11739E+00  1.00762E+00  1.09763E-01
    9006.655      9.601   2.160  1.10856E+00  1.00968E+00  9.88755E-02
    9007.320     10.266   2.200  1.06185E+00  1.01143E+00  5.04253E-02
    9007.996     10.942   2.240  1.00051E+00  1.01285E+00 -1.23371E-02
    9008.685     11.631   2.280  9.58416E-01  1.01397E+00 -5.55584E-02
    9009.386     12.332   2.320  9.47211E-01  1.01484E+00 -6.76282E-02
    9010.099     13.045   2.360  9.60038E-01  1.01545E+00 -5.54153E-02
    9010.825     13.771   2.400  9.87447E-01  1.01585E+00 -2.84003E-02
    9011.562     14.508   2.440  1.02668E+00  1.01603E+00  1.06473E-02
    9012.312     15.258   2.480  1.05980E+00  1.01601E+00  4.37901E-02
    9013.074     16.020   2.520  1.08253E+00  1.01582E+00  6.67056E-02
    9013.848     16.794   2.560  1.09288E+00  1.01547E+00  7.74105E-02
    9014.635     17.581   2.600  1.09158E+00  1.01501E+00  7.65680E-02
    9015.433     18.379   2.640  1.08120E+00  1.01440E+00  6.67984E-02
    9016.244     19.190   2.680  1.06500E+00  1.01370E+00  5.13060E-02
    9017.067     20.013   2.720  1.04595E+00  1.01291E+00  3.30466E-02
    9017.902     20.848   2.760  1.02598E+00  1.01204E+00  1.39470E-02
    9018.749     21.696   2.800  1.00560E+00  1.01111E+00 -5.51325E-03
    9019.609     22.555   2.840  9.84460E-01  1.01015E+00 -2.56852E-02
    9020.481     23.427   2.880  9.62057E-01  1.00914E+00 -4.70798E-02
    9021.365     24.311   2.920  9.38228E-01  1.00809E+00 -6.98653E-02
    9022.261     25.207   2.960  9.14103E-01  1.00706E+00 -9.29602E-02
    9023.169     26.115   3.000  8.91704E-01  1.00601E+00 -1.14306E-01
    9024.090     27.036   3.040  8.73110E-01  1.00496E+00 -1.31846E-01
    9025.022     27.968   3.080  8.59683E-01  1.00393E+00 -1.44246E-01
    9025.967     28.913   3.120  8.52119E-01  1.00291E+00 -1.50793E-01
    9026.924     29.870   3.160  8.49845E-01  1.00195E+00 -1.52104E-01
    9027.893     30.840   3.200  8.51749E-01  1.00100E+00 -1.49254E-01
    9028.875     31.821   3.240  8.56648E-01  1.00010E+00 -1.43449E-01
    9029.869     32.815   3.280  8.63339E-01  9.99233E-01 -1.35894E-01
    9030.874     33.821   3.320  8.71047E-01  9.98435E-01 -1.27388E-01
    9031.892     34.839   3.360  8.79647E-01  9.97683E-01 -1.18036E-01
    9032.923     35.869   3.400  8.89805E-01  9.96980E-01 -1.07175E-01
    9033.965     36.911   3.440  9.02154E-01  9.96370E-01 -9.42151E-02
    9035.020     37.966   3.480  9.17075E-01  9.95790E-01 -7.87152E-02
    9036.086     39.033   3.520  9.34553E-01  9.95305E-01 -6.07516E-02
    9037.165     40.112   3.560  9.53909E-01  9.94872E-01 -4.09632E-02
    9038.257     41.203   3.600  9.74139E-01  9.94492E-01 -2.03525E-02
    9039.360     42.306   3.640  9.94116E-01  9.94207E-01 -9.09494E-05
    9040.476     43.422   3.680  1.01271E+00  9.93977E-01  1.87298E-02
    9041.603     44.549   3.720  1.02890E+00  9.93821E-01  3.50815E-02
    9042.743     45.689   3.760  1.04187E+00  9.93719E-01  4.81520E-02
    9043.895     46.842   3.800  1.05106E+00  9.93712E-01  5.73435E-02
    9045.060     48.006   3.840  1.05593E+00  9.93737E-01  6.21969E-02
    9046.236     49.182   3.880  1.05675E+00  9.93855E-01  6.28965E-02
    9047.425     50.371   3.920  1.05424E+00  9.94026E-01  6.02156E-02
    9048.626     51.572   3.960  1.04967E+00  9.94268E-01  5.54042E-02
    9049.839     52.785   4.000  1.04445E+00  9.94557E-01  4.98931E-02
    9051.064     54.010   4.040  1.03973E+00  9.94895E-01  4.48319E-02
    9052.302     55.248   4.080  1.03601E+00  9.95300E-01  4.07073E-02
    9053.551     56.498   4.120  1.03304E+00  9.95752E-01  3.72864E-02
    9054.813     57.759   4.160  1.03039E+00  9.96269E-01  3.41198E-02
    9056.087     59.033   4.200  1.02777E+00  9.96805E-01  3.09633E-02
    9057.374     60.320   4.240  1.02555E+00  9.97381E-01  2.81728E-02
    9058.672     61.618   4.280  1.02462E+00  9.98017E-01  2.66013E-02
    9059.983     62.929   4.320  1.02566E+00  9.98669E-01  2.69954E-02
    9061.305     64.252   4.360  1.02879E+00  9.99353E-01  2.94373E-02
    9062.641     65.587   4.400  1.03352E+00  1.00005E+00  3.34667E-02
    9063.988     66.934   4.440  1.03946E+00  1.00078E+00  3.86826E-02
    9065.347     68.293   4.480  1.04650E+00  1.00153E+00  4.49649E-02
    9066.719     69.665   4.520  1.05454E+00  1.00227E+00  5.22747E-02
    9068.103     71.049   4.560  1.06317E+00  1.00303E+00  6.01374E-02
    9069.498     72.445   4.600  1.07107E+00  1.00380E+00  6.72695E-02
    9070.907     73.853   4.640  1.07637E+00  1.00456E+00  7.18135E-02
    9072.327     75.273   4.680  1.07746E+00  1.00532E+00  7.21413E-02
    9073.760     76.706   4.720  1.07368E+00  1.00608E+00  6.75955E-02
    9075.204     78.150   4.760  1.06541E+00  1.00683E+00  5.85701E-02
    9076.661     79.607   4.800  1.05371E+00  1.00755E+00  4.61581E-02
    9078.130     81.076   4.840  1.03996E+00  1.00824E+00  3.17150E-02
    9079.612     82.558   4.880  1.02556E+00  1.00892E+00  1.66429E-02
    9081.105     84.051   4.920  1.01177E+00  1.00958E+00  2.18564E-03
    9082.611     85.557   4.960  9.99380E-01  1.01019E+00 -1.08058E-02
    9084.129     87.075   5.000  9.88913E-01  1.01077E+00 -2.18613E-02
    9085.659     88.605   5.040  9.80514E-01  1.01132E+00 -3.08102E-02
    9087.201     90.147   5.080  9.74098E-01  1.01183E+00 -3.77349E-02
    9088.756     91.702   5.120  9.69380E-01  1.01230E+00 -4.29201E-02
    9090.322     93.268   5.160  9.65886E-01  1.01272E+00 -4.68384E-02
    9091.901     94.847   5.200  9.63102E-01  1.01311E+00 -5.00051E-02
    9093.492     96.438   5.240  9.60599E-01  1.01344E+00 -5.28437E-02
    9095.095     98.042   5.280  9.58285E-01  1.01371E+00 -5.54238E-02
    9096.711     99.657   5.320  9.56621E-01  1.01393E+00 -5.73083E-02
    9098.339    101.285   5.360  9.56233E-01  1.01410E+00 -5.78718E-02
    9099.978    102.924   5.400  9.57626E-01  1.01423E+00 -5.66066E-02
    9101.630    104.576   5.440  9.60775E-01  1.01429E+00 -5.35170E-02
    9103.295    106.241   5.480  9.65129E-01  1.01431E+00 -4.91768E-02
    9104.971    107.917   5.520  9.69900E-01  1.01427E+00 -4.43733E-02
    9106.660    109.606   5.560  9.74456E-01  1.01419E+00 -3.97390E-02
    9108.360    111.306   5.600  9.78426E-01  1.01405E+00 -3.56218E-02
    9110.073    113.019   5.640  9.81701E-01  1.01385E+00 -3.21539E-02
    9111.798    114.745   5.680  9.84313E-01  1.01362E+00 -2.93049E-02
    9113.536    116.482   5.720  9.86171E-01  1.01334E+00 -2.71656E-02
    9115.285    118.231   5.760  9.87195E-01  1.01299E+00 -2.57922E-02
    9117.047    119.993   5.800  9.87652E-01  1.01260E+00 -2.49468E-02
    9118.821    121.767   5.840  9.88286E-01  1.01219E+00 -2.39086E-02
    9120.607    123.553   5.880  9.90031E-01  1.01173E+00 -2.16981E-02
    9122.405    125.352   5.920  9.93658E-01  1.01123E+00 -1.75700E-02
    9124.216    127.162   5.960  9.99395E-01  1.01072E+00 -1.13233E-02
    9126.039    128.985   6.000  1.00700E+00  1.01012E+00 -3.11751E-03
