# # comment:                                                     FEFF 9.9.1  
# # Source:
# # Structure
# # Reduced
# # space
# # abc:
# # angles:
# # sites:
# # POT  SCF 100  7.0000   0, screened core-hole, AFOLP (folp(0)= 1.150)
# # Abs   Z=29 Rmt= 1.188 Rnm= 1.285 K  shell
# # Pot 1 Z=26 Rmt= 1.328 Rnm= 1.430
# # Pot 2 Z=29 Rmt= 1.199 Rnm= 1.292
# # Pot 3 Z=15 Rmt= 0.937 Rnm= 1.154
# # Pot 4 Z= 8 Rmt= 0.885 Rnm= 1.044
# # Gam_ch=1.729E+00 H-L exch Vi= 0.000E+00 Vr= 0.000E+00
# # Mu=-7.368E+00eV kf=2.485E+00 Vint=-1.719E+01eV Rs_int= 1.459
# FMS rfms= 9.0000
# # PATH  Rmax=-1.000,  Keep_limit= 0.00, Heap_limit 0.00  Pwcrit= 2.50%
#  S02=0.950  Temp=   0.00  Debye_temp=   0.00  Global_sig2= 0.00000
#  Energy zero shift, vr, vi    0.00000E+00   0.00000E+00
#  Curved wave amplitude ratio filter   4.000%
#     file         sig2 tot  cw amp ratio   deg  nlegs   reff  inp sig2
#     0/   0 paths used
#  xsedge+ 50, used to normalize mu           2.4876E-04
#  -----------------------------------------------------------------------
#  omega    e    k    mu    mu0     chi     @#
    8983.317    -11.178  -1.000  3.44508E-02  5.07359E-02 -1.62850E-02
    8983.616    -10.879  -0.960  3.62027E-02  5.43801E-02 -1.81774E-02
    8983.902    -10.593  -0.920  3.80860E-02  5.84286E-02 -2.03426E-02
    8984.176    -10.319  -0.880  4.01152E-02  6.29411E-02 -2.28259E-02
    8984.438    -10.056  -0.840  4.23070E-02  6.79869E-02 -2.56800E-02
    8984.688     -9.806  -0.800  4.46801E-02  7.36467E-02 -2.89666E-02
    8984.926     -9.569  -0.760  4.72560E-02  8.00128E-02 -3.27568E-02
    8985.152     -9.343  -0.720  5.00586E-02  8.71898E-02 -3.71312E-02
    8985.365     -9.130  -0.680  5.31137E-02  9.52927E-02 -4.21790E-02
    8985.566     -8.929  -0.640  5.64482E-02  1.04443E-01 -4.79950E-02
    8985.755     -8.740  -0.600  6.00872E-02  1.14761E-01 -5.46735E-02
    8985.932     -8.563  -0.560  6.40505E-02  1.26347E-01 -6.22967E-02
    8986.097     -8.398  -0.520  6.83454E-02  1.39263E-01 -7.09180E-02
    8986.249     -8.246  -0.480  7.29583E-02  1.53496E-01 -8.05378E-02
    8986.389     -8.106  -0.440  7.78441E-02  1.68920E-01 -9.10761E-02
    8986.517     -7.978  -0.400  8.29180E-02  1.85267E-01 -1.02349E-01
    8986.633     -7.862  -0.360  8.80539E-02  2.02112E-01 -1.14059E-01
    8986.737     -7.758  -0.320  9.30937E-02  2.18909E-01 -1.25815E-01
    8986.828     -7.667  -0.280  9.78671E-02  2.35046E-01 -1.37179E-01
    8986.907     -7.588  -0.240  1.02217E-01  2.49938E-01 -1.47721E-01
    8986.974     -7.520  -0.200  1.06019E-01  2.63095E-01 -1.57077E-01
    8987.029     -7.466  -0.160  1.09189E-01  2.74160E-01 -1.64971E-01
    8987.072     -7.423  -0.120  1.11681E-01  2.82905E-01 -1.71224E-01
    8987.102     -7.392  -0.080  1.13473E-01  2.89203E-01 -1.75731E-01
    8987.127     -7.368   0.000  1.14922E-01  2.94263E-01 -1.79342E-01
    8987.182     -7.313   0.120  1.18101E-01  3.05661E-01 -1.87559E-01
    8987.224     -7.271   0.160  1.20535E-01  3.14524E-01 -1.93989E-01
    8987.279     -7.216   0.200  1.23599E-01  3.25827E-01 -2.02228E-01
    8987.346     -7.149   0.240  1.27245E-01  3.39432E-01 -2.12188E-01
    8987.426     -7.069   0.280  1.31386E-01  3.55040E-01 -2.23654E-01
    8987.517     -6.978   0.320  1.35924E-01  3.72227E-01 -2.36304E-01
    8987.621     -6.874   0.360  1.40840E-01  3.90513E-01 -2.49673E-01
    8987.736     -6.758   0.400  1.46144E-01  4.09363E-01 -2.63220E-01
    8987.864     -6.630   0.440  1.51967E-01  4.28271E-01 -2.76304E-01
    8988.005     -6.490   0.480  1.58610E-01  4.46863E-01 -2.88252E-01
    8988.157     -6.338   0.520  1.66454E-01  4.64879E-01 -2.98425E-01
    8988.322     -6.173   0.560  1.76032E-01  4.82233E-01 -3.06201E-01
    8988.498     -5.996   0.600  1.87840E-01  4.98876E-01 -3.11036E-01
    8988.687     -5.808   0.640  2.02362E-01  5.14862E-01 -3.12501E-01
    8988.889     -5.606   0.680  2.19967E-01  5.30305E-01 -3.10338E-01
    8989.102     -5.393   0.720  2.40833E-01  5.45247E-01 -3.04414E-01
    8989.327     -5.167   0.760  2.65094E-01  5.59812E-01 -2.94718E-01
    8989.565     -4.930   0.800  2.92610E-01  5.74095E-01 -2.81485E-01
    8989.815     -4.680   0.840  3.22626E-01  5.88117E-01 -2.65491E-01
    8990.077     -4.418   0.880  3.53588E-01  6.01990E-01 -2.48401E-01
    8990.352     -4.143   0.920  3.83459E-01  6.15708E-01 -2.32249E-01
    8990.638     -3.857   0.960  4.11939E-01  6.29342E-01 -2.17403E-01
    8990.937     -3.558   1.000  4.41604E-01  6.42885E-01 -2.01281E-01
    8991.248     -3.247   1.040  4.75428E-01  6.56345E-01 -1.80917E-01
    8991.571     -2.924   1.080  5.12736E-01  6.69764E-01 -1.57028E-01
    8991.906     -2.589   1.120  5.46714E-01  6.83116E-01 -1.36402E-01
    8992.254     -2.241   1.160  5.66030E-01  6.96371E-01 -1.30341E-01
    8992.613     -1.882   1.200  5.63920E-01  7.09573E-01 -1.45653E-01
    8992.985     -1.510   1.240  5.44603E-01  7.22643E-01 -1.78040E-01
    8993.369     -1.126   1.280  5.18519E-01  7.35622E-01 -2.17103E-01
    8993.765     -0.730   1.320  4.96536E-01  7.48446E-01 -2.51911E-01
    8994.174     -0.321   1.360  4.87215E-01  7.61110E-01 -2.73895E-01
    8994.594      0.099   1.400  4.93465E-01  7.73588E-01 -2.80123E-01
    8995.027      0.532   1.440  5.13974E-01  7.85874E-01 -2.71900E-01
    8995.472      0.977   1.480  5.47393E-01  7.97940E-01 -2.50546E-01
    8995.929      1.435   1.520  5.91276E-01  8.09737E-01 -2.18461E-01
    8996.399      1.904   1.560  6.36460E-01  8.21279E-01 -1.84819E-01
    8996.880      2.385   1.600  6.76037E-01  8.32536E-01 -1.56499E-01
    8997.374      2.879   1.640  7.15689E-01  8.43462E-01 -1.27773E-01
    8997.880      3.385   1.680  7.58804E-01  8.54091E-01 -9.52865E-02
    8998.398      3.903   1.720  8.03174E-01  8.64353E-01 -6.11797E-02
    8998.929      4.434   1.760  8.52035E-01  8.74286E-01 -2.22507E-02
    8999.471      4.976   1.800  9.10112E-01  8.83824E-01  2.62882E-02
    9000.026      5.531   1.840  9.75488E-01  8.93000E-01  8.24881E-02
    9000.593      6.098   1.880  1.03527E+00  9.01772E-01  1.33494E-01
    9001.172      6.677   1.920  1.06764E+00  9.10159E-01  1.57484E-01
    9001.763      7.268   1.960  1.07427E+00  9.18159E-01  1.56115E-01
    9002.367      7.872   2.000  1.08141E+00  9.25749E-01  1.55661E-01
    9002.982      8.488   2.040  1.09934E+00  9.32929E-01  1.66407E-01
    9003.610      9.115   2.080  1.11960E+00  9.39701E-01  1.79901E-01
    9004.250      9.756   2.120  1.13444E+00  9.46064E-01  1.88371E-01
    9004.903     10.408   2.160  1.14423E+00  9.52043E-01  1.92184E-01
    9005.567     11.072   2.200  1.14938E+00  9.57620E-01  1.91763E-01
    9006.244     11.749   2.240  1.15342E+00  9.62820E-01  1.90599E-01
    9006.933     12.438   2.280  1.16121E+00  9.67624E-01  1.93581E-01
    9007.634     13.139   2.320  1.16754E+00  9.72078E-01  1.95457E-01
    9008.347     13.852   2.360  1.16955E+00  9.76148E-01  1.93402E-01
    9009.072     14.577   2.400  1.18207E+00  9.79879E-01  2.02186E-01
    9009.810     15.315   2.440  1.21638E+00  9.83280E-01  2.33101E-01
    9010.560     16.065   2.480  1.26166E+00  9.86353E-01  2.75310E-01
    9011.322     16.827   2.520  1.29543E+00  9.89107E-01  3.06325E-01
    9012.096     17.601   2.560  1.30921E+00  9.91569E-01  3.17641E-01
    9012.882     18.387   2.600  1.30778E+00  9.93746E-01  3.14034E-01
    9013.681     19.186   2.640  1.28759E+00  9.95666E-01  2.91924E-01
    9014.492     19.997   2.680  1.24453E+00  9.97313E-01  2.47217E-01
    9015.315     20.820   2.720  1.19046E+00  9.98715E-01  1.91746E-01
    9016.150     21.655   2.760  1.14123E+00  9.99880E-01  1.41351E-01
    9016.997     22.502   2.800  1.09947E+00  1.00084E+00  9.86371E-02
    9017.857     23.362   2.840  1.06072E+00  1.00161E+00  5.91123E-02
    9018.728     24.233   2.880  1.02685E+00  1.00219E+00  2.46597E-02
    9019.612     25.117   2.920  9.97436E-01  1.00258E+00 -5.14362E-03
    9020.508     26.013   2.960  9.71354E-01  1.00283E+00 -3.14733E-02
    9021.417     26.922   3.000  9.48695E-01  1.00292E+00 -5.42261E-02
    9022.337     27.842   3.040  9.28829E-01  1.00289E+00 -7.40577E-02
    9023.270     28.775   3.080  9.11076E-01  1.00273E+00 -9.16537E-02
    9024.215     29.720   3.120  8.95391E-01  1.00246E+00 -1.07064E-01
    9025.172     30.677   3.160  8.82010E-01  1.00209E+00 -1.20081E-01
    9026.141     31.646   3.200  8.70863E-01  1.00164E+00 -1.30780E-01
    9027.122     32.628   3.240  8.61583E-01  1.00111E+00 -1.39531E-01
    9028.116     33.621   3.280  8.53984E-01  1.00051E+00 -1.46526E-01
    9029.122     34.627   3.320  8.47629E-01  9.99856E-01 -1.52227E-01
    9030.140     35.645   3.360  8.42515E-01  9.99159E-01 -1.56644E-01
    9031.170     36.675   3.400  8.39163E-01  9.98420E-01 -1.59257E-01
    9032.213     37.718   3.440  8.38050E-01  9.97644E-01 -1.59594E-01
    9033.267     38.772   3.480  8.39371E-01  9.96856E-01 -1.57485E-01
    9034.334     39.839   3.520  8.43062E-01  9.96038E-01 -1.52976E-01
    9035.413     40.918   3.560  8.48974E-01  9.95216E-01 -1.46242E-01
    9036.504     42.009   3.600  8.56591E-01  9.94411E-01 -1.37821E-01
    9037.608     43.113   3.640  8.65601E-01  9.93586E-01 -1.27985E-01
    9038.723     44.228   3.680  8.75880E-01  9.92763E-01 -1.16883E-01
    9039.851     45.356   3.720  8.87381E-01  9.91966E-01 -1.04585E-01
    9040.991     46.496   3.760  9.00097E-01  9.91177E-01 -9.10801E-02
    9042.143     47.648   3.800  9.14081E-01  9.90419E-01 -7.63373E-02
    9043.307     48.812   3.840  9.29218E-01  9.89693E-01 -6.04753E-02
    9044.484     49.989   3.880  9.45073E-01  9.88980E-01 -4.39075E-02
    9045.673     51.178   3.920  9.61303E-01  9.88301E-01 -2.69978E-02
    9046.873     52.379   3.960  9.77511E-01  9.87659E-01 -1.01478E-02
    9048.087     53.592   4.000  9.93249E-01  9.87056E-01  6.19347E-03
    9049.312     54.817   4.040  1.00803E+00  9.86491E-01  2.15415E-02
    9050.549     56.054   4.080  1.02130E+00  9.85966E-01  3.53353E-02
    9051.799     57.304   4.120  1.03248E+00  9.85481E-01  4.70018E-02
    9053.061     58.566   4.160  1.04132E+00  9.85038E-01  5.62865E-02
    9054.335     59.840   4.200  1.04793E+00  9.84657E-01  6.32694E-02
    9055.621     61.126   4.240  1.05242E+00  9.84295E-01  6.81287E-02
    9056.920     62.425   4.280  1.05498E+00  9.83995E-01  7.09894E-02
    9058.230     63.735   4.320  1.05569E+00  9.83714E-01  7.19730E-02
    9059.553     65.058   4.360  1.05473E+00  9.83494E-01  7.12327E-02
    9060.888     66.393   4.400  1.05232E+00  9.83294E-01  6.90293E-02
    9062.235     67.740   4.440  1.04893E+00  9.83156E-01  6.57711E-02
    9063.595     69.100   4.480  1.04495E+00  9.83060E-01  6.18906E-02
    9064.966     70.471   4.520  1.04085E+00  9.83003E-01  5.78500E-02
    9066.350     71.855   4.560  1.03718E+00  9.82984E-01  5.41916E-02
    9067.746     73.251   4.600  1.03437E+00  9.83004E-01  5.13651E-02
    9069.154     74.659   4.640  1.03251E+00  9.83039E-01  4.94735E-02
    9070.575     76.080   4.680  1.03136E+00  9.83131E-01  4.82268E-02
    9072.007     77.512   4.720  1.03031E+00  9.83239E-01  4.70686E-02
    9073.452     78.957   4.760  1.02879E+00  9.83404E-01  4.53833E-02
    9074.909     80.414   4.800  1.02630E+00  9.83560E-01  4.27376E-02
    9076.378     81.883   4.840  1.02272E+00  9.83769E-01  3.89477E-02
    9077.859     83.364   4.880  1.01807E+00  9.83990E-01  3.40809E-02
    9079.353     84.858   4.920  1.01272E+00  9.84241E-01  2.84783E-02
    9080.859     86.364   4.960  1.00721E+00  9.84498E-01  2.27120E-02
    9082.376     87.882   5.000  1.00225E+00  9.84761E-01  1.74918E-02
    9083.906     89.412   5.040  9.98434E-01  9.85052E-01  1.33828E-02
    9085.449     90.954   5.080  9.95879E-01  9.85347E-01  1.05316E-02
    9087.003     92.508   5.120  9.94295E-01  9.85647E-01  8.64871E-03
    9088.570     94.075   5.160  9.93187E-01  9.85969E-01  7.21806E-03
    9090.149     95.654   5.200  9.92048E-01  9.86270E-01  5.77815E-03
    9091.740     97.245   5.240  9.90669E-01  9.86592E-01  4.07660E-03
    9093.343     98.848   5.280  9.88998E-01  9.86890E-01  2.10777E-03
    9094.958    100.464   5.320  9.87261E-01  9.87184E-01  7.65422E-05
    9096.586    102.091   5.360  9.85699E-01  9.87476E-01 -1.77783E-03
    9098.226    103.731   5.400  9.84338E-01  9.87765E-01 -3.42703E-03
    9099.878    105.383   5.440  9.82876E-01  9.88046E-01 -5.17010E-03
    9101.542    107.047   5.480  9.80799E-01  9.88300E-01 -7.50131E-03
    9103.219    108.724   5.520  9.77677E-01  9.88544E-01 -1.08674E-02
    9104.907    110.412   5.560  9.73238E-01  9.88758E-01 -1.55199E-02
    9106.608    112.113   5.600  9.67492E-01  9.88962E-01 -2.14700E-02
    9108.321    113.826   5.640  9.60609E-01  9.89133E-01 -2.85245E-02
    9110.046    115.551   5.680  9.53035E-01  9.89294E-01 -3.62587E-02
    9111.783    117.289   5.720  9.45446E-01  9.89420E-01 -4.39738E-02
    9113.533    119.038   5.760  9.38753E-01  9.89510E-01 -5.07568E-02
    9115.295    120.800   5.800  9.33782E-01  9.89563E-01 -5.57808E-02
    9117.069    122.574   5.840  9.31023E-01  9.89605E-01 -5.85820E-02
    9118.855    124.360   5.880  9.30484E-01  9.89613E-01 -5.91290E-02
    9120.653    126.158   5.920  9.31897E-01  9.89585E-01 -5.76885E-02
    9122.464    127.969   5.960  9.34952E-01  9.89542E-01 -5.45901E-02
    9124.286    129.791   6.000  9.39557E-01  9.89417E-01 -4.98605E-02
