# # comment:                                                     FEFF 9.9.1  
# # Source:
# # Structure
# # Reduced
# # space
# # abc:
# # angles:
# # sites:
# # POT  SCF 100  7.0000   0, screened core-hole, AFOLP (folp(0)= 1.150)
# # Abs   Z=29 Rmt= 1.213 Rnm= 1.276 K  shell
# # Pot 1 Z= 3 Rmt= 1.233 Rnm= 1.284
# # Pot 2 Z=23 Rmt= 1.133 Rnm= 1.327
# # Pot 3 Z=29 Rmt= 1.213 Rnm= 1.276
# # Pot 4 Z= 8 Rmt= 1.009 Rnm= 1.106
# # Gam_ch=1.729E+00 H-L exch Vi= 0.000E+00 Vr= 0.000E+00
# # Mu=-1.068E+01eV kf=2.225E+00 Vint=-1.836E+01eV Rs_int= 1.630
# FMS rfms= 9.0000
# # PATH  Rmax=-1.000,  Keep_limit= 0.00, Heap_limit 0.00  Pwcrit= 2.50%
#  S02=0.950  Temp=   0.00  Debye_temp=   0.00  Global_sig2= 0.00000
#  Energy zero shift, vr, vi    0.00000E+00   0.00000E+00
#  Curved wave amplitude ratio filter   4.000%
#     file         sig2 tot  cw amp ratio   deg  nlegs   reff  inp sig2
#     0/   0 paths used
#  xsedge+ 50, used to normalize mu           2.4746E-04
#  -----------------------------------------------------------------------
#  omega    e    k    mu    mu0     chi     @#
    8984.879    -14.493  -1.000  2.93460E-02  4.86602E-02 -1.93142E-02
    8985.177    -14.195  -0.960  3.06705E-02  5.20471E-02 -2.13766E-02
    8985.464    -13.908  -0.920  3.20951E-02  5.57984E-02 -2.37033E-02
    8985.738    -13.634  -0.880  3.36333E-02  5.99667E-02 -2.63334E-02
    8986.000    -13.372  -0.840  3.53012E-02  6.46132E-02 -2.93119E-02
    8986.250    -13.122  -0.800  3.71174E-02  6.98084E-02 -3.26911E-02
    8986.488    -12.884  -0.760  3.91033E-02  7.56335E-02 -3.65303E-02
    8986.714    -12.658  -0.720  4.12832E-02  8.21798E-02 -4.08966E-02
    8986.927    -12.445  -0.680  4.36842E-02  8.95477E-02 -4.58635E-02
    8987.128    -12.244  -0.640  4.63349E-02  9.78429E-02 -5.15080E-02
    8987.317    -12.055  -0.600  4.92635E-02  1.07169E-01 -5.79056E-02
    8987.494    -11.878  -0.560  5.24948E-02  1.17614E-01 -6.51194E-02
    8987.659    -11.714  -0.520  5.60446E-02  1.29230E-01 -7.31850E-02
    8987.811    -11.561  -0.480  5.99132E-02  1.42002E-01 -8.20885E-02
    8987.951    -11.421  -0.440  6.40768E-02  1.55819E-01 -9.17425E-02
    8988.079    -11.293  -0.400  6.84797E-02  1.70444E-01 -1.01965E-01
    8988.195    -11.177  -0.360  7.30301E-02  1.85505E-01 -1.12475E-01
    8988.299    -11.074  -0.320  7.76033E-02  2.00517E-01 -1.22913E-01
    8988.390    -10.982  -0.280  8.20517E-02  2.14942E-01 -1.32890E-01
    8988.469    -10.903  -0.240  8.62220E-02  2.28262E-01 -1.42040E-01
    8988.536    -10.836  -0.200  8.99721E-02  2.40041E-01 -1.50069E-01
    8988.591    -10.781  -0.160  9.31844E-02  2.49958E-01 -1.56773E-01
    8988.634    -10.738  -0.120  9.57722E-02  2.57803E-01 -1.62030E-01
    8988.664    -10.708  -0.080  9.76767E-02  2.63458E-01 -1.65782E-01
    8988.689    -10.683   0.000  9.92676E-02  2.68005E-01 -1.68737E-01
    8988.744    -10.629   0.120  1.02664E-01  2.78274E-01 -1.75610E-01
    8988.786    -10.586   0.160  1.05298E-01  2.86254E-01 -1.80957E-01
    8988.841    -10.531   0.200  1.08689E-01  2.96480E-01 -1.87790E-01
    8988.908    -10.464   0.240  1.12758E-01  3.08788E-01 -1.96030E-01
    8988.987    -10.385   0.280  1.17445E-01  3.22973E-01 -2.05527E-01
    8989.079    -10.293   0.320  1.22591E-01  3.38701E-01 -2.16111E-01
    8989.183    -10.190   0.360  1.27905E-01  3.55557E-01 -2.27652E-01
    8989.298    -10.074   0.400  1.32991E-01  3.73057E-01 -2.40066E-01
    8989.426     -9.946   0.440  1.37424E-01  3.90834E-01 -2.53411E-01
    8989.567     -9.806   0.480  1.40664E-01  4.08532E-01 -2.67868E-01
    8989.719     -9.653   0.520  1.42341E-01  4.25972E-01 -2.83631E-01
    8989.884     -9.489   0.560  1.42268E-01  4.43042E-01 -3.00775E-01
    8990.060     -9.312   0.600  1.40737E-01  4.59714E-01 -3.18978E-01
    8990.249     -9.123   0.640  1.38600E-01  4.76013E-01 -3.37412E-01
    8990.450     -8.922   0.680  1.37202E-01  4.92054E-01 -3.54852E-01
    8990.664     -8.708   0.720  1.37838E-01  5.07841E-01 -3.70002E-01
    8990.889     -8.483   0.760  1.41534E-01  5.23496E-01 -3.81962E-01
    8991.127     -8.245   0.800  1.48468E-01  5.39052E-01 -3.90584E-01
    8991.377     -7.995   0.840  1.57489E-01  5.54553E-01 -3.97064E-01
    8991.639     -7.733   0.880  1.66213E-01  5.70031E-01 -4.03819E-01
    8991.914     -7.459   0.920  1.72674E-01  5.85527E-01 -4.12853E-01
    8992.200     -7.172   0.960  1.76968E-01  6.01052E-01 -4.24084E-01
    8992.499     -6.873   1.000  1.80803E-01  6.16588E-01 -4.35785E-01
    8992.810     -6.563   1.040  1.85835E-01  6.32128E-01 -4.46293E-01
    8993.133     -6.239   1.080  1.93473E-01  6.47680E-01 -4.54207E-01
    8993.468     -5.904   1.120  2.05818E-01  6.63187E-01 -4.57369E-01
    8993.815     -5.557   1.160  2.26251E-01  6.78666E-01 -4.52415E-01
    8994.175     -5.197   1.200  2.55498E-01  6.94072E-01 -4.38575E-01
    8994.547     -4.825   1.240  2.86359E-01  7.09358E-01 -4.22999E-01
    8994.931     -4.441   1.280  3.05933E-01  7.24491E-01 -4.18558E-01
    8995.327     -4.045   1.320  3.12829E-01  7.39459E-01 -4.26630E-01
    8995.736     -3.636   1.360  3.19811E-01  7.54231E-01 -4.34419E-01
    8996.156     -3.216   1.400  3.36154E-01  7.68731E-01 -4.32578E-01
    8996.589     -2.783   1.440  3.67847E-01  7.82968E-01 -4.15121E-01
    8997.034     -2.338   1.480  4.16973E-01  7.96886E-01 -3.79913E-01
    8997.491     -1.881   1.520  4.77439E-01  8.10450E-01 -3.33012E-01
    8997.961     -1.411   1.560  5.47245E-01  8.23651E-01 -2.76407E-01
    8998.442     -0.930   1.600  6.34760E-01  8.36456E-01 -2.01696E-01
    8998.936     -0.436   1.640  7.35667E-01  8.48811E-01 -1.13144E-01
    8999.442      0.070   1.680  8.09408E-01  8.60750E-01 -5.13428E-02
    8999.960      0.588   1.720  8.29980E-01  8.72203E-01 -4.22229E-02
    9000.491      1.118   1.760  8.49119E-01  8.83163E-01 -3.40441E-02
    9001.033      1.661   1.800  9.22996E-01  8.93644E-01  2.93517E-02
    9001.588      2.216   1.840  1.05950E+00  9.03603E-01  1.55900E-01
    9002.155      2.783   1.880  1.24258E+00  9.13057E-01  3.29528E-01
    9002.734      3.362   1.920  1.43234E+00  9.22003E-01  5.10340E-01
    9003.325      3.953   1.960  1.57022E+00  9.30424E-01  6.39794E-01
    9003.929      4.557   2.000  1.62073E+00  9.38340E-01  6.82388E-01
    9004.544      5.172   2.040  1.60446E+00  9.45731E-01  6.58731E-01
    9005.172      5.800   2.080  1.58437E+00  9.52624E-01  6.31743E-01
    9005.812      6.440   2.120  1.61023E+00  9.59022E-01  6.51211E-01
    9006.465      7.092   2.160  1.66044E+00  9.64930E-01  6.95513E-01
    9007.129      7.757   2.200  1.66275E+00  9.70356E-01  6.92395E-01
    9007.806      8.434   2.240  1.57704E+00  9.75325E-01  6.01715E-01
    9008.495      9.122   2.280  1.43397E+00  9.79847E-01  4.54123E-01
    9009.196      9.823   2.320  1.28945E+00  9.83951E-01  3.05502E-01
    9009.909     10.537   2.360  1.16415E+00  9.87645E-01  1.76500E-01
    9010.634     11.262   2.400  1.06406E+00  9.90938E-01  7.31245E-02
    9011.372     12.000   2.440  9.98790E-01  9.93859E-01  4.93138E-03
    9012.122     12.750   2.480  9.63162E-01  9.96418E-01 -3.32561E-02
    9012.884     13.512   2.520  9.46146E-01  9.98667E-01 -5.25210E-02
    9013.658     14.286   2.560  9.43491E-01  1.00057E+00 -5.70823E-02
    9014.444     15.072   2.600  9.52695E-01  1.00219E+00 -4.94922E-02
    9015.243     15.871   2.640  9.63721E-01  1.00352E+00 -3.98002E-02
    9016.054     16.681   2.680  9.63241E-01  1.00462E+00 -4.13825E-02
    9016.877     17.504   2.720  9.57128E-01  1.00546E+00 -4.83327E-02
    9017.712     18.340   2.760  9.51156E-01  1.00609E+00 -5.49302E-02
    9018.559     19.187   2.800  9.46067E-01  1.00649E+00 -6.04180E-02
    9019.419     20.046   2.840  9.40545E-01  1.00673E+00 -6.61858E-02
    9020.290     20.918   2.880  9.33090E-01  1.00679E+00 -7.37006E-02
    9021.174     21.802   2.920  9.23527E-01  1.00671E+00 -8.31833E-02
    9022.070     22.698   2.960  9.12376E-01  1.00648E+00 -9.41048E-02
    9022.979     23.606   3.000  8.99736E-01  1.00613E+00 -1.06393E-01
    9023.899     24.527   3.040  8.85295E-01  1.00568E+00 -1.20386E-01
    9024.832     25.460   3.080  8.69281E-01  1.00512E+00 -1.35842E-01
    9025.777     26.405   3.120  8.52606E-01  1.00451E+00 -1.51900E-01
    9026.734     27.362   3.160  8.36711E-01  1.00381E+00 -1.67102E-01
    9027.703     28.331   3.200  8.23272E-01  1.00305E+00 -1.79776E-01
    9028.684     29.312   3.240  8.13604E-01  1.00226E+00 -1.88656E-01
    9029.678     30.306   3.280  8.08210E-01  1.00141E+00 -1.93202E-01
    9030.684     31.312   3.320  8.07487E-01  1.00055E+00 -1.93062E-01
    9031.702     32.330   3.360  8.11615E-01  9.99678E-01 -1.88063E-01
    9032.732     33.360   3.400  8.20357E-01  9.98782E-01 -1.78425E-01
    9033.775     34.402   3.440  8.33176E-01  9.97903E-01 -1.64728E-01
    9034.829     35.457   3.480  8.49035E-01  9.97005E-01 -1.47970E-01
    9035.896     36.524   3.520  8.66650E-01  9.96134E-01 -1.29484E-01
    9036.975     37.603   3.560  8.84571E-01  9.95292E-01 -1.10720E-01
    9038.066     38.694   3.600  9.01972E-01  9.94457E-01 -9.24850E-02
    9039.170     39.797   3.640  9.18606E-01  9.93636E-01 -7.50294E-02
    9040.285     40.913   3.680  9.34907E-01  9.92870E-01 -5.79636E-02
    9041.413     42.041   3.720  9.51700E-01  9.92122E-01 -4.04222E-02
    9042.553     43.181   3.760  9.69919E-01  9.91433E-01 -2.15138E-02
    9043.705     44.333   3.800  9.90014E-01  9.90764E-01 -7.49966E-04
    9044.869     45.497   3.840  1.01195E+00  9.90157E-01  2.17976E-02
    9046.046     46.674   3.880  1.03515E+00  9.89593E-01  4.55574E-02
    9047.234     47.862   3.920  1.05845E+00  9.89072E-01  6.93734E-02
    9048.435     49.063   3.960  1.08019E+00  9.88595E-01  9.15988E-02
    9049.648     50.276   4.000  1.09886E+00  9.88185E-01  1.10676E-01
    9050.874     51.502   4.040  1.11305E+00  9.87819E-01  1.25235E-01
    9052.111     52.739   4.080  1.12175E+00  9.87495E-01  1.34259E-01
    9053.361     53.989   4.120  1.12458E+00  9.87217E-01  1.37363E-01
    9054.623     55.251   4.160  1.12191E+00  9.87005E-01  1.34908E-01
    9055.897     56.525   4.200  1.11484E+00  9.86837E-01  1.28006E-01
    9057.183     57.811   4.240  1.10511E+00  9.86713E-01  1.18397E-01
    9058.482     59.109   4.280  1.09487E+00  9.86654E-01  1.08216E-01
    9059.792     60.420   4.320  1.08587E+00  9.86616E-01  9.92560E-02
    9061.115     61.743   4.360  1.07924E+00  9.86642E-01  9.25935E-02
    9062.450     63.078   4.400  1.07509E+00  9.86710E-01  8.83830E-02
    9063.797     64.425   4.440  1.07271E+00  9.86819E-01  8.58898E-02
    9065.157     65.785   4.480  1.07067E+00  9.86965E-01  8.37077E-02
    9066.528     67.156   4.520  1.06743E+00  9.87149E-01  8.02818E-02
    9067.912     68.540   4.560  1.06198E+00  9.87348E-01  7.46297E-02
    9069.308     69.936   4.600  1.05410E+00  9.87604E-01  6.64986E-02
    9070.716     71.344   4.640  1.04408E+00  9.87874E-01  5.62038E-02
    9072.137     72.764   4.680  1.03237E+00  9.88177E-01  4.41931E-02
    9073.569     74.197   4.720  1.01913E+00  9.88489E-01  3.06456E-02
    9075.014     75.642   4.760  1.00432E+00  9.88834E-01  1.54823E-02
    9076.471     77.099   4.800  9.87890E-01  9.89209E-01 -1.31902E-03
    9077.940     78.568   4.840  9.70297E-01  9.89590E-01 -1.92930E-02
    9079.421     80.049   4.880  9.52821E-01  9.89975E-01 -3.71537E-02
    9080.915     81.543   4.920  9.37173E-01  9.90363E-01 -5.31901E-02
    9082.420     83.048   4.960  9.24804E-01  9.90774E-01 -6.59698E-02
    9083.938     84.566   5.000  9.16379E-01  9.91165E-01 -7.47857E-02
    9085.468     86.096   5.040  9.11843E-01  9.91578E-01 -7.97350E-02
    9087.011     87.639   5.080  9.10719E-01  9.91990E-01 -8.12708E-02
    9088.565     89.193   5.120  9.12483E-01  9.92375E-01 -7.98916E-02
    9090.132     90.760   5.160  9.16751E-01  9.92754E-01 -7.60031E-02
    9091.711     92.339   5.200  9.23160E-01  9.93130E-01 -6.99702E-02
    9093.302     93.930   5.240  9.31207E-01  9.93500E-01 -6.22920E-02
    9094.905     95.533   5.280  9.40285E-01  9.93838E-01 -5.35525E-02
    9096.520     97.148   5.320  9.49758E-01  9.94167E-01 -4.44093E-02
    9098.148     98.776   5.360  9.58999E-01  9.94463E-01 -3.54638E-02
    9099.788    100.416   5.400  9.67520E-01  9.94724E-01 -2.72044E-02
    9101.440    102.068   5.440  9.75077E-01  9.94975E-01 -1.98983E-02
    9103.104    103.732   5.480  9.81411E-01  9.95215E-01 -1.38037E-02
    9104.780    105.408   5.520  9.86118E-01  9.95396E-01 -9.27831E-03
    9106.469    107.097   5.560  9.88843E-01  9.95562E-01 -6.71870E-03
    9108.170    108.798   5.600  9.89450E-01  9.95693E-01 -6.24337E-03
    9109.883    110.511   5.640  9.88259E-01  9.95787E-01 -7.52861E-03
    9111.608    112.236   5.680  9.85973E-01  9.95865E-01 -9.89198E-03
    9113.345    113.973   5.720  9.83245E-01  9.95882E-01 -1.26363E-02
    9115.095    115.723   5.760  9.80519E-01  9.95882E-01 -1.53633E-02
    9116.857    117.484   5.800  9.77757E-01  9.95822E-01 -1.80652E-02
    9118.631    119.258   5.840  9.74877E-01  9.95748E-01 -2.08705E-02
    9120.417    121.045   5.880  9.71921E-01  9.95637E-01 -2.37155E-02
    9122.215    122.843   5.920  9.69277E-01  9.95489E-01 -2.62122E-02
    9124.025    124.653   5.960  9.67469E-01  9.95301E-01 -2.78321E-02
    9125.848    126.476   6.000  9.66967E-01  9.95053E-01 -2.80857E-02
