# # comment:                                                     FEFF 9.9.1  
# # Source:
# # Structure
# # Reduced
# # space
# # abc:
# # angles:
# # sites:
# # POT  SCF 100  7.0000   0, screened core-hole, AFOLP (folp(0)= 1.150)
# # Abs   Z=29 Rmt= 1.239 Rnm= 1.347 K  shell
# # Pot 1 Z=29 Rmt= 1.239 Rnm= 1.347
# # Pot 2 Z=42 Rmt= 1.118 Rnm= 1.357
# # Pot 3 Z= 1 Rmt= 0.862 Rnm= 0.990
# # Pot 4 Z= 8 Rmt= 1.020 Rnm= 1.157
# # Gam_ch=1.729E+00 H-L exch Vi= 0.000E+00 Vr= 0.000E+00
# # Mu=-6.408E+00eV kf=2.042E+00 Vint=-1.294E+01eV Rs_int= 1.776
# FMS rfms= 9.0000
# # PATH  Rmax=-1.000,  Keep_limit= 0.00, Heap_limit 0.00  Pwcrit= 2.50%
#  S02=0.950  Temp=   0.00  Debye_temp=   0.00  Global_sig2= 0.00000
#  Energy zero shift, vr, vi    0.00000E+00   0.00000E+00
#  Curved wave amplitude ratio filter   4.000%
#     file         sig2 tot  cw amp ratio   deg  nlegs   reff  inp sig2
#     0/   0 paths used
#  xsedge+ 50, used to normalize mu           2.4194E-04
#  -----------------------------------------------------------------------
#  omega    e    k    mu    mu0     chi     @#
    8983.398    -10.218  -1.000  3.49905E-02  5.72058E-02 -2.22153E-02
    8983.697     -9.919  -0.960  3.65245E-02  6.13880E-02 -2.48635E-02
    8983.984     -9.633  -0.920  3.81403E-02  6.60314E-02 -2.78912E-02
    8984.258     -9.358  -0.880  3.98431E-02  7.12029E-02 -3.13599E-02
    8984.520     -9.096  -0.840  4.16387E-02  7.69802E-02 -3.53415E-02
    8984.770     -8.846  -0.800  4.35334E-02  8.34532E-02 -3.99198E-02
    8985.008     -8.609  -0.760  4.55335E-02  9.07246E-02 -4.51911E-02
    8985.233     -8.383  -0.720  4.76457E-02  9.89104E-02 -5.12647E-02
    8985.447     -8.170  -0.680  4.98763E-02  1.08138E-01 -5.82616E-02
    8985.648     -7.969  -0.640  5.22311E-02  1.18541E-01 -6.63103E-02
    8985.837     -7.780  -0.600  5.47138E-02  1.30252E-01 -7.55382E-02
    8986.014     -7.603  -0.560  5.73253E-02  1.43381E-01 -8.60561E-02
    8986.178     -7.438  -0.520  6.00613E-02  1.57995E-01 -9.79338E-02
    8986.331     -7.286  -0.480  6.29097E-02  1.74077E-01 -1.11167E-01
    8986.471     -7.146  -0.440  6.58477E-02  1.91485E-01 -1.25638E-01
    8986.599     -7.018  -0.400  6.88393E-02  2.09922E-01 -1.41083E-01
    8986.715     -6.902  -0.360  7.18346E-02  2.28918E-01 -1.57083E-01
    8986.818     -6.798  -0.320  7.47713E-02  2.47861E-01 -1.73090E-01
    8986.910     -6.707  -0.280  7.75796E-02  2.66073E-01 -1.88494E-01
    8986.989     -6.627  -0.240  8.01878E-02  2.82899E-01 -2.02711E-01
    8987.056     -6.560  -0.200  8.25281E-02  2.97784E-01 -2.15256E-01
    8987.111     -6.505  -0.160  8.45403E-02  3.10321E-01 -2.25781E-01
    8987.154     -6.463  -0.120  8.61729E-02  3.20244E-01 -2.34071E-01
    8987.184     -6.432  -0.080  8.73842E-02  3.27401E-01 -2.40017E-01
    8987.208     -6.408   0.000  8.84073E-02  3.33158E-01 -2.44750E-01
    8987.263     -6.353   0.120  9.07300E-02  3.46134E-01 -2.55404E-01
    8987.306     -6.310   0.160  9.25395E-02  3.56255E-01 -2.63715E-01
    8987.361     -6.256   0.200  9.48814E-02  3.69197E-01 -2.74316E-01
    8987.428     -6.188   0.240  9.78281E-02  3.84813E-01 -2.86985E-01
    8987.507     -6.109   0.280  1.01405E-01  4.02808E-01 -3.01402E-01
    8987.599     -6.018   0.320  1.05696E-01  4.22771E-01 -3.17075E-01
    8987.702     -5.914   0.360  1.10857E-01  4.44209E-01 -3.33352E-01
    8987.818     -5.798   0.400  1.16946E-01  4.66505E-01 -3.49558E-01
    8987.946     -5.670   0.440  1.24148E-01  4.89150E-01 -3.65003E-01
    8988.086     -5.530   0.480  1.32629E-01  5.11728E-01 -3.79099E-01
    8988.239     -5.378   0.520  1.42469E-01  5.33982E-01 -3.91513E-01
    8988.403     -5.213   0.560  1.53526E-01  5.55747E-01 -4.02221E-01
    8988.580     -5.036   0.600  1.65248E-01  5.76979E-01 -4.11731E-01
    8988.769     -4.847   0.640  1.76682E-01  5.97702E-01 -4.21019E-01
    8988.970     -4.646   0.680  1.86860E-01  6.17949E-01 -4.31089E-01
    8989.184     -4.433   0.720  1.95598E-01  6.37768E-01 -4.42170E-01
    8989.409     -4.207   0.760  2.04018E-01  6.57223E-01 -4.53205E-01
    8989.647     -3.970   0.800  2.13864E-01  6.76345E-01 -4.62482E-01
    8989.897     -3.720   0.840  2.26471E-01  6.95176E-01 -4.68705E-01
    8990.159     -3.457   0.880  2.42084E-01  7.13699E-01 -4.71614E-01
    8990.433     -3.183   0.920  2.59890E-01  7.31905E-01 -4.72015E-01
    8990.720     -2.897   0.960  2.79142E-01  7.49776E-01 -4.70634E-01
    8991.018     -2.598   1.000  3.00481E-01  7.67301E-01 -4.66821E-01
    8991.329     -2.287   1.040  3.25652E-01  7.84424E-01 -4.58771E-01
    8991.652     -1.964   1.080  3.55938E-01  8.01100E-01 -4.45162E-01
    8991.988     -1.629   1.120  3.91056E-01  8.17324E-01 -4.26268E-01
    8992.335     -1.281   1.160  4.28760E-01  8.33004E-01 -4.04244E-01
    8992.695     -0.922   1.200  4.67382E-01  8.48130E-01 -3.80748E-01
    8993.067     -0.550   1.240  5.09355E-01  8.62648E-01 -3.53293E-01
    8993.451     -0.166   1.280  5.59450E-01  8.76529E-01 -3.17079E-01
    8993.847      0.231   1.320  6.19082E-01  8.89740E-01 -2.70659E-01
    8994.255      0.639   1.360  6.85888E-01  9.02235E-01 -2.16347E-01
    8994.676      1.060   1.400  7.57602E-01  9.14006E-01 -1.56404E-01
    8995.109      1.492   1.440  8.33998E-01  9.25050E-01 -9.10527E-02
    8995.554      1.937   1.480  9.19119E-01  9.35345E-01 -1.62256E-02
    8996.011      2.395   1.520  1.01020E+00  9.44892E-01  6.53093E-02
    8996.480      2.864   1.560  1.08814E+00  9.53676E-01  1.34469E-01
    8996.962      3.346   1.600  1.13855E+00  9.61743E-01  1.76803E-01
    8997.456      3.839   1.640  1.17386E+00  9.69083E-01  2.04775E-01
    8997.962      4.345   1.680  1.22247E+00  9.75706E-01  2.46766E-01
    8998.480      4.864   1.720  1.29590E+00  9.81645E-01  3.14251E-01
    8999.010      5.394   1.760  1.38197E+00  9.86934E-01  3.95038E-01
    8999.553      5.936   1.800  1.46350E+00  9.91611E-01  4.71884E-01
    9000.108      6.491   1.840  1.53582E+00  9.95672E-01  5.40144E-01
    9000.674      7.058   1.880  1.59993E+00  9.99173E-01  6.00760E-01
    9001.254      7.637   1.920  1.63780E+00  1.00213E+00  6.35665E-01
    9001.845      8.228   1.960  1.62207E+00  1.00462E+00  6.17457E-01
    9002.448      8.832   2.000  1.54316E+00  1.00663E+00  5.36527E-01
    9003.064      9.448   2.040  1.41448E+00  1.00823E+00  4.06250E-01
    9003.692     10.076   2.080  1.27374E+00  1.00944E+00  2.64302E-01
    9004.332     10.716   2.120  1.15779E+00  1.01029E+00  1.47506E-01
    9004.984     11.368   2.160  1.08094E+00  1.01082E+00  7.01210E-02
    9005.649     12.032   2.200  1.03744E+00  1.01107E+00  2.63730E-02
    9006.325     12.709   2.240  1.01404E+00  1.01108E+00  2.95865E-03
    9007.014     13.398   2.280  9.98775E-01  1.01086E+00 -1.20817E-02
    9007.715     14.099   2.320  9.83802E-01  1.01043E+00 -2.66266E-02
    9008.429     14.812   2.360  9.71062E-01  1.00985E+00 -3.87909E-02
    9009.154     15.538   2.400  9.67997E-01  1.00912E+00 -4.11235E-02
    9009.892     16.275   2.440  9.74595E-01  1.00829E+00 -3.36918E-02
    9010.641     17.025   2.480  9.84694E-01  1.00734E+00 -2.26502E-02
    9011.403     17.787   2.520  9.90448E-01  1.00634E+00 -1.58947E-02
    9012.178     18.561   2.560  9.93484E-01  1.00529E+00 -1.18088E-02
    9012.964     19.348   2.600  9.93281E-01  1.00420E+00 -1.09214E-02
    9013.763     20.146   2.640  9.89830E-01  1.00308E+00 -1.32521E-02
    9014.573     20.957   2.680  9.83961E-01  1.00198E+00 -1.80192E-02
    9015.396     21.780   2.720  9.76381E-01  1.00088E+00 -2.45014E-02
    9016.231     22.615   2.760  9.67278E-01  9.99818E-01 -3.25398E-02
    9017.079     23.462   2.800  9.56915E-01  9.98771E-01 -4.18561E-02
    9017.938     24.322   2.840  9.45716E-01  9.97787E-01 -5.20711E-02
    9018.810     25.194   2.880  9.34000E-01  9.96872E-01 -6.28724E-02
    9019.694     26.078   2.920  9.22179E-01  9.96009E-01 -7.38304E-02
    9020.590     26.974   2.960  9.10646E-01  9.95201E-01 -8.45552E-02
    9021.498     27.882   3.000  8.99842E-01  9.94493E-01 -9.46515E-02
    9022.419     28.802   3.040  8.90419E-01  9.93868E-01 -1.03449E-01
    9023.351     29.735   3.080  8.83294E-01  9.93327E-01 -1.10034E-01
    9024.296     30.680   3.120  8.78831E-01  9.92872E-01 -1.14041E-01
    9025.253     31.637   3.160  8.77315E-01  9.92523E-01 -1.15208E-01
    9026.223     32.606   3.200  8.78816E-01  9.92241E-01 -1.13425E-01
    9027.204     33.588   3.240  8.83159E-01  9.92091E-01 -1.08932E-01
    9028.198     34.581   3.280  8.89889E-01  9.92008E-01 -1.02119E-01
    9029.204     35.587   3.320  8.98637E-01  9.92036E-01 -9.33993E-02
    9030.222     36.605   3.360  9.09044E-01  9.92174E-01 -8.31304E-02
    9031.252     37.635   3.400  9.20635E-01  9.92378E-01 -7.17427E-02
    9032.294     38.678   3.440  9.33181E-01  9.92692E-01 -5.95105E-02
    9033.349     39.732   3.480  9.46276E-01  9.93114E-01 -4.68374E-02
    9034.416     40.799   3.520  9.59381E-01  9.93599E-01 -3.42174E-02
    9035.495     41.878   3.560  9.72131E-01  9.94190E-01 -2.20583E-02
    9036.586     42.969   3.600  9.84264E-01  9.94863E-01 -1.05988E-02
    9037.689     44.073   3.640  9.95585E-01  9.95593E-01 -8.41560E-06
    9038.805     45.188   3.680  1.00610E+00  9.96424E-01  9.67606E-03
    9039.933     46.316   3.720  1.01596E+00  9.97310E-01  1.86482E-02
    9041.072     47.456   3.760  1.02552E+00  9.98269E-01  2.72489E-02
    9042.225     48.608   3.800  1.03499E+00  9.99278E-01  3.57113E-02
    9043.389     49.773   3.840  1.04433E+00  1.00035E+00  4.39777E-02
    9044.565     50.949   3.880  1.05297E+00  1.00148E+00  5.14980E-02
    9045.754     52.138   3.920  1.06002E+00  1.00264E+00  5.73839E-02
    9046.955     53.339   3.960  1.06457E+00  1.00382E+00  6.07572E-02
    9048.168     54.552   4.000  1.06617E+00  1.00505E+00  6.11183E-02
    9049.393     55.777   4.040  1.06475E+00  1.00630E+00  5.84529E-02
    9050.631     57.015   4.080  1.06080E+00  1.00758E+00  5.32198E-02
    9051.881     58.264   4.120  1.05518E+00  1.00887E+00  4.63188E-02
    9053.142     59.526   4.160  1.04893E+00  1.01017E+00  3.87540E-02
    9054.417     60.800   4.200  1.04288E+00  1.01146E+00  3.14197E-02
    9055.703     62.086   4.240  1.03769E+00  1.01274E+00  2.49500E-02
    9057.001     63.385   4.280  1.03368E+00  1.01402E+00  1.96669E-02
    9058.312     64.695   4.320  1.03095E+00  1.01526E+00  1.56870E-02
    9059.635     66.018   4.360  1.02960E+00  1.01649E+00  1.31090E-02
    9060.970     67.353   4.400  1.02980E+00  1.01769E+00  1.21182E-02
    9062.317     68.701   4.440  1.03174E+00  1.01886E+00  1.28711E-02
    9063.676     70.060   4.480  1.03529E+00  1.01998E+00  1.53083E-02
    9065.048     71.432   4.520  1.04008E+00  1.02105E+00  1.90320E-02
    9066.432     72.815   4.560  1.04541E+00  1.02207E+00  2.33401E-02
    9067.828     74.211   4.600  1.05041E+00  1.02304E+00  2.73657E-02
    9069.236     75.619   4.640  1.05424E+00  1.02394E+00  3.02950E-02
    9070.656     77.040   4.680  1.05637E+00  1.02479E+00  3.15816E-02
    9072.089     78.472   4.720  1.05661E+00  1.02556E+00  3.10462E-02
    9073.534     79.917   4.760  1.05518E+00  1.02626E+00  2.89247E-02
    9074.990     81.374   4.800  1.05266E+00  1.02689E+00  2.57697E-02
    9076.460     82.843   4.840  1.04969E+00  1.02745E+00  2.22421E-02
    9077.941     84.325   4.880  1.04680E+00  1.02793E+00  1.88729E-02
    9079.434     85.818   4.920  1.04413E+00  1.02832E+00  1.58098E-02
    9080.940     87.324   4.960  1.04142E+00  1.02864E+00  1.27761E-02
    9082.458     88.842   5.000  1.03814E+00  1.02889E+00  9.24901E-03
    9083.988     90.372   5.040  1.03380E+00  1.02904E+00  4.75288E-03
    9085.530     91.914   5.080  1.02821E+00  1.02911E+00 -9.02434E-04
    9087.085     93.468   5.120  1.02150E+00  1.02912E+00 -7.61717E-03
    9088.652     95.035   5.160  1.01396E+00  1.02905E+00 -1.50885E-02
    9090.230     96.614   5.200  1.00600E+00  1.02890E+00 -2.28954E-02
    9091.821     98.205   5.240  9.98150E-01  1.02866E+00 -3.05138E-02
    9093.425     99.808   5.280  9.91038E-01  1.02835E+00 -3.73157E-02
    9095.040    101.424   5.320  9.85247E-01  1.02799E+00 -4.27427E-02
    9096.668    103.051   5.360  9.81066E-01  1.02755E+00 -4.64840E-02
    9098.308    104.691   5.400  9.78475E-01  1.02706E+00 -4.85834E-02
    9099.960    106.343   5.440  9.77170E-01  1.02649E+00 -4.93251E-02
    9101.624    108.007   5.480  9.76814E-01  1.02588E+00 -4.90674E-02
    9103.300    109.684   5.520  9.77101E-01  1.02520E+00 -4.80991E-02
    9104.989    111.372   5.560  9.77945E-01  1.02450E+00 -4.65517E-02
    9106.690    113.073   5.600  9.79427E-01  1.02373E+00 -4.43030E-02
    9108.403    114.786   5.640  9.81934E-01  1.02294E+00 -4.10105E-02
    9110.128    116.511   5.680  9.85780E-01  1.02210E+00 -3.63181E-02
    9111.865    118.249   5.720  9.91112E-01  1.02124E+00 -3.01261E-02
    9113.615    119.998   5.760  9.97684E-01  1.02035E+00 -2.26645E-02
    9115.376    121.760   5.800  1.00503E+00  1.01945E+00 -1.44256E-02
    9117.150    123.534   5.840  1.01246E+00  1.01856E+00 -6.10010E-03
    9118.936    125.320   5.880  1.01911E+00  1.01764E+00  1.46838E-03
    9120.735    127.118   5.920  1.02426E+00  1.01673E+00  7.53550E-03
    9122.545    128.929   5.960  1.02762E+00  1.01581E+00  1.18118E-02
    9124.368    130.751   6.000  1.02957E+00  1.01491E+00  1.46598E-02
