# # comment:                                                     FEFF 9.9.1  
# # Source:
# # Structure
# # Reduced
# # space
# # abc:
# # angles:
# # sites:
# # POT  SCF 100  7.0000   0, screened core-hole, AFOLP (folp(0)= 1.150)
# # Abs   Z=29 Rmt= 1.303 Rnm= 1.363 K  shell
# # Pot 1 Z= 3 Rmt= 1.320 Rnm= 1.382
# # Pot 2 Z=29 Rmt= 1.289 Rnm= 1.353
# # Pot 3 Z=15 Rmt= 0.937 Rnm= 1.152
# # Pot 4 Z= 8 Rmt= 0.905 Rnm= 1.039
# # Gam_ch=1.729E+00 H-L exch Vi= 0.000E+00 Vr= 0.000E+00
# # Mu=-7.027E+00eV kf=2.471E+00 Vint=-1.792E+01eV Rs_int= 1.468
# FMS rfms= 9.0000
# # PATH  Rmax=-1.000,  Keep_limit= 0.00, Heap_limit 0.00  Pwcrit= 2.50%
#  S02=0.950  Temp=   0.00  Debye_temp=   0.00  Global_sig2= 0.00000
#  Energy zero shift, vr, vi    0.00000E+00   0.00000E+00
#  Curved wave amplitude ratio filter   4.000%
#     file         sig2 tot  cw amp ratio   deg  nlegs   reff  inp sig2
#     0/   0 paths used
#  xsedge+ 50, used to normalize mu           2.4770E-04
#  -----------------------------------------------------------------------
#  omega    e    k    mu    mu0     chi     @#
    8983.567    -10.837  -1.000  3.83322E-02  5.00517E-02 -1.17195E-02
    8983.866    -10.538  -0.960  4.02212E-02  5.36109E-02 -1.33897E-02
    8984.152    -10.252  -0.920  4.22284E-02  5.75629E-02 -1.53345E-02
    8984.427     -9.977  -0.880  4.43627E-02  6.19656E-02 -1.76029E-02
    8984.689     -9.715  -0.840  4.66336E-02  6.68864E-02 -2.02528E-02
    8984.939     -9.465  -0.800  4.90514E-02  7.24034E-02 -2.33521E-02
    8985.177     -9.228  -0.760  5.16266E-02  7.86066E-02 -2.69800E-02
    8985.402     -9.002  -0.720  5.43704E-02  8.55974E-02 -3.12270E-02
    8985.615     -8.789  -0.680  5.72933E-02  9.34876E-02 -3.61943E-02
    8985.817     -8.587  -0.640  6.04050E-02  1.02395E-01 -4.19903E-02
    8986.006     -8.398  -0.600  6.37130E-02  1.12437E-01 -4.87237E-02
    8986.182     -8.222  -0.560  6.72200E-02  1.23711E-01 -5.64906E-02
    8986.347     -8.057  -0.520  7.09221E-02  1.36276E-01 -6.53544E-02
    8986.499     -7.905  -0.480  7.48040E-02  1.50121E-01 -7.53169E-02
    8986.640     -7.764  -0.440  7.88357E-02  1.65122E-01 -8.62866E-02
    8986.768     -7.636  -0.400  8.29687E-02  1.81019E-01 -9.80503E-02
    8986.883     -7.521  -0.360  8.71337E-02  1.97400E-01 -1.10266E-01
    8986.987     -7.417  -0.320  9.12431E-02  2.13730E-01 -1.22487E-01
    8987.078     -7.326  -0.280  9.51956E-02  2.29418E-01 -1.34223E-01
    8987.158     -7.246  -0.240  9.88848E-02  2.43894E-01 -1.45009E-01
    8987.225     -7.179  -0.200  1.02207E-01  2.56682E-01 -1.54474E-01
    8987.280     -7.124  -0.160  1.05069E-01  2.67434E-01 -1.62365E-01
    8987.322     -7.082  -0.120  1.07390E-01  2.75931E-01 -1.68541E-01
    8987.353     -7.051  -0.080  1.09107E-01  2.82049E-01 -1.72942E-01
    8987.377     -7.027   0.000  1.10542E-01  2.86963E-01 -1.76420E-01
    8987.432     -6.972   0.120  1.13819E-01  2.98056E-01 -1.84237E-01
    8987.475     -6.929   0.160  1.16370E-01  3.06665E-01 -1.90295E-01
    8987.530     -6.874   0.200  1.19719E-01  3.17643E-01 -1.97925E-01
    8987.597     -6.807   0.240  1.23920E-01  3.30835E-01 -2.06915E-01
    8987.676     -6.728   0.280  1.29098E-01  3.45989E-01 -2.16891E-01
    8987.767     -6.637   0.320  1.35272E-01  3.62669E-01 -2.27397E-01
    8987.871     -6.533   0.360  1.42589E-01  3.80422E-01 -2.37834E-01
    8987.987     -6.417   0.400  1.51101E-01  3.98689E-01 -2.47587E-01
    8988.115     -6.289   0.440  1.60855E-01  4.17015E-01 -2.56161E-01
    8988.255     -6.149   0.480  1.71771E-01  4.35015E-01 -2.63244E-01
    8988.407     -5.997   0.520  1.83646E-01  4.52459E-01 -2.68813E-01
    8988.572     -5.832   0.560  1.96075E-01  4.69263E-01 -2.73188E-01
    8988.749     -5.655   0.600  2.08634E-01  4.85380E-01 -2.76746E-01
    8988.938     -5.466   0.640  2.21199E-01  5.00867E-01 -2.79668E-01
    8989.139     -5.265   0.680  2.34325E-01  5.15838E-01 -2.81513E-01
    8989.352     -5.052   0.720  2.49072E-01  5.30356E-01 -2.81284E-01
    8989.578     -4.826   0.760  2.66744E-01  5.44546E-01 -2.77801E-01
    8989.816     -4.588   0.800  2.88327E-01  5.58461E-01 -2.70135E-01
    8990.065     -4.339   0.840  3.14580E-01  5.72210E-01 -2.57630E-01
    8990.328     -4.076   0.880  3.46424E-01  5.85842E-01 -2.39418E-01
    8990.602     -3.802   0.920  3.85259E-01  5.99398E-01 -2.14139E-01
    8990.888     -3.516   0.960  4.31418E-01  6.12927E-01 -1.81509E-01
    8991.187     -3.217   1.000  4.81455E-01  6.26466E-01 -1.45010E-01
    8991.498     -2.906   1.040  5.29125E-01  6.40005E-01 -1.10880E-01
    8991.821     -2.583   1.080  5.71241E-01  6.53570E-01 -8.23291E-02
    8992.156     -2.248   1.120  6.11073E-01  6.67153E-01 -5.60806E-02
    8992.504     -1.900   1.160  6.55189E-01  6.80769E-01 -2.55794E-02
    8992.864     -1.540   1.200  7.05880E-01  6.94382E-01  1.14987E-02
    8993.235     -1.169   1.240  7.57163E-01  7.08017E-01  4.91468E-02
    8993.619     -0.785   1.280  7.97569E-01  7.21611E-01  7.59576E-02
    8994.016     -0.388   1.320  8.18598E-01  7.35204E-01  8.33938E-02
    8994.424      0.020   1.360  8.22883E-01  7.48708E-01  7.41747E-02
    8994.845      0.441   1.400  8.22166E-01  7.62158E-01  6.00086E-02
    8995.278      0.874   1.440  8.31251E-01  7.75482E-01  5.57691E-02
    8995.723      1.319   1.480  8.61303E-01  7.88672E-01  7.26306E-02
    8996.180      1.776   1.520  9.15209E-01  8.01698E-01  1.13511E-01
    8996.649      2.245   1.560  9.88723E-01  8.14548E-01  1.74175E-01
    8997.131      2.727   1.600  1.07496E+00  8.27191E-01  2.47774E-01
    8997.624      3.220   1.640  1.16306E+00  8.39574E-01  3.23481E-01
    8998.130      3.726   1.680  1.22703E+00  8.51685E-01  3.75348E-01
    8998.649      4.245   1.720  1.24538E+00  8.63490E-01  3.81890E-01
    8999.179      4.775   1.760  1.23679E+00  8.74980E-01  3.61810E-01
    8999.721      5.317   1.800  1.23331E+00  8.86124E-01  3.47187E-01
    9000.276      5.872   1.840  1.24339E+00  8.96892E-01  3.46498E-01
    9000.843      6.439   1.880  1.25749E+00  9.07273E-01  3.50220E-01
    9001.422      7.018   1.920  1.25523E+00  9.17239E-01  3.37991E-01
    9002.014      7.610   1.960  1.22991E+00  9.26781E-01  3.03129E-01
    9002.617      8.213   2.000  1.20059E+00  9.35874E-01  2.64719E-01
    9003.233      8.829   2.040  1.18352E+00  9.44511E-01  2.39008E-01
    9003.861      9.457   2.080  1.17446E+00  9.52687E-01  2.21774E-01
    9004.501     10.097   2.120  1.15855E+00  9.60401E-01  1.98151E-01
    9005.153     10.749   2.160  1.12773E+00  9.67626E-01  1.60102E-01
    9005.817     11.413   2.200  1.08849E+00  9.74365E-01  1.14124E-01
    9006.494     12.090   2.240  1.05202E+00  9.80617E-01  7.14013E-02
    9007.183     12.779   2.280  1.02364E+00  9.86401E-01  3.72417E-02
    9007.884     13.480   2.320  1.00433E+00  9.91702E-01  1.26269E-02
    9008.597     14.193   2.360  9.92850E-01  9.96542E-01 -3.69162E-03
    9009.323     14.919   2.400  9.88007E-01  1.00090E+00 -1.28983E-02
    9010.060     15.656   2.440  9.87736E-01  1.00482E+00 -1.70793E-02
    9010.810     16.406   2.480  9.87827E-01  1.00830E+00 -2.04760E-02
    9011.572     17.168   2.520  9.87056E-01  1.01135E+00 -2.42961E-02
    9012.346     17.942   2.560  9.86746E-01  1.01399E+00 -2.72440E-02
    9013.133     18.729   2.600  9.83375E-01  1.01622E+00 -3.28479E-02
    9013.931     19.527   2.640  9.70209E-01  1.01808E+00 -4.78741E-02
    9014.742     20.338   2.680  9.43340E-01  1.01958E+00 -7.62394E-02
    9015.565     21.161   2.720  9.08572E-01  1.02074E+00 -1.12166E-01
    9016.400     21.996   2.760  8.77326E-01  1.02155E+00 -1.44227E-01
    9017.247     22.843   2.800  8.54876E-01  1.02209E+00 -1.67216E-01
    9018.107     23.703   2.840  8.42223E-01  1.02232E+00 -1.80102E-01
    9018.979     24.575   2.880  8.47005E-01  1.02230E+00 -1.75298E-01
    9019.863     25.459   2.920  8.54548E-01  1.02204E+00 -1.67489E-01
    9020.759     26.355   2.960  8.61833E-01  1.02154E+00 -1.59703E-01
    9021.667     27.263   3.000  8.70334E-01  1.02085E+00 -1.50517E-01
    9022.587     28.183   3.040  8.81867E-01  1.01997E+00 -1.38106E-01
    9023.520     29.116   3.080  8.96350E-01  1.01893E+00 -1.22580E-01
    9024.465     30.061   3.120  9.13031E-01  1.01775E+00 -1.04722E-01
    9025.422     31.018   3.160  9.30791E-01  1.01643E+00 -8.56397E-02
    9026.391     31.987   3.200  9.48421E-01  1.01501E+00 -6.65923E-02
    9027.373     32.969   3.240  9.65069E-01  1.01351E+00 -4.84394E-02
    9028.366     33.962   3.280  9.79992E-01  1.01193E+00 -3.19328E-02
    9029.372     34.968   3.320  9.92527E-01  1.01029E+00 -1.77637E-02
    9030.390     35.986   3.360  1.00247E+00  1.00859E+00 -6.12579E-03
    9031.421     37.017   3.400  1.01008E+00  1.00688E+00  3.20286E-03
    9032.463     38.059   3.440  1.01586E+00  1.00513E+00  1.07255E-02
    9033.518     39.114   3.480  1.02053E+00  1.00340E+00  1.71271E-02
    9034.584     40.180   3.520  1.02456E+00  1.00166E+00  2.28976E-02
    9035.663     41.259   3.560  1.02815E+00  9.99967E-01  2.81790E-02
    9036.755     42.351   3.600  1.03122E+00  9.98287E-01  3.29315E-02
    9037.858     43.454   3.640  1.03386E+00  9.96647E-01  3.72126E-02
    9038.973     44.569   3.680  1.03625E+00  9.95048E-01  4.12055E-02
    9040.101     45.697   3.720  1.03868E+00  9.93517E-01  4.51614E-02
    9041.241     46.837   3.760  1.04141E+00  9.92037E-01  4.93780E-02
    9042.393     47.989   3.800  1.04466E+00  9.90632E-01  5.40232E-02
    9043.558     49.154   3.840  1.04828E+00  9.89307E-01  5.89743E-02
    9044.734     50.330   3.880  1.05201E+00  9.88084E-01  6.39250E-02
    9045.923     51.519   3.920  1.05542E+00  9.86921E-01  6.85018E-02
    9047.124     52.720   3.960  1.05812E+00  9.85841E-01  7.22838E-02
    9048.337     53.933   4.000  1.05952E+00  9.84869E-01  7.46521E-02
    9049.562     55.158   4.040  1.05891E+00  9.84006E-01  7.49047E-02
    9050.800     56.396   4.080  1.05553E+00  9.83210E-01  7.23230E-02
    9052.049     57.645   4.120  1.04912E+00  9.82545E-01  6.65750E-02
    9053.311     58.907   4.160  1.03999E+00  9.81947E-01  5.80381E-02
    9054.585     60.181   4.200  1.02913E+00  9.81480E-01  4.76547E-02
    9055.872     61.467   4.240  1.01752E+00  9.81082E-01  3.64365E-02
    9057.170     62.766   4.280  1.00604E+00  9.80793E-01  2.52477E-02
    9058.481     64.077   4.320  9.95338E-01  9.80613E-01  1.47249E-02
    9059.803     65.399   4.360  9.85781E-01  9.80521E-01  5.26075E-03
    9061.138     66.734   4.400  9.77658E-01  9.80514E-01 -2.85667E-03
    9062.486     68.082   4.440  9.71137E-01  9.80613E-01 -9.47613E-03
    9063.845     69.441   4.480  9.66157E-01  9.80774E-01 -1.46170E-02
    9065.217     70.813   4.520  9.62603E-01  9.81038E-01 -1.84349E-02
    9066.600     72.196   4.560  9.60175E-01  9.81382E-01 -2.12074E-02
    9067.996     73.592   4.600  9.58444E-01  9.81804E-01 -2.33602E-02
    9069.405     75.001   4.640  9.56980E-01  9.82280E-01 -2.53004E-02
    9070.825     76.421   4.680  9.55621E-01  9.82829E-01 -2.72077E-02
    9072.257     77.853   4.720  9.54530E-01  9.83447E-01 -2.89173E-02
    9073.702     79.298   4.760  9.54077E-01  9.84091E-01 -3.00138E-02
    9075.159     80.755   4.800  9.54697E-01  9.84822E-01 -3.01253E-02
    9076.628     82.224   4.840  9.56319E-01  9.85573E-01 -2.92536E-02
    9078.110     83.706   4.880  9.58627E-01  9.86361E-01 -2.77340E-02
    9079.603     85.199   4.920  9.61140E-01  9.87184E-01 -2.60438E-02
    9081.109     86.705   4.960  9.63483E-01  9.88018E-01 -2.45347E-02
    9082.627     88.223   5.000  9.65567E-01  9.88880E-01 -2.33134E-02
    9084.157     89.753   5.040  9.67438E-01  9.89750E-01 -2.23119E-02
    9085.699     91.295   5.080  9.69262E-01  9.90643E-01 -2.13810E-02
    9087.254     92.850   5.120  9.71198E-01  9.91513E-01 -2.03149E-02
    9088.820     94.416   5.160  9.73504E-01  9.92378E-01 -1.88741E-02
    9090.399     95.995   5.200  9.76393E-01  9.93236E-01 -1.68431E-02
    9091.990     97.586   5.240  9.79917E-01  9.94060E-01 -1.41433E-02
    9093.593     99.189   5.280  9.84001E-01  9.94850E-01 -1.08492E-02
    9095.209    100.805   5.320  9.88453E-01  9.95625E-01 -7.17242E-03
    9096.836    102.432   5.360  9.92870E-01  9.96362E-01 -3.49197E-03
    9098.476    104.072   5.400  9.96665E-01  9.97034E-01 -3.68502E-04
    9100.128    105.724   5.440  9.99243E-01  9.97683E-01  1.56018E-03
    9101.792    107.388   5.480  1.00016E+00  9.98265E-01  1.89694E-03
    9103.469    109.065   5.520  9.99569E-01  9.98797E-01  7.71772E-04
    9105.157    110.753   5.560  9.98121E-01  9.99256E-01 -1.13539E-03
    9106.858    112.454   5.600  9.96736E-01  9.99641E-01 -2.90544E-03
    9108.571    114.167   5.640  9.96171E-01  9.99975E-01 -3.80400E-03
    9110.296    115.892   5.680  9.96699E-01  1.00023E+00 -3.53494E-03
    9112.034    117.630   5.720  9.98194E-01  1.00044E+00 -2.24473E-03
    9113.783    119.379   5.760  1.00023E+00  1.00054E+00 -3.14746E-04
    9115.545    121.141   5.800  1.00252E+00  1.00059E+00  1.92826E-03
    9117.319    122.915   5.840  1.00492E+00  1.00054E+00  4.37526E-03
    9119.105    124.701   5.880  1.00750E+00  1.00043E+00  7.06964E-03
    9120.903    126.499   5.920  1.01028E+00  1.00025E+00  1.00331E-02
    9122.714    128.310   5.960  1.01311E+00  9.99984E-01  1.31217E-02
    9124.537    130.133   6.000  1.01566E+00  9.99619E-01  1.60367E-02
