# # comment:                                                     FEFF 9.9.1  
# # Source:
# # Structure
# # Reduced
# # space
# # abc:
# # angles:
# # sites:
# # POT  SCF 100  7.0000   0, screened core-hole, AFOLP (folp(0)= 1.150)
# # Abs   Z=29 Rmt= 1.289 Rnm= 1.360 K  shell
# # Pot 1 Z=37 Rmt= 2.139 Rnm= 2.229
# # Pot 2 Z=73 Rmt= 1.320 Rnm= 1.466
# # Pot 3 Z=29 Rmt= 1.295 Rnm= 1.366
# # Pot 4 Z= 8 Rmt= 1.002 Rnm= 1.087
# # Gam_ch=1.729E+00 H-L exch Vi= 0.000E+00 Vr= 0.000E+00
# # Mu=-6.417E+00eV kf=2.189E+00 Vint=-1.636E+01eV Rs_int= 1.657
# FMS rfms= 9.0000
# # PATH  Rmax=-1.000,  Keep_limit= 0.00, Heap_limit 0.00  Pwcrit= 2.50%
#  S02=0.950  Temp=   0.00  Debye_temp=   0.00  Global_sig2= 0.00000
#  Energy zero shift, vr, vi    0.00000E+00   0.00000E+00
#  Curved wave amplitude ratio filter   4.000%
#     file         sig2 tot  cw amp ratio   deg  nlegs   reff  inp sig2
#     0/   0 paths used
#  xsedge+ 50, used to normalize mu           2.4703E-04
#  -----------------------------------------------------------------------
#  omega    e    k    mu    mu0     chi     @#
    8983.556    -10.227  -1.000  4.46419E-02  5.43316E-02 -9.68971E-03
    8983.855     -9.928  -0.960  4.71504E-02  5.83129E-02 -1.11625E-02
    8984.141     -9.641  -0.920  4.98501E-02  6.27411E-02 -1.28910E-02
    8984.416     -9.367  -0.880  5.27602E-02  6.76825E-02 -1.49223E-02
    8984.678     -9.105  -0.840  5.59023E-02  7.32144E-02 -1.73121E-02
    8984.928     -8.855  -0.800  5.93002E-02  7.94261E-02 -2.01259E-02
    8985.166     -8.617  -0.760  6.29805E-02  8.64206E-02 -2.34401E-02
    8985.391     -8.392  -0.720  6.69723E-02  9.43142E-02 -2.73419E-02
    8985.605     -8.178  -0.680  7.13061E-02  1.03235E-01 -3.19288E-02
    8985.806     -7.977  -0.640  7.60127E-02  1.13318E-01 -3.73054E-02
    8985.995     -7.788  -0.600  8.11206E-02  1.24697E-01 -4.35763E-02
    8986.171     -7.611  -0.560  8.66510E-02  1.37485E-01 -5.08341E-02
    8986.336     -7.447  -0.520  9.26117E-02  1.51751E-01 -5.91390E-02
    8986.488     -7.294  -0.480  9.89871E-02  1.67479E-01 -6.84924E-02
    8986.629     -7.154  -0.440  1.05728E-01  1.84533E-01 -7.88048E-02
    8986.757     -7.026  -0.400  1.12743E-01  2.02613E-01 -8.98700E-02
    8986.872     -6.910  -0.360  1.19892E-01  2.21250E-01 -1.01358E-01
    8986.976     -6.807  -0.320  1.26993E-01  2.39835E-01 -1.12842E-01
    8987.068     -6.715  -0.280  1.33838E-01  2.57692E-01 -1.23853E-01
    8987.147     -6.636  -0.240  1.40214E-01  2.74169E-01 -1.33956E-01
    8987.214     -6.569  -0.200  1.45922E-01  2.88726E-01 -1.42804E-01
    8987.269     -6.514  -0.160  1.50799E-01  3.00967E-01 -1.50167E-01
    8987.311     -6.471  -0.120  1.54720E-01  3.10638E-01 -1.55918E-01
    8987.342     -6.441  -0.080  1.57595E-01  3.17604E-01 -1.60009E-01
    8987.366     -6.417   0.000  1.59969E-01  3.23198E-01 -1.63230E-01
    8987.421     -6.362   0.120  1.65205E-01  3.35812E-01 -1.70607E-01
    8987.464     -6.319   0.160  1.69298E-01  3.45596E-01 -1.76298E-01
    8987.519     -6.264   0.200  1.74608E-01  3.58099E-01 -1.83491E-01
    8987.586     -6.197   0.240  1.81121E-01  3.73104E-01 -1.91983E-01
    8987.665     -6.118   0.280  1.88829E-01  3.90317E-01 -2.01488E-01
    8987.756     -6.026   0.320  1.97622E-01  4.09285E-01 -2.11664E-01
    8987.860     -5.923   0.360  2.07298E-01  4.29428E-01 -2.22130E-01
    8987.976     -5.807   0.400  2.17548E-01  4.50128E-01 -2.32579E-01
    8988.104     -5.679   0.440  2.28041E-01  4.70861E-01 -2.42819E-01
    8988.244     -5.539   0.480  2.38430E-01  4.91206E-01 -2.52777E-01
    8988.396     -5.386   0.520  2.48497E-01  5.10858E-01 -2.62360E-01
    8988.561     -5.222   0.560  2.58390E-01  5.29694E-01 -2.71304E-01
    8988.738     -5.045   0.600  2.68721E-01  5.47701E-01 -2.78980E-01
    8988.927     -4.856   0.640  2.80557E-01  5.64922E-01 -2.84365E-01
    8989.128     -4.655   0.680  2.95301E-01  5.81436E-01 -2.86135E-01
    8989.341     -4.442   0.720  3.14372E-01  5.97359E-01 -2.82986E-01
    8989.567     -4.216   0.760  3.39082E-01  6.12783E-01 -2.73701E-01
    8989.805     -3.978   0.800  3.70994E-01  6.27814E-01 -2.56820E-01
    8990.055     -3.728   0.840  4.12708E-01  6.42501E-01 -2.29793E-01
    8990.317     -3.466   0.880  4.68317E-01  6.56923E-01 -1.88606E-01
    8990.591     -3.192   0.920  5.42849E-01  6.71123E-01 -1.28274E-01
    8990.878     -2.905   0.960  6.39808E-01  6.85129E-01 -4.53208E-02
    8991.176     -2.607   1.000  7.55355E-01  6.98963E-01  5.63923E-02
    8991.487     -2.296   1.040  8.71278E-01  7.12656E-01  1.58622E-01
    8991.810     -1.973   1.080  9.54942E-01  7.26168E-01  2.28774E-01
    8992.146     -1.637   1.120  9.78806E-01  7.39536E-01  2.39270E-01
    8992.493     -1.290   1.160  9.51715E-01  7.52732E-01  1.98983E-01
    8992.853     -0.930   1.200  9.09650E-01  7.65760E-01  1.43890E-01
    8993.224     -0.558   1.240  8.78705E-01  7.78603E-01  1.00102E-01
    8993.609     -0.174   1.280  8.71940E-01  7.91221E-01  8.07187E-02
    8994.005      0.222   1.320  8.96083E-01  8.03613E-01  9.24699E-02
    8994.413      0.630   1.360  9.40664E-01  8.15752E-01  1.24912E-01
    8994.834      1.051   1.400  9.73412E-01  8.27616E-01  1.45796E-01
    8995.267      1.484   1.440  9.69903E-01  8.39197E-01  1.30705E-01
    8995.712      1.929   1.480  9.49699E-01  8.50470E-01  9.92288E-02
    8996.169      2.386   1.520  9.47347E-01  8.61388E-01  8.59593E-02
    8996.638      2.855   1.560  9.71601E-01  8.71966E-01  9.96355E-02
    8997.120      3.337   1.600  1.01238E+00  8.82177E-01  1.30201E-01
    8997.614      3.831   1.640  1.05606E+00  8.92017E-01  1.64045E-01
    8998.120      4.337   1.680  1.09691E+00  9.01462E-01  1.95451E-01
    8998.638      4.855   1.720  1.13805E+00  9.10485E-01  2.27565E-01
    8999.168      5.385   1.760  1.17150E+00  9.19105E-01  2.52394E-01
    8999.711      5.928   1.800  1.17715E+00  9.27300E-01  2.49849E-01
    9000.265      6.482   1.840  1.15587E+00  9.35067E-01  2.20806E-01
    9000.832      7.049   1.880  1.13163E+00  9.42409E-01  1.89226E-01
    9001.411      7.629   1.920  1.12018E+00  9.49304E-01  1.70874E-01
    9002.003      8.220   1.960  1.12646E+00  9.55794E-01  1.70669E-01
    9002.606      8.823   2.000  1.14418E+00  9.61841E-01  1.82343E-01
    9003.222      9.439   2.040  1.15778E+00  9.67468E-01  1.90311E-01
    9003.850     10.067   2.080  1.15315E+00  9.72701E-01  1.80454E-01
    9004.490     10.707   2.120  1.12832E+00  9.77501E-01  1.50820E-01
    9005.142     11.359   2.160  1.08974E+00  9.81918E-01  1.07822E-01
    9005.807     12.024   2.200  1.04501E+00  9.85956E-01  5.90562E-02
    9006.483     12.700   2.240  1.00652E+00  9.89619E-01  1.69013E-02
    9007.172     13.389   2.280  9.83111E-01  9.92917E-01 -9.80590E-03
    9007.873     14.090   2.320  9.69792E-01  9.95876E-01 -2.60838E-02
    9008.586     14.803   2.360  9.58114E-01  9.98502E-01 -4.03884E-02
    9009.312     15.529   2.400  9.43370E-01  1.00081E+00 -5.74353E-02
    9010.049     16.267   2.440  9.23101E-01  1.00279E+00 -7.96891E-02
    9010.799     17.016   2.480  9.03767E-01  1.00451E+00 -1.00742E-01
    9011.561     17.778   2.520  9.00109E-01  1.00595E+00 -1.05839E-01
    9012.335     18.553   2.560  9.20889E-01  1.00716E+00 -8.62687E-02
    9013.122     19.339   2.600  9.57074E-01  1.00810E+00 -5.10308E-02
    9013.920     20.137   2.640  9.84804E-01  1.00884E+00 -2.40322E-02
    9014.731     20.948   2.680  1.00108E+00  1.00936E+00 -8.28251E-03
    9015.554     21.771   2.720  1.01192E+00  1.00969E+00  2.23234E-03
    9016.389     22.606   2.760  1.01850E+00  1.00986E+00  8.63891E-03
    9017.237     23.454   2.800  1.01921E+00  1.00986E+00  9.34773E-03
    9018.096     24.313   2.840  1.01305E+00  1.00972E+00  3.33037E-03
    9018.968     25.185   2.880  1.00109E+00  1.00945E+00 -8.35527E-03
    9019.852     26.069   2.920  9.85602E-01  1.00903E+00 -2.34308E-02
    9020.748     26.965   2.960  9.69301E-01  1.00855E+00 -3.92458E-02
    9021.656     27.873   3.000  9.54561E-01  1.00795E+00 -5.33916E-02
    9022.577     28.794   3.040  9.42890E-01  1.00727E+00 -6.43843E-02
    9023.509     29.726   3.080  9.35239E-01  1.00654E+00 -7.13036E-02
    9024.454     30.671   3.120  9.31905E-01  1.00574E+00 -7.38334E-02
    9025.411     31.628   3.160  9.32275E-01  1.00489E+00 -7.26140E-02
    9026.381     32.598   3.200  9.35382E-01  1.00400E+00 -6.86174E-02
    9027.362     33.579   3.240  9.40443E-01  1.00309E+00 -6.26509E-02
    9028.356     34.573   3.280  9.46616E-01  1.00216E+00 -5.55424E-02
    9029.361     35.579   3.320  9.53380E-01  1.00122E+00 -4.78355E-02
    9030.379     36.597   3.360  9.60386E-01  1.00027E+00 -3.98832E-02
    9031.410     37.627   3.400  9.67408E-01  9.99323E-01 -3.19145E-02
    9032.452     38.669   3.440  9.74238E-01  9.98380E-01 -2.41418E-02
    9033.507     39.724   3.480  9.80754E-01  9.97464E-01 -1.67097E-02
    9034.573     40.791   3.520  9.86707E-01  9.96558E-01 -9.85037E-03
    9035.652     41.870   3.560  9.91739E-01  9.95683E-01 -3.94455E-03
    9036.744     42.961   3.600  9.95634E-01  9.94843E-01  7.90883E-04
    9037.847     44.064   3.640  9.98173E-01  9.94019E-01  4.15438E-03
    9038.963     45.180   3.680  9.99136E-01  9.93253E-01  5.88259E-03
    9040.090     46.307   3.720  9.98282E-01  9.92507E-01  5.77491E-03
    9041.230     47.447   3.760  9.95660E-01  9.91822E-01  3.83706E-03
    9042.382     48.600   3.800  9.91547E-01  9.91182E-01  3.64423E-04
    9043.547     49.764   3.840  9.86499E-01  9.90586E-01 -4.08758E-03
    9044.723     50.940   3.880  9.81363E-01  9.90055E-01 -8.69250E-03
    9045.912     52.129   3.920  9.77346E-01  9.89570E-01 -1.22239E-02
    9047.113     53.330   3.960  9.75909E-01  9.89128E-01 -1.32191E-02
    9048.326     54.543   4.000  9.78433E-01  9.88731E-01 -1.02979E-02
    9049.551     55.768   4.040  9.85782E-01  9.88402E-01 -2.61980E-03
    9050.789     57.006   4.080  9.97741E-01  9.88120E-01  9.62077E-03
    9052.038     58.256   4.120  1.01301E+00  9.87904E-01  2.51043E-02
    9053.300     59.517   4.160  1.02946E+00  9.87712E-01  4.17446E-02
    9054.574     60.792   4.200  1.04496E+00  9.87607E-01  5.73536E-02
    9055.861     62.078   4.240  1.05767E+00  9.87525E-01  7.01459E-02
    9057.159     63.376   4.280  1.06634E+00  9.87486E-01  7.88587E-02
    9058.470     64.687   4.320  1.07022E+00  9.87512E-01  8.27084E-02
    9059.793     66.010   4.360  1.06900E+00  9.87581E-01  8.14240E-02
    9061.128     67.345   4.400  1.06309E+00  9.87691E-01  7.53981E-02
    9062.475     68.692   4.440  1.05366E+00  9.87841E-01  6.58174E-02
    9063.834     70.051   4.480  1.04234E+00  9.88030E-01  5.43095E-02
    9065.206     71.423   4.520  1.03078E+00  9.88259E-01  4.25257E-02
    9066.590     72.807   4.560  1.02029E+00  9.88525E-01  3.17601E-02
    9067.986     74.203   4.600  1.01155E+00  9.88826E-01  2.27188E-02
    9069.394     75.611   4.640  1.00473E+00  9.89140E-01  1.55884E-02
    9070.814     77.031   4.680  9.99705E-01  9.89487E-01  1.02184E-02
    9072.247     78.464   4.720  9.96077E-01  9.89865E-01  6.21151E-03
    9073.691     79.908   4.760  9.93227E-01  9.90252E-01  2.97507E-03
    9075.148     81.365   4.800  9.90472E-01  9.90646E-01 -1.73899E-04
    9076.617     82.835   4.840  9.87233E-01  9.91068E-01 -3.83476E-03
    9078.099     84.316   4.880  9.83121E-01  9.91517E-01 -8.39537E-03
    9079.592     85.809   4.920  9.77780E-01  9.91946E-01 -1.41657E-02
    9081.098     87.315   4.960  9.70935E-01  9.92375E-01 -2.14396E-02
    9082.616     88.833   5.000  9.62563E-01  9.92825E-01 -3.02627E-02
    9084.146     90.363   5.040  9.53038E-01  9.93255E-01 -4.02173E-02
    9085.688     91.905   5.080  9.43240E-01  9.93704E-01 -5.04642E-02
    9087.243     93.460   5.120  9.34129E-01  9.94127E-01 -5.99975E-02
    9088.809     95.027   5.160  9.26743E-01  9.94543E-01 -6.77993E-02
    9090.388     96.605   5.200  9.22064E-01  9.94931E-01 -7.28667E-02
    9091.979     98.196   5.240  9.20997E-01  9.95332E-01 -7.43345E-02
    9093.583     99.800   5.280  9.24016E-01  9.95681E-01 -7.16654E-02
    9095.198    101.415   5.320  9.31178E-01  9.96042E-01 -6.48634E-02
    9096.826    103.043   5.360  9.41963E-01  9.96346E-01 -5.43828E-02
    9098.465    104.683   5.400  9.55625E-01  9.96637E-01 -4.10119E-02
    9100.117    106.335   5.440  9.71121E-01  9.96894E-01 -2.57737E-02
    9101.782    107.999   5.480  9.87256E-01  9.97140E-01 -9.88360E-03
    9103.458    109.675   5.520  1.00277E+00  9.97349E-01  5.42421E-03
    9105.147    111.364   5.560  1.01662E+00  9.97519E-01  1.91019E-02
    9106.847    113.065   5.600  1.02807E+00  9.97650E-01  3.04202E-02
    9108.560    114.777   5.640  1.03666E+00  9.97742E-01  3.89166E-02
    9110.285    116.503   5.680  1.04210E+00  9.97796E-01  4.43041E-02
    9112.023    118.240   5.720  1.04421E+00  9.97834E-01  4.63791E-02
    9113.772    119.990   5.760  1.04280E+00  9.97811E-01  4.49907E-02
    9115.534    121.751   5.800  1.03799E+00  9.97772E-01  4.02138E-02
    9117.308    123.525   5.840  1.03032E+00  9.97671E-01  3.26533E-02
    9119.094    125.311   5.880  1.02108E+00  9.97553E-01  2.35279E-02
    9120.892    127.110   5.920  1.01169E+00  9.97374E-01  1.43198E-02
    9122.703    128.920   5.960  1.00341E+00  9.97181E-01  6.23360E-03
    9124.526    130.743   6.000  9.96751E-01  9.96927E-01 -1.76618E-04
