# # comment:                                                     FEFF 9.9.1  
# # Source:
# # Structure
# # Reduced
# # space
# # abc:
# # angles:
# # sites:
# # POT  SCF 100  7.0000   0, screened core-hole, AFOLP (folp(0)= 1.150)
# # Abs   Z=29 Rmt= 1.224 Rnm= 1.333 K  shell
# # Pot 1 Z=29 Rmt= 1.235 Rnm= 1.342
# # Pot 2 Z=83 Rmt= 1.615 Rnm= 1.703
# # Pot 3 Z=33 Rmt= 1.071 Rnm= 1.292
# # Pot 4 Z= 8 Rmt= 1.033 Rnm= 1.114
# # Gam_ch=1.729E+00 H-L exch Vi= 0.000E+00 Vr= 0.000E+00
# # Mu=-6.011E+00eV kf=2.158E+00 Vint=-1.487E+01eV Rs_int= 1.680
# FMS rfms= 9.0000
# # PATH  Rmax=-1.000,  Keep_limit= 0.00, Heap_limit 0.00  Pwcrit= 2.50%
#  S02=0.950  Temp=   0.00  Debye_temp=   0.00  Global_sig2= 0.00000
#  Energy zero shift, vr, vi    0.00000E+00   0.00000E+00
#  Curved wave amplitude ratio filter   4.000%
#     file         sig2 tot  cw amp ratio   deg  nlegs   reff  inp sig2
#     0/   0 paths used
#  xsedge+ 50, used to normalize mu           2.4474E-04
#  -----------------------------------------------------------------------
#  omega    e    k    mu    mu0     chi     @#
    8983.358     -9.821  -1.000  4.21402E-02  5.61617E-02 -1.40215E-02
    8983.656     -9.522  -0.960  4.46583E-02  6.02954E-02 -1.56371E-02
    8983.943     -9.236  -0.920  4.74163E-02  6.48926E-02 -1.74763E-02
    8984.217     -8.961  -0.880  5.04474E-02  7.00216E-02 -1.95742E-02
    8984.479     -8.699  -0.840  5.37909E-02  7.57621E-02 -2.19712E-02
    8984.729     -8.449  -0.800  5.74922E-02  8.22065E-02 -2.47143E-02
    8984.967     -8.212  -0.760  6.16036E-02  8.94608E-02 -2.78572E-02
    8985.193     -7.986  -0.720  6.61843E-02  9.76447E-02 -3.14604E-02
    8985.406     -7.773  -0.680  7.12999E-02  1.06890E-01 -3.55904E-02
    8985.607     -7.572  -0.640  7.70195E-02  1.17337E-01 -4.03172E-02
    8985.796     -7.383  -0.600  8.34112E-02  1.29121E-01 -4.57097E-02
    8985.973     -7.206  -0.560  9.05327E-02  1.42360E-01 -5.18270E-02
    8986.137     -7.041  -0.520  9.84175E-02  1.57123E-01 -5.87053E-02
    8986.290     -6.889  -0.480  1.07055E-01  1.73395E-01 -6.63400E-02
    8986.430     -6.749  -0.440  1.16369E-01  1.91034E-01 -7.46647E-02
    8986.558     -6.621  -0.400  1.26197E-01  2.09731E-01 -8.35336E-02
    8986.674     -6.505  -0.360  1.36287E-01  2.29003E-01 -9.27158E-02
    8986.777     -6.401  -0.320  1.46313E-01  2.48222E-01 -1.01909E-01
    8986.869     -6.310  -0.280  1.55913E-01  2.66690E-01 -1.10777E-01
    8986.948     -6.230  -0.240  1.64746E-01  2.83737E-01 -1.18991E-01
    8987.015     -6.163  -0.200  1.72528E-01  2.98801E-01 -1.26273E-01
    8987.070     -6.109  -0.160  1.79056E-01  3.11472E-01 -1.32416E-01
    8987.113     -6.066  -0.120  1.84209E-01  3.21487E-01 -1.37278E-01
    8987.143     -6.035  -0.080  1.87922E-01  3.28702E-01 -1.40780E-01
    8987.168     -6.011   0.000  1.90916E-01  3.34498E-01 -1.43582E-01
    8987.222     -5.956   0.120  1.97432E-01  3.47567E-01 -1.50135E-01
    8987.265     -5.913   0.160  2.02474E-01  3.57715E-01 -1.55241E-01
    8987.320     -5.859   0.200  2.08902E-01  3.70687E-01 -1.61786E-01
    8987.387     -5.792   0.240  2.16563E-01  3.86265E-01 -1.69702E-01
    8987.466     -5.712   0.280  2.25279E-01  4.04155E-01 -1.78876E-01
    8987.558     -5.621   0.320  2.34806E-01  4.23899E-01 -1.89093E-01
    8987.661     -5.517   0.360  2.44803E-01  4.44907E-01 -2.00104E-01
    8987.777     -5.401   0.400  2.54925E-01  4.66554E-01 -2.11629E-01
    8987.905     -5.273   0.440  2.64931E-01  4.88306E-01 -2.23375E-01
    8988.045     -5.133   0.480  2.74693E-01  5.09695E-01 -2.35002E-01
    8988.198     -4.981   0.520  2.84285E-01  5.30467E-01 -2.46182E-01
    8988.362     -4.816   0.560  2.93879E-01  5.50435E-01 -2.56556E-01
    8988.539     -4.639   0.600  3.03916E-01  5.69625E-01 -2.65709E-01
    8988.728     -4.450   0.640  3.14868E-01  5.88036E-01 -2.73168E-01
    8988.929     -4.249   0.680  3.27469E-01  6.05765E-01 -2.78296E-01
    8989.143     -4.036   0.720  3.42496E-01  6.22924E-01 -2.80428E-01
    8989.368     -3.810   0.760  3.60358E-01  6.39563E-01 -2.79205E-01
    8989.606     -3.573   0.800  3.80595E-01  6.55803E-01 -2.75208E-01
    8989.856     -3.323   0.840  4.01269E-01  6.71691E-01 -2.70422E-01
    8990.118     -3.061   0.880  4.19051E-01  6.87279E-01 -2.68228E-01
    8990.392     -2.786   0.920  4.31213E-01  7.02605E-01 -2.71392E-01
    8990.679     -2.500   0.960  4.38480E-01  7.17696E-01 -2.79215E-01
    8990.978     -2.201   1.000  4.45057E-01  7.32543E-01 -2.87486E-01
    8991.289     -1.890   1.040  4.55609E-01  7.47174E-01 -2.91565E-01
    8991.612     -1.567   1.080  4.72390E-01  7.61565E-01 -2.89176E-01
    8991.947     -1.232   1.120  4.92931E-01  7.75707E-01 -2.82776E-01
    8992.294     -0.884   1.160  5.12043E-01  7.89586E-01 -2.77543E-01
    8992.654     -0.525   1.200  5.29362E-01  8.03184E-01 -2.73822E-01
    8993.026     -0.153   1.240  5.50147E-01  8.16480E-01 -2.66333E-01
    8993.410      0.231   1.280  5.77386E-01  8.29429E-01 -2.52043E-01
    8993.806      0.628   1.320  6.07124E-01  8.42048E-01 -2.34923E-01
    8994.215      1.036   1.360  6.31897E-01  8.54270E-01 -2.22372E-01
    8994.635      1.457   1.400  6.53159E-01  8.66090E-01 -2.12931E-01
    8995.068      1.889   1.440  6.82884E-01  8.77502E-01 -1.94618E-01
    8995.513      2.334   1.480  7.31351E-01  8.88459E-01 -1.57108E-01
    8995.970      2.792   1.520  8.00881E-01  8.98955E-01 -9.80738E-02
    8996.440      3.261   1.560  8.79806E-01  9.08986E-01 -2.91799E-02
    8996.921      3.743   1.600  9.48340E-01  9.18529E-01  2.98110E-02
    8997.415      4.236   1.640  9.99854E-01  9.27562E-01  7.22911E-02
    8997.921      4.742   1.680  1.04127E+00  9.36126E-01  1.05142E-01
    8998.439      5.260   1.720  1.07594E+00  9.44156E-01  1.31783E-01
    8998.969      5.791   1.760  1.11359E+00  9.51695E-01  1.61899E-01
    8999.512      6.333   1.800  1.17005E+00  9.58727E-01  2.11326E-01
    9000.067      6.888   1.840  1.24610E+00  9.65274E-01  2.80831E-01
    9000.634      7.455   1.880  1.32712E+00  9.71321E-01  3.55800E-01
    9001.213      8.034   1.920  1.38833E+00  9.76873E-01  4.11455E-01
    9001.804      8.625   1.960  1.40782E+00  9.81957E-01  4.25863E-01
    9002.408      9.229   2.000  1.39772E+00  9.86600E-01  4.11120E-01
    9003.023      9.845   2.040  1.38325E+00  9.90791E-01  3.92461E-01
    9003.651     10.473   2.080  1.36731E+00  9.94559E-01  3.72746E-01
    9004.291     11.113   2.120  1.34317E+00  9.97912E-01  3.45262E-01
    9004.943     11.765   2.160  1.31146E+00  1.00088E+00  3.10577E-01
    9005.608     12.429   2.200  1.27129E+00  1.00345E+00  2.67838E-01
    9006.285     13.106   2.240  1.22084E+00  1.00570E+00  2.15137E-01
    9006.973     13.795   2.280  1.16555E+00  1.00759E+00  1.57960E-01
    9007.674     14.496   2.320  1.11677E+00  1.00919E+00  1.07580E-01
    9008.388     15.209   2.360  1.08059E+00  1.01049E+00  7.01050E-02
    9009.113     15.935   2.400  1.05726E+00  1.01152E+00  4.57379E-02
    9009.851     16.672   2.440  1.04572E+00  1.01229E+00  3.34344E-02
    9010.601     17.422   2.480  1.03981E+00  1.01283E+00  2.69748E-02
    9011.363     18.184   2.520  1.02901E+00  1.01317E+00  1.58417E-02
    9012.137     18.958   2.560  1.01462E+00  1.01330E+00  1.32350E-03
    9012.923     19.745   2.600  1.00588E+00  1.01326E+00 -7.37806E-03
    9013.722     20.543   2.640  1.00127E+00  1.01305E+00 -1.17802E-02
    9014.532     21.354   2.680  9.95749E-01  1.01271E+00 -1.69655E-02
    9015.355     22.177   2.720  9.88344E-01  1.01225E+00 -2.39086E-02
    9016.191     23.012   2.760  9.79991E-01  1.01167E+00 -3.16818E-02
    9017.038     23.859   2.800  9.72013E-01  1.01102E+00 -3.90117E-02
    9017.897     24.719   2.840  9.65459E-01  1.01027E+00 -4.48145E-02
    9018.769     25.591   2.880  9.60255E-01  1.00947E+00 -4.92110E-02
    9019.653     26.474   2.920  9.55498E-01  1.00859E+00 -5.30919E-02
    9020.549     27.371   2.960  9.50212E-01  1.00769E+00 -5.74794E-02
    9021.457     28.279   3.000  9.43368E-01  1.00676E+00 -6.33892E-02
    9022.378     29.199   3.040  9.34827E-01  1.00579E+00 -7.09627E-02
    9023.311     30.132   3.080  9.25491E-01  1.00484E+00 -7.93450E-02
    9024.256     31.077   3.120  9.16572E-01  1.00386E+00 -8.72899E-02
    9025.213     32.034   3.160  9.08644E-01  1.00289E+00 -9.42450E-02
    9026.182     33.003   3.200  9.01727E-01  1.00196E+00 -1.00236E-01
    9027.163     33.985   3.240  8.95727E-01  1.00103E+00 -1.05302E-01
    9028.157     34.978   3.280  8.90889E-01  1.00015E+00 -1.09259E-01
    9029.163     35.984   3.320  8.87758E-01  9.99282E-01 -1.11524E-01
    9030.181     37.002   3.360  8.87068E-01  9.98454E-01 -1.11386E-01
    9031.211     38.032   3.400  8.89109E-01  9.97669E-01 -1.08560E-01
    9032.253     39.075   3.440  8.93589E-01  9.96947E-01 -1.03359E-01
    9033.308     40.129   3.480  9.00033E-01  9.96271E-01 -9.62381E-02
    9034.375     41.196   3.520  9.08009E-01  9.95643E-01 -8.76340E-02
    9035.454     42.275   3.560  9.17128E-01  9.95083E-01 -7.79548E-02
    9036.545     43.366   3.600  9.27069E-01  9.94571E-01 -6.75026E-02
    9037.648     44.470   3.640  9.37392E-01  9.94131E-01 -5.67384E-02
    9038.764     45.585   3.680  9.47349E-01  9.93741E-01 -4.63913E-02
    9039.892     46.713   3.720  9.56249E-01  9.93422E-01 -3.71733E-02
    9041.032     47.853   3.760  9.63935E-01  9.93176E-01 -2.92416E-02
    9042.184     49.005   3.800  9.70780E-01  9.92981E-01 -2.22008E-02
    9043.348     50.170   3.840  9.77496E-01  9.92834E-01 -1.53380E-02
    9044.525     51.346   3.880  9.84778E-01  9.92759E-01 -7.98098E-03
    9045.713     52.535   3.920  9.92932E-01  9.92757E-01  1.74446E-04
    9046.914     53.736   3.960  1.00180E+00  9.92804E-01  8.99420E-03
    9048.127     54.949   4.000  1.01108E+00  9.92921E-01  1.81614E-02
    9049.353     56.174   4.040  1.02051E+00  9.93085E-01  2.74271E-02
    9050.590     57.412   4.080  1.03003E+00  9.93295E-01  3.67354E-02
    9051.840     58.661   4.120  1.03982E+00  9.93572E-01  4.62465E-02
    9053.102     59.923   4.160  1.05014E+00  9.93893E-01  5.62445E-02
    9054.376     61.197   4.200  1.06091E+00  9.94257E-01  6.66522E-02
    9055.662     62.483   4.240  1.07147E+00  9.94662E-01  7.68052E-02
    9056.960     63.782   4.280  1.08066E+00  9.95106E-01  8.55527E-02
    9058.271     65.092   4.320  1.08725E+00  9.95589E-01  9.16654E-02
    9059.594     66.415   4.360  1.09041E+00  9.96110E-01  9.43038E-02
    9060.929     67.750   4.400  1.09000E+00  9.96667E-01  9.33285E-02
    9062.276     69.098   4.440  1.08664E+00  9.97236E-01  8.94055E-02
    9063.636     70.457   4.480  1.08139E+00  9.97837E-01  8.35559E-02
    9065.007     71.829   4.520  1.07524E+00  9.98468E-01  7.67770E-02
    9066.391     73.212   4.560  1.06886E+00  9.99106E-01  6.97492E-02
    9067.787     74.608   4.600  1.06246E+00  9.99748E-01  6.27150E-02
    9069.195     76.016   4.640  1.05591E+00  1.00039E+00  5.55171E-02
    9070.615     77.437   4.680  1.04889E+00  1.00106E+00  4.78263E-02
    9072.048     78.869   4.720  1.04109E+00  1.00171E+00  3.93831E-02
    9073.493     80.314   4.760  1.03260E+00  1.00237E+00  3.02278E-02
    9074.950     81.771   4.800  1.02373E+00  1.00301E+00  2.07160E-02
    9076.419     83.240   4.840  1.01497E+00  1.00365E+00  1.13194E-02
    9077.900     84.722   4.880  1.00674E+00  1.00427E+00  2.47162E-03
    9079.394     86.215   4.920  9.99340E-01  1.00487E+00 -5.52819E-03
    9080.899     87.721   4.960  9.92953E-01  1.00545E+00 -1.25007E-02
    9082.417     89.239   5.000  9.87700E-01  1.00600E+00 -1.83043E-02
    9083.947     90.769   5.040  9.83660E-01  1.00652E+00 -2.28601E-02
    9085.490     92.311   5.080  9.80781E-01  1.00702E+00 -2.62392E-02
    9087.044     93.865   5.120  9.78809E-01  1.00748E+00 -2.86760E-02
    9088.611     95.432   5.160  9.77343E-01  1.00791E+00 -3.05678E-02
    9090.190     97.011   5.200  9.75914E-01  1.00830E+00 -3.23824E-02
    9091.781     98.602   5.240  9.74069E-01  1.00867E+00 -3.45965E-02
    9093.384    100.205   5.280  9.71522E-01  1.00897E+00 -3.74489E-02
    9094.999    101.821   5.320  9.68548E-01  1.00923E+00 -4.06863E-02
    9096.627    103.448   5.360  9.66002E-01  1.00948E+00 -4.34765E-02
    9098.267    105.088   5.400  9.64798E-01  1.00966E+00 -4.48576E-02
    9099.919    106.740   5.440  9.65424E-01  1.00979E+00 -4.43623E-02
    9101.583    108.404   5.480  9.67515E-01  1.00985E+00 -4.23366E-02
    9103.259    110.081   5.520  9.70258E-01  1.00989E+00 -3.96356E-02
    9104.948    111.769   5.560  9.72781E-01  1.00987E+00 -3.70917E-02
    9106.649    113.470   5.600  9.74761E-01  1.00983E+00 -3.50693E-02
    9108.362    115.183   5.640  9.76291E-01  1.00972E+00 -3.34308E-02
    9110.087    116.908   5.680  9.77840E-01  1.00957E+00 -3.17292E-02
    9111.824    118.646   5.720  9.79851E-01  1.00938E+00 -2.95246E-02
    9113.574    120.395   5.760  9.82512E-01  1.00914E+00 -2.66255E-02
    9115.335    122.157   5.800  9.85511E-01  1.00883E+00 -2.33243E-02
    9117.109    123.931   5.840  9.88130E-01  1.00851E+00 -2.03850E-02
    9118.896    125.717   5.880  9.89472E-01  1.00814E+00 -1.86641E-02
    9120.694    127.515   5.920  9.89236E-01  1.00775E+00 -1.85095E-02
    9122.504    129.326   5.960  9.87901E-01  1.00732E+00 -1.94196E-02
    9124.327    131.148   6.000  9.86659E-01  1.00683E+00 -2.01724E-02
