# # comment:                                                     FEFF 9.9.1  
# # Source:
# # Structure
# # Reduced
# # space
# # abc:
# # angles:
# # sites:
# # POT  SCF 100  7.0000   0, screened core-hole, AFOLP (folp(0)= 1.150)
# # Abs   Z=29 Rmt= 1.233 Rnm= 1.290 K  shell
# # Pot 1 Z= 3 Rmt= 1.224 Rnm= 1.292
# # Pot 2 Z=24 Rmt= 1.237 Rnm= 1.359
# # Pot 3 Z=29 Rmt= 1.232 Rnm= 1.290
# # Pot 4 Z= 8 Rmt= 1.024 Rnm= 1.100
# # Gam_ch=1.729E+00 H-L exch Vi= 0.000E+00 Vr= 0.000E+00
# # Mu=-1.087E+01eV kf=2.177E+00 Vint=-1.852E+01eV Rs_int= 1.666
# FMS rfms= 9.0000
# # PATH  Rmax=-1.000,  Keep_limit= 0.00, Heap_limit 0.00  Pwcrit= 2.50%
#  S02=0.950  Temp=   0.00  Debye_temp=   0.00  Global_sig2= 0.00000
#  Energy zero shift, vr, vi    0.00000E+00   0.00000E+00
#  Curved wave amplitude ratio filter   4.000%
#     file         sig2 tot  cw amp ratio   deg  nlegs   reff  inp sig2
#     0/   0 paths used
#  xsedge+ 50, used to normalize mu           2.4804E-04
#  -----------------------------------------------------------------------
#  omega    e    k    mu    mu0     chi     @#
    8985.034    -14.676  -1.000  2.89597E-02  4.76437E-02 -1.86841E-02
    8985.333    -14.377  -0.960  3.01758E-02  5.09367E-02 -2.07609E-02
    8985.619    -14.091  -0.920  3.14713E-02  5.45824E-02 -2.31111E-02
    8985.893    -13.817  -0.880  3.28566E-02  5.86317E-02 -2.57750E-02
    8986.156    -13.555  -0.840  3.43443E-02  6.31436E-02 -2.87993E-02
    8986.405    -13.305  -0.800  3.59492E-02  6.81865E-02 -3.22372E-02
    8986.643    -13.067  -0.760  3.76890E-02  7.38385E-02 -3.61495E-02
    8986.869    -12.841  -0.720  3.95842E-02  8.01880E-02 -4.06038E-02
    8987.082    -12.628  -0.680  4.16580E-02  8.73319E-02 -4.56739E-02
    8987.283    -12.427  -0.640  4.39357E-02  9.53723E-02 -5.14367E-02
    8987.472    -12.238  -0.600  4.64423E-02  1.04409E-01 -5.79669E-02
    8987.649    -12.061  -0.560  4.91999E-02  1.14528E-01 -6.53277E-02
    8987.814    -11.896  -0.520  5.22211E-02  1.25777E-01 -7.35558E-02
    8987.966    -11.744  -0.480  5.55019E-02  1.38144E-01 -8.26421E-02
    8988.106    -11.604  -0.440  5.90120E-02  1.51521E-01 -9.25089E-02
    8988.234    -11.476  -0.400  6.26873E-02  1.65678E-01 -1.02990E-01
    8988.350    -11.360  -0.360  6.64278E-02  1.80254E-01 -1.13827E-01
    8988.454    -11.256  -0.320  7.01048E-02  1.94783E-01 -1.24678E-01
    8988.545    -11.165  -0.280  7.35788E-02  2.08744E-01 -1.35165E-01
    8988.624    -11.086  -0.240  7.67221E-02  2.21636E-01 -1.44914E-01
    8988.691    -11.019  -0.200  7.94378E-02  2.33037E-01 -1.53599E-01
    8988.746    -10.964  -0.160  8.16686E-02  2.42635E-01 -1.60967E-01
    8988.789    -10.921  -0.120  8.33931E-02  2.50229E-01 -1.66836E-01
    8988.819    -10.891  -0.080  8.46129E-02  2.55705E-01 -1.71092E-01
    8988.844    -10.866   0.000  8.55773E-02  2.60108E-01 -1.74531E-01
    8988.899    -10.811   0.120  8.76380E-02  2.70046E-01 -1.82408E-01
    8988.941    -10.769   0.160  8.91654E-02  2.77780E-01 -1.88614E-01
    8988.996    -10.714   0.200  9.09970E-02  2.87656E-01 -1.96659E-01
    8989.063    -10.647   0.240  9.30394E-02  2.99595E-01 -2.06556E-01
    8989.143    -10.567   0.280  9.51225E-02  3.13341E-01 -2.18218E-01
    8989.234    -10.476   0.320  9.70397E-02  3.28573E-01 -2.31533E-01
    8989.338    -10.372   0.360  9.86597E-02  3.44890E-01 -2.46231E-01
    8989.453    -10.257   0.400  9.99637E-02  3.61883E-01 -2.61919E-01
    8989.581    -10.129   0.440  1.01021E-01  3.79120E-01 -2.78099E-01
    8989.722     -9.988   0.480  1.02177E-01  3.96318E-01 -2.94140E-01
    8989.874     -9.836   0.520  1.03800E-01  4.13263E-01 -3.09463E-01
    8990.039     -9.671   0.560  1.06273E-01  4.29850E-01 -3.23577E-01
    8990.215     -9.495   0.600  1.09841E-01  4.46090E-01 -3.36248E-01
    8990.404     -9.306   0.640  1.14425E-01  4.62007E-01 -3.47582E-01
    8990.606     -9.104   0.680  1.19591E-01  4.77654E-01 -3.58063E-01
    8990.819     -8.891   0.720  1.24638E-01  4.93113E-01 -3.68475E-01
    8991.044     -8.666   0.760  1.28922E-01  5.08424E-01 -3.79503E-01
    8991.282     -8.428   0.800  1.32282E-01  5.23678E-01 -3.91396E-01
    8991.532     -8.178   0.840  1.35201E-01  5.38918E-01 -4.03717E-01
    8991.794     -7.916   0.880  1.38659E-01  5.54154E-01 -4.15495E-01
    8992.069     -7.641   0.920  1.43955E-01  5.69447E-01 -4.25492E-01
    8992.355     -7.355   0.960  1.52171E-01  5.84766E-01 -4.32596E-01
    8992.654     -7.056   1.000  1.64137E-01  6.00134E-01 -4.35997E-01
    8992.965     -6.745   1.040  1.80422E-01  6.15543E-01 -4.35121E-01
    8993.288     -6.422   1.080  2.01170E-01  6.30963E-01 -4.29793E-01
    8993.623     -6.087   1.120  2.24420E-01  6.46417E-01 -4.21997E-01
    8993.971     -5.739   1.160  2.45191E-01  6.61842E-01 -4.16650E-01
    8994.330     -5.380   1.200  2.61182E-01  6.77232E-01 -4.16050E-01
    8994.702     -5.008   1.240  2.80266E-01  6.92539E-01 -4.12272E-01
    8995.086     -4.624   1.280  3.13991E-01  7.07734E-01 -3.93744E-01
    8995.482     -4.228   1.320  3.64516E-01  7.22806E-01 -3.58290E-01
    8995.891     -3.819   1.360  4.20617E-01  7.37699E-01 -3.17083E-01
    8996.311     -3.399   1.400  4.71441E-01  7.52382E-01 -2.80941E-01
    8996.744     -2.966   1.440  5.21757E-01  7.66819E-01 -2.45062E-01
    8997.189     -2.521   1.480  5.79120E-01  7.80976E-01 -2.01856E-01
    8997.646     -2.064   1.520  6.38841E-01  7.94820E-01 -1.55979E-01
    8998.116     -1.594   1.560  6.88668E-01  8.08315E-01 -1.19648E-01
    8998.597     -1.113   1.600  7.27528E-01  8.21452E-01 -9.39240E-02
    8999.091     -0.619   1.640  7.67511E-01  8.34197E-01 -6.66863E-02
    8999.597     -0.113   1.680  8.25474E-01  8.46520E-01 -2.10461E-02
    9000.115      0.405   1.720  9.11687E-01  8.58390E-01  5.32976E-02
    9000.646      0.936   1.760  1.01011E+00  8.69801E-01  1.40308E-01
    9001.188      1.478   1.800  1.10467E+00  8.80745E-01  2.23926E-01
    9001.743      2.033   1.840  1.22597E+00  8.91196E-01  3.34769E-01
    9002.310      2.600   1.880  1.39498E+00  9.01171E-01  4.93809E-01
    9002.889      3.179   1.920  1.55706E+00  9.10627E-01  6.46428E-01
    9003.480      3.770   1.960  1.64186E+00  9.19561E-01  7.22301E-01
    9004.084      4.374   2.000  1.67192E+00  9.27993E-01  7.43929E-01
    9004.699      4.989   2.040  1.69790E+00  9.35926E-01  7.61974E-01
    9005.327      5.617   2.080  1.70811E+00  9.43361E-01  7.64750E-01
    9005.967      6.257   2.120  1.66548E+00  9.50282E-01  7.15201E-01
    9006.620      6.910   2.160  1.54874E+00  9.56732E-01  5.92006E-01
    9007.284      7.574   2.200  1.36787E+00  9.62676E-01  4.05195E-01
    9007.961      8.251   2.240  1.18434E+00  9.68182E-01  2.16158E-01
    9008.650      8.940   2.280  1.04755E+00  9.73216E-01  7.43372E-02
    9009.351      9.641   2.320  9.63081E-01  9.77805E-01 -1.47242E-02
    9010.064     10.354   2.360  9.21558E-01  9.81977E-01 -6.04188E-02
    9010.789     11.079   2.400  9.10902E-01  9.85741E-01 -7.48397E-02
    9011.527     11.817   2.440  9.15479E-01  9.89106E-01 -7.36269E-02
    9012.277     12.567   2.480  9.16507E-01  9.92099E-01 -7.55919E-02
    9013.039     13.329   2.520  9.10745E-01  9.94752E-01 -8.40080E-02
    9013.813     14.103   2.560  9.23971E-01  9.97054E-01 -7.30839E-02
    9014.599     14.889   2.600  9.65574E-01  9.99033E-01 -3.34595E-02
    9015.398     15.688   2.640  9.96748E-01  1.00072E+00 -3.97293E-03
    9016.209     16.499   2.680  1.00508E+00  1.00213E+00  2.95182E-03
    9017.032     17.322   2.720  9.98533E-01  1.00328E+00 -4.74496E-03
    9017.867     18.157   2.760  9.85178E-01  1.00419E+00 -1.90089E-02
    9018.714     19.004   2.800  9.68516E-01  1.00488E+00 -3.63666E-02
    9019.574     19.864   2.840  9.49945E-01  1.00535E+00 -5.54068E-02
    9020.445     20.735   2.880  9.30321E-01  1.00564E+00 -7.53219E-02
    9021.329     21.619   2.920  9.10074E-01  1.00574E+00 -9.56704E-02
    9022.225     22.515   2.960  8.90040E-01  1.00571E+00 -1.15667E-01
    9023.134     23.424   3.000  8.70547E-01  1.00552E+00 -1.34970E-01
    9024.054     24.344   3.040  8.51660E-01  1.00520E+00 -1.53542E-01
    9024.987     25.277   3.080  8.34056E-01  1.00479E+00 -1.70734E-01
    9025.932     26.222   3.120  8.18696E-01  1.00427E+00 -1.85570E-01
    9026.889     27.179   3.160  8.06409E-01  1.00366E+00 -1.97249E-01
    9027.858     28.148   3.200  7.97765E-01  1.00297E+00 -2.05207E-01
    9028.840     29.130   3.240  7.93105E-01  1.00223E+00 -2.09128E-01
    9029.833     30.123   3.280  7.92546E-01  1.00143E+00 -2.08881E-01
    9030.839     31.129   3.320  7.96557E-01  1.00060E+00 -2.04043E-01
    9031.857     32.147   3.360  8.05434E-01  9.99736E-01 -1.94302E-01
    9032.887     33.177   3.400  8.18588E-01  9.98839E-01 -1.80251E-01
    9033.930     34.220   3.440  8.34756E-01  9.97935E-01 -1.63178E-01
    9034.984     35.274   3.480  8.52634E-01  9.97026E-01 -1.44392E-01
    9036.051     36.341   3.520  8.71316E-01  9.96116E-01 -1.24801E-01
    9037.130     37.420   3.560  8.90853E-01  9.95208E-01 -1.04355E-01
    9038.221     38.511   3.600  9.12244E-01  9.94306E-01 -8.20616E-02
    9039.325     39.615   3.640  9.36543E-01  9.93433E-01 -5.68895E-02
    9040.440     40.730   3.680  9.64010E-01  9.92593E-01 -2.85831E-02
    9041.568     41.858   3.720  9.94004E-01  9.91788E-01  2.21592E-03
    9042.708     42.998   3.760  1.02536E+00  9.90997E-01  3.43647E-02
    9043.860     44.150   3.800  1.05664E+00  9.90243E-01  6.64018E-02
    9045.024     45.314   3.840  1.08645E+00  9.89528E-01  9.69256E-02
    9046.201     46.491   3.880  1.11365E+00  9.88875E-01  1.24773E-01
    9047.390     47.680   3.920  1.13736E+00  9.88243E-01  1.49117E-01
    9048.590     48.880   3.960  1.15714E+00  9.87674E-01  1.69467E-01
    9049.804     50.094   4.000  1.17299E+00  9.87149E-01  1.85844E-01
    9051.029     51.319   4.040  1.18497E+00  9.86666E-01  1.98303E-01
    9052.266     52.556   4.080  1.19297E+00  9.86227E-01  2.06739E-01
    9053.516     53.806   4.120  1.19633E+00  9.85851E-01  2.10482E-01
    9054.778     55.068   4.160  1.19366E+00  9.85501E-01  2.08161E-01
    9056.052     56.342   4.200  1.18314E+00  9.85237E-01  1.97905E-01
    9057.338     57.628   4.240  1.16356E+00  9.84997E-01  1.78561E-01
    9058.637     58.927   4.280  1.13570E+00  9.84822E-01  1.50875E-01
    9059.947     60.237   4.320  1.10237E+00  9.84690E-01  1.17676E-01
    9061.270     61.560   4.360  1.06744E+00  9.84601E-01  8.28369E-02
    9062.605     62.895   4.400  1.03445E+00  9.84552E-01  4.98947E-02
    9063.952     64.242   4.440  1.00565E+00  9.84545E-01  2.11030E-02
    9065.312     65.602   4.480  9.81903E-01  9.84600E-01 -2.69762E-03
    9066.683     66.973   4.520  9.63048E-01  9.84674E-01 -2.16259E-02
    9068.067     68.357   4.560  9.48485E-01  9.84788E-01 -3.63028E-02
    9069.463     69.753   4.600  9.37463E-01  9.84960E-01 -4.74975E-02
    9070.871     71.161   4.640  9.29202E-01  9.85149E-01 -5.59466E-02
    9072.292     72.582   4.680  9.23132E-01  9.85373E-01 -6.22406E-02
    9073.724     74.014   4.720  9.18765E-01  9.85631E-01 -6.68657E-02
    9075.169     75.459   4.760  9.15803E-01  9.85899E-01 -7.00958E-02
    9076.626     76.916   4.800  9.14151E-01  9.86198E-01 -7.20471E-02
    9078.095     78.385   4.840  9.13732E-01  9.86507E-01 -7.27751E-02
    9079.576     79.866   4.880  9.14648E-01  9.86847E-01 -7.21989E-02
    9081.070     81.360   4.920  9.16994E-01  9.87214E-01 -7.02204E-02
    9082.576     82.866   4.960  9.20604E-01  9.87565E-01 -6.69609E-02
    9084.093     84.383   5.000  9.25069E-01  9.87940E-01 -6.28711E-02
    9085.624     85.914   5.040  9.29730E-01  9.88318E-01 -5.85878E-02
    9087.166     87.456   5.080  9.34105E-01  9.88696E-01 -5.45909E-02
    9088.720     89.010   5.120  9.38153E-01  9.89073E-01 -5.09199E-02
    9090.287     90.577   5.160  9.42470E-01  9.89450E-01 -4.69794E-02
    9091.866     92.156   5.200  9.48153E-01  9.89824E-01 -4.16705E-02
    9093.457     93.747   5.240  9.56133E-01  9.90192E-01 -3.40592E-02
    9095.060     95.350   5.280  9.66455E-01  9.90533E-01 -2.40786E-02
    9096.676     96.966   5.320  9.78030E-01  9.90868E-01 -1.28382E-02
    9098.303     98.593   5.360  9.89322E-01  9.91195E-01 -1.87357E-03
    9099.943    100.233   5.400  9.99193E-01  9.91492E-01  7.70112E-03
    9101.595    101.885   5.440  1.00716E+00  9.91777E-01  1.53788E-02
    9103.259    103.549   5.480  1.01280E+00  9.92029E-01  2.07671E-02
    9104.936    105.226   5.520  1.01558E+00  9.92247E-01  2.33287E-02
    9106.624    106.914   5.560  1.01493E+00  9.92453E-01  2.24776E-02
    9108.325    108.615   5.600  1.01062E+00  9.92626E-01  1.79944E-02
    9110.038    110.328   5.640  1.00314E+00  9.92785E-01  1.03552E-02
    9111.763    112.053   5.680  9.93511E-01  9.92884E-01  6.27337E-04
    9113.500    113.790   5.720  9.82793E-01  9.92968E-01 -1.01752E-02
    9115.250    115.540   5.760  9.71504E-01  9.93017E-01 -2.15131E-02
    9117.012    117.302   5.800  9.60021E-01  9.93029E-01 -3.30089E-02
    9118.786    119.076   5.840  9.49262E-01  9.93027E-01 -4.37650E-02
    9120.572    120.862   5.880  9.40743E-01  9.92963E-01 -5.22204E-02
    9122.370    122.660   5.920  9.36003E-01  9.92861E-01 -5.68575E-02
    9124.181    124.471   5.960  9.35992E-01  9.92745E-01 -5.67523E-02
    9126.003    126.293   6.000  9.41438E-01  9.92572E-01 -5.11340E-02
