# # comment:                                                     FEFF 9.9.1  
# # Source:
# # Structure
# # Reduced
# # space
# # abc:
# # angles:
# # sites:
# # POT  SCF 100  7.0000   0, screened core-hole, AFOLP (folp(0)= 1.150)
# # Abs   Z=29 Rmt= 1.272 Rnm= 1.351 K  shell
# # Pot 1 Z=11 Rmt= 1.608 Rnm= 1.654
# # Pot 2 Z=29 Rmt= 1.262 Rnm= 1.350
# # Pot 3 Z=33 Rmt= 1.085 Rnm= 1.288
# # Pot 4 Z= 8 Rmt= 0.984 Rnm= 1.079
# # Gam_ch=1.729E+00 H-L exch Vi= 0.000E+00 Vr= 0.000E+00
# # Mu=-5.830E+00eV kf=2.194E+00 Vint=-1.574E+01eV Rs_int= 1.653
# FMS rfms= 9.0000
# # PATH  Rmax=-1.000,  Keep_limit= 0.00, Heap_limit 0.00  Pwcrit= 2.50%
#  S02=0.950  Temp=   0.00  Debye_temp=   0.00  Global_sig2= 0.00000
#  Energy zero shift, vr, vi    0.00000E+00   0.00000E+00
#  Curved wave amplitude ratio filter   4.000%
#     file         sig2 tot  cw amp ratio   deg  nlegs   reff  inp sig2
#     0/   0 paths used
#  xsedge+ 50, used to normalize mu           2.4562E-04
#  -----------------------------------------------------------------------
#  omega    e    k    mu    mu0     chi     @#
    8983.616     -9.640  -1.000  4.92539E-02  5.85446E-02 -9.29077E-03
    8983.915     -9.341  -0.960  5.24233E-02  6.29452E-02 -1.05219E-02
    8984.201     -9.055  -0.920  5.59022E-02  6.78478E-02 -1.19456E-02
    8984.476     -8.781  -0.880  5.97316E-02  7.33275E-02 -1.35960E-02
    8984.738     -8.518  -0.840  6.39584E-02  7.94718E-02 -1.55133E-02
    8984.988     -8.269  -0.800  6.86364E-02  8.63820E-02 -1.77456E-02
    8985.225     -8.031  -0.760  7.38257E-02  9.41747E-02 -2.03490E-02
    8985.451     -7.805  -0.720  7.95929E-02  1.02982E-01 -2.33890E-02
    8985.664     -7.592  -0.680  8.60097E-02  1.12949E-01 -2.69390E-02
    8985.866     -7.391  -0.640  9.31501E-02  1.24229E-01 -3.10790E-02
    8986.055     -7.202  -0.600  1.01085E-01  1.36974E-01 -3.58894E-02
    8986.231     -7.025  -0.560  1.09873E-01  1.51314E-01 -4.14408E-02
    8986.396     -6.860  -0.520  1.19548E-01  1.67325E-01 -4.77772E-02
    8986.548     -6.708  -0.480  1.30102E-01  1.84994E-01 -5.48918E-02
    8986.689     -6.568  -0.440  1.41464E-01  2.04164E-01 -6.27002E-02
    8986.817     -6.440  -0.400  1.53480E-01  2.24498E-01 -7.10183E-02
    8986.932     -6.324  -0.360  1.65907E-01  2.45467E-01 -7.95599E-02
    8987.036     -6.220  -0.320  1.78417E-01  2.66381E-01 -8.79642E-02
    8987.127     -6.129  -0.280  1.90623E-01  2.86476E-01 -9.58539E-02
    8987.207     -6.050  -0.240  2.02116E-01  3.05019E-01 -1.02903E-01
    8987.274     -5.983  -0.200  2.12510E-01  3.21398E-01 -1.08887E-01
    8987.329     -5.928  -0.160  2.21467E-01  3.35166E-01 -1.13699E-01
    8987.371     -5.885  -0.120  2.28717E-01  3.46043E-01 -1.17325E-01
    8987.402     -5.855  -0.080  2.34062E-01  3.53873E-01 -1.19811E-01
    8987.426     -5.830   0.000  2.38491E-01  3.60160E-01 -1.21669E-01
    8987.481     -5.775   0.120  2.48286E-01  3.74340E-01 -1.26054E-01
    8987.524     -5.733   0.160  2.56056E-01  3.85337E-01 -1.29280E-01
    8987.579     -5.678   0.200  2.66247E-01  3.99366E-01 -1.33119E-01
    8987.646     -5.611   0.240  2.78952E-01  4.16202E-01 -1.37250E-01
    8987.725     -5.531   0.280  2.94274E-01  4.35507E-01 -1.41233E-01
    8987.816     -5.440   0.320  3.12126E-01  4.56720E-01 -1.44594E-01
    8987.920     -5.336   0.360  3.32371E-01  4.79218E-01 -1.46847E-01
    8988.036     -5.221   0.400  3.54598E-01  5.02299E-01 -1.47701E-01
    8988.164     -5.093   0.440  3.78143E-01  5.25321E-01 -1.47178E-01
    8988.304     -4.952   0.480  4.02089E-01  5.47803E-01 -1.45714E-01
    8988.456     -4.800   0.520  4.25272E-01  5.69438E-01 -1.44166E-01
    8988.621     -4.635   0.560  4.46321E-01  5.90043E-01 -1.43722E-01
    8988.798     -4.459   0.600  4.63775E-01  6.09603E-01 -1.45827E-01
    8988.987     -4.270   0.640  4.76145E-01  6.28184E-01 -1.52039E-01
    8989.188     -4.068   0.680  4.82112E-01  6.45859E-01 -1.63747E-01
    8989.401     -3.855   0.720  4.81075E-01  6.62735E-01 -1.81659E-01
    8989.627     -3.629   0.760  4.73711E-01  6.78919E-01 -2.05208E-01
    8989.865     -3.392   0.800  4.62451E-01  6.94548E-01 -2.32097E-01
    8990.114     -3.142   0.840  4.50848E-01  7.09644E-01 -2.58796E-01
    8990.377     -2.880   0.880  4.42496E-01  7.24333E-01 -2.81837E-01
    8990.651     -2.605   0.920  4.39527E-01  7.38625E-01 -2.99098E-01
    8990.937     -2.319   0.960  4.42553E-01  7.52556E-01 -3.10003E-01
    8991.236     -2.020   1.000  4.51924E-01  7.66172E-01 -3.14248E-01
    8991.547     -1.709   1.040  4.68648E-01  7.79489E-01 -3.10841E-01
    8991.870     -1.386   1.080  4.94045E-01  7.92490E-01 -2.98445E-01
    8992.205     -1.051   1.120  5.29632E-01  8.05177E-01 -2.75544E-01
    8992.553     -0.703   1.160  5.77510E-01  8.17561E-01 -2.40051E-01
    8992.913     -0.344   1.200  6.40203E-01  8.29614E-01 -1.89411E-01
    8993.284      0.028   1.240  7.19301E-01  8.41339E-01 -1.22039E-01
    8993.668      0.412   1.280  8.14117E-01  8.52721E-01 -3.86035E-02
    8994.065      0.808   1.320  9.18938E-01  8.63740E-01  5.51978E-02
    8994.473      1.217   1.360  1.01725E+00  8.74378E-01  1.42869E-01
    8994.894      1.637   1.400  1.09073E+00  8.84611E-01  2.06115E-01
    8995.327      2.070   1.440  1.14248E+00  8.94459E-01  2.48025E-01
    8995.772      2.515   1.480  1.18412E+00  9.03882E-01  2.80237E-01
    8996.229      2.972   1.520  1.21436E+00  9.12879E-01  3.01486E-01
    8996.698      3.442   1.560  1.22753E+00  9.21446E-01  3.06086E-01
    8997.180      3.923   1.600  1.22276E+00  9.29567E-01  2.93190E-01
    8997.673      4.417   1.640  1.20468E+00  9.37263E-01  2.67415E-01
    8998.179      4.923   1.680  1.18232E+00  9.44492E-01  2.37825E-01
    8998.698      5.441   1.720  1.16690E+00  9.51299E-01  2.15598E-01
    8999.228      5.972   1.760  1.16688E+00  9.57645E-01  2.09236E-01
    8999.770      6.514   1.800  1.18207E+00  9.63554E-01  2.18518E-01
    9000.325      7.069   1.840  1.20642E+00  9.69032E-01  2.37385E-01
    9000.892      7.636   1.880  1.23405E+00  9.74104E-01  2.59944E-01
    9001.471      8.215   1.920  1.26042E+00  9.78735E-01  2.81681E-01
    9002.063      8.806   1.960  1.28069E+00  9.82993E-01  2.97699E-01
    9002.666      9.410   2.000  1.29085E+00  9.86845E-01  3.04001E-01
    9003.282     10.025   2.040  1.28972E+00  9.90319E-01  2.99400E-01
    9003.910     10.653   2.080  1.27766E+00  9.93444E-01  2.84212E-01
    9004.550     11.293   2.120  1.25560E+00  9.96228E-01  2.59373E-01
    9005.202     11.946   2.160  1.22566E+00  9.98677E-01  2.26979E-01
    9005.866     12.610   2.200  1.19022E+00  1.00080E+00  1.89415E-01
    9006.543     13.287   2.240  1.15048E+00  1.00266E+00  1.47820E-01
    9007.232     13.976   2.280  1.10595E+00  1.00422E+00  1.01726E-01
    9007.933     14.677   2.320  1.05765E+00  1.00554E+00  5.21161E-02
    9008.646     15.390   2.360  1.00939E+00  1.00660E+00  2.78531E-03
    9009.372     16.115   2.400  9.65101E-01  1.00745E+00 -4.23493E-02
    9010.109     16.853   2.440  9.28209E-01  1.00809E+00 -7.98807E-02
    9010.859     17.603   2.480  9.03495E-01  1.00853E+00 -1.05035E-01
    9011.621     18.365   2.520  8.92329E-01  1.00882E+00 -1.16490E-01
    9012.395     19.139   2.560  8.90321E-01  1.00893E+00 -1.18604E-01
    9013.182     19.925   2.600  8.94832E-01  1.00892E+00 -1.14086E-01
    9013.980     20.724   2.640  9.01820E-01  1.00876E+00 -1.06943E-01
    9014.791     21.535   2.680  9.06531E-01  1.00851E+00 -1.01979E-01
    9015.614     22.358   2.720  9.08886E-01  1.00814E+00 -9.92563E-02
    9016.449     23.193   2.760  9.09933E-01  1.00769E+00 -9.77557E-02
    9017.296     24.040   2.800  9.11021E-01  1.00718E+00 -9.61555E-02
    9018.156     24.900   2.840  9.13259E-01  1.00659E+00 -9.33328E-02
    9019.028     25.771   2.880  9.17208E-01  1.00596E+00 -8.87510E-02
    9019.912     26.655   2.920  9.22824E-01  1.00529E+00 -8.24613E-02
    9020.808     27.551   2.960  9.29573E-01  1.00460E+00 -7.50238E-02
    9021.716     28.460   3.000  9.36232E-01  1.00387E+00 -6.76415E-02
    9022.636     29.380   3.040  9.41448E-01  1.00314E+00 -6.16952E-02
    9023.569     30.313   3.080  9.44495E-01  1.00239E+00 -5.78919E-02
    9024.514     31.258   3.120  9.45449E-01  1.00165E+00 -5.62042E-02
    9025.471     32.215   3.160  9.44958E-01  1.00094E+00 -5.59847E-02
    9026.440     33.184   3.200  9.44030E-01  1.00022E+00 -5.61878E-02
    9027.422     34.166   3.240  9.43800E-01  9.99523E-01 -5.57235E-02
    9028.415     35.159   3.280  9.45012E-01  9.98861E-01 -5.38488E-02
    9029.421     36.165   3.320  9.48017E-01  9.98234E-01 -5.02171E-02
    9030.439     37.183   3.360  9.52846E-01  9.97645E-01 -4.47984E-02
    9031.470     38.213   3.400  9.59192E-01  9.97073E-01 -3.78811E-02
    9032.512     39.256   3.440  9.66593E-01  9.96560E-01 -2.99676E-02
    9033.567     40.310   3.480  9.74582E-01  9.96089E-01 -2.15067E-02
    9034.633     41.377   3.520  9.82815E-01  9.95659E-01 -1.28441E-02
    9035.712     42.456   3.560  9.91009E-01  9.95272E-01 -4.26257E-03
    9036.804     43.547   3.600  9.99077E-01  9.94929E-01  4.14807E-03
    9037.907     44.651   3.640  1.00710E+00  9.94651E-01  1.24457E-02
    9039.022     45.766   3.680  1.01501E+00  9.94416E-01  2.05914E-02
    9040.150     46.894   3.720  1.02265E+00  9.94225E-01  2.84233E-02
    9041.290     48.034   3.760  1.02970E+00  9.94078E-01  3.56198E-02
    9042.442     49.186   3.800  1.03569E+00  9.93995E-01  4.16995E-02
    9043.607     50.350   3.840  1.04010E+00  9.93935E-01  4.61665E-02
    9044.783     51.527   3.880  1.04276E+00  9.93940E-01  4.88196E-02
    9045.972     52.716   3.920  1.04376E+00  9.94009E-01  4.97470E-02
    9047.173     53.917   3.960  1.04341E+00  9.94100E-01  4.93075E-02
    9048.386     55.130   4.000  1.04228E+00  9.94230E-01  4.80494E-02
    9049.611     56.355   4.040  1.04090E+00  9.94422E-01  4.64820E-02
    9050.849     57.592   4.080  1.03945E+00  9.94631E-01  4.48154E-02
    9052.098     58.842   4.120  1.03781E+00  9.94879E-01  4.29315E-02
    9053.360     60.104   4.160  1.03572E+00  9.95186E-01  4.05298E-02
    9054.634     61.378   4.200  1.03280E+00  9.95506E-01  3.72923E-02
    9055.920     62.664   4.240  1.02893E+00  9.95839E-01  3.30886E-02
    9057.219     63.963   4.280  1.02429E+00  9.96227E-01  2.80678E-02
    9058.530     65.273   4.320  1.01920E+00  9.96624E-01  2.25713E-02
    9059.852     66.596   4.360  1.01400E+00  9.97029E-01  1.69696E-02
    9061.187     67.931   4.400  1.00901E+00  9.97464E-01  1.15472E-02
    9062.535     69.278   4.440  1.00432E+00  9.97905E-01  6.41767E-03
    9063.894     70.638   4.480  9.99998E-01  9.98373E-01  1.62562E-03
    9065.266     72.009   4.520  9.96128E-01  9.98843E-01 -2.71543E-03
    9066.649     73.393   4.560  9.92857E-01  9.99314E-01 -6.45662E-03
    9068.045     74.789   4.600  9.90302E-01  9.99762E-01 -9.45942E-03
    9069.454     76.197   4.640  9.88625E-01  1.00023E+00 -1.16054E-02
    9070.874     77.618   4.680  9.87932E-01  1.00070E+00 -1.27666E-02
    9072.306     79.050   4.720  9.88346E-01  1.00116E+00 -1.28147E-02
    9073.751     80.495   4.760  9.89877E-01  1.00160E+00 -1.17192E-02
    9075.208     81.952   4.800  9.92340E-01  1.00203E+00 -9.68628E-03
    9076.677     83.421   4.840  9.95235E-01  1.00245E+00 -7.21119E-03
    9078.159     84.902   4.880  9.97898E-01  1.00284E+00 -4.93801E-03
    9079.652     86.396   4.920  9.99802E-01  1.00322E+00 -3.41520E-03
    9081.158     87.902   4.960  1.00068E+00  1.00356E+00 -2.88618E-03
    9082.676     89.419   5.000  1.00061E+00  1.00390E+00 -3.28601E-03
    9084.206     90.950   5.040  9.99806E-01  1.00420E+00 -4.39453E-03
    9085.748     92.492   5.080  9.98471E-01  1.00447E+00 -5.99453E-03
    9087.303     94.046   5.120  9.96812E-01  1.00472E+00 -7.90529E-03
    9088.869     95.613   5.160  9.95002E-01  1.00493E+00 -9.92943E-03
    9090.448     97.192   5.200  9.93305E-01  1.00511E+00 -1.18019E-02
    9092.039     98.783   5.240  9.91974E-01  1.00524E+00 -1.32694E-02
    9093.642    100.386   5.280  9.91149E-01  1.00534E+00 -1.41924E-02
    9095.258    102.002   5.320  9.90834E-01  1.00542E+00 -1.45891E-02
    9096.885    103.629   5.360  9.90917E-01  1.00544E+00 -1.45264E-02
    9098.525    105.269   5.400  9.91440E-01  1.00545E+00 -1.40063E-02
    9100.177    106.921   5.440  9.92447E-01  1.00541E+00 -1.29619E-02
    9101.841    108.585   5.480  9.93965E-01  1.00531E+00 -1.13446E-02
    9103.518    110.262   5.520  9.95991E-01  1.00519E+00 -9.20239E-03
    9105.206    111.950   5.560  9.98332E-01  1.00504E+00 -6.70930E-03
    9106.907    113.651   5.600  1.00081E+00  1.00487E+00 -4.06201E-03
    9108.620    115.364   5.640  1.00330E+00  1.00464E+00 -1.34133E-03
    9110.345    117.089   5.680  1.00584E+00  1.00437E+00  1.46940E-03
    9112.083    118.826   5.720  1.00836E+00  1.00409E+00  4.26680E-03
    9113.832    120.576   5.760  1.01047E+00  1.00378E+00  6.69948E-03
    9115.594    122.338   5.800  1.01172E+00  1.00342E+00  8.29743E-03
    9117.368    124.112   5.840  1.01178E+00  1.00306E+00  8.71766E-03
    9119.154    125.898   5.880  1.01058E+00  1.00264E+00  7.93504E-03
    9120.952    127.696   5.920  1.00850E+00  1.00222E+00  6.28226E-03
    9122.763    129.507   5.960  1.00611E+00  1.00179E+00  4.31855E-03
    9124.586    131.329   6.000  1.00393E+00  1.00132E+00  2.60646E-03
