# # comment:                                                     FEFF 9.9.1  
# # Source:
# # Structure
# # Reduced
# # space
# # abc:
# # angles:107.586138
# # sites:
# # POT  SCF 100  7.0000   0, screened core-hole, AFOLP (folp(0)= 1.150)
# # Abs   Z=29 Rmt= 1.120 Rnm= 1.259 K  shell
# # Pot 1 Z=56 Rmt= 1.928 Rnm= 1.991
# # Pot 2 Z=38 Rmt= 1.811 Rnm= 1.876
# # Pot 3 Z=29 Rmt= 1.118 Rnm= 1.258
# # Pot 4 Z= 8 Rmt= 1.087 Rnm= 1.144
# # Gam_ch=1.729E+00 H-L exch Vi= 0.000E+00 Vr= 0.000E+00
# # Mu=-9.395E+00eV kf=1.989E+00 Vint=-1.632E+01eV Rs_int= 1.823
# FMS rfms= 9.0000
# # PATH  Rmax=-1.000,  Keep_limit= 0.00, Heap_limit 0.00  Pwcrit= 2.50%
#  S02=0.950  Temp=   0.00  Debye_temp=   0.00  Global_sig2= 0.00000
#  Energy zero shift, vr, vi    0.00000E+00   0.00000E+00
#  Curved wave amplitude ratio filter   4.000%
#     file         sig2 tot  cw amp ratio   deg  nlegs   reff  inp sig2
#     0/   0 paths used
#  xsedge+ 50, used to normalize mu           2.4406E-04
#  -----------------------------------------------------------------------
#  omega    e    k    mu    mu0     chi     @#
    8984.598    -13.205  -1.000  2.87407E-02  5.25893E-02 -2.38486E-02
    8984.897    -12.906  -0.960  2.98918E-02  5.62935E-02 -2.64017E-02
    8985.184    -12.619  -0.920  3.11091E-02  6.03961E-02 -2.92871E-02
    8985.458    -12.345  -0.880  3.23996E-02  6.49544E-02 -3.25548E-02
    8985.720    -12.083  -0.840  3.37711E-02  7.00346E-02 -3.62635E-02
    8985.970    -11.833  -0.800  3.52331E-02  7.57135E-02 -4.04804E-02
    8986.208    -11.595  -0.760  3.67960E-02  8.20788E-02 -4.52828E-02
    8986.433    -11.370  -0.720  3.84718E-02  8.92294E-02 -5.07576E-02
    8986.647    -11.156  -0.680  4.02735E-02  9.72739E-02 -5.70004E-02
    8986.848    -10.955  -0.640  4.22147E-02  1.06327E-01 -6.41120E-02
    8987.037    -10.766  -0.600  4.43081E-02  1.16499E-01 -7.21912E-02
    8987.214    -10.589  -0.560  4.65632E-02  1.27887E-01 -8.13234E-02
    8987.378    -10.425  -0.520  4.89831E-02  1.40544E-01 -9.15607E-02
    8987.531    -10.273  -0.480  5.15589E-02  1.54456E-01 -1.02897E-01
    8987.671    -10.132  -0.440  5.42650E-02  1.69501E-01 -1.15236E-01
    8987.799    -10.004  -0.400  5.70542E-02  1.85422E-01 -1.28368E-01
    8987.915     -9.888  -0.360  5.98578E-02  2.01815E-01 -1.41957E-01
    8988.018     -9.785  -0.320  6.25912E-02  2.18157E-01 -1.55565E-01
    8988.110     -9.693  -0.280  6.51660E-02  2.33863E-01 -1.68697E-01
    8988.189     -9.614  -0.240  6.75032E-02  2.48372E-01 -1.80869E-01
    8988.256     -9.547  -0.200  6.95420E-02  2.61209E-01 -1.91666E-01
    8988.311     -9.492  -0.160  7.12400E-02  2.72020E-01 -2.00780E-01
    8988.354     -9.450  -0.120  7.25651E-02  2.80578E-01 -2.08013E-01
    8988.384     -9.419  -0.080  7.34960E-02  2.86751E-01 -2.13255E-01
    8988.408     -9.395   0.000  7.41967E-02  2.91717E-01 -2.17520E-01
    8988.463     -9.340   0.120  7.65096E-02  3.02915E-01 -2.26405E-01
    8988.506     -9.297   0.160  7.82050E-02  3.11647E-01 -2.33442E-01
    8988.561     -9.242   0.200  8.03388E-02  3.22815E-01 -2.42476E-01
    8988.628     -9.175   0.240  8.28845E-02  3.36313E-01 -2.53429E-01
    8988.707     -9.096   0.280  8.57653E-02  3.51866E-01 -2.66101E-01
    8988.799     -9.005   0.320  8.89880E-02  3.69167E-01 -2.80179E-01
    8988.902     -8.901   0.360  9.24901E-02  3.87733E-01 -2.95243E-01
    8989.018     -8.785   0.400  9.62640E-02  4.07095E-01 -3.10831E-01
    8989.146     -8.657   0.440  1.00350E-01  4.26822E-01 -3.26473E-01
    8989.286     -8.517   0.480  1.04718E-01  4.46557E-01 -3.41840E-01
    8989.439     -8.364   0.520  1.09261E-01  4.66109E-01 -3.56847E-01
    8989.603     -8.200   0.560  1.13704E-01  4.85315E-01 -3.71611E-01
    8989.780     -8.023   0.600  1.17790E-01  5.04206E-01 -3.86416E-01
    8989.969     -7.834   0.640  1.21215E-01  5.22764E-01 -4.01548E-01
    8990.170     -7.633   0.680  1.23976E-01  5.41063E-01 -4.17087E-01
    8990.384     -7.420   0.720  1.26376E-01  5.59167E-01 -4.32791E-01
    8990.609     -7.194   0.760  1.29142E-01  5.77136E-01 -4.47994E-01
    8990.847     -6.956   0.800  1.33219E-01  5.95022E-01 -4.61803E-01
    8991.097     -6.706   0.840  1.39428E-01  6.12864E-01 -4.73435E-01
    8991.359     -6.444   0.880  1.48342E-01  6.30668E-01 -4.82325E-01
    8991.633     -6.170   0.920  1.60185E-01  6.48448E-01 -4.88263E-01
    8991.920     -5.883   0.960  1.74772E-01  6.66188E-01 -4.91416E-01
    8992.218     -5.585   1.000  1.91512E-01  6.83881E-01 -4.92370E-01
    8992.529     -5.274   1.040  2.09543E-01  7.01493E-01 -4.91950E-01
    8992.852     -4.951   1.080  2.28266E-01  7.19022E-01 -4.90756E-01
    8993.188     -4.615   1.120  2.48253E-01  7.36382E-01 -4.88128E-01
    8993.535     -4.268   1.160  2.71606E-01  7.53582E-01 -4.81975E-01
    8993.895     -3.908   1.200  2.99638E-01  7.70526E-01 -4.70888E-01
    8994.267     -3.536   1.240  3.31614E-01  7.87201E-01 -4.55586E-01
    8994.651     -3.152   1.280  3.66086E-01  8.03546E-01 -4.37460E-01
    8995.047     -2.756   1.320  4.02767E-01  8.19502E-01 -4.16735E-01
    8995.455     -2.348   1.360  4.41316E-01  8.35054E-01 -3.93738E-01
    8995.876     -1.927   1.400  4.77830E-01  8.50141E-01 -3.72311E-01
    8996.309     -1.494   1.440  5.07487E-01  8.64704E-01 -3.57218E-01
    8996.754     -1.049   1.480  5.30683E-01  8.78752E-01 -3.48069E-01
    8997.211     -0.592   1.520  5.54538E-01  8.92205E-01 -3.37668E-01
    8997.680     -0.123   1.560  5.87251E-01  9.05054E-01 -3.17803E-01
    8998.162      0.359   1.600  6.27853E-01  9.17288E-01 -2.89435E-01
    8998.656      0.853   1.640  6.77315E-01  9.28858E-01 -2.51543E-01
    8999.162      1.359   1.680  7.44170E-01  9.39779E-01 -1.95609E-01
    8999.680      1.877   1.720  8.27397E-01  9.50028E-01 -1.22631E-01
    9000.210      2.407   1.760  9.13287E-01  9.59601E-01 -4.63143E-02
    9000.753      2.950   1.800  1.00113E+00  9.68500E-01  3.26263E-02
    9001.308      3.504   1.840  1.11143E+00  9.76729E-01  1.34705E-01
    9001.874      4.071   1.880  1.24237E+00  9.84291E-01  2.58080E-01
    9002.454      4.650   1.920  1.34289E+00  9.91193E-01  3.51692E-01
    9003.045      5.242   1.960  1.36886E+00  9.97464E-01  3.71394E-01
    9003.648      5.845   2.000  1.33382E+00  1.00313E+00  3.30684E-01
    9004.264      6.461   2.040  1.27217E+00  1.00817E+00  2.64003E-01
    9004.892      7.089   2.080  1.21305E+00  1.01265E+00  2.00405E-01
    9005.532      7.729   2.120  1.17314E+00  1.01658E+00  1.56560E-01
    9006.184      8.381   2.160  1.15665E+00  1.01998E+00  1.36674E-01
    9006.849      9.046   2.200  1.16122E+00  1.02287E+00  1.38351E-01
    9007.525      9.722   2.240  1.18240E+00  1.02529E+00  1.57111E-01
    9008.214     10.411   2.280  1.21656E+00  1.02727E+00  1.89296E-01
    9008.915     11.112   2.320  1.25891E+00  1.02883E+00  2.30078E-01
    9009.629     11.825   2.360  1.30100E+00  1.03000E+00  2.71000E-01
    9010.354     12.551   2.400  1.33036E+00  1.03082E+00  2.99538E-01
    9011.092     13.288   2.440  1.33534E+00  1.03131E+00  3.04035E-01
    9011.841     14.038   2.480  1.32341E+00  1.03148E+00  2.91939E-01
    9012.603     14.800   2.520  1.29962E+00  1.03138E+00  2.68235E-01
    9013.378     15.574   2.560  1.26734E+00  1.03104E+00  2.36306E-01
    9014.164     16.361   2.600  1.23101E+00  1.03045E+00  2.00554E-01
    9014.963     17.159   2.640  1.19424E+00  1.02969E+00  1.64554E-01
    9015.773     17.970   2.680  1.15951E+00  1.02873E+00  1.30780E-01
    9016.596     18.793   2.720  1.12866E+00  1.02760E+00  1.01056E-01
    9017.431     19.628   2.760  1.10224E+00  1.02635E+00  7.58907E-02
    9018.279     20.476   2.800  1.08028E+00  1.02500E+00  5.52869E-02
    9019.138     21.335   2.840  1.06243E+00  1.02353E+00  3.88942E-02
    9020.010     22.207   2.880  1.04792E+00  1.02201E+00  2.59138E-02
    9020.894     23.091   2.920  1.03532E+00  1.02039E+00  1.49342E-02
    9021.790     23.987   2.960  1.02305E+00  1.01874E+00  4.30977E-03
    9022.698     24.895   3.000  1.00980E+00  1.01706E+00 -7.25800E-03
    9023.619     25.816   3.040  9.94739E-01  1.01537E+00 -2.06346E-02
    9024.551     26.748   3.080  9.77969E-01  1.01368E+00 -3.57110E-02
    9025.496     27.693   3.120  9.60321E-01  1.01199E+00 -5.16685E-02
    9026.453     28.650   3.160  9.42683E-01  1.01030E+00 -6.76215E-02
    9027.423     29.620   3.200  9.25732E-01  1.00865E+00 -8.29195E-02
    9028.404     30.601   3.240  9.09951E-01  1.00704E+00 -9.70871E-02
    9029.398     31.595   3.280  8.95429E-01  1.00547E+00 -1.10037E-01
    9030.404     32.600   3.320  8.82286E-01  1.00396E+00 -1.21675E-01
    9031.422     33.619   3.360  8.70822E-01  1.00248E+00 -1.31660E-01
    9032.452     34.649   3.400  8.61378E-01  1.00110E+00 -1.39719E-01
    9033.494     35.691   3.440  8.54104E-01  9.99766E-01 -1.45662E-01
    9034.549     36.746   3.480  8.49234E-01  9.98512E-01 -1.49278E-01
    9035.616     37.813   3.520  8.47117E-01  9.97338E-01 -1.50221E-01
    9036.695     38.892   3.560  8.47853E-01  9.96246E-01 -1.48393E-01
    9037.786     39.983   3.600  8.51636E-01  9.95258E-01 -1.43622E-01
    9038.889     41.086   3.640  8.58593E-01  9.94332E-01 -1.35739E-01
    9040.005     42.202   3.680  8.68671E-01  9.93490E-01 -1.24819E-01
    9041.133     43.329   3.720  8.81409E-01  9.92755E-01 -1.11346E-01
    9042.272     44.469   3.760  8.95963E-01  9.92107E-01 -9.61437E-02
    9043.425     45.621   3.800  9.11138E-01  9.91566E-01 -8.04282E-02
    9044.589     46.786   3.840  9.25494E-01  9.91089E-01 -6.55955E-02
    9045.765     47.962   3.880  9.38061E-01  9.90720E-01 -5.26580E-02
    9046.954     49.151   3.920  9.48567E-01  9.90436E-01 -4.18685E-02
    9048.155     50.352   3.960  9.57386E-01  9.90258E-01 -3.28722E-02
    9049.368     51.565   4.000  9.65173E-01  9.90145E-01 -2.49713E-02
    9050.593     52.790   4.040  9.72718E-01  9.90134E-01 -1.74159E-02
    9051.831     54.028   4.080  9.80436E-01  9.90185E-01 -9.74882E-03
    9053.081     55.278   4.120  9.88461E-01  9.90339E-01 -1.87842E-03
    9054.343     56.539   4.160  9.96600E-01  9.90575E-01  6.02505E-03
    9055.617     57.813   4.200  1.00454E+00  9.90888E-01  1.36487E-02
    9056.903     59.100   4.240  1.01194E+00  9.91257E-01  2.06804E-02
    9058.201     60.398   4.280  1.01881E+00  9.91701E-01  2.71109E-02
    9059.512     61.709   4.320  1.02535E+00  9.92219E-01  3.31285E-02
    9060.835     63.032   4.360  1.03168E+00  9.92788E-01  3.88897E-02
    9062.170     64.367   4.400  1.03778E+00  9.93427E-01  4.43504E-02
    9063.517     65.714   4.440  1.04343E+00  9.94112E-01  4.93153E-02
    9064.876     67.073   4.480  1.04846E+00  9.94842E-01  5.36190E-02
    9066.248     68.445   4.520  1.05288E+00  9.95636E-01  5.72404E-02
    9067.632     69.829   4.560  1.05690E+00  9.96451E-01  6.04536E-02
    9069.028     71.225   4.600  1.06085E+00  9.97324E-01  6.35213E-02
    9070.436     72.633   4.640  1.06483E+00  9.98210E-01  6.66203E-02
    9071.856     74.053   4.680  1.06894E+00  9.99107E-01  6.98305E-02
    9073.289     75.486   4.720  1.07318E+00  1.00006E+00  7.31279E-02
    9074.734     76.930   4.760  1.07729E+00  1.00099E+00  7.63008E-02
    9076.190     78.387   4.800  1.08089E+00  1.00195E+00  7.89405E-02
    9077.660     79.856   4.840  1.08323E+00  1.00292E+00  8.03195E-02
    9079.141     81.338   4.880  1.08339E+00  1.00388E+00  7.95078E-02
    9080.634     82.831   4.920  1.08059E+00  1.00484E+00  7.57469E-02
    9082.140     84.337   4.960  1.07473E+00  1.00580E+00  6.89398E-02
    9083.658     85.855   5.000  1.06659E+00  1.00672E+00  5.98673E-02
    9085.188     87.385   5.040  1.05751E+00  1.00764E+00  4.98705E-02
    9086.730     88.927   5.080  1.04871E+00  1.00852E+00  4.01910E-02
    9088.285     90.482   5.120  1.04096E+00  1.00939E+00  3.15733E-02
    9089.852     92.048   5.160  1.03437E+00  1.01023E+00  2.41473E-02
    9091.430     93.627   5.200  1.02859E+00  1.01102E+00  1.75675E-02
    9093.021     95.218   5.240  1.02305E+00  1.01177E+00  1.12761E-02
    9094.625     96.822   5.280  1.01728E+00  1.01248E+00  4.79827E-03
    9096.240     98.437   5.320  1.01106E+00  1.01312E+00 -2.06440E-03
    9097.868    100.065   5.360  1.00451E+00  1.01374E+00 -9.23141E-03
    9099.508    101.704   5.400  9.97943E-01  1.01429E+00 -1.63453E-02
    9101.160    103.356   5.440  9.92029E-01  1.01479E+00 -2.27602E-02
    9102.824    105.021   5.480  9.87500E-01  1.01522E+00 -2.77181E-02
    9104.500    106.697   5.520  9.84867E-01  1.01560E+00 -3.07304E-02
    9106.189    108.386   5.560  9.83942E-01  1.01593E+00 -3.19845E-02
    9107.890    110.086   5.600  9.83734E-01  1.01616E+00 -3.24250E-02
    9109.603    111.799   5.640  9.82932E-01  1.01636E+00 -3.34299E-02
    9111.328    113.525   5.680  9.80407E-01  1.01647E+00 -3.60600E-02
    9113.065    115.262   5.720  9.76105E-01  1.01652E+00 -4.04133E-02
    9114.815    117.011   5.760  9.70929E-01  1.01650E+00 -4.55666E-02
    9116.576    118.773   5.800  9.66232E-01  1.01642E+00 -5.01908E-02
    9118.350    120.547   5.840  9.62998E-01  1.01628E+00 -5.32794E-02
    9120.136    122.333   5.880  9.61541E-01  1.01606E+00 -5.45157E-02
    9121.935    124.132   5.920  9.61733E-01  1.01579E+00 -5.40553E-02
    9123.745    125.942   5.960  9.63396E-01  1.01547E+00 -5.20690E-02
    9125.568    127.765   6.000  9.66497E-01  1.01499E+00 -4.84928E-02
