# # comment:                                                     FEFF 9.9.1  
# # Source:
# # Structure
# # Reduced
# # space
# # abc:
# # angles:
# # sites:
# # POT  SCF 100  7.0000   0, screened core-hole, AFOLP (folp(0)= 1.150)
# # Abs   Z=29 Rmt= 1.279 Rnm= 1.351 K  shell
# # Pot 1 Z=81 Rmt= 1.947 Rnm= 1.973
# # Pot 2 Z=29 Rmt= 1.292 Rnm= 1.361
# # Pot 3 Z=15 Rmt= 0.938 Rnm= 1.157
# # Pot 4 Z= 8 Rmt= 0.888 Rnm= 1.049
# # Gam_ch=1.729E+00 H-L exch Vi= 0.000E+00 Vr= 0.000E+00
# # Mu=-6.470E+00eV kf=2.446E+00 Vint=-1.609E+01eV Rs_int= 1.483
# FMS rfms= 9.0000
# # PATH  Rmax=-1.000,  Keep_limit= 0.00, Heap_limit 0.00  Pwcrit= 2.50%
#  S02=0.950  Temp=   0.00  Debye_temp=   0.00  Global_sig2= 0.00000
#  Energy zero shift, vr, vi    0.00000E+00   0.00000E+00
#  Curved wave amplitude ratio filter   4.000%
#     file         sig2 tot  cw amp ratio   deg  nlegs   reff  inp sig2
#     0/   0 paths used
#  xsedge+ 50, used to normalize mu           2.4745E-04
#  -----------------------------------------------------------------------
#  omega    e    k    mu    mu0     chi     @#
    8983.279    -10.280  -1.000  3.97383E-02  5.16175E-02 -1.18792E-02
    8983.577     -9.981  -0.960  4.19424E-02  5.53369E-02 -1.33945E-02
    8983.864     -9.695  -0.920  4.43209E-02  5.94693E-02 -1.51484E-02
    8984.138     -9.420  -0.880  4.68916E-02  6.40756E-02 -1.71839E-02
    8984.400     -9.158  -0.840  4.96744E-02  6.92267E-02 -1.95522E-02
    8984.650     -8.908  -0.800  5.26908E-02  7.50048E-02 -2.23140E-02
    8984.888     -8.670  -0.760  5.59641E-02  8.15043E-02 -2.55402E-02
    8985.114     -8.445  -0.720  5.95190E-02  8.88320E-02 -2.93129E-02
    8985.327     -8.232  -0.680  6.33807E-02  9.71052E-02 -3.37244E-02
    8985.528     -8.030  -0.640  6.75736E-02  1.06448E-01 -3.88745E-02
    8985.717     -7.841  -0.600  7.21186E-02  1.16983E-01 -4.48639E-02
    8985.894     -7.665  -0.560  7.70299E-02  1.28813E-01 -5.17827E-02
    8986.058     -7.500  -0.520  8.23093E-02  1.42000E-01 -5.96911E-02
    8986.211     -7.348  -0.480  8.79393E-02  1.56532E-01 -6.85928E-02
    8986.351     -7.207  -0.440  9.38753E-02  1.72280E-01 -7.84048E-02
    8986.479     -7.079  -0.400  1.00039E-01  1.88970E-01 -8.89312E-02
    8986.595     -6.964  -0.360  1.06314E-01  2.06170E-01 -9.98560E-02
    8986.699     -6.860  -0.320  1.12552E-01  2.23320E-01 -1.10768E-01
    8986.790     -6.768  -0.280  1.18581E-01  2.39797E-01 -1.21216E-01
    8986.869     -6.689  -0.240  1.24223E-01  2.55004E-01 -1.30781E-01
    8986.936     -6.622  -0.200  1.29307E-01  2.68439E-01 -1.39132E-01
    8986.991     -6.567  -0.160  1.33684E-01  2.79739E-01 -1.46055E-01
    8987.034     -6.525  -0.120  1.37227E-01  2.88669E-01 -1.51442E-01
    8987.064     -6.494  -0.080  1.39841E-01  2.95101E-01 -1.55261E-01
    8987.089     -6.470   0.000  1.42011E-01  3.00268E-01 -1.58258E-01
    8987.144     -6.415   0.120  1.46985E-01  3.11925E-01 -1.64940E-01
    8987.186     -6.372   0.160  1.50872E-01  3.20964E-01 -1.70092E-01
    8987.241     -6.317   0.200  1.56023E-01  3.32528E-01 -1.76505E-01
    8987.308     -6.250   0.240  1.62480E-01  3.46416E-01 -1.83937E-01
    8987.387     -6.171   0.280  1.70341E-01  3.62345E-01 -1.92004E-01
    8987.479     -6.080   0.320  1.79791E-01  3.79922E-01 -2.00131E-01
    8987.582     -5.976   0.360  1.90947E-01  3.98618E-01 -2.07671E-01
    8987.698     -5.860   0.400  2.03959E-01  4.17889E-01 -2.13929E-01
    8987.826     -5.732   0.440  2.19024E-01  4.37239E-01 -2.18215E-01
    8987.967     -5.592   0.480  2.36192E-01  4.56248E-01 -2.20056E-01
    8988.119     -5.440   0.520  2.55511E-01  4.74711E-01 -2.19200E-01
    8988.284     -5.275   0.560  2.76705E-01  4.92478E-01 -2.15773E-01
    8988.460     -5.098   0.600  2.99365E-01  5.09540E-01 -2.10174E-01
    8988.649     -4.909   0.640  3.23048E-01  5.25932E-01 -2.02885E-01
    8988.850     -4.708   0.680  3.47661E-01  5.41769E-01 -1.94108E-01
    8989.064     -4.495   0.720  3.73420E-01  5.57095E-01 -1.83675E-01
    8989.289     -4.269   0.760  4.00421E-01  5.72051E-01 -1.71631E-01
    8989.527     -4.031   0.800  4.27496E-01  5.86676E-01 -1.59180E-01
    8989.777     -3.781   0.840  4.51931E-01  6.01072E-01 -1.49140E-01
    8990.039     -3.519   0.880  4.70488E-01  6.15270E-01 -1.44782E-01
    8990.313     -3.245   0.920  4.82343E-01  6.29346E-01 -1.47003E-01
    8990.600     -2.958   0.960  4.90301E-01  6.43286E-01 -1.52986E-01
    8990.899     -2.660   1.000  4.98125E-01  6.57127E-01 -1.59002E-01
    8991.210     -2.349   1.040  5.06665E-01  6.70895E-01 -1.64230E-01
    8991.533     -2.026   1.080  5.13942E-01  6.84571E-01 -1.70630E-01
    8991.868     -1.691   1.120  5.18771E-01  6.98169E-01 -1.79398E-01
    8992.215     -1.343   1.160  5.23417E-01  7.11655E-01 -1.88239E-01
    8992.575     -0.983   1.200  5.32757E-01  7.25035E-01 -1.92279E-01
    8992.947     -0.612   1.240  5.50349E-01  7.38291E-01 -1.87941E-01
    8993.331     -0.227   1.280  5.75337E-01  7.51398E-01 -1.76061E-01
    8993.727      0.169   1.320  6.03149E-01  7.64334E-01 -1.61186E-01
    8994.136      0.577   1.360  6.30321E-01  7.77096E-01 -1.46775E-01
    8994.556      0.998   1.400  6.58102E-01  7.89614E-01 -1.31512E-01
    8994.989      1.431   1.440  6.90215E-01  8.01921E-01 -1.11706E-01
    8995.434      1.876   1.480  7.28372E-01  8.13950E-01 -8.55780E-02
    8995.891      2.333   1.520  7.73488E-01  8.25711E-01 -5.22233E-02
    8996.361      2.802   1.560  8.28587E-01  8.37158E-01 -8.57142E-03
    8996.842      3.284   1.600  8.92281E-01  8.48282E-01  4.39990E-02
    8997.336      3.778   1.640  9.51614E-01  8.59056E-01  9.25579E-02
    8997.842      4.284   1.680  9.95048E-01  8.69473E-01  1.25575E-01
    8998.360      4.802   1.720  1.02673E+00  8.79528E-01  1.47197E-01
    8998.891      5.332   1.760  1.05740E+00  8.89174E-01  1.68230E-01
    8999.433      5.875   1.800  1.09115E+00  8.98428E-01  1.92725E-01
    8999.988      6.429   1.840  1.12098E+00  9.07266E-01  2.13717E-01
    9000.555      6.996   1.880  1.13711E+00  9.15705E-01  2.21405E-01
    9001.134      7.575   1.920  1.13958E+00  9.23723E-01  2.15854E-01
    9001.725      8.167   1.960  1.14069E+00  9.31300E-01  2.09388E-01
    9002.329      8.770   2.000  1.15171E+00  9.38455E-01  2.13258E-01
    9002.944      9.386   2.040  1.17083E+00  9.45190E-01  2.25639E-01
    9003.572     10.014   2.080  1.18764E+00  9.51508E-01  2.36133E-01
    9004.212     10.654   2.120  1.19508E+00  9.57411E-01  2.37672E-01
    9004.865     11.306   2.160  1.19290E+00  9.62902E-01  2.29994E-01
    9005.529     11.971   2.200  1.18354E+00  9.67984E-01  2.15560E-01
    9006.206     12.647   2.240  1.17176E+00  9.72683E-01  1.99074E-01
    9006.895     13.336   2.280  1.16374E+00  9.76985E-01  1.86754E-01
    9007.596     14.037   2.320  1.16143E+00  9.80916E-01  1.80518E-01
    9008.309     14.750   2.360  1.16045E+00  9.84502E-01  1.75945E-01
    9009.034     15.476   2.400  1.15445E+00  9.87729E-01  1.66718E-01
    9009.772     16.213   2.440  1.14011E+00  9.90624E-01  1.49488E-01
    9010.522     16.963   2.480  1.11829E+00  9.93197E-01  1.25095E-01
    9011.284     17.725   2.520  1.09267E+00  9.95475E-01  9.71921E-02
    9012.058     18.499   2.560  1.06769E+00  9.97464E-01  7.02229E-02
    9012.844     19.286   2.600  1.04772E+00  9.99172E-01  4.85532E-02
    9013.643     20.084   2.640  1.03433E+00  1.00063E+00  3.36982E-02
    9014.454     20.895   2.680  1.02538E+00  1.00184E+00  2.35413E-02
    9015.276     21.718   2.720  1.01757E+00  1.00284E+00  1.47361E-02
    9016.112     22.553   2.760  1.00846E+00  1.00363E+00  4.82817E-03
    9016.959     23.401   2.800  9.94768E-01  1.00420E+00 -9.42723E-03
    9017.819     24.260   2.840  9.74515E-01  1.00461E+00 -3.00944E-02
    9018.690     25.132   2.880  9.52322E-01  1.00484E+00 -5.25146E-02
    9019.574     26.016   2.920  9.32841E-01  1.00491E+00 -7.20648E-02
    9020.470     26.912   2.960  9.18068E-01  1.00486E+00 -8.67964E-02
    9021.379     27.820   3.000  9.07744E-01  1.00468E+00 -9.69335E-02
    9022.299     28.741   3.040  9.00342E-01  1.00437E+00 -1.04032E-01
    9023.232     29.673   3.080  8.94320E-01  1.00400E+00 -1.09679E-01
    9024.177     30.618   3.120  8.88695E-01  1.00352E+00 -1.14824E-01
    9025.134     31.575   3.160  8.83233E-01  1.00296E+00 -1.19725E-01
    9026.103     32.544   3.200  8.78028E-01  1.00234E+00 -1.24313E-01
    9027.084     33.526   3.240  8.73403E-01  1.00166E+00 -1.28254E-01
    9028.078     34.520   3.280  8.70045E-01  1.00093E+00 -1.30884E-01
    9029.084     35.525   3.320  8.68248E-01  1.00018E+00 -1.31934E-01
    9030.102     36.543   3.360  8.68424E-01  9.99402E-01 -1.30978E-01
    9031.132     37.574   3.400  8.71007E-01  9.98591E-01 -1.27584E-01
    9032.175     38.616   3.440  8.76144E-01  9.97793E-01 -1.21649E-01
    9033.229     39.671   3.480  8.83703E-01  9.96971E-01 -1.13269E-01
    9034.296     40.737   3.520  8.93521E-01  9.96150E-01 -1.02629E-01
    9035.375     41.816   3.560  9.05359E-01  9.95354E-01 -8.99947E-02
    9036.466     42.908   3.600  9.18562E-01  9.94563E-01 -7.60006E-02
    9037.569     44.011   3.640  9.32722E-01  9.93781E-01 -6.10582E-02
    9038.685     45.127   3.680  9.47637E-01  9.93052E-01 -4.54150E-02
    9039.813     46.254   3.720  9.63112E-01  9.92336E-01 -2.92239E-02
    9040.953     47.394   3.760  9.78997E-01  9.91633E-01 -1.26366E-02
    9042.105     48.546   3.800  9.95064E-01  9.90990E-01  4.07344E-03
    9043.269     49.711   3.840  1.01068E+00  9.90387E-01  2.02925E-02
    9044.446     50.887   3.880  1.02508E+00  9.89824E-01  3.52560E-02
    9045.634     52.076   3.920  1.03759E+00  9.89302E-01  4.82887E-02
    9046.835     53.277   3.960  1.04774E+00  9.88820E-01  5.89185E-02
    9048.048     54.490   4.000  1.05528E+00  9.88380E-01  6.69035E-02
    9049.274     55.715   4.040  1.06031E+00  9.87983E-01  7.23297E-02
    9050.511     56.953   4.080  1.06311E+00  9.87651E-01  7.54576E-02
    9051.761     58.202   4.120  1.06407E+00  9.87366E-01  7.67008E-02
    9053.023     59.464   4.160  1.06375E+00  9.87123E-01  7.66256E-02
    9054.297     60.738   4.200  1.06276E+00  9.86944E-01  7.58164E-02
    9055.583     62.025   4.240  1.06143E+00  9.86788E-01  7.46419E-02
    9056.882     63.323   4.280  1.05987E+00  9.86696E-01  7.31770E-02
    9058.192     64.634   4.320  1.05800E+00  9.86647E-01  7.13559E-02
    9059.515     65.957   4.360  1.05564E+00  9.86641E-01  6.90027E-02
    9060.850     67.292   4.400  1.05271E+00  9.86698E-01  6.60137E-02
    9062.197     68.639   4.440  1.04921E+00  9.86773E-01  6.24340E-02
    9063.557     69.998   4.480  1.04521E+00  9.86889E-01  5.83258E-02
    9064.928     71.370   4.520  1.04075E+00  9.87066E-01  5.36875E-02
    9066.312     72.754   4.560  1.03575E+00  9.87257E-01  4.84931E-02
    9067.708     74.149   4.600  1.03024E+00  9.87485E-01  4.27548E-02
    9069.116     75.558   4.640  1.02427E+00  9.87750E-01  3.65151E-02
    9070.537     76.978   4.680  1.01790E+00  9.88049E-01  2.98541E-02
    9071.969     78.411   4.720  1.01117E+00  9.88359E-01  2.28137E-02
    9073.414     79.855   4.760  1.00407E+00  9.88700E-01  1.53724E-02
    9074.871     81.312   4.800  9.96679E-01  9.89050E-01  7.62918E-03
    9076.340     82.781   4.840  9.89295E-01  9.89428E-01 -1.33798E-04
    9077.821     84.263   4.880  9.82307E-01  9.89814E-01 -7.50686E-03
    9079.315     85.756   4.920  9.76129E-01  9.90226E-01 -1.40970E-02
    9080.820     87.262   4.960  9.70932E-01  9.90620E-01 -1.96875E-02
    9082.338     88.780   5.000  9.66763E-01  9.91036E-01 -2.42726E-02
    9083.868     90.310   5.040  9.63442E-01  9.91454E-01 -2.80117E-02
    9085.411     91.852   5.080  9.60757E-01  9.91871E-01 -3.11138E-02
    9086.965     93.407   5.120  9.58563E-01  9.92285E-01 -3.37221E-02
    9088.532     94.973   5.160  9.56747E-01  9.92674E-01 -3.59268E-02
    9090.111     96.552   5.200  9.55306E-01  9.93079E-01 -3.77730E-02
    9091.702     98.143   5.240  9.54156E-01  9.93455E-01 -3.92991E-02
    9093.305     99.746   5.280  9.53338E-01  9.93802E-01 -4.04638E-02
    9094.920    101.362   5.320  9.52902E-01  9.94162E-01 -4.12600E-02
    9096.548    102.990   5.360  9.52933E-01  9.94467E-01 -4.15345E-02
    9098.188    104.629   5.400  9.53471E-01  9.94763E-01 -4.12919E-02
    9099.840    106.281   5.440  9.54374E-01  9.95048E-01 -4.06742E-02
    9101.504    107.946   5.480  9.55419E-01  9.95297E-01 -3.98786E-02
    9103.180    109.622   5.520  9.56440E-01  9.95509E-01 -3.90690E-02
    9104.869    111.311   5.560  9.57378E-01  9.95686E-01 -3.83074E-02
    9106.570    113.011   5.600  9.58365E-01  9.95847E-01 -3.74815E-02
    9108.283    114.724   5.640  9.59540E-01  9.95947E-01 -3.64075E-02
    9110.008    116.449   5.680  9.61108E-01  9.96032E-01 -3.49245E-02
    9111.745    118.187   5.720  9.63222E-01  9.96080E-01 -3.28583E-02
    9113.495    119.936   5.760  9.66023E-01  9.96089E-01 -3.00652E-02
    9115.257    121.698   5.800  9.69654E-01  9.96058E-01 -2.64038E-02
    9117.031    123.472   5.840  9.74274E-01  9.95989E-01 -2.17148E-02
    9118.817    125.258   5.880  9.79990E-01  9.95880E-01 -1.58903E-02
    9120.615    127.056   5.920  9.86740E-01  9.95733E-01 -8.99385E-03
    9122.425    128.867   5.960  9.94083E-01  9.95546E-01 -1.46327E-03
    9124.248    130.690   6.000  1.00125E+00  9.95295E-01  5.94989E-03
