# # comment:                                                     FEFF 9.9.1  
# # Source:
# # Structure
# # Reduced
# # space
# # abc:
# # angles:
# # sites:
# # POT  SCF 100  7.0000   0, screened core-hole, AFOLP (folp(0)= 1.150)
# # Abs   Z=29 Rmt= 1.140 Rnm= 1.319 K  shell
# # Pot 1 Z=21 Rmt= 1.427 Rnm= 1.522
# # Pot 2 Z=29 Rmt= 1.182 Rnm= 1.312
# # Pot 3 Z= 8 Rmt= 1.006 Rnm= 1.098
# # Gam_ch=1.729E+00 H-L exch Vi= 0.000E+00 Vr= 0.000E+00
# # Mu=-9.723E+00eV kf=2.125E+00 Vint=-1.881E+01eV Rs_int= 1.706
# FMS rfms= 9.0000
# # PATH  Rmax=-1.000,  Keep_limit= 0.00, Heap_limit 0.00  Pwcrit= 2.50%
#  S02=0.950  Temp=   0.00  Debye_temp=   0.00  Global_sig2= 0.00000
#  Energy zero shift, vr, vi    0.00000E+00   0.00000E+00
#  Curved wave amplitude ratio filter   4.000%
#     file         sig2 tot  cw amp ratio   deg  nlegs   reff  inp sig2
#     0/   0 paths used
#  xsedge+ 50, used to normalize mu           2.5049E-04
#  -----------------------------------------------------------------------
#  omega    e    k    mu    mu0     chi     @#
    8984.563    -13.533  -1.000  4.17822E-02  5.05461E-02 -8.76399E-03
    8984.862    -13.234  -0.960  4.45012E-02  5.41427E-02 -9.64154E-03
    8985.148    -12.947  -0.920  4.75188E-02  5.81342E-02 -1.06155E-02
    8985.423    -12.673  -0.880  5.08831E-02  6.25785E-02 -1.16954E-02
    8985.685    -12.411  -0.840  5.46516E-02  6.75429E-02 -1.28913E-02
    8985.935    -12.161  -0.800  5.88925E-02  7.31054E-02 -1.42129E-02
    8986.172    -11.923  -0.760  6.36861E-02  7.93554E-02 -1.56693E-02
    8986.398    -11.698  -0.720  6.91255E-02  8.63940E-02 -1.72685E-02
    8986.611    -11.484  -0.680  7.53159E-02  9.43325E-02 -1.90165E-02
    8986.813    -11.283  -0.640  8.23707E-02  1.03288E-01 -2.09175E-02
    8987.001    -11.094  -0.600  9.04026E-02  1.13376E-01 -2.29736E-02
    8987.178    -10.917  -0.560  9.95074E-02  1.24695E-01 -2.51875E-02
    8987.343    -10.753  -0.520  1.09737E-01  1.37302E-01 -2.75651E-02
    8987.495    -10.600  -0.480  1.21063E-01  1.51185E-01 -3.01223E-02
    8987.635    -10.460  -0.440  1.33332E-01  1.66221E-01 -3.28889E-02
    8987.763    -10.332  -0.400  1.46242E-01  1.82150E-01 -3.59081E-02
    8987.879    -10.216  -0.360  1.59338E-01  1.98561E-01 -3.92230E-02
    8987.983    -10.113  -0.320  1.72073E-01  2.14922E-01 -4.28487E-02
    8988.074    -10.021  -0.280  1.83902E-01  2.30642E-01 -4.67398E-02
    8988.154     -9.942  -0.240  1.94381E-01  2.45152E-01 -5.07714E-02
    8988.221     -9.875  -0.200  2.03230E-01  2.57976E-01 -5.47457E-02
    8988.276     -9.820  -0.160  2.10337E-01  2.68763E-01 -5.84260E-02
    8988.318     -9.777  -0.120  2.15709E-01  2.77291E-01 -6.15823E-02
    8988.349     -9.747  -0.080  2.19407E-01  2.83435E-01 -6.40288E-02
    8988.373     -9.723   0.000  2.22147E-01  2.88372E-01 -6.62243E-02
    8988.428     -9.668   0.120  2.28485E-01  2.99498E-01 -7.10128E-02
    8988.471     -9.625   0.160  2.33393E-01  3.08165E-01 -7.47713E-02
    8988.525     -9.570   0.200  2.39449E-01  3.19217E-01 -7.97672E-02
    8988.593     -9.503   0.240  2.46433E-01  3.32525E-01 -8.60924E-02
    8988.672     -9.424   0.280  2.54034E-01  3.47809E-01 -9.37754E-02
    8988.763     -9.332   0.320  2.61930E-01  3.64684E-01 -1.02754E-01
    8988.867     -9.229   0.360  2.69876E-01  3.82672E-01 -1.12796E-01
    8988.983     -9.113   0.400  2.77707E-01  4.01268E-01 -1.23561E-01
    8989.111     -8.985   0.440  2.85319E-01  4.20006E-01 -1.34686E-01
    8989.251     -8.845   0.480  2.92613E-01  4.38507E-01 -1.45894E-01
    8989.403     -8.692   0.520  2.99535E-01  4.56526E-01 -1.56991E-01
    8989.568     -8.528   0.560  3.06249E-01  4.73981E-01 -1.67731E-01
    8989.745     -8.351   0.600  3.13299E-01  4.90861E-01 -1.77562E-01
    8989.934     -8.162   0.640  3.21515E-01  5.07159E-01 -1.85644E-01
    8990.135     -7.961   0.680  3.31932E-01  5.23004E-01 -1.91072E-01
    8990.348     -7.747   0.720  3.45075E-01  5.38452E-01 -1.93378E-01
    8990.574     -7.522   0.760  3.60398E-01  5.53582E-01 -1.93184E-01
    8990.811     -7.284   0.800  3.76142E-01  5.68502E-01 -1.92359E-01
    8991.061     -7.034   0.840  3.90754E-01  5.83248E-01 -1.92494E-01
    8991.324     -6.772   0.880  4.04311E-01  5.97886E-01 -1.93575E-01
    8991.598     -6.498   0.920  4.17051E-01  6.12427E-01 -1.95376E-01
    8991.884     -6.211   0.960  4.27646E-01  6.26915E-01 -1.99268E-01
    8992.183     -5.913   1.000  4.34076E-01  6.41379E-01 -2.07303E-01
    8992.494     -5.602   1.040  4.36853E-01  6.55785E-01 -2.18931E-01
    8992.817     -5.279   1.080  4.39176E-01  6.70169E-01 -2.30993E-01
    8993.152     -4.943   1.120  4.43558E-01  6.84501E-01 -2.40943E-01
    8993.500     -4.596   1.160  4.53539E-01  6.98767E-01 -2.45227E-01
    8993.859     -4.236   1.200  4.75603E-01  7.12967E-01 -2.37365E-01
    8994.231     -3.864   1.240  5.14239E-01  7.27062E-01 -2.12823E-01
    8994.615     -3.480   1.280  5.65393E-01  7.41026E-01 -1.75633E-01
    8995.012     -3.084   1.320  6.13478E-01  7.54853E-01 -1.41375E-01
    8995.420     -2.676   1.360  6.41734E-01  7.68495E-01 -1.26760E-01
    8995.841     -2.255   1.400  6.56225E-01  7.81942E-01 -1.25717E-01
    8996.273     -1.822   1.440  6.81715E-01  7.95146E-01 -1.13431E-01
    8996.718     -1.377   1.480  7.28998E-01  8.08095E-01 -7.90967E-02
    8997.176     -0.920   1.520  7.91020E-01  8.20760E-01 -2.97400E-02
    8997.645     -0.451   1.560  8.57506E-01  8.33112E-01  2.43949E-02
    8998.127      0.031   1.600  9.11469E-01  8.45118E-01  6.63507E-02
    8998.620      0.525   1.640  9.30059E-01  8.56791E-01  7.32682E-02
    8999.126      1.031   1.680  9.18635E-01  8.68082E-01  5.05526E-02
    8999.645      1.549   1.720  9.10484E-01  8.78964E-01  3.15195E-02
    9000.175      2.079   1.760  9.16405E-01  8.89429E-01  2.69756E-02
    9000.717      2.622   1.800  9.18745E-01  8.99491E-01  1.92548E-02
    9001.272      3.177   1.840  9.07341E-01  9.09104E-01 -1.76267E-03
    9001.839      3.743   1.880  8.90130E-01  9.18266E-01 -2.81354E-02
    9002.418      4.323   1.920  8.76174E-01  9.26953E-01 -5.07784E-02
    9003.010      4.914   1.960  8.73479E-01  9.35204E-01 -6.17252E-02
    9003.613      5.517   2.000  8.89784E-01  9.42998E-01 -5.32143E-02
    9004.229      6.133   2.040  9.25203E-01  9.50315E-01 -2.51119E-02
    9004.857      6.761   2.080  9.75989E-01  9.57157E-01  1.88323E-02
    9005.497      7.401   2.120  1.04089E+00  9.63566E-01  7.73197E-02
    9006.149      8.053   2.160  1.10207E+00  9.69504E-01  1.32564E-01
    9006.813      8.718   2.200  1.12570E+00  9.75016E-01  1.50682E-01
    9007.490      9.394   2.240  1.10587E+00  9.80088E-01  1.25777E-01
    9008.179     10.083   2.280  1.06684E+00  9.84723E-01  8.21133E-02
    9008.880     10.784   2.320  1.03450E+00  9.88946E-01  4.55546E-02
    9009.593     11.498   2.360  1.02716E+00  9.92766E-01  3.43911E-02
    9010.319     12.223   2.400  1.05110E+00  9.96189E-01  5.49084E-02
    9011.056     12.961   2.440  1.10020E+00  9.99243E-01  1.00962E-01
    9011.806     13.710   2.480  1.15929E+00  1.00196E+00  1.57330E-01
    9012.568     14.472   2.520  1.21144E+00  1.00431E+00  2.07125E-01
    9013.342     15.247   2.560  1.22996E+00  1.00633E+00  2.23634E-01
    9014.129     16.033   2.600  1.22199E+00  1.00806E+00  2.13930E-01
    9014.927     16.832   2.640  1.20085E+00  1.00947E+00  1.91379E-01
    9015.738     17.642   2.680  1.17354E+00  1.01062E+00  1.62922E-01
    9016.561     18.465   2.720  1.14293E+00  1.01151E+00  1.31423E-01
    9017.396     19.300   2.760  1.11213E+00  1.01214E+00  9.99925E-02
    9018.243     20.148   2.800  1.08281E+00  1.01255E+00  7.02559E-02
    9019.103     21.007   2.840  1.05624E+00  1.01276E+00  4.34733E-02
    9019.975     21.879   2.880  1.03262E+00  1.01277E+00  1.98514E-02
    9020.859     22.763   2.920  1.01146E+00  1.01259E+00 -1.13409E-03
    9021.755     23.659   2.960  9.92619E-01  1.01224E+00 -1.96231E-02
    9022.663     24.567   3.000  9.76399E-01  1.01176E+00 -3.53606E-02
    9023.583     25.488   3.040  9.63123E-01  1.01113E+00 -4.80040E-02
    9024.516     26.421   3.080  9.53368E-01  1.01039E+00 -5.70248E-02
    9025.461     27.365   3.120  9.47184E-01  1.00952E+00 -6.23385E-02
    9026.418     28.322   3.160  9.44005E-01  1.00856E+00 -6.45587E-02
    9027.387     29.292   3.200  9.42831E-01  1.00754E+00 -6.47102E-02
    9028.369     30.273   3.240  9.42741E-01  1.00642E+00 -6.36794E-02
    9029.362     31.267   3.280  9.43175E-01  1.00525E+00 -6.20727E-02
    9030.368     32.273   3.320  9.44053E-01  1.00403E+00 -5.99762E-02
    9031.386     33.291   3.360  9.45713E-01  1.00275E+00 -5.70341E-02
    9032.417     34.321   3.400  9.48616E-01  1.00145E+00 -5.28331E-02
    9033.459     35.363   3.440  9.52734E-01  1.00014E+00 -4.74063E-02
    9034.514     36.418   3.480  9.57538E-01  9.98802E-01 -4.12647E-02
    9035.580     37.485   3.520  9.62204E-01  9.97459E-01 -3.52557E-02
    9036.659     38.564   3.560  9.65782E-01  9.96115E-01 -3.03322E-02
    9037.750     39.655   3.600  9.67297E-01  9.94773E-01 -2.74759E-02
    9038.854     40.758   3.640  9.66003E-01  9.93457E-01 -2.74539E-02
    9039.969     41.874   3.680  9.61563E-01  9.92149E-01 -3.05857E-02
    9041.097     43.002   3.720  9.54250E-01  9.90850E-01 -3.66001E-02
    9042.237     44.142   3.760  9.45000E-01  9.89606E-01 -4.46068E-02
    9043.389     45.294   3.800  9.34980E-01  9.88378E-01 -5.33976E-02
    9044.554     46.458   3.840  9.25464E-01  9.87186E-01 -6.17223E-02
    9045.730     47.634   3.880  9.17426E-01  9.86057E-01 -6.86305E-02
    9046.919     48.823   3.920  9.11650E-01  9.84947E-01 -7.32974E-02
    9048.120     50.024   3.960  9.08859E-01  9.83900E-01 -7.50408E-02
    9049.333     51.237   4.000  9.09418E-01  9.82896E-01 -7.34789E-02
    9050.558     52.463   4.040  9.13364E-01  9.81936E-01 -6.85715E-02
    9051.796     53.700   4.080  9.20368E-01  9.81022E-01 -6.06538E-02
    9053.045     54.950   4.120  9.29824E-01  9.80174E-01 -5.03500E-02
    9054.307     56.212   4.160  9.40958E-01  9.79394E-01 -3.84354E-02
    9055.581     57.486   4.200  9.52947E-01  9.78640E-01 -2.56928E-02
    9056.867     58.772   4.240  9.65185E-01  9.77975E-01 -1.27895E-02
    9058.166     60.070   4.280  9.77290E-01  9.77336E-01 -4.62394E-05
    9059.477     61.381   4.320  9.89554E-01  9.76765E-01  1.27887E-02
    9060.799     62.704   4.360  1.00257E+00  9.76263E-01  2.63070E-02
    9062.134     64.039   4.400  1.01673E+00  9.75808E-01  4.09251E-02
    9063.482     65.386   4.440  1.03179E+00  9.75399E-01  5.63890E-02
    9064.841     66.745   4.480  1.04661E+00  9.75055E-01  7.15584E-02
    9066.213     68.117   4.520  1.05931E+00  9.74758E-01  8.45550E-02
    9067.596     69.501   4.560  1.06778E+00  9.74503E-01  9.32806E-02
    9068.992     70.897   4.600  1.07038E+00  9.74292E-01  9.60915E-02
    9070.401     72.305   4.640  1.06651E+00  9.74146E-01  9.23638E-02
    9071.821     73.725   4.680  1.05667E+00  9.74045E-01  8.26279E-02
    9073.253     75.158   4.720  1.04223E+00  9.73986E-01  6.82446E-02
    9074.698     76.603   4.760  1.02487E+00  9.73989E-01  5.08802E-02
    9076.155     78.060   4.800  1.00628E+00  9.74011E-01  3.22694E-02
    9077.624     79.529   4.840  9.88254E-01  9.74069E-01  1.41847E-02
    9079.106     81.010   4.880  9.72477E-01  9.74164E-01 -1.68728E-03
    9080.599     82.503   4.920  9.60329E-01  9.74296E-01 -1.39674E-02
    9082.105     84.009   4.960  9.52606E-01  9.74463E-01 -2.18570E-02
    9083.623     85.527   5.000  9.49359E-01  9.74642E-01 -2.52833E-02
    9085.153     87.057   5.040  9.50092E-01  9.74855E-01 -2.47625E-02
    9086.695     88.599   5.080  9.53907E-01  9.75099E-01 -2.11918E-02
    9088.250     90.154   5.120  9.59799E-01  9.75353E-01 -1.55540E-02
    9089.816     91.721   5.160  9.66944E-01  9.75636E-01 -8.69217E-03
    9091.395     93.299   5.200  9.74653E-01  9.75924E-01 -1.27019E-03
    9092.986     94.890   5.240  9.82295E-01  9.76214E-01  6.08129E-03
    9094.589     96.494   5.280  9.89168E-01  9.76509E-01  1.26589E-02
    9096.205     98.109   5.320  9.94692E-01  9.76828E-01  1.78641E-02
    9097.832     99.737   5.360  9.98688E-01  9.77149E-01  2.15387E-02
    9099.472    101.377   5.400  1.00158E+00  9.77446E-01  2.41362E-02
    9101.124    103.029   5.440  1.00416E+00  9.77763E-01  2.64012E-02
    9102.788    104.693   5.480  1.00674E+00  9.78058E-01  2.86819E-02
    9104.465    106.369   5.520  1.00887E+00  9.78371E-01  3.04958E-02
    9106.153    108.058   5.560  1.00948E+00  9.78654E-01  3.08227E-02
    9107.854    109.759   5.600  1.00778E+00  9.78911E-01  2.88688E-02
    9109.567    111.472   5.640  1.00385E+00  9.79183E-01  2.46711E-02
    9111.292    113.197   5.680  9.98558E-01  9.79425E-01  1.91334E-02
    9113.030    114.934   5.720  9.93069E-01  9.79635E-01  1.34340E-02
    9114.779    116.684   5.760  9.88083E-01  9.79834E-01  8.24806E-03
    9116.541    118.445   5.800  9.83280E-01  9.80002E-01  3.27751E-03
    9118.315    120.219   5.840  9.77567E-01  9.80159E-01 -2.59200E-03
    9120.101    122.005   5.880  9.69636E-01  9.80282E-01 -1.06459E-02
    9121.899    123.804   5.920  9.58955E-01  9.80369E-01 -2.14135E-02
    9123.710    125.614   5.960  9.46541E-01  9.80441E-01 -3.39002E-02
    9125.533    127.437   6.000  9.34578E-01  9.80437E-01 -4.58597E-02
