# # comment:                                                     FEFF 9.9.1  
# # Source:
# # Structure
# # Reduced
# # space
# # abc:
# # angles:
# # sites:
# # POT  SCF 100  7.0000   0, screened core-hole, AFOLP (folp(0)= 1.150)
# # Abs   Z=29 Rmt= 1.244 Rnm= 1.318 K  shell
# # Pot 1 Z=81 Rmt= 1.859 Rnm= 1.886
# # Pot 2 Z=23 Rmt= 1.105 Rnm= 1.314
# # Pot 3 Z=29 Rmt= 1.258 Rnm= 1.329
# # Pot 4 Z= 8 Rmt= 0.917 Rnm= 1.087
# # Gam_ch=1.729E+00 H-L exch Vi= 0.000E+00 Vr= 0.000E+00
# # Mu=-7.938E+00eV kf=2.252E+00 Vint=-1.666E+01eV Rs_int= 1.610
# FMS rfms= 9.0000
# # PATH  Rmax=-1.000,  Keep_limit= 0.00, Heap_limit 0.00  Pwcrit= 2.50%
#  S02=0.950  Temp=   0.00  Debye_temp=   0.00  Global_sig2= 0.00000
#  Energy zero shift, vr, vi    0.00000E+00   0.00000E+00
#  Curved wave amplitude ratio filter   4.000%
#     file         sig2 tot  cw amp ratio   deg  nlegs   reff  inp sig2
#     0/   0 paths used
#  xsedge+ 50, used to normalize mu           2.4648E-04
#  -----------------------------------------------------------------------
#  omega    e    k    mu    mu0     chi     @#
    8983.872    -11.748  -1.000  3.70134E-02  5.28901E-02 -1.58766E-02
    8984.171    -11.449  -0.960  3.89851E-02  5.67086E-02 -1.77234E-02
    8984.457    -11.163  -0.920  4.11213E-02  6.09499E-02 -1.98285E-02
    8984.731    -10.888  -0.880  4.34428E-02  6.56760E-02 -2.22332E-02
    8984.994    -10.626  -0.840  4.59733E-02  7.09593E-02 -2.49859E-02
    8985.244    -10.376  -0.800  4.87403E-02  7.68833E-02 -2.81430E-02
    8985.481    -10.139  -0.760  5.17746E-02  8.35442E-02 -3.17696E-02
    8985.707     -9.913  -0.720  5.51105E-02  9.10503E-02 -3.59398E-02
    8985.920     -9.700  -0.680  5.87853E-02  9.95211E-02 -4.07358E-02
    8986.121     -9.498  -0.640  6.28376E-02  1.09083E-01 -4.62450E-02
    8986.310     -9.309  -0.600  6.73045E-02  1.19858E-01 -5.25540E-02
    8986.487     -9.133  -0.560  7.22170E-02  1.31954E-01 -5.97373E-02
    8986.652     -8.968  -0.520  7.75927E-02  1.45432E-01 -6.78397E-02
    8986.804     -8.816  -0.480  8.34265E-02  1.60279E-01 -7.68523E-02
    8986.944     -8.675  -0.440  8.96787E-02  1.76363E-01 -8.66845E-02
    8987.072     -8.547  -0.400  9.62650E-02  1.93406E-01 -9.71409E-02
    8987.188     -8.432  -0.360  1.03051E-01  2.10968E-01 -1.07917E-01
    8987.292     -8.328  -0.320  1.09854E-01  2.28479E-01 -1.18625E-01
    8987.383     -8.237  -0.280  1.16462E-01  2.45305E-01 -1.28843E-01
    8987.462     -8.157  -0.240  1.22652E-01  2.60837E-01 -1.38186E-01
    8987.530     -8.090  -0.200  1.28216E-01  2.74565E-01 -1.46349E-01
    8987.584     -8.035  -0.160  1.32980E-01  2.86113E-01 -1.53133E-01
    8987.627     -7.993  -0.120  1.36814E-01  2.95242E-01 -1.58428E-01
    8987.658     -7.962  -0.080  1.39627E-01  3.01819E-01 -1.62192E-01
    8987.682     -7.938   0.000  1.41956E-01  3.07103E-01 -1.65147E-01
    8987.737     -7.883   0.120  1.47037E-01  3.19020E-01 -1.71983E-01
    8987.779     -7.840   0.160  1.51011E-01  3.28284E-01 -1.77274E-01
    8987.834     -7.785   0.200  1.56129E-01  3.40124E-01 -1.83995E-01
    8987.901     -7.718   0.240  1.62374E-01  3.54359E-01 -1.91985E-01
    8987.981     -7.639   0.280  1.69661E-01  3.70710E-01 -2.01049E-01
    8988.072     -7.548   0.320  1.77878E-01  3.88787E-01 -2.10909E-01
    8988.176     -7.444   0.360  1.86775E-01  4.08036E-01 -2.21261E-01
    8988.292     -7.328   0.400  1.96137E-01  4.27913E-01 -2.31776E-01
    8988.420     -7.200   0.440  2.05861E-01  4.47942E-01 -2.42081E-01
    8988.560     -7.060   0.480  2.15949E-01  4.67698E-01 -2.51749E-01
    8988.712     -6.908   0.520  2.26574E-01  4.86934E-01 -2.60361E-01
    8988.877     -6.743   0.560  2.37896E-01  5.05541E-01 -2.67645E-01
    8989.054     -6.566   0.600  2.49817E-01  5.23485E-01 -2.73668E-01
    8989.242     -6.377   0.640  2.61806E-01  5.40800E-01 -2.78994E-01
    8989.444     -6.176   0.680  2.73050E-01  5.57578E-01 -2.84528E-01
    8989.657     -5.963   0.720  2.82839E-01  5.73899E-01 -2.91061E-01
    8989.883     -5.737   0.760  2.90938E-01  5.89845E-01 -2.98907E-01
    8990.120     -5.499   0.800  2.97323E-01  6.05486E-01 -3.08164E-01
    8990.370     -5.250   0.840  3.01433E-01  6.20904E-01 -3.19471E-01
    8990.632     -4.987   0.880  3.02252E-01  6.36103E-01 -3.33851E-01
    8990.907     -4.713   0.920  3.00193E-01  6.51156E-01 -3.50963E-01
    8991.193     -4.427   0.960  2.97735E-01  6.66085E-01 -3.68351E-01
    8991.492     -4.128   1.000  2.97418E-01  6.80880E-01 -3.83462E-01
    8991.803     -3.817   1.040  2.99912E-01  6.95545E-01 -3.95633E-01
    8992.126     -3.494   1.080  3.05225E-01  7.10073E-01 -4.04849E-01
    8992.461     -3.159   1.120  3.14809E-01  7.24455E-01 -4.09646E-01
    8992.809     -2.811   1.160  3.31246E-01  7.38675E-01 -4.07429E-01
    8993.168     -2.451   1.200  3.56646E-01  7.52713E-01 -3.96067E-01
    8993.540     -2.080   1.240  3.92613E-01  7.66547E-01 -3.73934E-01
    8993.924     -1.696   1.280  4.41967E-01  7.80149E-01 -3.38183E-01
    8994.320     -1.299   1.320  5.08747E-01  7.93475E-01 -2.84728E-01
    8994.729     -0.891   1.360  5.94566E-01  8.06518E-01 -2.11952E-01
    8995.149     -0.470   1.400  6.90415E-01  8.19268E-01 -1.28853E-01
    8995.582     -0.037   1.440  7.74060E-01  8.31656E-01 -5.75957E-02
    8996.027      0.408   1.480  8.30795E-01  8.43694E-01 -1.28989E-02
    8996.485      0.865   1.520  8.71235E-01  8.55333E-01  1.59026E-02
    8996.954      1.334   1.560  9.12802E-01  8.66586E-01  4.62162E-02
    8997.435      1.816   1.600  9.59802E-01  8.77385E-01  8.24177E-02
    8997.929      2.309   1.640  1.00804E+00  8.87766E-01  1.20277E-01
    8998.435      2.815   1.680  1.05927E+00  8.97684E-01  1.61587E-01
    8998.953      3.334   1.720  1.11963E+00  9.07153E-01  2.12477E-01
    8999.484      3.864   1.760  1.18911E+00  9.16131E-01  2.72980E-01
    9000.026      4.406   1.800  1.25695E+00  9.24659E-01  3.32290E-01
    9000.581      4.961   1.840  1.31020E+00  9.32696E-01  3.77503E-01
    9001.148      5.528   1.880  1.34611E+00  9.40240E-01  4.05870E-01
    9001.727      6.107   1.920  1.37264E+00  9.47315E-01  4.25324E-01
    9002.318      6.699   1.960  1.39649E+00  9.53924E-01  4.42566E-01
    9002.922      7.302   2.000  1.41057E+00  9.60072E-01  4.50497E-01
    9003.538      7.918   2.040  1.39730E+00  9.65763E-01  4.31541E-01
    9004.165      8.546   2.080  1.35015E+00  9.71002E-01  3.79148E-01
    9004.806      9.186   2.120  1.28671E+00  9.75797E-01  3.10916E-01
    9005.458      9.838   2.160  1.23047E+00  9.80195E-01  2.50275E-01
    9006.122     10.502   2.200  1.18925E+00  9.84183E-01  2.05064E-01
    9006.799     11.179   2.240  1.15989E+00  9.87769E-01  1.72126E-01
    9007.488     11.868   2.280  1.14104E+00  9.90983E-01  1.50054E-01
    9008.189     12.569   2.320  1.13344E+00  9.93854E-01  1.39582E-01
    9008.902     13.282   2.360  1.13257E+00  9.96390E-01  1.36175E-01
    9009.627     14.008   2.400  1.12844E+00  9.98581E-01  1.29855E-01
    9010.365     14.745   2.440  1.11453E+00  1.00050E+00  1.14036E-01
    9011.115     15.495   2.480  1.09067E+00  1.00213E+00  8.85406E-02
    9011.877     16.257   2.520  1.05957E+00  1.00348E+00  5.60937E-02
    9012.651     17.031   2.560  1.02212E+00  1.00458E+00  1.75365E-02
    9013.437     17.818   2.600  9.81563E-01  1.00547E+00 -2.39052E-02
    9014.236     18.616   2.640  9.44291E-01  1.00613E+00 -6.18349E-02
    9015.047     19.427   2.680  9.22433E-01  1.00660E+00 -8.41699E-02
    9015.870     20.250   2.720  9.12698E-01  1.00691E+00 -9.42104E-02
    9016.705     21.085   2.760  9.09456E-01  1.00705E+00 -9.75942E-02
    9017.552     21.932   2.800  9.09598E-01  1.00704E+00 -9.74377E-02
    9018.412     22.792   2.840  9.10478E-01  1.00689E+00 -9.64146E-02
    9019.283     23.664   2.880  9.10233E-01  1.00663E+00 -9.63967E-02
    9020.167     24.548   2.920  9.08009E-01  1.00627E+00 -9.82659E-02
    9021.063     25.444   2.960  9.04199E-01  1.00583E+00 -1.01634E-01
    9021.972     26.352   3.000  8.99723E-01  1.00531E+00 -1.05587E-01
    9022.892     27.272   3.040  8.95667E-01  1.00471E+00 -1.09045E-01
    9023.825     28.205   3.080  8.93013E-01  1.00407E+00 -1.11054E-01
    9024.770     29.150   3.120  8.92254E-01  1.00338E+00 -1.11125E-01
    9025.727     30.107   3.160  8.93474E-01  1.00267E+00 -1.09200E-01
    9026.696     31.076   3.200  8.96374E-01  1.00194E+00 -1.05561E-01
    9027.678     32.058   3.240  9.00544E-01  1.00117E+00 -1.00622E-01
    9028.671     33.051   3.280  9.05167E-01  1.00039E+00 -9.52257E-02
    9029.677     34.057   3.320  9.09752E-01  9.99640E-01 -8.98878E-02
    9030.695     35.075   3.360  9.14081E-01  9.98888E-01 -8.48072E-02
    9031.725     36.106   3.400  9.18217E-01  9.98119E-01 -7.99026E-02
    9032.768     37.148   3.440  9.22450E-01  9.97401E-01 -7.49506E-02
    9033.822     38.203   3.480  9.27049E-01  9.96694E-01 -6.96449E-02
    9034.889     39.269   3.520  9.32247E-01  9.96019E-01 -6.37723E-02
    9035.968     40.348   3.560  9.38000E-01  9.95359E-01 -5.73595E-02
    9037.059     41.440   3.600  9.44403E-01  9.94758E-01 -5.03550E-02
    9038.163     42.543   3.640  9.51504E-01  9.94195E-01 -4.26910E-02
    9039.278     43.658   3.680  9.59439E-01  9.93652E-01 -3.42130E-02
    9040.406     44.786   3.720  9.68523E-01  9.93170E-01 -2.46475E-02
    9041.546     45.926   3.760  9.79010E-01  9.92730E-01 -1.37199E-02
    9042.698     47.078   3.800  9.90965E-01  9.92332E-01 -1.36733E-03
    9043.862     48.243   3.840  1.00420E+00  9.91976E-01  1.22268E-02
    9045.039     49.419   3.880  1.01839E+00  9.91664E-01  2.67216E-02
    9046.228     50.608   3.920  1.03298E+00  9.91417E-01  4.15673E-02
    9047.429     51.809   3.960  1.04721E+00  9.91214E-01  5.59971E-02
    9048.642     53.022   4.000  1.06027E+00  9.91054E-01  6.92144E-02
    9049.867     54.247   4.040  1.07142E+00  9.90937E-01  8.04845E-02
    9051.104     55.485   4.080  1.08009E+00  9.90885E-01  8.92093E-02
    9052.354     56.734   4.120  1.08588E+00  9.90854E-01  9.50281E-02
    9053.616     57.996   4.160  1.08878E+00  9.90885E-01  9.78966E-02
    9054.890     59.270   4.200  1.08883E+00  9.90960E-01  9.78707E-02
    9056.176     60.557   4.240  1.08607E+00  9.91074E-01  9.49986E-02
    9057.475     61.855   4.280  1.08058E+00  9.91227E-01  8.93551E-02
    9058.785     63.166   4.320  1.07244E+00  9.91418E-01  8.10268E-02
    9060.108     64.488   4.360  1.06184E+00  9.91623E-01  7.02174E-02
    9061.443     65.823   4.400  1.04923E+00  9.91886E-01  5.73421E-02
    9062.790     67.171   4.440  1.03522E+00  9.92165E-01  4.30519E-02
    9064.150     68.530   4.480  1.02066E+00  9.92477E-01  2.81817E-02
    9065.521     69.902   4.520  1.00655E+00  9.92821E-01  1.37304E-02
    9066.905     71.285   4.560  9.93886E-01  9.93177E-01  7.08658E-04
    9068.301     72.681   4.600  9.83523E-01  9.93561E-01 -1.00385E-02
    9069.709     74.090   4.640  9.76119E-01  9.93951E-01 -1.78316E-02
    9071.130     75.510   4.680  9.72148E-01  9.94347E-01 -2.21990E-02
    9072.562     76.942   4.720  9.71828E-01  9.94769E-01 -2.29415E-02
    9074.007     78.387   4.760  9.74996E-01  9.95194E-01 -2.01987E-02
    9075.464     79.844   4.800  9.81013E-01  9.95621E-01 -1.46078E-02
    9076.933     81.313   4.840  9.88633E-01  9.96047E-01 -7.41406E-03
    9078.414     82.795   4.880  9.96136E-01  9.96471E-01 -3.35350E-04
    9079.908     84.288   4.920  1.00171E+00  9.96894E-01  4.81960E-03
    9081.414     85.794   4.960  1.00401E+00  9.97311E-01  6.69972E-03
    9082.932     87.312   5.000  1.00252E+00  9.97700E-01  4.81669E-03
    9084.462     88.842   5.040  9.97648E-01  9.98083E-01 -4.34436E-04
    9086.004     90.384   5.080  9.90386E-01  9.98458E-01 -8.07208E-03
    9087.558     91.939   5.120  9.81869E-01  9.98802E-01 -1.69337E-02
    9089.125     93.505   5.160  9.73167E-01  9.99135E-01 -2.59682E-02
    9090.704     95.084   5.200  9.65163E-01  9.99438E-01 -3.42745E-02
    9092.295     96.675   5.240  9.58612E-01  9.99729E-01 -4.11162E-02
    9093.898     98.278   5.280  9.54051E-01  9.99984E-01 -4.59330E-02
    9095.514     99.894   5.320  9.51829E-01  1.00021E+00 -4.83764E-02
    9097.141    101.521   5.360  9.52217E-01  1.00041E+00 -4.81953E-02
    9098.781    103.161   5.400  9.55381E-01  1.00058E+00 -4.52028E-02
    9100.433    104.813   5.440  9.61274E-01  1.00072E+00 -3.94425E-02
    9102.097    106.477   5.480  9.69380E-01  1.00081E+00 -3.14315E-02
    9103.774    108.154   5.520  9.78698E-01  1.00089E+00 -2.21931E-02
    9105.462    109.842   5.560  9.87864E-01  1.00091E+00 -1.30445E-02
    9107.163    111.543   5.600  9.95698E-01  1.00091E+00 -5.21055E-03
    9108.876    113.256   5.640  1.00105E+00  1.00085E+00  2.05115E-04
    9110.601    114.981   5.680  1.00371E+00  1.00077E+00  2.94013E-03
    9112.338    116.719   5.720  1.00391E+00  1.00066E+00  3.25237E-03
    9114.088    118.468   5.760  1.00226E+00  1.00051E+00  1.75652E-03
    9115.850    120.230   5.800  9.99379E-01  1.00031E+00 -9.35654E-04
    9117.624    122.004   5.840  9.95683E-01  1.00009E+00 -4.40457E-03
    9119.410    123.790   5.880  9.91513E-01  9.99850E-01 -8.33673E-03
    9121.208    125.588   5.920  9.87324E-01  9.99554E-01 -1.22292E-02
    9123.019    127.399   5.960  9.83898E-01  9.99246E-01 -1.53478E-02
    9124.841    129.222   6.000  9.82125E-01  9.98882E-01 -1.67575E-02
