# # comment:                                                     FEFF 9.9.1  
# # Source:
# # Structure
# # Reduced
# # space
# # abc:
# # angles:104.345208
# # sites:
# # POT  SCF 100  7.0000   0, screened core-hole, AFOLP (folp(0)= 1.150)
# # Abs   Z=29 Rmt= 1.221 Rnm= 1.323 K  shell
# # Pot 1 Z=29 Rmt= 1.221 Rnm= 1.323
# # Pot 2 Z=42 Rmt= 1.174 Rnm= 1.371
# # Pot 3 Z= 8 Rmt= 1.035 Rnm= 1.117
# # Gam_ch=1.729E+00 H-L exch Vi= 0.000E+00 Vr= 0.000E+00
# # Mu=-6.910E+00eV kf=2.219E+00 Vint=-1.581E+01eV Rs_int= 1.634
# FMS rfms= 9.0000
# # PATH  Rmax=-1.000,  Keep_limit= 0.00, Heap_limit 0.00  Pwcrit= 2.50%
#  S02=0.950  Temp=   0.00  Debye_temp=   0.00  Global_sig2= 0.00000
#  Energy zero shift, vr, vi    0.00000E+00   0.00000E+00
#  Curved wave amplitude ratio filter   4.000%
#     file         sig2 tot  cw amp ratio   deg  nlegs   reff  inp sig2
#     0/   0 paths used
#  xsedge+ 50, used to normalize mu           2.4613E-04
#  -----------------------------------------------------------------------
#  omega    e    k    mu    mu0     chi     @#
    8983.510    -10.720  -1.000  3.62890E-02  5.34607E-02 -1.71717E-02
    8983.809    -10.422  -0.960  3.80978E-02  5.73377E-02 -1.92399E-02
    8984.095    -10.135  -0.920  4.00347E-02  6.16454E-02 -2.16108E-02
    8984.370     -9.861  -0.880  4.21126E-02  6.64473E-02 -2.43347E-02
    8984.632     -9.599  -0.840  4.43461E-02  7.18172E-02 -2.74711E-02
    8984.882     -9.349  -0.800  4.67515E-02  7.78405E-02 -3.10890E-02
    8985.119     -9.111  -0.760  4.93467E-02  8.46153E-02 -3.52686E-02
    8985.345     -8.885  -0.720  5.21513E-02  9.22525E-02 -4.01012E-02
    8985.558     -8.672  -0.680  5.51858E-02  1.00874E-01 -4.56884E-02
    8985.759     -8.471  -0.640  5.84708E-02  1.10609E-01 -5.21383E-02
    8985.948     -8.282  -0.600  6.20249E-02  1.21584E-01 -5.95589E-02
    8986.125     -8.105  -0.560  6.58618E-02  1.33906E-01 -6.80443E-02
    8986.290     -7.940  -0.520  6.99856E-02  1.47640E-01 -7.76547E-02
    8986.442     -7.788  -0.480  7.43849E-02  1.62772E-01 -8.83871E-02
    8986.582     -7.648  -0.440  7.90254E-02  1.79168E-01 -1.00143E-01
    8986.710     -7.520  -0.400  8.38442E-02  1.96544E-01 -1.12700E-01
    8986.826     -7.404  -0.360  8.87468E-02  2.14451E-01 -1.25704E-01
    8986.930     -7.300  -0.320  9.36110E-02  2.32306E-01 -1.38695E-01
    8987.021     -7.209  -0.280  9.82975E-02  2.49463E-01 -1.51165E-01
    8987.101     -7.130  -0.240  1.02664E-01  2.65300E-01 -1.62636E-01
    8987.168     -7.063  -0.200  1.06579E-01  2.79295E-01 -1.72716E-01
    8987.222     -7.008  -0.160  1.09931E-01  2.91069E-01 -1.81137E-01
    8987.265     -6.965  -0.120  1.12633E-01  3.00376E-01 -1.87743E-01
    8987.296     -6.935  -0.080  1.14620E-01  3.07082E-01 -1.92462E-01
    8987.320     -6.910   0.000  1.16266E-01  3.12471E-01 -1.96205E-01
    8987.375     -6.855   0.120  1.19991E-01  3.24615E-01 -2.04624E-01
    8987.418     -6.813   0.160  1.22895E-01  3.34046E-01 -2.11151E-01
    8987.472     -6.758   0.200  1.26667E-01  3.46102E-01 -2.19436E-01
    8987.539     -6.691   0.240  1.31338E-01  3.60598E-01 -2.29261E-01
    8987.619     -6.612   0.280  1.36953E-01  3.77266E-01 -2.40313E-01
    8987.710     -6.520   0.320  1.43480E-01  3.95642E-01 -2.52162E-01
    8987.814     -6.416   0.360  1.50909E-01  4.15203E-01 -2.64293E-01
    8987.930     -6.301   0.400  1.59244E-01  4.35410E-01 -2.76166E-01
    8988.058     -6.173   0.440  1.68406E-01  4.55731E-01 -2.87325E-01
    8988.198     -6.032   0.480  1.78279E-01  4.75753E-01 -2.97474E-01
    8988.350     -5.880   0.520  1.88730E-01  4.95225E-01 -3.06495E-01
    8988.515     -5.715   0.560  1.99505E-01  5.14011E-01 -3.14505E-01
    8988.692     -5.539   0.600  2.10330E-01  5.32097E-01 -3.21767E-01
    8988.881     -5.350   0.640  2.21018E-01  5.49543E-01 -3.28524E-01
    8989.082     -5.149   0.680  2.31693E-01  5.66377E-01 -3.34685E-01
    8989.295     -4.935   0.720  2.43338E-01  5.82726E-01 -3.39388E-01
    8989.521     -4.710   0.760  2.57651E-01  5.98695E-01 -3.41044E-01
    8989.758     -4.472   0.800  2.76461E-01  6.14315E-01 -3.37854E-01
    8990.008     -4.222   0.840  3.00819E-01  6.29671E-01 -3.28853E-01
    8990.270     -3.960   0.880  3.29852E-01  6.44809E-01 -3.14957E-01
    8990.545     -3.685   0.920  3.60112E-01  6.59764E-01 -2.99652E-01
    8990.831     -3.399   0.960  3.85867E-01  6.74581E-01 -2.88713E-01
    8991.130     -3.100   1.000  4.02327E-01  6.89230E-01 -2.86903E-01
    8991.441     -2.789   1.040  4.10961E-01  7.03757E-01 -2.92797E-01
    8991.764     -2.466   1.080  4.18483E-01  7.18117E-01 -2.99634E-01
    8992.099     -2.131   1.120  4.30657E-01  7.32323E-01 -3.01666E-01
    8992.447     -1.784   1.160  4.50569E-01  7.46378E-01 -2.95808E-01
    8992.806     -1.424   1.200  4.80279E-01  7.60203E-01 -2.79924E-01
    8993.178     -1.052   1.240  5.19424E-01  7.73836E-01 -2.54412E-01
    8993.562     -0.668   1.280  5.63523E-01  7.87215E-01 -2.23692E-01
    8993.959     -0.272   1.320  6.08743E-01  8.00332E-01 -1.91590E-01
    8994.367      0.137   1.360  6.57010E-01  8.13161E-01 -1.56152E-01
    8994.788      0.557   1.400  7.12740E-01  8.25674E-01 -1.12935E-01
    8995.220      0.990   1.440  7.74990E-01  8.37843E-01 -6.28527E-02
    8995.665      1.435   1.480  8.27624E-01  8.49639E-01 -2.20151E-02
    8996.123      1.892   1.520  8.54939E-01  8.61055E-01 -6.11619E-03
    8996.592      2.362   1.560  8.67945E-01  8.72066E-01 -4.12035E-03
    8997.074      2.843   1.600  8.89161E-01  8.82642E-01  6.51923E-03
    8997.567      3.337   1.640  9.28192E-01  8.92798E-01  3.53933E-02
    8998.073      3.843   1.680  9.78913E-01  9.02492E-01  7.64209E-02
    8998.591      4.361   1.720  1.03042E+00  9.11719E-01  1.18701E-01
    8999.122      4.892   1.760  1.07657E+00  9.20498E-01  1.56074E-01
    8999.664      5.434   1.800  1.11853E+00  9.28808E-01  1.89719E-01
    9000.219      5.989   1.840  1.16122E+00  9.36626E-01  2.24593E-01
    9000.786      6.556   1.880  1.20717E+00  9.43974E-01  2.63199E-01
    9001.365      7.135   1.920  1.25722E+00  9.50856E-01  3.06360E-01
    9001.956      7.726   1.960  1.31117E+00  9.57275E-01  3.53900E-01
    9002.560      8.330   2.000  1.35987E+00  9.63213E-01  3.96654E-01
    9003.176      8.945   2.040  1.38682E+00  9.68738E-01  4.18084E-01
    9003.804      9.573   2.080  1.38766E+00  9.73794E-01  4.13863E-01
    9004.444     10.213   2.120  1.36858E+00  9.78429E-01  3.90146E-01
    9005.096     10.866   2.160  1.33116E+00  9.82670E-01  3.48492E-01
    9005.760     11.530   2.200  1.27486E+00  9.86483E-01  2.88376E-01
    9006.437     12.207   2.240  1.20692E+00  9.89937E-01  2.16987E-01
    9007.126     12.896   2.280  1.13725E+00  9.93003E-01  1.44250E-01
    9007.827     13.597   2.320  1.06918E+00  9.95747E-01  7.34319E-02
    9008.540     14.310   2.360  1.00876E+00  9.98139E-01  1.06179E-02
    9009.266     15.035   2.400  9.69736E-01  1.00021E+00 -3.04721E-02
    9010.003     15.773   2.440  9.62202E-01  1.00200E+00 -3.98016E-02
    9010.753     16.523   2.480  9.85270E-01  1.00350E+00 -1.82262E-02
    9011.515     17.285   2.520  1.02716E+00  1.00475E+00  2.24060E-02
    9012.289     18.059   2.560  1.07004E+00  1.00575E+00  6.42924E-02
    9013.075     18.845   2.600  1.09544E+00  1.00654E+00  8.88927E-02
    9013.874     19.644   2.640  1.09025E+00  1.00711E+00  8.31311E-02
    9014.685     20.455   2.680  1.07018E+00  1.00749E+00  6.26919E-02
    9015.508     21.278   2.720  1.04547E+00  1.00771E+00  3.77652E-02
    9016.343     22.113   2.760  1.01913E+00  1.00777E+00  1.13629E-02
    9017.190     22.960   2.800  9.93889E-01  1.00767E+00 -1.37847E-02
    9018.050     23.820   2.840  9.72884E-01  1.00745E+00 -3.45710E-02
    9018.922     24.691   2.880  9.57260E-01  1.00714E+00 -4.98775E-02
    9019.805     25.575   2.920  9.45591E-01  1.00671E+00 -6.11158E-02
    9020.702     26.471   2.960  9.35929E-01  1.00619E+00 -7.02613E-02
    9021.610     27.380   3.000  9.26521E-01  1.00559E+00 -7.90731E-02
    9022.530     28.300   3.040  9.16676E-01  1.00495E+00 -8.82721E-02
    9023.463     29.233   3.080  9.06858E-01  1.00426E+00 -9.73983E-02
    9024.408     30.178   3.120  8.97880E-01  1.00352E+00 -1.05642E-01
    9025.365     31.135   3.160  8.90192E-01  1.00275E+00 -1.12560E-01
    9026.334     32.104   3.200  8.83868E-01  1.00197E+00 -1.18102E-01
    9027.316     33.085   3.240  8.78850E-01  1.00118E+00 -1.22331E-01
    9028.309     34.079   3.280  8.74986E-01  1.00037E+00 -1.25381E-01
    9029.315     35.085   3.320  8.72407E-01  9.99552E-01 -1.27145E-01
    9030.333     36.103   3.360  8.71521E-01  9.98762E-01 -1.27240E-01
    9031.363     37.133   3.400  8.72712E-01  9.97979E-01 -1.25267E-01
    9032.406     38.176   3.440  8.76251E-01  9.97226E-01 -1.20975E-01
    9033.460     39.230   3.480  8.82408E-01  9.96506E-01 -1.14098E-01
    9034.527     40.297   3.520  8.91371E-01  9.95800E-01 -1.04429E-01
    9035.606     41.376   3.560  9.03126E-01  9.95130E-01 -9.20045E-02
    9036.697     42.467   3.600  9.17518E-01  9.94500E-01 -7.69812E-02
    9037.801     43.570   3.640  9.34113E-01  9.93930E-01 -5.98166E-02
    9038.916     44.686   3.680  9.52042E-01  9.93379E-01 -4.13374E-02
    9040.044     45.814   3.720  9.70300E-01  9.92872E-01 -2.25723E-02
    9041.184     46.954   3.760  9.88103E-01  9.92429E-01 -4.32579E-03
    9042.336     48.106   3.800  1.00481E+00  9.92030E-01  1.27784E-02
    9043.501     49.270   3.840  1.01990E+00  9.91676E-01  2.82231E-02
    9044.677     50.447   3.880  1.03294E+00  9.91388E-01  4.15536E-02
    9045.866     51.635   3.920  1.04337E+00  9.91146E-01  5.22251E-02
    9047.067     52.836   3.960  1.05059E+00  9.90948E-01  5.96429E-02
    9048.280     54.049   4.000  1.05430E+00  9.90793E-01  6.35103E-02
    9049.505     55.275   4.040  1.05464E+00  9.90705E-01  6.39327E-02
    9050.743     56.512   4.080  1.05207E+00  9.90662E-01  6.14082E-02
    9051.992     57.762   4.120  1.04734E+00  9.90661E-01  5.66791E-02
    9053.254     59.024   4.160  1.04139E+00  9.90704E-01  5.06896E-02
    9054.528     60.298   4.200  1.03515E+00  9.90810E-01  4.43360E-02
    9055.814     61.584   4.240  1.02938E+00  9.90937E-01  3.84437E-02
    9057.113     62.883   4.280  1.02486E+00  9.91126E-01  3.37306E-02
    9058.423     64.193   4.320  1.02207E+00  9.91355E-01  3.07156E-02
    9059.746     65.516   4.360  1.02124E+00  9.91600E-01  2.96421E-02
    9061.081     66.851   4.400  1.02233E+00  9.91904E-01  3.04285E-02
    9062.429     68.198   4.440  1.02495E+00  9.92224E-01  3.27247E-02
    9063.788     69.558   4.480  1.02850E+00  9.92577E-01  3.59256E-02
    9065.160     70.929   4.520  1.03234E+00  9.92964E-01  3.93712E-02
    9066.543     72.313   4.560  1.03596E+00  9.93362E-01  4.25937E-02
    9067.939     73.709   4.600  1.03921E+00  9.93789E-01  4.54229E-02
    9069.347     75.117   4.640  1.04216E+00  9.94225E-01  4.79390E-02
    9070.768     76.538   4.680  1.04498E+00  9.94689E-01  5.02948E-02
    9072.200     77.970   4.720  1.04757E+00  9.95157E-01  5.24116E-02
    9073.645     79.415   4.760  1.04948E+00  9.95627E-01  5.38540E-02
    9075.102     80.872   4.800  1.05003E+00  9.96101E-01  5.39338E-02
    9076.571     82.341   4.840  1.04857E+00  9.96595E-01  5.19736E-02
    9078.052     83.822   4.880  1.04463E+00  9.97068E-01  4.75648E-02
    9079.546     85.316   4.920  1.03820E+00  9.97536E-01  4.06649E-02
    9081.052     86.821   4.960  1.02952E+00  9.98001E-01  3.15164E-02
    9082.570     88.339   5.000  1.01900E+00  9.98462E-01  2.05383E-02
    9084.100     89.869   5.040  1.00712E+00  9.98917E-01  8.19870E-03
    9085.642     91.412   5.080  9.94304E-01  9.99341E-01 -5.03749E-03
    9087.196     92.966   5.120  9.81085E-01  9.99733E-01 -1.86481E-02
    9088.763     94.533   5.160  9.68142E-01  1.00014E+00 -3.19945E-02
    9090.342     96.112   5.200  9.56216E-01  1.00049E+00 -4.42706E-02
    9091.933     97.703   5.240  9.46192E-01  1.00082E+00 -5.46305E-02
    9093.536     99.306   5.280  9.38808E-01  1.00112E+00 -6.23156E-02
    9095.152    100.921   5.320  9.34554E-01  1.00141E+00 -6.68578E-02
    9096.779    102.549   5.360  9.33505E-01  1.00166E+00 -6.81594E-02
    9098.419    104.189   5.400  9.35335E-01  1.00188E+00 -6.65440E-02
    9100.071    105.841   5.440  9.39387E-01  1.00205E+00 -6.26654E-02
    9101.735    107.505   5.480  9.44826E-01  1.00219E+00 -5.73604E-02
    9103.412    109.181   5.520  9.50848E-01  1.00228E+00 -5.14352E-02
    9105.100    110.870   5.560  9.56865E-01  1.00236E+00 -4.54986E-02
    9106.801    112.571   5.600  9.62578E-01  1.00238E+00 -3.98056E-02
    9108.514    114.284   5.640  9.68113E-01  1.00239E+00 -3.42716E-02
    9110.239    116.009   5.680  9.73742E-01  1.00235E+00 -2.86048E-02
    9111.977    117.746   5.720  9.79683E-01  1.00225E+00 -2.25629E-02
    9113.726    119.496   5.760  9.86050E-01  1.00213E+00 -1.60776E-02
    9115.488    121.258   5.800  9.92690E-01  1.00197E+00 -9.28120E-03
    9117.262    123.032   5.840  9.99250E-01  1.00175E+00 -2.50202E-03
    9119.048    124.818   5.880  1.00525E+00  1.00152E+00  3.72790E-03
    9120.846    126.616   5.920  1.00999E+00  1.00125E+00  8.73566E-03
    9122.657    128.426   5.960  1.01278E+00  1.00095E+00  1.18339E-02
    9124.479    130.249   6.000  1.01306E+00  1.00058E+00  1.24832E-02
