# # comment:                                                     FEFF 9.9.1  
# # Source:
# # Structure
# # Reduced
# # space
# # abc:
# # angles:
# # sites:
# # POT  SCF 100  7.0000   0, screened core-hole, AFOLP (folp(0)= 1.150)
# # Abs   Z=29 Rmt= 1.163 Rnm= 1.270 K  shell
# # Pot 1 Z=20 Rmt= 1.630 Rnm= 1.706
# # Pot 2 Z=63 Rmt= 1.684 Rnm= 1.758
# # Pot 3 Z=29 Rmt= 1.160 Rnm= 1.268
# # Pot 4 Z= 8 Rmt= 1.062 Rnm= 1.117
# # Gam_ch=1.729E+00 H-L exch Vi= 0.000E+00 Vr= 0.000E+00
# # Mu=-9.577E+00eV kf=2.018E+00 Vint=-1.858E+01eV Rs_int= 1.797
# FMS rfms= 9.0000
# # PATH  Rmax=-1.000,  Keep_limit= 0.00, Heap_limit 0.00  Pwcrit= 2.50%
#  S02=0.950  Temp=   0.00  Debye_temp=   0.00  Global_sig2= 0.00000
#  Energy zero shift, vr, vi    0.00000E+00   0.00000E+00
#  Curved wave amplitude ratio filter   4.000%
#     file         sig2 tot  cw amp ratio   deg  nlegs   reff  inp sig2
#     0/   0 paths used
#  xsedge+ 50, used to normalize mu           2.4777E-04
#  -----------------------------------------------------------------------
#  omega    e    k    mu    mu0     chi     @#
    8985.056    -13.387  -1.000  3.55965E-02  5.02534E-02 -1.46570E-02
    8985.354    -13.088  -0.960  3.75208E-02  5.38288E-02 -1.63081E-02
    8985.641    -12.802  -0.920  3.96024E-02  5.77971E-02 -1.81947E-02
    8985.915    -12.527  -0.880  4.18590E-02  6.22159E-02 -2.03569E-02
    8986.177    -12.265  -0.840  4.43100E-02  6.71520E-02 -2.28420E-02
    8986.427    -12.015  -0.800  4.69772E-02  7.26832E-02 -2.57060E-02
    8986.665    -11.778  -0.760  4.98842E-02  7.88984E-02 -2.90142E-02
    8986.891    -11.552  -0.720  5.30567E-02  8.58983E-02 -3.28416E-02
    8987.104    -11.339  -0.680  5.65208E-02  9.37935E-02 -3.72727E-02
    8987.305    -11.138  -0.640  6.03028E-02  1.02701E-01 -4.23981E-02
    8987.494    -10.949  -0.600  6.44261E-02  1.12735E-01 -4.83090E-02
    8987.671    -10.772  -0.560  6.89080E-02  1.23994E-01 -5.50859E-02
    8987.835    -10.607  -0.520  7.37549E-02  1.36535E-01 -6.27803E-02
    8987.988    -10.455  -0.480  7.89553E-02  1.50346E-01 -7.13902E-02
    8988.128    -10.315  -0.440  8.44727E-02  1.65304E-01 -8.08311E-02
    8988.256    -10.187  -0.400  9.02382E-02  1.81150E-01 -9.09120E-02
    8988.372    -10.071  -0.360  9.61472E-02  1.97477E-01 -1.01330E-01
    8988.475     -9.967  -0.320  1.02061E-01  2.13754E-01 -1.11693E-01
    8988.567     -9.876  -0.280  1.07816E-01  2.29394E-01 -1.21578E-01
    8988.646     -9.796  -0.240  1.13237E-01  2.43830E-01 -1.30593E-01
    8988.713     -9.729  -0.200  1.18151E-01  2.56588E-01 -1.38436E-01
    8988.768     -9.675  -0.160  1.22404E-01  2.67320E-01 -1.44916E-01
    8988.811     -9.632  -0.120  1.25864E-01  2.75805E-01 -1.49942E-01
    8988.841     -9.601  -0.080  1.28428E-01  2.81918E-01 -1.53490E-01
    8988.866     -9.577   0.000  1.30576E-01  2.86830E-01 -1.56255E-01
    8988.920     -9.522   0.120  1.35367E-01  2.97904E-01 -1.62537E-01
    8988.963     -9.479   0.160  1.39154E-01  3.06525E-01 -1.67370E-01
    8989.018     -9.425   0.200  1.44134E-01  3.17522E-01 -1.73387E-01
    8989.085     -9.358   0.240  1.50396E-01  3.30750E-01 -1.80354E-01
    8989.164     -9.278   0.280  1.57986E-01  3.45947E-01 -1.87961E-01
    8989.256     -9.187   0.320  1.67009E-01  3.62753E-01 -1.95744E-01
    8989.359     -9.083   0.360  1.77411E-01  3.80650E-01 -2.03239E-01
    8989.475     -8.967   0.400  1.89117E-01  3.99133E-01 -2.10016E-01
    8989.603     -8.839   0.440  2.02023E-01  4.17763E-01 -2.15739E-01
    8989.743     -8.699   0.480  2.15980E-01  4.36162E-01 -2.20182E-01
    8989.896     -8.547   0.520  2.30891E-01  4.54085E-01 -2.23194E-01
    8990.060     -8.382   0.560  2.46939E-01  4.71425E-01 -2.24486E-01
    8990.237     -8.205   0.600  2.64552E-01  4.88178E-01 -2.23627E-01
    8990.426     -8.016   0.640  2.84245E-01  5.04395E-01 -2.20151E-01
    8990.627     -7.815   0.680  3.05932E-01  5.20101E-01 -2.14168E-01
    8990.841     -7.602   0.720  3.28159E-01  5.35434E-01 -2.07275E-01
    8991.066     -7.376   0.760  3.47878E-01  5.50469E-01 -2.02591E-01
    8991.304     -7.139   0.800  3.62396E-01  5.65256E-01 -2.02860E-01
    8991.554     -6.889   0.840  3.71959E-01  5.79869E-01 -2.07910E-01
    8991.816     -6.627   0.880  3.79017E-01  5.94354E-01 -2.15337E-01
    8992.090     -6.352   0.920  3.84717E-01  6.08761E-01 -2.24044E-01
    8992.377     -6.066   0.960  3.88125E-01  6.23092E-01 -2.34967E-01
    8992.676     -5.767   1.000  3.89269E-01  6.37380E-01 -2.48110E-01
    8992.986     -5.456   1.040  3.90220E-01  6.51625E-01 -2.61406E-01
    8993.310     -5.133   1.080  3.93410E-01  6.65826E-01 -2.72416E-01
    8993.645     -4.798   1.120  3.99724E-01  6.79972E-01 -2.80248E-01
    8993.992     -4.450   1.160  4.08211E-01  6.94028E-01 -2.85816E-01
    8994.352     -4.091   1.200  4.16394E-01  7.08015E-01 -2.91621E-01
    8994.724     -3.719   1.240  4.21073E-01  7.21893E-01 -3.00820E-01
    8995.108     -3.335   1.280  4.22767E-01  7.35638E-01 -3.12871E-01
    8995.504     -2.938   1.320  4.27949E-01  7.49243E-01 -3.21294E-01
    8995.913     -2.530   1.360  4.43487E-01  7.62659E-01 -3.19172E-01
    8996.333     -2.109   1.400  4.71244E-01  7.75858E-01 -3.04614E-01
    8996.766     -1.677   1.440  5.07970E-01  7.88810E-01 -2.80840E-01
    8997.211     -1.232   1.480  5.47513E-01  8.01528E-01 -2.54015E-01
    8997.668     -0.774   1.520  5.80408E-01  8.13941E-01 -2.33533E-01
    8998.138     -0.305   1.560  6.00417E-01  8.26058E-01 -2.25641E-01
    8998.619      0.177   1.600  6.16776E-01  8.37850E-01 -2.21073E-01
    8999.113      0.670   1.640  6.49423E-01  8.49269E-01 -1.99846E-01
    8999.619      1.176   1.680  7.12567E-01  8.60328E-01 -1.47761E-01
    9000.137      1.694   1.720  8.09386E-01  8.70997E-01 -6.16109E-02
    9000.667      2.225   1.760  9.31481E-01  8.81251E-01  5.02299E-02
    9001.210      2.767   1.800  1.05283E+00  8.91086E-01  1.61742E-01
    9001.765      3.322   1.840  1.13794E+00  9.00515E-01  2.37428E-01
    9002.332      3.889   1.880  1.17149E+00  9.09476E-01  2.62018E-01
    9002.911      4.468   1.920  1.17309E+00  9.18029E-01  2.55063E-01
    9003.502      5.059   1.960  1.17757E+00  9.26110E-01  2.51459E-01
    9004.106      5.663   2.000  1.19887E+00  9.33759E-01  2.65108E-01
    9004.721      6.279   2.040  1.21529E+00  9.40958E-01  2.74335E-01
    9005.349      6.907   2.080  1.21118E+00  9.47709E-01  2.63476E-01
    9005.989      7.547   2.120  1.20438E+00  9.54033E-01  2.50342E-01
    9006.641      8.199   2.160  1.21669E+00  9.59913E-01  2.56781E-01
    9007.306      8.863   2.200  1.24775E+00  9.65376E-01  2.82371E-01
    9007.983      9.540   2.240  1.28080E+00  9.70405E-01  3.10396E-01
    9008.671     10.229   2.280  1.30042E+00  9.75046E-01  3.25370E-01
    9009.372     10.930   2.320  1.30206E+00  9.79284E-01  3.22778E-01
    9010.086     11.643   2.360  1.28797E+00  9.83148E-01  3.04820E-01
    9010.811     12.369   2.400  1.25825E+00  9.86644E-01  2.71609E-01
    9011.549     13.106   2.440  1.21325E+00  9.89778E-01  2.23468E-01
    9012.299     13.856   2.480  1.16863E+00  9.92580E-01  1.76053E-01
    9013.061     14.618   2.520  1.13228E+00  9.95056E-01  1.37226E-01
    9013.835     15.392   2.560  1.10327E+00  9.97235E-01  1.06036E-01
    9014.621     16.179   2.600  1.07964E+00  9.99104E-01  8.05388E-02
    9015.420     16.977   2.640  1.05935E+00  1.00071E+00  5.86349E-02
    9016.230     17.788   2.680  1.04097E+00  1.00207E+00  3.89009E-02
    9017.053     18.611   2.720  1.02409E+00  1.00316E+00  2.09236E-02
    9017.889     19.446   2.760  1.00885E+00  1.00404E+00  4.80779E-03
    9018.736     20.293   2.800  9.95468E-01  1.00471E+00 -9.23969E-03
    9019.595     21.153   2.840  9.84164E-01  1.00518E+00 -2.10129E-02
    9020.467     22.025   2.880  9.74481E-01  1.00547E+00 -3.09925E-02
    9021.351     22.908   2.920  9.65389E-01  1.00561E+00 -4.02177E-02
    9022.247     23.805   2.960  9.55766E-01  1.00558E+00 -4.98152E-02
    9023.155     24.713   3.000  9.44744E-01  1.00542E+00 -6.06805E-02
    9024.076     25.633   3.040  9.32040E-01  1.00514E+00 -7.31042E-02
    9025.009     26.566   3.080  9.18040E-01  1.00475E+00 -8.67061E-02
    9025.954     27.511   3.120  9.03628E-01  1.00424E+00 -1.00609E-01
    9026.911     28.468   3.160  8.89732E-01  1.00366E+00 -1.13932E-01
    9027.880     29.437   3.200  8.77100E-01  1.00301E+00 -1.25913E-01
    9028.861     30.419   3.240  8.66460E-01  1.00229E+00 -1.35829E-01
    9029.855     31.412   3.280  8.58180E-01  1.00154E+00 -1.43359E-01
    9030.861     32.418   3.320  8.52433E-01  1.00072E+00 -1.48290E-01
    9031.879     33.436   3.360  8.49474E-01  9.99869E-01 -1.50394E-01
    9032.909     34.466   3.400  8.49655E-01  9.99000E-01 -1.49345E-01
    9033.951     35.509   3.440  8.52929E-01  9.98101E-01 -1.45172E-01
    9035.006     36.563   3.480  8.59235E-01  9.97195E-01 -1.37961E-01
    9036.073     37.630   3.520  8.68397E-01  9.96287E-01 -1.27890E-01
    9037.152     38.709   3.560  8.80022E-01  9.95381E-01 -1.15359E-01
    9038.243     39.800   3.600  8.93720E-01  9.94500E-01 -1.00781E-01
    9039.346     40.904   3.640  9.09081E-01  9.93624E-01 -8.45435E-02
    9040.462     42.019   3.680  9.25658E-01  9.92756E-01 -6.70976E-02
    9041.590     43.147   3.720  9.42738E-01  9.91919E-01 -4.91809E-02
    9042.730     44.287   3.760  9.59571E-01  9.91117E-01 -3.15464E-02
    9043.882     45.439   3.800  9.75289E-01  9.90330E-01 -1.50405E-02
    9045.046     46.604   3.840  9.89027E-01  9.89601E-01 -5.74943E-04
    9046.223     47.780   3.880  1.00013E+00  9.88912E-01  1.12167E-02
    9047.411     48.969   3.920  1.00842E+00  9.88241E-01  2.01760E-02
    9048.612     50.170   3.960  1.01401E+00  9.87633E-01  2.63798E-02
    9049.825     51.383   4.000  1.01700E+00  9.87067E-01  2.99347E-02
    9051.051     52.608   4.040  1.01747E+00  9.86544E-01  3.09270E-02
    9052.288     53.846   4.080  1.01565E+00  9.86064E-01  2.95822E-02
    9053.538     55.095   4.120  1.01202E+00  9.85649E-01  2.63718E-02
    9054.800     56.357   4.160  1.00749E+00  9.85279E-01  2.22072E-02
    9056.074     57.631   4.200  1.00301E+00  9.84951E-01  1.80556E-02
    9057.360     58.917   4.240  9.99372E-01  9.84668E-01  1.47039E-02
    9058.658     60.216   4.280  9.97238E-01  9.84451E-01  1.27865E-02
    9059.969     61.526   4.320  9.97168E-01  9.84279E-01  1.28894E-02
    9061.292     62.849   4.360  9.99706E-01  9.84149E-01  1.55574E-02
    9062.627     64.184   4.400  1.00515E+00  9.84061E-01  2.10853E-02
    9063.974     65.532   4.440  1.01351E+00  9.84038E-01  2.94681E-02
    9065.334     66.891   4.480  1.02425E+00  9.84034E-01  4.02167E-02
    9066.705     68.263   4.520  1.03659E+00  9.84092E-01  5.24983E-02
    9068.089     69.646   4.560  1.04952E+00  9.84169E-01  6.53546E-02
    9069.485     71.042   4.600  1.06222E+00  9.84307E-01  7.79086E-02
    9070.893     72.450   4.640  1.07382E+00  9.84484E-01  8.93339E-02
    9072.313     73.871   4.680  1.08335E+00  9.84674E-01  9.86753E-02
    9073.746     75.303   4.720  1.08963E+00  9.84901E-01  1.04725E-01
    9075.191     76.748   4.760  1.09149E+00  9.85165E-01  1.06322E-01
    9076.648     78.205   4.800  1.08839E+00  9.85464E-01  1.02925E-01
    9078.117     79.674   4.840  1.08073E+00  9.85795E-01  9.49386E-02
    9079.598     81.156   4.880  1.06962E+00  9.86136E-01  8.34856E-02
    9081.092     82.649   4.920  1.05630E+00  9.86484E-01  6.98201E-02
    9082.597     84.155   4.960  1.04163E+00  9.86859E-01  5.47721E-02
    9084.115     85.673   5.000  1.02604E+00  9.87242E-01  3.87975E-02
    9085.645     87.203   5.040  1.00998E+00  9.87650E-01  2.23293E-02
    9087.188     88.745   5.080  9.94033E-01  9.88040E-01  5.99310E-03
    9088.742     90.299   5.120  9.79037E-01  9.88453E-01 -9.41593E-03
    9090.309     91.866   5.160  9.65668E-01  9.88868E-01 -2.31997E-02
    9091.888     93.445   5.200  9.54360E-01  9.89282E-01 -3.49215E-02
    9093.479     95.036   5.240  9.45203E-01  9.89693E-01 -4.44892E-02
    9095.082     96.639   5.280  9.38011E-01  9.90079E-01 -5.20676E-02
    9096.697     98.255   5.320  9.32591E-01  9.90482E-01 -5.78910E-02
    9098.325     99.882   5.360  9.28826E-01  9.90858E-01 -6.20322E-02
    9099.965    101.522   5.400  9.26887E-01  9.91227E-01 -6.43400E-02
    9101.617    103.174   5.440  9.27022E-01  9.91564E-01 -6.45421E-02
    9103.281    104.838   5.480  9.29423E-01  9.91891E-01 -6.24672E-02
    9104.957    106.515   5.520  9.33997E-01  9.92186E-01 -5.81888E-02
    9106.646    108.203   5.560  9.40456E-01  9.92471E-01 -5.20147E-02
    9108.347    109.904   5.600  9.48399E-01  9.92721E-01 -4.43224E-02
    9110.060    111.617   5.640  9.57404E-01  9.92937E-01 -3.55327E-02
    9111.785    113.342   5.680  9.66945E-01  9.93140E-01 -2.61951E-02
    9113.522    115.080   5.720  9.76187E-01  9.93308E-01 -1.71204E-02
    9115.272    116.829   5.760  9.84234E-01  9.93437E-01 -9.20267E-03
    9117.033    118.591   5.800  9.90281E-01  9.93530E-01 -3.24850E-03
    9118.807    120.365   5.840  9.93841E-01  9.93608E-01  2.32811E-04
    9120.594    122.151   5.880  9.94849E-01  9.93626E-01  1.22283E-03
    9122.392    123.949   5.920  9.93789E-01  9.93630E-01  1.59080E-04
    9124.202    125.760   5.960  9.91186E-01  9.93592E-01 -2.40607E-03
    9126.025    127.582   6.000  9.87265E-01  9.93495E-01 -6.22976E-03
