# # comment:                                                     FEFF 9.9.1  
# # Source:
# # Structure
# # Reduced
# # space
# # abc:
# # angles:107.580080
# # sites:
# # POT  SCF 100  7.0000   0, screened core-hole, AFOLP (folp(0)= 1.150)
# # Abs   Z=29 Rmt= 1.244 Rnm= 1.314 K  shell
# # Pot 1 Z=56 Rmt= 1.900 Rnm= 1.968
# # Pot 2 Z=38 Rmt= 1.789 Rnm= 1.855
# # Pot 3 Z=29 Rmt= 1.231 Rnm= 1.306
# # Pot 4 Z= 8 Rmt= 1.079 Rnm= 1.129
# # Gam_ch=1.729E+00 H-L exch Vi= 0.000E+00 Vr= 0.000E+00
# # Mu=-1.015E+01eV kf=1.924E+00 Vint=-1.733E+01eV Rs_int= 1.885
# FMS rfms= 9.0000
# # PATH  Rmax=-1.000,  Keep_limit= 0.00, Heap_limit 0.00  Pwcrit= 2.50%
#  S02=0.950  Temp=   0.00  Debye_temp=   0.00  Global_sig2= 0.00000
#  Energy zero shift, vr, vi    0.00000E+00   0.00000E+00
#  Curved wave amplitude ratio filter   4.000%
#     file         sig2 tot  cw amp ratio   deg  nlegs   reff  inp sig2
#     0/   0 paths used
#  xsedge+ 50, used to normalize mu           2.4471E-04
#  -----------------------------------------------------------------------
#  omega    e    k    mu    mu0     chi     @#
    8985.254    -13.960  -1.000  3.35436E-02  5.27752E-02 -1.92316E-02
    8985.553    -13.661  -0.960  3.50910E-02  5.65386E-02 -2.14476E-02
    8985.839    -13.374  -0.920  3.67453E-02  6.07119E-02 -2.39666E-02
    8986.114    -13.100  -0.880  3.85192E-02  6.53543E-02 -2.68351E-02
    8986.376    -12.838  -0.840  4.04278E-02  7.05347E-02 -3.01069E-02
    8986.626    -12.588  -0.800  4.24885E-02  7.63329E-02 -3.38444E-02
    8986.864    -12.350  -0.760  4.47217E-02  8.28400E-02 -3.81184E-02
    8987.089    -12.125  -0.720  4.71503E-02  9.01591E-02 -4.30088E-02
    8987.303    -11.911  -0.680  4.97999E-02  9.84032E-02 -4.86033E-02
    8987.504    -11.710  -0.640  5.26976E-02  1.07691E-01 -5.49938E-02
    8987.693    -11.521  -0.600  5.58698E-02  1.18140E-01 -6.22705E-02
    8987.869    -11.344  -0.560  5.93391E-02  1.29849E-01 -7.05100E-02
    8988.034    -11.180  -0.520  6.31186E-02  1.42876E-01 -7.97573E-02
    8988.186    -11.027  -0.480  6.72040E-02  1.57206E-01 -9.00015E-02
    8988.327    -10.887  -0.440  7.15654E-02  1.72713E-01 -1.01148E-01
    8988.455    -10.759  -0.400  7.61390E-02  1.89132E-01 -1.12993E-01
    8988.570    -10.643  -0.360  8.08240E-02  2.06043E-01 -1.25219E-01
    8988.674    -10.540  -0.320  8.54877E-02  2.22904E-01 -1.37416E-01
    8988.766    -10.448  -0.280  8.99790E-02  2.39109E-01 -1.49130E-01
    8988.845    -10.369  -0.240  9.41474E-02  2.54076E-01 -1.59929E-01
    8988.912    -10.302  -0.200  9.78601E-02  2.67314E-01 -1.69454E-01
    8988.967    -10.247  -0.160  1.01012E-01  2.78460E-01 -1.77447E-01
    8989.009    -10.204  -0.120  1.03531E-01  2.87279E-01 -1.83748E-01
    8989.040    -10.174  -0.080  1.05367E-01  2.93638E-01 -1.88270E-01
    8989.064    -10.150   0.000  1.06880E-01  2.98750E-01 -1.91870E-01
    8989.119    -10.095   0.120  1.10291E-01  3.10289E-01 -1.99999E-01
    8989.162    -10.052   0.160  1.12904E-01  3.19275E-01 -2.06371E-01
    8989.217     -9.997   0.200  1.16212E-01  3.30754E-01 -2.14542E-01
    8989.284     -9.930   0.240  1.20185E-01  3.44609E-01 -2.24424E-01
    8989.363     -9.851   0.280  1.24735E-01  3.60591E-01 -2.35856E-01
    8989.454     -9.759   0.320  1.29670E-01  3.78289E-01 -2.48619E-01
    8989.558     -9.656   0.360  1.34718E-01  3.97258E-01 -2.62540E-01
    8989.674     -9.540   0.400  1.39554E-01  4.17001E-01 -2.77447E-01
    8989.802     -9.412   0.440  1.43722E-01  4.37022E-01 -2.93300E-01
    8989.942     -9.272   0.480  1.46896E-01  4.56987E-01 -3.10092E-01
    8990.094     -9.119   0.520  1.48899E-01  4.76631E-01 -3.27731E-01
    8990.259     -8.955   0.560  1.49932E-01  4.95866E-01 -3.45934E-01
    8990.436     -8.778   0.600  1.50280E-01  5.14619E-01 -3.64339E-01
    8990.625     -8.589   0.640  1.50415E-01  5.32976E-01 -3.82561E-01
    8990.826     -8.388   0.680  1.50613E-01  5.50934E-01 -4.00320E-01
    8991.039     -8.174   0.720  1.51413E-01  5.68599E-01 -4.17186E-01
    8991.265     -7.949   0.760  1.53523E-01  5.86037E-01 -4.32514E-01
    8991.503     -7.711   0.800  1.57787E-01  6.03284E-01 -4.45498E-01
    8991.753     -7.461   0.840  1.65102E-01  6.20384E-01 -4.55282E-01
    8992.015     -7.199   0.880  1.76338E-01  6.37345E-01 -4.61007E-01
    8992.289     -6.925   0.920  1.92503E-01  6.54208E-01 -4.61704E-01
    8992.576     -6.638   0.960  2.14611E-01  6.70958E-01 -4.56347E-01
    8992.874     -6.340   1.000  2.43470E-01  6.87574E-01 -4.44104E-01
    8993.185     -6.029   1.040  2.79104E-01  7.04044E-01 -4.24940E-01
    8993.508     -5.706   1.080  3.20369E-01  7.20332E-01 -3.99963E-01
    8993.844     -5.370   1.120  3.65030E-01  7.36435E-01 -3.71406E-01
    8994.191     -5.023   1.160  4.10445E-01  7.52287E-01 -3.41842E-01
    8994.551     -4.663   1.200  4.53758E-01  7.67858E-01 -3.14100E-01
    8994.922     -4.291   1.240  4.91114E-01  7.83118E-01 -2.92004E-01
    8995.307     -3.907   1.280  5.21018E-01  7.98032E-01 -2.77014E-01
    8995.703     -3.511   1.320  5.47299E-01  8.12547E-01 -2.65249E-01
    8996.111     -3.103   1.360  5.75770E-01  8.26630E-01 -2.50860E-01
    8996.532     -2.682   1.400  6.12094E-01  8.40248E-01 -2.28154E-01
    8996.965     -2.249   1.440  6.62533E-01  8.53369E-01 -1.90836E-01
    8997.410     -1.804   1.480  7.28678E-01  8.65982E-01 -1.37305E-01
    8997.867     -1.347   1.520  7.98993E-01  8.78038E-01 -7.90449E-02
    8998.336     -0.878   1.560  8.64728E-01  8.89529E-01 -2.48015E-02
    8998.818     -0.396   1.600  9.49582E-01  9.00452E-01  4.91303E-02
    8999.312      0.098   1.640  1.08537E+00  9.10779E-01  1.74593E-01
    8999.818      0.604   1.680  1.25002E+00  9.20530E-01  3.29486E-01
    9000.336      1.122   1.720  1.35488E+00  9.29665E-01  4.25220E-01
    9000.866      1.652   1.760  1.36587E+00  9.38205E-01  4.27670E-01
    9001.409      2.195   1.800  1.38007E+00  9.46133E-01  4.33933E-01
    9001.963      2.750   1.840  1.46098E+00  9.53496E-01  5.07483E-01
    9002.530      3.316   1.880  1.56541E+00  9.60298E-01  6.05107E-01
    9003.109      3.896   1.920  1.60732E+00  9.66508E-01  6.40817E-01
    9003.701      4.487   1.960  1.54166E+00  9.72196E-01  5.69467E-01
    9004.304      5.090   2.000  1.41004E+00  9.77371E-01  4.32670E-01
    9004.920      5.706   2.040  1.27686E+00  9.82024E-01  2.94837E-01
    9005.548      6.334   2.080  1.17397E+00  9.86186E-01  1.87786E-01
    9006.188      6.974   2.120  1.10278E+00  9.89910E-01  1.12875E-01
    9006.840      7.626   2.160  1.05585E+00  9.93188E-01  6.26628E-02
    9007.505      8.291   2.200  1.02841E+00  9.96052E-01  3.23582E-02
    9008.181      8.967   2.240  1.01430E+00  9.98537E-01  1.57629E-02
    9008.870      9.656   2.280  9.97714E-01  1.00068E+00 -2.96165E-03
    9009.571     10.357   2.320  9.68346E-01  1.00246E+00 -3.41148E-02
    9010.284     11.071   2.360  9.50750E-01  1.00394E+00 -5.31930E-02
    9011.010     11.796   2.400  9.50565E-01  1.00514E+00 -5.45717E-02
    9011.747     12.534   2.440  9.60898E-01  1.00605E+00 -4.51560E-02
    9012.497     13.283   2.480  9.77459E-01  1.00675E+00 -2.92871E-02
    9013.259     14.045   2.520  9.96836E-01  1.00723E+00 -1.03893E-02
    9014.033     14.820   2.560  1.01518E+00  1.00748E+00  7.69289E-03
    9014.820     15.606   2.600  1.02918E+00  1.00759E+00  2.15898E-02
    9015.618     16.404   2.640  1.03672E+00  1.00754E+00  2.91784E-02
    9016.429     17.215   2.680  1.03713E+00  1.00735E+00  2.97755E-02
    9017.252     18.038   2.720  1.03069E+00  1.00705E+00  2.36394E-02
    9018.087     18.873   2.760  1.01868E+00  1.00665E+00  1.20249E-02
    9018.935     19.721   2.800  1.00242E+00  1.00615E+00 -3.72926E-03
    9019.794     20.580   2.840  9.83595E-01  1.00558E+00 -2.19880E-02
    9020.666     21.452   2.880  9.63900E-01  1.00497E+00 -4.10726E-02
    9021.550     22.336   2.920  9.44456E-01  1.00430E+00 -5.98413E-02
    9022.446     23.232   2.960  9.26095E-01  1.00361E+00 -7.75113E-02
    9023.354     24.140   3.000  9.09285E-01  1.00290E+00 -9.36183E-02
    9024.275     25.061   3.040  8.94401E-01  1.00217E+00 -1.07771E-01
    9025.207     25.993   3.080  8.82121E-01  1.00144E+00 -1.19320E-01
    9026.152     26.938   3.120  8.73021E-01  1.00073E+00 -1.27713E-01
    9027.109     27.895   3.160  8.67399E-01  1.00003E+00 -1.32634E-01
    9028.078     28.865   3.200  8.65423E-01  9.99342E-01 -1.33919E-01
    9029.060     29.846   3.240  8.67172E-01  9.98705E-01 -1.31532E-01
    9030.054     30.840   3.280  8.72100E-01  9.98083E-01 -1.25983E-01
    9031.059     31.846   3.320  8.79536E-01  9.97501E-01 -1.17965E-01
    9032.077     32.864   3.360  8.88894E-01  9.96960E-01 -1.08066E-01
    9033.108     33.894   3.400  8.99811E-01  9.96481E-01 -9.66708E-02
    9034.150     34.936   3.440  9.11958E-01  9.96028E-01 -8.40701E-02
    9035.205     35.991   3.480  9.25409E-01  9.95663E-01 -7.02539E-02
    9036.271     37.058   3.520  9.40195E-01  9.95322E-01 -5.51268E-02
    9037.350     38.137   3.560  9.56244E-01  9.95049E-01 -3.88052E-02
    9038.442     39.228   3.600  9.73126E-01  9.94824E-01 -2.16987E-02
    9039.545     40.331   3.640  9.90260E-01  9.94668E-01 -4.40774E-03
    9040.661     41.447   3.680  1.00679E+00  9.94559E-01  1.22314E-02
    9041.788     42.575   3.720  1.02185E+00  9.94497E-01  2.73528E-02
    9042.928     43.714   3.760  1.03476E+00  9.94503E-01  4.02567E-02
    9044.080     44.867   3.800  1.04491E+00  9.94557E-01  5.03577E-02
    9045.245     46.031   3.840  1.05187E+00  9.94680E-01  5.71899E-02
    9046.421     47.207   3.880  1.05548E+00  9.94849E-01  6.06265E-02
    9047.610     48.396   3.920  1.05619E+00  9.95063E-01  6.11242E-02
    9048.811     49.597   3.960  1.05482E+00  9.95340E-01  5.94837E-02
    9050.024     50.810   4.000  1.05215E+00  9.95638E-01  5.65143E-02
    9051.249     52.035   4.040  1.04864E+00  9.95999E-01  5.26457E-02
    9052.487     53.273   4.080  1.04440E+00  9.96377E-01  4.80225E-02
    9053.736     54.523   4.120  1.03968E+00  9.96815E-01  4.28672E-02
    9054.998     55.784   4.160  1.03512E+00  9.97269E-01  3.78519E-02
    9056.272     57.059   4.200  1.03166E+00  9.97758E-01  3.39006E-02
    9057.559     58.345   4.240  1.03003E+00  9.98281E-01  3.17464E-02
    9058.857     59.643   4.280  1.03050E+00  9.98838E-01  3.16581E-02
    9060.168     60.954   4.320  1.03281E+00  9.99404E-01  3.34039E-02
    9061.491     62.277   4.360  1.03638E+00  9.99975E-01  3.64091E-02
    9062.826     63.612   4.400  1.04063E+00  1.00057E+00  4.00554E-02
    9064.173     64.959   4.440  1.04504E+00  1.00117E+00  4.38682E-02
    9065.532     66.318   4.480  1.04933E+00  1.00178E+00  4.75546E-02
    9066.904     67.690   4.520  1.05331E+00  1.00238E+00  5.09268E-02
    9068.288     69.074   4.560  1.05679E+00  1.00298E+00  5.38153E-02
    9069.684     70.470   4.600  1.05937E+00  1.00358E+00  5.57947E-02
    9071.092     71.878   4.640  1.06030E+00  1.00417E+00  5.61270E-02
    9072.512     73.298   4.680  1.05856E+00  1.00473E+00  5.38290E-02
    9073.945     74.731   4.720  1.05320E+00  1.00529E+00  4.79113E-02
    9075.389     76.176   4.760  1.04361E+00  1.00584E+00  3.77773E-02
    9076.846     77.632   4.800  1.03002E+00  1.00635E+00  2.36655E-02
    9078.315     79.102   4.840  1.01371E+00  1.00686E+00  6.84724E-03
    9079.797     80.583   4.880  9.96784E-01  1.00733E+00 -1.05428E-02
    9081.290     82.076   4.920  9.81632E-01  1.00776E+00 -2.61247E-02
    9082.796     83.582   4.960  9.70196E-01  1.00815E+00 -3.79538E-02
    9084.314     85.100   5.000  9.63647E-01  1.00853E+00 -4.48809E-02
    9085.844     86.630   5.040  9.62089E-01  1.00887E+00 -4.67776E-02
    9087.386     88.172   5.080  9.64733E-01  1.00914E+00 -4.44074E-02
    9088.941     89.727   5.120  9.70103E-01  1.00940E+00 -3.92946E-02
    9090.507     91.294   5.160  9.76243E-01  1.00961E+00 -3.33712E-02
    9092.086     92.872   5.200  9.81335E-01  1.00979E+00 -2.84557E-02
    9093.677     94.463   5.240  9.84176E-01  1.00993E+00 -2.57497E-02
    9095.281     96.067   5.280  9.84362E-01  1.01002E+00 -2.56552E-02
    9096.896     97.682   5.320  9.82180E-01  1.01007E+00 -2.78867E-02
    9098.524     99.310   5.360  9.78410E-01  1.01005E+00 -3.16406E-02
    9100.163    100.950   5.400  9.74112E-01  1.01001E+00 -3.59014E-02
    9101.815    102.602   5.440  9.70170E-01  1.00994E+00 -3.97652E-02
    9103.480    104.266   5.480  9.67090E-01  1.00979E+00 -4.27035E-02
    9105.156    105.942   5.520  9.65092E-01  1.00963E+00 -4.45413E-02
    9106.845    107.631   5.560  9.64190E-01  1.00943E+00 -4.52422E-02
    9108.545    109.332   5.600  9.64564E-01  1.00917E+00 -4.46028E-02
    9110.258    111.044   5.640  9.66620E-01  1.00889E+00 -4.22650E-02
    9111.983    112.770   5.680  9.70289E-01  1.00857E+00 -3.82776E-02
    9113.721    114.507   5.720  9.75288E-01  1.00821E+00 -3.29209E-02
    9115.470    116.257   5.760  9.80840E-01  1.00781E+00 -2.69726E-02
    9117.232    118.018   5.800  9.86191E-01  1.00738E+00 -2.11903E-02
    9119.006    119.792   5.840  9.91012E-01  1.00694E+00 -1.59297E-02
    9120.792    121.578   5.880  9.95423E-01  1.00647E+00 -1.10478E-02
    9122.590    123.377   5.920  9.99954E-01  1.00597E+00 -6.01668E-03
    9124.401    125.187   5.960  1.00522E+00  1.00547E+00 -2.49720E-04
    9126.224    127.010   6.000  1.01201E+00  1.00496E+00  7.05364E-03
