# # comment:                                                     FEFF 9.9.1  
# # Source:
# # Structure
# # Reduced
# # space
# # abc:
# # angles:
# # sites:
# # POT  SCF 100  7.0000   0, screened core-hole, AFOLP (folp(0)= 1.150)
# # Abs   Z=29 Rmt= 1.168 Rnm= 1.321 K  shell
# # Pot 1 Z=29 Rmt= 1.170 Rnm= 1.322
# # Pot 2 Z= 1 Rmt= 0.587 Rnm= 0.746
# # Pot 3 Z=34 Rmt= 1.096 Rnm= 1.335
# # Pot 4 Z= 8 Rmt= 0.969 Rnm= 1.103
# # Gam_ch=1.729E+00 H-L exch Vi= 0.000E+00 Vr= 0.000E+00
# # Mu=-7.200E+00eV kf=2.220E+00 Vint=-1.485E+01eV Rs_int= 1.634
# FMS rfms= 9.0000
# # PATH  Rmax=-1.000,  Keep_limit= 0.00, Heap_limit 0.00  Pwcrit= 2.50%
#  S02=0.950  Temp=   0.00  Debye_temp=   0.00  Global_sig2= 0.00000
#  Energy zero shift, vr, vi    0.00000E+00   0.00000E+00
#  Curved wave amplitude ratio filter   4.000%
#     file         sig2 tot  cw amp ratio   deg  nlegs   reff  inp sig2
#     0/   0 paths used
#  xsedge+ 50, used to normalize mu           2.4495E-04
#  -----------------------------------------------------------------------
#  omega    e    k    mu    mu0     chi     @#
    8983.352    -11.010  -1.000  3.62745E-02  5.24993E-02 -1.62248E-02
    8983.651    -10.712  -0.960  3.81810E-02  5.62290E-02 -1.80480E-02
    8983.937    -10.425  -0.920  4.02394E-02  6.03644E-02 -2.01250E-02
    8984.212    -10.151  -0.880  4.24674E-02  6.49643E-02 -2.24968E-02
    8984.474     -9.889  -0.840  4.48851E-02  7.00970E-02 -2.52119E-02
    8984.724     -9.639  -0.800  4.75150E-02  7.58417E-02 -2.83267E-02
    8984.962     -9.401  -0.760  5.03823E-02  8.22887E-02 -3.19064E-02
    8985.187     -9.176  -0.720  5.35148E-02  8.95403E-02 -3.60254E-02
    8985.400     -8.962  -0.680  5.69422E-02  9.77087E-02 -4.07665E-02
    8985.602     -8.761  -0.640  6.06945E-02  1.06912E-01 -4.62178E-02
    8985.791     -8.572  -0.600  6.47999E-02  1.17267E-01 -5.24669E-02
    8985.967     -8.395  -0.560  6.92808E-02  1.28871E-01 -5.95901E-02
    8986.132     -8.231  -0.520  7.41477E-02  1.41782E-01 -6.76346E-02
    8986.284     -8.078  -0.480  7.93912E-02  1.55986E-01 -7.65952E-02
    8986.425     -7.938  -0.440  8.49727E-02  1.71359E-01 -8.63861E-02
    8986.553     -7.810  -0.400  9.08164E-02  1.87635E-01 -9.68185E-02
    8986.668     -7.694  -0.360  9.68053E-02  2.04399E-01 -1.07594E-01
    8986.772     -7.591  -0.320  1.02785E-01  2.21112E-01 -1.18327E-01
    8986.863     -7.499  -0.280  1.08578E-01  2.37173E-01 -1.28595E-01
    8986.943     -7.420  -0.240  1.14000E-01  2.52005E-01 -1.38005E-01
    8987.010     -7.353  -0.200  1.18879E-01  2.65121E-01 -1.46242E-01
    8987.065     -7.298  -0.160  1.23070E-01  2.76163E-01 -1.53093E-01
    8987.107     -7.255  -0.120  1.26456E-01  2.84898E-01 -1.58442E-01
    8987.138     -7.225  -0.080  1.28955E-01  2.91195E-01 -1.62240E-01
    8987.162     -7.200   0.000  1.31055E-01  2.96258E-01 -1.65203E-01
    8987.217     -7.146   0.120  1.35796E-01  3.07681E-01 -1.71884E-01
    8987.260     -7.103   0.160  1.39464E-01  3.16570E-01 -1.77105E-01
    8987.315     -7.048   0.200  1.44228E-01  3.27943E-01 -1.83715E-01
    8987.382     -6.981   0.240  1.50099E-01  3.41641E-01 -1.91542E-01
    8987.461     -6.902   0.280  1.57133E-01  3.57433E-01 -2.00300E-01
    8987.552     -6.810   0.320  1.65320E-01  3.74926E-01 -2.09606E-01
    8987.656     -6.707   0.360  1.74613E-01  3.93633E-01 -2.19020E-01
    8987.772     -6.591   0.400  1.84984E-01  4.13078E-01 -2.28094E-01
    8987.900     -6.463   0.440  1.96239E-01  4.32803E-01 -2.36564E-01
    8988.040     -6.323   0.480  2.08045E-01  4.52416E-01 -2.44372E-01
    8988.192     -6.170   0.520  2.19891E-01  4.71692E-01 -2.51801E-01
    8988.357     -6.006   0.560  2.31177E-01  4.90527E-01 -2.59350E-01
    8988.534     -5.829   0.600  2.41396E-01  5.08889E-01 -2.67493E-01
    8988.723     -5.640   0.640  2.50420E-01  5.26807E-01 -2.76387E-01
    8988.924     -5.439   0.680  2.58525E-01  5.44361E-01 -2.85836E-01
    8989.137     -5.225   0.720  2.66175E-01  5.61622E-01 -2.95447E-01
    8989.363     -5.000   0.760  2.73738E-01  5.78659E-01 -3.04921E-01
    8989.601     -4.762   0.800  2.81459E-01  5.95511E-01 -3.14052E-01
    8989.851     -4.512   0.840  2.89570E-01  6.12247E-01 -3.22677E-01
    8990.113     -4.250   0.880  2.98452E-01  6.28901E-01 -3.30450E-01
    8990.387     -3.976   0.920  3.09022E-01  6.45476E-01 -3.36454E-01
    8990.673     -3.689   0.960  3.22993E-01  6.62003E-01 -3.39010E-01
    8990.972     -3.390   1.000  3.42240E-01  6.78443E-01 -3.36204E-01
    8991.283     -3.080   1.040  3.68203E-01  6.94810E-01 -3.26606E-01
    8991.606     -2.756   1.080  4.01301E-01  7.11068E-01 -3.09767E-01
    8991.941     -2.421   1.120  4.40446E-01  7.27220E-01 -2.86775E-01
    8992.289     -2.074   1.160  4.82664E-01  7.43201E-01 -2.60537E-01
    8992.649     -1.714   1.200  5.25280E-01  7.58982E-01 -2.33702E-01
    8993.020     -1.342   1.240  5.67845E-01  7.74533E-01 -2.06688E-01
    8993.404     -0.958   1.280  6.10232E-01  7.89823E-01 -1.79591E-01
    8993.801     -0.562   1.320  6.51364E-01  8.04798E-01 -1.53434E-01
    8994.209     -0.154   1.360  6.91196E-01  8.19422E-01 -1.28226E-01
    8994.630      0.267   1.400  7.30623E-01  8.33683E-01 -1.03061E-01
    8995.063      0.700   1.440  7.67190E-01  8.47506E-01 -8.03161E-02
    8995.508      1.145   1.480  7.92316E-01  8.60897E-01 -6.85817E-02
    8995.965      1.602   1.520  7.98845E-01  8.73805E-01 -7.49601E-02
    8996.434      2.072   1.560  7.92734E-01  8.86196E-01 -9.34612E-02
    8996.916      2.553   1.600  7.88069E-01  8.98083E-01 -1.10015E-01
    8997.410      3.047   1.640  7.93878E-01  9.09398E-01 -1.15520E-01
    8997.915      3.553   1.680  8.10223E-01  9.20173E-01 -1.09950E-01
    8998.434      4.071   1.720  8.32520E-01  9.30364E-01 -9.78436E-02
    8998.964      4.601   1.760  8.58885E-01  9.39967E-01 -8.10811E-02
    8999.507      5.144   1.800  8.88318E-01  9.48980E-01 -6.06620E-02
    9000.061      5.699   1.840  9.15826E-01  9.57405E-01 -4.15790E-02
    9000.628      6.266   1.880  9.39423E-01  9.65242E-01 -2.58190E-02
    9001.207      6.845   1.920  9.66426E-01  9.72494E-01 -6.06799E-03
    9001.799      7.436   1.960  1.00511E+00  9.79170E-01  2.59443E-02
    9002.402      8.039   2.000  1.05592E+00  9.85293E-01  7.06272E-02
    9003.018      8.655   2.040  1.11125E+00  9.90850E-01  1.20395E-01
    9003.646      9.283   2.080  1.15981E+00  9.95893E-01  1.63917E-01
    9004.286      9.923   2.120  1.19588E+00  1.00043E+00  1.95449E-01
    9004.938     10.575   2.160  1.22143E+00  1.00445E+00  2.16980E-01
    9005.603     11.240   2.200  1.23789E+00  1.00800E+00  2.29892E-01
    9006.279     11.917   2.240  1.24860E+00  1.01110E+00  2.37501E-01
    9006.968     12.605   2.280  1.25975E+00  1.01378E+00  2.45977E-01
    9007.669     13.306   2.320  1.27156E+00  1.01604E+00  2.55514E-01
    9008.382     14.020   2.360  1.27790E+00  1.01791E+00  2.59991E-01
    9009.108     14.745   2.400  1.27346E+00  1.01943E+00  2.54036E-01
    9009.845     15.483   2.440  1.25434E+00  1.02061E+00  2.33728E-01
    9010.595     16.232   2.480  1.22206E+00  1.02148E+00  2.00581E-01
    9011.357     16.994   2.520  1.18550E+00  1.02205E+00  1.63448E-01
    9012.131     17.769   2.560  1.15107E+00  1.02237E+00  1.28705E-01
    9012.918     18.555   2.600  1.12302E+00  1.02244E+00  1.00584E-01
    9013.716     19.354   2.640  1.10617E+00  1.02230E+00  8.38763E-02
    9014.527     20.164   2.680  1.09379E+00  1.02193E+00  7.18666E-02
    9015.350     20.987   2.720  1.08077E+00  1.02140E+00  5.93666E-02
    9016.185     21.822   2.760  1.06786E+00  1.02070E+00  4.71600E-02
    9017.032     22.670   2.800  1.05558E+00  1.01988E+00  3.57002E-02
    9017.892     23.529   2.840  1.04374E+00  1.01892E+00  2.48237E-02
    9018.764     24.401   2.880  1.03213E+00  1.01786E+00  1.42629E-02
    9019.648     25.285   2.920  1.02048E+00  1.01670E+00  3.78241E-03
    9020.544     26.181   2.960  1.00893E+00  1.01547E+00 -6.53824E-03
    9021.452     27.089   3.000  9.97588E-01  1.01420E+00 -1.66091E-02
    9022.373     28.010   3.040  9.86172E-01  1.01286E+00 -2.66849E-02
    9023.305     28.943   3.080  9.74666E-01  1.01150E+00 -3.68311E-02
    9024.250     29.887   3.120  9.63288E-01  1.01011E+00 -4.68178E-02
    9025.207     30.845   3.160  9.52528E-01  1.00871E+00 -5.61803E-02
    9026.176     31.814   3.200  9.42873E-01  1.00731E+00 -6.44364E-02
    9027.158     32.795   3.240  9.34843E-01  1.00591E+00 -7.10700E-02
    9028.152     33.789   3.280  9.28386E-01  1.00455E+00 -7.61603E-02
    9029.157     34.795   3.320  9.23192E-01  1.00319E+00 -8.00013E-02
    9030.175     35.813   3.360  9.18935E-01  1.00190E+00 -8.29619E-02
    9031.206     36.843   3.400  9.15207E-01  1.00062E+00 -8.54134E-02
    9032.248     37.885   3.440  9.11773E-01  9.99407E-01 -8.76339E-02
    9033.303     38.940   3.480  9.08517E-01  9.98239E-01 -8.97216E-02
    9034.369     40.007   3.520  9.05605E-01  9.97119E-01 -9.15146E-02
    9035.448     41.086   3.560  9.03195E-01  9.96071E-01 -9.28766E-02
    9036.540     42.177   3.600  9.01558E-01  9.95096E-01 -9.35381E-02
    9037.643     43.280   3.640  9.00971E-01  9.94174E-01 -9.32030E-02
    9038.759     44.396   3.680  9.01663E-01  9.93329E-01 -9.16654E-02
    9039.886     45.524   3.720  9.03746E-01  9.92560E-01 -8.88145E-02
    9041.026     46.664   3.760  9.07375E-01  9.91870E-01 -8.44948E-02
    9042.178     47.816   3.800  9.12753E-01  9.91260E-01 -7.85065E-02
    9043.343     48.980   3.840  9.20013E-01  9.90728E-01 -7.07147E-02
    9044.519     50.157   3.880  9.29167E-01  9.90253E-01 -6.10861E-02
    9045.708     51.345   3.920  9.40100E-01  9.89879E-01 -4.97788E-02
    9046.909     52.546   3.960  9.52298E-01  9.89563E-01 -3.72649E-02
    9048.122     53.759   4.000  9.65115E-01  9.89348E-01 -2.42334E-02
    9049.347     54.985   4.040  9.77841E-01  9.89191E-01 -1.13508E-02
    9050.585     56.222   4.080  9.89957E-01  9.89135E-01  8.22205E-04
    9051.834     57.472   4.120  1.00108E+00  9.89135E-01  1.19421E-02
    9053.096     58.734   4.160  1.01114E+00  9.89210E-01  2.19320E-02
    9054.370     60.008   4.200  1.02022E+00  9.89361E-01  3.08616E-02
    9055.657     61.294   4.240  1.02832E+00  9.89563E-01  3.87541E-02
    9056.955     62.592   4.280  1.03544E+00  9.89838E-01  4.55990E-02
    9058.266     63.903   4.320  1.04147E+00  9.90164E-01  5.13065E-02
    9059.588     65.226   4.360  1.04630E+00  9.90561E-01  5.57362E-02
    9060.923     66.561   4.400  1.04980E+00  9.91029E-01  5.87739E-02
    9062.271     67.908   4.440  1.05191E+00  9.91542E-01  6.03647E-02
    9063.630     69.267   4.480  1.05252E+00  9.92079E-01  6.04417E-02
    9065.002     70.639   4.520  1.05161E+00  9.92699E-01  5.89122E-02
    9066.385     72.023   4.560  1.04919E+00  9.93339E-01  5.58552E-02
    9067.781     73.419   4.600  1.04556E+00  9.94016E-01  5.15394E-02
    9069.190     74.827   4.640  1.04119E+00  9.94708E-01  4.64869E-02
    9070.610     76.247   4.680  1.03680E+00  9.95455E-01  4.13442E-02
    9072.043     77.680   4.720  1.03286E+00  9.96216E-01  3.66451E-02
    9073.487     79.125   4.760  1.02966E+00  9.97008E-01  3.26507E-02
    9074.944     80.582   4.800  1.02716E+00  9.97806E-01  2.93585E-02
    9076.413     82.051   4.840  1.02517E+00  9.98609E-01  2.65593E-02
    9077.895     83.532   4.880  1.02349E+00  9.99438E-01  2.40567E-02
    9079.388     85.026   4.920  1.02211E+00  1.00027E+00  2.18405E-02
    9080.894     86.531   4.960  1.02114E+00  1.00107E+00  2.00664E-02
    9082.412     88.049   5.000  1.02083E+00  1.00190E+00  1.89307E-02
    9083.942     89.579   5.040  1.02120E+00  1.00269E+00  1.85045E-02
    9085.484     91.122   5.080  1.02211E+00  1.00348E+00  1.86318E-02
    9087.039     92.676   5.120  1.02321E+00  1.00424E+00  1.89768E-02
    9088.605     94.243   5.160  1.02408E+00  1.00498E+00  1.90985E-02
    9090.184     95.822   5.200  1.02429E+00  1.00570E+00  1.85974E-02
    9091.775     97.413   5.240  1.02363E+00  1.00639E+00  1.72364E-02
    9093.378     99.016   5.280  1.02203E+00  1.00703E+00  1.49977E-02
    9094.994    100.631   5.320  1.01965E+00  1.00765E+00  1.19992E-02
    9096.621    102.259   5.360  1.01656E+00  1.00823E+00  8.33496E-03
    9098.261    103.899   5.400  1.01276E+00  1.00874E+00  4.02005E-03
    9099.913    105.551   5.440  1.00835E+00  1.00923E+00 -8.81999E-04
    9101.578    107.215   5.480  1.00351E+00  1.00966E+00 -6.14824E-03
    9103.254    108.891   5.520  9.98609E-01  1.01004E+00 -1.14297E-02
    9104.943    110.580   5.560  9.93949E-01  1.01037E+00 -1.64229E-02
    9106.643    112.281   5.600  9.89627E-01  1.01064E+00 -2.10086E-02
    9108.356    113.994   5.640  9.85587E-01  1.01085E+00 -2.52643E-02
    9110.081    115.719   5.680  9.81713E-01  1.01102E+00 -2.93072E-02
    9111.819    117.456   5.720  9.77992E-01  1.01112E+00 -3.31280E-02
    9113.568    119.206   5.760  9.74621E-01  1.01117E+00 -3.65509E-02
    9115.330    120.967   5.800  9.71764E-01  1.01118E+00 -3.94120E-02
    9117.104    122.741   5.840  9.69429E-01  1.01111E+00 -4.16796E-02
    9118.890    124.527   5.880  9.67540E-01  1.01097E+00 -4.34284E-02
    9120.688    126.326   5.920  9.66090E-01  1.01078E+00 -4.46911E-02
    9122.499    128.136   5.960  9.65231E-01  1.01054E+00 -4.53106E-02
    9124.322    129.959   6.000  9.65326E-01  1.01018E+00 -4.48590E-02
