# # comment:                                                     FEFF 9.9.1  
# # Source:
# # Structure
# # Reduced
# # space
# # abc:
# # angles:131.266443
# # sites:
# # POT  SCF 100  7.0000   0, screened core-hole, AFOLP (folp(0)= 1.150)
# # Abs   Z=29 Rmt= 1.305 Rnm= 1.374 K  shell
# # Pot 1 Z=23 Rmt= 1.137 Rnm= 1.338
# # Pot 2 Z=29 Rmt= 1.294 Rnm= 1.364
# # Pot 3 Z= 8 Rmt= 0.995 Rnm= 1.093
# # Gam_ch=1.729E+00 H-L exch Vi= 0.000E+00 Vr= 0.000E+00
# # Mu=-7.702E+00eV kf=2.207E+00 Vint=-1.692E+01eV Rs_int= 1.643
# FMS rfms= 9.0000
# # PATH  Rmax=-1.000,  Keep_limit= 0.00, Heap_limit 0.00  Pwcrit= 2.50%
#  S02=0.950  Temp=   0.00  Debye_temp=   0.00  Global_sig2= 0.00000
#  Energy zero shift, vr, vi    0.00000E+00   0.00000E+00
#  Curved wave amplitude ratio filter   4.000%
#     file         sig2 tot  cw amp ratio   deg  nlegs   reff  inp sig2
#     0/   0 paths used
#  xsedge+ 50, used to normalize mu           2.4580E-04
#  -----------------------------------------------------------------------
#  omega    e    k    mu    mu0     chi     @#
    8984.065    -11.512  -1.000  4.37849E-02  5.48811E-02 -1.10962E-02
    8984.364    -11.213  -0.960  4.63911E-02  5.88830E-02 -1.24919E-02
    8984.650    -10.927  -0.920  4.92438E-02  6.33312E-02 -1.40873E-02
    8984.925    -10.652  -0.880  5.23787E-02  6.82912E-02 -1.59125E-02
    8985.187    -10.390  -0.840  5.58378E-02  7.38398E-02 -1.80020E-02
    8985.437    -10.140  -0.800  5.96709E-02  8.00656E-02 -2.03948E-02
    8985.674     -9.903  -0.760  6.39358E-02  8.70706E-02 -2.31347E-02
    8985.900     -9.677  -0.720  6.86996E-02  9.49697E-02 -2.62701E-02
    8986.113     -9.464  -0.680  7.40369E-02  1.03890E-01 -2.98528E-02
    8986.315     -9.262  -0.640  8.00282E-02  1.13965E-01 -3.39365E-02
    8986.504     -9.073  -0.600  8.67527E-02  1.25326E-01 -3.85731E-02
    8986.680     -8.897  -0.560  9.42772E-02  1.38085E-01 -4.38082E-02
    8986.845     -8.732  -0.520  1.02638E-01  1.52310E-01 -4.96727E-02
    8986.997     -8.580  -0.480  1.11812E-01  1.67986E-01 -5.61734E-02
    8987.138     -8.439  -0.440  1.21694E-01  1.84974E-01 -6.32797E-02
    8987.266     -8.311  -0.400  1.32068E-01  2.02979E-01 -7.09108E-02
    8987.381     -8.196  -0.360  1.42611E-01  2.21536E-01 -7.89245E-02
    8987.485     -8.092  -0.320  1.52927E-01  2.40040E-01 -8.71132E-02
    8987.576     -8.001  -0.280  1.62607E-01  2.57820E-01 -9.52132E-02
    8987.656     -7.921  -0.240  1.71303E-01  2.74231E-01 -1.02928E-01
    8987.723     -7.854  -0.200  1.78771E-01  2.88732E-01 -1.09961E-01
    8987.778     -7.799  -0.160  1.84882E-01  3.00930E-01 -1.16048E-01
    8987.820     -7.757  -0.120  1.89594E-01  3.10571E-01 -1.20978E-01
    8987.851     -7.726  -0.080  1.92915E-01  3.17516E-01 -1.24602E-01
    8987.875     -7.702   0.000  1.95500E-01  3.23095E-01 -1.27596E-01
    8987.930     -7.647   0.120  2.01144E-01  3.35665E-01 -1.34521E-01
    8987.973     -7.604   0.160  2.05526E-01  3.45449E-01 -1.39922E-01
    8988.028     -7.549   0.200  2.10998E-01  3.57925E-01 -1.46927E-01
    8988.095     -7.482   0.240  2.17414E-01  3.72923E-01 -1.55510E-01
    8988.174     -7.403   0.280  2.24575E-01  3.90161E-01 -1.65586E-01
    8988.265     -7.312   0.320  2.32196E-01  4.09158E-01 -1.76962E-01
    8988.369     -7.208   0.360  2.40075E-01  4.29405E-01 -1.89330E-01
    8988.485     -7.092   0.400  2.47883E-01  4.50260E-01 -2.02377E-01
    8988.613     -6.964   0.440  2.55380E-01  4.71212E-01 -2.15832E-01
    8988.753     -6.824   0.480  2.62241E-01  4.91848E-01 -2.29607E-01
    8988.905     -6.672   0.520  2.68189E-01  5.11887E-01 -2.43698E-01
    8989.070     -6.507   0.560  2.73276E-01  5.31189E-01 -2.57914E-01
    8989.247     -6.330   0.600  2.78255E-01  5.49742E-01 -2.71488E-01
    8989.436     -6.141   0.640  2.84662E-01  5.67585E-01 -2.82923E-01
    8989.637     -5.940   0.680  2.94349E-01  5.84793E-01 -2.90443E-01
    8989.850     -5.727   0.720  3.08878E-01  6.01497E-01 -2.92619E-01
    8990.076     -5.501   0.760  3.29117E-01  6.17745E-01 -2.88629E-01
    8990.314     -5.263   0.800  3.55579E-01  6.33638E-01 -2.78059E-01
    8990.563     -5.014   0.840  3.88196E-01  6.49261E-01 -2.61065E-01
    8990.826     -4.751   0.880  4.25097E-01  6.64645E-01 -2.39547E-01
    8991.100     -4.477   0.920  4.61780E-01  6.79829E-01 -2.18049E-01
    8991.386     -4.191   0.960  4.93023E-01  6.94838E-01 -2.01814E-01
    8991.685     -3.892   1.000  5.15792E-01  7.09687E-01 -1.93895E-01
    8991.996     -3.581   1.040  5.28565E-01  7.24403E-01 -1.95838E-01
    8992.319     -3.258   1.080  5.30612E-01  7.38942E-01 -2.08330E-01
    8992.654     -2.923   1.120  5.26842E-01  7.53315E-01 -2.26473E-01
    8993.002     -2.575   1.160  5.28470E-01  7.67508E-01 -2.39038E-01
    8993.361     -2.215   1.200  5.45442E-01  7.81504E-01 -2.36062E-01
    8993.733     -1.844   1.240  5.80663E-01  7.95262E-01 -2.14599E-01
    8994.117     -1.460   1.280  6.30085E-01  8.08775E-01 -1.78690E-01
    8994.514     -1.063   1.320  6.86614E-01  8.22019E-01 -1.35405E-01
    8994.922     -0.655   1.360  7.43890E-01  8.34947E-01 -9.10565E-02
    8995.343     -0.234   1.400  7.97133E-01  8.47548E-01 -5.04157E-02
    8995.776      0.199   1.440  8.48507E-01  8.59776E-01 -1.12689E-02
    8996.221      0.644   1.480  9.12519E-01  8.71642E-01  4.08771E-02
    8996.678      1.101   1.520  1.00960E+00  8.83098E-01  1.26504E-01
    8997.147      1.570   1.560  1.14700E+00  8.94135E-01  2.52861E-01
    8997.629      2.052   1.600  1.30010E+00  9.04726E-01  3.95378E-01
    8998.122      2.545   1.640  1.42945E+00  9.14846E-01  5.14600E-01
    8998.628      3.051   1.680  1.51867E+00  9.24488E-01  5.94182E-01
    8999.147      3.570   1.720  1.55542E+00  9.33651E-01  6.21766E-01
    8999.677      4.100   1.760  1.51361E+00  9.42329E-01  5.71278E-01
    9000.219      4.642   1.800  1.41216E+00  9.50503E-01  4.61660E-01
    9000.774      5.197   1.840  1.31606E+00  9.58171E-01  3.57887E-01
    9001.341      5.764   1.880  1.25634E+00  9.65335E-01  2.91004E-01
    9001.920      6.343   1.920  1.21823E+00  9.72018E-01  2.46212E-01
    9002.512      6.935   1.960  1.17939E+00  9.78181E-01  2.01206E-01
    9003.115      7.538   2.000  1.13575E+00  9.83869E-01  1.51882E-01
    9003.731      8.154   2.040  1.09432E+00  9.89089E-01  1.05236E-01
    9004.359      8.782   2.080  1.05591E+00  9.93825E-01  6.20893E-02
    9004.999      9.422   2.120  1.01968E+00  9.98104E-01  2.15763E-02
    9005.651     10.074   2.160  9.90635E-01  1.00196E+00 -1.13207E-02
    9006.315     10.738   2.200  9.74504E-01  1.00539E+00 -3.08839E-02
    9006.992     11.415   2.240  9.68857E-01  1.00841E+00 -3.95510E-02
    9007.681     12.104   2.280  9.75546E-01  1.01103E+00 -3.54808E-02
    9008.382     12.805   2.320  1.00607E+00  1.01329E+00 -7.22612E-03
    9009.095     13.518   2.360  1.05369E+00  1.01520E+00  3.84907E-02
    9009.821     14.244   2.400  1.09864E+00  1.01677E+00  8.18664E-02
    9010.558     14.981   2.440  1.11395E+00  1.01802E+00  9.59319E-02
    9011.308     15.731   2.480  1.09068E+00  1.01900E+00  7.16719E-02
    9012.070     16.493   2.520  1.05318E+00  1.01971E+00  3.34751E-02
    9012.844     17.267   2.560  1.03105E+00  1.02016E+00  1.08906E-02
    9013.631     18.054   2.600  1.02095E+00  1.02039E+00  5.64002E-04
    9014.429     18.852   2.640  1.00226E+00  1.02039E+00 -1.81255E-02
    9015.240     19.663   2.680  9.82685E-01  1.02019E+00 -3.75035E-02
    9016.063     20.486   2.720  9.67929E-01  1.01984E+00 -5.19114E-02
    9016.898     21.321   2.760  9.55600E-01  1.01933E+00 -6.37278E-02
    9017.745     22.168   2.800  9.43810E-01  1.01866E+00 -7.48525E-02
    9018.605     23.028   2.840  9.32684E-01  1.01787E+00 -8.51887E-02
    9019.477     23.900   2.880  9.22422E-01  1.01699E+00 -9.45658E-02
    9020.361     24.784   2.920  9.12654E-01  1.01601E+00 -1.03361E-01
    9021.257     25.680   2.960  9.02557E-01  1.01496E+00 -1.12405E-01
    9022.165     26.588   3.000  8.91177E-01  1.01383E+00 -1.22657E-01
    9023.085     27.508   3.040  8.78656E-01  1.01266E+00 -1.34002E-01
    9024.018     28.441   3.080  8.66194E-01  1.01144E+00 -1.45249E-01
    9024.963     29.386   3.120  8.55558E-01  1.01021E+00 -1.54657E-01
    9025.920     30.343   3.160  8.48376E-01  1.00898E+00 -1.60603E-01
    9026.889     31.312   3.200  8.45936E-01  1.00772E+00 -1.61781E-01
    9027.871     32.294   3.240  8.49262E-01  1.00648E+00 -1.57216E-01
    9028.864     33.287   3.280  8.58359E-01  1.00524E+00 -1.46886E-01
    9029.870     34.293   3.320  8.73111E-01  1.00402E+00 -1.30907E-01
    9030.888     35.311   3.360  8.93006E-01  1.00283E+00 -1.09819E-01
    9031.919     36.342   3.400  9.17268E-01  1.00167E+00 -8.44030E-02
    9032.961     37.384   3.440  9.45057E-01  1.00058E+00 -5.55206E-02
    9034.016     38.439   3.480  9.75633E-01  9.99507E-01 -2.38742E-02
    9035.082     39.505   3.520  1.00822E+00  9.98501E-01  9.71469E-03
    9036.161     40.584   3.560  1.04161E+00  9.97544E-01  4.40647E-02
    9037.253     41.676   3.600  1.07408E+00  9.96656E-01  7.74237E-02
    9038.356     42.779   3.640  1.10313E+00  9.95818E-01  1.07316E-01
    9039.471     43.894   3.680  1.12572E+00  9.95052E-01  1.30671E-01
    9040.599     45.022   3.720  1.13900E+00  9.94341E-01  1.44660E-01
    9041.739     46.162   3.760  1.14128E+00  9.93725E-01  1.47554E-01
    9042.891     47.314   3.800  1.13259E+00  9.93165E-01  1.39426E-01
    9044.056     48.479   3.840  1.11506E+00  9.92681E-01  1.22383E-01
    9045.232     49.655   3.880  1.09224E+00  9.92272E-01  9.99697E-02
    9046.421     50.844   3.920  1.06793E+00  9.91919E-01  7.60144E-02
    9047.622     52.045   3.960  1.04539E+00  9.91664E-01  5.37306E-02
    9048.835     53.258   4.000  1.02664E+00  9.91463E-01  3.51808E-02
    9050.060     54.483   4.040  1.01246E+00  9.91336E-01  2.11292E-02
    9051.298     55.721   4.080  1.00258E+00  9.91261E-01  1.13201E-02
    9052.547     56.970   4.120  9.96063E-01  9.91260E-01  4.80288E-03
    9053.809     58.232   4.160  9.91617E-01  9.91334E-01  2.82786E-04
    9055.083     59.506   4.200  9.88072E-01  9.91481E-01 -3.40968E-03
    9056.369     60.793   4.240  9.84782E-01  9.91677E-01 -6.89519E-03
    9057.668     62.091   4.280  9.81925E-01  9.91919E-01 -9.99417E-03
    9058.979     63.402   4.320  9.80282E-01  9.92231E-01 -1.19481E-02
    9060.301     64.724   4.360  9.80694E-01  9.92586E-01 -1.18920E-02
    9061.636     66.059   4.400  9.83795E-01  9.92984E-01 -9.18946E-03
    9062.984     67.407   4.440  9.89920E-01  9.93425E-01 -3.50550E-03
    9064.343     68.766   4.480  9.98994E-01  9.93927E-01  5.06719E-03
    9065.715     70.138   4.520  1.01038E+00  9.94445E-01  1.59353E-02
    9067.098     71.521   4.560  1.02282E+00  9.94996E-01  2.78252E-02
    9068.494     72.917   4.600  1.03448E+00  9.95559E-01  3.89180E-02
    9069.903     74.326   4.640  1.04359E+00  9.96155E-01  4.74306E-02
    9071.323     75.746   4.680  1.04908E+00  9.96781E-01  5.22960E-02
    9072.755     77.178   4.720  1.05105E+00  9.97414E-01  5.36332E-02
    9074.200     78.623   4.760  1.05065E+00  9.98051E-01  5.25954E-02
    9075.657     80.080   4.800  1.04907E+00  9.98709E-01  5.03586E-02
    9077.126     81.549   4.840  1.04631E+00  9.99346E-01  4.69621E-02
    9078.608     83.031   4.880  1.04103E+00  9.99980E-01  4.10459E-02
    9080.101     84.524   4.920  1.03132E+00  1.00061E+00  3.07080E-02
    9081.607     86.030   4.960  1.01604E+00  1.00123E+00  1.48105E-02
    9083.125     87.548   5.000  9.95485E-01  1.00185E+00 -6.36596E-03
    9084.655     89.078   5.040  9.71253E-01  1.00241E+00 -3.11605E-02
    9086.197     90.620   5.080  9.45981E-01  1.00298E+00 -5.70035E-02
    9087.752     92.175   5.120  9.22338E-01  1.00350E+00 -8.11610E-02
    9089.318     93.741   5.160  9.02520E-01  1.00400E+00 -1.01479E-01
    9090.897     95.320   5.200  8.87626E-01  1.00446E+00 -1.16834E-01
    9092.488     96.911   5.240  8.77741E-01  1.00488E+00 -1.27140E-01
    9094.091     98.514   5.280  8.72510E-01  1.00526E+00 -1.32751E-01
    9095.707    100.130   5.320  8.71748E-01  1.00560E+00 -1.33852E-01
    9097.334    101.757   5.360  8.75914E-01  1.00590E+00 -1.29983E-01
    9098.974    103.397   5.400  8.86065E-01  1.00615E+00 -1.20084E-01
    9100.626    105.049   5.440  9.03329E-01  1.00636E+00 -1.03030E-01
    9102.290    106.713   5.480  9.27762E-01  1.00650E+00 -7.87360E-02
    9103.967    108.390   5.520  9.57589E-01  1.00659E+00 -4.90007E-02
    9105.655    110.078   5.560  9.89330E-01  1.00664E+00 -1.73057E-02
    9107.356    111.779   5.600  1.01911E+00  1.00661E+00  1.24979E-02
    9109.069    113.492   5.640  1.04400E+00  1.00654E+00  3.74562E-02
    9110.794    115.217   5.680  1.06253E+00  1.00643E+00  5.60991E-02
    9112.532    116.955   5.720  1.07446E+00  1.00624E+00  6.82159E-02
    9114.281    118.704   5.760  1.08041E+00  1.00601E+00  7.44006E-02
    9116.043    120.466   5.800  1.08159E+00  1.00574E+00  7.58455E-02
    9117.817    122.240   5.840  1.07967E+00  1.00543E+00  7.42453E-02
    9119.603    124.026   5.880  1.07686E+00  1.00505E+00  7.18143E-02
    9121.401    125.824   5.920  1.07562E+00  1.00466E+00  7.09621E-02
    9123.212    127.635   5.960  1.07742E+00  1.00420E+00  7.32196E-02
    9125.035    129.458   6.000  1.08199E+00  1.00367E+00  7.83254E-02
