# # comment:                                                     FEFF 9.9.1  
# # Source:
# # Structure
# # Reduced
# # space
# # abc:
# # angles:108.383439
# # sites:
# # POT  SCF 100  7.0000   0, screened core-hole, AFOLP (folp(0)= 1.150)
# # Abs   Z=29 Rmt= 1.165 Rnm= 1.274 K  shell
# # Pot 1 Z= 3 Rmt= 1.266 Rnm= 1.328
# # Pot 2 Z=22 Rmt= 1.245 Rnm= 1.388
# # Pot 3 Z=29 Rmt= 1.236 Rnm= 1.298
# # Pot 4 Z= 8 Rmt= 1.045 Rnm= 1.112
# # Gam_ch=1.729E+00 H-L exch Vi= 0.000E+00 Vr= 0.000E+00
# # Mu=-9.630E+00eV kf=2.136E+00 Vint=-1.717E+01eV Rs_int= 1.698
# FMS rfms= 9.0000
# # PATH  Rmax=-1.000,  Keep_limit= 0.00, Heap_limit 0.00  Pwcrit= 2.50%
#  S02=0.950  Temp=   0.00  Debye_temp=   0.00  Global_sig2= 0.00000
#  Energy zero shift, vr, vi    0.00000E+00   0.00000E+00
#  Curved wave amplitude ratio filter   4.000%
#     file         sig2 tot  cw amp ratio   deg  nlegs   reff  inp sig2
#     0/   0 paths used
#  xsedge+ 50, used to normalize mu           2.4641E-04
#  -----------------------------------------------------------------------
#  omega    e    k    mu    mu0     chi     @#
    8984.381    -13.440  -1.000  2.95855E-02  5.07981E-02 -2.12126E-02
    8984.679    -13.141  -0.960  3.07629E-02  5.43651E-02 -2.36022E-02
    8984.966    -12.855  -0.920  3.19988E-02  5.83172E-02 -2.63184E-02
    8985.240    -12.580  -0.880  3.32976E-02  6.27097E-02 -2.94121E-02
    8985.502    -12.318  -0.840  3.46643E-02  6.76073E-02 -3.29429E-02
    8985.752    -12.068  -0.800  3.61048E-02  7.30846E-02 -3.69797E-02
    8985.990    -11.830  -0.760  3.76254E-02  7.92270E-02 -4.16016E-02
    8986.216    -11.605  -0.720  3.92333E-02  8.61311E-02 -4.68978E-02
    8986.429    -11.391  -0.680  4.09360E-02  9.39028E-02 -5.29668E-02
    8986.630    -11.190  -0.640  4.27412E-02  1.02654E-01 -5.99125E-02
    8986.819    -11.001  -0.600  4.46555E-02  1.12493E-01 -6.78374E-02
    8986.996    -10.825  -0.560  4.66832E-02  1.23513E-01 -7.68302E-02
    8987.161    -10.660  -0.520  4.88236E-02  1.35769E-01 -8.69458E-02
    8987.313    -10.508  -0.480  5.10679E-02  1.49246E-01 -9.81786E-02
    8987.453    -10.367  -0.440  5.33956E-02  1.63827E-01 -1.10431E-01
    8987.581    -10.239  -0.400  5.57714E-02  1.79261E-01 -1.23489E-01
    8987.697    -10.124  -0.360  5.81450E-02  1.95154E-01 -1.37009E-01
    8987.801    -10.020  -0.320  6.04546E-02  2.10997E-01 -1.50542E-01
    8987.892     -9.928  -0.280  6.26346E-02  2.26222E-01 -1.63588E-01
    8987.971     -9.849  -0.240  6.46236E-02  2.40282E-01 -1.75659E-01
    8988.038     -9.782  -0.200  6.63720E-02  2.52717E-01 -1.86345E-01
    8988.093     -9.727  -0.160  6.78429E-02  2.63186E-01 -1.95343E-01
    8988.136     -9.685  -0.120  6.90094E-02  2.71470E-01 -2.02460E-01
    8988.166     -9.654  -0.080  6.98499E-02  2.77443E-01 -2.07593E-01
    8988.191     -9.630   0.000  7.05114E-02  2.82246E-01 -2.11735E-01
    8988.246     -9.575   0.120  7.22032E-02  2.93081E-01 -2.20878E-01
    8988.288     -9.532   0.160  7.35180E-02  3.01525E-01 -2.28007E-01
    8988.343     -9.477   0.200  7.52080E-02  3.12316E-01 -2.37108E-01
    8988.410     -9.410   0.240  7.72774E-02  3.25325E-01 -2.48047E-01
    8988.489     -9.331   0.280  7.97198E-02  3.40316E-01 -2.60597E-01
    8988.581     -9.240   0.320  8.25213E-02  3.56941E-01 -2.74420E-01
    8988.685     -9.136   0.360  8.56730E-02  3.74742E-01 -2.89069E-01
    8988.800     -9.020   0.400  8.92049E-02  3.93272E-01 -3.04067E-01
    8988.928     -8.892   0.440  9.31097E-02  4.12082E-01 -3.18972E-01
    8989.069     -8.752   0.480  9.74063E-02  4.30841E-01 -3.33435E-01
    8989.221     -8.600   0.520  1.02065E-01  4.49319E-01 -3.47253E-01
    8989.386     -8.435   0.560  1.06977E-01  4.67397E-01 -3.60420E-01
    8989.562     -8.258   0.600  1.12011E-01  4.85088E-01 -3.73077E-01
    8989.751     -8.069   0.640  1.16976E-01  5.02417E-01 -3.85441E-01
    8989.953     -7.868   0.680  1.21780E-01  5.19420E-01 -3.97640E-01
    8990.166     -7.655   0.720  1.26766E-01  5.36184E-01 -4.09418E-01
    8990.391     -7.429   0.760  1.32631E-01  5.52795E-01 -4.20164E-01
    8990.629     -7.191   0.800  1.40042E-01  5.69266E-01 -4.29224E-01
    8990.879     -6.941   0.840  1.49414E-01  5.85705E-01 -4.36291E-01
    8991.141     -6.679   0.880  1.61040E-01  6.02101E-01 -4.41060E-01
    8991.416     -6.405   0.920  1.75804E-01  6.18456E-01 -4.42652E-01
    8991.702     -6.118   0.960  1.94939E-01  6.34839E-01 -4.39900E-01
    8992.001     -5.820   1.000  2.18052E-01  6.51192E-01 -4.33139E-01
    8992.312     -5.509   1.040  2.41752E-01  6.67505E-01 -4.25753E-01
    8992.635     -5.186   1.080  2.63315E-01  6.83785E-01 -4.20470E-01
    8992.970     -4.851   1.120  2.85957E-01  6.99992E-01 -4.14036E-01
    8993.317     -4.503   1.160  3.15419E-01  7.16103E-01 -4.00684E-01
    8993.677     -4.143   1.200  3.52632E-01  7.32087E-01 -3.79455E-01
    8994.049     -3.772   1.240  3.95018E-01  7.47875E-01 -3.52857E-01
    8994.433     -3.387   1.280  4.44524E-01  7.63474E-01 -3.18950E-01
    8994.829     -2.991   1.320  5.05658E-01  7.78810E-01 -2.73152E-01
    8995.238     -2.583   1.360  5.78013E-01  7.93847E-01 -2.15833E-01
    8995.658     -2.162   1.400  6.51754E-01  8.08570E-01 -1.56816E-01
    8996.091     -1.729   1.440  7.00870E-01  8.22925E-01 -1.22055E-01
    8996.536     -1.284   1.480  7.09066E-01  8.36897E-01 -1.27832E-01
    8996.993     -0.827   1.520  7.00759E-01  8.50412E-01 -1.49653E-01
    8997.463     -0.358   1.560  7.00599E-01  8.63475E-01 -1.62876E-01
    8997.944      0.124   1.600  7.18224E-01  8.76056E-01 -1.57833E-01
    8998.438      0.618   1.640  7.61563E-01  8.88126E-01 -1.26563E-01
    8998.944      1.124   1.680  8.28393E-01  8.99654E-01 -7.12608E-02
    8999.462      1.642   1.720  9.05348E-01  9.10633E-01 -5.28544E-03
    8999.993      2.172   1.760  9.75439E-01  9.21060E-01  5.43788E-02
    9000.535      2.715   1.800  1.02564E+00  9.30929E-01  9.47103E-02
    9001.090      3.269   1.840  1.06338E+00  9.40198E-01  1.23187E-01
    9001.657      3.836   1.880  1.12310E+00  9.48907E-01  1.74194E-01
    9002.236      4.415   1.920  1.22597E+00  9.57017E-01  2.68950E-01
    9002.827      5.007   1.960  1.35037E+00  9.64572E-01  3.85800E-01
    9003.431      5.610   2.000  1.44364E+00  9.71554E-01  4.72083E-01
    9004.046      6.226   2.040  1.47145E+00  9.77990E-01  4.93455E-01
    9004.674      6.854   2.080  1.46069E+00  9.83866E-01  4.76828E-01
    9005.314      7.494   2.120  1.45477E+00  9.89229E-01  4.65538E-01
    9005.967      8.146   2.160  1.44770E+00  9.94068E-01  4.53630E-01
    9006.631      8.811   2.200  1.39812E+00  9.98412E-01  3.99709E-01
    9007.308      9.487   2.240  1.29355E+00  1.00229E+00  2.91255E-01
    9007.997     10.176   2.280  1.17478E+00  1.00570E+00  1.69084E-01
    9008.698     10.877   2.320  1.08296E+00  1.00868E+00  7.42783E-02
    9009.411     11.590   2.360  1.02628E+00  1.01125E+00  1.50299E-02
    9010.136     12.316   2.400  9.96616E-01  1.01344E+00 -1.68274E-02
    9010.874     13.053   2.440  9.86770E-01  1.01524E+00 -2.84732E-02
    9011.624     13.803   2.480  9.90911E-01  1.01671E+00 -2.57959E-02
    9012.386     14.565   2.520  1.00028E+00  1.01785E+00 -1.75700E-02
    9013.160     15.339   2.560  1.01222E+00  1.01869E+00 -6.46869E-03
    9013.946     16.126   2.600  1.02504E+00  1.01925E+00  5.78843E-03
    9014.745     16.924   2.640  1.03925E+00  1.01956E+00  1.96828E-02
    9015.556     17.735   2.680  1.05313E+00  1.01965E+00  3.34711E-02
    9016.379     18.558   2.720  1.06378E+00  1.01952E+00  4.42659E-02
    9017.214     19.393   2.760  1.06957E+00  1.01918E+00  5.03969E-02
    9018.061     20.241   2.800  1.07075E+00  1.01867E+00  5.20829E-02
    9018.921     21.100   2.840  1.06915E+00  1.01802E+00  5.11313E-02
    9019.792     21.972   2.880  1.06637E+00  1.01722E+00  4.91556E-02
    9020.676     22.856   2.920  1.06208E+00  1.01630E+00  4.57850E-02
    9021.572     23.752   2.960  1.05452E+00  1.01528E+00  3.92404E-02
    9022.481     24.660   3.000  1.04178E+00  1.01418E+00  2.76002E-02
    9023.401     25.581   3.040  1.02311E+00  1.01300E+00  1.01118E-02
    9024.334     26.513   3.080  1.00002E+00  1.01175E+00 -1.17286E-02
    9025.279     27.458   3.120  9.75345E-01  1.01047E+00 -3.51256E-02
    9026.236     28.415   3.160  9.51553E-01  1.00913E+00 -5.75804E-02
    9027.205     29.384   3.200  9.30431E-01  1.00779E+00 -7.73541E-02
    9028.186     30.366   3.240  9.12849E-01  1.00643E+00 -9.35806E-02
    9029.180     31.360   3.280  8.98743E-01  1.00507E+00 -1.06328E-01
    9030.186     32.365   3.320  8.87626E-01  1.00372E+00 -1.16090E-01
    9031.204     33.383   3.360  8.78868E-01  1.00236E+00 -1.23496E-01
    9032.234     34.414   3.400  8.72002E-01  1.00104E+00 -1.29042E-01
    9033.277     35.456   3.440  8.67062E-01  9.99759E-01 -1.32696E-01
    9034.331     36.511   3.480  8.64848E-01  9.98489E-01 -1.33640E-01
    9035.398     37.577   3.520  8.66462E-01  9.97280E-01 -1.30819E-01
    9036.477     38.656   3.560  8.72317E-01  9.96116E-01 -1.23798E-01
    9037.568     39.748   3.600  8.82069E-01  9.94995E-01 -1.12926E-01
    9038.672     40.851   3.640  8.94715E-01  9.93944E-01 -9.92289E-02
    9039.787     41.967   3.680  9.08844E-01  9.92943E-01 -8.40985E-02
    9040.915     43.094   3.720  9.23059E-01  9.92011E-01 -6.89520E-02
    9042.055     44.234   3.760  9.36372E-01  9.91131E-01 -5.47591E-02
    9043.207     45.386   3.800  9.48398E-01  9.90325E-01 -4.19275E-02
    9044.371     46.551   3.840  9.59269E-01  9.89595E-01 -3.03263E-02
    9045.548     47.727   3.880  9.69513E-01  9.88941E-01 -1.94274E-02
    9046.737     48.916   3.920  9.79658E-01  9.88339E-01 -8.68085E-03
    9047.937     50.117   3.960  9.89924E-01  9.87813E-01  2.11076E-03
    9049.151     51.330   4.000  1.00012E+00  9.87363E-01  1.27581E-02
    9050.376     52.555   4.040  1.00978E+00  9.86989E-01  2.27933E-02
    9051.613     53.793   4.080  1.01825E+00  9.86669E-01  3.15844E-02
    9052.863     55.042   4.120  1.02493E+00  9.86424E-01  3.85103E-02
    9054.125     56.304   4.160  1.02948E+00  9.86255E-01  4.32259E-02
    9055.399     57.578   4.200  1.03191E+00  9.86163E-01  4.57460E-02
    9056.685     58.865   4.240  1.03253E+00  9.86145E-01  4.63838E-02
    9057.984     60.163   4.280  1.03179E+00  9.86176E-01  4.56163E-02
    9059.294     61.474   4.320  1.03018E+00  9.86257E-01  4.39184E-02
    9060.617     62.797   4.360  1.02803E+00  9.86409E-01  4.16213E-02
    9061.952     64.132   4.400  1.02548E+00  9.86632E-01  3.88469E-02
    9063.299     65.479   4.440  1.02267E+00  9.86901E-01  3.57729E-02
    9064.659     66.838   4.480  1.01985E+00  9.87214E-01  3.26374E-02
    9066.030     68.210   4.520  1.01725E+00  9.87570E-01  2.96782E-02
    9067.414     69.594   4.560  1.01503E+00  9.87991E-01  2.70436E-02
    9068.810     70.990   4.600  1.01320E+00  9.88432E-01  2.47706E-02
    9070.218     72.398   4.640  1.01173E+00  9.88931E-01  2.28010E-02
    9071.639     73.818   4.680  1.01066E+00  9.89446E-01  2.12141E-02
    9073.071     75.251   4.720  1.01030E+00  9.89999E-01  2.03019E-02
    9074.516     76.695   4.760  1.01115E+00  9.90586E-01  2.05681E-02
    9075.973     78.152   4.800  1.01377E+00  9.91205E-01  2.25677E-02
    9077.442     79.621   4.840  1.01846E+00  9.91832E-01  2.66305E-02
    9078.923     81.103   4.880  1.02511E+00  9.92465E-01  3.26450E-02
    9080.417     82.596   4.920  1.03320E+00  9.93123E-01  4.00813E-02
    9081.922     84.102   4.960  1.04190E+00  9.93763E-01  4.81413E-02
    9083.440     85.620   5.000  1.05032E+00  9.94425E-01  5.58919E-02
    9084.970     87.150   5.040  1.05732E+00  9.95088E-01  6.22345E-02
    9086.513     88.692   5.080  1.06181E+00  9.95748E-01  6.60620E-02
    9088.067     90.247   5.120  1.06316E+00  9.96382E-01  6.67822E-02
    9089.634     91.813   5.160  1.06160E+00  9.97032E-01  6.45715E-02
    9091.213     93.392   5.200  1.05760E+00  9.97654E-01  5.99504E-02
    9092.804     94.983   5.240  1.05152E+00  9.98242E-01  5.32744E-02
    9094.407     96.587   5.280  1.04343E+00  9.98819E-01  4.46118E-02
    9096.022     98.202   5.320  1.03338E+00  9.99363E-01  3.40136E-02
    9097.650     99.830   5.360  1.02159E+00  9.99894E-01  2.16969E-02
    9099.290    101.469   5.400  1.00844E+00  1.00039E+00  8.05677E-03
    9100.942    103.121   5.440  9.94406E-01  1.00082E+00 -6.41070E-03
    9102.606    104.786   5.480  9.80015E-01  1.00123E+00 -2.12158E-02
    9104.283    106.462   5.520  9.65593E-01  1.00161E+00 -3.60131E-02
    9105.971    108.151   5.560  9.51259E-01  1.00194E+00 -5.06800E-02
    9107.672    109.851   5.600  9.37149E-01  1.00223E+00 -6.50835E-02
    9109.385    111.564   5.640  9.23662E-01  1.00248E+00 -7.88212E-02
    9111.110    113.289   5.680  9.11573E-01  1.00269E+00 -9.11164E-02
    9112.847    115.027   5.720  9.01786E-01  1.00283E+00 -1.01042E-01
    9114.597    116.776   5.760  8.95230E-01  1.00292E+00 -1.07691E-01
    9116.359    118.538   5.800  8.92561E-01  1.00297E+00 -1.10410E-01
    9118.133    120.312   5.840  8.94016E-01  1.00298E+00 -1.08961E-01
    9119.919    122.098   5.880  8.99250E-01  1.00291E+00 -1.03664E-01
    9121.717    123.896   5.920  9.07505E-01  1.00281E+00 -9.53022E-02
    9123.527    125.707   5.960  9.17900E-01  1.00265E+00 -8.47489E-02
    9125.350    127.530   6.000  9.30342E-01  1.00241E+00 -7.20727E-02
