# # comment:                                                     FEFF 9.9.1  
# # Source:
# # Structure
# # Reduced
# # space
# # abc:
# # angles:
# # sites:
# # POT  SCF 100  7.0000   0, screened core-hole, AFOLP (folp(0)= 1.150)
# # Abs   Z=29 Rmt= 1.248 Rnm= 1.321 K  shell
# # Pot 1 Z=29 Rmt= 1.270 Rnm= 1.340
# # Pot 2 Z= 5 Rmt= 0.841 Rnm= 1.012
# # Pot 3 Z= 8 Rmt= 0.887 Rnm= 1.043
# # Gam_ch=1.729E+00 H-L exch Vi= 0.000E+00 Vr= 0.000E+00
# # Mu=-6.607E+00eV kf=2.402E+00 Vint=-1.717E+01eV Rs_int= 1.510
# FMS rfms= 9.0000
# # PATH  Rmax=-1.000,  Keep_limit= 0.00, Heap_limit 0.00  Pwcrit= 2.50%
#  S02=0.950  Temp=   0.00  Debye_temp=   0.00  Global_sig2= 0.00000
#  Energy zero shift, vr, vi    0.00000E+00   0.00000E+00
#  Curved wave amplitude ratio filter   4.000%
#     file         sig2 tot  cw amp ratio   deg  nlegs   reff  inp sig2
#     0/   0 paths used
#  xsedge+ 50, used to normalize mu           2.4805E-04
#  -----------------------------------------------------------------------
#  omega    e    k    mu    mu0     chi     @#
    8983.420    -10.417  -1.000  4.08040E-02  5.26244E-02 -1.18204E-02
    8983.719    -10.119  -0.960  4.31935E-02  5.64559E-02 -1.32624E-02
    8984.005     -9.832  -0.920  4.57985E-02  6.07169E-02 -1.49184E-02
    8984.280     -9.558  -0.880  4.86462E-02  6.54710E-02 -1.68248E-02
    8984.542     -9.296  -0.840  5.17676E-02  7.07926E-02 -1.90250E-02
    8984.792     -9.046  -0.800  5.51979E-02  7.67677E-02 -2.15697E-02
    8985.030     -8.808  -0.760  5.89767E-02  8.34953E-02 -2.45186E-02
    8985.255     -8.582  -0.720  6.31475E-02  9.10873E-02 -2.79398E-02
    8985.468     -8.369  -0.680  6.77572E-02  9.96671E-02 -3.19099E-02
    8985.670     -8.168  -0.640  7.28535E-02  1.09365E-01 -3.65115E-02
    8985.859     -7.979  -0.600  7.84820E-02  1.20309E-01 -4.18273E-02
    8986.035     -7.802  -0.560  8.46791E-02  1.32610E-01 -4.79305E-02
    8986.200     -7.638  -0.520  9.14630E-02  1.46331E-01 -5.48684E-02
    8986.352     -7.485  -0.480  9.88211E-02  1.61461E-01 -6.26400E-02
    8986.493     -7.345  -0.440  1.06696E-01  1.77866E-01 -7.11701E-02
    8986.621     -7.217  -0.400  1.14970E-01  1.95258E-01 -8.02872E-02
    8986.736     -7.101  -0.360  1.23467E-01  2.13185E-01 -8.97183E-02
    8986.840     -6.998  -0.320  1.31952E-01  2.31062E-01 -9.91100E-02
    8986.932     -6.906  -0.280  1.40159E-01  2.48237E-01 -1.08077E-01
    8987.011     -6.827  -0.240  1.47820E-01  2.64084E-01 -1.16264E-01
    8987.078     -6.760  -0.200  1.54688E-01  2.78082E-01 -1.23393E-01
    8987.133     -6.705  -0.160  1.60562E-01  2.89850E-01 -1.29288E-01
    8987.175     -6.662  -0.120  1.65283E-01  2.99148E-01 -1.33865E-01
    8987.206     -6.632  -0.080  1.68739E-01  3.05844E-01 -1.37104E-01
    8987.230     -6.607   0.000  1.71575E-01  3.11221E-01 -1.39646E-01
    8987.285     -6.552   0.120  1.78030E-01  3.23334E-01 -1.45304E-01
    8987.328     -6.510   0.160  1.83111E-01  3.32741E-01 -1.49630E-01
    8987.383     -6.455   0.200  1.89728E-01  3.44743E-01 -1.55015E-01
    8987.450     -6.388   0.240  1.97958E-01  3.59166E-01 -1.61208E-01
    8987.529     -6.309   0.280  2.07821E-01  3.75686E-01 -1.67865E-01
    8987.620     -6.217   0.320  2.19342E-01  3.93885E-01 -1.74543E-01
    8987.724     -6.114   0.360  2.32484E-01  4.13197E-01 -1.80713E-01
    8987.840     -5.998   0.400  2.47161E-01  4.33044E-01 -1.85883E-01
    8987.968     -5.870   0.440  2.63193E-01  4.52883E-01 -1.89690E-01
    8988.108     -5.730   0.480  2.80320E-01  4.72324E-01 -1.92004E-01
    8988.260     -5.577   0.520  2.98162E-01  4.91092E-01 -1.92930E-01
    8988.425     -5.413   0.560  3.16273E-01  5.09049E-01 -1.92776E-01
    8988.602     -5.236   0.600  3.34261E-01  5.26206E-01 -1.91946E-01
    8988.791     -5.047   0.640  3.51579E-01  5.42584E-01 -1.91004E-01
    8988.992     -4.846   0.680  3.67291E-01  5.58280E-01 -1.90989E-01
    8989.205     -4.632   0.720  3.79760E-01  5.73410E-01 -1.93650E-01
    8989.431     -4.407   0.760  3.87044E-01  5.88085E-01 -2.01041E-01
    8989.669     -4.169   0.800  3.88359E-01  6.02347E-01 -2.13988E-01
    8989.919     -3.919   0.840  3.85569E-01  6.16329E-01 -2.30760E-01
    8990.181     -3.657   0.880  3.82274E-01  6.30048E-01 -2.47773E-01
    8990.455     -3.383   0.920  3.81945E-01  6.43605E-01 -2.61660E-01
    8990.741     -3.096   0.960  3.86550E-01  6.56974E-01 -2.70424E-01
    8991.040     -2.797   1.000  3.96905E-01  6.70236E-01 -2.73331E-01
    8991.351     -2.486   1.040  4.12753E-01  6.83403E-01 -2.70650E-01
    8991.674     -2.163   1.080  4.32983E-01  6.96440E-01 -2.63457E-01
    8992.009     -1.828   1.120  4.56308E-01  7.09383E-01 -2.53075E-01
    8992.357     -1.481   1.160  4.81885E-01  7.22246E-01 -2.40361E-01
    8992.717     -1.121   1.200  5.09657E-01  7.34975E-01 -2.25318E-01
    8993.088     -0.749   1.240  5.40931E-01  7.47577E-01 -2.06646E-01
    8993.472     -0.365   1.280  5.77644E-01  7.60051E-01 -1.82408E-01
    8993.869      0.031   1.320  6.19267E-01  7.72377E-01 -1.53111E-01
    8994.277      0.440   1.360  6.61013E-01  7.84511E-01 -1.23497E-01
    8994.698      0.860   1.400  6.99589E-01  7.96448E-01 -9.68594E-02
    8995.131      1.293   1.440  7.38935E-01  8.08185E-01 -6.92506E-02
    8995.576      1.738   1.480  7.84053E-01  8.19694E-01 -3.56405E-02
    8996.033      2.195   1.520  8.32966E-01  8.30928E-01  2.03732E-03
    8996.502      2.665   1.560  8.80814E-01  8.41902E-01  3.89122E-02
    8996.984      3.146   1.600  9.28881E-01  8.52588E-01  7.62930E-02
    8997.478      3.640   1.640  9.83371E-01  8.62960E-01  1.20411E-01
    8997.984      4.146   1.680  1.04585E+00  8.72991E-01  1.72862E-01
    8998.502      4.664   1.720  1.10649E+00  8.82695E-01  2.23794E-01
    8999.032      5.194   1.760  1.15011E+00  8.92048E-01  2.58063E-01
    8999.575      5.737   1.800  1.16991E+00  9.01025E-01  2.68883E-01
    9000.129      6.292   1.840  1.17103E+00  9.09641E-01  2.61386E-01
    9000.696      6.859   1.880  1.15587E+00  9.17856E-01  2.38016E-01
    9001.275      7.438   1.920  1.12537E+00  9.25685E-01  1.99685E-01
    9001.867      8.029   1.960  1.09223E+00  9.33127E-01  1.59099E-01
    9002.470      8.633   2.000  1.07233E+00  9.40181E-01  1.32145E-01
    9003.086      9.248   2.040  1.07215E+00  9.46809E-01  1.25339E-01
    9003.714      9.876   2.080  1.09094E+00  9.53070E-01  1.37868E-01
    9004.354     10.516   2.120  1.12253E+00  9.58905E-01  1.63622E-01
    9005.006     11.169   2.160  1.15603E+00  9.64378E-01  1.91655E-01
    9005.671     11.833   2.200  1.18168E+00  9.69432E-01  2.12248E-01
    9006.347     12.510   2.240  1.19496E+00  9.74131E-01  2.20834E-01
    9007.036     13.198   2.280  1.19945E+00  9.78458E-01  2.20988E-01
    9007.737     13.899   2.320  1.20364E+00  9.82420E-01  2.21218E-01
    9008.450     14.613   2.360  1.21023E+00  9.86019E-01  2.24212E-01
    9009.176     15.338   2.400  1.21404E+00  9.89283E-01  2.24754E-01
    9009.913     16.076   2.440  1.21285E+00  9.92219E-01  2.20630E-01
    9010.663     16.826   2.480  1.20833E+00  9.94853E-01  2.13473E-01
    9011.425     17.588   2.520  1.19593E+00  9.97170E-01  1.98757E-01
    9012.199     18.362   2.560  1.16702E+00  9.99178E-01  1.67844E-01
    9012.986     19.148   2.600  1.11904E+00  1.00094E+00  1.18092E-01
    9013.784     19.947   2.640  1.05873E+00  1.00242E+00  5.63088E-02
    9014.595     20.757   2.680  9.98209E-01  1.00366E+00 -5.45226E-03
    9015.418     21.580   2.720  9.48313E-01  1.00467E+00 -5.63554E-02
    9016.253     22.416   2.760  9.14730E-01  1.00546E+00 -9.07333E-02
    9017.100     23.263   2.800  9.01945E-01  1.00605E+00 -1.04108E-01
    9017.960     24.122   2.840  9.00893E-01  1.00644E+00 -1.05551E-01
    9018.832     24.994   2.880  9.02066E-01  1.00667E+00 -1.04599E-01
    9019.716     25.878   2.920  9.03789E-01  1.00672E+00 -1.02933E-01
    9020.612     26.774   2.960  9.06169E-01  1.00662E+00 -1.00454E-01
    9021.520     27.682   3.000  9.09044E-01  1.00639E+00 -9.73501E-02
    9022.441     28.603   3.040  9.11736E-01  1.00604E+00 -9.43086E-02
    9023.373     29.536   3.080  9.13316E-01  1.00560E+00 -9.22815E-02
    9024.318     30.481   3.120  9.13319E-01  1.00504E+00 -9.17216E-02
    9025.275     31.438   3.160  9.11870E-01  1.00440E+00 -9.25308E-02
    9026.244     32.407   3.200  9.09463E-01  1.00370E+00 -9.42386E-02
    9027.226     33.388   3.240  9.06791E-01  1.00293E+00 -9.61374E-02
    9028.220     34.382   3.280  9.04665E-01  1.00209E+00 -9.74216E-02
    9029.225     35.388   3.320  9.03381E-01  1.00122E+00 -9.78426E-02
    9030.243     36.406   3.360  9.02789E-01  1.00032E+00 -9.75321E-02
    9031.274     37.436   3.400  9.02666E-01  9.99384E-01 -9.67183E-02
    9032.316     38.478   3.440  9.02861E-01  9.98436E-01 -9.55758E-02
    9033.371     39.533   3.480  9.03418E-01  9.97462E-01 -9.40438E-02
    9034.437     40.600   3.520  9.04814E-01  9.96507E-01 -9.16933E-02
    9035.516     41.679   3.560  9.07633E-01  9.95553E-01 -8.79195E-02
    9036.608     42.770   3.600  9.12139E-01  9.94602E-01 -8.24630E-02
    9037.711     43.873   3.640  9.18455E-01  9.93659E-01 -7.52040E-02
    9038.827     44.989   3.680  9.26451E-01  9.92745E-01 -6.62949E-02
    9039.954     46.117   3.720  9.35790E-01  9.91866E-01 -5.60762E-02
    9041.094     47.257   3.760  9.46145E-01  9.91021E-01 -4.48763E-02
    9042.246     48.409   3.800  9.57333E-01  9.90193E-01 -3.28603E-02
    9043.411     49.573   3.840  9.69279E-01  9.89423E-01 -2.01437E-02
    9044.587     50.750   3.880  9.81833E-01  9.88674E-01 -6.84099E-03
    9045.776     51.938   3.920  9.94939E-01  9.87987E-01  6.95274E-03
    9046.977     53.139   3.960  1.00838E+00  9.87342E-01  2.10361E-02
    9048.190     54.352   4.000  1.02177E+00  9.86743E-01  3.50275E-02
    9049.415     55.578   4.040  1.03462E+00  9.86210E-01  4.84120E-02
    9050.653     56.815   4.080  1.04621E+00  9.85722E-01  6.04844E-02
    9051.902     58.065   4.120  1.05571E+00  9.85279E-01  7.04337E-02
    9053.164     59.327   4.160  1.06255E+00  9.84901E-01  7.76498E-02
    9054.438     60.601   4.200  1.06646E+00  9.84549E-01  8.19151E-02
    9055.725     61.887   4.240  1.06778E+00  9.84285E-01  8.34937E-02
    9057.023     63.185   4.280  1.06705E+00  9.84046E-01  8.30061E-02
    9058.334     64.496   4.320  1.06513E+00  9.83875E-01  8.12587E-02
    9059.656     65.819   4.360  1.06259E+00  9.83770E-01  7.88197E-02
    9060.992     67.154   4.400  1.05957E+00  9.83688E-01  7.58787E-02
    9062.339     68.501   4.440  1.05603E+00  9.83672E-01  7.23543E-02
    9063.698     69.861   4.480  1.05174E+00  9.83699E-01  6.80452E-02
    9065.070     71.232   4.520  1.04660E+00  9.83769E-01  6.28266E-02
    9066.453     72.616   4.560  1.04069E+00  9.83902E-01  5.67873E-02
    9067.849     74.012   4.600  1.03422E+00  9.84054E-01  5.01650E-02
    9069.258     75.420   4.640  1.02743E+00  9.84245E-01  4.31871E-02
    9070.678     76.840   4.680  1.02052E+00  9.84496E-01  3.60225E-02
    9072.111     78.273   4.720  1.01357E+00  9.84763E-01  2.88087E-02
    9073.555     79.718   4.760  1.00677E+00  9.85067E-01  2.16995E-02
    9075.012     81.175   4.800  1.00030E+00  9.85404E-01  1.48931E-02
    9076.481     82.644   4.840  9.94251E-01  9.85751E-01  8.50041E-03
    9077.963     84.125   4.880  9.88585E-01  9.86132E-01  2.45317E-03
    9079.456     85.619   4.920  9.83149E-01  9.86544E-01 -3.39482E-03
    9080.962     87.124   4.960  9.77809E-01  9.86961E-01 -9.15161E-03
    9082.480     88.642   5.000  9.72573E-01  9.87383E-01 -1.48095E-02
    9084.010     90.172   5.040  9.67520E-01  9.87809E-01 -2.02886E-02
    9085.552     91.715   5.080  9.62783E-01  9.88260E-01 -2.54766E-02
    9087.107     93.269   5.120  9.58500E-01  9.88712E-01 -3.02120E-02
    9088.673     94.836   5.160  9.54843E-01  9.89142E-01 -3.42989E-02
    9090.252     96.415   5.200  9.52104E-01  9.89591E-01 -3.74875E-02
    9091.843     98.006   5.240  9.50525E-01  9.90038E-01 -3.95127E-02
    9093.446     99.609   5.280  9.50336E-01  9.90458E-01 -4.01218E-02
    9095.062    101.224   5.320  9.51667E-01  9.90870E-01 -3.92028E-02
    9096.690    102.852   5.360  9.54322E-01  9.91253E-01 -3.69313E-02
    9098.329    104.492   5.400  9.57882E-01  9.91649E-01 -3.37669E-02
    9099.981    106.144   5.440  9.61714E-01  9.91990E-01 -3.02765E-02
    9101.646    107.808   5.480  9.65356E-01  9.92319E-01 -2.69630E-02
    9103.322    109.484   5.520  9.68380E-01  9.92614E-01 -2.42346E-02
    9105.011    111.173   5.560  9.70523E-01  9.92895E-01 -2.23722E-02
    9106.711    112.874   5.600  9.71639E-01  9.93117E-01 -2.14774E-02
    9108.424    114.587   5.640  9.71839E-01  9.93323E-01 -2.14838E-02
    9110.149    116.312   5.680  9.71269E-01  9.93493E-01 -2.22241E-02
    9111.887    118.049   5.720  9.70116E-01  9.93625E-01 -2.35096E-02
    9113.636    119.799   5.760  9.68604E-01  9.93741E-01 -2.51376E-02
    9115.398    121.561   5.800  9.66898E-01  9.93795E-01 -2.68967E-02
    9117.172    123.334   5.840  9.65237E-01  9.93807E-01 -2.85695E-02
    9118.958    125.121   5.880  9.63871E-01  9.93779E-01 -2.99070E-02
    9120.756    126.919   5.920  9.63152E-01  9.93709E-01 -3.05568E-02
    9122.567    128.729   5.960  9.63581E-01  9.93595E-01 -3.00139E-02
    9124.390    130.552   6.000  9.65867E-01  9.93416E-01 -2.75493E-02
