# # comment:                                                     FEFF 9.9.1  
# # Source:
# # Structure
# # Reduced
# # space
# # abc:
# # angles:
# # sites:
# # POT  SCF 100  7.0000   0, screened core-hole, AFOLP (folp(0)= 1.150)
# # Abs   Z=29 Rmt= 1.362 Rnm= 1.421 K  shell
# # Pot 1 Z= 3 Rmt= 1.283 Rnm= 1.343
# # Pot 2 Z=29 Rmt= 1.341 Rnm= 1.412
# # Pot 3 Z=15 Rmt= 0.947 Rnm= 1.157
# # Pot 4 Z= 8 Rmt= 0.931 Rnm= 1.036
# # Gam_ch=1.729E+00 H-L exch Vi= 0.000E+00 Vr= 0.000E+00
# # Mu=-5.949E+00eV kf=2.371E+00 Vint=-1.690E+01eV Rs_int= 1.529
# FMS rfms= 9.0000
# # PATH  Rmax=-1.000,  Keep_limit= 0.00, Heap_limit 0.00  Pwcrit= 2.50%
#  S02=0.950  Temp=   0.00  Debye_temp=   0.00  Global_sig2= 0.00000
#  Energy zero shift, vr, vi    0.00000E+00   0.00000E+00
#  Curved wave amplitude ratio filter   4.000%
#     file         sig2 tot  cw amp ratio   deg  nlegs   reff  inp sig2
#     0/   0 paths used
#  xsedge+ 50, used to normalize mu           2.4675E-04
#  -----------------------------------------------------------------------
#  omega    e    k    mu    mu0     chi     @#
    8983.491     -9.759  -1.000  5.11813E-02  5.53060E-02 -4.12472E-03
    8983.790     -9.461  -0.960  5.45243E-02  5.93696E-02 -4.84529E-03
    8984.076     -9.174  -0.920  5.81944E-02  6.38905E-02 -5.69606E-03
    8984.351     -8.900  -0.880  6.22355E-02  6.89368E-02 -6.70124E-03
    8984.613     -8.638  -0.840  6.66981E-02  7.45876E-02 -7.88953E-03
    8984.863     -8.388  -0.800  7.16402E-02  8.09349E-02 -9.29473E-03
    8985.100     -8.150  -0.760  7.71279E-02  8.80842E-02 -1.09563E-02
    8985.326     -7.924  -0.720  8.32354E-02  9.61550E-02 -1.29196E-02
    8985.539     -7.711  -0.680  9.00434E-02  1.05279E-01 -1.52355E-02
    8985.740     -7.510  -0.640  9.76363E-02  1.15595E-01 -1.79587E-02
    8985.929     -7.321  -0.600  1.06096E-01  1.27240E-01 -2.11445E-02
    8986.106     -7.144  -0.560  1.15489E-01  1.40332E-01 -2.48423E-02
    8986.271     -6.980  -0.520  1.25854E-01  1.54939E-01 -2.90857E-02
    8986.423     -6.827  -0.480  1.37171E-01  1.71049E-01 -3.38782E-02
    8986.563     -6.687  -0.440  1.49341E-01  1.88519E-01 -3.91774E-02
    8986.691     -6.559  -0.400  1.62161E-01  2.07042E-01 -4.48806E-02
    8986.807     -6.443  -0.360  1.75317E-01  2.26138E-01 -5.08205E-02
    8986.911     -6.339  -0.320  1.88403E-01  2.45180E-01 -5.67769E-02
    8987.002     -6.248  -0.280  2.00968E-01  2.63474E-01 -6.25056E-02
    8987.082     -6.169  -0.240  2.12579E-01  2.80354E-01 -6.77753E-02
    8987.149     -6.102  -0.200  2.22864E-01  2.95264E-01 -7.23992E-02
    8987.203     -6.047  -0.160  2.31547E-01  3.07798E-01 -7.62509E-02
    8987.246     -6.004  -0.120  2.38439E-01  3.17701E-01 -7.92623E-02
    8987.277     -5.974  -0.080  2.43421E-01  3.24832E-01 -8.14107E-02
    8987.301     -5.949   0.000  2.47429E-01  3.30558E-01 -8.31297E-02
    8987.356     -5.894   0.120  2.56445E-01  3.43456E-01 -8.70107E-02
    8987.398     -5.852   0.160  2.63533E-01  3.53478E-01 -8.99449E-02
    8987.453     -5.797   0.200  2.72667E-01  3.66252E-01 -9.35847E-02
    8987.520     -5.730   0.240  2.83805E-01  3.81590E-01 -9.77851E-02
    8987.600     -5.651   0.280  2.96887E-01  3.99189E-01 -1.02302E-01
    8987.691     -5.559   0.320  3.11722E-01  4.18537E-01 -1.06815E-01
    8987.795     -5.456   0.360  3.28140E-01  4.39071E-01 -1.10931E-01
    8987.911     -5.340   0.400  3.45914E-01  4.60154E-01 -1.14239E-01
    8988.039     -5.212   0.440  3.64792E-01  4.81223E-01 -1.16431E-01
    8988.179     -5.071   0.480  3.84500E-01  5.01863E-01 -1.17364E-01
    8988.331     -4.919   0.520  4.04534E-01  5.21739E-01 -1.17205E-01
    8988.496     -4.755   0.560  4.24265E-01  5.40747E-01 -1.16482E-01
    8988.673     -4.578   0.600  4.42944E-01  5.58876E-01 -1.15932E-01
    8988.862     -4.389   0.640  4.59980E-01  5.76171E-01 -1.16191E-01
    8989.063     -4.188   0.680  4.75324E-01  5.92737E-01 -1.17412E-01
    8989.276     -3.974   0.720  4.89715E-01  6.08675E-01 -1.18960E-01
    8989.502     -3.749   0.760  5.04586E-01  6.24066E-01 -1.19480E-01
    8989.739     -3.511   0.800  5.21915E-01  6.39059E-01 -1.17144E-01
    8989.989     -3.261   0.840  5.43411E-01  6.53690E-01 -1.10279E-01
    8990.251     -2.999   0.880  5.69435E-01  6.68064E-01 -9.86291E-02
    8990.526     -2.725   0.920  5.97438E-01  6.82227E-01 -8.47898E-02
    8990.812     -2.438   0.960  6.22492E-01  6.96195E-01 -7.37036E-02
    8991.111     -2.139   1.000  6.40892E-01  7.10012E-01 -6.91199E-02
    8991.422     -1.828   1.040  6.54176E-01  7.23690E-01 -6.95145E-02
    8991.745     -1.505   1.080  6.69352E-01  7.37236E-01 -6.78844E-02
    8992.080     -1.170   1.120  6.94678E-01  7.50668E-01 -5.59900E-02
    8992.428     -0.823   1.160  7.34745E-01  7.63959E-01 -2.92137E-02
    8992.787     -0.463   1.200  7.87284E-01  7.77117E-01  1.01676E-02
    8993.159     -0.091   1.240  8.42663E-01  7.90124E-01  5.25393E-02
    8993.543      0.293   1.280  8.89954E-01  8.02940E-01  8.70138E-02
    8993.939      0.689   1.320  9.27113E-01  8.15566E-01  1.11547E-01
    8994.348      1.098   1.360  9.61244E-01  8.27997E-01  1.33248E-01
    8994.769      1.518   1.400  1.00028E+00  8.40165E-01  1.60115E-01
    8995.201      1.951   1.440  1.04665E+00  8.52085E-01  1.94567E-01
    8995.646      2.396   1.480  1.09763E+00  8.63731E-01  2.33902E-01
    8996.104      2.853   1.520  1.15073E+00  8.75052E-01  2.75678E-01
    8996.573      3.323   1.560  1.20060E+00  8.86041E-01  3.14561E-01
    8997.055      3.804   1.600  1.24180E+00  8.96692E-01  3.45106E-01
    8997.548      4.298   1.640  1.27237E+00  9.06976E-01  3.65394E-01
    8998.054      4.804   1.680  1.28646E+00  9.16865E-01  3.69596E-01
    8998.572      5.322   1.720  1.28034E+00  9.26355E-01  3.53984E-01
    8999.103      5.852   1.760  1.25662E+00  9.35419E-01  3.21204E-01
    8999.645      6.395   1.800  1.21372E+00  9.44072E-01  2.69651E-01
    9000.200      6.950   1.840  1.15333E+00  9.52271E-01  2.01056E-01
    9000.767      7.517   1.880  1.09041E+00  9.60011E-01  1.30397E-01
    9001.346      8.096   1.920  1.04628E+00  9.67312E-01  7.89659E-02
    9001.937      8.687   1.960  1.03560E+00  9.74152E-01  6.14459E-02
    9002.541      9.291   2.000  1.05755E+00  9.80533E-01  7.70215E-02
    9003.157      9.906   2.040  1.09289E+00  9.86454E-01  1.06436E-01
    9003.784     10.534   2.080  1.11570E+00  9.91916E-01  1.23779E-01
    9004.425     11.174   2.120  1.11578E+00  9.96925E-01  1.18856E-01
    9005.077     11.827   2.160  1.09876E+00  1.00151E+00  9.72557E-02
    9005.741     12.491   2.200  1.07233E+00  1.00564E+00  6.66878E-02
    9006.418     13.168   2.240  1.04708E+00  1.00935E+00  3.77232E-02
    9007.107     13.857   2.280  1.02983E+00  1.01266E+00  1.71723E-02
    9007.808     14.558   2.320  1.01586E+00  1.01555E+00  3.07284E-04
    9008.521     15.271   2.360  9.99435E-01  1.01807E+00 -1.86345E-02
    9009.246     15.996   2.400  9.80936E-01  1.02024E+00 -3.93024E-02
    9009.984     16.734   2.440  9.64000E-01  1.02202E+00 -5.80246E-02
    9010.734     17.484   2.480  9.52386E-01  1.02350E+00 -7.11111E-02
    9011.496     18.246   2.520  9.46411E-01  1.02465E+00 -7.82349E-02
    9012.270     19.020   2.560  9.42796E-01  1.02548E+00 -8.26842E-02
    9013.056     19.806   2.600  9.38304E-01  1.02605E+00 -8.77453E-02
    9013.855     20.605   2.640  9.30872E-01  1.02634E+00 -9.54706E-02
    9014.666     21.416   2.680  9.20249E-01  1.02641E+00 -1.06162E-01
    9015.489     22.238   2.720  9.07980E-01  1.02624E+00 -1.18262E-01
    9016.324     23.074   2.760  8.96100E-01  1.02587E+00 -1.29768E-01
    9017.171     23.921   2.800  8.89813E-01  1.02532E+00 -1.35504E-01
    9018.031     24.780   2.840  8.90085E-01  1.02458E+00 -1.34491E-01
    9018.902     25.652   2.880  8.95738E-01  1.02370E+00 -1.27958E-01
    9019.786     26.536   2.920  9.04433E-01  1.02266E+00 -1.18230E-01
    9020.683     27.432   2.960  9.14202E-01  1.02153E+00 -1.07327E-01
    9021.591     28.341   3.000  9.24243E-01  1.02028E+00 -9.60386E-02
    9022.511     29.261   3.040  9.34304E-01  1.01895E+00 -8.46425E-02
    9023.444     30.194   3.080  9.44456E-01  1.01753E+00 -7.30755E-02
    9024.389     31.139   3.120  9.54998E-01  1.01607E+00 -6.10673E-02
    9025.346     32.096   3.160  9.65882E-01  1.01454E+00 -4.86536E-02
    9026.315     33.065   3.200  9.76638E-01  1.01299E+00 -3.63492E-02
    9027.297     34.046   3.240  9.86795E-01  1.01143E+00 -2.46335E-02
    9028.290     35.040   3.280  9.95799E-01  1.00984E+00 -1.40442E-02
    9029.296     36.046   3.320  1.00323E+00  1.00828E+00 -5.04388E-03
    9030.314     37.064   3.360  1.00899E+00  1.00670E+00  2.29576E-03
    9031.344     38.094   3.400  1.01344E+00  1.00516E+00  8.27186E-03
    9032.387     39.137   3.440  1.01709E+00  1.00365E+00  1.34438E-02
    9033.441     40.191   3.480  1.02074E+00  1.00216E+00  1.85741E-02
    9034.508     41.258   3.520  1.02499E+00  1.00072E+00  2.42647E-02
    9035.587     42.337   3.560  1.03008E+00  9.99324E-01  3.07575E-02
    9036.678     43.428   3.600  1.03602E+00  9.97995E-01  3.80246E-02
    9037.782     44.531   3.640  1.04261E+00  9.96716E-01  4.58954E-02
    9038.897     45.647   3.680  1.04967E+00  9.95511E-01  5.41581E-02
    9040.025     46.775   3.720  1.05690E+00  9.94382E-01  6.25181E-02
    9041.165     47.915   3.760  1.06398E+00  9.93332E-01  7.06487E-02
    9042.317     49.067   3.800  1.07049E+00  9.92362E-01  7.81240E-02
    9043.481     50.231   3.840  1.07588E+00  9.91471E-01  8.44048E-02
    9044.658     51.408   3.880  1.07968E+00  9.90661E-01  8.90170E-02
    9045.847     52.596   3.920  1.08150E+00  9.89931E-01  9.15690E-02
    9047.048     53.797   3.960  1.08105E+00  9.89284E-01  9.17615E-02
    9048.261     55.010   4.000  1.07815E+00  9.88717E-01  8.94378E-02
    9049.486     56.236   4.040  1.07296E+00  9.88234E-01  8.47260E-02
    9050.723     57.473   4.080  1.06565E+00  9.87857E-01  7.77966E-02
    9051.973     58.723   4.120  1.05635E+00  9.87560E-01  6.87877E-02
    9053.235     59.985   4.160  1.04511E+00  9.87323E-01  5.77882E-02
    9054.509     61.259   4.200  1.03214E+00  9.87189E-01  4.49483E-02
    9055.795     62.545   4.240  1.01768E+00  9.87134E-01  3.05451E-02
    9057.094     63.843   4.280  1.00224E+00  9.87137E-01  1.51062E-02
    9058.404     65.154   4.320  9.86593E-01  9.87238E-01 -6.45328E-04
    9059.727     66.477   4.360  9.71457E-01  9.87394E-01 -1.59371E-02
    9061.062     67.812   4.400  9.57561E-01  9.87625E-01 -3.00641E-02
    9062.409     69.159   4.440  9.45407E-01  9.87930E-01 -4.25228E-02
    9063.769     70.519   4.480  9.35229E-01  9.88286E-01 -5.30562E-02
    9065.140     71.890   4.520  9.27201E-01  9.88710E-01 -6.15094E-02
    9066.524     73.274   4.560  9.21419E-01  9.89179E-01 -6.77601E-02
    9067.920     74.670   4.600  9.17934E-01  9.89691E-01 -7.17570E-02
    9069.328     76.078   4.640  9.16707E-01  9.90244E-01 -7.35375E-02
    9070.749     77.498   4.680  9.17658E-01  9.90836E-01 -7.31782E-02
    9072.181     78.931   4.720  9.20655E-01  9.91466E-01 -7.08110E-02
    9073.626     80.376   4.760  9.25632E-01  9.92132E-01 -6.64993E-02
    9075.083     81.833   4.800  9.32538E-01  9.92829E-01 -6.02903E-02
    9076.552     83.302   4.840  9.41190E-01  9.93511E-01 -5.23211E-02
    9078.033     84.783   4.880  9.51362E-01  9.94221E-01 -4.28584E-02
    9079.527     86.277   4.920  9.62610E-01  9.94955E-01 -3.23448E-02
    9081.033     87.782   4.960  9.74286E-01  9.95667E-01 -2.13806E-02
    9082.551     89.300   5.000  9.85817E-01  9.96376E-01 -1.05587E-02
    9084.081     90.830   5.040  9.96694E-01  9.97081E-01 -3.86895E-04
    9085.623     92.373   5.080  1.00653E+00  9.97781E-01  8.74527E-03
    9087.177     93.927   5.120  1.01496E+00  9.98450E-01  1.65091E-02
    9088.744     95.494   5.160  1.02171E+00  9.99107E-01  2.25982E-02
    9090.323     97.073   5.200  1.02646E+00  9.99728E-01  2.67302E-02
    9091.914     98.664   5.240  1.02904E+00  1.00031E+00  2.87248E-02
    9093.517    100.267   5.280  1.02942E+00  1.00085E+00  2.85659E-02
    9095.133    101.882   5.320  1.02776E+00  1.00135E+00  2.64059E-02
    9096.760    103.510   5.360  1.02435E+00  1.00181E+00  2.25399E-02
    9098.400    105.150   5.400  1.01959E+00  1.00223E+00  1.73615E-02
    9100.052    106.802   5.440  1.01391E+00  1.00260E+00  1.13097E-02
    9101.716    108.466   5.480  1.00776E+00  1.00290E+00  4.85677E-03
    9103.393    110.142   5.520  1.00169E+00  1.00315E+00 -1.45970E-03
    9105.081    111.831   5.560  9.96322E-01  1.00333E+00 -7.01123E-03
    9106.782    113.532   5.600  9.92321E-01  1.00347E+00 -1.11450E-02
    9108.495    115.245   5.640  9.90153E-01  1.00355E+00 -1.33975E-02
    9110.220    116.970   5.680  9.89931E-01  1.00356E+00 -1.36316E-02
    9111.958    118.707   5.720  9.91531E-01  1.00350E+00 -1.19695E-02
    9113.707    120.457   5.760  9.94721E-01  1.00339E+00 -8.66793E-03
    9115.469    122.219   5.800  9.99155E-01  1.00321E+00 -4.05049E-03
    9117.243    123.992   5.840  1.00449E+00  1.00298E+00  1.51373E-03
    9119.029    125.779   5.880  1.01025E+00  1.00268E+00  7.57518E-03
    9120.827    127.577   5.920  1.01591E+00  1.00233E+00  1.35827E-02
    9122.638    129.387   5.960  1.02081E+00  1.00191E+00  1.88981E-02
    9124.460    131.210   6.000  1.02434E+00  1.00141E+00  2.29336E-02
