# # comment:                                                     FEFF 9.9.1  
# # Source:
# # Structure
# # Reduced
# # space
# # abc:
# # angles:102.469486
# # sites:
# # POT  SCF 100  7.0000   0, screened core-hole, AFOLP (folp(0)= 1.150)
# # Abs   Z=29 Rmt= 1.324 Rnm= 1.397 K  shell
# # Pot 1 Z=12 Rmt= 1.395 Rnm= 1.477
# # Pot 2 Z=29 Rmt= 1.299 Rnm= 1.384
# # Pot 3 Z=74 Rmt= 1.259 Rnm= 1.444
# # Pot 4 Z= 8 Rmt= 0.946 Rnm= 1.077
# # Gam_ch=1.729E+00 H-L exch Vi= 0.000E+00 Vr= 0.000E+00
# # Mu=-6.096E+00eV kf=2.249E+00 Vint=-1.624E+01eV Rs_int= 1.612
# FMS rfms= 9.0000
# # PATH  Rmax=-1.000,  Keep_limit= 0.00, Heap_limit 0.00  Pwcrit= 2.50%
#  S02=0.950  Temp=   0.00  Debye_temp=   0.00  Global_sig2= 0.00000
#  Energy zero shift, vr, vi    0.00000E+00   0.00000E+00
#  Curved wave amplitude ratio filter   4.000%
#     file         sig2 tot  cw amp ratio   deg  nlegs   reff  inp sig2
#     0/   0 paths used
#  xsedge+ 50, used to normalize mu           2.4604E-04
#  -----------------------------------------------------------------------
#  omega    e    k    mu    mu0     chi     @#
    8983.567     -9.906  -1.000  5.06933E-02  5.66568E-02 -5.96346E-03
    8983.866     -9.607  -0.960  5.39604E-02  6.08513E-02 -6.89088E-03
    8984.152     -9.321  -0.920  5.75409E-02  6.55193E-02 -7.97847E-03
    8984.427     -9.047  -0.880  6.14761E-02  7.07314E-02 -9.25532E-03
    8984.689     -8.784  -0.840  6.58137E-02  7.65695E-02 -1.07558E-02
    8984.939     -8.534  -0.800  7.06087E-02  8.31288E-02 -1.25201E-02
    8985.177     -8.297  -0.760  7.59235E-02  9.05186E-02 -1.45951E-02
    8985.402     -8.071  -0.720  8.18283E-02  9.88624E-02 -1.70342E-02
    8985.615     -7.858  -0.680  8.83998E-02  1.08297E-01 -1.98967E-02
    8985.817     -7.657  -0.640  9.57182E-02  1.18965E-01 -2.32467E-02
    8986.006     -7.468  -0.600  1.03861E-01  1.31009E-01 -2.71481E-02
    8986.182     -7.291  -0.560  1.12892E-01  1.44550E-01 -3.16581E-02
    8986.347     -7.126  -0.520  1.22845E-01  1.59661E-01 -3.68161E-02
    8986.499     -6.974  -0.480  1.33698E-01  1.76326E-01 -4.26277E-02
    8986.640     -6.834  -0.440  1.45352E-01  1.94399E-01 -4.90472E-02
    8986.768     -6.706  -0.400  1.57602E-01  2.13563E-01 -5.59614E-02
    8986.883     -6.590  -0.360  1.70137E-01  2.33321E-01 -6.31840E-02
    8986.987     -6.486  -0.320  1.82558E-01  2.53024E-01 -7.04658E-02
    8987.078     -6.395  -0.280  1.94431E-01  2.71955E-01 -7.75247E-02
    8987.158     -6.316  -0.240  2.05341E-01  2.89425E-01 -8.40839E-02
    8987.225     -6.248  -0.200  2.14950E-01  3.04857E-01 -8.99075E-02
    8987.280     -6.194  -0.160  2.23013E-01  3.17832E-01 -9.48194E-02
    8987.322     -6.151  -0.120  2.29378E-01  3.28084E-01 -9.87061E-02
    8987.353     -6.120  -0.080  2.33960E-01  3.35467E-01 -1.01507E-01
    8987.377     -6.096   0.000  2.37629E-01  3.41396E-01 -1.03768E-01
    8987.432     -6.041   0.120  2.45787E-01  3.54744E-01 -1.08956E-01
    8987.475     -5.999   0.160  2.52182E-01  3.65121E-01 -1.12938E-01
    8987.530     -5.944   0.200  2.60378E-01  3.78368E-01 -1.17990E-01
    8987.597     -5.877   0.240  2.70262E-01  3.94253E-01 -1.23990E-01
    8987.676     -5.797   0.280  2.81759E-01  4.12483E-01 -1.30724E-01
    8987.767     -5.706   0.320  2.94683E-01  4.32555E-01 -1.37871E-01
    8987.871     -5.602   0.360  3.08863E-01  4.53848E-01 -1.44985E-01
    8987.987     -5.486   0.400  3.24208E-01  4.75726E-01 -1.51518E-01
    8988.115     -5.358   0.440  3.40747E-01  4.97610E-01 -1.56863E-01
    8988.255     -5.218   0.480  3.58593E-01  5.19031E-01 -1.60438E-01
    8988.407     -5.066   0.520  3.77863E-01  5.39704E-01 -1.61841E-01
    8988.572     -4.901   0.560  3.98509E-01  5.59499E-01 -1.60990E-01
    8988.749     -4.724   0.600  4.20170E-01  5.78361E-01 -1.58192E-01
    8988.938     -4.536   0.640  4.42410E-01  5.96357E-01 -1.53947E-01
    8989.139     -4.334   0.680  4.64855E-01  6.13592E-01 -1.48737E-01
    8989.352     -4.121   0.720  4.87272E-01  6.30148E-01 -1.42876E-01
    8989.578     -3.895   0.760  5.09588E-01  6.46145E-01 -1.36557E-01
    8989.816     -3.658   0.800  5.31753E-01  6.61673E-01 -1.29920E-01
    8990.065     -3.408   0.840  5.53271E-01  6.76829E-01 -1.23558E-01
    8990.328     -3.146   0.880  5.73098E-01  6.91655E-01 -1.18557E-01
    8990.602     -2.871   0.920  5.92017E-01  7.06198E-01 -1.14181E-01
    8990.888     -2.585   0.960  6.15569E-01  7.20511E-01 -1.04942E-01
    8991.187     -2.286   1.000  6.51501E-01  7.34595E-01 -8.30945E-02
    8991.498     -1.975   1.040  7.02332E-01  7.48484E-01 -4.61522E-02
    8991.821     -1.652   1.080  7.60464E-01  7.62160E-01 -1.69607E-03
    8992.156     -1.317   1.120  8.11418E-01  7.75642E-01  3.57769E-02
    8992.504     -0.969   1.160  8.43867E-01  7.88918E-01  5.49490E-02
    8992.864     -0.610   1.200  8.58239E-01  8.01957E-01  5.62822E-02
    8993.235     -0.238   1.240  8.64030E-01  8.14740E-01  4.92900E-02
    8993.619      0.146   1.280  8.70401E-01  8.27290E-01  4.31111E-02
    8994.016      0.542   1.320  8.81177E-01  8.39540E-01  4.16371E-02
    8994.424      0.951   1.360  8.97746E-01  8.51489E-01  4.62571E-02
    8994.845      1.371   1.400  9.24144E-01  8.63113E-01  6.10317E-02
    8995.278      1.804   1.440  9.64478E-01  8.74384E-01  9.00935E-02
    8995.723      2.249   1.480  1.01455E+00  8.85299E-01  1.29251E-01
    8996.180      2.707   1.520  1.06395E+00  8.95830E-01  1.68125E-01
    8996.649      3.176   1.560  1.10590E+00  9.05973E-01  1.99925E-01
    8997.131      3.657   1.600  1.14282E+00  9.15684E-01  2.27133E-01
    8997.624      4.151   1.640  1.18051E+00  9.24975E-01  2.55530E-01
    8998.130      4.657   1.680  1.21890E+00  9.33825E-01  2.85072E-01
    8998.649      5.175   1.720  1.25492E+00  9.42211E-01  3.12710E-01
    8999.179      5.706   1.760  1.28342E+00  9.50150E-01  3.33271E-01
    8999.721      6.248   1.800  1.29822E+00  9.57643E-01  3.40572E-01
    9000.276      6.803   1.840  1.29604E+00  9.64650E-01  3.31393E-01
    9000.843      7.370   1.880  1.26761E+00  9.71210E-01  2.96401E-01
    9001.422      7.949   1.920  1.20661E+00  9.77286E-01  2.29328E-01
    9002.014      8.540   1.960  1.12910E+00  9.82923E-01  1.46178E-01
    9002.617      9.144   2.000  1.05919E+00  9.88127E-01  7.10613E-02
    9003.233      9.760   2.040  1.01275E+00  9.92857E-01  1.98928E-02
    9003.861     10.387   2.080  9.94576E-01  9.97183E-01 -2.60695E-03
    9004.501     11.028   2.120  9.98125E-01  1.00109E+00 -2.96552E-03
    9005.153     11.680   2.160  1.00931E+00  1.00457E+00  4.74375E-03
    9005.817     12.344   2.200  1.01522E+00  1.00768E+00  7.54282E-03
    9006.494     13.021   2.240  1.01238E+00  1.01040E+00  1.98094E-03
    9007.183     13.710   2.280  1.00239E+00  1.01277E+00 -1.03787E-02
    9007.884     14.411   2.320  9.86621E-01  1.01480E+00 -2.81774E-02
    9008.597     15.124   2.360  9.73195E-01  1.01650E+00 -4.33068E-02
    9009.323     15.849   2.400  9.74001E-01  1.01789E+00 -4.38845E-02
    9010.060     16.587   2.440  9.94044E-01  1.01900E+00 -2.49563E-02
    9010.810     17.337   2.480  1.03012E+00  1.01983E+00  1.02878E-02
    9011.572     18.099   2.520  1.07275E+00  1.02042E+00  5.23391E-02
    9012.346     18.873   2.560  1.10945E+00  1.02075E+00  8.86905E-02
    9013.133     19.659   2.600  1.12335E+00  1.02088E+00  1.02468E-01
    9013.931     20.458   2.640  1.10148E+00  1.02081E+00  8.06701E-02
    9014.742     21.269   2.680  1.05570E+00  1.02055E+00  3.51475E-02
    9015.565     22.092   2.720  1.01326E+00  1.02014E+00 -6.88168E-03
    9016.400     22.927   2.760  9.77331E-01  1.01959E+00 -4.22574E-02
    9017.247     23.774   2.800  9.48377E-01  1.01889E+00 -7.05121E-02
    9018.107     24.634   2.840  9.26799E-01  1.01809E+00 -9.12890E-02
    9018.979     25.505   2.880  9.11998E-01  1.01717E+00 -1.05177E-01
    9019.863     26.389   2.920  9.02945E-01  1.01618E+00 -1.13231E-01
    9020.759     27.285   2.960  8.98197E-01  1.01512E+00 -1.16922E-01
    9021.667     28.194   3.000  8.96029E-01  1.01399E+00 -1.17962E-01
    9022.587     29.114   3.040  8.95379E-01  1.01282E+00 -1.17437E-01
    9023.520     30.047   3.080  8.96080E-01  1.01160E+00 -1.15522E-01
    9024.465     30.992   3.120  8.98353E-01  1.01037E+00 -1.12022E-01
    9025.422     31.949   3.160  9.02317E-01  1.00912E+00 -1.06803E-01
    9026.391     32.918   3.200  9.07917E-01  1.00788E+00 -9.99642E-02
    9027.373     33.900   3.240  9.14739E-01  1.00662E+00 -9.18831E-02
    9028.366     34.893   3.280  9.22501E-01  1.00539E+00 -8.28888E-02
    9029.372     35.899   3.320  9.31233E-01  1.00419E+00 -7.29560E-02
    9030.390     36.917   3.360  9.41107E-01  1.00300E+00 -6.18919E-02
    9031.421     37.947   3.400  9.52260E-01  1.00185E+00 -4.95856E-02
    9032.463     38.990   3.440  9.64715E-01  1.00073E+00 -3.60173E-02
    9033.518     40.044   3.480  9.78433E-01  9.99681E-01 -2.12480E-02
    9034.584     41.111   3.520  9.93053E-01  9.98653E-01 -5.59993E-03
    9035.663     42.190   3.560  1.00806E+00  9.97693E-01  1.03684E-02
    9036.755     43.281   3.600  1.02274E+00  9.96802E-01  2.59349E-02
    9037.858     44.385   3.640  1.03617E+00  9.95960E-01  4.02062E-02
    9038.973     45.500   3.680  1.04726E+00  9.95168E-01  5.20881E-02
    9040.101     46.628   3.720  1.05520E+00  9.94448E-01  6.07535E-02
    9041.241     47.768   3.760  1.05956E+00  9.93805E-01  6.57597E-02
    9042.393     48.920   3.800  1.06043E+00  9.93237E-01  6.71919E-02
    9043.558     50.084   3.840  1.05849E+00  9.92745E-01  6.57482E-02
    9044.734     51.261   3.880  1.05488E+00  9.92306E-01  6.25791E-02
    9045.923     52.450   3.920  1.05077E+00  9.91940E-01  5.88275E-02
    9047.124     53.651   3.960  1.04699E+00  9.91628E-01  5.53586E-02
    9048.337     54.864   4.000  1.04407E+00  9.91413E-01  5.26571E-02
    9049.562     56.089   4.040  1.04201E+00  9.91252E-01  5.07616E-02
    9050.800     57.326   4.080  1.04052E+00  9.91164E-01  4.93539E-02
    9052.049     58.576   4.120  1.03907E+00  9.91129E-01  4.79370E-02
    9053.311     59.838   4.160  1.03723E+00  9.91187E-01  4.60477E-02
    9054.585     61.112   4.200  1.03457E+00  9.91274E-01  4.32975E-02
    9055.872     62.398   4.240  1.03086E+00  9.91431E-01  3.94279E-02
    9057.170     63.697   4.280  1.02597E+00  9.91658E-01  3.43107E-02
    9058.481     65.007   4.320  1.01995E+00  9.91929E-01  2.80170E-02
    9059.803     66.330   4.360  1.01311E+00  9.92244E-01  2.08685E-02
    9061.138     67.665   4.400  1.00605E+00  9.92600E-01  1.34470E-02
    9062.486     69.012   4.440  9.99458E-01  9.92997E-01  6.46105E-03
    9063.845     70.372   4.480  9.93991E-01  9.93433E-01  5.58078E-04
    9065.217     71.743   4.520  9.90123E-01  9.93908E-01 -3.78502E-03
    9066.600     73.127   4.560  9.88021E-01  9.94420E-01 -6.39898E-03
    9067.996     74.523   4.600  9.87418E-01  9.94966E-01 -7.54835E-03
    9069.405     75.931   4.640  9.87593E-01  9.95522E-01 -7.92976E-03
    9070.825     77.352   4.680  9.87599E-01  9.96108E-01 -8.50887E-03
    9072.257     78.784   4.720  9.86561E-01  9.96698E-01 -1.01375E-02
    9073.702     80.229   4.760  9.84186E-01  9.97292E-01 -1.31052E-02
    9075.159     81.686   4.800  9.80816E-01  9.97888E-01 -1.70716E-02
    9076.628     83.155   4.840  9.77134E-01  9.98507E-01 -2.13731E-02
    9078.110     84.636   4.880  9.73731E-01  9.99104E-01 -2.53735E-02
    9079.603     86.130   4.920  9.71028E-01  9.99719E-01 -2.86913E-02
    9081.109     87.636   4.960  9.69042E-01  1.00030E+00 -3.12631E-02
    9082.627     89.154   5.000  9.67605E-01  1.00086E+00 -3.32557E-02
    9084.157     90.684   5.040  9.66469E-01  1.00141E+00 -3.49372E-02
    9085.699     92.226   5.080  9.65488E-01  1.00194E+00 -3.64544E-02
    9087.254     93.780   5.120  9.64720E-01  1.00244E+00 -3.77234E-02
    9088.820     95.347   5.160  9.64434E-01  1.00291E+00 -3.84732E-02
    9090.399     96.926   5.200  9.65054E-01  1.00333E+00 -3.82790E-02
    9091.990     98.517   5.240  9.67031E-01  1.00374E+00 -3.67114E-02
    9093.593    100.120   5.280  9.70642E-01  1.00409E+00 -3.34492E-02
    9095.209    101.736   5.320  9.76004E-01  1.00442E+00 -2.84159E-02
    9096.836    103.363   5.360  9.82824E-01  1.00468E+00 -2.18602E-02
    9098.476    105.003   5.400  9.90576E-01  1.00493E+00 -1.43520E-02
    9100.128    106.655   5.440  9.98476E-01  1.00511E+00 -6.63028E-03
    9101.792    108.319   5.480  1.00586E+00  1.00524E+00  6.24352E-04
    9103.469    109.996   5.520  1.01229E+00  1.00533E+00  6.96181E-03
    9105.157    111.684   5.560  1.01756E+00  1.00534E+00  1.22136E-02
    9106.858    113.385   5.600  1.02173E+00  1.00532E+00  1.64189E-02
    9108.571    115.098   5.640  1.02492E+00  1.00524E+00  1.96784E-02
    9110.296    116.823   5.680  1.02719E+00  1.00513E+00  2.20559E-02
    9112.034    118.561   5.720  1.02859E+00  1.00497E+00  2.36155E-02
    9113.783    120.310   5.760  1.02925E+00  1.00474E+00  2.45069E-02
    9115.545    122.072   5.800  1.02940E+00  1.00447E+00  2.49260E-02
    9117.319    123.846   5.840  1.02908E+00  1.00413E+00  2.49495E-02
    9119.105    125.632   5.880  1.02823E+00  1.00378E+00  2.44480E-02
    9120.903    127.430   5.920  1.02658E+00  1.00336E+00  2.32146E-02
    9122.714    129.241   5.960  1.02408E+00  1.00293E+00  2.11476E-02
    9124.537    131.063   6.000  1.02063E+00  1.00241E+00  1.82183E-02
