# # comment:                                                     FEFF 9.9.1  
# # Source:
# # Structure
# # Reduced
# # space
# # abc:
# # angles:
# # sites:
# # POT  SCF 100  7.0000   0, screened core-hole, AFOLP (folp(0)= 1.150)
# # Abs   Z=29 Rmt= 1.166 Rnm= 1.252 K  shell
# # Pot 1 Z= 3 Rmt= 1.148 Rnm= 1.208
# # Pot 2 Z=57 Rmt= 1.753 Rnm= 1.830
# # Pot 3 Z=29 Rmt= 1.172 Rnm= 1.257
# # Pot 4 Z= 8 Rmt= 1.052 Rnm= 1.100
# # Gam_ch=1.729E+00 H-L exch Vi= 0.000E+00 Vr= 0.000E+00
# # Mu=-8.761E+00eV kf=2.021E+00 Vint=-1.952E+01eV Rs_int= 1.794
# FMS rfms= 9.0000
# # PATH  Rmax=-1.000,  Keep_limit= 0.00, Heap_limit 0.00  Pwcrit= 2.50%
#  S02=0.950  Temp=   0.00  Debye_temp=   0.00  Global_sig2= 0.00000
#  Energy zero shift, vr, vi    0.00000E+00   0.00000E+00
#  Curved wave amplitude ratio filter   4.000%
#     file         sig2 tot  cw amp ratio   deg  nlegs   reff  inp sig2
#     0/   0 paths used
#  xsedge+ 50, used to normalize mu           2.4653E-04
#  -----------------------------------------------------------------------
#  omega    e    k    mu    mu0     chi     @#
    8985.464    -12.571  -1.000  3.83767E-02  5.55695E-02 -1.71928E-02
    8985.763    -12.272  -0.960  4.03819E-02  5.96899E-02 -1.93080E-02
    8986.049    -11.985  -0.920  4.25468E-02  6.42774E-02 -2.17306E-02
    8986.323    -11.711  -0.880  4.48918E-02  6.94018E-02 -2.45101E-02
    8986.585    -11.449  -0.840  4.74407E-02  7.51445E-02 -2.77038E-02
    8986.835    -11.199  -0.800  5.02214E-02  8.15996E-02 -3.13782E-02
    8987.073    -10.961  -0.760  5.32664E-02  8.88757E-02 -3.56092E-02
    8987.299    -10.736  -0.720  5.66126E-02  9.70952E-02 -4.04826E-02
    8987.512    -10.522  -0.680  6.03009E-02  1.06393E-01 -4.60925E-02
    8987.713    -10.321  -0.640  6.43753E-02  1.16913E-01 -5.25382E-02
    8987.902    -10.132  -0.600  6.88787E-02  1.28796E-01 -5.99172E-02
    8988.079     -9.955  -0.560  7.38475E-02  1.42161E-01 -6.83136E-02
    8988.244     -9.791  -0.520  7.93023E-02  1.57082E-01 -7.77793E-02
    8988.396     -9.638  -0.480  8.52340E-02  1.73543E-01 -8.83090E-02
    8988.536     -9.498  -0.440  9.15894E-02  1.91400E-01 -9.98109E-02
    8988.664     -9.370  -0.400  9.82573E-02  2.10340E-01 -1.12082E-01
    8988.780     -9.254  -0.360  1.05065E-01  2.29867E-01 -1.24802E-01
    8988.884     -9.151  -0.320  1.11790E-01  2.49342E-01 -1.37553E-01
    8988.975     -9.059  -0.280  1.18187E-01  2.68053E-01 -1.49866E-01
    8989.054     -8.980  -0.240  1.24027E-01  2.85316E-01 -1.61289E-01
    8989.121     -8.913  -0.200  1.29125E-01  3.00563E-01 -1.71438E-01
    8989.176     -8.858  -0.160  1.33361E-01  3.13379E-01 -1.80018E-01
    8989.219     -8.816  -0.120  1.36671E-01  3.23502E-01 -1.86832E-01
    8989.249     -8.785  -0.080  1.39032E-01  3.30791E-01 -1.91759E-01
    8989.274     -8.761   0.000  1.40910E-01  3.36643E-01 -1.95733E-01
    8989.329     -8.706   0.120  1.45015E-01  3.49841E-01 -2.04826E-01
    8989.371     -8.663   0.160  1.48138E-01  3.60076E-01 -2.11938E-01
    8989.426     -8.608   0.200  1.52029E-01  3.73124E-01 -2.21095E-01
    8989.493     -8.541   0.240  1.56565E-01  3.88792E-01 -2.32227E-01
    8989.572     -8.462   0.280  1.61520E-01  4.06723E-01 -2.45203E-01
    8989.664     -8.371   0.320  1.66700E-01  4.26472E-01 -2.59771E-01
    8989.768     -8.267   0.360  1.71854E-01  4.47376E-01 -2.75522E-01
    8989.883     -8.151   0.400  1.76876E-01  4.68820E-01 -2.91944E-01
    8990.011     -8.023   0.440  1.81838E-01  4.90221E-01 -3.08383E-01
    8990.152     -7.883   0.480  1.87021E-01  5.11113E-01 -3.24091E-01
    8990.304     -7.730   0.520  1.92816E-01  5.31210E-01 -3.38394E-01
    8990.469     -7.566   0.560  1.99495E-01  5.50342E-01 -3.50847E-01
    8990.645     -7.389   0.600  2.07206E-01  5.68536E-01 -3.61330E-01
    8990.834     -7.200   0.640  2.15814E-01  5.85819E-01 -3.70005E-01
    8991.036     -6.999   0.680  2.25453E-01  6.02278E-01 -3.76826E-01
    8991.249     -6.786   0.720  2.36687E-01  6.18037E-01 -3.81350E-01
    8991.474     -6.560   0.760  2.50322E-01  6.33197E-01 -3.82875E-01
    8991.712     -6.322   0.800  2.66966E-01  6.47871E-01 -3.80906E-01
    8991.962     -6.072   0.840  2.86105E-01  6.62140E-01 -3.76036E-01
    8992.224     -5.810   0.880  3.05362E-01  6.76048E-01 -3.70686E-01
    8992.499     -5.536   0.920  3.21721E-01  6.89683E-01 -3.67962E-01
    8992.785     -5.249   0.960  3.34607E-01  7.03063E-01 -3.68456E-01
    8993.084     -4.951   1.000  3.46829E-01  7.16232E-01 -3.69403E-01
    8993.395     -4.640   1.040  3.61573E-01  7.29205E-01 -3.67632E-01
    8993.718     -4.317   1.080  3.80193E-01  7.41972E-01 -3.61779E-01
    8994.053     -3.981   1.120  4.03818E-01  7.54572E-01 -3.50753E-01
    8994.400     -3.634   1.160  4.35584E-01  7.66978E-01 -3.31394E-01
    8994.760     -3.274   1.200  4.80780E-01  7.79180E-01 -2.98400E-01
    8995.132     -2.902   1.240  5.44892E-01  7.91184E-01 -2.46292E-01
    8995.516     -2.518   1.280  6.31832E-01  8.02953E-01 -1.71121E-01
    8995.912     -2.122   1.320  7.43832E-01  8.14510E-01 -7.06779E-02
    8996.321     -1.714   1.360  8.83093E-01  8.25812E-01  5.72806E-02
    8996.741     -1.293   1.400  1.04653E+00  8.36837E-01  2.09692E-01
    8997.174     -0.860   1.440  1.19102E+00  8.47601E-01  3.43415E-01
    8997.619     -0.415   1.480  1.22861E+00  8.58041E-01  3.70565E-01
    8998.076      0.042   1.520  1.14949E+00  8.68172E-01  2.81320E-01
    8998.546      0.511   1.560  1.04124E+00  8.77992E-01  1.63251E-01
    8999.027      0.993   1.600  9.68934E-01  8.87454E-01  8.14798E-02
    8999.521      1.487   1.640  9.58042E-01  8.96577E-01  6.14652E-02
    9000.027      1.993   1.680  1.01643E+00  9.05316E-01  1.11118E-01
    9000.545      2.511   1.720  1.13200E+00  9.13689E-01  2.18307E-01
    9001.076      3.041   1.760  1.25397E+00  9.21673E-01  3.32294E-01
    9001.618      3.584   1.800  1.30786E+00  9.29268E-01  3.78596E-01
    9002.173      4.138   1.840  1.27621E+00  9.36493E-01  3.39713E-01
    9002.740      4.705   1.880  1.21831E+00  9.43308E-01  2.75006E-01
    9003.319      5.284   1.920  1.17472E+00  9.49735E-01  2.24988E-01
    9003.910      5.876   1.960  1.13852E+00  9.55753E-01  1.82765E-01
    9004.514      6.479   2.000  1.10641E+00  9.61408E-01  1.45005E-01
    9005.129      7.095   2.040  1.09895E+00  9.66660E-01  1.32287E-01
    9005.757      7.723   2.080  1.11449E+00  9.71555E-01  1.42932E-01
    9006.397      8.363   2.120  1.13772E+00  9.76077E-01  1.61646E-01
    9007.050      9.015   2.160  1.15576E+00  9.80229E-01  1.75529E-01
    9007.714      9.680   2.200  1.16017E+00  9.84017E-01  1.76154E-01
    9008.391     10.356   2.240  1.15092E+00  9.87488E-01  1.63436E-01
    9009.080     11.045   2.280  1.12841E+00  9.90606E-01  1.37804E-01
    9009.781     11.746   2.320  1.09281E+00  9.93420E-01  9.93879E-02
    9010.494     12.459   2.360  1.05267E+00  9.95937E-01  5.67315E-02
    9011.219     13.185   2.400  1.02438E+00  9.98164E-01  2.62122E-02
    9011.957     13.922   2.440  1.02384E+00  1.00011E+00  2.37309E-02
    9012.707     14.672   2.480  1.04083E+00  1.00177E+00  3.90652E-02
    9013.469     15.434   2.520  1.05918E+00  1.00320E+00  5.59799E-02
    9014.243     16.208   2.560  1.07441E+00  1.00440E+00  7.00131E-02
    9015.029     16.995   2.600  1.08519E+00  1.00538E+00  7.98102E-02
    9015.828     17.793   2.640  1.09084E+00  1.00613E+00  8.47068E-02
    9016.639     18.604   2.680  1.09120E+00  1.00672E+00  8.44725E-02
    9017.462     19.427   2.720  1.08646E+00  1.00710E+00  7.93572E-02
    9018.297     20.262   2.760  1.07708E+00  1.00734E+00  6.97390E-02
    9019.144     21.110   2.800  1.06319E+00  1.00744E+00  5.57512E-02
    9020.004     21.969   2.840  1.04507E+00  1.00739E+00  3.76845E-02
    9020.875     22.841   2.880  1.02368E+00  1.00721E+00  1.64677E-02
    9021.759     23.725   2.920  1.00035E+00  1.00693E+00 -6.58452E-03
    9022.655     24.621   2.960  9.76336E-01  1.00655E+00 -3.02103E-02
    9023.564     25.529   3.000  9.53343E-01  1.00607E+00 -5.27286E-02
    9024.484     26.450   3.040  9.33055E-01  1.00551E+00 -7.24596E-02
    9025.417     27.382   3.080  9.16221E-01  1.00488E+00 -8.86613E-02
    9026.362     28.327   3.120  9.02987E-01  1.00422E+00 -1.01236E-01
    9027.319     29.284   3.160  8.92838E-01  1.00350E+00 -1.10659E-01
    9028.288     30.254   3.200  8.85212E-01  1.00273E+00 -1.17519E-01
    9029.269     31.235   3.240  8.79992E-01  1.00195E+00 -1.21957E-01
    9030.263     32.229   3.280  8.77298E-01  1.00113E+00 -1.23836E-01
    9031.269     33.235   3.320  8.77213E-01  1.00031E+00 -1.23100E-01
    9032.287     34.253   3.360  8.79632E-01  9.99487E-01 -1.19855E-01
    9033.317     35.283   3.400  8.84094E-01  9.98659E-01 -1.14565E-01
    9034.360     36.325   3.440  8.89704E-01  9.97833E-01 -1.08129E-01
    9035.414     37.380   3.480  8.95651E-01  9.97013E-01 -1.01362E-01
    9036.481     38.447   3.520  9.01512E-01  9.96221E-01 -9.47096E-02
    9037.560     39.526   3.560  9.07394E-01  9.95460E-01 -8.80662E-02
    9038.651     40.617   3.600  9.13596E-01  9.94711E-01 -8.11151E-02
    9039.755     41.720   3.640  9.20574E-01  9.93996E-01 -7.34226E-02
    9040.870     42.836   3.680  9.28428E-01  9.93320E-01 -6.48917E-02
    9041.998     43.963   3.720  9.36670E-01  9.92681E-01 -5.60106E-02
    9043.138     45.103   3.760  9.44610E-01  9.92081E-01 -4.74710E-02
    9044.290     46.256   3.800  9.51862E-01  9.91523E-01 -3.96606E-02
    9045.454     47.420   3.840  9.58404E-01  9.91007E-01 -3.26026E-02
    9046.631     48.596   3.880  9.64613E-01  9.90553E-01 -2.59399E-02
    9047.820     49.785   3.920  9.71121E-01  9.90121E-01 -1.90002E-02
    9049.020     50.986   3.960  9.78647E-01  9.89755E-01 -1.11082E-02
    9050.234     52.199   4.000  9.87533E-01  9.89434E-01 -1.90029E-03
    9051.459     53.424   4.040  9.97530E-01  9.89178E-01  8.35277E-03
    9052.696     54.662   4.080  1.00770E+00  9.88944E-01  1.87514E-02
    9053.946     55.912   4.120  1.01674E+00  9.88774E-01  2.79619E-02
    9055.208     57.173   4.160  1.02349E+00  9.88649E-01  3.48442E-02
    9056.482     58.447   4.200  1.02766E+00  9.88569E-01  3.90884E-02
    9057.768     59.734   4.240  1.02979E+00  9.88555E-01  4.12316E-02
    9059.067     61.032   4.280  1.03079E+00  9.88585E-01  4.22054E-02
    9060.377     62.343   4.320  1.03165E+00  9.88656E-01  4.29927E-02
    9061.700     63.666   4.360  1.03311E+00  9.88767E-01  4.43394E-02
    9063.035     65.001   4.400  1.03535E+00  9.88918E-01  4.64302E-02
    9064.382     66.348   4.440  1.03806E+00  9.89108E-01  4.89538E-02
    9065.742     67.707   4.480  1.04083E+00  9.89338E-01  5.14906E-02
    9067.113     69.079   4.520  1.04356E+00  9.89605E-01  5.39513E-02
    9068.497     70.463   4.560  1.04662E+00  9.89887E-01  5.67333E-02
    9069.893     71.859   4.600  1.05062E+00  9.90225E-01  6.03974E-02
    9071.301     73.267   4.640  1.05578E+00  9.90577E-01  6.52067E-02
    9072.722     74.687   4.680  1.06184E+00  9.90964E-01  7.08796E-02
    9074.154     76.120   4.720  1.06806E+00  9.91383E-01  7.66745E-02
    9075.599     77.564   4.760  1.07332E+00  9.91810E-01  8.15148E-02
    9077.056     79.021   4.800  1.07655E+00  9.92244E-01  8.43020E-02
    9078.525     80.491   4.840  1.07678E+00  9.92705E-01  8.40765E-02
    9080.006     81.972   4.880  1.07327E+00  9.93173E-01  8.00928E-02
    9081.500     83.465   4.920  1.06574E+00  9.93665E-01  7.20748E-02
    9083.005     84.971   4.960  1.05460E+00  9.94138E-01  6.04653E-02
    9084.523     86.489   5.000  1.04097E+00  9.94633E-01  4.63403E-02
    9086.053     88.019   5.040  1.02611E+00  9.95104E-01  3.10037E-02
    9087.596     89.561   5.080  1.01110E+00  9.95595E-01  1.55072E-02
    9089.150     91.116   5.120  9.96729E-01  9.96061E-01  6.68935E-04
    9090.717     92.682   5.160  9.83762E-01  9.96521E-01 -1.27590E-02
    9092.296     94.261   5.200  9.73043E-01  9.96975E-01 -2.39325E-02
    9093.887     95.852   5.240  9.65226E-01  9.97400E-01 -3.21739E-02
    9095.490     97.456   5.280  9.60463E-01  9.97816E-01 -3.73535E-02
    9097.105     99.071   5.320  9.58291E-01  9.98224E-01 -3.99334E-02
    9098.733    100.699   5.360  9.57864E-01  9.98598E-01 -4.07343E-02
    9100.373    102.338   5.400  9.58290E-01  9.98936E-01 -4.06461E-02
    9102.025    103.990   5.440  9.58660E-01  9.99238E-01 -4.05774E-02
    9103.689    105.655   5.480  9.58186E-01  9.99527E-01 -4.13406E-02
    9105.366    107.331   5.520  9.56490E-01  9.99782E-01 -4.32914E-02
    9107.054    109.020   5.560  9.53948E-01  1.00002E+00 -4.60732E-02
    9108.755    110.720   5.600  9.51237E-01  1.00020E+00 -4.89646E-02
    9110.468    112.433   5.640  9.48989E-01  1.00036E+00 -5.13737E-02
    9112.193    114.159   5.680  9.47365E-01  1.00046E+00 -5.30976E-02
    9113.930    115.896   5.720  9.46280E-01  1.00054E+00 -5.42636E-02
    9115.680    117.645   5.760  9.45494E-01  1.00056E+00 -5.50695E-02
    9117.442    119.407   5.800  9.45049E-01  1.00057E+00 -5.55180E-02
    9119.216    121.181   5.840  9.45258E-01  1.00053E+00 -5.52717E-02
    9121.002    122.967   5.880  9.46685E-01  1.00043E+00 -5.37461E-02
    9122.800    124.766   5.920  9.49773E-01  1.00031E+00 -5.05407E-02
    9124.611    126.576   5.960  9.54397E-01  1.00013E+00 -4.57318E-02
    9126.433    128.399   6.000  9.60228E-01  9.99904E-01 -3.96757E-02
