# # comment:                                                     FEFF 9.9.1  
# # Source:
# # Structure
# # Reduced
# # space
# # abc:
# # angles:
# # sites:
# # POT  SCF 100  7.0000   0, screened core-hole, AFOLP (folp(0)= 1.150)
# # Abs   Z=29 Rmt= 1.058 Rnm= 1.242 K  shell
# # Pot 1 Z=40 Rmt= 1.347 Rnm= 1.537
# # Pot 2 Z=29 Rmt= 1.058 Rnm= 1.242
# # Pot 3 Z= 8 Rmt= 1.027 Rnm= 1.192
# # Pot 4 Z= 9 Rmt= 0.996 Rnm= 1.150
# # Gam_ch=1.729E+00 H-L exch Vi= 0.000E+00 Vr= 0.000E+00
# # Mu=-8.910E+00eV kf=1.924E+00 Vint=-1.211E+01eV Rs_int= 1.885
# FMS rfms= 9.0000
# # PATH  Rmax=-1.000,  Keep_limit= 0.00, Heap_limit 0.00  Pwcrit= 2.50%
#  S02=0.950  Temp=   0.00  Debye_temp=   0.00  Global_sig2= 0.00000
#  Energy zero shift, vr, vi    0.00000E+00   0.00000E+00
#  Curved wave amplitude ratio filter   4.000%
#     file         sig2 tot  cw amp ratio   deg  nlegs   reff  inp sig2
#     0/   0 paths used
#  xsedge+ 50, used to normalize mu           2.4711E-04
#  -----------------------------------------------------------------------
#  omega    e    k    mu    mu0     chi     @#
    8983.336    -12.720  -1.000  2.28637E-02  4.18038E-02 -1.89401E-02
    8983.635    -12.421  -0.960  2.35816E-02  4.42478E-02 -2.06663E-02
    8983.921    -12.135  -0.920  2.43313E-02  4.69064E-02 -2.25751E-02
    8984.195    -11.860  -0.880  2.51171E-02  4.98057E-02 -2.46885E-02
    8984.458    -11.598  -0.840  2.59443E-02  5.29758E-02 -2.70315E-02
    8984.707    -11.348  -0.800  2.68193E-02  5.64508E-02 -2.96315E-02
    8984.945    -11.111  -0.760  2.77501E-02  6.02693E-02 -3.25192E-02
    8985.171    -10.885  -0.720  2.87464E-02  6.44739E-02 -3.57275E-02
    8985.384    -10.672  -0.680  2.98191E-02  6.91107E-02 -3.92916E-02
    8985.585    -10.471  -0.640  3.09804E-02  7.42272E-02 -4.32468E-02
    8985.774    -10.282  -0.600  3.22423E-02  7.98686E-02 -4.76263E-02
    8985.951    -10.105  -0.560  3.36142E-02  8.60710E-02 -5.24568E-02
    8986.116     -9.940  -0.520  3.50994E-02  9.28523E-02 -5.77528E-02
    8986.268     -9.788  -0.480  3.66896E-02  1.00198E-01 -6.35082E-02
    8986.408     -9.648  -0.440  3.83592E-02  1.08046E-01 -6.96865E-02
    8986.536     -9.520  -0.400  4.00622E-02  1.16273E-01 -7.62112E-02
    8986.652     -9.404  -0.360  4.17344E-02  1.24693E-01 -8.29583E-02
    8986.756     -9.300  -0.320  4.33034E-02  1.33060E-01 -8.97569E-02
    8986.847     -9.209  -0.280  4.47052E-02  1.41103E-01 -9.63982E-02
    8986.926     -9.129  -0.240  4.58978E-02  1.48553E-01 -1.02655E-01
    8986.993     -9.062  -0.200  4.68677E-02  1.55174E-01 -1.08306E-01
    8987.048     -9.007  -0.160  4.76252E-02  1.60782E-01 -1.13156E-01
    8987.091     -8.965  -0.120  4.81912E-02  1.65247E-01 -1.17056E-01
    8987.121     -8.934  -0.080  4.85853E-02  1.68486E-01 -1.19901E-01
    8987.146     -8.910   0.000  4.89051E-02  1.71108E-01 -1.22202E-01
    8987.201     -8.855   0.120  5.01245E-02  1.77051E-01 -1.26927E-01
    8987.243     -8.812   0.160  5.09132E-02  1.81724E-01 -1.30811E-01
    8987.298     -8.758   0.200  5.18108E-02  1.87771E-01 -1.35961E-01
    8987.365     -8.691   0.240  5.27441E-02  1.95185E-01 -1.42441E-01
    8987.445     -8.611   0.280  5.36365E-02  2.03923E-01 -1.50287E-01
    8987.536     -8.520   0.320  5.43952E-02  2.13903E-01 -1.59507E-01
    8987.640     -8.416   0.360  5.49582E-02  2.25005E-01 -1.70047E-01
    8987.755     -8.300   0.400  5.53170E-02  2.37105E-01 -1.81788E-01
    8987.883     -8.172   0.440  5.55049E-02  2.50082E-01 -1.94577E-01
    8988.024     -8.032   0.480  5.55853E-02  2.63844E-01 -2.08258E-01
    8988.176     -7.880   0.520  5.56622E-02  2.78343E-01 -2.22681E-01
    8988.341     -7.715   0.560  5.58309E-02  2.93569E-01 -2.37738E-01
    8988.517     -7.538   0.600  5.61632E-02  3.09535E-01 -2.53371E-01
    8988.706     -7.349   0.640  5.67202E-02  3.26272E-01 -2.69552E-01
    8988.908     -7.148   0.680  5.75470E-02  3.43811E-01 -2.86264E-01
    8989.121     -6.935   0.720  5.86823E-02  3.62187E-01 -3.03505E-01
    8989.347     -6.709   0.760  6.01637E-02  3.81424E-01 -3.21260E-01
    8989.584     -6.472   0.800  6.20315E-02  4.01531E-01 -3.39499E-01
    8989.834     -6.222   0.840  6.43570E-02  4.22510E-01 -3.58153E-01
    8990.096     -5.960   0.880  6.71768E-02  4.44322E-01 -3.77145E-01
    8990.371     -5.685   0.920  7.06658E-02  4.66984E-01 -3.96318E-01
    8990.657     -5.399   0.960  7.49100E-02  4.90423E-01 -4.15513E-01
    8990.956     -5.100   1.000  7.99367E-02  5.14597E-01 -4.34660E-01
    8991.267     -4.789   1.040  8.58010E-02  5.39415E-01 -4.53614E-01
    8991.590     -4.466   1.080  9.28457E-02  5.64823E-01 -4.71977E-01
    8991.925     -4.131   1.120  1.01409E-01  5.90697E-01 -4.89288E-01
    8992.273     -3.783   1.160  1.11697E-01  6.16970E-01 -5.05273E-01
    8992.632     -3.424   1.200  1.24193E-01  6.43528E-01 -5.19336E-01
    8993.004     -3.052   1.240  1.40139E-01  6.70233E-01 -5.30095E-01
    8993.388     -2.668   1.280  1.61292E-01  6.96964E-01 -5.35673E-01
    8993.784     -2.271   1.320  1.88573E-01  7.23601E-01 -5.35029E-01
    8994.193     -1.863   1.360  2.20454E-01  7.50020E-01 -5.29566E-01
    8994.613     -1.442   1.400  2.51505E-01  7.76095E-01 -5.24590E-01
    8995.046     -1.010   1.440  2.77525E-01  8.01686E-01 -5.24162E-01
    8995.491     -0.565   1.480  3.04300E-01  8.26693E-01 -5.22394E-01
    8995.948     -0.107   1.520  3.41444E-01  8.50998E-01 -5.09554E-01
    8996.418      0.362   1.560  3.90052E-01  8.74487E-01 -4.84434E-01
    8996.899      0.844   1.600  4.45107E-01  8.97051E-01 -4.51944E-01
    8997.393      1.337   1.640  5.06095E-01  9.18628E-01 -4.12532E-01
    8997.899      1.843   1.680  5.83061E-01  9.39119E-01 -3.56058E-01
    8998.417      2.361   1.720  6.85936E-01  9.58495E-01 -2.72559E-01
    8998.948      2.892   1.760  8.07073E-01  9.76668E-01 -1.69595E-01
    8999.490      3.434   1.800  9.14866E-01  9.93620E-01 -7.87538E-02
    9000.045      3.989   1.840  9.60535E-01  1.00934E+00 -4.88026E-02
    9000.612      4.556   1.880  9.38009E-01  1.02378E+00 -8.57665E-02
    9001.191      5.135   1.920  8.97672E-01  1.03697E+00 -1.39299E-01
    9001.782      5.726   1.960  8.77258E-01  1.04889E+00 -1.71630E-01
    9002.386      6.330   2.000  8.91881E-01  1.05958E+00 -1.67694E-01
    9003.001      6.946   2.040  9.39582E-01  1.06903E+00 -1.29446E-01
    9003.629      7.574   2.080  1.00840E+00  1.07732E+00 -6.89239E-02
    9004.269      8.214   2.120  1.08378E+00  1.08448E+00 -6.96858E-04
    9004.922      8.866   2.160  1.16678E+00  1.09054E+00  7.62397E-02
    9005.586      9.530   2.200  1.27237E+00  1.09556E+00  1.76807E-01
    9006.263     10.207   2.240  1.38138E+00  1.09959E+00  2.81788E-01
    9006.952     10.896   2.280  1.45600E+00  1.10270E+00  3.53308E-01
    9007.653     11.597   2.320  1.49391E+00  1.10494E+00  3.88978E-01
    9008.366     12.310   2.360  1.50169E+00  1.10634E+00  3.95349E-01
    9009.091     13.036   2.400  1.49302E+00  1.10700E+00  3.86016E-01
    9009.829     13.773   2.440  1.46950E+00  1.10697E+00  3.62535E-01
    9010.579     14.523   2.480  1.43857E+00  1.10629E+00  3.32284E-01
    9011.341     15.285   2.520  1.40619E+00  1.10501E+00  3.01178E-01
    9012.115     16.059   2.560  1.37305E+00  1.10323E+00  2.69827E-01
    9012.901     16.846   2.600  1.33895E+00  1.10096E+00  2.37985E-01
    9013.700     17.644   2.640  1.30355E+00  1.09826E+00  2.05293E-01
    9014.511     18.455   2.680  1.26695E+00  1.09518E+00  1.71766E-01
    9015.334     19.278   2.720  1.23036E+00  1.09177E+00  1.38589E-01
    9016.169     20.113   2.760  1.19643E+00  1.08808E+00  1.08346E-01
    9017.016     20.960   2.800  1.16685E+00  1.08414E+00  8.27084E-02
    9017.876     21.820   2.840  1.14305E+00  1.07997E+00  6.30800E-02
    9018.747     22.692   2.880  1.12527E+00  1.07563E+00  4.96373E-02
    9019.631     23.575   2.920  1.11239E+00  1.07116E+00  4.12335E-02
    9020.527     24.472   2.960  1.10295E+00  1.06656E+00  3.63814E-02
    9021.436     25.380   3.000  1.09562E+00  1.06189E+00  3.37302E-02
    9022.356     26.300   3.040  1.08922E+00  1.05718E+00  3.20459E-02
    9023.289     27.233   3.080  1.08275E+00  1.05242E+00  3.03357E-02
    9024.234     28.178   3.120  1.07561E+00  1.04762E+00  2.79859E-02
    9025.191     29.135   3.160  1.06749E+00  1.04286E+00  2.46298E-02
    9026.160     30.104   3.200  1.05821E+00  1.03814E+00  2.00703E-02
    9027.142     31.086   3.240  1.04759E+00  1.03345E+00  1.41338E-02
    9028.135     32.079   3.280  1.03530E+00  1.02881E+00  6.49268E-03
    9029.141     33.085   3.320  1.02101E+00  1.02425E+00 -3.23826E-03
    9030.159     34.103   3.360  1.00459E+00  1.01980E+00 -1.52035E-02
    9031.189     35.133   3.400  9.86394E-01  1.01543E+00 -2.90355E-02
    9032.232     36.176   3.440  9.67399E-01  1.01118E+00 -4.37831E-02
    9033.286     37.230   3.480  9.48498E-01  1.00703E+00 -5.85353E-02
    9034.353     38.297   3.520  9.30423E-01  1.00302E+00 -7.26002E-02
    9035.432     39.376   3.560  9.13500E-01  9.99140E-01 -8.56404E-02
    9036.523     40.467   3.600  8.98156E-01  9.95409E-01 -9.72523E-02
    9037.627     41.571   3.640  8.84524E-01  9.91804E-01 -1.07280E-01
    9038.742     42.686   3.680  8.72791E-01  9.88357E-01 -1.15566E-01
    9039.870     43.814   3.720  8.63103E-01  9.85075E-01 -1.21972E-01
    9041.010     44.954   3.760  8.55494E-01  9.81927E-01 -1.26434E-01
    9042.162     46.106   3.800  8.49870E-01  9.78958E-01 -1.29088E-01
    9043.326     47.271   3.840  8.46268E-01  9.76159E-01 -1.29891E-01
    9044.503     48.447   3.880  8.44949E-01  9.73519E-01 -1.28570E-01
    9045.692     49.636   3.920  8.46244E-01  9.71039E-01 -1.24795E-01
    9046.892     50.837   3.960  8.50268E-01  9.68731E-01 -1.18463E-01
    9048.106     52.050   4.000  8.56751E-01  9.66604E-01 -1.09853E-01
    9049.331     53.275   4.040  8.64887E-01  9.64616E-01 -9.97292E-02
    9050.568     54.513   4.080  8.73562E-01  9.62815E-01 -8.92531E-02
    9051.818     55.762   4.120  8.81714E-01  9.61176E-01 -7.94624E-02
    9053.080     57.024   4.160  8.88689E-01  9.59704E-01 -7.10151E-02
    9054.354     58.298   4.200  8.94359E-01  9.58396E-01 -6.40372E-02
    9055.640     59.584   4.240  8.99201E-01  9.57246E-01 -5.80447E-02
    9056.939     60.883   4.280  9.04280E-01  9.56257E-01 -5.19763E-02
    9058.249     62.193   4.320  9.10875E-01  9.55428E-01 -4.45524E-02
    9059.572     63.516   4.360  9.20081E-01  9.54756E-01 -3.46749E-02
    9060.907     64.851   4.400  9.32365E-01  9.54222E-01 -2.18572E-02
    9062.254     66.199   4.440  9.47407E-01  9.53866E-01 -6.45847E-03
    9063.614     67.558   4.480  9.63973E-01  9.53642E-01  1.03316E-02
    9064.985     68.930   4.520  9.80456E-01  9.53550E-01  2.69063E-02
    9066.369     70.313   4.560  9.95353E-01  9.53631E-01  4.17213E-02
    9067.765     71.709   4.600  1.00748E+00  9.53820E-01  5.36630E-02
    9069.173     73.117   4.640  1.01652E+00  9.54155E-01  6.23604E-02
    9070.594     74.538   4.680  1.02265E+00  9.54614E-01  6.80324E-02
    9072.026     75.970   4.720  1.02650E+00  9.55196E-01  7.13064E-02
    9073.471     77.415   4.760  1.02900E+00  9.55898E-01  7.31025E-02
    9074.928     78.872   4.800  1.03105E+00  9.56716E-01  7.43348E-02
    9076.397     80.341   4.840  1.03316E+00  9.57628E-01  7.55319E-02
    9077.878     81.823   4.880  1.03538E+00  9.58653E-01  7.67274E-02
    9079.372     83.316   4.920  1.03736E+00  9.59789E-01  7.75732E-02
    9080.878     84.822   4.960  1.03871E+00  9.61011E-01  7.77023E-02
    9082.395     86.340   5.000  1.03939E+00  9.62316E-01  7.70779E-02
    9083.926     87.870   5.040  1.03974E+00  9.63700E-01  7.60425E-02
    9085.468     89.412   5.080  1.04032E+00  9.65139E-01  7.51817E-02
    9087.022     90.966   5.120  1.04167E+00  9.66673E-01  7.49980E-02
    9088.589     92.533   5.160  1.04378E+00  9.68258E-01  7.55242E-02
    9090.168     94.112   5.200  1.04609E+00  9.69888E-01  7.61971E-02
    9091.759     95.703   5.240  1.04756E+00  9.71562E-01  7.60031E-02
    9093.362     97.306   5.280  1.04728E+00  9.73297E-01  7.39865E-02
    9094.978     98.922   5.320  1.04477E+00  9.75048E-01  6.97260E-02
    9096.605    100.549   5.360  1.04034E+00  9.76830E-01  6.35106E-02
    9098.245    102.189   5.400  1.03456E+00  9.78621E-01  5.59441E-02
    9099.897    103.841   5.440  1.02787E+00  9.80437E-01  4.74345E-02
    9101.561    105.505   5.480  1.02030E+00  9.82232E-01  3.80692E-02
    9103.238    107.182   5.520  1.01194E+00  9.84048E-01  2.78922E-02
    9104.926    108.870   5.560  1.00285E+00  9.85835E-01  1.70112E-02
    9106.627    110.571   5.600  9.93171E-01  9.87613E-01  5.55803E-03
    9108.340    112.284   5.640  9.83086E-01  9.89358E-01 -6.27181E-03
    9110.065    114.009   5.680  9.72925E-01  9.91086E-01 -1.81612E-02
    9111.802    115.747   5.720  9.63047E-01  9.92750E-01 -2.97032E-02
    9113.552    117.496   5.760  9.53942E-01  9.94392E-01 -4.04499E-02
    9115.314    119.258   5.800  9.45985E-01  9.95960E-01 -4.99751E-02
    9117.088    121.032   5.840  9.39575E-01  9.97448E-01 -5.78724E-02
    9118.874    122.818   5.880  9.35107E-01  9.98877E-01 -6.37692E-02
    9120.672    124.616   5.920  9.32936E-01  1.00023E+00 -6.72983E-02
    9122.483    126.427   5.960  9.33318E-01  1.00145E+00 -6.81298E-02
    9124.305    128.249   6.000  9.36543E-01  1.00256E+00 -6.60132E-02
