# # comment:                                                     FEFF 9.9.1  
# # Source:
# # Structure
# # Reduced
# # space
# # abc:
# # angles:
# # sites:
# # POT  SCF 100  7.0000   0, screened core-hole, AFOLP (folp(0)= 1.150)
# # Abs   Z=29 Rmt= 1.329 Rnm= 1.400 K  shell
# # Pot 1 Z=29 Rmt= 1.232 Rnm= 1.334
# # Pot 2 Z=14 Rmt= 0.973 Rnm= 1.206
# # Pot 3 Z=51 Rmt= 1.321 Rnm= 1.468
# # Pot 4 Z= 8 Rmt= 1.027 Rnm= 1.110
# # Gam_ch=1.729E+00 H-L exch Vi= 0.000E+00 Vr= 0.000E+00
# # Mu=-6.892E+00eV kf=2.216E+00 Vint=-1.547E+01eV Rs_int= 1.637
# FMS rfms= 9.0000
# # PATH  Rmax=-1.000,  Keep_limit= 0.00, Heap_limit 0.00  Pwcrit= 2.50%
#  S02=0.950  Temp=   0.00  Debye_temp=   0.00  Global_sig2= 0.00000
#  Energy zero shift, vr, vi    0.00000E+00   0.00000E+00
#  Curved wave amplitude ratio filter   4.000%
#     file         sig2 tot  cw amp ratio   deg  nlegs   reff  inp sig2
#     0/   0 paths used
#  xsedge+ 50, used to normalize mu           2.4620E-04
#  -----------------------------------------------------------------------
#  omega    e    k    mu    mu0     chi     @#
    8983.369    -10.702  -1.000  3.60290E-02  5.03726E-02 -1.43436E-02
    8983.667    -10.404  -0.960  3.76518E-02  5.39356E-02 -1.62838E-02
    8983.954    -10.117  -0.920  3.93559E-02  5.78876E-02 -1.85317E-02
    8984.228     -9.843  -0.880  4.11447E-02  6.22852E-02 -2.11405E-02
    8984.490     -9.581  -0.840  4.30217E-02  6.71945E-02 -2.41728E-02
    8984.740     -9.331  -0.800  4.49902E-02  7.26917E-02 -2.77015E-02
    8984.978     -9.093  -0.760  4.70534E-02  7.88646E-02 -3.18112E-02
    8985.203     -8.868  -0.720  4.92141E-02  8.58119E-02 -3.65979E-02
    8985.417     -8.654  -0.680  5.14745E-02  9.36426E-02 -4.21681E-02
    8985.618     -8.453  -0.640  5.38357E-02  1.02471E-01 -4.86355E-02
    8985.807     -8.264  -0.600  5.62972E-02  1.12410E-01 -5.61133E-02
    8985.984     -8.087  -0.560  5.88552E-02  1.23556E-01 -6.47008E-02
    8986.148     -7.923  -0.520  6.15018E-02  1.35964E-01 -7.44626E-02
    8986.301     -7.770  -0.480  6.42222E-02  1.49622E-01 -8.54000E-02
    8986.441     -7.630  -0.440  6.69927E-02  1.64409E-01 -9.74168E-02
    8986.569     -7.502  -0.400  6.97786E-02  1.80070E-01 -1.10292E-01
    8986.685     -7.386  -0.360  7.25341E-02  1.96203E-01 -1.23669E-01
    8986.788     -7.283  -0.320  7.52040E-02  2.12286E-01 -1.37082E-01
    8986.880     -7.191  -0.280  7.77282E-02  2.27740E-01 -1.50012E-01
    8986.959     -7.112  -0.240  8.00471E-02  2.42006E-01 -1.61959E-01
    8987.026     -7.045  -0.200  8.21067E-02  2.54617E-01 -1.72510E-01
    8987.081     -6.990  -0.160  8.38606E-02  2.65228E-01 -1.81368E-01
    8987.124     -6.947  -0.120  8.52713E-02  2.73620E-01 -1.88348E-01
    8987.154     -6.917  -0.080  8.63096E-02  2.79667E-01 -1.93357E-01
    8987.179     -6.892   0.000  8.71787E-02  2.84528E-01 -1.97349E-01
    8987.233     -6.838   0.120  8.91929E-02  2.95482E-01 -2.06289E-01
    8987.276     -6.795   0.160  9.07188E-02  3.04006E-01 -2.13287E-01
    8987.331     -6.740   0.200  9.26963E-02  3.14895E-01 -2.22198E-01
    8987.398     -6.673   0.240  9.51283E-02  3.28005E-01 -2.32876E-01
    8987.477     -6.594   0.280  9.80723E-02  3.43106E-01 -2.45034E-01
    8987.569     -6.502   0.320  1.01497E-01  3.59768E-01 -2.58271E-01
    8987.672     -6.399   0.360  1.05484E-01  3.77567E-01 -2.72083E-01
    8987.788     -6.283   0.400  1.10094E-01  3.96013E-01 -2.85920E-01
    8987.916     -6.155   0.440  1.15399E-01  4.14616E-01 -2.99216E-01
    8988.056     -6.015   0.480  1.21530E-01  4.33068E-01 -3.11537E-01
    8988.209     -5.862   0.520  1.28599E-01  4.51089E-01 -3.22490E-01
    8988.373     -5.698   0.560  1.36803E-01  4.68597E-01 -3.31794E-01
    8988.550     -5.521   0.600  1.46312E-01  4.85587E-01 -3.39275E-01
    8988.739     -5.332   0.640  1.57351E-01  5.02088E-01 -3.44737E-01
    8988.940     -5.131   0.680  1.70237E-01  5.18162E-01 -3.47925E-01
    8989.154     -4.917   0.720  1.85646E-01  5.33884E-01 -3.48238E-01
    8989.379     -4.692   0.760  2.04687E-01  5.49367E-01 -3.44680E-01
    8989.617     -4.454   0.800  2.28924E-01  5.64654E-01 -3.35730E-01
    8989.867     -4.204   0.840  2.60109E-01  5.79820E-01 -3.19711E-01
    8990.129     -3.942   0.880  2.99672E-01  5.94905E-01 -2.95233E-01
    8990.403     -3.668   0.920  3.47728E-01  6.09917E-01 -2.62189E-01
    8990.690     -3.381   0.960  4.02479E-01  6.24915E-01 -2.22436E-01
    8990.988     -3.082   1.000  4.60555E-01  6.39866E-01 -1.79311E-01
    8991.299     -2.772   1.040  5.18152E-01  6.54811E-01 -1.36658E-01
    8991.622     -2.448   1.080  5.72065E-01  6.69722E-01 -9.76568E-02
    8991.958     -2.113   1.120  6.20864E-01  6.84566E-01 -6.37025E-02
    8992.305     -1.766   1.160  6.63628E-01  6.99368E-01 -3.57396E-02
    8992.665     -1.406   1.200  6.97082E-01  7.14084E-01 -1.70022E-02
    8993.037     -1.034   1.240  7.20586E-01  7.28670E-01 -8.08401E-03
    8993.421     -0.650   1.280  7.41874E-01  7.43140E-01 -1.26578E-03
    8993.817     -0.254   1.320  7.69610E-01  7.57424E-01  1.21862E-02
    8994.225      0.155   1.360  8.07767E-01  7.71511E-01  3.62562E-02
    8994.646      0.575   1.400  8.57338E-01  7.85369E-01  7.19690E-02
    8995.079      1.008   1.440  9.17672E-01  7.98968E-01  1.18704E-01
    8995.524      1.453   1.480  9.81284E-01  8.12255E-01  1.69030E-01
    8995.981      1.910   1.520  1.04000E+00  8.25239E-01  2.14757E-01
    8996.450      2.380   1.560  1.09738E+00  8.37866E-01  2.59515E-01
    8996.932      2.861   1.600  1.16111E+00  8.50125E-01  3.10988E-01
    8997.426      3.355   1.640  1.23724E+00  8.61968E-01  3.75276E-01
    8997.932      3.861   1.680  1.32998E+00  8.73405E-01  4.56571E-01
    8998.450      4.379   1.720  1.41865E+00  8.84386E-01  5.34265E-01
    8998.980      4.909   1.760  1.44762E+00  8.94924E-01  5.52693E-01
    8999.523      5.452   1.800  1.37344E+00  9.04974E-01  4.68466E-01
    9000.078      6.007   1.840  1.22416E+00  9.14551E-01  3.09604E-01
    9000.645      6.574   1.880  1.07618E+00  9.23653E-01  1.52526E-01
    9001.224      7.153   1.920  9.75033E-01  9.32236E-01  4.27971E-02
    9001.815      7.744   1.960  9.24263E-01  9.40339E-01 -1.60762E-02
    9002.418      8.348   2.000  9.07384E-01  9.47923E-01 -4.05390E-02
    9003.034      8.963   2.040  9.03129E-01  9.55031E-01 -5.19019E-02
    9003.662      9.591   2.080  8.98441E-01  9.61623E-01 -6.31818E-02
    9004.302     10.231   2.120  8.95463E-01  9.67744E-01 -7.22819E-02
    9004.954     10.883   2.160  9.04573E-01  9.73401E-01 -6.88285E-02
    9005.619     11.548   2.200  9.29428E-01  9.78578E-01 -4.91499E-02
    9006.295     12.225   2.240  9.63755E-01  9.83301E-01 -1.95453E-02
    9006.984     12.913   2.280  9.99530E-01  9.87577E-01  1.19528E-02
    9007.685     13.614   2.320  1.03114E+00  9.91455E-01  3.96811E-02
    9008.399     14.328   2.360  1.05523E+00  9.94903E-01  6.03237E-02
    9009.124     15.053   2.400  1.07171E+00  9.97970E-01  7.37440E-02
    9009.862     15.791   2.440  1.07838E+00  1.00067E+00  7.77105E-02
    9010.611     16.541   2.480  1.07316E+00  1.00300E+00  7.01654E-02
    9011.373     17.303   2.520  1.05909E+00  1.00500E+00  5.40910E-02
    9012.148     18.077   2.560  1.03899E+00  1.00668E+00  3.23128E-02
    9012.934     18.863   2.600  1.01376E+00  1.00808E+00  5.68039E-03
    9013.733     19.662   2.640  9.93667E-01  1.00918E+00 -1.55170E-02
    9014.543     20.472   2.680  9.83978E-01  1.01003E+00 -2.60562E-02
    9015.366     21.295   2.720  9.77761E-01  1.01066E+00 -3.29007E-02
    9016.201     22.131   2.760  9.70758E-01  1.01106E+00 -4.02978E-02
    9017.049     22.978   2.800  9.62964E-01  1.01125E+00 -4.82820E-02
    9017.908     23.837   2.840  9.56654E-01  1.01126E+00 -5.46074E-02
    9018.780     24.709   2.880  9.53444E-01  1.01111E+00 -5.76670E-02
    9019.664     25.593   2.920  9.52436E-01  1.01080E+00 -5.83679E-02
    9020.560     26.489   2.960  9.51009E-01  1.01037E+00 -5.93591E-02
    9021.468     27.397   3.000  9.47207E-01  1.00981E+00 -6.26056E-02
    9022.389     28.318   3.040  9.40842E-01  1.00917E+00 -6.83231E-02
    9023.322     29.251   3.080  9.33180E-01  1.00843E+00 -7.52533E-02
    9024.266     30.196   3.120  9.25685E-01  1.00762E+00 -8.19378E-02
    9025.223     31.153   3.160  9.19276E-01  1.00676E+00 -8.74847E-02
    9026.193     32.122   3.200  9.14585E-01  1.00583E+00 -9.12466E-02
    9027.174     33.103   3.240  9.12287E-01  1.00488E+00 -9.25974E-02
    9028.168     34.097   3.280  9.12910E-01  1.00390E+00 -9.09936E-02
    9029.174     35.103   3.320  9.16846E-01  1.00292E+00 -8.60700E-02
    9030.192     36.121   3.360  9.24026E-01  1.00192E+00 -7.78976E-02
    9031.222     37.151   3.400  9.33611E-01  1.00093E+00 -6.73202E-02
    9032.264     38.193   3.440  9.44428E-01  9.99944E-01 -5.55156E-02
    9033.319     39.248   3.480  9.55447E-01  9.98985E-01 -4.35380E-02
    9034.386     40.315   3.520  9.65832E-01  9.98038E-01 -3.22057E-02
    9035.465     41.394   3.560  9.75208E-01  9.97127E-01 -2.19193E-02
    9036.556     42.485   3.600  9.83781E-01  9.96276E-01 -1.24944E-02
    9037.659     43.588   3.640  9.92049E-01  9.95445E-01 -3.39562E-03
    9038.775     44.704   3.680  1.00053E+00  9.94677E-01  5.85633E-03
    9039.903     45.832   3.720  1.00937E+00  9.93932E-01  1.54415E-02
    9041.043     46.972   3.760  1.01843E+00  9.93277E-01  2.51554E-02
    9042.195     48.124   3.800  1.02708E+00  9.92650E-01  3.44337E-02
    9043.359     49.288   3.840  1.03482E+00  9.92112E-01  4.27037E-02
    9044.536     50.465   3.880  1.04120E+00  9.91603E-01  4.95980E-02
    9045.724     51.653   3.920  1.04620E+00  9.91187E-01  5.50085E-02
    9046.925     52.854   3.960  1.04988E+00  9.90801E-01  5.90811E-02
    9048.138     54.067   4.000  1.05264E+00  9.90507E-01  6.21378E-02
    9049.364     55.293   4.040  1.05470E+00  9.90267E-01  6.44286E-02
    9050.601     56.530   4.080  1.05618E+00  9.90099E-01  6.60846E-02
    9051.851     57.780   4.120  1.05712E+00  9.89982E-01  6.71410E-02
    9053.113     59.042   4.160  1.05749E+00  9.89936E-01  6.75579E-02
    9054.387     60.316   4.200  1.05712E+00  9.89963E-01  6.71554E-02
    9055.673     61.602   4.240  1.05578E+00  9.90039E-01  6.57408E-02
    9056.971     62.900   4.280  1.05341E+00  9.90160E-01  6.32502E-02
    9058.282     64.211   4.320  1.05012E+00  9.90350E-01  5.97730E-02
    9059.605     65.534   4.360  1.04610E+00  9.90586E-01  5.55125E-02
    9060.940     66.869   4.400  1.04161E+00  9.90866E-01  5.07490E-02
    9062.287     68.216   4.440  1.03691E+00  9.91210E-01  4.57004E-02
    9063.646     69.575   4.480  1.03191E+00  9.91575E-01  4.03377E-02
    9065.018     70.947   4.520  1.02648E+00  9.92001E-01  3.44829E-02
    9066.402     72.331   4.560  1.02042E+00  9.92445E-01  2.79801E-02
    9067.798     73.727   4.600  1.01372E+00  9.92946E-01  2.07742E-02
    9069.206     75.135   4.640  1.00639E+00  9.93461E-01  1.29312E-02
    9070.626     76.555   4.680  9.98444E-01  9.94008E-01  4.43617E-03
    9072.059     77.988   4.720  9.89716E-01  9.94562E-01 -4.84587E-03
    9073.504     79.433   4.760  9.80132E-01  9.95123E-01 -1.49915E-02
    9074.961     80.890   4.800  9.69866E-01  9.95713E-01 -2.58466E-02
    9076.430     82.359   4.840  9.59344E-01  9.96330E-01 -3.69856E-02
    9077.911     83.840   4.880  9.49163E-01  9.96926E-01 -4.77632E-02
    9079.405     85.334   4.920  9.39965E-01  9.97520E-01 -5.75554E-02
    9080.910     86.839   4.960  9.32317E-01  9.98135E-01 -6.58179E-02
    9082.428     88.357   5.000  9.26593E-01  9.98722E-01 -7.21284E-02
    9083.958     89.887   5.040  9.23055E-01  9.99281E-01 -7.62253E-02
    9085.500     91.430   5.080  9.21907E-01  9.99855E-01 -7.79482E-02
    9087.055     92.984   5.120  9.23192E-01  1.00040E+00 -7.72050E-02
    9088.622     94.551   5.160  9.26989E-01  1.00091E+00 -7.39165E-02
    9090.200     96.130   5.200  9.33330E-01  1.00140E+00 -6.80679E-02
    9091.792     97.721   5.240  9.41923E-01  1.00183E+00 -5.99089E-02
    9093.395     99.324   5.280  9.52234E-01  1.00225E+00 -5.00165E-02
    9095.010    100.939   5.320  9.63361E-01  1.00263E+00 -3.92721E-02
    9096.638    102.567   5.360  9.74375E-01  1.00300E+00 -2.86219E-02
    9098.278    104.207   5.400  9.84459E-01  1.00330E+00 -1.88390E-02
    9099.930    105.859   5.440  9.93280E-01  1.00355E+00 -1.02747E-02
    9101.594    107.523   5.480  1.00096E+00  1.00377E+00 -2.80235E-03
    9103.270    109.199   5.520  1.00796E+00  1.00391E+00  4.05322E-03
    9104.959    110.888   5.560  1.01484E+00  1.00403E+00  1.08090E-02
    9106.660    112.589   5.600  1.02183E+00  1.00409E+00  1.77378E-02
    9108.373    114.302   5.640  1.02884E+00  1.00410E+00  2.47409E-02
    9110.098    116.027   5.680  1.03547E+00  1.00407E+00  3.14015E-02
    9111.835    117.764   5.720  1.04108E+00  1.00400E+00  3.70847E-02
    9113.585    119.514   5.760  1.04487E+00  1.00385E+00  4.10150E-02
    9115.346    121.275   5.800  1.04616E+00  1.00366E+00  4.25004E-02
    9117.120    123.049   5.840  1.04469E+00  1.00340E+00  4.12881E-02
    9118.906    124.836   5.880  1.04091E+00  1.00313E+00  3.77831E-02
    9120.705    126.634   5.920  1.03570E+00  1.00279E+00  3.29123E-02
    9122.515    128.444   5.960  1.03021E+00  1.00241E+00  2.77982E-02
    9124.338    130.267   6.000  1.02535E+00  1.00196E+00  2.33903E-02
