# # comment:                                                     FEFF 9.9.1  
# # Source:
# # Structure
# # Reduced
# # space
# # abc:
# # angles:119.808936
# # sites:
# # POT  SCF 100  7.0000   0, screened core-hole, AFOLP (folp(0)= 1.150)
# # Abs   Z=29 Rmt= 1.366 Rnm= 1.429 K  shell
# # Pot 1 Z= 3 Rmt= 1.274 Rnm= 1.333
# # Pot 2 Z=29 Rmt= 1.366 Rnm= 1.429
# # Pot 3 Z= 6 Rmt= 0.717 Rnm= 0.929
# # Pot 4 Z= 8 Rmt= 0.873 Rnm= 1.011
# # Gam_ch=1.729E+00 H-L exch Vi= 0.000E+00 Vr= 0.000E+00
# # Mu=-7.061E+00eV kf=2.532E+00 Vint=-1.820E+01eV Rs_int= 1.433
# FMS rfms= 9.0000
# # PATH  Rmax=-1.000,  Keep_limit= 0.00, Heap_limit 0.00  Pwcrit= 2.50%
#  S02=0.950  Temp=   0.00  Debye_temp=   0.00  Global_sig2= 0.00000
#  Energy zero shift, vr, vi    0.00000E+00   0.00000E+00
#  Curved wave amplitude ratio filter   4.000%
#     file         sig2 tot  cw amp ratio   deg  nlegs   reff  inp sig2
#     0/   0 paths used
#  xsedge+ 50, used to normalize mu           2.4760E-04
#  -----------------------------------------------------------------------
#  omega    e    k    mu    mu0     chi     @#
    8983.649    -10.871  -1.000  5.30442E-02  5.21330E-02  9.11166E-04
    8983.948    -10.573  -0.960  5.68047E-02  5.58679E-02  9.36845E-04
    8984.234    -10.286  -0.920  6.09743E-02  6.00161E-02  9.58226E-04
    8984.508    -10.012  -0.880  6.56122E-02  6.46387E-02  9.73443E-04
    8984.770     -9.750  -0.840  7.07866E-02  6.98067E-02  9.79895E-04
    8985.020     -9.500  -0.800  7.65765E-02  7.56025E-02  9.73988E-04
    8985.258     -9.262  -0.760  8.30715E-02  8.21206E-02  9.50854E-04
    8985.484     -9.036  -0.720  9.03720E-02  8.94679E-02  9.04088E-04
    8985.697     -8.823  -0.680  9.85879E-02  9.77623E-02  8.25639E-04
    8985.898     -8.622  -0.640  1.07834E-01  1.07128E-01  7.06094E-04
    8986.087     -8.433  -0.600  1.18223E-01  1.17688E-01  5.35747E-04
    8986.264     -8.256  -0.560  1.29853E-01  1.29545E-01  3.07011E-04
    8986.429     -8.092  -0.520  1.42782E-01  1.42764E-01  1.86713E-05
    8986.581     -7.939  -0.480  1.57011E-01  1.57329E-01 -3.17991E-04
    8986.721     -7.799  -0.440  1.72439E-01  1.73112E-01 -6.72570E-04
    8986.849     -7.671  -0.400  1.88847E-01  1.89839E-01 -9.91843E-04
    8986.965     -7.555  -0.360  2.05871E-01  2.07075E-01 -1.20402E-03
    8987.069     -7.451  -0.320  2.23026E-01  2.24260E-01 -1.23431E-03
    8987.160     -7.360  -0.280  2.39740E-01  2.40769E-01 -1.02909E-03
    8987.239     -7.281  -0.240  2.55423E-01  2.56002E-01 -5.78599E-04
    8987.306     -7.214  -0.200  2.69532E-01  2.69458E-01  7.35370E-05
    8987.361     -7.159  -0.160  2.81613E-01  2.80773E-01  8.39480E-04
    8987.404     -7.116  -0.120  2.91324E-01  2.89714E-01  1.61030E-03
    8987.434     -7.086  -0.080  2.98431E-01  2.96152E-01  2.27900E-03
    8987.459     -7.061   0.000  3.04260E-01  3.01323E-01  2.93655E-03
    8987.514     -7.006   0.120  3.17098E-01  3.12986E-01  4.11223E-03
    8987.556     -6.964   0.160  3.27250E-01  3.22044E-01  5.20610E-03
    8987.611     -6.909   0.200  3.40430E-01  3.33604E-01  6.82611E-03
    8987.678     -6.842   0.240  3.56607E-01  3.47482E-01  9.12466E-03
    8987.757     -6.763   0.280  3.75646E-01  3.63410E-01  1.22360E-02
    8987.849     -6.671   0.320  3.97138E-01  3.80968E-01  1.61698E-02
    8987.953     -6.568   0.360  4.20334E-01  3.99621E-01  2.07130E-02
    8988.068     -6.452   0.400  4.44147E-01  4.18839E-01  2.53073E-02
    8988.196     -6.324   0.440  4.67054E-01  4.38083E-01  2.89702E-02
    8988.337     -6.184   0.480  4.87482E-01  4.57008E-01  3.04744E-02
    8988.489     -6.031   0.520  5.04113E-01  4.75329E-01  2.87844E-02
    8988.654     -5.867   0.560  5.16590E-01  4.92958E-01  2.36319E-02
    8988.830     -5.690   0.600  5.25697E-01  5.09868E-01  1.58295E-02
    8989.019     -5.501   0.640  5.33181E-01  5.26120E-01  7.06151E-03
    8989.221     -5.300   0.680  5.41013E-01  5.41789E-01 -7.75760E-04
    8989.434     -5.086   0.720  5.50712E-01  5.57005E-01 -6.29333E-03
    8989.659     -4.861   0.760  5.62532E-01  5.71840E-01 -9.30851E-03
    8989.897     -4.623   0.800  5.74773E-01  5.86393E-01 -1.16206E-02
    8990.147     -4.373   0.840  5.83751E-01  6.00755E-01 -1.70048E-02
    8990.409     -4.111   0.880  5.85944E-01  6.15001E-01 -2.90569E-02
    8990.684     -3.837   0.920  5.81390E-01  6.29151E-01 -4.77606E-02
    8990.970     -3.550   0.960  5.74413E-01  6.43257E-01 -6.88443E-02
    8991.269     -3.251   1.000  5.69902E-01  6.57340E-01 -8.74379E-02
    8991.580     -2.940   1.040  5.70706E-01  6.71452E-01 -1.00745E-01
    8991.903     -2.617   1.080  5.79270E-01  6.85555E-01 -1.06285E-01
    8992.238     -2.282   1.120  5.97912E-01  6.99667E-01 -1.01754E-01
    8992.585     -1.935   1.160  6.26114E-01  7.13797E-01 -8.76837E-02
    8992.945     -1.575   1.200  6.61302E-01  7.27914E-01 -6.66117E-02
    8993.317     -1.203   1.240  7.01796E-01  7.42019E-01 -4.02223E-02
    8993.701     -0.819   1.280  7.46356E-01  7.56089E-01 -9.73280E-03
    8994.097     -0.423   1.320  7.92576E-01  7.70102E-01  2.24745E-02
    8994.506     -0.014   1.360  8.41177E-01  7.84009E-01  5.71680E-02
    8994.926      0.406   1.400  8.98054E-01  7.97824E-01  1.00230E-01
    8995.359      0.839   1.440  9.64620E-01  8.11496E-01  1.53124E-01
    8995.804      1.284   1.480  1.03268E+00  8.24993E-01  2.07683E-01
    8996.261      1.741   1.520  1.09090E+00  8.38283E-01  2.52621E-01
    8996.731      2.211   1.560  1.13354E+00  8.51353E-01  2.82182E-01
    8997.212      2.692   1.600  1.16331E+00  8.64150E-01  2.99160E-01
    8997.706      3.186   1.640  1.18313E+00  8.76639E-01  3.06493E-01
    8998.212      3.692   1.680  1.18629E+00  8.88828E-01  2.97462E-01
    8998.730      4.210   1.720  1.16867E+00  9.00644E-01  2.68027E-01
    8999.261      4.740   1.760  1.14031E+00  9.12074E-01  2.28235E-01
    8999.803      5.283   1.800  1.11144E+00  9.23106E-01  1.88336E-01
    9000.358      5.838   1.840  1.08418E+00  9.33689E-01  1.50492E-01
    9000.925      6.405   1.880  1.05974E+00  9.43835E-01  1.15905E-01
    9001.504      6.984   1.920  1.03644E+00  9.53512E-01  8.29299E-02
    9002.095      7.575   1.960  1.01099E+00  9.62672E-01  4.83168E-02
    9002.699      8.179   2.000  9.85747E-01  9.71352E-01  1.43956E-02
    9003.314      8.794   2.040  9.67444E-01  9.79503E-01 -1.20593E-02
    9003.942      9.422   2.080  9.62147E-01  9.87122E-01 -2.49751E-02
    9004.582     10.062   2.120  9.73423E-01  9.94207E-01 -2.07838E-02
    9005.235     10.715   2.160  9.99705E-01  1.00078E+00 -1.07133E-03
    9005.899     11.379   2.200  1.03351E+00  1.00679E+00  2.67203E-02
    9006.576     12.056   2.240  1.06658E+00  1.01227E+00  5.43072E-02
    9007.265     12.744   2.280  1.09280E+00  1.01724E+00  7.55604E-02
    9007.966     13.446   2.320  1.10688E+00  1.02166E+00  8.52159E-02
    9008.679     14.159   2.360  1.10585E+00  1.02561E+00  8.02385E-02
    9009.404     14.884   2.400  1.09046E+00  1.02903E+00  6.14217E-02
    9010.142     15.622   2.440  1.06323E+00  1.03197E+00  3.12576E-02
    9010.892     16.372   2.480  1.02949E+00  1.03446E+00 -4.96964E-03
    9011.654     17.134   2.520  9.98982E-01  1.03648E+00 -3.75021E-02
    9012.428     17.908   2.560  9.79996E-01  1.03807E+00 -5.80772E-02
    9013.214     18.694   2.600  9.72562E-01  1.03925E+00 -6.66916E-02
    9014.013     19.493   2.640  9.71398E-01  1.04005E+00 -6.86558E-02
    9014.824     20.304   2.680  9.72206E-01  1.04049E+00 -6.82809E-02
    9015.647     21.126   2.720  9.73281E-01  1.04056E+00 -6.72822E-02
    9016.482     21.962   2.760  9.73511E-01  1.04032E+00 -6.68037E-02
    9017.329     22.809   2.800  9.70754E-01  1.03980E+00 -6.90416E-02
    9018.189     23.668   2.840  9.61920E-01  1.03897E+00 -7.70545E-02
    9019.060     24.540   2.880  9.46790E-01  1.03791E+00 -9.11153E-02
    9019.944     25.424   2.920  9.32460E-01  1.03662E+00 -1.04162E-01
    9020.840     26.320   2.960  9.26026E-01  1.03513E+00 -1.09107E-01
    9021.749     27.229   3.000  9.26871E-01  1.03347E+00 -1.06601E-01
    9022.669     28.149   3.040  9.32474E-01  1.03163E+00 -9.91546E-02
    9023.602     29.082   3.080  9.40729E-01  1.02968E+00 -8.89463E-02
    9024.547     30.027   3.120  9.50548E-01  1.02758E+00 -7.70331E-02
    9025.504     30.984   3.160  9.62045E-01  1.02540E+00 -6.33525E-02
    9026.473     31.953   3.200  9.75288E-01  1.02315E+00 -4.78659E-02
    9027.454     32.934   3.240  9.89813E-01  1.02084E+00 -3.10250E-02
    9028.448     33.928   3.280  1.00470E+00  1.01848E+00 -1.37837E-02
    9029.454     34.934   3.320  1.01859E+00  1.01609E+00  2.49983E-03
    9030.472     35.952   3.360  1.03039E+00  1.01369E+00  1.66977E-02
    9031.502     36.982   3.400  1.03957E+00  1.01132E+00  2.82498E-02
    9032.545     38.025   3.440  1.04584E+00  1.00895E+00  3.68907E-02
    9033.599     39.079   3.480  1.04923E+00  1.00660E+00  4.26331E-02
    9034.666     40.146   3.520  1.04992E+00  1.00431E+00  4.56127E-02
    9035.745     41.225   3.560  1.04819E+00  1.00208E+00  4.61072E-02
    9036.836     42.316   3.600  1.04465E+00  9.99916E-01  4.47361E-02
    9037.940     43.419   3.640  1.04015E+00  9.97823E-01  4.23237E-02
    9039.055     44.535   3.680  1.03539E+00  9.95810E-01  3.95811E-02
    9040.183     45.663   3.720  1.03075E+00  9.93881E-01  3.68724E-02
    9041.323     46.803   3.760  1.02633E+00  9.92061E-01  3.42673E-02
    9042.475     47.955   3.800  1.02197E+00  9.90332E-01  3.16398E-02
    9043.639     49.119   3.840  1.01757E+00  9.88718E-01  2.88519E-02
    9044.816     50.296   3.880  1.01307E+00  9.87219E-01  2.58469E-02
    9046.005     51.484   3.920  1.00854E+00  9.85839E-01  2.27064E-02
    9047.205     52.685   3.960  1.00420E+00  9.84556E-01  1.96471E-02
    9048.419     53.898   4.000  1.00036E+00  9.83416E-01  1.69437E-02
    9049.644     55.124   4.040  9.97194E-01  9.82398E-01  1.47958E-02
    9050.881     56.361   4.080  9.94738E-01  9.81502E-01  1.32360E-02
    9052.131     57.611   4.120  9.92911E-01  9.80729E-01  1.21817E-02
    9053.393     58.873   4.160  9.91636E-01  9.80079E-01  1.15572E-02
    9054.667     60.147   4.200  9.90938E-01  9.79571E-01  1.13663E-02
    9055.953     61.433   4.240  9.90795E-01  9.79163E-01  1.16316E-02
    9057.252     62.731   4.280  9.91167E-01  9.78874E-01  1.22930E-02
    9058.562     64.042   4.320  9.91904E-01  9.78727E-01  1.31770E-02
    9059.885     65.365   4.360  9.92666E-01  9.78675E-01  1.39913E-02
    9061.220     66.700   4.400  9.93126E-01  9.78716E-01  1.44096E-02
    9062.567     68.047   4.440  9.93017E-01  9.78893E-01  1.41238E-02
    9063.927     69.407   4.480  9.92039E-01  9.79162E-01  1.28775E-02
    9065.298     70.778   4.520  9.90063E-01  9.79540E-01  1.05238E-02
    9066.682     72.162   4.560  9.87085E-01  9.79982E-01  7.10325E-03
    9068.078     73.558   4.600  9.83346E-01  9.80527E-01  2.81826E-03
    9069.486     74.966   4.640  9.79143E-01  9.81155E-01 -2.01172E-03
    9070.907     76.386   4.680  9.74911E-01  9.81863E-01 -6.95133E-03
    9072.339     77.819   4.720  9.71176E-01  9.82645E-01 -1.14693E-02
    9073.784     79.264   4.760  9.68485E-01  9.83477E-01 -1.49921E-02
    9075.241     80.721   4.800  9.67326E-01  9.84377E-01 -1.70507E-02
    9076.710     82.190   4.840  9.67779E-01  9.85298E-01 -1.75193E-02
    9078.191     83.671   4.880  9.69629E-01  9.86281E-01 -1.66523E-02
    9079.685     85.165   4.920  9.72267E-01  9.87302E-01 -1.50341E-02
    9081.190     86.670   4.960  9.74913E-01  9.88331E-01 -1.34183E-02
    9082.708     88.188   5.000  9.76857E-01  9.89368E-01 -1.25104E-02
    9084.238     89.718   5.040  9.77643E-01  9.90431E-01 -1.27882E-02
    9085.781     91.261   5.080  9.77138E-01  9.91495E-01 -1.43572E-02
    9087.335     92.815   5.120  9.75609E-01  9.92556E-01 -1.69470E-02
    9088.902     94.382   5.160  9.73524E-01  9.93588E-01 -2.00644E-02
    9090.481     95.961   5.200  9.71431E-01  9.94610E-01 -2.31784E-02
    9092.072     97.552   5.240  9.69754E-01  9.95596E-01 -2.58418E-02
    9093.675     99.155   5.280  9.68823E-01  9.96543E-01 -2.77200E-02
    9095.290    100.770   5.320  9.68870E-01  9.97448E-01 -2.85777E-02
    9096.918    102.398   5.360  9.70014E-01  9.98310E-01 -2.82965E-02
    9098.558    104.038   5.400  9.72244E-01  9.99127E-01 -2.68823E-02
    9100.210    105.690   5.440  9.75449E-01  9.99871E-01 -2.44218E-02
    9101.874    107.354   5.480  9.79552E-01  1.00056E+00 -2.10109E-02
    9103.551    109.030   5.520  9.84424E-01  1.00115E+00 -1.67306E-02
    9105.239    110.719   5.560  9.89995E-01  1.00169E+00 -1.16959E-02
    9106.940    112.420   5.600  9.96059E-01  1.00215E+00 -6.08998E-03
    9108.653    114.133   5.640  1.00237E+00  1.00253E+00 -1.58285E-04
    9110.378    115.858   5.680  1.00867E+00  1.00282E+00  5.84401E-03
    9112.115    117.595   5.720  1.01472E+00  1.00304E+00  1.16782E-02
    9113.865    119.345   5.760  1.02025E+00  1.00314E+00  1.71074E-02
    9115.627    121.107   5.800  1.02505E+00  1.00319E+00  2.18616E-02
    9117.401    122.880   5.840  1.02879E+00  1.00313E+00  2.56610E-02
    9119.187    124.667   5.880  1.03126E+00  1.00299E+00  2.82657E-02
    9120.985    126.465   5.920  1.03229E+00  1.00274E+00  2.95481E-02
    9122.796    128.275   5.960  1.03194E+00  1.00242E+00  2.95192E-02
    9124.618    130.098   6.000  1.03024E+00  1.00194E+00  2.83014E-02
