# # comment:                                                     FEFF 9.9.1  
# # Source:
# # Structure
# # Reduced
# # space
# # abc:
# # angles:
# # sites:
# # POT  SCF 100  7.0000   0, screened core-hole, AFOLP (folp(0)= 1.150)
# # Abs   Z=29 Rmt= 1.170 Rnm= 1.290 K  shell
# # Pot 1 Z=56 Rmt= 1.956 Rnm= 2.010
# # Pot 2 Z=59 Rmt= 1.726 Rnm= 1.804
# # Pot 3 Z=29 Rmt= 1.170 Rnm= 1.290
# # Pot 4 Z= 8 Rmt= 1.078 Rnm= 1.129
# # Gam_ch=1.729E+00 H-L exch Vi= 0.000E+00 Vr= 0.000E+00
# # Mu=-8.789E+00eV kf=2.010E+00 Vint=-1.739E+01eV Rs_int= 1.805
# FMS rfms= 9.0000
# # PATH  Rmax=-1.000,  Keep_limit= 0.00, Heap_limit 0.00  Pwcrit= 2.50%
#  S02=0.950  Temp=   0.00  Debye_temp=   0.00  Global_sig2= 0.00000
#  Energy zero shift, vr, vi    0.00000E+00   0.00000E+00
#  Curved wave amplitude ratio filter   4.000%
#     file         sig2 tot  cw amp ratio   deg  nlegs   reff  inp sig2
#     0/   0 paths used
#  xsedge+ 50, used to normalize mu           2.4692E-04
#  -----------------------------------------------------------------------
#  omega    e    k    mu    mu0     chi     @#
    8984.403    -12.599  -1.000  3.61469E-02  5.40607E-02 -1.79138E-02
    8984.701    -12.300  -0.960  3.80772E-02  5.79683E-02 -1.98911E-02
    8984.988    -12.013  -0.920  4.01810E-02  6.23079E-02 -2.21268E-02
    8985.262    -11.739  -0.880  4.24841E-02  6.71427E-02 -2.46586E-02
    8985.524    -11.477  -0.840  4.50168E-02  7.25464E-02 -2.75296E-02
    8985.774    -11.227  -0.800  4.78153E-02  7.86044E-02 -3.07891E-02
    8986.012    -10.989  -0.760  5.09217E-02  8.54144E-02 -3.44926E-02
    8986.237    -10.764  -0.720  5.43851E-02  9.30869E-02 -3.87019E-02
    8986.451    -10.550  -0.680  5.82601E-02  1.01744E-01 -4.34836E-02
    8986.652    -10.349  -0.640  6.26058E-02  1.11513E-01 -4.89071E-02
    8986.841    -10.160  -0.600  6.74812E-02  1.22520E-01 -5.50393E-02
    8987.018     -9.983  -0.560  7.29372E-02  1.34874E-01 -6.19366E-02
    8987.182     -9.819  -0.520  7.90040E-02  1.48636E-01 -6.96324E-02
    8987.335     -9.666  -0.480  8.56734E-02  1.63794E-01 -7.81202E-02
    8987.475     -9.526  -0.440  9.28785E-02  1.80212E-01 -8.73339E-02
    8987.603     -9.398  -0.400  1.00478E-01  1.97608E-01 -9.71304E-02
    8987.719     -9.282  -0.360  1.08251E-01  2.15533E-01 -1.07282E-01
    8987.822     -9.179  -0.320  1.15920E-01  2.33405E-01 -1.17485E-01
    8987.914     -9.087  -0.280  1.23188E-01  2.50579E-01 -1.27391E-01
    8987.993     -9.008  -0.240  1.29787E-01  2.66433E-01 -1.36646E-01
    8988.060     -8.941  -0.200  1.35514E-01  2.80447E-01 -1.44932E-01
    8988.115     -8.886  -0.160  1.40245E-01  2.92237E-01 -1.51992E-01
    8988.158     -8.843  -0.120  1.43918E-01  3.01560E-01 -1.57642E-01
    8988.188     -8.813  -0.080  1.46509E-01  3.08278E-01 -1.61768E-01
    8988.213     -8.789   0.000  1.48505E-01  3.13676E-01 -1.65172E-01
    8988.267     -8.734   0.120  1.53210E-01  3.25854E-01 -1.72644E-01
    8988.310     -8.691   0.160  1.56847E-01  3.35318E-01 -1.78472E-01
    8988.365     -8.636   0.200  1.61397E-01  3.47397E-01 -1.86000E-01
    8988.432     -8.569   0.240  1.66751E-01  3.61951E-01 -1.95200E-01
    8988.511     -8.490   0.280  1.72670E-01  3.78677E-01 -2.06007E-01
    8988.603     -8.398   0.320  1.78856E-01  3.97157E-01 -2.18301E-01
    8988.706     -8.295   0.360  1.84915E-01  4.16855E-01 -2.31940E-01
    8988.822     -8.179   0.400  1.90400E-01  4.37237E-01 -2.46838E-01
    8988.950     -8.051   0.440  1.94745E-01  4.57759E-01 -2.63014E-01
    8989.090     -7.911   0.480  1.97469E-01  4.78052E-01 -2.80583E-01
    8989.243     -7.758   0.520  1.98253E-01  4.97846E-01 -2.99593E-01
    8989.407     -7.594   0.560  1.97308E-01  5.17027E-01 -3.19719E-01
    8989.584     -7.417   0.600  1.95397E-01  5.35543E-01 -3.40146E-01
    8989.773     -7.228   0.640  1.93698E-01  5.53448E-01 -3.59750E-01
    8989.974     -7.027   0.680  1.93301E-01  5.70814E-01 -3.77513E-01
    8990.188     -6.813   0.720  1.95021E-01  5.87744E-01 -3.92723E-01
    8990.413     -6.588   0.760  1.99368E-01  6.04319E-01 -4.04950E-01
    8990.651     -6.350   0.800  2.06609E-01  6.20590E-01 -4.13981E-01
    8990.901     -6.100   0.840  2.16962E-01  6.36639E-01 -4.19677E-01
    8991.163     -5.838   0.880  2.30695E-01  6.52509E-01 -4.21814E-01
    8991.437     -5.564   0.920  2.48320E-01  6.68214E-01 -4.19894E-01
    8991.724     -5.277   0.960  2.71077E-01  6.83795E-01 -4.12718E-01
    8992.023     -4.979   1.000  3.00686E-01  6.99241E-01 -3.98554E-01
    8992.333     -4.668   1.040  3.38240E-01  7.14573E-01 -3.76333E-01
    8992.657     -4.345   1.080  3.82340E-01  7.29766E-01 -3.47426E-01
    8992.992     -4.009   1.120  4.29226E-01  7.44786E-01 -3.15560E-01
    8993.339     -3.662   1.160  4.76012E-01  7.59656E-01 -2.83645E-01
    8993.699     -3.302   1.200  5.23023E-01  7.74295E-01 -2.51272E-01
    8994.071     -2.930   1.240  5.70472E-01  7.88718E-01 -2.18246E-01
    8994.455     -2.546   1.280  6.11485E-01  8.02899E-01 -1.91414E-01
    8994.851     -2.150   1.320  6.32190E-01  8.16769E-01 -1.84579E-01
    8995.259     -1.742   1.360  6.32589E-01  8.30317E-01 -1.97728E-01
    8995.680     -1.321   1.400  6.32083E-01  8.43534E-01 -2.11451E-01
    8996.113     -0.888   1.440  6.43185E-01  8.56372E-01 -2.13187E-01
    8996.558     -0.443   1.480  6.56508E-01  8.68797E-01 -2.12289E-01
    8997.015      0.014   1.520  6.56379E-01  8.80781E-01 -2.24402E-01
    8997.485      0.483   1.560  6.50957E-01  8.92335E-01 -2.41379E-01
    8997.966      0.965   1.600  6.64646E-01  9.03392E-01 -2.38745E-01
    8998.460      1.459   1.640  7.17036E-01  9.13985E-01 -1.96949E-01
    8998.966      1.965   1.680  8.22195E-01  9.24048E-01 -1.01853E-01
    8999.484      2.483   1.720  9.67005E-01  9.33617E-01  3.33882E-02
    9000.014      3.013   1.760  1.08536E+00  9.42649E-01  1.42712E-01
    9000.557      3.556   1.800  1.13988E+00  9.51143E-01  1.88734E-01
    9001.112      4.111   1.840  1.16702E+00  9.59120E-01  2.07901E-01
    9001.679      4.677   1.880  1.21605E+00  9.66580E-01  2.49466E-01
    9002.258      5.257   1.920  1.30186E+00  9.73485E-01  3.28372E-01
    9002.849      5.848   1.960  1.38026E+00  9.79900E-01  4.00357E-01
    9003.452      6.451   2.000  1.40208E+00  9.85769E-01  4.16308E-01
    9004.068      7.067   2.040  1.39059E+00  9.91158E-01  3.99434E-01
    9004.696      7.695   2.080  1.39024E+00  9.96054E-01  3.94181E-01
    9005.336      8.335   2.120  1.39874E+00  1.00046E+00  3.98280E-01
    9005.988      8.987   2.160  1.38292E+00  1.00442E+00  3.78507E-01
    9006.653      9.652   2.200  1.32433E+00  1.00794E+00  3.16390E-01
    9007.330     10.328   2.240  1.24592E+00  1.01103E+00  2.34891E-01
    9008.018     11.017   2.280  1.17664E+00  1.01373E+00  1.62911E-01
    9008.719     11.718   2.320  1.12423E+00  1.01602E+00  1.08209E-01
    9009.433     12.432   2.360  1.09094E+00  1.01795E+00  7.29884E-02
    9010.158     13.157   2.400  1.07932E+00  1.01952E+00  5.97988E-02
    9010.896     13.895   2.440  1.08928E+00  1.02079E+00  6.84927E-02
    9011.645     14.644   2.480  1.10112E+00  1.02176E+00  7.93625E-02
    9012.407     15.406   2.520  1.10579E+00  1.02242E+00  8.33672E-02
    9013.182     16.181   2.560  1.10086E+00  1.02285E+00  7.80151E-02
    9013.968     16.967   2.600  1.08877E+00  1.02301E+00  6.57550E-02
    9014.767     17.766   2.640  1.07349E+00  1.02296E+00  5.05252E-02
    9015.577     18.576   2.680  1.05804E+00  1.02270E+00  3.53359E-02
    9016.400     19.399   2.720  1.04448E+00  1.02227E+00  2.22023E-02
    9017.235     20.234   2.760  1.03335E+00  1.02165E+00  1.16966E-02
    9018.083     21.082   2.800  1.02377E+00  1.02090E+00  2.86522E-03
    9018.942     21.941   2.840  1.01451E+00  1.02002E+00 -5.50701E-03
    9019.814     22.813   2.880  1.00460E+00  1.01902E+00 -1.44140E-02
    9020.698     23.697   2.920  9.93683E-01  1.01792E+00 -2.42386E-02
    9021.594     24.593   2.960  9.82109E-01  1.01672E+00 -3.46133E-02
    9022.502     25.501   3.000  9.70591E-01  1.01546E+00 -4.48734E-02
    9023.423     26.422   3.040  9.59419E-01  1.01416E+00 -5.47382E-02
    9024.356     27.354   3.080  9.48457E-01  1.01278E+00 -6.43279E-02
    9025.300     28.299   3.120  9.37476E-01  1.01139E+00 -7.39164E-02
    9026.258     29.256   3.160  9.26102E-01  1.00997E+00 -8.38640E-02
    9027.227     30.226   3.200  9.14201E-01  1.00851E+00 -9.43102E-02
    9028.208     31.207   3.240  9.01947E-01  1.00707E+00 -1.05128E-01
    9029.202     32.201   3.280  8.89582E-01  1.00564E+00 -1.16058E-01
    9030.208     33.207   3.320  8.77630E-01  1.00421E+00 -1.26581E-01
    9031.226     34.225   3.360  8.67045E-01  1.00281E+00 -1.35766E-01
    9032.256     35.255   3.400  8.59051E-01  1.00144E+00 -1.42393E-01
    9033.298     36.297   3.440  8.54351E-01  1.00009E+00 -1.45742E-01
    9034.353     37.352   3.480  8.53408E-01  9.98780E-01 -1.45372E-01
    9035.420     38.419   3.520  8.56406E-01  9.97531E-01 -1.41125E-01
    9036.499     39.498   3.560  8.63277E-01  9.96326E-01 -1.33049E-01
    9037.590     40.589   3.600  8.73775E-01  9.95167E-01 -1.21392E-01
    9038.693     41.692   3.640  8.87752E-01  9.94077E-01 -1.06324E-01
    9039.809     42.808   3.680  9.04837E-01  9.93036E-01 -8.81984E-02
    9040.937     43.936   3.720  9.24150E-01  9.92066E-01 -6.79161E-02
    9042.077     45.075   3.760  9.44361E-01  9.91147E-01 -4.67856E-02
    9043.229     46.228   3.800  9.63884E-01  9.90302E-01 -2.64173E-02
    9044.393     47.392   3.840  9.81156E-01  9.89533E-01 -8.37642E-03
    9045.570     48.568   3.880  9.95110E-01  9.88839E-01  6.27120E-03
    9046.758     49.757   3.920  1.00545E+00  9.88201E-01  1.72498E-02
    9047.959     50.958   3.960  1.01263E+00  9.87658E-01  2.49754E-02
    9049.172     52.171   4.000  1.01761E+00  9.87168E-01  3.04384E-02
    9050.398     53.396   4.040  1.02172E+00  9.86733E-01  3.49903E-02
    9051.635     54.634   4.080  1.02626E+00  9.86394E-01  3.98672E-02
    9052.885     55.884   4.120  1.03190E+00  9.86109E-01  4.57862E-02
    9054.147     57.146   4.160  1.03863E+00  9.85898E-01  5.27292E-02
    9055.421     58.420   4.200  1.04570E+00  9.85762E-01  5.99374E-02
    9056.707     59.706   4.240  1.05187E+00  9.85675E-01  6.61942E-02
    9058.005     61.004   4.280  1.05600E+00  9.85660E-01  7.03374E-02
    9059.316     62.315   4.320  1.05746E+00  9.85694E-01  7.17665E-02
    9060.639     63.638   4.360  1.05636E+00  9.85798E-01  7.05632E-02
    9061.974     64.973   4.400  1.05344E+00  9.85949E-01  6.74915E-02
    9063.321     66.320   4.440  1.04985E+00  9.86145E-01  6.37079E-02
    9064.680     67.679   4.480  1.04664E+00  9.86407E-01  6.02323E-02
    9066.052     69.051   4.520  1.04427E+00  9.86713E-01  5.75557E-02
    9067.436     70.435   4.560  1.04270E+00  9.87061E-01  5.56397E-02
    9068.832     71.831   4.600  1.04151E+00  9.87449E-01  5.40580E-02
    9070.240     73.239   4.640  1.04017E+00  9.87875E-01  5.22994E-02
    9071.660     74.659   4.680  1.03832E+00  9.88337E-01  4.99830E-02
    9073.093     76.092   4.720  1.03569E+00  9.88814E-01  4.68791E-02
    9074.538     77.537   4.760  1.03205E+00  9.89344E-01  4.27106E-02
    9075.995     78.993   4.800  1.02698E+00  9.89864E-01  3.71190E-02
    9077.464     80.463   4.840  1.02037E+00  9.90435E-01  2.99319E-02
    9078.945     81.944   4.880  1.01249E+00  9.90991E-01  2.14966E-02
    9080.439     83.437   4.920  1.00430E+00  9.91574E-01  1.27246E-02
    9081.944     84.943   4.960  9.96964E-01  9.92183E-01  4.78126E-03
    9083.462     86.461   5.000  9.91393E-01  9.92770E-01 -1.37696E-03
    9084.992     87.991   5.040  9.88001E-01  9.93355E-01 -5.35470E-03
    9086.535     89.533   5.080  9.86589E-01  9.93938E-01 -7.34904E-03
    9088.089     91.088   5.120  9.86586E-01  9.94518E-01 -7.93141E-03
    9089.656     92.655   5.160  9.87206E-01  9.95092E-01 -7.88532E-03
    9091.235     94.233   5.200  9.87475E-01  9.95637E-01 -8.16223E-03
    9092.826     95.824   5.240  9.86417E-01  9.96175E-01 -9.75747E-03
    9094.429     97.428   5.280  9.83447E-01  9.96702E-01 -1.32551E-02
    9096.044     99.043   5.320  9.78793E-01  9.97174E-01 -1.83808E-02
    9097.672    100.671   5.360  9.73327E-01  9.97655E-01 -2.43278E-02
    9099.312    102.311   5.400  9.68184E-01  9.98078E-01 -2.98937E-02
    9100.964    103.963   5.440  9.64378E-01  9.98484E-01 -3.41057E-02
    9102.628    105.627   5.480  9.62452E-01  9.98830E-01 -3.63776E-02
    9104.304    107.303   5.520  9.62721E-01  9.99159E-01 -3.64379E-02
    9105.993    108.992   5.560  9.65268E-01  9.99450E-01 -3.41817E-02
    9107.694    110.693   5.600  9.70000E-01  9.99699E-01 -2.96987E-02
    9109.407    112.406   5.640  9.76603E-01  9.99906E-01 -2.33027E-02
    9111.132    114.131   5.680  9.84068E-01  1.00005E+00 -1.59802E-02
    9112.869    115.868   5.720  9.90900E-01  1.00017E+00 -9.26981E-03
    9114.619    117.618   5.760  9.95310E-01  1.00023E+00 -4.91900E-03
    9116.380    119.379   5.800  9.95923E-01  1.00027E+00 -4.34491E-03
    9118.154    121.153   5.840  9.92148E-01  1.00024E+00 -8.09148E-03
    9119.940    122.939   5.880  9.84644E-01  1.00017E+00 -1.55240E-02
    9121.739    124.738   5.920  9.75136E-01  1.00003E+00 -2.48940E-02
    9123.549    126.548   5.960  9.66101E-01  9.99867E-01 -3.37668E-02
    9125.372    128.371   6.000  9.59757E-01  9.99603E-01 -3.98458E-02
