# # comment:                                                     FEFF 9.9.1  
# # Source:
# # Structure
# # Reduced
# # space
# # abc:
# # angles:125.504878
# # sites:
# # POT  SCF 100  7.0000   0, screened core-hole, AFOLP (folp(0)= 1.150)
# # Abs   Z=29 Rmt= 1.233 Rnm= 1.327 K  shell
# # Pot 1 Z=29 Rmt= 1.233 Rnm= 1.327
# # Pot 2 Z= 8 Rmt= 0.999 Rnm= 1.094
# # Gam_ch=1.729E+00 H-L exch Vi= 0.000E+00 Vr= 0.000E+00
# # Mu=-6.406E+00eV kf=2.179E+00 Vint=-1.519E+01eV Rs_int= 1.664
# FMS rfms= 9.0000
# # PATH  Rmax=-1.000,  Keep_limit= 0.00, Heap_limit 0.00  Pwcrit= 2.50%
#  S02=0.950  Temp=   0.00  Debye_temp=   0.00  Global_sig2= 0.00000
#  Energy zero shift, vr, vi    0.00000E+00   0.00000E+00
#  Curved wave amplitude ratio filter   4.000%
#     file         sig2 tot  cw amp ratio   deg  nlegs   reff  inp sig2
#     0/   0 paths used
#  xsedge+ 50, used to normalize mu           2.4447E-04
#  -----------------------------------------------------------------------
#  omega    e    k    mu    mu0     chi     @#
    8983.578    -10.216  -1.000  4.08249E-02  5.53672E-02 -1.45423E-02
    8983.877     -9.918  -0.960  4.32103E-02  5.94252E-02 -1.62150E-02
    8984.163     -9.631  -0.920  4.58129E-02  6.39369E-02 -1.81240E-02
    8984.438     -9.357  -0.880  4.86605E-02  6.89692E-02 -2.03087E-02
    8984.700     -9.095  -0.840  5.17845E-02  7.46000E-02 -2.28155E-02
    8984.950     -8.845  -0.800  5.52204E-02  8.09195E-02 -2.56992E-02
    8985.187     -8.607  -0.760  5.90078E-02  8.80314E-02 -2.90236E-02
    8985.413     -8.382  -0.720  6.31904E-02  9.60528E-02 -3.28624E-02
    8985.626     -8.168  -0.680  6.78142E-02  1.05112E-01 -3.72982E-02
    8985.827     -7.967  -0.640  7.29266E-02  1.15347E-01 -4.24200E-02
    8986.016     -7.778  -0.600  7.85720E-02  1.26889E-01 -4.83168E-02
    8986.193     -7.601  -0.560  8.47864E-02  1.39853E-01 -5.50668E-02
    8986.358     -7.437  -0.520  9.15893E-02  1.54308E-01 -6.27185E-02
    8986.510     -7.284  -0.480  9.89723E-02  1.70238E-01 -7.12654E-02
    8986.650     -7.144  -0.440  1.06886E-01  1.87503E-01 -8.06167E-02
    8986.778     -7.016  -0.400  1.15230E-01  2.05803E-01 -9.05729E-02
    8986.894     -6.900  -0.360  1.23843E-01  2.24665E-01 -1.00821E-01
    8986.998     -6.797  -0.320  1.32511E-01  2.43474E-01 -1.10963E-01
    8987.089     -6.705  -0.280  1.40978E-01  2.61548E-01 -1.20570E-01
    8987.169     -6.626  -0.240  1.48973E-01  2.78232E-01 -1.29259E-01
    8987.236     -6.559  -0.200  1.56230E-01  2.92976E-01 -1.36746E-01
    8987.290     -6.504  -0.160  1.62511E-01  3.05377E-01 -1.42866E-01
    8987.333     -6.461  -0.120  1.67618E-01  3.15180E-01 -1.47562E-01
    8987.364     -6.431  -0.080  1.71399E-01  3.22242E-01 -1.50843E-01
    8987.388     -6.406   0.000  1.74553E-01  3.27915E-01 -1.53362E-01
    8987.443     -6.352   0.120  1.81667E-01  3.40699E-01 -1.59032E-01
    8987.486     -6.309   0.160  1.87314E-01  3.50645E-01 -1.63331E-01
    8987.540     -6.254   0.200  1.94757E-01  3.63339E-01 -1.68583E-01
    8987.607     -6.187   0.240  2.04110E-01  3.78610E-01 -1.74500E-01
    8987.687     -6.108   0.280  2.15484E-01  3.96130E-01 -1.80646E-01
    8987.778     -6.016   0.320  2.28990E-01  4.15476E-01 -1.86485E-01
    8987.882     -5.913   0.360  2.44597E-01  4.36070E-01 -1.91473E-01
    8987.998     -5.797   0.400  2.62088E-01  4.57300E-01 -1.95213E-01
    8988.126     -5.669   0.440  2.80956E-01  4.78630E-01 -1.97673E-01
    8988.266     -5.529   0.480  3.00286E-01  4.99660E-01 -1.99374E-01
    8988.418     -5.376   0.520  3.18515E-01  5.20064E-01 -2.01549E-01
    8988.583     -5.212   0.560  3.33808E-01  5.39718E-01 -2.05910E-01
    8988.760     -5.035   0.600  3.44574E-01  5.58628E-01 -2.14054E-01
    8988.949     -4.846   0.640  3.50006E-01  5.76791E-01 -2.26785E-01
    8989.150     -4.645   0.680  3.50786E-01  5.94303E-01 -2.43517E-01
    8989.363     -4.431   0.720  3.49119E-01  6.11274E-01 -2.62156E-01
    8989.589     -4.206   0.760  3.48381E-01  6.27771E-01 -2.79390E-01
    8989.826     -3.968   0.800  3.52047E-01  6.43872E-01 -2.91825E-01
    8990.076     -3.718   0.840  3.62156E-01  6.59663E-01 -2.97506E-01
    8990.338     -3.456   0.880  3.78290E-01  6.75171E-01 -2.96881E-01
    8990.613     -3.182   0.920  3.96916E-01  6.90436E-01 -2.93520E-01
    8990.899     -2.895   0.960  4.11729E-01  7.05480E-01 -2.93751E-01
    8991.198     -2.596   1.000  4.17678E-01  7.20316E-01 -3.02638E-01
    8991.509     -2.286   1.040  4.16124E-01  7.34951E-01 -3.18827E-01
    8991.832     -1.963   1.080  4.12993E-01  7.49378E-01 -3.36385E-01
    8992.167     -1.627   1.120  4.13220E-01  7.63549E-01 -3.50329E-01
    8992.515     -1.280   1.160  4.19786E-01  7.77510E-01 -3.57724E-01
    8992.874     -0.920   1.200  4.34179E-01  7.91179E-01 -3.57000E-01
    8993.246     -0.548   1.240  4.56605E-01  8.04558E-01 -3.47953E-01
    8993.630     -0.164   1.280  4.86267E-01  8.17640E-01 -3.31373E-01
    8994.027      0.232   1.320  5.22528E-01  8.30383E-01 -3.07855E-01
    8994.435      0.640   1.360  5.65657E-01  8.42759E-01 -2.77101E-01
    8994.856      1.061   1.400  6.14414E-01  8.54740E-01 -2.40326E-01
    8995.288      1.494   1.440  6.62166E-01  8.66321E-01 -2.04155E-01
    8995.733      1.939   1.480  7.03144E-01  8.77474E-01 -1.74330E-01
    8996.191      2.396   1.520  7.41286E-01  8.88175E-01 -1.46889E-01
    8996.660      2.866   1.560  7.82841E-01  8.98418E-01 -1.15577E-01
    8997.142      3.347   1.600  8.31037E-01  9.08199E-01 -7.71622E-02
    8997.635      3.841   1.640  8.91348E-01  9.17475E-01 -2.61272E-02
    8998.141      4.347   1.680  9.72891E-01  9.26265E-01  4.66256E-02
    8998.659      4.865   1.720  1.08316E+00  9.34567E-01  1.48593E-01
    8999.190      5.395   1.760  1.22062E+00  9.42362E-01  2.78255E-01
    8999.732      5.938   1.800  1.36097E+00  9.49672E-01  4.11299E-01
    9000.287      6.493   1.840  1.45794E+00  9.56480E-01  5.01457E-01
    9000.854      7.060   1.880  1.49163E+00  9.62810E-01  5.28823E-01
    9001.433      7.639   1.920  1.48823E+00  9.68646E-01  5.19585E-01
    9002.024      8.230   1.960  1.46957E+00  9.74014E-01  4.95559E-01
    9002.628      8.833   2.000  1.44334E+00  9.78923E-01  4.64417E-01
    9003.244      9.449   2.040  1.41928E+00  9.83398E-01  4.35882E-01
    9003.872     10.077   2.080  1.38475E+00  9.87449E-01  3.97302E-01
    9004.512     10.717   2.120  1.32115E+00  9.91065E-01  3.30082E-01
    9005.164     11.369   2.160  1.23799E+00  9.94315E-01  2.43671E-01
    9005.828     12.034   2.200  1.15608E+00  9.97167E-01  1.58911E-01
    9006.505     12.711   2.240  1.08898E+00  9.99674E-01  8.93042E-02
    9007.194     13.399   2.280  1.04454E+00  1.00184E+00  4.26987E-02
    9007.895     14.100   2.320  1.02700E+00  1.00369E+00  2.33092E-02
    9008.608     14.814   2.360  1.03057E+00  1.00524E+00  2.53343E-02
    9009.334     15.539   2.400  1.04282E+00  1.00652E+00  3.62933E-02
    9010.071     16.277   2.440  1.05639E+00  1.00754E+00  4.88578E-02
    9010.821     17.026   2.480  1.06619E+00  1.00832E+00  5.78622E-02
    9011.583     17.788   2.520  1.06362E+00  1.00890E+00  5.47230E-02
    9012.357     18.563   2.560  1.04564E+00  1.00924E+00  3.63987E-02
    9013.144     19.349   2.600  1.02071E+00  1.00944E+00  1.12765E-02
    9013.942     20.148   2.640  1.00265E+00  1.00944E+00 -6.79500E-03
    9014.753     20.958   2.680  9.92497E-01  1.00931E+00 -1.68142E-02
    9015.576     21.781   2.720  9.87847E-01  1.00905E+00 -2.12051E-02
    9016.411     22.616   2.760  9.85975E-01  1.00867E+00 -2.26968E-02
    9017.258     23.464   2.800  9.84582E-01  1.00820E+00 -2.36173E-02
    9018.118     24.323   2.840  9.81782E-01  1.00764E+00 -2.58599E-02
    9018.990     25.195   2.880  9.76292E-01  1.00700E+00 -3.07127E-02
    9019.873     26.079   2.920  9.67704E-01  1.00629E+00 -3.85910E-02
    9020.770     26.975   2.960  9.56504E-01  1.00556E+00 -4.90564E-02
    9021.678     27.883   3.000  9.43714E-01  1.00479E+00 -6.10717E-02
    9022.598     28.804   3.040  9.30529E-01  1.00398E+00 -7.34481E-02
    9023.531     29.737   3.080  9.18073E-01  1.00316E+00 -8.50882E-02
    9024.476     30.681   3.120  9.07190E-01  1.00234E+00 -9.51493E-02
    9025.433     31.639   3.160  8.97890E-01  1.00152E+00 -1.03626E-01
    9026.402     32.608   3.200  8.89757E-01  1.00070E+00 -1.10941E-01
    9027.384     33.589   3.240  8.82672E-01  9.99908E-01 -1.17236E-01
    9028.377     34.583   3.280  8.76656E-01  9.99128E-01 -1.22472E-01
    9029.383     35.589   3.320  8.72097E-01  9.98384E-01 -1.26287E-01
    9030.401     36.607   3.360  8.69646E-01  9.97677E-01 -1.28031E-01
    9031.431     37.637   3.400  8.69956E-01  9.97030E-01 -1.27074E-01
    9032.474     38.679   3.440  8.73272E-01  9.96405E-01 -1.23133E-01
    9033.528     39.734   3.480  8.79737E-01  9.95822E-01 -1.16085E-01
    9034.595     40.801   3.520  8.89330E-01  9.95302E-01 -1.05973E-01
    9035.674     41.880   3.560  9.01627E-01  9.94830E-01 -9.32038E-02
    9036.765     42.971   3.600  9.15983E-01  9.94406E-01 -7.84235E-02
    9037.869     44.074   3.640  9.31660E-01  9.94051E-01 -6.23915E-02
    9038.984     45.190   3.680  9.47830E-01  9.93767E-01 -4.59369E-02
    9040.112     46.318   3.720  9.63795E-01  9.93531E-01 -2.97362E-02
    9041.252     47.458   3.760  9.79212E-01  9.93345E-01 -1.41324E-02
    9042.404     48.610   3.800  9.93954E-01  9.93227E-01  7.26980E-04
    9043.569     49.774   3.840  1.00789E+00  9.93159E-01  1.47301E-02
    9044.745     50.951   3.880  1.02098E+00  9.93161E-01  2.78234E-02
    9045.934     52.139   3.920  1.03320E+00  9.93213E-01  3.99864E-02
    9047.135     53.340   3.960  1.04442E+00  9.93335E-01  5.10842E-02
    9048.348     54.553   4.000  1.05442E+00  9.93504E-01  6.09114E-02
    9049.573     55.779   4.040  1.06296E+00  9.93741E-01  6.92167E-02
    9050.811     57.016   4.080  1.06966E+00  9.94024E-01  7.56334E-02
    9052.060     58.266   4.120  1.07403E+00  9.94351E-01  7.96797E-02
    9053.322     59.528   4.160  1.07569E+00  9.94718E-01  8.09764E-02
    9054.596     60.802   4.200  1.07457E+00  9.95127E-01  7.94445E-02
    9055.882     62.088   4.240  1.07110E+00  9.95578E-01  7.55255E-02
    9057.181     63.386   4.280  1.06624E+00  9.96090E-01  7.01542E-02
    9058.491     64.697   4.320  1.06111E+00  9.96619E-01  6.44877E-02
    9059.814     66.020   4.360  1.05666E+00  9.97183E-01  5.94738E-02
    9061.149     67.355   4.400  1.05344E+00  9.97781E-01  5.56583E-02
    9062.497     68.702   4.440  1.05159E+00  9.98390E-01  5.31973E-02
    9063.856     70.061   4.480  1.05087E+00  9.99029E-01  5.18451E-02
    9065.228     71.433   4.520  1.05055E+00  9.99675E-01  5.08743E-02
    9066.611     72.817   4.560  1.04951E+00  1.00035E+00  4.91661E-02
    9068.007     74.213   4.600  1.04663E+00  1.00100E+00  4.56253E-02
    9069.415     75.621   4.640  1.04143E+00  1.00168E+00  3.97511E-02
    9070.836     77.041   4.680  1.03423E+00  1.00236E+00  3.18699E-02
    9072.268     78.474   4.720  1.02588E+00  1.00307E+00  2.28157E-02
    9073.713     79.919   4.760  1.01728E+00  1.00374E+00  1.35410E-02
    9075.170     81.376   4.800  1.00931E+00  1.00439E+00  4.91290E-03
    9076.639     82.845   4.840  1.00274E+00  1.00506E+00 -2.31830E-03
    9078.121     84.326   4.880  9.98200E-01  1.00569E+00 -7.49132E-03
    9079.614     85.820   4.920  9.96073E-01  1.00629E+00 -1.02200E-02
    9081.120     87.325   4.960  9.96186E-01  1.00688E+00 -1.06981E-02
    9082.638     88.843   5.000  9.97754E-01  1.00746E+00 -9.70919E-03
    9084.168     90.373   5.040  9.99641E-01  1.00798E+00 -8.34326E-03
    9085.710     91.916   5.080  1.00095E+00  1.00849E+00 -7.54567E-03
    9087.264     93.470   5.120  1.00102E+00  1.00898E+00 -7.96052E-03
    9088.831     95.037   5.160  9.99419E-01  1.00941E+00 -9.99413E-03
    9090.410     96.615   5.200  9.96026E-01  1.00980E+00 -1.37740E-02
    9092.001     98.207   5.240  9.91095E-01  1.01015E+00 -1.90521E-02
    9093.604     99.810   5.280  9.85347E-01  1.01047E+00 -2.51277E-02
    9095.220    101.425   5.320  9.79579E-01  1.01074E+00 -3.11585E-02
    9096.847    103.053   5.360  9.74364E-01  1.01096E+00 -3.65915E-02
    9098.487    104.693   5.400  9.69856E-01  1.01113E+00 -4.12736E-02
    9100.139    106.345   5.440  9.66094E-01  1.01126E+00 -4.51652E-02
    9101.803    108.009   5.480  9.63135E-01  1.01132E+00 -4.81876E-02
    9103.480    109.685   5.520  9.61060E-01  1.01136E+00 -5.03031E-02
    9105.168    111.374   5.560  9.59914E-01  1.01134E+00 -5.14230E-02
    9106.869    113.075   5.600  9.60180E-01  1.01127E+00 -5.10862E-02
    9108.582    114.788   5.640  9.62572E-01  1.01115E+00 -4.85786E-02
    9110.307    116.513   5.680  9.67407E-01  1.01097E+00 -4.35607E-02
    9112.045    118.250   5.720  9.74127E-01  1.01076E+00 -3.66378E-02
    9113.794    120.000   5.760  9.81385E-01  1.01050E+00 -2.91121E-02
    9115.556    121.761   5.800  9.88082E-01  1.01019E+00 -2.21075E-02
    9117.330    123.535   5.840  9.93887E-01  1.00987E+00 -1.59792E-02
    9119.116    125.321   5.880  9.98848E-01  1.00948E+00 -1.06317E-02
    9120.914    127.120   5.920  1.00301E+00  1.00906E+00 -6.04387E-03
    9122.725    128.930   5.960  1.00636E+00  1.00860E+00 -2.23381E-03
    9124.547    130.753   6.000  1.00925E+00  1.00810E+00  1.14615E-03
