# # comment:                                                     FEFF 9.9.1  
# # Source:
# # Structure
# # Reduced
# # space
# # abc:
# # angles:129.599436
# # sites:
# # POT  SCF 100  7.0000   0, screened core-hole, AFOLP (folp(0)= 1.150)
# # Abs   Z=29 Rmt= 1.177 Rnm= 1.277 K  shell
# # Pot 1 Z=13 Rmt= 1.227 Rnm= 1.380
# # Pot 2 Z=29 Rmt= 1.177 Rnm= 1.277
# # Pot 3 Z= 8 Rmt= 0.991 Rnm= 1.092
# # Gam_ch=1.729E+00 H-L exch Vi= 0.000E+00 Vr= 0.000E+00
# # Mu=-7.492E+00eV kf=2.194E+00 Vint=-1.645E+01eV Rs_int= 1.653
# FMS rfms= 9.0000
# # PATH  Rmax=-1.000,  Keep_limit= 0.00, Heap_limit 0.00  Pwcrit= 2.50%
#  S02=0.950  Temp=   0.00  Debye_temp=   0.00  Global_sig2= 0.00000
#  Energy zero shift, vr, vi    0.00000E+00   0.00000E+00
#  Curved wave amplitude ratio filter   4.000%
#     file         sig2 tot  cw amp ratio   deg  nlegs   reff  inp sig2
#     0/   0 paths used
#  xsedge+ 50, used to normalize mu           2.4501E-04
#  -----------------------------------------------------------------------
#  omega    e    k    mu    mu0     chi     @#
    8983.796    -11.302  -1.000  3.60752E-02  5.54567E-02 -1.93815E-02
    8984.094    -11.003  -0.960  3.78344E-02  5.95132E-02 -2.16788E-02
    8984.381    -10.717  -0.920  3.97043E-02  6.40225E-02 -2.43181E-02
    8984.655    -10.442  -0.880  4.16931E-02  6.90512E-02 -2.73582E-02
    8984.917    -10.180  -0.840  4.38088E-02  7.46772E-02 -3.08684E-02
    8985.167     -9.930  -0.800  4.60603E-02  8.09905E-02 -3.49302E-02
    8985.405     -9.693  -0.760  4.84566E-02  8.80942E-02 -3.96377E-02
    8985.631     -9.467  -0.720  5.10067E-02  9.61053E-02 -4.50986E-02
    8985.844     -9.254  -0.680  5.37193E-02  1.05152E-01 -5.14329E-02
    8986.045     -9.053  -0.640  5.66019E-02  1.15371E-01 -5.87687E-02
    8986.234     -8.864  -0.600  5.96597E-02  1.26894E-01 -6.72342E-02
    8986.411     -8.687  -0.560  6.28931E-02  1.39836E-01 -7.69428E-02
    8986.576     -8.522  -0.520  6.62946E-02  1.54264E-01 -8.79696E-02
    8986.728     -8.370  -0.480  6.98447E-02  1.70164E-01 -1.00319E-01
    8986.868     -8.230  -0.440  7.35071E-02  1.87395E-01 -1.13888E-01
    8986.996     -8.102  -0.400  7.72254E-02  2.05658E-01 -1.28433E-01
    8987.112     -7.986  -0.360  8.09225E-02  2.24481E-01 -1.43559E-01
    8987.216     -7.882  -0.320  8.45064E-02  2.43251E-01 -1.58745E-01
    8987.307     -7.791  -0.280  8.78801E-02  2.61287E-01 -1.73407E-01
    8987.386     -7.711  -0.240  9.09539E-02  2.77935E-01 -1.86982E-01
    8987.453     -7.644  -0.200  9.36544E-02  2.92647E-01 -1.98993E-01
    8987.508     -7.589  -0.160  9.59273E-02  3.05023E-01 -2.09095E-01
    8987.551     -7.547  -0.120  9.77352E-02  3.14805E-01 -2.17070E-01
    8987.581     -7.516  -0.080  9.90523E-02  3.21852E-01 -2.22800E-01
    8987.606     -7.492   0.000  1.00138E-01  3.27515E-01 -2.27377E-01
    8987.661     -7.437   0.120  1.02610E-01  3.40282E-01 -2.37672E-01
    8987.703     -7.394   0.160  1.04504E-01  3.50213E-01 -2.45709E-01
    8987.758     -7.340   0.200  1.06897E-01  3.62867E-01 -2.55970E-01
    8987.825     -7.272   0.240  1.09830E-01  3.78093E-01 -2.68263E-01
    8987.904     -7.193   0.280  1.13317E-01  3.95585E-01 -2.82268E-01
    8987.996     -7.102   0.320  1.17387E-01  4.14899E-01 -2.97512E-01
    8988.099     -6.998   0.360  1.22082E-01  4.35440E-01 -3.13358E-01
    8988.215     -6.882   0.400  1.27553E-01  4.56638E-01 -3.29085E-01
    8988.343     -6.754   0.440  1.33991E-01  4.77936E-01 -3.43944E-01
    8988.484     -6.614   0.480  1.41761E-01  4.98916E-01 -3.57155E-01
    8988.636     -6.462   0.520  1.51261E-01  5.19294E-01 -3.68032E-01
    8988.801     -6.297   0.560  1.63127E-01  5.38946E-01 -3.75819E-01
    8988.977     -6.120   0.600  1.78190E-01  5.57840E-01 -3.79650E-01
    8989.166     -5.931   0.640  1.97661E-01  5.76013E-01 -3.78352E-01
    8989.367     -5.730   0.680  2.23251E-01  5.93543E-01 -3.70291E-01
    8989.581     -5.517   0.720  2.57405E-01  6.10537E-01 -3.53133E-01
    8989.806     -5.291   0.760  3.03242E-01  6.27086E-01 -3.23844E-01
    8990.044     -5.054   0.800  3.63672E-01  6.43248E-01 -2.79575E-01
    8990.294     -4.804   0.840  4.38506E-01  6.59107E-01 -2.20601E-01
    8990.556     -4.541   0.880  5.19514E-01  6.74737E-01 -1.55223E-01
    8990.830     -4.267   0.920  5.89679E-01  6.90112E-01 -1.00433E-01
    8991.117     -3.981   0.960  6.33834E-01  7.05318E-01 -7.14833E-02
    8991.416     -3.682   1.000  6.49415E-01  7.20329E-01 -7.09144E-02
    8991.727     -3.371   1.040  6.44802E-01  7.35150E-01 -9.03479E-02
    8992.050     -3.048   1.080  6.26061E-01  7.49776E-01 -1.23715E-01
    8992.385     -2.713   1.120  5.90078E-01  7.64218E-01 -1.74140E-01
    8992.732     -2.365   1.160  5.41433E-01  7.78421E-01 -2.36988E-01
    8993.092     -2.006   1.200  4.96786E-01  7.92387E-01 -2.95601E-01
    8993.464     -1.634   1.240  4.61676E-01  8.06095E-01 -3.44419E-01
    8993.848     -1.250   1.280  4.29806E-01  8.19518E-01 -3.89712E-01
    8994.244     -0.853   1.320  4.04165E-01  8.32611E-01 -4.28446E-01
    8994.653     -0.445   1.360  3.97398E-01  8.45366E-01 -4.47969E-01
    8995.073     -0.024   1.400  4.16679E-01  8.57735E-01 -4.41057E-01
    8995.506      0.408   1.440  4.59515E-01  8.69732E-01 -4.10217E-01
    8995.951      0.853   1.480  5.13840E-01  8.81309E-01 -3.67469E-01
    8996.408      1.311   1.520  5.64301E-01  8.92439E-01 -3.28138E-01
    8996.878      1.780   1.560  6.06587E-01  9.03133E-01 -2.96547E-01
    8997.359      2.262   1.600  6.50080E-01  9.13327E-01 -2.63246E-01
    8997.853      2.755   1.640  7.03559E-01  9.23056E-01 -2.19496E-01
    8998.359      3.261   1.680  7.61363E-01  9.32276E-01 -1.70913E-01
    8998.877      3.780   1.720  8.13284E-01  9.41007E-01 -1.27723E-01
    8999.408      4.310   1.760  8.72124E-01  9.49228E-01 -7.71036E-02
    8999.950      4.852   1.800  9.56606E-01  9.56936E-01 -3.30460E-04
    9000.505      5.407   1.840  1.05924E+00  9.64135E-01  9.51089E-02
    9001.072      5.974   1.880  1.16314E+00  9.70827E-01  1.92316E-01
    9001.651      6.553   1.920  1.27280E+00  9.77015E-01  2.95784E-01
    9002.242      7.144   1.960  1.40320E+00  9.82725E-01  4.20472E-01
    9002.846      7.748   2.000  1.53013E+00  9.87943E-01  5.42190E-01
    9003.461      8.364   2.040  1.59413E+00  9.92694E-01  6.01440E-01
    9004.089      8.992   2.080  1.59306E+00  9.96987E-01  5.96071E-01
    9004.729      9.632   2.120  1.56111E+00  1.00083E+00  5.60283E-01
    9005.382     10.284   2.160  1.49463E+00  1.00425E+00  4.90381E-01
    9006.046     10.948   2.200  1.39820E+00  1.00728E+00  3.90923E-01
    9006.723     11.625   2.240  1.30282E+00  1.00991E+00  2.92910E-01
    9007.412     12.314   2.280  1.22930E+00  1.01216E+00  2.17134E-01
    9008.113     13.015   2.320  1.18067E+00  1.01408E+00  1.66598E-01
    9008.826     13.728   2.360  1.15313E+00  1.01566E+00  1.37474E-01
    9009.551     14.454   2.400  1.13965E+00  1.01694E+00  1.22707E-01
    9010.289     15.191   2.440  1.13019E+00  1.01793E+00  1.12261E-01
    9011.039     15.941   2.480  1.11707E+00  1.01864E+00  9.84232E-02
    9011.801     16.703   2.520  1.10361E+00  1.01911E+00  8.45083E-02
    9012.575     17.477   2.560  1.10145E+00  1.01935E+00  8.20984E-02
    9013.361     18.264   2.600  1.10887E+00  1.01938E+00  8.94877E-02
    9014.160     19.062   2.640  1.11233E+00  1.01922E+00  9.31166E-02
    9014.971     19.873   2.680  1.11091E+00  1.01888E+00  9.20321E-02
    9015.794     20.696   2.720  1.10486E+00  1.01838E+00  8.64856E-02
    9016.629     21.531   2.760  1.09381E+00  1.01774E+00  7.60630E-02
    9017.476     22.378   2.800  1.07801E+00  1.01699E+00  6.10186E-02
    9018.336     23.238   2.840  1.05852E+00  1.01612E+00  4.24061E-02
    9019.207     24.110   2.880  1.03648E+00  1.01518E+00  2.13061E-02
    9020.091     24.994   2.920  1.01200E+00  1.01413E+00 -2.13682E-03
    9020.987     25.890   2.960  9.85093E-01  1.01304E+00 -2.79447E-02
    9021.896     26.798   3.000  9.57243E-01  1.01189E+00 -5.46511E-02
    9022.816     27.718   3.040  9.30639E-01  1.01071E+00 -8.00697E-02
    9023.749     28.651   3.080  9.06884E-01  1.00949E+00 -1.02603E-01
    9024.694     29.596   3.120  8.87080E-01  1.00825E+00 -1.21175E-01
    9025.651     30.553   3.160  8.71373E-01  1.00700E+00 -1.35623E-01
    9026.620     31.522   3.200  8.59462E-01  1.00576E+00 -1.46298E-01
    9027.601     32.504   3.240  8.51072E-01  1.00453E+00 -1.53456E-01
    9028.595     33.497   3.280  8.45845E-01  1.00333E+00 -1.57480E-01
    9029.601     34.503   3.320  8.43361E-01  1.00213E+00 -1.58774E-01
    9030.619     35.521   3.360  8.43437E-01  1.00100E+00 -1.57564E-01
    9031.649     36.551   3.400  8.45825E-01  9.99884E-01 -1.54059E-01
    9032.692     37.594   3.440  8.50040E-01  9.98808E-01 -1.48768E-01
    9033.746     38.648   3.480  8.55609E-01  9.97796E-01 -1.42187E-01
    9034.813     39.715   3.520  8.62123E-01  9.96810E-01 -1.34687E-01
    9035.892     40.794   3.560  8.69340E-01  9.95913E-01 -1.26574E-01
    9036.983     41.885   3.600  8.77051E-01  9.95067E-01 -1.18016E-01
    9038.086     42.989   3.640  8.85398E-01  9.94272E-01 -1.08874E-01
    9039.202     44.104   3.680  8.94717E-01  9.93548E-01 -9.88316E-02
    9040.330     45.232   3.720  9.05455E-01  9.92901E-01 -8.74451E-02
    9041.470     46.372   3.760  9.18170E-01  9.92328E-01 -7.41586E-02
    9042.622     47.524   3.800  9.33255E-01  9.91808E-01 -5.85536E-02
    9043.786     48.689   3.840  9.50754E-01  9.91365E-01 -4.06106E-02
    9044.963     49.865   3.880  9.70159E-01  9.90997E-01 -2.08382E-02
    9046.151     51.054   3.920  9.90573E-01  9.90685E-01 -1.11829E-04
    9047.352     52.255   3.960  1.01068E+00  9.90470E-01  2.02054E-02
    9048.565     53.468   4.000  1.02887E+00  9.90310E-01  3.85556E-02
    9049.791     54.693   4.040  1.04387E+00  9.90227E-01  5.36469E-02
    9051.028     55.931   4.080  1.05484E+00  9.90218E-01  6.46190E-02
    9052.278     57.180   4.120  1.06143E+00  9.90261E-01  7.11677E-02
    9053.540     58.442   4.160  1.06420E+00  9.90378E-01  7.38202E-02
    9054.814     59.716   4.200  1.06428E+00  9.90569E-01  7.37154E-02
    9056.100     61.002   4.240  1.06292E+00  9.90810E-01  7.21069E-02
    9057.399     62.301   4.280  1.06092E+00  9.91121E-01  6.97980E-02
    9058.709     63.612   4.320  1.05849E+00  9.91479E-01  6.70146E-02
    9060.032     64.934   4.360  1.05542E+00  9.91883E-01  6.35349E-02
    9061.367     66.269   4.400  1.05141E+00  9.92352E-01  5.90539E-02
    9062.714     67.617   4.440  1.04633E+00  9.92842E-01  5.34877E-02
    9064.074     68.976   4.480  1.04055E+00  9.93396E-01  4.71550E-02
    9065.445     70.348   4.520  1.03477E+00  9.93991E-01  4.07743E-02
    9066.829     71.731   4.560  1.02987E+00  9.94624E-01  3.52470E-02
    9068.225     73.127   4.600  1.02661E+00  9.95273E-01  3.13377E-02
    9069.633     74.535   4.640  1.02542E+00  9.95978E-01  2.94424E-02
    9071.054     75.956   4.680  1.02630E+00  9.96693E-01  2.96094E-02
    9072.486     77.388   4.720  1.02908E+00  9.97416E-01  3.16613E-02
    9073.931     78.833   4.760  1.03342E+00  9.98169E-01  3.52464E-02
    9075.388     80.290   4.800  1.03879E+00  9.98926E-01  3.98682E-02
    9076.857     81.759   4.840  1.04462E+00  9.99687E-01  4.49377E-02
    9078.338     83.241   4.880  1.05023E+00  1.00047E+00  4.97601E-02
    9079.832     84.734   4.920  1.05491E+00  1.00123E+00  5.36773E-02
    9081.337     86.240   4.960  1.05833E+00  1.00201E+00  5.63162E-02
    9082.855     87.758   5.000  1.06035E+00  1.00277E+00  5.75759E-02
    9084.385     89.288   5.040  1.06098E+00  1.00352E+00  5.74643E-02
    9085.928     90.830   5.080  1.06004E+00  1.00423E+00  5.58067E-02
    9087.482     92.385   5.120  1.05714E+00  1.00494E+00  5.21947E-02
    9089.049     93.951   5.160  1.05167E+00  1.00561E+00  4.60520E-02
    9090.628     95.530   5.200  1.04316E+00  1.00628E+00  3.68890E-02
    9092.219     97.121   5.240  1.03149E+00  1.00690E+00  2.45940E-02
    9093.822     98.724   5.280  1.01709E+00  1.00749E+00  9.60118E-03
    9095.437    100.340   5.320  1.00082E+00  1.00803E+00 -7.20824E-03
    9097.065    101.967   5.360  9.83810E-01  1.00854E+00 -2.47275E-02
    9098.705    103.607   5.400  9.67272E-01  1.00903E+00 -4.17536E-02
    9100.357    105.259   5.440  9.52269E-01  1.00945E+00 -5.71767E-02
    9102.021    106.923   5.480  9.39497E-01  1.00980E+00 -7.02994E-02
    9103.697    108.600   5.520  9.29111E-01  1.01013E+00 -8.10151E-02
    9105.386    110.288   5.560  9.20783E-01  1.01039E+00 -8.96078E-02
    9107.087    111.989   5.600  9.14404E-01  1.01063E+00 -9.62263E-02
    9108.800    113.702   5.640  9.10080E-01  1.01078E+00 -1.00698E-01
    9110.525    115.427   5.680  9.08338E-01  1.01090E+00 -1.02563E-01
    9112.262    117.165   5.720  9.09681E-01  1.01095E+00 -1.01273E-01
    9114.012    118.914   5.760  9.14590E-01  1.01094E+00 -9.63465E-02
    9115.774    120.676   5.800  9.23179E-01  1.01089E+00 -8.77158E-02
    9117.548    122.450   5.840  9.34746E-01  1.01076E+00 -7.60145E-02
    9119.334    124.236   5.880  9.48088E-01  1.01060E+00 -6.25158E-02
    9121.132    126.034   5.920  9.61804E-01  1.01038E+00 -4.85751E-02
    9122.942    127.845   5.960  9.75130E-01  1.01010E+00 -3.49724E-02
    9124.765    129.667   6.000  9.88276E-01  1.00971E+00 -2.14346E-02
