# # comment:                                                     FEFF 9.9.1  
# # Source:
# # Structure
# # Reduced
# # space
# # abc:
# # angles:
# # sites:
# # POT  SCF 100  7.0000   0, screened core-hole, AFOLP (folp(0)= 1.150)
# # Abs   Z=29 Rmt= 1.275 Rnm= 1.348 K  shell
# # Pot 1 Z= 3 Rmt= 1.325 Rnm= 1.413
# # Pot 2 Z=29 Rmt= 1.275 Rnm= 1.348
# # Pot 3 Z=15 Rmt= 0.939 Rnm= 1.154
# # Pot 4 Z= 8 Rmt= 0.886 Rnm= 1.042
# # Gam_ch=1.729E+00 H-L exch Vi= 0.000E+00 Vr= 0.000E+00
# # Mu=-6.272E+00eV kf=2.395E+00 Vint=-1.669E+01eV Rs_int= 1.514
# FMS rfms= 9.0000
# # PATH  Rmax=-1.000,  Keep_limit= 0.00, Heap_limit 0.00  Pwcrit= 2.50%
#  S02=0.950  Temp=   0.00  Debye_temp=   0.00  Global_sig2= 0.00000
#  Energy zero shift, vr, vi    0.00000E+00   0.00000E+00
#  Curved wave amplitude ratio filter   4.000%
#     file         sig2 tot  cw amp ratio   deg  nlegs   reff  inp sig2
#     0/   0 paths used
#  xsedge+ 50, used to normalize mu           2.4730E-04
#  -----------------------------------------------------------------------
#  omega    e    k    mu    mu0     chi     @#
    8983.461    -10.082  -1.000  4.34676E-02  5.52085E-02 -1.17409E-02
    8983.760     -9.783  -0.960  4.60152E-02  5.92854E-02 -1.32702E-02
    8984.046     -9.496  -0.920  4.87958E-02  6.38229E-02 -1.50271E-02
    8984.321     -9.222  -0.880  5.18418E-02  6.88895E-02 -1.70477E-02
    8984.583     -8.960  -0.840  5.51915E-02  7.45651E-02 -1.93737E-02
    8984.833     -8.710  -0.800  5.88898E-02  8.09425E-02 -2.20528E-02
    8985.070     -8.472  -0.760  6.29888E-02  8.81281E-02 -2.51393E-02
    8985.296     -8.247  -0.720  6.75485E-02  9.62424E-02 -2.86939E-02
    8985.509     -8.033  -0.680  7.26356E-02  1.05418E-01 -3.27826E-02
    8985.710     -7.832  -0.640  7.83218E-02  1.15796E-01 -3.74742E-02
    8985.899     -7.643  -0.600  8.46781E-02  1.27514E-01 -4.28356E-02
    8986.076     -7.466  -0.560  9.17660E-02  1.40690E-01 -4.89235E-02
    8986.241     -7.302  -0.520  9.96223E-02  1.55394E-01 -5.57720E-02
    8986.393     -7.149  -0.480  1.08239E-01  1.71614E-01 -6.33753E-02
    8986.533     -7.009  -0.440  1.17537E-01  1.89205E-01 -7.16686E-02
    8986.661     -6.881  -0.400  1.27349E-01  2.07860E-01 -8.05116E-02
    8986.777     -6.765  -0.360  1.37409E-01  2.27093E-01 -8.96838E-02
    8986.881     -6.662  -0.320  1.47375E-01  2.46273E-01 -9.88981E-02
    8986.972     -6.570  -0.280  1.56868E-01  2.64700E-01 -1.07832E-01
    8987.052     -6.491  -0.240  1.65535E-01  2.81703E-01 -1.16169E-01
    8987.119     -6.424  -0.200  1.73094E-01  2.96722E-01 -1.23628E-01
    8987.173     -6.369  -0.160  1.79364E-01  3.09348E-01 -1.29985E-01
    8987.216     -6.327  -0.120  1.84252E-01  3.19323E-01 -1.35071E-01
    8987.247     -6.296  -0.080  1.87734E-01  3.26505E-01 -1.38772E-01
    8987.271     -6.272   0.000  1.90503E-01  3.32273E-01 -1.41770E-01
    8987.326     -6.217   0.120  1.96424E-01  3.45278E-01 -1.48853E-01
    8987.369     -6.174   0.160  2.00918E-01  3.55353E-01 -1.54435E-01
    8987.423     -6.119   0.200  2.06527E-01  3.68237E-01 -1.61709E-01
    8987.490     -6.052   0.240  2.12963E-01  3.83677E-01 -1.70714E-01
    8987.570     -5.973   0.280  2.19928E-01  4.01389E-01 -1.81461E-01
    8987.661     -5.882   0.320  2.27018E-01  4.20878E-01 -1.93860E-01
    8987.765     -5.778   0.360  2.33815E-01  4.41556E-01 -2.07741E-01
    8987.881     -5.662   0.400  2.40023E-01  4.62781E-01 -2.22758E-01
    8988.009     -5.534   0.440  2.45596E-01  4.83984E-01 -2.38388E-01
    8988.149     -5.394   0.480  2.50750E-01  5.04708E-01 -2.53958E-01
    8988.301     -5.241   0.520  2.55933E-01  5.24693E-01 -2.68760E-01
    8988.466     -5.077   0.560  2.61635E-01  5.43773E-01 -2.82138E-01
    8988.643     -4.900   0.600  2.68395E-01  5.61935E-01 -2.93540E-01
    8988.832     -4.711   0.640  2.76695E-01  5.79244E-01 -3.02549E-01
    8989.033     -4.510   0.680  2.86962E-01  5.95783E-01 -3.08821E-01
    8989.246     -4.297   0.720  2.99545E-01  6.11676E-01 -3.12131E-01
    8989.472     -4.071   0.760  3.14822E-01  6.26977E-01 -3.12156E-01
    8989.709     -3.833   0.800  3.33558E-01  6.41840E-01 -3.08282E-01
    8989.959     -3.583   0.840  3.56736E-01  6.56320E-01 -2.99583E-01
    8990.221     -3.321   0.880  3.84915E-01  6.70477E-01 -2.85562E-01
    8990.496     -3.047   0.920  4.16939E-01  6.84380E-01 -2.67440E-01
    8990.782     -2.760   0.960  4.49955E-01  6.98042E-01 -2.48087E-01
    8991.081     -2.462   1.000  4.81759E-01  7.11506E-01 -2.29747E-01
    8991.392     -2.151   1.040  5.12055E-01  7.24787E-01 -2.12732E-01
    8991.715     -1.828   1.080  5.42324E-01  7.37890E-01 -1.95566E-01
    8992.050     -1.492   1.120  5.75307E-01  7.50812E-01 -1.75505E-01
    8992.398     -1.145   1.160  6.12971E-01  7.63546E-01 -1.50576E-01
    8992.757     -0.785   1.200  6.55891E-01  7.76102E-01 -1.20211E-01
    8993.129     -0.413   1.240  7.04682E-01  7.88443E-01 -8.37609E-02
    8993.513     -0.029   1.280  7.58692E-01  8.00572E-01 -4.18801E-02
    8993.910      0.367   1.320  8.14678E-01  8.12448E-01  2.23053E-03
    8994.318      0.775   1.360  8.71649E-01  8.24087E-01  4.75616E-02
    8994.739      1.196   1.400  9.31511E-01  8.35449E-01  9.60619E-02
    8995.171      1.629   1.440  9.97752E-01  8.46527E-01  1.51226E-01
    8995.616      2.074   1.480  1.07700E+00  8.57277E-01  2.19726E-01
    8996.074      2.531   1.520  1.16178E+00  8.67715E-01  2.94066E-01
    8996.543      3.000   1.560  1.22171E+00  8.77815E-01  3.43898E-01
    8997.025      3.482   1.600  1.23503E+00  8.87553E-01  3.47473E-01
    8997.518      3.976   1.640  1.22104E+00  8.96925E-01  3.24115E-01
    8998.024      4.482   1.680  1.21976E+00  9.05928E-01  3.13828E-01
    8998.542      5.000   1.720  1.24018E+00  9.14515E-01  3.25662E-01
    8999.073      5.530   1.760  1.26207E+00  9.22707E-01  3.39362E-01
    8999.615      6.073   1.800  1.26852E+00  9.30503E-01  3.38015E-01
    9000.170      6.627   1.840  1.25623E+00  9.37900E-01  3.18333E-01
    9000.737      7.194   1.880  1.23153E+00  9.44860E-01  2.86669E-01
    9001.316      7.773   1.920  1.20352E+00  9.51444E-01  2.52074E-01
    9001.907      8.365   1.960  1.17506E+00  9.57592E-01  2.17468E-01
    9002.511      8.968   2.000  1.14459E+00  9.63347E-01  1.81243E-01
    9003.127      9.584   2.040  1.11011E+00  9.68694E-01  1.41414E-01
    9003.755     10.212   2.080  1.07174E+00  9.73654E-01  9.80894E-02
    9004.395     10.852   2.120  1.03623E+00  9.78213E-01  5.80161E-02
    9005.047     11.504   2.160  1.01452E+00  9.82417E-01  3.21032E-02
    9005.711     12.169   2.200  1.01049E+00  9.86252E-01  2.42423E-02
    9006.388     12.845   2.240  1.01962E+00  9.89723E-01  2.98988E-02
    9007.077     13.534   2.280  1.03601E+00  9.92857E-01  4.31569E-02
    9007.778     14.235   2.320  1.05188E+00  9.95660E-01  5.62183E-02
    9008.491     14.948   2.360  1.05733E+00  9.98161E-01  5.91654E-02
    9009.217     15.674   2.400  1.05079E+00  1.00035E+00  5.04413E-02
    9009.954     16.411   2.440  1.03908E+00  1.00224E+00  3.68383E-02
    9010.704     17.161   2.480  1.02709E+00  1.00388E+00  2.32124E-02
    9011.466     17.923   2.520  1.01577E+00  1.00524E+00  1.05262E-02
    9012.240     18.697   2.560  1.00517E+00  1.00638E+00 -1.21094E-03
    9013.027     19.484   2.600  9.94966E-01  1.00728E+00 -1.23174E-02
    9013.825     20.282   2.640  9.84070E-01  1.00798E+00 -2.39080E-02
    9014.636     21.093   2.680  9.73208E-01  1.00849E+00 -3.52839E-02
    9015.459     21.916   2.720  9.65231E-01  1.00881E+00 -4.35824E-02
    9016.294     22.751   2.760  9.60834E-01  1.00897E+00 -4.81335E-02
    9017.141     23.599   2.800  9.57695E-01  1.00898E+00 -5.12901E-02
    9018.001     24.458   2.840  9.52419E-01  1.00885E+00 -5.64295E-02
    9018.873     25.330   2.880  9.46737E-01  1.00859E+00 -6.18487E-02
    9019.756     26.214   2.920  9.42220E-01  1.00820E+00 -6.59845E-02
    9020.653     27.110   2.960  9.39113E-01  1.00773E+00 -6.86192E-02
    9021.561     28.018   3.000  9.37035E-01  1.00718E+00 -7.01405E-02
    9022.481     28.939   3.040  9.35477E-01  1.00654E+00 -7.10606E-02
    9023.414     29.871   3.080  9.34017E-01  1.00585E+00 -7.18291E-02
    9024.359     30.816   3.120  9.32627E-01  1.00509E+00 -7.24584E-02
    9025.316     31.773   3.160  9.31607E-01  1.00428E+00 -7.26732E-02
    9026.285     32.743   3.200  9.31177E-01  1.00346E+00 -7.22804E-02
    9027.267     33.724   3.240  9.31476E-01  1.00260E+00 -7.11223E-02
    9028.260     34.718   3.280  9.32861E-01  1.00171E+00 -6.88469E-02
    9029.266     35.724   3.320  9.35521E-01  1.00081E+00 -6.52888E-02
    9030.284     36.742   3.360  9.39615E-01  9.99910E-01 -6.02951E-02
    9031.314     37.772   3.400  9.45086E-01  9.99031E-01 -5.39455E-02
    9032.357     38.814   3.440  9.51459E-01  9.98136E-01 -4.66773E-02
    9033.411     39.869   3.480  9.58230E-01  9.97268E-01 -3.90375E-02
    9034.478     40.936   3.520  9.65055E-01  9.96429E-01 -3.13738E-02
    9035.557     42.015   3.560  9.71784E-01  9.95600E-01 -2.38161E-02
    9036.648     43.106   3.600  9.78395E-01  9.94804E-01 -1.64094E-02
    9037.752     44.209   3.640  9.84936E-01  9.94023E-01 -9.08761E-03
    9038.867     45.325   3.680  9.91470E-01  9.93302E-01 -1.83275E-03
    9039.995     46.452   3.720  9.97928E-01  9.92621E-01  5.30680E-03
    9041.135     47.592   3.760  1.00422E+00  9.91980E-01  1.22441E-02
    9042.287     48.745   3.800  1.01019E+00  9.91380E-01  1.88107E-02
    9043.452     49.909   3.840  1.01551E+00  9.90821E-01  2.46841E-02
    9044.628     51.085   3.880  1.01979E+00  9.90305E-01  2.94837E-02
    9045.817     52.274   3.920  1.02273E+00  9.89854E-01  3.28779E-02
    9047.018     53.475   3.960  1.02407E+00  9.89427E-01  3.46414E-02
    9048.231     54.688   4.000  1.02376E+00  9.89085E-01  3.46750E-02
    9049.456     55.913   4.040  1.02191E+00  9.88768E-01  3.31424E-02
    9050.694     57.151   4.080  1.01899E+00  9.88514E-01  3.04804E-02
    9051.943     58.401   4.120  1.01569E+00  9.88282E-01  2.74034E-02
    9053.205     59.662   4.160  1.01284E+00  9.88116E-01  2.47254E-02
    9054.479     60.936   4.200  1.01109E+00  9.88017E-01  2.30757E-02
    9055.765     62.223   4.240  1.01065E+00  9.87939E-01  2.27067E-02
    9057.064     63.521   4.280  1.01142E+00  9.87925E-01  2.34930E-02
    9058.374     64.832   4.320  1.01305E+00  9.87954E-01  2.51008E-02
    9059.697     66.155   4.360  1.01508E+00  9.88022E-01  2.70560E-02
    9061.032     67.490   4.400  1.01700E+00  9.88130E-01  2.88678E-02
    9062.380     68.837   4.440  1.01840E+00  9.88276E-01  3.01209E-02
    9063.739     70.196   4.480  1.01893E+00  9.88437E-01  3.04976E-02
    9065.111     71.568   4.520  1.01845E+00  9.88657E-01  2.97957E-02
    9066.494     72.952   4.560  1.01689E+00  9.88892E-01  2.79973E-02
    9067.890     74.348   4.600  1.01446E+00  9.89182E-01  2.52755E-02
    9069.298     75.756   4.640  1.01139E+00  9.89464E-01  2.19225E-02
    9070.719     77.176   4.680  1.00806E+00  9.89799E-01  1.82622E-02
    9072.151     78.609   4.720  1.00469E+00  9.90142E-01  1.45436E-02
    9073.596     80.053   4.760  1.00140E+00  9.90493E-01  1.09079E-02
    9075.053     81.510   4.800  9.98311E-01  9.90871E-01  7.43941E-03
    9076.522     82.980   4.840  9.95453E-01  9.91254E-01  4.19859E-03
    9078.004     84.461   4.880  9.92915E-01  9.91641E-01  1.27461E-03
    9079.497     85.954   4.920  9.90859E-01  9.92052E-01 -1.19237E-03
    9081.003     87.460   4.960  9.89390E-01  9.92442E-01 -3.05192E-03
    9082.521     88.978   5.000  9.88601E-01  9.92850E-01 -4.24947E-03
    9084.051     90.508   5.040  9.88309E-01  9.93236E-01 -4.92688E-03
    9085.593     92.050   5.080  9.88195E-01  9.93617E-01 -5.42225E-03
    9087.147     93.605   5.120  9.87857E-01  9.93994E-01 -6.13681E-03
    9088.714     95.171   5.160  9.86971E-01  9.94365E-01 -7.39389E-03
    9090.293     96.750   5.200  9.85379E-01  9.94708E-01 -9.32899E-03
    9091.884     98.341   5.240  9.83177E-01  9.95043E-01 -1.18665E-02
    9093.487     99.945   5.280  9.80610E-01  9.95369E-01 -1.47585E-02
    9095.103    101.560   5.320  9.77975E-01  9.95662E-01 -1.76873E-02
    9096.730    103.188   5.360  9.75551E-01  9.95922E-01 -2.03713E-02
    9098.370    104.827   5.400  9.73569E-01  9.96169E-01 -2.26000E-02
    9100.022    106.479   5.440  9.72123E-01  9.96380E-01 -2.42567E-02
    9101.686    108.144   5.480  9.71222E-01  9.96556E-01 -2.53334E-02
    9103.363    109.820   5.520  9.70839E-01  9.96717E-01 -2.58779E-02
    9105.051    111.509   5.560  9.70910E-01  9.96817E-01 -2.59077E-02
    9106.752    113.209   5.600  9.71552E-01  9.96902E-01 -2.53504E-02
    9108.465    114.922   5.640  9.72817E-01  9.96950E-01 -2.41331E-02
    9110.190    116.648   5.680  9.74649E-01  9.96960E-01 -2.23109E-02
    9111.928    118.385   5.720  9.76840E-01  9.96932E-01 -2.00918E-02
    9113.677    120.134   5.760  9.79154E-01  9.96888E-01 -1.77343E-02
    9115.439    121.896   5.800  9.81355E-01  9.96782E-01 -1.54273E-02
    9117.213    123.670   5.840  9.83363E-01  9.96639E-01 -1.32759E-02
    9118.999    125.456   5.880  9.85129E-01  9.96481E-01 -1.13524E-02
    9120.797    127.255   5.920  9.86538E-01  9.96263E-01 -9.72481E-03
    9122.608    129.065   5.960  9.87634E-01  9.96030E-01 -8.39622E-03
    9124.430    130.888   6.000  9.88531E-01  9.95740E-01 -7.20905E-03
