# # comment:                                                     FEFF 9.9.1  
# # Source:
# # Structure
# # Reduced
# # space
# # abc:
# # angles:
# # sites:
# # POT  SCF 100  7.0000   0, screened core-hole, AFOLP (folp(0)= 1.150)
# # Abs   Z=29 Rmt= 1.404 Rnm= 1.456 K  shell
# # Pot 1 Z=29 Rmt= 1.493 Rnm= 1.564
# # Pot 2 Z=28 Rmt= 1.118 Rnm= 1.267
# # Pot 3 Z= 6 Rmt= 0.649 Rnm= 0.913
# # Pot 4 Z= 8 Rmt= 0.766 Rnm= 0.989
# # Gam_ch=1.729E+00 H-L exch Vi= 0.000E+00 Vr= 0.000E+00
# # Mu=-8.191E+00eV kf=2.785E+00 Vint=-1.976E+01eV Rs_int= 1.302
# FMS rfms= 9.0000
# # PATH  Rmax=-1.000,  Keep_limit= 0.00, Heap_limit 0.00  Pwcrit= 2.50%
#  S02=0.950  Temp=   0.00  Debye_temp=   0.00  Global_sig2= 0.00000
#  Energy zero shift, vr, vi    0.00000E+00   0.00000E+00
#  Curved wave amplitude ratio filter   4.000%
#     file         sig2 tot  cw amp ratio   deg  nlegs   reff  inp sig2
#     0/   0 paths used
#  xsedge+ 50, used to normalize mu           2.4395E-04
#  -----------------------------------------------------------------------
#  omega    e    k    mu    mu0     chi     @#
    8983.181    -12.001  -1.000  4.31784E-02  4.73256E-02 -4.14720E-03
    8983.479    -11.703  -0.960  4.55874E-02  5.04995E-02 -4.91213E-03
    8983.766    -11.416  -0.920  4.81863E-02  5.40082E-02 -5.82193E-03
    8984.040    -11.142  -0.880  5.09951E-02  5.79000E-02 -6.90492E-03
    8984.302    -10.880  -0.840  5.40363E-02  6.22312E-02 -8.19491E-03
    8984.552    -10.630  -0.800  5.73346E-02  6.70667E-02 -9.73209E-03
    8984.790    -10.392  -0.760  6.09176E-02  7.24813E-02 -1.15637E-02
    8985.016    -10.166  -0.720  6.48148E-02  7.85592E-02 -1.37444E-02
    8985.229     -9.953  -0.680  6.90573E-02  8.53932E-02 -1.63359E-02
    8985.430     -9.752  -0.640  7.36759E-02  9.30811E-02 -1.94052E-02
    8985.619     -9.563  -0.600  7.86985E-02  1.01719E-01 -2.30202E-02
    8985.796     -9.386  -0.560  8.41454E-02  1.11388E-01 -2.72421E-02
    8985.961     -9.221  -0.520  9.00225E-02  1.22135E-01 -3.21128E-02
    8986.113     -9.069  -0.480  9.63121E-02  1.33950E-01 -3.76374E-02
    8986.253     -8.929  -0.440  1.02963E-01  1.46727E-01 -4.37641E-02
    8986.381     -8.801  -0.400  1.09879E-01  1.60246E-01 -5.03670E-02
    8986.497     -8.685  -0.360  1.16921E-01  1.74163E-01 -5.72420E-02
    8986.601     -8.581  -0.320  1.23905E-01  1.88028E-01 -6.41225E-02
    8986.692     -8.490  -0.280  1.30627E-01  2.01344E-01 -7.07165E-02
    8986.771     -8.411  -0.240  1.36878E-01  2.13632E-01 -7.67534E-02
    8986.838     -8.344  -0.200  1.42469E-01  2.24490E-01 -8.20214E-02
    8986.893     -8.289  -0.160  1.47241E-01  2.33625E-01 -8.63839E-02
    8986.936     -8.246  -0.120  1.51073E-01  2.40847E-01 -8.97735E-02
    8986.966     -8.216  -0.080  1.53878E-01  2.46050E-01 -9.21718E-02
    8986.991     -8.191   0.000  1.56183E-01  2.50231E-01 -9.40488E-02
    8987.046     -8.136   0.120  1.61372E-01  2.59685E-01 -9.83124E-02
    8987.088     -8.094   0.160  1.65425E-01  2.67009E-01 -1.01584E-01
    8987.143     -8.039   0.200  1.70722E-01  2.76374E-01 -1.05653E-01
    8987.210     -7.972   0.240  1.77308E-01  2.87654E-01 -1.10346E-01
    8987.289     -7.893   0.280  1.85227E-01  3.00629E-01 -1.15402E-01
    8987.381     -7.801   0.320  1.94522E-01  3.14978E-01 -1.20455E-01
    8987.485     -7.697   0.360  2.05238E-01  3.30299E-01 -1.25061E-01
    8987.600     -7.582   0.400  2.17437E-01  3.46167E-01 -1.28730E-01
    8987.728     -7.454   0.440  2.31227E-01  3.62198E-01 -1.30971E-01
    8987.869     -7.313   0.480  2.46758E-01  3.78096E-01 -1.31338E-01
    8988.021     -7.161   0.520  2.64222E-01  3.93695E-01 -1.29473E-01
    8988.186     -6.996   0.560  2.83759E-01  4.08895E-01 -1.25136E-01
    8988.362     -6.820   0.600  3.05376E-01  4.23697E-01 -1.18321E-01
    8988.551     -6.631   0.640  3.28865E-01  4.38176E-01 -1.09312E-01
    8988.752     -6.429   0.680  3.53768E-01  4.52416E-01 -9.86482E-02
    8988.966     -6.216   0.720  3.79505E-01  4.66510E-01 -8.70042E-02
    8989.191     -5.991   0.760  4.05498E-01  4.80528E-01 -7.50296E-02
    8989.429     -5.753   0.800  4.31141E-01  4.94578E-01 -6.34370E-02
    8989.679     -5.503   0.840  4.55400E-01  5.08740E-01 -5.33404E-02
    8989.941     -5.241   0.880  4.76835E-01  5.23059E-01 -4.62237E-02
    8990.216     -4.966   0.920  4.94613E-01  5.37611E-01 -4.29976E-02
    8990.502     -4.680   0.960  5.09662E-01  5.52443E-01 -4.27809E-02
    8990.801     -4.381   1.000  5.24989E-01  5.67574E-01 -4.25857E-02
    8991.112     -4.070   1.040  5.44390E-01  5.83057E-01 -3.86669E-02
    8991.435     -3.747   1.080  5.69993E-01  5.98874E-01 -2.88813E-02
    8991.770     -3.412   1.120  6.01150E-01  6.15065E-01 -1.39144E-02
    8992.117     -3.065   1.160  6.35435E-01  6.31642E-01  3.79257E-03
    8992.477     -2.705   1.200  6.70256E-01  6.48573E-01  2.16831E-02
    8992.849     -2.333   1.240  7.03664E-01  6.65861E-01  3.78024E-02
    8993.233     -1.949   1.280  7.35932E-01  6.83506E-01  5.24261E-02
    8993.629     -1.553   1.320  7.69105E-01  7.01481E-01  6.76239E-02
    8994.038     -1.144   1.360  8.03471E-01  7.19738E-01  8.37325E-02
    8994.458     -0.724   1.400  8.38458E-01  7.38265E-01  1.00193E-01
    8994.891     -0.291   1.440  8.76445E-01  7.57024E-01  1.19421E-01
    8995.336      0.154   1.480  9.21959E-01  7.75977E-01  1.45982E-01
    8995.793      0.611   1.520  9.76570E-01  7.95061E-01  1.81509E-01
    8996.263      1.081   1.560  1.03693E+00  8.14207E-01  2.22723E-01
    8996.744      1.562   1.600  1.09884E+00  8.33388E-01  2.65452E-01
    8997.238      2.056   1.640  1.16076E+00  8.52512E-01  3.08245E-01
    8997.744      2.562   1.680  1.22036E+00  8.71524E-01  3.48834E-01
    8998.262      3.080   1.720  1.26876E+00  8.90348E-01  3.78409E-01
    8998.793      3.611   1.760  1.29515E+00  9.08905E-01  3.86244E-01
    8999.335      4.153   1.800  1.29737E+00  9.27117E-01  3.70252E-01
    8999.890      4.708   1.840  1.28242E+00  9.44880E-01  3.37542E-01
    9000.457      5.275   1.880  1.26172E+00  9.62157E-01  2.99560E-01
    9001.036      5.854   1.920  1.24127E+00  9.78847E-01  2.62425E-01
    9001.627      6.445   1.960  1.21660E+00  9.94848E-01  2.21755E-01
    9002.231      7.049   2.000  1.18601E+00  1.01013E+00  1.75886E-01
    9002.846      7.664   2.040  1.15749E+00  1.02460E+00  1.32888E-01
    9003.474      8.292   2.080  1.13973E+00  1.03819E+00  1.01545E-01
    9004.114      8.932   2.120  1.13419E+00  1.05085E+00  8.33346E-02
    9004.767      9.585   2.160  1.13455E+00  1.06253E+00  7.20215E-02
    9005.431     10.249   2.200  1.13305E+00  1.07317E+00  5.98756E-02
    9006.108     10.926   2.240  1.12267E+00  1.08277E+00  3.98995E-02
    9006.797     11.615   2.280  1.10132E+00  1.09127E+00  1.00485E-02
    9007.498     12.316   2.320  1.07376E+00  1.09869E+00 -2.49313E-02
    9008.211     13.029   2.360  1.04560E+00  1.10500E+00 -5.93979E-02
    9008.936     13.754   2.400  1.02090E+00  1.11023E+00 -8.93298E-02
    9009.674     14.492   2.440  1.00094E+00  1.11439E+00 -1.13446E-01
    9010.424     15.242   2.480  9.84751E-01  1.11748E+00 -1.32729E-01
    9011.186     16.004   2.520  9.73609E-01  1.11955E+00 -1.45940E-01
    9011.960     16.778   2.560  9.71120E-01  1.12065E+00 -1.49534E-01
    9012.746     17.564   2.600  9.79374E-01  1.12082E+00 -1.41446E-01
    9013.545     18.363   2.640  9.96062E-01  1.12012E+00 -1.24054E-01
    9014.356     19.174   2.680  1.01380E+00  1.11859E+00 -1.04794E-01
    9015.179     19.997   2.720  1.02225E+00  1.11631E+00 -9.40584E-02
    9016.014     20.832   2.760  1.01422E+00  1.11334E+00 -9.91155E-02
    9016.861     21.679   2.800  9.93048E-01  1.10974E+00 -1.16695E-01
    9017.721     22.539   2.840  9.69111E-01  1.10558E+00 -1.36466E-01
    9018.592     23.410   2.880  9.52126E-01  1.10091E+00 -1.48788E-01
    9019.476     24.294   2.920  9.47356E-01  1.09583E+00 -1.48472E-01
    9020.372     25.190   2.960  9.53458E-01  1.09038E+00 -1.36919E-01
    9021.281     26.099   3.000  9.63219E-01  1.08464E+00 -1.21421E-01
    9022.201     27.019   3.040  9.71212E-01  1.07865E+00 -1.07435E-01
    9023.134     27.952   3.080  9.79426E-01  1.07248E+00 -9.30540E-02
    9024.079     28.897   3.120  9.93001E-01  1.06619E+00 -7.31863E-02
    9025.036     29.854   3.160  1.01211E+00  1.05979E+00 -4.76760E-02
    9026.005     30.823   3.200  1.02930E+00  1.05340E+00 -2.40905E-02
    9026.986     31.804   3.240  1.04355E+00  1.04700E+00 -3.44328E-03
    9027.980     32.798   3.280  1.05474E+00  1.04065E+00  1.40811E-02
    9028.986     33.804   3.320  1.06280E+00  1.03440E+00  2.84075E-02
    9030.004     34.822   3.360  1.06795E+00  1.02830E+00  3.96511E-02
    9031.034     35.852   3.400  1.07059E+00  1.02233E+00  4.82602E-02
    9032.077     36.895   3.440  1.07138E+00  1.01655E+00  5.48296E-02
    9033.131     37.949   3.480  1.07101E+00  1.01098E+00  6.00259E-02
    9034.198     39.016   3.520  1.06992E+00  1.00566E+00  6.42656E-02
    9035.277     40.095   3.560  1.06818E+00  1.00058E+00  6.75966E-02
    9036.368     41.186   3.600  1.06575E+00  9.95753E-01  6.99938E-02
    9037.472     42.290   3.640  1.06271E+00  9.91232E-01  7.14822E-02
    9038.587     43.405   3.680  1.05909E+00  9.86978E-01  7.21115E-02
    9039.715     44.533   3.720  1.05498E+00  9.83043E-01  7.19361E-02
    9040.855     45.673   3.760  1.05039E+00  9.79427E-01  7.09676E-02
    9042.007     46.825   3.800  1.04514E+00  9.76132E-01  6.90086E-02
    9043.171     47.989   3.840  1.03893E+00  9.73152E-01  6.57738E-02
    9044.348     49.166   3.880  1.03164E+00  9.70517E-01  6.11280E-02
    9045.536     50.355   3.920  1.02335E+00  9.68179E-01  5.51740E-02
    9046.737     51.555   3.960  1.01447E+00  9.66192E-01  4.82759E-02
    9047.950     52.769   4.000  1.00545E+00  9.64512E-01  4.09335E-02
    9049.176     53.994   4.040  9.96728E-01  9.63159E-01  3.35695E-02
    9050.413     55.231   4.080  9.88554E-01  9.62149E-01  2.64048E-02
    9051.663     56.481   4.120  9.80965E-01  9.61419E-01  1.95463E-02
    9052.925     57.743   4.160  9.74078E-01  9.61027E-01  1.30519E-02
    9054.199     59.017   4.200  9.67870E-01  9.60907E-01  6.96355E-03
    9055.485     60.303   4.240  9.62430E-01  9.61097E-01  1.33321E-03
    9056.784     61.602   4.280  9.57769E-01  9.61573E-01 -3.80494E-03
    9058.094     62.912   4.320  9.53813E-01  9.62309E-01 -8.49578E-03
    9059.417     64.235   4.360  9.50475E-01  9.63319E-01 -1.28441E-02
    9060.752     65.570   4.400  9.47601E-01  9.64578E-01 -1.69768E-02
    9062.099     66.917   4.440  9.45040E-01  9.66077E-01 -2.10373E-02
    9063.459     68.277   4.480  9.42686E-01  9.67789E-01 -2.51035E-02
    9064.830     69.648   4.520  9.40546E-01  9.69707E-01 -2.91608E-02
    9066.214     71.032   4.560  9.38682E-01  9.71821E-01 -3.31389E-02
    9067.610     72.428   4.600  9.37200E-01  9.74102E-01 -3.69021E-02
    9069.018     73.836   4.640  9.36299E-01  9.76521E-01 -4.02226E-02
    9070.439     75.257   4.680  9.36298E-01  9.79092E-01 -4.27932E-02
    9071.871     76.689   4.720  9.37507E-01  9.81786E-01 -4.42787E-02
    9073.316     78.134   4.760  9.40190E-01  9.84592E-01 -4.44026E-02
    9074.773     79.591   4.800  9.44372E-01  9.87457E-01 -4.30850E-02
    9076.242     81.060   4.840  9.49919E-01  9.90394E-01 -4.04751E-02
    9077.723     82.541   4.880  9.56509E-01  9.93370E-01 -3.68610E-02
    9079.217     84.035   4.920  9.63770E-01  9.96353E-01 -3.25829E-02
    9080.722     85.540   4.960  9.71452E-01  9.99334E-01 -2.78825E-02
    9082.240     87.058   5.000  9.79420E-01  1.00228E+00 -2.28627E-02
    9083.770     88.588   5.040  9.87664E-01  1.00521E+00 -1.75470E-02
    9085.313     90.131   5.080  9.96107E-01  1.00807E+00 -1.19578E-02
    9086.867     91.685   5.120  1.00460E+00  1.01081E+00 -6.21446E-03
    9088.434     93.252   5.160  1.01295E+00  1.01347E+00 -5.16565E-04
    9090.013     94.831   5.200  1.02095E+00  1.01602E+00  4.92246E-03
    9091.604     96.422   5.240  1.02835E+00  1.01841E+00  9.94373E-03
    9093.207     98.025   5.280  1.03512E+00  1.02067E+00  1.44444E-02
    9094.822     99.640   5.320  1.04108E+00  1.02273E+00  1.83512E-02
    9096.450    101.268   5.360  1.04618E+00  1.02463E+00  2.15475E-02
    9098.090    102.908   5.400  1.05019E+00  1.02634E+00  2.38485E-02
    9099.742    104.560   5.440  1.05287E+00  1.02782E+00  2.50477E-02
    9101.406    106.224   5.480  1.05416E+00  1.02911E+00  2.50456E-02
    9103.082    107.901   5.520  1.05411E+00  1.03017E+00  2.39414E-02
    9104.771    109.589   5.560  1.05310E+00  1.03102E+00  2.20773E-02
    9106.472    111.290   5.600  1.05160E+00  1.03163E+00  1.99657E-02
    9108.185    113.003   5.640  1.05017E+00  1.03203E+00  1.81455E-02
    9109.910    114.728   5.680  1.04916E+00  1.03219E+00  1.69702E-02
    9111.647    116.465   5.720  1.04862E+00  1.03214E+00  1.64812E-02
    9113.397    118.215   5.760  1.04826E+00  1.03186E+00  1.64020E-02
    9115.159    119.977   5.800  1.04765E+00  1.03137E+00  1.62744E-02
    9116.933    121.751   5.840  1.04636E+00  1.03071E+00  1.56447E-02
    9118.719    123.537   5.880  1.04408E+00  1.02984E+00  1.42442E-02
    9120.517    125.335   5.920  1.04087E+00  1.02879E+00  1.20783E-02
    9122.327    127.146   5.960  1.03698E+00  1.02758E+00  9.40263E-03
    9124.150    128.968   6.000  1.03264E+00  1.02608E+00  6.55757E-03
