# # comment:                                                     FEFF 9.9.1  
# # Source:
# # Structure
# # Reduced
# # space
# # abc:
# # angles:
# # sites:
# # POT  SCF 100  7.0000   0, screened core-hole, AFOLP (folp(0)= 1.150)
# # Abs   Z=29 Rmt= 1.315 Rnm= 1.370 K  shell
# # Pot 1 Z=73 Rmt= 1.320 Rnm= 1.463
# # Pot 2 Z=29 Rmt= 1.315 Rnm= 1.371
# # Pot 3 Z= 8 Rmt= 0.994 Rnm= 1.083
# # Gam_ch=1.729E+00 H-L exch Vi= 0.000E+00 Vr= 0.000E+00
# # Mu=-5.705E+00eV kf=2.245E+00 Vint=-1.640E+01eV Rs_int= 1.615
# FMS rfms= 9.0000
# # PATH  Rmax=-1.000,  Keep_limit= 0.00, Heap_limit 0.00  Pwcrit= 2.50%
#  S02=0.950  Temp=   0.00  Debye_temp=   0.00  Global_sig2= 0.00000
#  Energy zero shift, vr, vi    0.00000E+00   0.00000E+00
#  Curved wave amplitude ratio filter   4.000%
#     file         sig2 tot  cw amp ratio   deg  nlegs   reff  inp sig2
#     0/   0 paths used
#  xsedge+ 50, used to normalize mu           2.4611E-04
#  -----------------------------------------------------------------------
#  omega    e    k    mu    mu0     chi     @#
    8983.510     -9.515  -1.000  4.58824E-02  5.73470E-02 -1.14646E-02
    8983.809     -9.217  -0.960  4.84302E-02  6.16320E-02 -1.32018E-02
    8984.095     -8.930  -0.920  5.11751E-02  6.64048E-02 -1.52297E-02
    8984.370     -8.656  -0.880  5.41385E-02  7.17384E-02 -1.75999E-02
    8984.632     -8.394  -0.840  5.73453E-02  7.77177E-02 -2.03724E-02
    8984.882     -8.144  -0.800  6.08234E-02  8.44413E-02 -2.36179E-02
    8985.119     -7.906  -0.760  6.46047E-02  9.20227E-02 -2.74180E-02
    8985.345     -7.681  -0.720  6.87246E-02  1.00590E-01 -3.18655E-02
    8985.558     -7.467  -0.680  7.32211E-02  1.10285E-01 -3.70638E-02
    8985.759     -7.266  -0.640  7.81338E-02  1.21257E-01 -4.31229E-02
    8985.948     -7.077  -0.600  8.34997E-02  1.33653E-01 -5.01529E-02
    8986.125     -6.900  -0.560  8.93478E-02  1.47599E-01 -5.82510E-02
    8986.290     -6.736  -0.520  9.56897E-02  1.63171E-01 -6.74815E-02
    8986.442     -6.583  -0.480  1.02507E-01  1.80355E-01 -7.78481E-02
    8986.582     -6.443  -0.440  1.09736E-01  1.98998E-01 -8.92622E-02
    8986.710     -6.315  -0.400  1.17259E-01  2.18774E-01 -1.01515E-01
    8986.826     -6.199  -0.360  1.24897E-01  2.39165E-01 -1.14268E-01
    8986.930     -6.096  -0.320  1.32427E-01  2.59503E-01 -1.27076E-01
    8987.021     -6.004  -0.280  1.39602E-01  2.79042E-01 -1.39440E-01
    8987.101     -5.925  -0.240  1.46192E-01  2.97070E-01 -1.50878E-01
    8987.168     -5.858  -0.200  1.52003E-01  3.12991E-01 -1.60989E-01
    8987.222     -5.803  -0.160  1.56893E-01  3.26374E-01 -1.69481E-01
    8987.265     -5.760  -0.120  1.60769E-01  3.36945E-01 -1.76176E-01
    8987.296     -5.730  -0.080  1.63576E-01  3.44555E-01 -1.80979E-01
    8987.320     -5.705   0.000  1.65849E-01  3.50665E-01 -1.84816E-01
    8987.375     -5.651   0.120  1.70874E-01  3.64439E-01 -1.93565E-01
    8987.418     -5.608   0.160  1.74792E-01  3.75130E-01 -2.00338E-01
    8987.472     -5.553   0.200  1.79824E-01  3.88746E-01 -2.08922E-01
    8987.539     -5.486   0.240  1.85968E-01  4.05108E-01 -2.19140E-01
    8987.619     -5.407   0.280  1.93194E-01  4.23842E-01 -2.30648E-01
    8987.710     -5.315   0.320  2.01417E-01  4.44418E-01 -2.43001E-01
    8987.814     -5.212   0.360  2.10672E-01  4.66249E-01 -2.55577E-01
    8987.930     -5.096   0.400  2.20891E-01  4.88606E-01 -2.67715E-01
    8988.058     -4.968   0.440  2.32076E-01  5.10901E-01 -2.78825E-01
    8988.198     -4.828   0.480  2.44245E-01  5.32666E-01 -2.88421E-01
    8988.350     -4.675   0.520  2.57220E-01  5.53561E-01 -2.96342E-01
    8988.515     -4.511   0.560  2.70771E-01  5.73469E-01 -3.02698E-01
    8988.692     -4.334   0.600  2.84540E-01  5.92359E-01 -3.07819E-01
    8988.881     -4.145   0.640  2.98437E-01  6.10275E-01 -3.11838E-01
    8989.082     -3.944   0.680  3.13105E-01  6.27312E-01 -3.14206E-01
    8989.295     -3.730   0.720  3.30012E-01  6.43596E-01 -3.13585E-01
    8989.521     -3.505   0.760  3.50694E-01  6.59215E-01 -3.08521E-01
    8989.758     -3.267   0.800  3.76087E-01  6.74328E-01 -2.98240E-01
    8990.008     -3.017   0.840  4.06546E-01  6.88955E-01 -2.82408E-01
    8990.270     -2.755   0.880  4.42891E-01  7.03203E-01 -2.60312E-01
    8990.545     -2.481   0.920  4.84875E-01  7.17125E-01 -2.32251E-01
    8990.831     -2.194   0.960  5.28221E-01  7.30762E-01 -2.02541E-01
    8991.130     -1.896   1.000  5.65745E-01  7.44117E-01 -1.78372E-01
    8991.441     -1.585   1.040  5.94487E-01  7.57248E-01 -1.62760E-01
    8991.764     -1.262   1.080  6.20566E-01  7.70142E-01 -1.49575E-01
    8992.099     -0.926   1.120  6.55368E-01  7.82799E-01 -1.27431E-01
    8992.447     -0.579   1.160  7.08078E-01  7.95215E-01 -8.71377E-02
    8992.806     -0.219   1.200  7.81354E-01  8.07401E-01 -2.60470E-02
    8993.178      0.153   1.240  8.69704E-01  8.19320E-01  5.03836E-02
    8993.562      0.537   1.280  9.63308E-01  8.30977E-01  1.32330E-01
    8993.959      0.933   1.320  1.05471E+00  8.42353E-01  2.12357E-01
    8994.367      1.341   1.360  1.13785E+00  8.53426E-01  2.84426E-01
    8994.788      1.762   1.400  1.20692E+00  8.64174E-01  3.42749E-01
    8995.220      2.195   1.440  1.26060E+00  8.74596E-01  3.86003E-01
    8995.665      2.640   1.480  1.29507E+00  8.84689E-01  4.10376E-01
    8996.123      3.097   1.520  1.31335E+00  8.94408E-01  4.18944E-01
    8996.592      3.566   1.560  1.31788E+00  9.03749E-01  4.14135E-01
    8997.074      4.048   1.600  1.30898E+00  9.12711E-01  3.96273E-01
    8997.567      4.542   1.640  1.31119E+00  9.21292E-01  3.89899E-01
    8998.073      5.048   1.680  1.33517E+00  9.29448E-01  4.05726E-01
    8998.591      5.566   1.720  1.36550E+00  9.37198E-01  4.28303E-01
    8999.122      6.096   1.760  1.39986E+00  9.44543E-01  4.55318E-01
    8999.664      6.639   1.800  1.44208E+00  9.51461E-01  4.90615E-01
    9000.219      7.194   1.840  1.47887E+00  9.57955E-01  5.20912E-01
    9000.786      7.761   1.880  1.49577E+00  9.64046E-01  5.31724E-01
    9001.365      8.340   1.920  1.49789E+00  9.69717E-01  5.28171E-01
    9001.956      8.931   1.960  1.49218E+00  9.74971E-01  5.17210E-01
    9002.560      9.534   2.000  1.46328E+00  9.79831E-01  4.83447E-01
    9003.176     10.150   2.040  1.38287E+00  9.84284E-01  3.98587E-01
    9003.804     10.778   2.080  1.25414E+00  9.88377E-01  2.65761E-01
    9004.444     11.418   2.120  1.11206E+00  9.92073E-01  1.19987E-01
    9005.096     12.070   2.160  9.85536E-01  9.95440E-01 -9.90391E-03
    9005.760     12.735   2.200  8.87011E-01  9.98426E-01 -1.11415E-01
    9006.437     13.411   2.240  8.21029E-01  1.00110E+00 -1.80067E-01
    9007.126     14.100   2.280  7.92516E-01  1.00344E+00 -2.10923E-01
    9007.827     14.801   2.320  8.00485E-01  1.00548E+00 -2.04998E-01
    9008.540     15.515   2.360  8.31731E-01  1.00724E+00 -1.75506E-01
    9009.266     16.240   2.400  8.71825E-01  1.00871E+00 -1.36882E-01
    9010.003     16.978   2.440  9.05103E-01  1.00992E+00 -1.04820E-01
    9010.753     17.727   2.480  9.11146E-01  1.01091E+00 -9.97681E-02
    9011.515     18.489   2.520  8.88368E-01  1.01167E+00 -1.23299E-01
    9012.289     19.264   2.560  8.63122E-01  1.01221E+00 -1.49089E-01
    9013.075     20.050   2.600  8.56925E-01  1.01255E+00 -1.55629E-01
    9013.874     20.849   2.640  8.67567E-01  1.01272E+00 -1.45156E-01
    9014.685     21.659   2.680  8.78541E-01  1.01273E+00 -1.34187E-01
    9015.508     22.482   2.720  8.76503E-01  1.01260E+00 -1.36096E-01
    9016.343     23.317   2.760  8.66122E-01  1.01234E+00 -1.46218E-01
    9017.190     24.165   2.800  8.55216E-01  1.01196E+00 -1.56742E-01
    9018.050     25.024   2.840  8.48268E-01  1.01146E+00 -1.63192E-01
    9018.922     25.896   2.880  8.45458E-01  1.01087E+00 -1.65414E-01
    9019.805     26.780   2.920  8.45987E-01  1.01020E+00 -1.64216E-01
    9020.702     27.676   2.960  8.50154E-01  1.00948E+00 -1.59324E-01
    9021.610     28.584   3.000  8.58056E-01  1.00869E+00 -1.50630E-01
    9022.530     29.505   3.040  8.70057E-01  1.00787E+00 -1.37811E-01
    9023.463     30.438   3.080  8.85777E-01  1.00699E+00 -1.21212E-01
    9024.408     31.382   3.120  9.03636E-01  1.00610E+00 -1.02462E-01
    9025.365     32.339   3.160  9.21285E-01  1.00520E+00 -8.39128E-02
    9026.334     33.309   3.200  9.36824E-01  1.00429E+00 -6.74672E-02
    9027.316     34.290   3.240  9.49399E-01  1.00336E+00 -5.39649E-02
    9028.309     35.284   3.280  9.59346E-01  1.00246E+00 -4.31130E-02
    9029.315     36.290   3.320  9.67937E-01  1.00156E+00 -3.36226E-02
    9030.333     37.308   3.360  9.76664E-01  1.00069E+00 -2.40252E-02
    9031.363     38.338   3.400  9.86287E-01  9.99853E-01 -1.35663E-02
    9032.406     39.380   3.440  9.96965E-01  9.99032E-01 -2.06631E-03
    9033.460     40.435   3.480  1.00844E+00  9.98247E-01  1.01975E-02
    9034.527     41.502   3.520  1.02027E+00  9.97522E-01  2.27479E-02
    9035.606     42.581   3.560  1.03208E+00  9.96818E-01  3.52672E-02
    9036.697     43.672   3.600  1.04404E+00  9.96176E-01  4.78599E-02
    9037.801     44.775   3.640  1.05673E+00  9.95578E-01  6.11507E-02
    9038.916     45.891   3.680  1.07102E+00  9.95025E-01  7.59989E-02
    9040.044     47.019   3.720  1.08799E+00  9.94516E-01  9.34729E-02
    9041.184     48.159   3.760  1.10837E+00  9.94075E-01  1.14297E-01
    9042.336     49.311   3.800  1.13181E+00  9.93681E-01  1.38125E-01
    9043.501     50.475   3.840  1.15630E+00  9.93357E-01  1.62942E-01
    9044.677     51.652   3.880  1.17809E+00  9.93081E-01  1.85009E-01
    9045.866     52.840   3.920  1.19238E+00  9.92874E-01  1.99508E-01
    9047.067     54.041   3.960  1.19513E+00  9.92713E-01  2.02415E-01
    9048.280     55.254   4.000  1.18501E+00  9.92599E-01  1.92406E-01
    9049.505     56.480   4.040  1.16373E+00  9.92553E-01  1.71174E-01
    9050.743     57.717   4.080  1.13474E+00  9.92553E-01  1.42192E-01
    9051.992     58.967   4.120  1.10188E+00  9.92597E-01  1.09281E-01
    9053.254     60.229   4.160  1.06832E+00  9.92708E-01  7.56090E-02
    9054.528     61.503   4.200  1.03610E+00  9.92864E-01  4.32348E-02
    9055.814     62.789   4.240  1.00637E+00  9.93060E-01  1.33090E-02
    9057.113     64.087   4.280  9.79833E-01  9.93297E-01 -1.34642E-02
    9058.423     65.398   4.320  9.56952E-01  9.93575E-01 -3.66230E-02
    9059.746     66.721   4.360  9.38079E-01  9.93890E-01 -5.58116E-02
    9061.081     68.056   4.400  9.23442E-01  9.94243E-01 -7.08007E-02
    9062.429     69.403   4.440  9.12936E-01  9.94631E-01 -8.16954E-02
    9063.788     70.762   4.480  9.06154E-01  9.95031E-01 -8.88763E-02
    9065.160     72.134   4.520  9.02553E-01  9.95461E-01 -9.29082E-02
    9066.543     73.518   4.560  9.01348E-01  9.95902E-01 -9.45540E-02
    9067.939     74.914   4.600  9.01769E-01  9.96373E-01 -9.46037E-02
    9069.347     76.322   4.640  9.03348E-01  9.96872E-01 -9.35244E-02
    9070.768     77.742   4.680  9.06013E-01  9.97354E-01 -9.13413E-02
    9072.200     79.175   4.720  9.10123E-01  9.97859E-01 -8.77364E-02
    9073.645     80.620   4.760  9.16143E-01  9.98367E-01 -8.22238E-02
    9075.102     82.077   4.800  9.24559E-01  9.98873E-01 -7.43142E-02
    9076.571     83.546   4.840  9.35704E-01  9.99375E-01 -6.36715E-02
    9078.052     85.027   4.880  9.49599E-01  9.99850E-01 -5.02503E-02
    9079.546     86.521   4.920  9.65663E-01  1.00032E+00 -3.46557E-02
    9081.052     88.026   4.960  9.82550E-01  1.00078E+00 -1.82324E-02
    9082.570     89.544   5.000  9.98292E-01  1.00124E+00 -2.94571E-03
    9084.100     91.074   5.040  1.01063E+00  1.00166E+00  8.96657E-03
    9085.642     92.616   5.080  1.01774E+00  1.00205E+00  1.56924E-02
    9087.196     94.171   5.120  1.01893E+00  1.00242E+00  1.65082E-02
    9088.763     95.738   5.160  1.01478E+00  1.00276E+00  1.20190E-02
    9090.342     97.316   5.200  1.00695E+00  1.00307E+00  3.88073E-03
    9091.933     98.908   5.240  9.97606E-01  1.00335E+00 -5.74659E-03
    9093.536    100.511   5.280  9.88759E-01  1.00358E+00 -1.48210E-02
    9095.152    102.126   5.320  9.81949E-01  1.00379E+00 -2.18392E-02
    9096.779    103.754   5.360  9.78021E-01  1.00396E+00 -2.59342E-02
    9098.419    105.394   5.400  9.77163E-01  1.00406E+00 -2.68976E-02
    9100.071    107.046   5.440  9.78851E-01  1.00415E+00 -2.52956E-02
    9101.735    108.710   5.480  9.81860E-01  1.00419E+00 -2.23306E-02
    9103.412    110.386   5.520  9.85021E-01  1.00417E+00 -1.91484E-02
    9105.100    112.075   5.560  9.88129E-01  1.00413E+00 -1.59983E-02
    9106.801    113.776   5.600  9.91947E-01  1.00402E+00 -1.20741E-02
    9108.514    115.489   5.640  9.97671E-01  1.00387E+00 -6.19991E-03
    9110.239    117.214   5.680  1.00604E+00  1.00368E+00  2.36244E-03
    9111.977    118.951   5.720  1.01716E+00  1.00344E+00  1.37173E-02
    9113.726    120.701   5.760  1.03084E+00  1.00317E+00  2.76674E-02
    9115.488    122.462   5.800  1.04679E+00  1.00286E+00  4.39310E-02
    9117.262    124.236   5.840  1.06440E+00  1.00251E+00  6.18931E-02
    9119.048    126.022   5.880  1.08231E+00  1.00212E+00  8.01867E-02
    9120.846    127.821   5.920  1.09818E+00  1.00170E+00  9.64793E-02
    9122.657    129.631   5.960  1.10863E+00  1.00128E+00  1.07356E-01
    9124.479    131.454   6.000  1.10934E+00  1.00076E+00  1.08580E-01
