# # comment:                                                     FEFF 9.9.1  
# # Source:
# # Structure
# # Reduced
# # space
# # abc:
# # angles:117.780467
# # sites:
# # POT  SCF 100  7.0000   0, screened core-hole, AFOLP (folp(0)= 1.150)
# # Abs   Z=29 Rmt= 1.181 Rnm= 1.348 K  shell
# # Pot 1 Z=29 Rmt= 1.198 Rnm= 1.360
# # Pot 2 Z=28 Rmt= 1.376 Rnm= 1.446
# # Pot 3 Z=50 Rmt= 1.407 Rnm= 1.498
# # Pot 4 Z= 8 Rmt= 0.993 Rnm= 1.074
# # Gam_ch=1.729E+00 H-L exch Vi= 0.000E+00 Vr= 0.000E+00
# # Mu=-7.343E+00eV kf=2.146E+00 Vint=-1.639E+01eV Rs_int= 1.690
# FMS rfms= 9.0000
# # PATH  Rmax=-1.000,  Keep_limit= 0.00, Heap_limit 0.00  Pwcrit= 2.50%
#  S02=0.950  Temp=   0.00  Debye_temp=   0.00  Global_sig2= 0.00000
#  Energy zero shift, vr, vi    0.00000E+00   0.00000E+00
#  Curved wave amplitude ratio filter   4.000%
#     file         sig2 tot  cw amp ratio   deg  nlegs   reff  inp sig2
#     0/   0 paths used
#  xsedge+ 50, used to normalize mu           2.4766E-04
#  -----------------------------------------------------------------------
#  omega    e    k    mu    mu0     chi     @#
    8983.635    -11.153  -1.000  4.57298E-02  5.35072E-02 -7.77740E-03
    8983.934    -10.854  -0.960  4.89260E-02  5.73843E-02 -8.45829E-03
    8984.220    -10.568  -0.920  5.25054E-02  6.16920E-02 -9.18657E-03
    8984.495    -10.293  -0.880  5.65339E-02  6.64934E-02 -9.95954E-03
    8984.757    -10.031  -0.840  6.10906E-02  7.18625E-02 -1.07719E-02
    8985.007     -9.781  -0.800  6.62698E-02  7.78846E-02 -1.16148E-02
    8985.245     -9.544  -0.760  7.21827E-02  8.46577E-02 -1.24749E-02
    8985.470     -9.318  -0.720  7.89590E-02  9.22926E-02 -1.33336E-02
    8985.683     -9.105  -0.680  8.67454E-02  1.00911E-01 -1.41660E-02
    8985.885     -8.904  -0.640  9.57016E-02  1.10643E-01 -1.49411E-02
    8986.074     -8.715  -0.600  1.05990E-01  1.21613E-01 -1.56230E-02
    8986.250     -8.538  -0.560  1.17756E-01  1.33930E-01 -1.61744E-02
    8986.415     -8.373  -0.520  1.31095E-01  1.47658E-01 -1.65629E-02
    8986.567     -8.221  -0.480  1.46012E-01  1.62783E-01 -1.67712E-02
    8986.708     -8.081  -0.440  1.62363E-01  1.79172E-01 -1.68086E-02
    8986.836     -7.953  -0.400  1.79818E-01  1.96539E-01 -1.67212E-02
    8986.951     -7.837  -0.360  1.97843E-01  2.14436E-01 -1.65932E-02
    8987.055     -7.733  -0.320  2.15748E-01  2.32282E-01 -1.65340E-02
    8987.146     -7.642  -0.280  2.32780E-01  2.49430E-01 -1.66501E-02
    8987.226     -7.562  -0.240  2.48246E-01  2.65258E-01 -1.70113E-02
    8987.293     -7.495  -0.200  2.61622E-01  2.79245E-01 -1.76234E-02
    8987.348     -7.440  -0.160  2.72589E-01  2.91011E-01 -1.84216E-02
    8987.390     -7.398  -0.120  2.81024E-01  3.00311E-01 -1.92872E-02
    8987.421     -7.367  -0.080  2.86930E-01  3.07012E-01 -2.00816E-02
    8987.445     -7.343   0.000  2.91471E-01  3.12395E-01 -2.09243E-02
    8987.500     -7.288   0.120  3.01423E-01  3.24533E-01 -2.31097E-02
    8987.543     -7.245   0.160  3.08979E-01  3.33961E-01 -2.49812E-02
    8987.598     -7.191   0.200  3.18163E-01  3.46010E-01 -2.78477E-02
    8987.665     -7.123   0.240  3.28328E-01  3.60499E-01 -3.21710E-02
    8987.744     -7.044   0.280  3.38535E-01  3.77136E-01 -3.86009E-02
    8987.835     -6.953   0.320  3.47570E-01  3.95500E-01 -4.79305E-02
    8987.939     -6.849   0.360  3.54076E-01  4.15066E-01 -6.09901E-02
    8988.055     -6.733   0.400  3.56843E-01  4.35233E-01 -7.83903E-02
    8988.183     -6.605   0.440  3.55380E-01  4.55533E-01 -1.00153E-01
    8988.323     -6.465   0.480  3.50126E-01  4.75531E-01 -1.25405E-01
    8988.475     -6.313   0.520  3.42580E-01  4.94975E-01 -1.52395E-01
    8988.640     -6.148   0.560  3.34829E-01  5.13750E-01 -1.78922E-01
    8988.817     -5.971   0.600  3.28804E-01  5.31805E-01 -2.03001E-01
    8989.006     -5.782   0.640  3.25900E-01  5.49217E-01 -2.23317E-01
    8989.207     -5.581   0.680  3.26774E-01  5.66038E-01 -2.39264E-01
    8989.420     -5.368   0.720  3.31673E-01  5.82374E-01 -2.50701E-01
    8989.646     -5.142   0.760  3.40533E-01  5.98310E-01 -2.57777E-01
    8989.884     -4.905   0.800  3.52767E-01  6.13940E-01 -2.61173E-01
    8990.134     -4.655   0.840  3.66774E-01  6.29288E-01 -2.62514E-01
    8990.396     -4.392   0.880  3.80615E-01  6.44462E-01 -2.63847E-01
    8990.670     -4.118   0.920  3.93099E-01  6.59439E-01 -2.66340E-01
    8990.956     -3.832   0.960  4.04799E-01  6.74301E-01 -2.69502E-01
    8991.255     -3.533   1.000  4.16831E-01  6.89003E-01 -2.72172E-01
    8991.566     -3.222   1.040  4.29288E-01  7.03590E-01 -2.74302E-01
    8991.889     -2.899   1.080  4.40996E-01  7.18058E-01 -2.77061E-01
    8992.224     -2.564   1.120  4.52036E-01  7.32377E-01 -2.80341E-01
    8992.572     -2.216   1.160  4.66225E-01  7.46533E-01 -2.80308E-01
    8992.932     -1.857   1.200  4.89128E-01  7.60508E-01 -2.71379E-01
    8993.303     -1.485   1.240  5.24472E-01  7.74279E-01 -2.49807E-01
    8993.687     -1.101   1.280  5.73757E-01  7.87826E-01 -2.14069E-01
    8994.084     -0.704   1.320  6.38045E-01  8.01138E-01 -1.63092E-01
    8994.492     -0.296   1.360  7.17999E-01  8.14150E-01 -9.61506E-02
    8994.913      0.125   1.400  8.09784E-01  8.26874E-01 -1.70899E-02
    8995.346      0.557   1.440  8.97029E-01  8.39262E-01  5.77676E-02
    8995.791      1.002   1.480  9.54205E-01  8.51304E-01  1.02901E-01
    8996.248      1.460   1.520  9.65278E-01  8.62975E-01  1.02303E-01
    8996.717      1.929   1.560  9.39522E-01  8.74244E-01  6.52779E-02
    8997.199      2.411   1.600  9.00834E-01  8.85104E-01  1.57297E-02
    8997.693      2.904   1.640  8.66826E-01  8.95530E-01 -2.87048E-02
    8998.198      3.410   1.680  8.48604E-01  9.05517E-01 -5.69125E-02
    8998.717      3.929   1.720  8.53407E-01  9.15038E-01 -6.16310E-02
    8999.247      4.459   1.760  8.79075E-01  9.24070E-01 -4.49952E-02
    8999.790      5.001   1.800  9.15986E-01  9.32653E-01 -1.66671E-02
    9000.344      5.556   1.840  9.62070E-01  9.40765E-01  2.13048E-02
    9000.911      6.123   1.880  1.02792E+00  9.48367E-01  7.95563E-02
    9001.490      6.702   1.920  1.11817E+00  9.55520E-01  1.62653E-01
    9002.082      7.293   1.960  1.20606E+00  9.62185E-01  2.43875E-01
    9002.685      7.897   2.000  1.24304E+00  9.68386E-01  2.74655E-01
    9003.301      8.513   2.040  1.21939E+00  9.74108E-01  2.45280E-01
    9003.929      9.141   2.080  1.16621E+00  9.79395E-01  1.86811E-01
    9004.569      9.781   2.120  1.11019E+00  9.84233E-01  1.25953E-01
    9005.221     10.433   2.160  1.06152E+00  9.88630E-01  7.28867E-02
    9005.886     11.097   2.200  1.02255E+00  9.92632E-01  2.99192E-02
    9006.562     11.774   2.240  9.95651E-01  9.96206E-01 -5.55720E-04
    9007.251     12.463   2.280  9.80530E-01  9.99402E-01 -1.88727E-02
    9007.952     13.164   2.320  9.72752E-01  1.00225E+00 -2.94963E-02
    9008.665     13.877   2.360  9.67973E-01  1.00471E+00 -3.67385E-02
    9009.391     14.603   2.400  9.66376E-01  1.00686E+00 -4.04887E-02
    9010.128     15.340   2.440  9.76546E-01  1.00867E+00 -3.21269E-02
    9010.878     16.090   2.480  1.00181E+00  1.01021E+00 -8.39392E-03
    9011.640     16.852   2.520  1.03638E+00  1.01144E+00  2.49437E-02
    9012.414     17.626   2.560  1.08104E+00  1.01243E+00  6.86107E-02
    9013.201     18.413   2.600  1.12615E+00  1.01316E+00  1.12985E-01
    9013.999     19.211   2.640  1.16355E+00  1.01365E+00  1.49895E-01
    9014.810     20.022   2.680  1.19206E+00  1.01396E+00  1.78106E-01
    9015.633     20.845   2.720  1.21156E+00  1.01406E+00  1.97492E-01
    9016.468     21.680   2.760  1.22116E+00  1.01400E+00  2.07163E-01
    9017.315     22.527   2.800  1.21735E+00  1.01375E+00  2.03603E-01
    9018.175     23.387   2.840  1.19679E+00  1.01336E+00  1.83424E-01
    9019.047     24.259   2.880  1.16141E+00  1.01287E+00  1.48533E-01
    9019.931     25.143   2.920  1.11699E+00  1.01224E+00  1.04744E-01
    9020.827     26.039   2.960  1.06959E+00  1.01152E+00  5.80729E-02
    9021.735     26.947   3.000  1.02426E+00  1.01069E+00  1.35756E-02
    9022.656     27.867   3.040  9.84133E-01  1.00980E+00 -2.56661E-02
    9023.588     28.800   3.080  9.51120E-01  1.00886E+00 -5.77371E-02
    9024.533     29.745   3.120  9.25443E-01  1.00785E+00 -8.24034E-02
    9025.490     30.702   3.160  9.06259E-01  1.00679E+00 -1.00534E-01
    9026.459     31.671   3.200  8.92680E-01  1.00570E+00 -1.13021E-01
    9027.441     32.653   3.240  8.84386E-01  1.00460E+00 -1.20210E-01
    9028.435     33.646   3.280  8.80643E-01  1.00348E+00 -1.22842E-01
    9029.440     34.652   3.320  8.80544E-01  1.00235E+00 -1.21804E-01
    9030.458     35.670   3.360  8.83049E-01  1.00123E+00 -1.18181E-01
    9031.489     36.700   3.400  8.86910E-01  1.00009E+00 -1.13184E-01
    9032.531     37.743   3.440  8.91202E-01  9.98987E-01 -1.07785E-01
    9033.586     38.797   3.480  8.95571E-01  9.97910E-01 -1.02339E-01
    9034.652     39.864   3.520  9.00302E-01  9.96866E-01 -9.65638E-02
    9035.731     40.943   3.560  9.05957E-01  9.95834E-01 -8.98774E-02
    9036.823     42.034   3.600  9.13222E-01  9.94840E-01 -8.16181E-02
    9037.926     43.138   3.640  9.22396E-01  9.93883E-01 -7.14871E-02
    9039.042     44.253   3.680  9.33279E-01  9.92968E-01 -5.96887E-02
    9040.169     45.381   3.720  9.45507E-01  9.92116E-01 -4.66096E-02
    9041.309     46.521   3.760  9.58921E-01  9.91287E-01 -3.23657E-02
    9042.461     47.673   3.800  9.73426E-01  9.90522E-01 -1.70967E-02
    9043.626     48.838   3.840  9.88414E-01  9.89825E-01 -1.41052E-03
    9044.802     50.014   3.880  1.00255E+00  9.89152E-01  1.33966E-02
    9045.991     51.203   3.920  1.01413E+00  9.88545E-01  2.55842E-02
    9047.192     52.404   3.960  1.02155E+00  9.87985E-01  3.35628E-02
    9048.405     53.617   4.000  1.02410E+00  9.87493E-01  3.66045E-02
    9049.630     54.842   4.040  1.02215E+00  9.87050E-01  3.51019E-02
    9050.868     56.080   4.080  1.01681E+00  9.86675E-01  3.01389E-02
    9052.117     57.329   4.120  1.00920E+00  9.86346E-01  2.28585E-02
    9053.379     58.591   4.160  1.00019E+00  9.86063E-01  1.41258E-02
    9054.653     59.865   4.200  9.90409E-01  9.85847E-01  4.56194E-03
    9055.940     61.151   4.240  9.80545E-01  9.85676E-01 -5.13014E-03
    9057.238     62.450   4.280  9.71545E-01  9.85550E-01 -1.40043E-02
    9058.549     63.761   4.320  9.64457E-01  9.85488E-01 -2.10315E-02
    9059.871     65.083   4.360  9.60080E-01  9.85448E-01 -2.53683E-02
    9061.206     66.418   4.400  9.58915E-01  9.85472E-01 -2.65569E-02
    9062.554     67.766   4.440  9.61055E-01  9.85538E-01 -2.44831E-02
    9063.913     69.125   4.480  9.66412E-01  9.85643E-01 -1.92315E-02
    9065.285     70.497   4.520  9.74854E-01  9.85788E-01 -1.09338E-02
    9066.668     71.880   4.560  9.86216E-01  9.85971E-01  2.44206E-04
    9068.064     73.276   4.600  1.00008E+00  9.86191E-01  1.38850E-02
    9069.473     74.684   4.640  1.01539E+00  9.86423E-01  2.89680E-02
    9070.893     76.105   4.680  1.03054E+00  9.86689E-01  4.38482E-02
    9072.326     77.537   4.720  1.04361E+00  9.86991E-01  5.66232E-02
    9073.770     78.982   4.760  1.05303E+00  9.87324E-01  6.57065E-02
    9075.227     80.439   4.800  1.05808E+00  9.87664E-01  7.04181E-02
    9076.696     81.908   4.840  1.05922E+00  9.88012E-01  7.12109E-02
    9078.178     83.390   4.880  1.05764E+00  9.88386E-01  6.92588E-02
    9079.671     84.883   4.920  1.05456E+00  9.88765E-01  6.57995E-02
    9081.177     86.389   4.960  1.05079E+00  9.89147E-01  6.16449E-02
    9082.695     87.907   5.000  1.04663E+00  9.89530E-01  5.70979E-02
    9084.225     89.437   5.040  1.04218E+00  9.89935E-01  5.22471E-02
    9085.767     90.979   5.080  1.03744E+00  9.90317E-01  4.71241E-02
    9087.322     92.534   5.120  1.03239E+00  9.90696E-01  4.16956E-02
    9088.888     94.100   5.160  1.02681E+00  9.91071E-01  3.57362E-02
    9090.467     95.679   5.200  1.02022E+00  9.91441E-01  2.87793E-02
    9092.058     97.270   5.240  1.01200E+00  9.91785E-01  2.02193E-02
    9093.661     98.873   5.280  1.00161E+00  9.92142E-01  9.46448E-03
    9095.277    100.489   5.320  9.88762E-01  9.92449E-01 -3.68733E-03
    9096.904    102.116   5.360  9.74091E-01  9.92767E-01 -1.86762E-02
    9098.544    103.756   5.400  9.58891E-01  9.93030E-01 -3.41394E-02
    9100.196    105.408   5.440  9.44927E-01  9.93282E-01 -4.83552E-02
    9101.861    107.072   5.480  9.33615E-01  9.93525E-01 -5.99100E-02
    9103.537    108.749   5.520  9.25690E-01  9.93732E-01 -6.80418E-02
    9105.226    110.437   5.560  9.21426E-01  9.93903E-01 -7.24774E-02
    9106.926    112.138   5.600  9.21066E-01  9.94038E-01 -7.29723E-02
    9108.639    113.851   5.640  9.24987E-01  9.94159E-01 -6.91720E-02
    9110.364    115.576   5.680  9.33394E-01  9.94245E-01 -6.08508E-02
    9112.102    117.314   5.720  9.45888E-01  9.94293E-01 -4.84045E-02
    9113.851    119.063   5.760  9.61308E-01  9.94302E-01 -3.29933E-02
    9115.613    120.825   5.800  9.78084E-01  9.94271E-01 -1.61872E-02
    9117.387    122.599   5.840  9.94606E-01  9.94205E-01  4.00765E-04
    9119.173    124.385   5.880  1.00919E+00  9.94128E-01  1.50611E-02
    9120.971    126.183   5.920  1.02004E+00  9.94013E-01  2.60233E-02
    9122.782    127.994   5.960  1.02576E+00  9.93832E-01  3.19270E-02
    9124.605    129.816   6.000  1.02592E+00  9.93618E-01  3.23027E-02
