# # comment:                                                     FEFF 9.9.1  
# # Source:
# # Structure
# # Reduced
# # space
# # abc:
# # angles:131.821858
# # sites:
# # POT  SCF 100  7.0000   0, screened core-hole, AFOLP (folp(0)= 1.150)
# # Abs   Z=29 Rmt= 1.220 Rnm= 1.280 K  shell
# # Pot 1 Z= 3 Rmt= 1.246 Rnm= 1.292
# # Pot 2 Z=25 Rmt= 1.290 Rnm= 1.395
# # Pot 3 Z=29 Rmt= 1.220 Rnm= 1.280
# # Pot 4 Z= 8 Rmt= 1.050 Rnm= 1.102
# # Gam_ch=1.729E+00 H-L exch Vi= 0.000E+00 Vr= 0.000E+00
# # Mu=-1.034E+01eV kf=2.103E+00 Vint=-1.848E+01eV Rs_int= 1.724
# FMS rfms= 9.0000
# # PATH  Rmax=-1.000,  Keep_limit= 0.00, Heap_limit 0.00  Pwcrit= 2.50%
#  S02=0.950  Temp=   0.00  Debye_temp=   0.00  Global_sig2= 0.00000
#  Energy zero shift, vr, vi    0.00000E+00   0.00000E+00
#  Curved wave amplitude ratio filter   4.000%
#     file         sig2 tot  cw amp ratio   deg  nlegs   reff  inp sig2
#     0/   0 paths used
#  xsedge+ 50, used to normalize mu           2.4615E-04
#  -----------------------------------------------------------------------
#  omega    e    k    mu    mu0     chi     @#
    8985.156    -14.151  -1.000  3.09706E-02  5.27260E-02 -2.17553E-02
    8985.455    -13.852  -0.960  3.22431E-02  5.65055E-02 -2.42624E-02
    8985.742    -13.566  -0.920  3.35899E-02  6.07002E-02 -2.71103E-02
    8986.016    -13.292  -0.880  3.50200E-02  6.53706E-02 -3.03506E-02
    8986.278    -13.029  -0.840  3.65442E-02  7.05872E-02 -3.40429E-02
    8986.528    -12.779  -0.800  3.81756E-02  7.64314E-02 -3.82559E-02
    8986.766    -12.542  -0.760  3.99297E-02  8.29969E-02 -4.30672E-02
    8986.991    -12.316  -0.720  4.18249E-02  9.03892E-02 -4.85643E-02
    8987.205    -12.103  -0.680  4.38822E-02  9.87244E-02 -5.48422E-02
    8987.406    -11.902  -0.640  4.61244E-02  1.08125E-01 -6.20007E-02
    8987.595    -11.713  -0.600  4.85742E-02  1.18711E-01 -7.01370E-02
    8987.771    -11.536  -0.560  5.12505E-02  1.30585E-01 -7.93346E-02
    8987.936    -11.371  -0.520  5.41623E-02  1.43807E-01 -8.96448E-02
    8988.088    -11.219  -0.480  5.73005E-02  1.58363E-01 -1.01062E-01
    8988.229    -11.079  -0.440  6.06283E-02  1.74124E-01 -1.13496E-01
    8988.357    -10.951  -0.400  6.40739E-02  1.90820E-01 -1.26746E-01
    8988.473    -10.835  -0.360  6.75313E-02  2.08020E-01 -1.40488E-01
    8988.576    -10.731  -0.320  7.08717E-02  2.25169E-01 -1.54297E-01
    8988.668    -10.640  -0.280  7.39657E-02  2.41648E-01 -1.67683E-01
    8988.747    -10.561  -0.240  7.67062E-02  2.56863E-01 -1.80157E-01
    8988.814    -10.493  -0.200  7.90250E-02  2.70314E-01 -1.91289E-01
    8988.869    -10.439  -0.160  8.08933E-02  2.81633E-01 -2.00740E-01
    8988.911    -10.396  -0.120  8.23118E-02  2.90585E-01 -2.08273E-01
    8988.942    -10.365  -0.080  8.32955E-02  2.97036E-01 -2.13741E-01
    8988.966    -10.341   0.000  8.40457E-02  3.02222E-01 -2.18176E-01
    8989.021    -10.286   0.120  8.58327E-02  3.13920E-01 -2.28087E-01
    8989.064    -10.244   0.160  8.71343E-02  3.23021E-01 -2.35886E-01
    8989.119    -10.189   0.200  8.86873E-02  3.34634E-01 -2.45947E-01
    8989.186    -10.122   0.240  9.03991E-02  3.48633E-01 -2.58234E-01
    8989.265    -10.042   0.280  9.21732E-02  3.64748E-01 -2.72575E-01
    8989.356     -9.951   0.320  9.38294E-02  3.82547E-01 -2.88718E-01
    8989.460     -9.847   0.360  9.53138E-02  4.01582E-01 -3.06268E-01
    8989.576     -9.731   0.400  9.65405E-02  4.21288E-01 -3.24748E-01
    8989.704     -9.603   0.440  9.75696E-02  4.41188E-01 -3.43619E-01
    8989.844     -9.463   0.480  9.85170E-02  4.60892E-01 -3.62375E-01
    8989.997     -9.311   0.520  9.96051E-02  4.80186E-01 -3.80580E-01
    8990.161     -9.146   0.560  1.01029E-01  4.98938E-01 -3.97909E-01
    8990.338     -8.969   0.600  1.02926E-01  5.17098E-01 -4.14172E-01
    8990.527     -8.780   0.640  1.05479E-01  5.34738E-01 -4.29259E-01
    8990.728     -8.579   0.680  1.08804E-01  5.51922E-01 -4.43118E-01
    8990.941     -8.366   0.720  1.12944E-01  5.68706E-01 -4.55762E-01
    8991.167     -8.140   0.760  1.17909E-01  5.85187E-01 -4.67278E-01
    8991.405     -7.903   0.800  1.23542E-01  6.01429E-01 -4.77887E-01
    8991.655     -7.653   0.840  1.29818E-01  6.17466E-01 -4.87648E-01
    8991.917     -7.391   0.880  1.37209E-01  6.33379E-01 -4.96170E-01
    8992.191     -7.116   0.920  1.46667E-01  6.49176E-01 -5.02508E-01
    8992.478     -6.830   0.960  1.59461E-01  6.64852E-01 -5.05391E-01
    8992.776     -6.531   1.000  1.77035E-01  6.80415E-01 -5.03380E-01
    8993.087     -6.220   1.040  2.01204E-01  6.95882E-01 -4.94678E-01
    8993.410     -5.897   1.080  2.33894E-01  7.11223E-01 -4.77328E-01
    8993.746     -5.562   1.120  2.76422E-01  7.26424E-01 -4.50002E-01
    8994.093     -5.214   1.160  3.28423E-01  7.41467E-01 -4.13044E-01
    8994.453     -4.855   1.200  3.84437E-01  7.56305E-01 -3.71868E-01
    8994.825     -4.483   1.240  4.32624E-01  7.70913E-01 -3.38289E-01
    8995.209     -4.099   1.280  4.67330E-01  7.85264E-01 -3.17934E-01
    8995.605     -3.703   1.320  4.96004E-01  7.99327E-01 -3.03323E-01
    8996.013     -3.294   1.360  5.25744E-01  8.13070E-01 -2.87326E-01
    8996.434     -2.873   1.400  5.53737E-01  8.26486E-01 -2.72749E-01
    8996.867     -2.441   1.440  5.74754E-01  8.39501E-01 -2.64747E-01
    8997.312     -1.996   1.480  5.98084E-01  8.52103E-01 -2.54019E-01
    8997.769     -1.538   1.520  6.46135E-01  8.64286E-01 -2.18150E-01
    8998.238     -1.069   1.560  7.35628E-01  8.76018E-01 -1.40390E-01
    8998.720     -0.588   1.600  8.54091E-01  8.87252E-01 -3.31609E-02
    8999.214     -0.094   1.640  9.43366E-01  8.98022E-01  4.53440E-02
    8999.720      0.412   1.680  9.81588E-01  9.08261E-01  7.33268E-02
    9000.238      0.930   1.720  1.05212E+00  9.18006E-01  1.34111E-01
    9000.768      1.461   1.760  1.23574E+00  9.27214E-01  3.08522E-01
    9001.311      2.003   1.800  1.51219E+00  9.35884E-01  5.76306E-01
    9001.865      2.558   1.840  1.79132E+00  9.44037E-01  8.47284E-01
    9002.432      3.125   1.880  1.97005E+00  9.51654E-01  1.01839E+00
    9003.011      3.704   1.920  1.99983E+00  9.58759E-01  1.04107E+00
    9003.603      4.295   1.960  1.91642E+00  9.65355E-01  9.51066E-01
    9004.206      4.899   2.000  1.78771E+00  9.71426E-01  8.16281E-01
    9004.822      5.515   2.040  1.64720E+00  9.77000E-01  6.70204E-01
    9005.450      6.142   2.080  1.49940E+00  9.82083E-01  5.17313E-01
    9006.090      6.783   2.120  1.34346E+00  9.86726E-01  3.56733E-01
    9006.742      7.435   2.160  1.19651E+00  9.90893E-01  2.05614E-01
    9007.407      8.099   2.200  1.08149E+00  9.94636E-01  8.68522E-02
    9008.083      8.776   2.240  9.97802E-01  9.97945E-01 -1.43376E-04
    9008.772      9.465   2.280  9.33842E-01  1.00089E+00 -6.70478E-02
    9009.473     10.166   2.320  8.84337E-01  1.00344E+00 -1.19103E-01
    9010.186     10.879   2.360  8.50677E-01  1.00563E+00 -1.54951E-01
    9010.912     11.604   2.400  8.36347E-01  1.00750E+00 -1.71155E-01
    9011.649     12.342   2.440  8.40257E-01  1.00903E+00 -1.68777E-01
    9012.399     13.092   2.480  8.58575E-01  1.01030E+00 -1.51721E-01
    9013.161     13.854   2.520  8.96917E-01  1.01128E+00 -1.14360E-01
    9013.935     14.628   2.560  9.48113E-01  1.01201E+00 -6.38963E-02
    9014.722     15.414   2.600  9.99421E-01  1.01252E+00 -1.30998E-02
    9015.520     16.213   2.640  1.04253E+00  1.01280E+00  2.97222E-02
    9016.331     17.024   2.680  1.07029E+00  1.01291E+00  5.73876E-02
    9017.154     17.847   2.720  1.07778E+00  1.01282E+00  6.49685E-02
    9017.989     18.682   2.760  1.06591E+00  1.01256E+00  5.33510E-02
    9018.837     19.529   2.800  1.03926E+00  1.01220E+00  2.70572E-02
    9019.696     20.389   2.840  1.00332E+00  1.01169E+00 -8.37285E-03
    9020.568     21.260   2.880  9.63338E-01  1.01106E+00 -4.77260E-02
    9021.452     22.144   2.920  9.22548E-01  1.01037E+00 -8.78214E-02
    9022.348     23.040   2.960  8.84836E-01  1.00957E+00 -1.24737E-01
    9023.256     23.949   3.000  8.53607E-01  1.00872E+00 -1.55115E-01
    9024.177     24.869   3.040  8.30678E-01  1.00782E+00 -1.77144E-01
    9025.109     25.802   3.080  8.16073E-01  1.00686E+00 -1.90785E-01
    9026.054     26.747   3.120  8.08848E-01  1.00588E+00 -1.97029E-01
    9027.011     27.704   3.160  8.07159E-01  1.00489E+00 -1.97727E-01
    9027.981     28.673   3.200  8.10169E-01  1.00387E+00 -1.93698E-01
    9028.962     29.655   3.240  8.17771E-01  1.00284E+00 -1.85072E-01
    9029.956     30.648   3.280  8.29703E-01  1.00182E+00 -1.72119E-01
    9030.961     31.654   3.320  8.45343E-01  1.00083E+00 -1.55484E-01
    9031.979     32.672   3.360  8.63645E-01  9.99841E-01 -1.36196E-01
    9033.010     33.702   3.400  8.83234E-01  9.98886E-01 -1.15652E-01
    9034.052     34.745   3.440  9.02236E-01  9.97966E-01 -9.57302E-02
    9035.107     35.799   3.480  9.19263E-01  9.97064E-01 -7.78010E-02
    9036.174     36.866   3.520  9.33663E-01  9.96223E-01 -6.25596E-02
    9037.253     37.945   3.560  9.45636E-01  9.95422E-01 -4.97862E-02
    9038.344     39.036   3.600  9.56388E-01  9.94665E-01 -3.82769E-02
    9039.447     40.140   3.640  9.67342E-01  9.93952E-01 -2.66102E-02
    9040.563     41.255   3.680  9.79557E-01  9.93307E-01 -1.37500E-02
    9041.690     42.383   3.720  9.93666E-01  9.92708E-01  9.57875E-04
    9042.830     43.523   3.760  1.01028E+00  9.92156E-01  1.81256E-02
    9043.982     44.675   3.800  1.02989E+00  9.91675E-01  3.82117E-02
    9045.147     45.839   3.840  1.05220E+00  9.91264E-01  6.09349E-02
    9046.323     47.016   3.880  1.07596E+00  9.90902E-01  8.50561E-02
    9047.512     48.205   3.920  1.09903E+00  9.90587E-01  1.08447E-01
    9048.713     49.406   3.960  1.11944E+00  9.90342E-01  1.29099E-01
    9049.926     50.619   4.000  1.13617E+00  9.90146E-01  1.46024E-01
    9051.151     51.844   4.040  1.14907E+00  9.90020E-01  1.59048E-01
    9052.389     53.081   4.080  1.15771E+00  9.89964E-01  1.67742E-01
    9053.638     54.331   4.120  1.16065E+00  9.89933E-01  1.70722E-01
    9054.900     55.593   4.160  1.15606E+00  9.89967E-01  1.66096E-01
    9056.174     56.867   4.200  1.14250E+00  9.90048E-01  1.52452E-01
    9057.461     58.153   4.240  1.12060E+00  9.90197E-01  1.30406E-01
    9058.759     59.452   4.280  1.09342E+00  9.90388E-01  1.03031E-01
    9060.070     60.762   4.320  1.06511E+00  9.90621E-01  7.44936E-02
    9061.393     62.085   4.360  1.03910E+00  9.90893E-01  4.82111E-02
    9062.728     63.420   4.400  1.01716E+00  9.91181E-01  2.59766E-02
    9064.075     64.767   4.440  9.99508E-01  9.91530E-01  7.97793E-03
    9065.434     66.127   4.480  9.85299E-01  9.91916E-01 -6.61724E-03
    9066.806     67.498   4.520  9.73337E-01  9.92315E-01 -1.89786E-02
    9068.190     68.882   4.560  9.62874E-01  9.92747E-01 -2.98736E-02
    9069.586     70.278   4.600  9.54044E-01  9.93213E-01 -3.91687E-02
    9070.994     71.686   4.640  9.47852E-01  9.93687E-01 -4.58356E-02
    9072.414     73.107   4.680  9.45721E-01  9.94189E-01 -4.84684E-02
    9073.847     74.539   4.720  9.48666E-01  9.94675E-01 -4.60089E-02
    9075.291     75.984   4.760  9.56911E-01  9.95208E-01 -3.82972E-02
    9076.748     77.441   4.800  9.69172E-01  9.95722E-01 -2.65508E-02
    9078.217     78.910   4.840  9.82691E-01  9.96236E-01 -1.35453E-02
    9079.699     80.391   4.880  9.93769E-01  9.96771E-01 -3.00174E-03
    9081.192     81.885   4.920  9.99147E-01  9.97282E-01  1.86501E-03
    9082.698     83.391   4.960  9.97536E-01  9.97788E-01 -2.51579E-04
    9084.216     84.909   5.000  9.89889E-01  9.98287E-01 -8.39884E-03
    9085.746     86.439   5.040  9.78623E-01  9.98758E-01 -2.01350E-02
    9087.288     87.981   5.080  9.66427E-01  9.99222E-01 -3.27953E-02
    9088.843     89.535   5.120  9.55366E-01  9.99678E-01 -4.43122E-02
    9090.409     91.102   5.160  9.46763E-01  1.00010E+00 -5.33379E-02
    9091.988     92.681   5.200  9.41520E-01  1.00051E+00 -5.89932E-02
    9093.579     94.272   5.240  9.39992E-01  1.00089E+00 -6.08985E-02
    9095.183     95.875   5.280  9.41987E-01  1.00123E+00 -5.92421E-02
    9096.798     97.491   5.320  9.46944E-01  1.00153E+00 -5.45852E-02
    9098.426     99.118   5.360  9.54388E-01  1.00179E+00 -4.74029E-02
    9100.065    100.758   5.400  9.64060E-01  1.00204E+00 -3.79784E-02
    9101.717    102.410   5.440  9.75503E-01  1.00225E+00 -2.67460E-02
    9103.382    104.074   5.480  9.87587E-01  1.00242E+00 -1.48301E-02
    9105.058    105.751   5.520  9.98551E-01  1.00252E+00 -3.96988E-03
    9106.747    107.439   5.560  1.00678E+00  1.00261E+00  4.17051E-03
    9108.447    109.140   5.600  1.01147E+00  1.00266E+00  8.81655E-03
    9110.160    110.853   5.640  1.01289E+00  1.00266E+00  1.02285E-02
    9111.886    112.578   5.680  1.01184E+00  1.00263E+00  9.21404E-03
    9113.623    114.316   5.720  1.00895E+00  1.00253E+00  6.41894E-03
    9115.372    116.065   5.760  1.00456E+00  1.00241E+00  2.14664E-03
    9117.134    117.827   5.800  9.99135E-01  1.00225E+00 -3.11783E-03
    9118.908    119.601   5.840  9.93758E-01  1.00203E+00 -8.27583E-03
    9120.694    121.387   5.880  9.89699E-01  1.00180E+00 -1.21014E-02
    9122.493    123.185   5.920  9.87589E-01  1.00153E+00 -1.39410E-02
    9124.303    124.996   5.960  9.87459E-01  1.00120E+00 -1.37368E-02
    9126.126    126.818   6.000  9.89445E-01  1.00082E+00 -1.13777E-02
