# # comment:                                                     FEFF 9.9.1  
# # Source:
# # Structure
# # Reduced
# # space
# # abc:
# # angles:110.462839
# # sites:
# # POT  SCF 100  7.0000   0, screened core-hole, AFOLP (folp(0)= 1.150)
# # Abs   Z=29 Rmt= 1.092 Rnm= 1.251 K  shell
# # Pot 1 Z=56 Rmt= 1.932 Rnm= 2.021
# # Pot 2 Z=29 Rmt= 1.075 Rnm= 1.236
# # Pot 3 Z= 8 Rmt= 1.064 Rnm= 1.150
# # Gam_ch=1.729E+00 H-L exch Vi= 0.000E+00 Vr= 0.000E+00
# # Mu=-1.036E+01eV kf=1.946E+00 Vint=-1.433E+01eV Rs_int= 1.864
# FMS rfms= 9.0000
# # PATH  Rmax=-1.000,  Keep_limit= 0.00, Heap_limit 0.00  Pwcrit= 2.50%
#  S02=0.950  Temp=   0.00  Debye_temp=   0.00  Global_sig2= 0.00000
#  Energy zero shift, vr, vi    0.00000E+00   0.00000E+00
#  Curved wave amplitude ratio filter   4.000%
#     file         sig2 tot  cw amp ratio   deg  nlegs   reff  inp sig2
#     0/   0 paths used
#  xsedge+ 50, used to normalize mu           2.4474E-04
#  -----------------------------------------------------------------------
#  omega    e    k    mu    mu0     chi     @#
    8984.052    -14.175  -1.000  2.75773E-02  4.54702E-02 -1.78928E-02
    8984.350    -13.876  -0.960  2.86700E-02  4.83027E-02 -1.96327E-02
    8984.637    -13.590  -0.920  2.98245E-02  5.14024E-02 -2.15780E-02
    8984.911    -13.315  -0.880  3.10465E-02  5.48041E-02 -2.37576E-02
    8985.173    -13.053  -0.840  3.23427E-02  5.85476E-02 -2.62050E-02
    8985.423    -12.803  -0.800  3.37204E-02  6.26786E-02 -2.89581E-02
    8985.661    -12.565  -0.760  3.51882E-02  6.72486E-02 -3.20604E-02
    8985.886    -12.340  -0.720  3.67551E-02  7.23154E-02 -3.55603E-02
    8986.100    -12.127  -0.680  3.84310E-02  7.79416E-02 -3.95106E-02
    8986.301    -11.925  -0.640  4.02259E-02  8.41922E-02 -4.39663E-02
    8986.490    -11.736  -0.600  4.21487E-02  9.11298E-02 -4.89811E-02
    8986.667    -11.560  -0.560  4.42057E-02  9.88058E-02 -5.46000E-02
    8986.831    -11.395  -0.520  4.63976E-02  1.07247E-01 -6.08496E-02
    8986.984    -11.243  -0.480  4.87157E-02  1.16439E-01 -6.77232E-02
    8987.124    -11.102  -0.440  5.11379E-02  1.26302E-01 -7.51645E-02
    8987.252    -10.974  -0.400  5.36252E-02  1.36679E-01 -8.30537E-02
    8987.368    -10.859  -0.360  5.61209E-02  1.47322E-01 -9.12011E-02
    8987.471    -10.755  -0.320  5.85557E-02  1.57913E-01 -9.93577E-02
    8987.563    -10.664  -0.280  6.08558E-02  1.68096E-01 -1.07240E-01
    8987.642    -10.584  -0.240  6.29539E-02  1.77521E-01 -1.14567E-01
    8987.709    -10.517  -0.200  6.47964E-02  1.85886E-01 -1.21089E-01
    8987.764    -10.462  -0.160  6.63441E-02  1.92959E-01 -1.26615E-01
    8987.807    -10.420  -0.120  6.75681E-02  1.98581E-01 -1.31013E-01
    8987.837    -10.389  -0.080  6.84514E-02  2.02652E-01 -1.34200E-01
    8987.862    -10.365   0.000  6.91812E-02  2.05940E-01 -1.36758E-01
    8987.916    -10.310   0.120  7.14948E-02  2.13383E-01 -1.41888E-01
    8987.959    -10.267   0.160  7.30856E-02  2.19221E-01 -1.46135E-01
    8988.014    -10.212   0.200  7.50425E-02  2.26746E-01 -1.51704E-01
    8988.081    -10.145   0.240  7.73125E-02  2.35931E-01 -1.58619E-01
    8988.160    -10.066   0.280  7.98282E-02  2.46685E-01 -1.66856E-01
    8988.252     -9.975   0.320  8.25346E-02  2.58862E-01 -1.76328E-01
    8988.355     -9.871   0.360  8.54085E-02  2.72271E-01 -1.86863E-01
    8988.471     -9.755   0.400  8.84559E-02  2.86696E-01 -1.98240E-01
    8988.599     -9.627   0.440  9.17338E-02  3.01938E-01 -2.10204E-01
    8988.739     -9.487   0.480  9.53422E-02  3.17843E-01 -2.22501E-01
    8988.892     -9.335   0.520  9.93957E-02  3.34320E-01 -2.34924E-01
    8989.056     -9.170   0.560  1.04029E-01  3.51325E-01 -2.47296E-01
    8989.233     -8.993   0.600  1.09442E-01  3.68859E-01 -2.59417E-01
    8989.422     -8.804   0.640  1.15915E-01  3.86945E-01 -2.71030E-01
    8989.623     -8.603   0.680  1.23756E-01  4.05600E-01 -2.81844E-01
    8989.837     -8.390   0.720  1.33336E-01  4.24893E-01 -2.91557E-01
    8990.062     -8.164   0.760  1.45046E-01  4.44799E-01 -2.99753E-01
    8990.300     -7.926   0.800  1.59570E-01  4.65346E-01 -3.05776E-01
    8990.550     -7.677   0.840  1.77434E-01  4.86552E-01 -3.09118E-01
    8990.812     -7.414   0.880  1.97681E-01  5.08365E-01 -3.10685E-01
    8991.086     -7.140   0.920  2.16729E-01  5.30764E-01 -3.14035E-01
    8991.373     -6.854   0.960  2.29648E-01  5.53696E-01 -3.24048E-01
    8991.671     -6.555   1.000  2.34910E-01  5.77121E-01 -3.42211E-01
    8991.982     -6.244   1.040  2.36113E-01  6.00952E-01 -3.64839E-01
    8992.305     -5.921   1.080  2.38328E-01  6.25115E-01 -3.86786E-01
    8992.641     -5.586   1.120  2.44653E-01  6.49530E-01 -4.04876E-01
    8992.988     -5.238   1.160  2.55654E-01  6.74070E-01 -4.18416E-01
    8993.348     -4.878   1.200  2.70178E-01  6.98649E-01 -4.28471E-01
    8993.720     -4.507   1.240  2.86459E-01  7.23176E-01 -4.36717E-01
    8994.104     -4.123   1.280  3.02521E-01  7.47515E-01 -4.44994E-01
    8994.500     -3.726   1.320  3.18367E-01  7.71575E-01 -4.53208E-01
    8994.908     -3.318   1.360  3.38344E-01  7.95220E-01 -4.56876E-01
    8995.329     -2.897   1.400  3.68015E-01  8.18380E-01 -4.50365E-01
    8995.762     -2.464   1.440  4.09407E-01  8.40946E-01 -4.31539E-01
    8996.207     -2.019   1.480  4.60369E-01  8.62807E-01 -4.02438E-01
    8996.664     -1.562   1.520  5.16939E-01  8.83883E-01 -3.66945E-01
    8997.133     -1.093   1.560  5.76354E-01  9.04093E-01 -3.27739E-01
    8997.615     -0.611   1.600  6.36809E-01  9.23384E-01 -2.86575E-01
    8998.109     -0.118   1.640  6.90685E-01  9.41686E-01 -2.51001E-01
    8998.615      0.388   1.680  7.19949E-01  9.58954E-01 -2.39005E-01
    8999.133      0.907   1.720  7.13320E-01  9.75150E-01 -2.61830E-01
    8999.663      1.437   1.760  6.85643E-01  9.90240E-01 -3.04597E-01
    9000.206      1.979   1.800  6.68984E-01  1.00422E+00 -3.35232E-01
    9000.761      2.534   1.840  6.81851E-01  1.01705E+00 -3.35202E-01
    9001.328      3.101   1.880  7.26532E-01  1.02878E+00 -3.02244E-01
    9001.907      3.680   1.920  7.99885E-01  1.03939E+00 -2.39504E-01
    9002.498      4.272   1.960  8.94047E-01  1.04892E+00 -1.54876E-01
    9003.101      4.875   2.000  9.97686E-01  1.05737E+00 -5.96841E-02
    9003.717      5.491   2.040  1.10112E+00  1.06481E+00  3.63155E-02
    9004.345      6.119   2.080  1.19654E+00  1.07123E+00  1.25308E-01
    9004.985      6.759   2.120  1.27694E+00  1.07671E+00  2.00224E-01
    9005.637      7.411   2.160  1.33790E+00  1.08126E+00  2.56638E-01
    9006.302      8.075   2.200  1.38378E+00  1.08497E+00  2.98805E-01
    9006.978      8.752   2.240  1.42441E+00  1.08787E+00  3.36536E-01
    9007.667      9.441   2.280  1.45505E+00  1.09002E+00  3.65032E-01
    9008.368     10.142   2.320  1.45460E+00  1.09144E+00  3.63157E-01
    9009.082     10.855   2.360  1.41407E+00  1.09223E+00  3.21842E-01
    9009.807     11.581   2.400  1.36176E+00  1.09238E+00  2.69372E-01
    9010.545     12.318   2.440  1.32340E+00  1.09202E+00  2.31378E-01
    9011.294     13.068   2.480  1.29686E+00  1.09111E+00  2.05756E-01
    9012.056     13.830   2.520  1.27947E+00  1.08976E+00  1.89705E-01
    9012.831     14.604   2.560  1.27003E+00  1.08801E+00  1.82023E-01
    9013.617     15.391   2.600  1.26620E+00  1.08586E+00  1.80338E-01
    9014.416     16.189   2.640  1.26503E+00  1.08341E+00  1.81623E-01
    9015.226     17.000   2.680  1.26356E+00  1.08067E+00  1.82896E-01
    9016.049     17.823   2.720  1.25884E+00  1.07768E+00  1.81165E-01
    9016.884     18.658   2.760  1.24850E+00  1.07446E+00  1.74048E-01
    9017.732     19.505   2.800  1.23216E+00  1.07106E+00  1.61102E-01
    9018.591     20.365   2.840  1.21034E+00  1.06753E+00  1.42815E-01
    9019.463     21.237   2.880  1.18451E+00  1.06386E+00  1.20650E-01
    9020.347     22.121   2.920  1.15684E+00  1.06011E+00  9.67304E-02
    9021.243     23.017   2.960  1.12908E+00  1.05629E+00  7.27862E-02
    9022.151     23.925   3.000  1.10218E+00  1.05241E+00  4.97742E-02
    9023.072     24.845   3.040  1.07667E+00  1.04852E+00  2.81472E-02
    9024.005     25.778   3.080  1.05265E+00  1.04461E+00  8.03302E-03
    9024.949     26.723   3.120  1.02994E+00  1.04074E+00 -1.07993E-02
    9025.906     27.680   3.160  1.00849E+00  1.03688E+00 -2.83903E-02
    9026.876     28.649   3.200  9.88409E-01  1.03309E+00 -4.46808E-02
    9027.857     29.631   3.240  9.69625E-01  1.02935E+00 -5.97246E-02
    9028.851     30.624   3.280  9.52041E-01  1.02566E+00 -7.36170E-02
    9029.857     31.630   3.320  9.35750E-01  1.02206E+00 -8.63130E-02
    9030.875     32.648   3.360  9.20856E-01  1.01856E+00 -9.77074E-02
    9031.905     33.679   3.400  9.07524E-01  1.01518E+00 -1.07652E-01
    9032.947     34.721   3.440  8.96035E-01  1.01188E+00 -1.15849E-01
    9034.002     35.776   3.480  8.86816E-01  1.00870E+00 -1.21884E-01
    9035.069     36.842   3.520  8.80063E-01  1.00565E+00 -1.25583E-01
    9036.148     37.921   3.560  8.75798E-01  1.00274E+00 -1.26944E-01
    9037.239     39.013   3.600  8.73846E-01  9.99960E-01 -1.26114E-01
    9038.342     40.116   3.640  8.74023E-01  9.97314E-01 -1.23291E-01
    9039.458     41.231   3.680  8.75840E-01  9.94795E-01 -1.18955E-01
    9040.586     42.359   3.720  8.79102E-01  9.92445E-01 -1.13343E-01
    9041.726     43.499   3.760  8.83618E-01  9.90209E-01 -1.06592E-01
    9042.878     44.651   3.800  8.89295E-01  9.88151E-01 -9.88567E-02
    9044.042     45.816   3.840  8.95792E-01  9.86224E-01 -9.04322E-02
    9045.219     46.992   3.880  9.02816E-01  9.84434E-01 -8.16180E-02
    9046.407     48.181   3.920  9.10122E-01  9.82824E-01 -7.27016E-02
    9047.608     49.382   3.960  9.17424E-01  9.81345E-01 -6.39208E-02
    9048.821     50.595   4.000  9.24573E-01  9.80001E-01 -5.54281E-02
    9050.047     51.820   4.040  9.31484E-01  9.78833E-01 -4.73492E-02
    9051.284     53.058   4.080  9.37911E-01  9.77778E-01 -3.98665E-02
    9052.534     54.307   4.120  9.43801E-01  9.76897E-01 -3.30953E-02
    9053.796     55.569   4.160  9.49222E-01  9.76146E-01 -2.69236E-02
    9055.070     56.843   4.200  9.54428E-01  9.75525E-01 -2.10968E-02
    9056.356     58.130   4.240  9.59724E-01  9.75031E-01 -1.53066E-02
    9057.654     59.428   4.280  9.65416E-01  9.74687E-01 -9.27111E-03
    9058.965     60.739   4.320  9.71673E-01  9.74471E-01 -2.79727E-03
    9060.288     62.061   4.360  9.78563E-01  9.74399E-01  4.16398E-03
    9061.623     63.396   4.400  9.86000E-01  9.74428E-01  1.15719E-02
    9062.970     64.744   4.440  9.93867E-01  9.74578E-01  1.92890E-02
    9064.329     66.103   4.480  1.00195E+00  9.74845E-01  2.71090E-02
    9065.701     67.475   4.520  1.01009E+00  9.75228E-01  3.48626E-02
    9067.085     68.858   4.560  1.01818E+00  9.75702E-01  4.24766E-02
    9068.481     70.254   4.600  1.02618E+00  9.76265E-01  4.99114E-02
    9069.889     71.663   4.640  1.03398E+00  9.76938E-01  5.70460E-02
    9071.309     73.083   4.680  1.04142E+00  9.77718E-01  6.36968E-02
    9072.742     74.515   4.720  1.04810E+00  9.78560E-01  6.95427E-02
    9074.187     75.960   4.760  1.05365E+00  9.79479E-01  7.41676E-02
    9075.644     77.417   4.800  1.05761E+00  9.80474E-01  7.71335E-02
    9077.113     78.886   4.840  1.05952E+00  9.81521E-01  7.80023E-02
    9078.594     80.368   4.880  1.05912E+00  9.82640E-01  7.64804E-02
    9080.088     81.861   4.920  1.05648E+00  9.83828E-01  7.26480E-02
    9081.593     83.367   4.960  1.05199E+00  9.85036E-01  6.69494E-02
    9083.111     84.885   5.000  1.04645E+00  9.86285E-01  6.01644E-02
    9084.641     86.415   5.040  1.04076E+00  9.87594E-01  5.31643E-02
    9086.183     87.957   5.080  1.03559E+00  9.88914E-01  4.66728E-02
    9087.738     89.512   5.120  1.03140E+00  9.90244E-01  4.11525E-02
    9089.305     91.078   5.160  1.02830E+00  9.91600E-01  3.67020E-02
    9090.883     92.657   5.200  1.02607E+00  9.92960E-01  3.31090E-02
    9092.475     94.248   5.240  1.02428E+00  9.94318E-01  2.99579E-02
    9094.078     95.851   5.280  1.02247E+00  9.95652E-01  2.68222E-02
    9095.693     97.467   5.320  1.02042E+00  9.97002E-01  2.34192E-02
    9097.321     99.094   5.360  1.01796E+00  9.98323E-01  1.96336E-02
    9098.961    100.734   5.400  1.01506E+00  9.99631E-01  1.54335E-02
    9100.613    102.386   5.440  1.01163E+00  1.00088E+00  1.07528E-02
    9102.277    104.050   5.480  1.00762E+00  1.00211E+00  5.51307E-03
    9103.953    105.727   5.520  1.00305E+00  1.00330E+00 -2.49767E-04
    9105.642    107.415   5.560  9.98114E-01  1.00443E+00 -6.31074E-03
    9107.343    109.116   5.600  9.93221E-01  1.00553E+00 -1.23051E-02
    9109.056    110.829   5.640  9.88694E-01  1.00655E+00 -1.78609E-02
    9110.781    112.554   5.680  9.84759E-01  1.00751E+00 -2.27507E-02
    9112.518    114.292   5.720  9.81442E-01  1.00841E+00 -2.69697E-02
    9114.268    116.041   5.760  9.78595E-01  1.00924E+00 -3.06412E-02
    9116.029    117.803   5.800  9.76081E-01  1.00998E+00 -3.39014E-02
    9117.803    119.577   5.840  9.73888E-01  1.01067E+00 -3.67809E-02
    9119.589    121.363   5.880  9.72033E-01  1.01125E+00 -3.92130E-02
    9121.388    123.161   5.920  9.70648E-01  1.01173E+00 -4.10858E-02
    9123.198    124.972   5.960  9.69900E-01  1.01214E+00 -4.22393E-02
    9125.021    126.795   6.000  9.69995E-01  1.01238E+00 -4.23817E-02
