# # comment:                                                     FEFF 9.9.1  
# # Source:
# # Structure
# # Reduced
# # space
# # abc:
# # angles:126.122033
# # sites:
# # POT  SCF 100  7.0000   0, screened core-hole, AFOLP (folp(0)= 1.150)
# # Abs   Z=29 Rmt= 1.178 Rnm= 1.283 K  shell
# # Pot 1 Z=67 Rmt= 1.613 Rnm= 1.689
# # Pot 2 Z=29 Rmt= 1.178 Rnm= 1.283
# # Pot 3 Z= 8 Rmt= 1.045 Rnm= 1.105
# # Gam_ch=1.729E+00 H-L exch Vi= 0.000E+00 Vr= 0.000E+00
# # Mu=-7.942E+00eV kf=2.142E+00 Vint=-1.651E+01eV Rs_int= 1.693
# FMS rfms= 9.0000
# # PATH  Rmax=-1.000,  Keep_limit= 0.00, Heap_limit 0.00  Pwcrit= 2.50%
#  S02=0.950  Temp=   0.00  Debye_temp=   0.00  Global_sig2= 0.00000
#  Energy zero shift, vr, vi    0.00000E+00   0.00000E+00
#  Curved wave amplitude ratio filter   4.000%
#     file         sig2 tot  cw amp ratio   deg  nlegs   reff  inp sig2
#     0/   0 paths used
#  xsedge+ 50, used to normalize mu           2.4563E-04
#  -----------------------------------------------------------------------
#  omega    e    k    mu    mu0     chi     @#
    8983.945    -11.752  -1.000  3.60607E-02  5.43667E-02 -1.83060E-02
    8984.244    -11.454  -0.960  3.78513E-02  5.83173E-02 -2.04660E-02
    8984.531    -11.167  -0.920  3.97609E-02  6.27067E-02 -2.29457E-02
    8984.805    -10.893  -0.880  4.17993E-02  6.75991E-02 -2.57998E-02
    8985.067    -10.631  -0.840  4.39769E-02  7.30696E-02 -2.90927E-02
    8985.317    -10.381  -0.800  4.63050E-02  7.92051E-02 -3.29001E-02
    8985.555    -10.143  -0.760  4.87956E-02  8.61052E-02 -3.73095E-02
    8985.780     -9.918  -0.720  5.14614E-02  9.38824E-02 -4.24210E-02
    8985.994     -9.704  -0.680  5.43149E-02  1.02661E-01 -4.83459E-02
    8986.195     -9.503  -0.640  5.73679E-02  1.12571E-01 -5.52032E-02
    8986.384     -9.314  -0.600  6.06298E-02  1.23742E-01 -6.31118E-02
    8986.561     -9.137  -0.560  6.41048E-02  1.36282E-01 -7.21770E-02
    8986.725     -8.973  -0.520  6.77880E-02  1.50257E-01 -8.24687E-02
    8986.878     -8.820  -0.480  7.16599E-02  1.65652E-01 -9.39917E-02
    8987.018     -8.680  -0.440  7.56807E-02  1.82331E-01 -1.06651E-01
    8987.146     -8.552  -0.400  7.97853E-02  2.00006E-01 -1.20221E-01
    8987.262     -8.436  -0.360  8.38835E-02  2.18220E-01 -1.34337E-01
    8987.365     -8.333  -0.320  8.78663E-02  2.36382E-01 -1.48516E-01
    8987.457     -8.241  -0.280  9.16190E-02  2.53835E-01 -1.62216E-01
    8987.536     -8.162  -0.240  9.50360E-02  2.69946E-01 -1.74910E-01
    8987.603     -8.095  -0.200  9.80322E-02  2.84185E-01 -1.86153E-01
    8987.658     -8.040  -0.160  1.00547E-01  2.96164E-01 -1.95618E-01
    8987.701     -7.997  -0.120  1.02540E-01  3.05635E-01 -2.03095E-01
    8987.731     -7.967  -0.080  1.03986E-01  3.12459E-01 -2.08473E-01
    8987.755     -7.942   0.000  1.05169E-01  3.17942E-01 -2.12772E-01
    8987.810     -7.888   0.120  1.07881E-01  3.30318E-01 -2.22437E-01
    8987.853     -7.845   0.160  1.09945E-01  3.39937E-01 -2.29992E-01
    8987.908     -7.790   0.200  1.12569E-01  3.52211E-01 -2.39642E-01
    8987.975     -7.723   0.240  1.15750E-01  3.66979E-01 -2.51229E-01
    8988.054     -7.644   0.280  1.19503E-01  3.83949E-01 -2.64446E-01
    8988.146     -7.552   0.320  1.23847E-01  4.02696E-01 -2.78849E-01
    8988.249     -7.449   0.360  1.28821E-01  4.22671E-01 -2.93850E-01
    8988.365     -7.333   0.400  1.34586E-01  4.43307E-01 -3.08722E-01
    8988.493     -7.205   0.440  1.41349E-01  4.64092E-01 -3.22743E-01
    8988.633     -7.065   0.480  1.49488E-01  4.84605E-01 -3.35116E-01
    8988.786     -6.912   0.520  1.59499E-01  5.04571E-01 -3.45073E-01
    8988.950     -6.748   0.560  1.72091E-01  5.23894E-01 -3.51803E-01
    8989.127     -6.571   0.600  1.88217E-01  5.42499E-01 -3.54282E-01
    8989.316     -6.382   0.640  2.09265E-01  5.60464E-01 -3.51198E-01
    8989.517     -6.181   0.680  2.37072E-01  5.77858E-01 -3.40785E-01
    8989.730     -5.967   0.720  2.74054E-01  5.94766E-01 -3.20713E-01
    8989.956     -5.742   0.760  3.22639E-01  6.11272E-01 -2.88633E-01
    8990.194     -5.504   0.800  3.83419E-01  6.27448E-01 -2.44029E-01
    8990.444     -5.254   0.840  4.51783E-01  6.43356E-01 -1.91574E-01
    8990.706     -4.992   0.880  5.16973E-01  6.59043E-01 -1.42069E-01
    8990.980     -4.718   0.920  5.67508E-01  6.74540E-01 -1.07031E-01
    8991.267     -4.431   0.960  5.95742E-01  6.89848E-01 -9.41062E-02
    8991.565     -4.132   1.000  5.97527E-01  7.05001E-01 -1.07474E-01
    8991.876     -3.822   1.040  5.75604E-01  7.19999E-01 -1.44396E-01
    8992.199     -3.498   1.080  5.42104E-01  7.34816E-01 -1.92712E-01
    8992.535     -3.163   1.120  5.10378E-01  7.49441E-01 -2.39063E-01
    8992.882     -2.816   1.160  4.86406E-01  7.63857E-01 -2.77452E-01
    8993.242     -2.456   1.200  4.69342E-01  7.78043E-01 -3.08701E-01
    8993.614     -2.084   1.240  4.55298E-01  7.91956E-01 -3.36658E-01
    8993.998     -1.700   1.280  4.44167E-01  8.05590E-01 -3.61423E-01
    8994.394     -1.304   1.320  4.41735E-01  8.18897E-01 -3.77162E-01
    8994.802     -0.895   1.360  4.51987E-01  8.31871E-01 -3.79884E-01
    8995.223     -0.475   1.400  4.73882E-01  8.44485E-01 -3.70603E-01
    8995.656     -0.042   1.440  5.03572E-01  8.56707E-01 -3.53136E-01
    8996.101      0.403   1.480  5.34556E-01  8.68509E-01 -3.33953E-01
    8996.558      0.860   1.520  5.63283E-01  8.79864E-01 -3.16581E-01
    8997.027      1.330   1.560  5.92898E-01  8.90766E-01 -2.97868E-01
    8997.509      1.811   1.600  6.31363E-01  9.01187E-01 -2.69824E-01
    8998.003      2.305   1.640  6.87810E-01  9.11123E-01 -2.23313E-01
    8998.509      2.811   1.680  7.61491E-01  9.20553E-01 -1.59062E-01
    8999.027      3.329   1.720  8.40031E-01  9.29492E-01 -8.94610E-02
    8999.557      3.859   1.760  9.14700E-01  9.37921E-01 -2.32216E-02
    9000.100      4.402   1.800  9.83663E-01  9.45840E-01  3.78230E-02
    9000.654      4.957   1.840  1.05517E+00  9.53228E-01  1.01940E-01
    9001.221      5.524   1.880  1.15676E+00  9.60131E-01  1.96624E-01
    9001.801      6.103   1.920  1.31579E+00  9.66533E-01  3.49256E-01
    9002.392      6.694   1.960  1.50871E+00  9.72438E-01  5.36270E-01
    9002.995      7.298   2.000  1.64432E+00  9.77872E-01  6.66452E-01
    9003.611      7.913   2.040  1.65467E+00  9.82822E-01  6.71850E-01
    9004.239      8.541   2.080  1.56631E+00  9.87336E-01  5.78972E-01
    9004.879      9.181   2.120  1.44794E+00  9.91403E-01  4.56534E-01
    9005.531      9.833   2.160  1.34215E+00  9.95050E-01  3.47099E-01
    9006.196     10.498   2.200  1.24242E+00  9.98288E-01  2.44135E-01
    9006.872     11.175   2.240  1.14405E+00  1.00115E+00  1.42905E-01
    9007.561     11.863   2.280  1.07403E+00  1.00366E+00  7.03717E-02
    9008.262     12.564   2.320  1.05557E+00  1.00581E+00  4.97629E-02
    9008.975     13.278   2.360  1.08263E+00  1.00763E+00  7.50034E-02
    9009.701     14.003   2.400  1.12514E+00  1.00913E+00  1.16006E-01
    9010.439     14.741   2.440  1.15506E+00  1.01036E+00  1.44692E-01
    9011.188     15.490   2.480  1.16929E+00  1.01134E+00  1.57949E-01
    9011.950     16.252   2.520  1.17929E+00  1.01205E+00  1.67244E-01
    9012.724     17.027   2.560  1.18240E+00  1.01254E+00  1.69857E-01
    9013.511     17.813   2.600  1.17143E+00  1.01283E+00  1.58606E-01
    9014.309     18.612   2.640  1.15016E+00  1.01293E+00  1.37225E-01
    9015.120     19.422   2.680  1.12275E+00  1.01285E+00  1.09902E-01
    9015.943     20.245   2.720  1.09182E+00  1.01263E+00  7.91951E-02
    9016.778     21.081   2.760  1.05928E+00  1.01228E+00  4.70067E-02
    9017.626     21.928   2.800  1.02690E+00  1.01178E+00  1.51220E-02
    9018.485     22.787   2.840  9.96742E-01  1.01118E+00 -1.44412E-02
    9019.357     23.659   2.880  9.70309E-01  1.01050E+00 -4.01938E-02
    9020.241     24.543   2.920  9.47645E-01  1.00974E+00 -6.20953E-02
    9021.137     25.439   2.960  9.28529E-01  1.00892E+00 -8.03955E-02
    9022.045     26.347   3.000  9.12347E-01  1.00804E+00 -9.56921E-02
    9022.966     27.268   3.040  8.98310E-01  1.00711E+00 -1.08803E-01
    9023.898     28.201   3.080  8.85837E-01  1.00617E+00 -1.20330E-01
    9024.843     29.145   3.120  8.74748E-01  1.00519E+00 -1.30444E-01
    9025.800     30.103   3.160  8.65151E-01  1.00421E+00 -1.39059E-01
    9026.770     31.072   3.200  8.57657E-01  1.00323E+00 -1.45568E-01
    9027.751     32.053   3.240  8.53126E-01  1.00224E+00 -1.49116E-01
    9028.745     33.047   3.280  8.51958E-01  1.00129E+00 -1.49329E-01
    9029.751     34.053   3.320  8.53931E-01  1.00034E+00 -1.46407E-01
    9030.769     35.071   3.360  8.58459E-01  9.99424E-01 -1.40965E-01
    9031.799     36.101   3.400  8.64746E-01  9.98523E-01 -1.33777E-01
    9032.841     37.143   3.440  8.71700E-01  9.97681E-01 -1.25980E-01
    9033.896     38.198   3.480  8.78749E-01  9.96878E-01 -1.18129E-01
    9034.963     39.265   3.520  8.85996E-01  9.96095E-01 -1.10099E-01
    9036.042     40.344   3.560  8.94083E-01  9.95376E-01 -1.01293E-01
    9037.133     41.435   3.600  9.03775E-01  9.94703E-01 -9.09282E-02
    9038.236     42.538   3.640  9.15629E-01  9.94097E-01 -7.84682E-02
    9039.352     43.654   3.680  9.29531E-01  9.93538E-01 -6.40067E-02
    9040.479     44.782   3.720  9.44662E-01  9.93027E-01 -4.83646E-02
    9041.619     45.922   3.760  9.60005E-01  9.92585E-01 -3.25793E-02
    9042.772     47.074   3.800  9.74510E-01  9.92213E-01 -1.77023E-02
    9043.936     48.238   3.840  9.87150E-01  9.91868E-01 -4.71802E-03
    9045.112     49.415   3.880  9.97277E-01  9.91614E-01  5.66360E-03
    9046.301     50.603   3.920  1.00445E+00  9.91387E-01  1.30623E-02
    9047.502     51.804   3.960  1.00868E+00  9.91250E-01  1.74270E-02
    9048.715     53.017   4.000  1.01033E+00  9.91140E-01  1.91935E-02
    9049.940     54.243   4.040  1.01045E+00  9.91099E-01  1.93475E-02
    9051.178     55.480   4.080  1.01026E+00  9.91126E-01  1.91313E-02
    9052.428     56.730   4.120  1.01078E+00  9.91177E-01  1.96009E-02
    9053.689     57.992   4.160  1.01284E+00  9.91295E-01  2.15477E-02
    9054.964     59.266   4.200  1.01675E+00  9.91479E-01  2.52735E-02
    9056.250     60.552   4.240  1.02235E+00  9.91685E-01  3.06631E-02
    9057.548     61.850   4.280  1.02923E+00  9.91953E-01  3.72742E-02
    9058.859     63.161   4.320  1.03669E+00  9.92239E-01  4.44527E-02
    9060.182     64.484   4.360  1.04414E+00  9.92585E-01  5.15525E-02
    9061.517     65.819   4.400  1.05108E+00  9.92948E-01  5.81362E-02
    9062.864     67.166   4.440  1.05758E+00  9.93346E-01  6.42350E-02
    9064.223     68.525   4.480  1.06372E+00  9.93780E-01  6.99388E-02
    9065.595     69.897   4.520  1.06932E+00  9.94248E-01  7.50736E-02
    9066.979     71.281   4.560  1.07383E+00  9.94725E-01  7.91031E-02
    9068.375     72.677   4.600  1.07655E+00  9.95232E-01  8.13203E-02
    9069.783     74.085   4.640  1.07693E+00  9.95747E-01  8.11851E-02
    9071.203     75.505   4.680  1.07489E+00  9.96265E-01  7.86292E-02
    9072.636     76.938   4.720  1.07091E+00  9.96806E-01  7.41055E-02
    9074.080     78.383   4.760  1.06560E+00  9.97329E-01  6.82680E-02
    9075.537     79.840   4.800  1.05948E+00  9.97875E-01  6.16066E-02
    9077.007     81.309   4.840  1.05267E+00  9.98420E-01  5.42456E-02
    9078.488     82.790   4.880  1.04501E+00  9.98962E-01  4.60454E-02
    9079.981     84.284   4.920  1.03641E+00  9.99477E-01  3.69336E-02
    9081.487     85.789   4.960  1.02707E+00  9.99986E-01  2.70816E-02
    9083.005     87.307   5.000  1.01745E+00  1.00049E+00  1.69589E-02
    9084.535     88.837   5.040  1.00824E+00  1.00098E+00  7.25469E-03
    9086.077     90.380   5.080  1.00008E+00  1.00145E+00 -1.36594E-03
    9087.632     91.934   5.120  9.93399E-01  1.00188E+00 -8.47776E-03
    9089.198     93.501   5.160  9.88190E-01  1.00229E+00 -1.41024E-02
    9090.777     95.080   5.200  9.83972E-01  1.00267E+00 -1.87009E-02
    9092.368     96.671   5.240  9.80052E-01  1.00302E+00 -2.29646E-02
    9093.972     98.274   5.280  9.75943E-01  1.00334E+00 -2.74012E-02
    9095.587     99.889   5.320  9.71572E-01  1.00361E+00 -3.20406E-02
    9097.215    101.517   5.360  9.67446E-01  1.00386E+00 -3.64178E-02
    9098.855    103.157   5.400  9.64122E-01  1.00408E+00 -3.99559E-02
    9100.507    104.809   5.440  9.61848E-01  1.00425E+00 -4.24041E-02
    9102.171    106.473   5.480  9.60466E-01  1.00439E+00 -4.39224E-02
    9103.847    108.149   5.520  9.59747E-01  1.00451E+00 -4.47586E-02
    9105.536    109.838   5.560  9.59535E-01  1.00456E+00 -4.50237E-02
    9107.236    111.539   5.600  9.59782E-01  1.00457E+00 -4.47880E-02
    9108.949    113.252   5.640  9.60304E-01  1.00454E+00 -4.42365E-02
    9110.675    114.977   5.680  9.61000E-01  1.00447E+00 -4.34682E-02
    9112.412    116.714   5.720  9.62117E-01  1.00436E+00 -4.22381E-02
    9114.162    118.464   5.760  9.64208E-01  1.00420E+00 -3.99946E-02
    9115.923    120.225   5.800  9.67704E-01  1.00401E+00 -3.63068E-02
    9117.697    121.999   5.840  9.72570E-01  1.00378E+00 -3.12101E-02
    9119.483    123.785   5.880  9.78352E-01  1.00351E+00 -2.51584E-02
    9121.282    125.584   5.920  9.84351E-01  1.00321E+00 -1.88541E-02
    9123.092    127.394   5.960  9.89625E-01  1.00286E+00 -1.32394E-02
    9124.915    129.217   6.000  9.93102E-01  1.00249E+00 -9.38728E-03
