# # comment:                                                     FEFF 9.9.1  
# # Source:
# # Structure
# # Reduced
# # space
# # abc:
# # angles:126.259986
# # sites:
# # POT  SCF 100  7.0000   0, screened core-hole, AFOLP (folp(0)= 1.150)
# # Abs   Z=29 Rmt= 1.171 Rnm= 1.275 K  shell
# # Pot 1 Z=71 Rmt= 1.574 Rnm= 1.648
# # Pot 2 Z=29 Rmt= 1.171 Rnm= 1.275
# # Pot 3 Z= 8 Rmt= 1.039 Rnm= 1.099
# # Gam_ch=1.729E+00 H-L exch Vi= 0.000E+00 Vr= 0.000E+00
# # Mu=-7.719E+00eV kf=2.168E+00 Vint=-1.660E+01eV Rs_int= 1.673
# FMS rfms= 9.0000
# # PATH  Rmax=-1.000,  Keep_limit= 0.00, Heap_limit 0.00  Pwcrit= 2.50%
#  S02=0.950  Temp=   0.00  Debye_temp=   0.00  Global_sig2= 0.00000
#  Energy zero shift, vr, vi    0.00000E+00   0.00000E+00
#  Curved wave amplitude ratio filter   4.000%
#     file         sig2 tot  cw amp ratio   deg  nlegs   reff  inp sig2
#     0/   0 paths used
#  xsedge+ 50, used to normalize mu           2.4564E-04
#  -----------------------------------------------------------------------
#  omega    e    k    mu    mu0     chi     @#
    8983.905    -11.529  -1.000  3.55973E-02  5.40909E-02 -1.84936E-02
    8984.203    -11.230  -0.960  3.73374E-02  5.80164E-02 -2.06790E-02
    8984.490    -10.943  -0.920  3.91893E-02  6.23778E-02 -2.31885E-02
    8984.764    -10.669  -0.880  4.11618E-02  6.72392E-02 -2.60775E-02
    8985.026    -10.407  -0.840  4.32638E-02  7.26753E-02 -2.94115E-02
    8985.276    -10.157  -0.800  4.55053E-02  7.87725E-02 -3.32672E-02
    8985.514     -9.919  -0.760  4.78964E-02  8.56299E-02 -3.77334E-02
    8985.739     -9.694  -0.720  5.04479E-02  9.33596E-02 -4.29117E-02
    8985.953     -9.480  -0.680  5.31702E-02  1.02085E-01 -4.89148E-02
    8986.154     -9.279  -0.640  5.60729E-02  1.11936E-01 -5.58633E-02
    8986.343     -9.090  -0.600  5.91632E-02  1.23041E-01 -6.38780E-02
    8986.520     -8.914  -0.560  6.24437E-02  1.35509E-01 -7.30653E-02
    8986.684     -8.749  -0.520  6.59083E-02  1.49404E-01 -8.34960E-02
    8986.837     -8.597  -0.480  6.95382E-02  1.64713E-01 -9.51744E-02
    8986.977     -8.456  -0.440  7.32957E-02  1.81300E-01 -1.08004E-01
    8987.105     -8.328  -0.400  7.71208E-02  1.98877E-01 -1.21756E-01
    8987.221     -8.212  -0.360  8.09308E-02  2.16990E-01 -1.36060E-01
    8987.324     -8.109  -0.320  8.46265E-02  2.35052E-01 -1.50426E-01
    8987.416     -8.017  -0.280  8.81035E-02  2.52407E-01 -1.64304E-01
    8987.495     -7.938  -0.240  9.12660E-02  2.68427E-01 -1.77161E-01
    8987.562     -7.871  -0.200  9.40373E-02  2.82585E-01 -1.88548E-01
    8987.617     -7.816  -0.160  9.63622E-02  2.94495E-01 -1.98133E-01
    8987.660     -7.774  -0.120  9.82049E-02  3.03910E-01 -2.05705E-01
    8987.690     -7.743  -0.080  9.95423E-02  3.10692E-01 -2.11150E-01
    8987.715     -7.719   0.000  1.00638E-01  3.16141E-01 -2.15503E-01
    8987.769     -7.664   0.120  1.03139E-01  3.28434E-01 -2.25295E-01
    8987.812     -7.621   0.160  1.05033E-01  3.37994E-01 -2.32961E-01
    8987.867     -7.566   0.200  1.07454E-01  3.50184E-01 -2.42731E-01
    8987.934     -7.499   0.240  1.10390E-01  3.64858E-01 -2.54468E-01
    8988.013     -7.420   0.280  1.13852E-01  3.81706E-01 -2.67854E-01
    8988.105     -7.329   0.320  1.17863E-01  4.00321E-01 -2.82458E-01
    8988.208     -7.225   0.360  1.22453E-01  4.20133E-01 -2.97681E-01
    8988.324     -7.109   0.400  1.27767E-01  4.40600E-01 -3.12833E-01
    8988.452     -6.981   0.440  1.34018E-01  4.61185E-01 -3.27168E-01
    8988.592     -6.841   0.480  1.41537E-01  4.81490E-01 -3.39953E-01
    8988.745     -6.688   0.520  1.50788E-01  5.01240E-01 -3.50452E-01
    8988.909     -6.524   0.560  1.62428E-01  5.20321E-01 -3.57893E-01
    8989.086     -6.347   0.600  1.77321E-01  5.38700E-01 -3.61379E-01
    8989.275     -6.158   0.640  1.96718E-01  5.56412E-01 -3.59694E-01
    8989.476     -5.957   0.680  2.22391E-01  5.73552E-01 -3.51161E-01
    8989.690     -5.744   0.720  2.56816E-01  5.90184E-01 -3.33368E-01
    8989.915     -5.518   0.760  3.03157E-01  6.06432E-01 -3.03275E-01
    8990.153     -5.280   0.800  3.64028E-01  6.22352E-01 -2.58325E-01
    8990.403     -5.030   0.840  4.38078E-01  6.38007E-01 -1.99929E-01
    8990.665     -4.768   0.880  5.14686E-01  6.53464E-01 -1.38778E-01
    8990.939     -4.494   0.920  5.75318E-01  6.68739E-01 -9.34214E-02
    8991.226     -4.207   0.960  6.06469E-01  6.83853E-01 -7.73848E-02
    8991.525     -3.909   1.000  6.07746E-01  6.98821E-01 -9.10744E-02
    8991.835     -3.598   1.040  5.87074E-01  7.13644E-01 -1.26570E-01
    8992.159     -3.275   1.080  5.54607E-01  7.28318E-01 -1.73712E-01
    8992.494     -2.939   1.120  5.20713E-01  7.42836E-01 -2.22123E-01
    8992.841     -2.592   1.160  4.93160E-01  7.57179E-01 -2.64018E-01
    8993.201     -2.232   1.200  4.74394E-01  7.71308E-01 -2.96914E-01
    8993.573     -1.860   1.240  4.62663E-01  7.85222E-01 -3.22559E-01
    8993.957     -1.476   1.280  4.53739E-01  7.98874E-01 -3.45135E-01
    8994.353     -1.080   1.320  4.47423E-01  8.12259E-01 -3.64836E-01
    8994.762     -0.672   1.360  4.48961E-01  8.25328E-01 -3.76367E-01
    8995.182     -0.251   1.400  4.61234E-01  8.38072E-01 -3.76838E-01
    8995.615      0.182   1.440  4.84059E-01  8.50465E-01 -3.66405E-01
    8996.060      0.627   1.480  5.14809E-01  8.62454E-01 -3.47645E-01
    8996.517      1.084   1.520  5.47462E-01  8.74053E-01 -3.26591E-01
    8996.987      1.553   1.560  5.81281E-01  8.85213E-01 -3.03932E-01
    8997.468      2.035   1.600  6.22803E-01  8.95948E-01 -2.73145E-01
    8997.962      2.529   1.640  6.77325E-01  9.06213E-01 -2.28888E-01
    8998.468      3.035   1.680  7.43863E-01  9.15982E-01 -1.72119E-01
    8998.986      3.553   1.720  8.14469E-01  9.25290E-01 -1.10821E-01
    8999.516      4.083   1.760  8.83301E-01  9.34096E-01 -5.07952E-02
    9000.059      4.626   1.800  9.51392E-01  9.42419E-01  8.97340E-03
    9000.614      5.180   1.840  1.02193E+00  9.50217E-01  7.17100E-02
    9001.181      5.747   1.880  1.10808E+00  9.57533E-01  1.50543E-01
    9001.760      6.326   1.920  1.24210E+00  9.64349E-01  2.77751E-01
    9002.351      6.918   1.960  1.43315E+00  9.70688E-01  4.62464E-01
    9002.955      7.521   2.000  1.61078E+00  9.76514E-01  6.34261E-01
    9003.570      8.137   2.040  1.67194E+00  9.81895E-01  6.90042E-01
    9004.198      8.765   2.080  1.61179E+00  9.86794E-01  6.24998E-01
    9004.838      9.405   2.120  1.49931E+00  9.91259E-01  5.08049E-01
    9005.490     10.057   2.160  1.39030E+00  9.95278E-01  3.95021E-01
    9006.155     10.722   2.200  1.29492E+00  9.98880E-01  2.96038E-01
    9006.832     11.398   2.240  1.19415E+00  1.00207E+00  1.92073E-01
    9007.520     12.087   2.280  1.09857E+00  1.00489E+00  9.36888E-02
    9008.221     12.788   2.320  1.04429E+00  1.00735E+00  3.69423E-02
    9008.935     13.501   2.360  1.04684E+00  1.00945E+00  3.73838E-02
    9009.660     14.227   2.400  1.08976E+00  1.01120E+00  7.85604E-02
    9010.398     14.964   2.440  1.13716E+00  1.01268E+00  1.24484E-01
    9011.147     15.714   2.480  1.16527E+00  1.01384E+00  1.51432E-01
    9011.909     16.476   2.520  1.17956E+00  1.01474E+00  1.64820E-01
    9012.684     17.250   2.560  1.19350E+00  1.01539E+00  1.78104E-01
    9013.470     18.037   2.600  1.19602E+00  1.01580E+00  1.80219E-01
    9014.269     18.835   2.640  1.18254E+00  1.01603E+00  1.66520E-01
    9015.079     19.646   2.680  1.15745E+00  1.01602E+00  1.41421E-01
    9015.902     20.469   2.720  1.12592E+00  1.01585E+00  1.10068E-01
    9016.738     21.304   2.760  1.09160E+00  1.01551E+00  7.60830E-02
    9017.585     22.152   2.800  1.05643E+00  1.01504E+00  4.13926E-02
    9018.444     23.011   2.840  1.02216E+00  1.01444E+00  7.71934E-03
    9019.316     23.883   2.880  9.90572E-01  1.01372E+00 -2.31525E-02
    9020.200     24.767   2.920  9.62458E-01  1.01291E+00 -5.04572E-02
    9021.096     25.663   2.960  9.38090E-01  1.01200E+00 -7.39109E-02
    9022.004     26.571   3.000  9.17602E-01  1.01103E+00 -9.34272E-02
    9022.925     27.492   3.040  9.00585E-01  1.01001E+00 -1.09422E-01
    9023.858     28.424   3.080  8.86379E-01  1.00894E+00 -1.22563E-01
    9024.802     29.369   3.120  8.74539E-01  1.00782E+00 -1.33276E-01
    9025.760     30.326   3.160  8.64426E-01  1.00670E+00 -1.42271E-01
    9026.729     31.296   3.200  8.55992E-01  1.00555E+00 -1.49559E-01
    9027.710     32.277   3.240  8.49954E-01  1.00440E+00 -1.54445E-01
    9028.704     33.271   3.280  8.46987E-01  1.00325E+00 -1.56259E-01
    9029.710     34.276   3.320  8.47379E-01  1.00210E+00 -1.54719E-01
    9030.728     35.294   3.360  8.50946E-01  1.00098E+00 -1.50033E-01
    9031.758     36.325   3.400  8.57184E-01  9.99869E-01 -1.42685E-01
    9032.800     37.367   3.440  8.64922E-01  9.98795E-01 -1.33873E-01
    9033.855     38.422   3.480  8.73167E-01  9.97781E-01 -1.24613E-01
    9034.922     39.489   3.520  8.81333E-01  9.96786E-01 -1.15453E-01
    9036.001     40.568   3.560  8.89539E-01  9.95833E-01 -1.06294E-01
    9037.092     41.659   3.600  8.98527E-01  9.94947E-01 -9.64201E-02
    9038.195     42.762   3.640  9.09168E-01  9.94107E-01 -8.49384E-02
    9039.311     43.878   3.680  9.21969E-01  9.93335E-01 -7.13656E-02
    9040.439     45.005   3.720  9.36621E-01  9.92613E-01 -5.59921E-02
    9041.579     46.145   3.760  9.52332E-01  9.91940E-01 -3.96074E-02
    9042.731     47.297   3.800  9.68064E-01  9.91359E-01 -2.32952E-02
    9043.895     48.462   3.840  9.82563E-01  9.90809E-01 -8.24575E-03
    9045.072     49.638   3.880  9.94938E-01  9.90355E-01  4.58313E-03
    9046.260     50.827   3.920  1.00448E+00  9.89953E-01  1.45260E-02
    9047.461     52.028   3.960  1.01074E+00  9.89623E-01  2.11177E-02
    9048.674     53.241   4.000  1.01360E+00  9.89345E-01  2.42551E-02
    9049.900     54.466   4.040  1.01358E+00  9.89140E-01  2.44406E-02
    9051.137     55.704   4.080  1.01182E+00  9.89009E-01  2.28116E-02
    9052.387     56.953   4.120  1.00967E+00  9.88930E-01  2.07372E-02
    9053.649     58.215   4.160  1.00843E+00  9.88925E-01  1.95025E-02
    9054.923     59.489   4.200  1.00892E+00  9.88991E-01  1.99313E-02
    9056.209     60.776   4.240  1.01142E+00  9.89105E-01  2.23106E-02
    9057.507     62.074   4.280  1.01578E+00  9.89267E-01  2.65101E-02
    9058.818     63.385   4.320  1.02165E+00  9.89498E-01  3.21525E-02
    9060.141     64.708   4.360  1.02848E+00  9.89776E-01  3.87076E-02
    9061.476     66.043   4.400  1.03574E+00  9.90119E-01  4.56159E-02
    9062.823     67.390   4.440  1.04305E+00  9.90485E-01  5.25660E-02
    9064.182     68.749   4.480  1.05039E+00  9.90913E-01  5.94764E-02
    9065.554     70.121   4.520  1.05773E+00  9.91382E-01  6.63460E-02
    9066.938     71.505   4.560  1.06481E+00  9.91868E-01  7.29404E-02
    9068.334     72.901   4.600  1.07108E+00  9.92414E-01  7.86646E-02
    9069.742     74.309   4.640  1.07564E+00  9.92974E-01  8.26706E-02
    9071.162     75.729   4.680  1.07775E+00  9.93589E-01  8.41596E-02
    9072.595     77.162   4.720  1.07693E+00  9.94194E-01  8.27402E-02
    9074.040     78.606   4.760  1.07342E+00  9.94829E-01  7.85866E-02
    9075.497     80.063   4.800  1.06787E+00  9.95494E-01  7.23722E-02
    9076.966     81.532   4.840  1.06106E+00  9.96164E-01  6.48910E-02
    9078.447     83.014   4.880  1.05345E+00  9.96836E-01  5.66175E-02
    9079.941     84.507   4.920  1.04518E+00  9.97511E-01  4.76713E-02
    9081.446     86.013   4.960  1.03624E+00  9.98209E-01  3.80328E-02
    9082.964     87.531   5.000  1.02668E+00  9.98882E-01  2.78003E-02
    9084.494     89.061   5.040  1.01686E+00  9.99552E-01  1.73100E-02
    9086.037     90.603   5.080  1.00732E+00  1.00022E+00  7.09801E-03
    9087.591     92.158   5.120  9.98679E-01  1.00088E+00 -2.19587E-03
    9089.158     93.724   5.160  9.91442E-01  1.00150E+00 -1.00600E-02
    9090.737     95.303   5.200  9.85805E-01  1.00210E+00 -1.62908E-02
    9092.328     96.894   5.240  9.81563E-01  1.00268E+00 -2.11150E-02
    9093.931     98.498   5.280  9.78093E-01  1.00325E+00 -2.51552E-02
    9095.546    100.113   5.320  9.74629E-01  1.00376E+00 -2.91309E-02
    9097.174    101.741   5.360  9.70830E-01  1.00426E+00 -3.34258E-02
    9098.814    103.380   5.400  9.66822E-01  1.00471E+00 -3.78919E-02
    9100.466    105.032   5.440  9.63117E-01  1.00513E+00 -4.20139E-02
    9102.130    106.697   5.480  9.60245E-01  1.00551E+00 -4.52624E-02
    9103.806    108.373   5.520  9.58480E-01  1.00584E+00 -4.73589E-02
    9105.495    110.062   5.560  9.57787E-01  1.00611E+00 -4.83182E-02
    9107.196    111.762   5.600  9.58099E-01  1.00635E+00 -4.82517E-02
    9108.909    113.475   5.640  9.59264E-01  1.00653E+00 -4.72656E-02
    9110.634    115.201   5.680  9.61095E-01  1.00666E+00 -4.55692E-02
    9112.371    116.938   5.720  9.63215E-01  1.00676E+00 -4.35404E-02
    9114.121    118.687   5.760  9.65414E-01  1.00680E+00 -4.13900E-02
    9115.882    120.449   5.800  9.67939E-01  1.00681E+00 -3.88700E-02
    9117.656    122.223   5.840  9.71311E-01  1.00674E+00 -3.54335E-02
    9119.442    124.009   5.880  9.75874E-01  1.00663E+00 -3.07602E-02
    9121.241    125.808   5.920  9.81431E-01  1.00645E+00 -2.50240E-02
    9123.051    127.618   5.960  9.87491E-01  1.00625E+00 -1.87607E-02
    9124.874    129.441   6.000  9.93308E-01  1.00594E+00 -1.26358E-02
