# # comment:                                                     FEFF 9.9.1  
# # Source:
# # Structure
# # Reduced
# # space
# # abc:
# # angles:
# # sites:
# # POT  SCF 100  7.0000   0, screened core-hole, AFOLP (folp(0)= 1.150)
# # Abs   Z=29 Rmt= 1.256 Rnm= 1.346 K  shell
# # Pot 1 Z= 3 Rmt= 1.263 Rnm= 1.359
# # Pot 2 Z=29 Rmt= 1.248 Rnm= 1.351
# # Pot 3 Z=15 Rmt= 0.916 Rnm= 1.156
# # Pot 4 Z= 8 Rmt= 0.996 Rnm= 1.099
# # Gam_ch=1.729E+00 H-L exch Vi= 0.000E+00 Vr= 0.000E+00
# # Mu=-7.140E+00eV kf=2.291E+00 Vint=-1.594E+01eV Rs_int= 1.583
# FMS rfms= 9.0000
# # PATH  Rmax=-1.000,  Keep_limit= 0.00, Heap_limit 0.00  Pwcrit= 2.50%
#  S02=0.950  Temp=   0.00  Debye_temp=   0.00  Global_sig2= 0.00000
#  Energy zero shift, vr, vi    0.00000E+00   0.00000E+00
#  Curved wave amplitude ratio filter   4.000%
#     file         sig2 tot  cw amp ratio   deg  nlegs   reff  inp sig2
#     0/   0 paths used
#  xsedge+ 50, used to normalize mu           2.4723E-04
#  -----------------------------------------------------------------------
#  omega    e    k    mu    mu0     chi     @#
    8983.396    -10.950  -1.000  3.48648E-02  5.07187E-02 -1.58538E-02
    8983.694    -10.652  -0.960  3.64953E-02  5.43311E-02 -1.78358E-02
    8983.981    -10.365  -0.920  3.82236E-02  5.83402E-02 -2.01167E-02
    8984.255    -10.091  -0.880  4.00573E-02  6.28043E-02 -2.27470E-02
    8984.517     -9.829  -0.840  4.20048E-02  6.77907E-02 -2.57859E-02
    8984.767     -9.579  -0.800  4.40754E-02  7.33779E-02 -2.93025E-02
    8985.005     -9.341  -0.760  4.62790E-02  7.96555E-02 -3.33765E-02
    8985.231     -9.116  -0.720  4.86267E-02  8.67251E-02 -3.80984E-02
    8985.444     -8.902  -0.680  5.11295E-02  9.46982E-02 -4.35687E-02
    8985.645     -8.701  -0.640  5.37983E-02  1.03693E-01 -4.98942E-02
    8985.834     -8.512  -0.600  5.66423E-02  1.13824E-01 -5.71814E-02
    8986.011     -8.335  -0.560  5.96663E-02  1.25190E-01 -6.55240E-02
    8986.175     -8.171  -0.520  6.28670E-02  1.37851E-01 -7.49836E-02
    8986.328     -8.018  -0.480  6.62277E-02  1.51791E-01 -8.55630E-02
    8986.468     -7.878  -0.440  6.97132E-02  1.66889E-01 -9.71754E-02
    8986.596     -7.750  -0.400  7.32648E-02  1.82882E-01 -1.09617E-01
    8986.712     -7.634  -0.360  7.68015E-02  1.99360E-01 -1.22559E-01
    8986.816     -7.531  -0.320  8.02265E-02  2.15789E-01 -1.35562E-01
    8986.907     -7.439  -0.280  8.34401E-02  2.31574E-01 -1.48133E-01
    8986.986     -7.360  -0.240  8.63538E-02  2.46144E-01 -1.59790E-01
    8987.053     -7.293  -0.200  8.88991E-02  2.59022E-01 -1.70123E-01
    8987.108     -7.238  -0.160  9.10290E-02  2.69856E-01 -1.78827E-01
    8987.151     -7.195  -0.120  9.27139E-02  2.78422E-01 -1.85708E-01
    8987.181     -7.165  -0.080  9.39360E-02  2.84594E-01 -1.90658E-01
    8987.206     -7.140   0.000  9.49412E-02  2.89553E-01 -1.94612E-01
    8987.261     -7.086   0.120  9.72666E-02  3.00754E-01 -2.03488E-01
    8987.303     -7.043   0.160  9.90050E-02  3.09448E-01 -2.10443E-01
    8987.358     -6.988   0.200  1.01213E-01  3.20556E-01 -2.19343E-01
    8987.425     -6.921   0.240  1.03898E-01  3.33910E-01 -2.30011E-01
    8987.504     -6.842   0.280  1.07104E-01  3.49289E-01 -2.42185E-01
    8987.596     -6.750   0.320  1.10813E-01  3.66248E-01 -2.55434E-01
    8987.699     -6.647   0.360  1.15125E-01  3.84352E-01 -2.69227E-01
    8987.815     -6.531   0.400  1.20150E-01  4.03073E-01 -2.82923E-01
    8987.943     -6.403   0.440  1.26042E-01  4.21925E-01 -2.95883E-01
    8988.084     -6.263   0.480  1.33062E-01  4.40551E-01 -3.07489E-01
    8988.236     -6.110   0.520  1.41471E-01  4.58744E-01 -3.17273E-01
    8988.401     -5.946   0.560  1.51525E-01  4.76338E-01 -3.24813E-01
    8988.577     -5.769   0.600  1.63493E-01  4.93364E-01 -3.29871E-01
    8988.766     -5.580   0.640  1.77580E-01  5.09837E-01 -3.32257E-01
    8988.967     -5.379   0.680  1.93957E-01  5.25839E-01 -3.31883E-01
    8989.181     -5.165   0.720  2.12833E-01  5.41450E-01 -3.28617E-01
    8989.406     -4.940   0.760  2.34576E-01  5.56765E-01 -3.22188E-01
    8989.644     -4.702   0.800  2.59655E-01  5.71850E-01 -3.12195E-01
    8989.894     -4.452   0.840  2.88403E-01  5.86742E-01 -2.98339E-01
    8990.156     -4.190   0.880  3.20582E-01  6.01524E-01 -2.80942E-01
    8990.430     -3.916   0.920  3.54917E-01  6.16207E-01 -2.61290E-01
    8990.717     -3.629   0.960  3.89454E-01  6.30832E-01 -2.41378E-01
    8991.016     -3.330   1.000  4.22785E-01  6.45389E-01 -2.22604E-01
    8991.327     -3.020   1.040  4.55088E-01  6.59899E-01 -2.04812E-01
    8991.650     -2.696   1.080  4.87080E-01  6.74338E-01 -1.87257E-01
    8991.985     -2.361   1.120  5.19333E-01  6.88715E-01 -1.69382E-01
    8992.332     -2.014   1.160  5.52927E-01  7.03014E-01 -1.50087E-01
    8992.692     -1.654   1.200  5.89055E-01  7.17196E-01 -1.28141E-01
    8993.064     -1.282   1.240  6.26542E-01  7.31258E-01 -1.04716E-01
    8993.448     -0.898   1.280  6.60486E-01  7.45156E-01 -8.46693E-02
    8993.844     -0.502   1.320  6.87163E-01  7.58881E-01 -7.17178E-02
    8994.253     -0.094   1.360  7.11238E-01  7.72405E-01 -6.11665E-02
    8994.673      0.327   1.400  7.40011E-01  7.85699E-01 -4.56881E-02
    8995.106      0.760   1.440  7.71413E-01  7.98713E-01 -2.73002E-02
    8995.551      1.205   1.480  7.95260E-01  8.11458E-01 -1.61983E-02
    8996.008      1.662   1.520  8.05160E-01  8.23882E-01 -1.87219E-02
    8996.478      2.132   1.560  8.05839E-01  8.35956E-01 -3.01175E-02
    8996.959      2.613   1.600  8.09958E-01  8.47691E-01 -3.77336E-02
    8997.453      3.107   1.640  8.27728E-01  8.59038E-01 -3.13101E-02
    8997.959      3.613   1.680  8.62814E-01  8.69970E-01 -7.15627E-03
    8998.477      4.131   1.720  9.17869E-01  8.80498E-01  3.73704E-02
    8999.008      4.661   1.760  9.94334E-01  8.90599E-01  1.03735E-01
    8999.550      5.204   1.800  1.09184E+00  9.00245E-01  1.91595E-01
    9000.105      5.759   1.840  1.20186E+00  9.09435E-01  2.92423E-01
    9000.672      6.326   1.880  1.30007E+00  9.18186E-01  3.81882E-01
    9001.251      6.905   1.920  1.35031E+00  9.26455E-01  4.23854E-01
    9001.842      7.496   1.960  1.32808E+00  9.34285E-01  3.93796E-01
    9002.446      8.099   2.000  1.26194E+00  9.41634E-01  3.20302E-01
    9003.061      8.715   2.040  1.20342E+00  9.48524E-01  2.54891E-01
    9003.689      9.343   2.080  1.16593E+00  9.54959E-01  2.10974E-01
    9004.329      9.983   2.120  1.14089E+00  9.60943E-01  1.79944E-01
    9004.982     10.635   2.160  1.12681E+00  9.66498E-01  1.60310E-01
    9005.646     11.300   2.200  1.12768E+00  9.71611E-01  1.56072E-01
    9006.323     11.977   2.240  1.13849E+00  9.76288E-01  1.62197E-01
    9007.012     12.665   2.280  1.14411E+00  9.80576E-01  1.63536E-01
    9007.713     13.366   2.320  1.13220E+00  9.84462E-01  1.47733E-01
    9008.426     14.080   2.360  1.10717E+00  9.87993E-01  1.19178E-01
    9009.151     14.805   2.400  1.08236E+00  9.91137E-01  9.12190E-02
    9009.889     15.543   2.440  1.06311E+00  9.93922E-01  6.91874E-02
    9010.639     16.292   2.480  1.04897E+00  9.96397E-01  5.25741E-02
    9011.401     17.054   2.520  1.03889E+00  9.98551E-01  4.03370E-02
    9012.175     17.829   2.560  1.03242E+00  1.00041E+00  3.20065E-02
    9012.961     18.615   2.600  1.02953E+00  1.00199E+00  2.75340E-02
    9013.760     19.414   2.640  1.02768E+00  1.00329E+00  2.43833E-02
    9014.571     20.224   2.680  1.02073E+00  1.00437E+00  1.63614E-02
    9015.394     21.047   2.720  1.00628E+00  1.00521E+00  1.07174E-03
    9016.229     21.882   2.760  9.90047E-01  1.00581E+00 -1.57674E-02
    9017.076     22.730   2.800  9.74043E-01  1.00624E+00 -3.22007E-02
    9017.936     23.589   2.840  9.59671E-01  1.00650E+00 -4.68296E-02
    9018.807     24.461   2.880  9.47423E-01  1.00659E+00 -5.91692E-02
    9019.691     25.345   2.920  9.36571E-01  1.00653E+00 -6.99577E-02
    9020.587     26.241   2.960  9.26304E-01  1.00633E+00 -8.00312E-02
    9021.496     27.149   3.000  9.16344E-01  1.00602E+00 -8.96741E-02
    9022.416     28.070   3.040  9.07153E-01  1.00559E+00 -9.84329E-02
    9023.349     29.003   3.080  8.99545E-01  1.00506E+00 -1.05519E-01
    9024.294     29.947   3.120  8.94000E-01  1.00446E+00 -1.10461E-01
    9025.251     30.905   3.160  8.90445E-01  1.00380E+00 -1.13357E-01
    9026.220     31.874   3.200  8.88551E-01  1.00307E+00 -1.14521E-01
    9027.201     32.855   3.240  8.88086E-01  1.00230E+00 -1.14213E-01
    9028.195     33.849   3.280  8.88679E-01  1.00148E+00 -1.12805E-01
    9029.201     34.855   3.320  8.90451E-01  1.00065E+00 -1.10203E-01
    9030.219     35.873   3.360  8.93686E-01  9.99793E-01 -1.06106E-01
    9031.249     36.903   3.400  8.98698E-01  9.98902E-01 -1.00204E-01
    9032.292     37.945   3.440  9.05477E-01  9.98029E-01 -9.25526E-02
    9033.346     39.000   3.480  9.13762E-01  9.97159E-01 -8.33968E-02
    9034.413     40.067   3.520  9.23228E-01  9.96293E-01 -7.30652E-02
    9035.492     41.146   3.560  9.33502E-01  9.95454E-01 -6.19517E-02
    9036.583     42.237   3.600  9.44394E-01  9.94623E-01 -5.02298E-02
    9037.686     43.340   3.640  9.55914E-01  9.93825E-01 -3.79104E-02
    9038.802     44.456   3.680  9.67958E-01  9.93040E-01 -2.50820E-02
    9039.930     45.584   3.720  9.80233E-01  9.92312E-01 -1.20795E-02
    9041.070     46.724   3.760  9.92155E-01  9.91603E-01  5.52259E-04
    9042.222     47.876   3.800  1.00313E+00  9.90953E-01  1.21734E-02
    9043.386     49.040   3.840  1.01261E+00  9.90323E-01  2.22832E-02
    9044.563     50.217   3.880  1.02054E+00  9.89758E-01  3.07850E-02
    9045.751     51.405   3.920  1.02709E+00  9.89235E-01  3.78586E-02
    9046.952     52.606   3.960  1.03247E+00  9.88756E-01  4.37111E-02
    9048.165     53.819   4.000  1.03691E+00  9.88341E-01  4.85686E-02
    9049.391     55.045   4.040  1.04056E+00  9.87950E-01  5.26129E-02
    9050.628     56.282   4.080  1.04366E+00  9.87627E-01  5.60308E-02
    9051.878     57.532   4.120  1.04642E+00  9.87371E-01  5.90495E-02
    9053.140     58.794   4.160  1.04904E+00  9.87160E-01  6.18789E-02
    9054.414     60.068   4.200  1.05154E+00  9.86993E-01  6.45475E-02
    9055.700     61.354   4.240  1.05367E+00  9.86869E-01  6.68034E-02
    9056.999     62.652   4.280  1.05507E+00  9.86788E-01  6.82797E-02
    9058.309     63.963   4.320  1.05536E+00  9.86774E-01  6.85843E-02
    9059.632     65.286   4.360  1.05421E+00  9.86802E-01  6.74069E-02
    9060.967     66.621   4.400  1.05146E+00  9.86871E-01  6.45880E-02
    9062.314     67.968   4.440  1.04713E+00  9.86982E-01  6.01458E-02
    9063.674     69.327   4.480  1.04134E+00  9.87132E-01  5.42112E-02
    9065.045     70.699   4.520  1.03439E+00  9.87321E-01  4.70642E-02
    9066.429     72.083   4.560  1.02676E+00  9.87549E-01  3.92113E-02
    9067.825     73.479   4.600  1.01904E+00  9.87815E-01  3.12242E-02
    9069.233     74.887   4.640  1.01175E+00  9.88115E-01  2.36388E-02
    9070.654     76.307   4.680  1.00516E+00  9.88428E-01  1.67365E-02
    9072.086     77.740   4.720  9.99200E-01  9.88774E-01  1.04261E-02
    9073.531     79.185   4.760  9.93581E-01  9.89151E-01  4.42978E-03
    9074.988     80.642   4.800  9.88084E-01  9.89537E-01 -1.45231E-03
    9076.457     82.111   4.840  9.82774E-01  9.89929E-01 -7.15455E-03
    9077.938     83.592   4.880  9.78040E-01  9.90348E-01 -1.23076E-02
    9079.432     85.086   4.920  9.74387E-01  9.90773E-01 -1.63861E-02
    9080.937     86.591   4.960  9.72328E-01  9.91224E-01 -1.88963E-02
    9082.455     88.109   5.000  9.72090E-01  9.91654E-01 -1.95640E-02
    9083.985     89.639   5.040  9.73502E-01  9.92104E-01 -1.86016E-02
    9085.528     91.182   5.080  9.75853E-01  9.92532E-01 -1.66791E-02
    9087.082     92.736   5.120  9.78184E-01  9.92956E-01 -1.47722E-02
    9088.649     94.303   5.160  9.79586E-01  9.93397E-01 -1.38114E-02
    9090.228     95.882   5.200  9.79481E-01  9.93791E-01 -1.43098E-02
    9091.819     97.473   5.240  9.77920E-01  9.94199E-01 -1.62790E-02
    9093.422     99.076   5.280  9.75205E-01  9.94578E-01 -1.93733E-02
    9095.037    100.691   5.320  9.71710E-01  9.94947E-01 -2.32369E-02
    9096.665    102.319   5.360  9.67649E-01  9.95283E-01 -2.76341E-02
    9098.305    103.959   5.400  9.63233E-01  9.95586E-01 -3.23523E-02
    9099.957    105.611   5.440  9.58874E-01  9.95877E-01 -3.70026E-02
    9101.621    107.275   5.480  9.55116E-01  9.96156E-01 -4.10399E-02
    9103.297    108.951   5.520  9.52444E-01  9.96376E-01 -4.39323E-02
    9104.986    110.640   5.560  9.51153E-01  9.96579E-01 -4.54265E-02
    9106.687    112.341   5.600  9.51089E-01  9.96723E-01 -4.56333E-02
    9108.400    114.054   5.640  9.51974E-01  9.96850E-01 -4.48762E-02
    9110.125    115.779   5.680  9.53575E-01  9.96942E-01 -4.33671E-02
    9111.862    117.516   5.720  9.56024E-01  9.97019E-01 -4.09949E-02
    9113.612    119.266   5.760  9.59651E-01  9.97033E-01 -3.73816E-02
    9115.374    121.027   5.800  9.64804E-01  9.97004E-01 -3.22002E-02
    9117.148    122.801   5.840  9.71442E-01  9.96939E-01 -2.54972E-02
    9118.934    124.587   5.880  9.79030E-01  9.96859E-01 -1.78293E-02
    9120.732    126.386   5.920  9.86614E-01  9.96716E-01 -1.01024E-02
    9122.542    128.196   5.960  9.93331E-01  9.96532E-01 -3.20099E-03
    9124.365    130.019   6.000  9.98859E-01  9.96312E-01  2.54669E-03
