# # comment:                                                     FEFF 9.9.1  
# # Source:
# # Structure
# # Reduced
# # space
# # abc:
# # angles:
# # sites:
# # POT  SCF 100  7.0000   0, screened core-hole, AFOLP (folp(0)= 1.150)
# # Abs   Z=29 Rmt= 1.206 Rnm= 1.310 K  shell
# # Pot 1 Z=13 Rmt= 1.210 Rnm= 1.329
# # Pot 2 Z=29 Rmt= 1.217 Rnm= 1.317
# # Pot 3 Z= 8 Rmt= 0.984 Rnm= 1.094
# # Gam_ch=1.729E+00 H-L exch Vi= 0.000E+00 Vr= 0.000E+00
# # Mu=-9.577E+00eV kf=2.213E+00 Vint=-1.663E+01eV Rs_int= 1.639
# FMS rfms= 9.0000
# # PATH  Rmax=-1.000,  Keep_limit= 0.00, Heap_limit 0.00  Pwcrit= 2.50%
#  S02=0.950  Temp=   0.00  Debye_temp=   0.00  Global_sig2= 0.00000
#  Energy zero shift, vr, vi    0.00000E+00   0.00000E+00
#  Curved wave amplitude ratio filter   4.000%
#     file         sig2 tot  cw amp ratio   deg  nlegs   reff  inp sig2
#     0/   0 paths used
#  xsedge+ 50, used to normalize mu           2.4841E-04
#  -----------------------------------------------------------------------
#  omega    e    k    mu    mu0     chi     @#
    8983.543    -13.387  -1.000  2.67336E-02  4.62050E-02 -1.94714E-02
    8983.841    -13.089  -0.960  2.77253E-02  4.93430E-02 -2.16177E-02
    8984.128    -12.802  -0.920  2.87614E-02  5.28118E-02 -2.40504E-02
    8984.402    -12.528  -0.880  2.98450E-02  5.66588E-02 -2.68138E-02
    8984.664    -12.266  -0.840  3.09797E-02  6.09386E-02 -2.99589E-02
    8984.914    -12.016  -0.800  3.21700E-02  6.57146E-02 -3.35447E-02
    8985.152    -11.778  -0.760  3.34206E-02  7.10592E-02 -3.76386E-02
    8985.378    -11.553  -0.720  3.47374E-02  7.70540E-02 -4.23166E-02
    8985.591    -11.339  -0.680  3.61264E-02  8.37886E-02 -4.76622E-02
    8985.792    -11.138  -0.640  3.75941E-02  9.13572E-02 -5.37631E-02
    8985.981    -10.949  -0.600  3.91464E-02  9.98520E-02 -6.07056E-02
    8986.158    -10.772  -0.560  4.07870E-02  1.09351E-01 -6.85638E-02
    8986.322    -10.608  -0.520  4.25160E-02  1.19899E-01 -7.73831E-02
    8986.475    -10.455  -0.480  4.43258E-02  1.31483E-01 -8.71577E-02
    8986.615    -10.315  -0.440  4.61988E-02  1.44003E-01 -9.78045E-02
    8986.743    -10.187  -0.400  4.81040E-02  1.57245E-01 -1.09141E-01
    8986.859    -10.071  -0.360  4.99975E-02  1.70873E-01 -1.20876E-01
    8986.963     -9.968  -0.320  5.18262E-02  1.84455E-01 -1.32629E-01
    8987.054     -9.876  -0.280  5.35354E-02  1.97506E-01 -1.43971E-01
    8987.133     -9.797  -0.240  5.50773E-02  2.09561E-01 -1.54483E-01
    8987.200     -9.730  -0.200  5.64166E-02  2.20225E-01 -1.63808E-01
    8987.255     -9.675  -0.160  5.75304E-02  2.29207E-01 -1.71677E-01
    8987.298     -9.632  -0.120  5.84048E-02  2.36317E-01 -1.77912E-01
    8987.328     -9.602  -0.080  5.90335E-02  2.41445E-01 -1.82412E-01
    8987.353     -9.577   0.000  5.95524E-02  2.45571E-01 -1.86018E-01
    8987.408     -9.523   0.120  6.10842E-02  2.54888E-01 -1.93804E-01
    8987.450     -9.480   0.160  6.21324E-02  2.62128E-01 -1.99996E-01
    8987.505     -9.425   0.200  6.34332E-02  2.71416E-01 -2.07982E-01
    8987.572     -9.358   0.240  6.49283E-02  2.82625E-01 -2.17697E-01
    8987.651     -9.279   0.280  6.65773E-02  2.95584E-01 -2.29007E-01
    8987.743     -9.187   0.320  6.83056E-02  3.09963E-01 -2.41657E-01
    8987.846     -9.084   0.360  7.00775E-02  3.25418E-01 -2.55341E-01
    8987.962     -8.968   0.400  7.18757E-02  3.41563E-01 -2.69687E-01
    8988.090     -8.840   0.440  7.36632E-02  3.58021E-01 -2.84358E-01
    8988.230     -8.700   0.480  7.55192E-02  3.74517E-01 -2.98998E-01
    8988.383     -8.547   0.520  7.74979E-02  3.90876E-01 -3.13378E-01
    8988.547     -8.383   0.560  7.96861E-02  4.07019E-01 -3.27333E-01
    8988.724     -8.206   0.600  8.21767E-02  4.22921E-01 -3.40744E-01
    8988.913     -8.017   0.640  8.51023E-02  4.38621E-01 -3.53519E-01
    8989.114     -7.816   0.680  8.85687E-02  4.54166E-01 -3.65597E-01
    8989.328     -7.602   0.720  9.27162E-02  4.69629E-01 -3.76913E-01
    8989.553     -7.377   0.760  9.77234E-02  4.85042E-01 -3.87319E-01
    8989.791     -7.139   0.800  1.03864E-01  5.00489E-01 -3.96625E-01
    8990.041     -6.889   0.840  1.11502E-01  5.16006E-01 -4.04503E-01
    8990.303     -6.627   0.880  1.21075E-01  5.31596E-01 -4.10521E-01
    8990.577     -6.353   0.920  1.33296E-01  5.47274E-01 -4.13979E-01
    8990.864     -6.066   0.960  1.49070E-01  5.63085E-01 -4.14015E-01
    8991.163     -5.767   1.000  1.69599E-01  5.78985E-01 -4.09386E-01
    8991.474     -5.457   1.040  1.96490E-01  5.94984E-01 -3.98494E-01
    8991.797     -5.133   1.080  2.32102E-01  6.11046E-01 -3.78944E-01
    8992.132     -4.798   1.120  2.79494E-01  6.27171E-01 -3.47677E-01
    8992.479     -4.451   1.160  3.39961E-01  6.43332E-01 -3.03371E-01
    8992.839     -4.091   1.200  4.07556E-01  6.59461E-01 -2.51906E-01
    8993.211     -3.719   1.240  4.67425E-01  6.75547E-01 -2.08122E-01
    8993.595     -3.335   1.280  5.01874E-01  6.91557E-01 -1.89683E-01
    8993.991     -2.939   1.320  5.05091E-01  7.07435E-01 -2.02344E-01
    8994.400     -2.530   1.360  4.93165E-01  7.23145E-01 -2.29980E-01
    8994.820     -2.110   1.400  4.83910E-01  7.38670E-01 -2.54760E-01
    8995.253     -1.677   1.440  4.84418E-01  7.53935E-01 -2.69518E-01
    8995.698     -1.232   1.480  4.99608E-01  7.68943E-01 -2.69335E-01
    8996.155     -0.775   1.520  5.35624E-01  7.83616E-01 -2.47992E-01
    8996.625     -0.305   1.560  5.88160E-01  7.97939E-01 -2.09779E-01
    8997.106      0.176   1.600  6.41361E-01  8.11878E-01 -1.70517E-01
    8997.600      0.670   1.640  6.80410E-01  8.25417E-01 -1.45008E-01
    8998.106      1.176   1.680  7.05205E-01  8.38506E-01 -1.33301E-01
    8998.624      1.694   1.720  7.30635E-01  8.51132E-01 -1.20497E-01
    8999.154      2.224   1.760  7.63135E-01  8.63266E-01 -1.00132E-01
    8999.697      2.767   1.800  7.97911E-01  8.74902E-01 -7.69905E-02
    9000.252      3.322   1.840  8.42104E-01  8.86010E-01 -4.39062E-02
    9000.819      3.889   1.880  9.18773E-01  8.96606E-01  2.21669E-02
    9001.398      4.468   1.920  1.03661E+00  9.06667E-01  1.29938E-01
    9001.989      5.059   1.960  1.16929E+00  9.16172E-01  2.53116E-01
    9002.593      5.662   2.000  1.26234E+00  9.25139E-01  3.37206E-01
    9003.208      6.278   2.040  1.29249E+00  9.33568E-01  3.58921E-01
    9003.836      6.906   2.080  1.28683E+00  9.41441E-01  3.45386E-01
    9004.476      7.546   2.120  1.25213E+00  9.48784E-01  3.03348E-01
    9005.129      8.198   2.160  1.18917E+00  9.55619E-01  2.33553E-01
    9005.793      8.863   2.200  1.13210E+00  9.61934E-01  1.70167E-01
    9006.470      9.540   2.240  1.10051E+00  9.67734E-01  1.32781E-01
    9007.158     10.228   2.280  1.09017E+00  9.73065E-01  1.17106E-01
    9007.860     10.929   2.320  1.09741E+00  9.77917E-01  1.19490E-01
    9008.573     11.643   2.360  1.12672E+00  9.82320E-01  1.44403E-01
    9009.298     12.368   2.400  1.17339E+00  9.86280E-01  1.87106E-01
    9010.036     13.106   2.440  1.21380E+00  9.89828E-01  2.23973E-01
    9010.786     13.855   2.480  1.23051E+00  9.92975E-01  2.37532E-01
    9011.548     14.617   2.520  1.22882E+00  9.95749E-01  2.33071E-01
    9012.322     15.392   2.560  1.22288E+00  9.98161E-01  2.24714E-01
    9013.108     16.178   2.600  1.21880E+00  1.00024E+00  2.18553E-01
    9013.907     16.977   2.640  1.20638E+00  1.00200E+00  2.04378E-01
    9014.717     17.787   2.680  1.18288E+00  1.00347E+00  1.79405E-01
    9015.540     18.610   2.720  1.14381E+00  1.00464E+00  1.39169E-01
    9016.376     19.445   2.760  1.09513E+00  1.00558E+00  8.95555E-02
    9017.223     20.293   2.800  1.04459E+00  1.00627E+00  3.83177E-02
    9018.082     21.152   2.840  9.99116E-01  1.00673E+00 -7.61752E-03
    9018.954     22.024   2.880  9.62341E-01  1.00699E+00 -4.46524E-02
    9019.838     22.908   2.920  9.34422E-01  1.00708E+00 -7.26579E-02
    9020.734     23.804   2.960  9.14253E-01  1.00700E+00 -9.27493E-02
    9021.643     24.712   3.000  9.00461E-01  1.00677E+00 -1.06307E-01
    9022.563     25.633   3.040  8.92039E-01  1.00641E+00 -1.14366E-01
    9023.496     26.566   3.080  8.88451E-01  1.00592E+00 -1.17470E-01
    9024.441     27.510   3.120  8.89125E-01  1.00532E+00 -1.16198E-01
    9025.398     28.468   3.160  8.92668E-01  1.00466E+00 -1.11991E-01
    9026.367     29.437   3.200  8.96969E-01  1.00389E+00 -1.06926E-01
    9027.348     30.418   3.240  9.00153E-01  1.00308E+00 -1.02923E-01
    9028.342     31.412   3.280  9.00745E-01  1.00219E+00 -1.01444E-01
    9029.348     32.418   3.320  8.98630E-01  1.00128E+00 -1.02648E-01
    9030.366     33.436   3.360  8.94747E-01  1.00031E+00 -1.05564E-01
    9031.396     34.466   3.400  8.90652E-01  9.99351E-01 -1.08698E-01
    9032.438     35.508   3.440  8.87606E-01  9.98342E-01 -1.10735E-01
    9033.493     36.563   3.480  8.86618E-01  9.97349E-01 -1.10732E-01
    9034.560     37.630   3.520  8.88171E-01  9.96356E-01 -1.08186E-01
    9035.639     38.709   3.560  8.92148E-01  9.95366E-01 -1.03218E-01
    9036.730     39.800   3.600  8.98081E-01  9.94381E-01 -9.63008E-02
    9037.833     40.903   3.640  9.05496E-01  9.93427E-01 -8.79309E-02
    9038.949     42.019   3.680  9.13939E-01  9.92504E-01 -7.85651E-02
    9040.077     43.147   3.720  9.22842E-01  9.91595E-01 -6.87531E-02
    9041.217     44.287   3.760  9.31689E-01  9.90723E-01 -5.90346E-02
    9042.369     45.439   3.800  9.40036E-01  9.89910E-01 -4.98741E-02
    9043.533     46.603   3.840  9.47675E-01  9.89115E-01 -4.14406E-02
    9044.710     47.780   3.880  9.54841E-01  9.88362E-01 -3.35206E-02
    9045.898     48.968   3.920  9.62290E-01  9.87673E-01 -2.53833E-02
    9047.099     50.169   3.960  9.70928E-01  9.87027E-01 -1.60987E-02
    9048.312     51.382   4.000  9.81711E-01  9.86424E-01 -4.71308E-03
    9049.538     52.608   4.040  9.95441E-01  9.85866E-01  9.57529E-03
    9050.775     53.845   4.080  1.01228E+00  9.85373E-01  2.69053E-02
    9052.025     55.095   4.120  1.03116E+00  9.84926E-01  4.62292E-02
    9053.287     56.357   4.160  1.04985E+00  9.84524E-01  6.53244E-02
    9054.561     57.631   4.200  1.06538E+00  9.84189E-01  8.11957E-02
    9055.847     58.917   4.240  1.07493E+00  9.83898E-01  9.10285E-02
    9057.145     60.215   4.280  1.07712E+00  9.83652E-01  9.34651E-02
    9058.456     61.526   4.320  1.07265E+00  9.83449E-01  8.92002E-02
    9059.779     62.849   4.360  1.06368E+00  9.83312E-01  8.03684E-02
    9061.114     64.184   4.400  1.05279E+00  9.83220E-01  6.95700E-02
    9062.461     65.531   4.440  1.04225E+00  9.83171E-01  5.90833E-02
    9063.821     66.890   4.480  1.03371E+00  9.83184E-01  5.05301E-02
    9065.192     68.262   4.520  1.02801E+00  9.83218E-01  4.47895E-02
    9066.576     69.646   4.560  1.02516E+00  9.83290E-01  4.18671E-02
    9067.972     71.042   4.600  1.02429E+00  9.83423E-01  4.08666E-02
    9069.380     72.450   4.640  1.02397E+00  9.83571E-01  4.04032E-02
    9070.800     73.870   4.680  1.02297E+00  9.83757E-01  3.92081E-02
    9072.233     75.303   4.720  1.02054E+00  9.83980E-01  3.65604E-02
    9073.678     76.748   4.760  1.01668E+00  9.84238E-01  3.24433E-02
    9075.135     78.205   4.800  1.01200E+00  9.84528E-01  2.74680E-02
    9076.604     79.674   4.840  1.00730E+00  9.84806E-01  2.24974E-02
    9078.085     81.155   4.880  1.00333E+00  9.85135E-01  1.81967E-02
    9079.579     82.649   4.920  1.00018E+00  9.85473E-01  1.47045E-02
    9081.084     84.154   4.960  9.97395E-01  9.85817E-01  1.15774E-02
    9082.602     85.672   5.000  9.94269E-01  9.86185E-01  8.08411E-03
    9084.132     87.202   5.040  9.90207E-01  9.86534E-01  3.67337E-03
    9085.675     88.745   5.080  9.85335E-01  9.86908E-01 -1.57223E-03
    9087.229     90.299   5.120  9.80470E-01  9.87283E-01 -6.81251E-03
    9088.796     91.866   5.160  9.76803E-01  9.87657E-01 -1.08544E-02
    9090.375     93.445   5.200  9.75259E-01  9.88030E-01 -1.27713E-02
    9091.966     95.036   5.240  9.75899E-01  9.88399E-01 -1.24994E-02
    9093.569     96.639   5.280  9.77955E-01  9.88739E-01 -1.07839E-02
    9095.184     98.254   5.320  9.80366E-01  9.89074E-01 -8.70785E-03
    9096.812     99.882   5.360  9.82221E-01  9.89405E-01 -7.18396E-03
    9098.452    101.522   5.400  9.82914E-01  9.89729E-01 -6.81511E-03
    9100.104    103.174   5.440  9.82047E-01  9.90019E-01 -7.97236E-03
    9101.768    104.838   5.480  9.79395E-01  9.90277E-01 -1.08821E-02
    9103.444    106.514   5.520  9.74876E-01  9.90523E-01 -1.56473E-02
    9105.133    108.203   5.560  9.68531E-01  9.90738E-01 -2.22063E-02
    9106.834    109.904   5.600  9.60693E-01  9.90940E-01 -3.02469E-02
    9108.547    111.617   5.640  9.51904E-01  9.91107E-01 -3.92035E-02
    9110.272    113.342   5.680  9.42911E-01  9.91237E-01 -4.83257E-02
    9112.009    115.079   5.720  9.34545E-01  9.91330E-01 -5.67844E-02
    9113.759    116.829   5.760  9.27751E-01  9.91408E-01 -6.36562E-02
    9115.521    118.590   5.800  9.23492E-01  9.91427E-01 -6.79355E-02
    9117.294    120.364   5.840  9.22684E-01  9.91432E-01 -6.87477E-02
    9119.081    122.150   5.880  9.25738E-01  9.91400E-01 -6.56620E-02
    9120.879    123.949   5.920  9.32651E-01  9.91332E-01 -5.86808E-02
    9122.689    125.759   5.960  9.43210E-01  9.91223E-01 -4.80134E-02
    9124.512    127.582   6.000  9.57205E-01  9.91085E-01 -3.38794E-02
