# # comment:                                                     FEFF 9.9.1  
# # Source:
# # Structure
# # Reduced
# # space
# # abc:
# # angles:111.293927
# # sites:
# # POT  SCF 100  7.0000   0, screened core-hole, AFOLP (folp(0)= 1.150)
# # Abs   Z=29 Rmt= 1.273 Rnm= 1.342 K  shell
# # Pot 1 Z= 3 Rmt= 1.329 Rnm= 1.395
# # Pot 2 Z=29 Rmt= 1.276 Rnm= 1.343
# # Pot 3 Z=15 Rmt= 0.940 Rnm= 1.154
# # Pot 4 Z= 8 Rmt= 0.900 Rnm= 1.042
# # Gam_ch=1.729E+00 H-L exch Vi= 0.000E+00 Vr= 0.000E+00
# # Mu=-6.036E+00eV kf=2.425E+00 Vint=-1.718E+01eV Rs_int= 1.495
# FMS rfms= 9.0000
# # PATH  Rmax=-1.000,  Keep_limit= 0.00, Heap_limit 0.00  Pwcrit= 2.50%
#  S02=0.950  Temp=   0.00  Debye_temp=   0.00  Global_sig2= 0.00000
#  Energy zero shift, vr, vi    0.00000E+00   0.00000E+00
#  Curved wave amplitude ratio filter   4.000%
#     file         sig2 tot  cw amp ratio   deg  nlegs   reff  inp sig2
#     0/   0 paths used
#  xsedge+ 50, used to normalize mu           2.4770E-04
#  -----------------------------------------------------------------------
#  omega    e    k    mu    mu0     chi     @#
    8983.559     -9.846  -1.000  4.75351E-02  5.55762E-02 -8.04119E-03
    8983.858     -9.547  -0.960  5.07030E-02  5.97010E-02 -8.99795E-03
    8984.144     -9.261  -0.920  5.42155E-02  6.42941E-02 -1.00786E-02
    8984.419     -8.986  -0.880  5.81263E-02  6.94255E-02 -1.12992E-02
    8984.681     -8.724  -0.840  6.24995E-02  7.51768E-02 -1.26773E-02
    8984.931     -8.474  -0.800  6.74107E-02  8.16427E-02 -1.42320E-02
    8985.168     -8.237  -0.760  7.29483E-02  8.89321E-02 -1.59838E-02
    8985.394     -8.011  -0.720  7.92142E-02  9.71680E-02 -1.79538E-02
    8985.607     -7.798  -0.680  8.63229E-02  1.06486E-01 -2.01635E-02
    8985.808     -7.597  -0.640  9.43974E-02  1.17031E-01 -2.26335E-02
    8985.997     -7.408  -0.600  1.03561E-01  1.28943E-01 -2.53821E-02
    8986.174     -7.231  -0.560  1.13919E-01  1.42343E-01 -2.84244E-02
    8986.339     -7.066  -0.520  1.25535E-01  1.57305E-01 -3.17699E-02
    8986.491     -6.914  -0.480  1.38392E-01  1.73814E-01 -3.54215E-02
    8986.631     -6.774  -0.440  1.52352E-01  1.91725E-01 -3.93729E-02
    8986.759     -6.646  -0.400  1.67117E-01  2.10722E-01 -4.36047E-02
    8986.875     -6.530  -0.360  1.82231E-01  2.30310E-01 -4.80783E-02
    8986.979     -6.426  -0.320  1.97118E-01  2.49845E-01 -5.27268E-02
    8987.070     -6.335  -0.280  2.11167E-01  2.68612E-01 -5.74456E-02
    8987.150     -6.255  -0.240  2.23838E-01  2.85927E-01 -6.20898E-02
    8987.217     -6.188  -0.200  2.34738E-01  3.01219E-01 -6.64806E-02
    8987.271     -6.134  -0.160  2.43647E-01  3.14071E-01 -7.04242E-02
    8987.314     -6.091  -0.120  2.50488E-01  3.24223E-01 -7.37351E-02
    8987.345     -6.060  -0.080  2.55275E-01  3.31531E-01 -7.62557E-02
    8987.369     -6.036   0.000  2.58965E-01  3.37400E-01 -7.84346E-02
    8987.424     -5.981   0.120  2.67387E-01  3.50630E-01 -8.32427E-02
    8987.467     -5.938   0.160  2.73738E-01  3.60877E-01 -8.71393E-02
    8987.521     -5.884   0.200  2.81573E-01  3.73949E-01 -9.23768E-02
    8987.588     -5.817   0.240  2.90540E-01  3.89653E-01 -9.91122E-02
    8987.668     -5.737   0.280  3.00165E-01  4.07624E-01 -1.07459E-01
    8987.759     -5.646   0.320  3.09957E-01  4.27395E-01 -1.17438E-01
    8987.863     -5.542   0.360  3.19427E-01  4.48319E-01 -1.28893E-01
    8987.979     -5.426   0.400  3.28358E-01  4.69774E-01 -1.41416E-01
    8988.107     -5.298   0.440  3.36772E-01  4.91154E-01 -1.54382E-01
    8988.247     -5.158   0.480  3.45029E-01  5.12007E-01 -1.66978E-01
    8988.399     -5.006   0.520  3.53666E-01  5.32029E-01 -1.78363E-01
    8988.564     -4.841   0.560  3.63271E-01  5.51087E-01 -1.87816E-01
    8988.741     -4.664   0.600  3.74205E-01  5.69169E-01 -1.94965E-01
    8988.930     -4.475   0.640  3.86169E-01  5.86325E-01 -2.00155E-01
    8989.131     -4.274   0.680  3.98049E-01  6.02640E-01 -2.04591E-01
    8989.344     -4.061   0.720  4.08412E-01  6.18242E-01 -2.09829E-01
    8989.570     -3.835   0.760  4.16781E-01  6.33234E-01 -2.16453E-01
    8989.807     -3.598   0.800  4.24621E-01  6.47733E-01 -2.23111E-01
    8990.057     -3.348   0.840  4.34752E-01  6.61818E-01 -2.27066E-01
    8990.319     -3.086   0.880  4.50012E-01  6.75555E-01 -2.25543E-01
    8990.594     -2.811   0.920  4.72654E-01  6.88997E-01 -2.16344E-01
    8990.880     -2.525   0.960  5.04387E-01  7.02201E-01 -1.97814E-01
    8991.179     -2.226   1.000  5.43631E-01  7.15174E-01 -1.71544E-01
    8991.490     -1.915   1.040  5.81057E-01  7.27975E-01 -1.46917E-01
    8991.813     -1.592   1.080  6.03868E-01  7.40590E-01 -1.36722E-01
    8992.148     -1.257   1.120  6.08825E-01  7.53020E-01 -1.44195E-01
    8992.496     -0.909   1.160  6.05067E-01  7.65282E-01 -1.60215E-01
    8992.855     -0.550   1.200  6.04760E-01  7.77367E-01 -1.72606E-01
    8993.227     -0.178   1.240  6.12561E-01  7.89262E-01 -1.76701E-01
    8993.611      0.206   1.280  6.25119E-01  8.00952E-01 -1.75833E-01
    8994.008      0.603   1.320  6.40857E-01  8.12414E-01 -1.71558E-01
    8994.416      1.011   1.360  6.64524E-01  8.23672E-01 -1.59148E-01
    8994.837      1.432   1.400  7.03313E-01  8.34662E-01 -1.31349E-01
    8995.269      1.864   1.440  7.63245E-01  8.45401E-01 -8.21561E-02
    8995.714      2.309   1.480  8.45516E-01  8.55866E-01 -1.03496E-02
    8996.172      2.767   1.520  9.40295E-01  8.66012E-01  7.42832E-02
    8996.641      3.236   1.560  1.02993E+00  8.75875E-01  1.54058E-01
    8997.123      3.718   1.600  1.09751E+00  8.85390E-01  2.12117E-01
    8997.616      4.211   1.640  1.12718E+00  8.94576E-01  2.32602E-01
    8998.122      4.717   1.680  1.11618E+00  9.03426E-01  2.12751E-01
    8998.640      5.235   1.720  1.09097E+00  9.11897E-01  1.79075E-01
    8999.171      5.766   1.760  1.08753E+00  9.20009E-01  1.67517E-01
    8999.713      6.308   1.800  1.11842E+00  9.27759E-01  1.90666E-01
    9000.268      6.863   1.840  1.17060E+00  9.35103E-01  2.35494E-01
    9000.835      7.430   1.880  1.21777E+00  9.42083E-01  2.75688E-01
    9001.414      8.009   1.920  1.23571E+00  9.48659E-01  2.87049E-01
    9002.005      8.600   1.960  1.22552E+00  9.54872E-01  2.70646E-01
    9002.609      9.204   2.000  1.20401E+00  9.60683E-01  2.43325E-01
    9003.225      9.820   2.040  1.18240E+00  9.66134E-01  2.16263E-01
    9003.853     10.448   2.080  1.16649E+00  9.71188E-01  1.95299E-01
    9004.493     11.088   2.120  1.16031E+00  9.75888E-01  1.84426E-01
    9005.145     11.740   2.160  1.16018E+00  9.80198E-01  1.79978E-01
    9005.809     12.404   2.200  1.15745E+00  9.84185E-01  1.73267E-01
    9006.486     13.081   2.240  1.14629E+00  9.87791E-01  1.58500E-01
    9007.175     13.770   2.280  1.12781E+00  9.91083E-01  1.36728E-01
    9007.876     14.471   2.320  1.11122E+00  9.94049E-01  1.17176E-01
    9008.589     15.184   2.360  1.10627E+00  9.96711E-01  1.09562E-01
    9009.314     15.910   2.400  1.11336E+00  9.99060E-01  1.14299E-01
    9010.052     16.647   2.440  1.12493E+00  1.00112E+00  1.23812E-01
    9010.802     17.397   2.480  1.13337E+00  1.00292E+00  1.30453E-01
    9011.564     18.159   2.520  1.13266E+00  1.00444E+00  1.28222E-01
    9012.338     18.933   2.560  1.12186E+00  1.00574E+00  1.16125E-01
    9013.124     19.720   2.600  1.10420E+00  1.00677E+00  9.74218E-02
    9013.923     20.518   2.640  1.07970E+00  1.00762E+00  7.20776E-02
    9014.734     21.329   2.680  1.04779E+00  1.00824E+00  3.95514E-02
    9015.557     22.152   2.720  1.01254E+00  1.00868E+00  3.86506E-03
    9016.392     22.987   2.760  9.74679E-01  1.00895E+00 -3.42699E-02
    9017.239     23.834   2.800  9.28771E-01  1.00906E+00 -8.02853E-02
    9018.099     24.694   2.840  8.88698E-01  1.00901E+00 -1.20308E-01
    9018.971     25.566   2.880  8.65505E-01  1.00883E+00 -1.43322E-01
    9019.854     26.449   2.920  8.53429E-01  1.00852E+00 -1.55094E-01
    9020.751     27.346   2.960  8.47668E-01  1.00812E+00 -1.60454E-01
    9021.659     28.254   3.000  8.45812E-01  1.00761E+00 -1.61798E-01
    9022.579     29.174   3.040  8.47044E-01  1.00701E+00 -1.59969E-01
    9023.512     30.107   3.080  8.50534E-01  1.00633E+00 -1.55800E-01
    9024.457     31.052   3.120  8.55689E-01  1.00558E+00 -1.49890E-01
    9025.414     32.009   3.160  8.62166E-01  1.00480E+00 -1.42632E-01
    9026.383     32.978   3.200  8.69648E-01  1.00395E+00 -1.34303E-01
    9027.365     33.960   3.240  8.78149E-01  1.00306E+00 -1.24914E-01
    9028.358     34.953   3.280  8.87672E-01  1.00216E+00 -1.14489E-01
    9029.364     35.959   3.320  8.97577E-01  1.00123E+00 -1.03650E-01
    9030.382     36.977   3.360  9.07465E-01  1.00029E+00 -9.28208E-02
    9031.412     38.007   3.400  9.17250E-01  9.99342E-01 -8.20921E-02
    9032.455     39.050   3.440  9.27297E-01  9.98399E-01 -7.11027E-02
    9033.509     40.104   3.480  9.38182E-01  9.97478E-01 -5.92954E-02
    9034.576     41.171   3.520  9.50225E-01  9.96541E-01 -4.63162E-02
    9035.655     42.250   3.560  9.63245E-01  9.95634E-01 -3.23887E-02
    9036.746     43.341   3.600  9.76382E-01  9.94759E-01 -1.83771E-02
    9037.850     44.445   3.640  9.88639E-01  9.93917E-01 -5.27774E-03
    9038.965     45.560   3.680  9.99170E-01  9.93090E-01  6.07957E-03
    9040.093     46.688   3.720  1.00769E+00  9.92322E-01  1.53668E-02
    9041.233     47.828   3.760  1.01452E+00  9.91572E-01  2.29445E-02
    9042.385     48.980   3.800  1.02050E+00  9.90881E-01  2.96201E-02
    9043.549     50.145   3.840  1.02642E+00  9.90212E-01  3.62034E-02
    9044.726     51.321   3.880  1.03275E+00  9.89606E-01  4.31469E-02
    9045.915     52.510   3.920  1.03941E+00  9.89044E-01  5.03634E-02
    9047.116     53.711   3.960  1.04581E+00  9.88524E-01  5.72853E-02
    9048.329     54.924   4.000  1.05122E+00  9.88070E-01  6.31457E-02
    9049.554     56.149   4.040  1.05509E+00  9.87640E-01  6.74500E-02
    9050.792     57.387   4.080  1.05729E+00  9.87297E-01  6.99911E-02
    9052.041     58.636   4.120  1.05776E+00  9.86978E-01  7.07850E-02
    9053.303     59.898   4.160  1.05669E+00  9.86725E-01  6.99613E-02
    9054.577     61.172   4.200  1.05425E+00  9.86516E-01  6.77296E-02
    9055.863     62.458   4.240  1.05070E+00  9.86349E-01  6.43537E-02
    9057.162     63.757   4.280  1.04642E+00  9.86227E-01  6.01959E-02
    9058.472     65.067   4.320  1.04186E+00  9.86170E-01  5.56910E-02
    9059.795     66.390   4.360  1.03732E+00  9.86157E-01  5.11609E-02
    9061.130     67.725   4.400  1.03298E+00  9.86185E-01  4.67924E-02
    9062.477     69.073   4.440  1.02890E+00  9.86253E-01  4.26509E-02
    9063.837     70.432   4.480  1.02506E+00  9.86360E-01  3.86963E-02
    9065.208     71.804   4.520  1.02131E+00  9.86508E-01  3.48012E-02
    9066.592     73.187   4.560  1.01743E+00  9.86694E-01  3.07343E-02
    9067.988     74.583   4.600  1.01307E+00  9.86917E-01  2.61552E-02
    9069.396     75.991   4.640  1.00790E+00  9.87175E-01  2.07271E-02
    9070.817     77.412   4.680  1.00178E+00  9.87447E-01  1.43359E-02
    9072.249     78.844   4.720  9.94926E-01  9.87751E-01  7.17502E-03
    9073.694     80.289   4.760  9.87696E-01  9.88087E-01 -3.91335E-04
    9075.151     81.746   4.800  9.80460E-01  9.88434E-01 -7.97356E-03
    9076.620     83.215   4.840  9.73548E-01  9.88809E-01 -1.52615E-02
    9078.101     84.697   4.880  9.67194E-01  9.89190E-01 -2.19961E-02
    9079.595     86.190   4.920  9.61676E-01  9.89575E-01 -2.78994E-02
    9081.101     87.696   4.960  9.57298E-01  9.89985E-01 -3.26866E-02
    9082.619     89.214   5.000  9.54232E-01  9.90374E-01 -3.61424E-02
    9084.149     90.744   5.040  9.52582E-01  9.90784E-01 -3.82021E-02
    9085.691     92.286   5.080  9.52246E-01  9.91172E-01 -3.89260E-02
    9087.245     93.840   5.120  9.53145E-01  9.91579E-01 -3.84336E-02
    9088.812     95.407   5.160  9.55033E-01  9.91961E-01 -3.69283E-02
    9090.391     96.986   5.200  9.57638E-01  9.92339E-01 -3.47002E-02
    9091.982     98.577   5.240  9.60589E-01  9.92711E-01 -3.21221E-02
    9093.585    100.180   5.280  9.63508E-01  9.93076E-01 -2.95686E-02
    9095.201    101.796   5.320  9.66110E-01  9.93409E-01 -2.72988E-02
    9096.828    103.423   5.360  9.68361E-01  9.93710E-01 -2.53484E-02
    9098.468    105.063   5.400  9.70516E-01  9.93999E-01 -2.34833E-02
    9100.120    106.715   5.440  9.72930E-01  9.94255E-01 -2.13252E-02
    9101.784    108.379   5.480  9.75933E-01  9.94499E-01 -1.85656E-02
    9103.461    110.056   5.520  9.79534E-01  9.94707E-01 -1.51726E-02
    9105.149    111.744   5.560  9.83432E-01  9.94877E-01 -1.14447E-02
    9106.850    113.445   5.600  9.87130E-01  9.95010E-01 -7.87991E-03
    9108.563    115.158   5.640  9.90138E-01  9.95105E-01 -4.96683E-03
    9110.288    116.883   5.680  9.92204E-01  9.95186E-01 -2.98135E-03
    9112.026    118.621   5.720  9.93339E-01  9.95228E-01 -1.88944E-03
    9113.775    120.370   5.760  9.93747E-01  9.95208E-01 -1.46065E-03
    9115.537    122.132   5.800  9.93645E-01  9.95172E-01 -1.52725E-03
    9117.311    123.906   5.840  9.93006E-01  9.95099E-01 -2.09323E-03
    9119.097    125.692   5.880  9.91785E-01  9.94986E-01 -3.20143E-03
    9120.895    127.490   5.920  9.90062E-01  9.94809E-01 -4.74730E-03
    9122.706    129.301   5.960  9.88222E-01  9.94617E-01 -6.39532E-03
    9124.528    131.123   6.000  9.86741E-01  9.94363E-01 -7.62141E-03
