# # comment:                                                     FEFF 9.9.1  
# # Source:
# # Structure
# # Reduced
# # space
# # abc:
# # angles:100.330868
# # sites:
# # POT  SCF 100  7.0000   0, screened core-hole, AFOLP (folp(0)= 1.150)
# # Abs   Z=29 Rmt= 1.174 Rnm= 1.255 K  shell
# # Pot 1 Z= 3 Rmt= 1.159 Rnm= 1.217
# # Pot 2 Z=57 Rmt= 1.748 Rnm= 1.826
# # Pot 3 Z=29 Rmt= 1.192 Rnm= 1.267
# # Pot 4 Z= 8 Rmt= 1.042 Rnm= 1.089
# # Gam_ch=1.729E+00 H-L exch Vi= 0.000E+00 Vr= 0.000E+00
# # Mu=-8.238E+00eV kf=2.063E+00 Vint=-1.885E+01eV Rs_int= 1.758
# FMS rfms= 9.0000
# # PATH  Rmax=-1.000,  Keep_limit= 0.00, Heap_limit 0.00  Pwcrit= 2.50%
#  S02=0.950  Temp=   0.00  Debye_temp=   0.00  Global_sig2= 0.00000
#  Energy zero shift, vr, vi    0.00000E+00   0.00000E+00
#  Curved wave amplitude ratio filter   4.000%
#     file         sig2 tot  cw amp ratio   deg  nlegs   reff  inp sig2
#     0/   0 paths used
#  xsedge+ 50, used to normalize mu           2.4480E-04
#  -----------------------------------------------------------------------
#  omega    e    k    mu    mu0     chi     @#
    8985.415    -12.048  -1.000  4.00945E-02  5.76500E-02 -1.75555E-02
    8985.714    -11.749  -0.960  4.22334E-02  6.19665E-02 -1.97332E-02
    8986.000    -11.463  -0.920  4.45461E-02  6.67751E-02 -2.22290E-02
    8986.274    -11.188  -0.880  4.70553E-02  7.21494E-02 -2.50941E-02
    8986.536    -10.926  -0.840  4.97872E-02  7.81751E-02 -2.83879E-02
    8986.786    -10.676  -0.800  5.27730E-02  8.49518E-02 -3.21788E-02
    8987.024    -10.438  -0.760  5.60486E-02  9.25940E-02 -3.65454E-02
    8987.250    -10.213  -0.720  5.96553E-02  1.01231E-01 -4.15757E-02
    8987.463    -10.000  -0.680  6.36391E-02  1.11006E-01 -4.73667E-02
    8987.664     -9.798  -0.640  6.80489E-02  1.22069E-01 -5.40202E-02
    8987.853     -9.609  -0.600  7.29332E-02  1.34570E-01 -6.16365E-02
    8988.030     -9.433  -0.560  7.83331E-02  1.48635E-01 -7.03018E-02
    8988.195     -9.268  -0.520  8.42712E-02  1.64341E-01 -8.00700E-02
    8988.347     -9.116  -0.480  9.07369E-02  1.81674E-01 -9.09371E-02
    8988.487     -8.975  -0.440  9.76685E-02  2.00480E-01 -1.02812E-01
    8988.615     -8.847  -0.400  1.04939E-01  2.20429E-01 -1.15490E-01
    8988.731     -8.732  -0.360  1.12351E-01  2.41000E-01 -1.28649E-01
    8988.835     -8.628  -0.320  1.19652E-01  2.61517E-01 -1.41864E-01
    8988.926     -8.537  -0.280  1.26571E-01  2.81229E-01 -1.54658E-01
    8989.005     -8.457  -0.240  1.32854E-01  2.99416E-01 -1.66561E-01
    8989.072     -8.390  -0.200  1.38308E-01  3.15478E-01 -1.77169E-01
    8989.127     -8.335  -0.160  1.42813E-01  3.28978E-01 -1.86166E-01
    8989.170     -8.293  -0.120  1.46312E-01  3.39642E-01 -1.93330E-01
    8989.200     -8.262  -0.080  1.48796E-01  3.47318E-01 -1.98522E-01
    8989.225     -8.238   0.000  1.50761E-01  3.53480E-01 -2.02719E-01
    8989.280     -8.183   0.120  1.55030E-01  3.67371E-01 -2.12340E-01
    8989.322     -8.140   0.160  1.58272E-01  3.78153E-01 -2.19881E-01
    8989.377     -8.085   0.200  1.62281E-01  3.91887E-01 -2.29606E-01
    8989.444     -8.018   0.240  1.66922E-01  4.08389E-01 -2.41468E-01
    8989.524     -7.939   0.280  1.71947E-01  4.27282E-01 -2.55335E-01
    8989.615     -7.848   0.320  1.77143E-01  4.48052E-01 -2.70910E-01
    8989.719     -7.744   0.360  1.82277E-01  4.70046E-01 -2.87769E-01
    8989.834     -7.628   0.400  1.87303E-01  4.92607E-01 -3.05305E-01
    8989.962     -7.500   0.440  1.92306E-01  5.15082E-01 -3.22775E-01
    8990.103     -7.360   0.480  1.97607E-01  5.36997E-01 -3.39390E-01
    8990.255     -7.208   0.520  2.03578E-01  5.58051E-01 -3.54473E-01
    8990.420     -7.043   0.560  2.10562E-01  5.78105E-01 -3.67543E-01
    8990.596     -6.866   0.600  2.18765E-01  5.97104E-01 -3.78340E-01
    8990.785     -6.677   0.640  2.28431E-01  6.15117E-01 -3.86686E-01
    8990.987     -6.476   0.680  2.40038E-01  6.32237E-01 -3.92199E-01
    8991.200     -6.263   0.720  2.54136E-01  6.48591E-01 -3.94455E-01
    8991.425     -6.037   0.760  2.71120E-01  6.64268E-01 -3.93149E-01
    8991.663     -5.799   0.800  2.90716E-01  6.79408E-01 -3.88692E-01
    8991.913     -5.549   0.840  3.11270E-01  6.94071E-01 -3.82801E-01
    8992.175     -5.287   0.880  3.29723E-01  7.08326E-01 -3.78603E-01
    8992.450     -5.013   0.920  3.44127E-01  7.22225E-01 -3.78098E-01
    8992.736     -4.727   0.960  3.56372E-01  7.35827E-01 -3.79456E-01
    8993.035     -4.428   1.000  3.70457E-01  7.49160E-01 -3.78703E-01
    8993.346     -4.117   1.040  3.88683E-01  7.62220E-01 -3.73537E-01
    8993.669     -3.794   1.080  4.11548E-01  7.75033E-01 -3.63485E-01
    8994.004     -3.459   1.120  4.40713E-01  7.87602E-01 -3.46889E-01
    8994.352     -3.111   1.160  4.80580E-01  7.99921E-01 -3.19340E-01
    8994.711     -2.751   1.200  5.36720E-01  8.11980E-01 -2.75260E-01
    8995.083     -2.380   1.240  6.13760E-01  8.23786E-01 -2.10027E-01
    8995.467     -1.996   1.280  7.14624E-01  8.35281E-01 -1.20657E-01
    8995.863     -1.599   1.320  8.41961E-01  8.46509E-01 -4.54788E-03
    8996.272     -1.191   1.360  9.96437E-01  8.57408E-01  1.39029E-01
    8996.692     -0.770   1.400  1.15311E+00  8.67997E-01  2.85109E-01
    8997.125     -0.337   1.440  1.23438E+00  8.78232E-01  3.56145E-01
    8997.570      0.108   1.480  1.19200E+00  8.88133E-01  3.03869E-01
    8998.027      0.565   1.520  1.08740E+00  8.97655E-01  1.89742E-01
    8998.497      1.034   1.560  9.98078E-01  9.06795E-01  9.12828E-02
    8998.978      1.516   1.600  9.60816E-01  9.15532E-01  4.52840E-02
    8999.472      2.010   1.640  9.89025E-01  9.23883E-01  6.51419E-02
    8999.978      2.515   1.680  1.08179E+00  9.31828E-01  1.49958E-01
    9000.496      3.034   1.720  1.21298E+00  9.39347E-01  2.73636E-01
    9001.027      3.564   1.760  1.31996E+00  9.46478E-01  3.73483E-01
    9001.569      4.107   1.800  1.34752E+00  9.53162E-01  3.94357E-01
    9002.124      4.661   1.840  1.31047E+00  9.59442E-01  3.51026E-01
    9002.691      5.228   1.880  1.26204E+00  9.65322E-01  2.96718E-01
    9003.270      5.807   1.920  1.21984E+00  9.70782E-01  2.49057E-01
    9003.861      6.399   1.960  1.17529E+00  9.75848E-01  1.99438E-01
    9004.465      7.002   2.000  1.13766E+00  9.80503E-01  1.57154E-01
    9005.080      7.618   2.040  1.12829E+00  9.84794E-01  1.43494E-01
    9005.708      8.246   2.080  1.14448E+00  9.88687E-01  1.55796E-01
    9006.348      8.886   2.120  1.16762E+00  9.92227E-01  1.75398E-01
    9007.001      9.538   2.160  1.17960E+00  9.95421E-01  1.84179E-01
    9007.665     10.203   2.200  1.17566E+00  9.98257E-01  1.77406E-01
    9008.342     10.879   2.240  1.16311E+00  1.00078E+00  1.62326E-01
    9009.031     11.568   2.280  1.14222E+00  1.00300E+00  1.39214E-01
    9009.732     12.269   2.320  1.10825E+00  1.00491E+00  1.03341E-01
    9010.445     12.982   2.360  1.06857E+00  1.00655E+00  6.20178E-02
    9011.170     13.708   2.400  1.04008E+00  1.00793E+00  3.21501E-02
    9011.908     14.445   2.440  1.03502E+00  1.00905E+00  2.59724E-02
    9012.658     15.195   2.480  1.05368E+00  1.00996E+00  4.37234E-02
    9013.420     15.957   2.520  1.07644E+00  1.01063E+00  6.58113E-02
    9014.194     16.731   2.560  1.09161E+00  1.01110E+00  8.05097E-02
    9014.980     17.518   2.600  1.09903E+00  1.01140E+00  8.76322E-02
    9015.779     18.316   2.640  1.09949E+00  1.01150E+00  8.79905E-02
    9016.590     19.127   2.680  1.09421E+00  1.01148E+00  8.27286E-02
    9017.413     19.950   2.720  1.08403E+00  1.01129E+00  7.27400E-02
    9018.248     20.785   2.760  1.06990E+00  1.01099E+00  5.89106E-02
    9019.095     21.632   2.800  1.05227E+00  1.01058E+00  4.16923E-02
    9019.955     22.492   2.840  1.03166E+00  1.01007E+00  2.15896E-02
    9020.826     23.364   2.880  1.00911E+00  1.00947E+00 -3.63939E-04
    9021.710     24.248   2.920  9.85877E-01  1.00879E+00 -2.29174E-02
    9022.606     25.144   2.960  9.63051E-01  1.00804E+00 -4.49938E-02
    9023.515     26.052   3.000  9.42039E-01  1.00727E+00 -6.52268E-02
    9024.435     26.973   3.040  9.23914E-01  1.00642E+00 -8.25104E-02
    9025.368     27.905   3.080  9.08990E-01  1.00557E+00 -9.65764E-02
    9026.313     28.850   3.120  8.97129E-01  1.00467E+00 -1.07545E-01
    9027.270     29.807   3.160  8.87949E-01  1.00377E+00 -1.15825E-01
    9028.239     30.776   3.200  8.81167E-01  1.00287E+00 -1.21703E-01
    9029.220     31.758   3.240  8.76978E-01  1.00196E+00 -1.24986E-01
    9030.214     32.752   3.280  8.75580E-01  1.00106E+00 -1.25481E-01
    9031.220     33.757   3.320  8.76975E-01  1.00016E+00 -1.23189E-01
    9032.238     34.775   3.360  8.80929E-01  9.99319E-01 -1.18390E-01
    9033.268     35.806   3.400  8.86781E-01  9.98487E-01 -1.11706E-01
    9034.311     36.848   3.440  8.93461E-01  9.97669E-01 -1.04208E-01
    9035.365     37.903   3.480  9.00174E-01  9.96910E-01 -9.67366E-02
    9036.432     38.969   3.520  9.06522E-01  9.96192E-01 -8.96700E-02
    9037.511     40.048   3.560  9.12625E-01  9.95516E-01 -8.28908E-02
    9038.602     41.140   3.600  9.18790E-01  9.94884E-01 -7.60939E-02
    9039.706     42.243   3.640  9.25306E-01  9.94318E-01 -6.90122E-02
    9040.821     43.359   3.680  9.32160E-01  9.93798E-01 -6.16384E-02
    9041.949     44.486   3.720  9.38981E-01  9.93325E-01 -5.43438E-02
    9043.089     45.626   3.760  9.45521E-01  9.92920E-01 -4.73987E-02
    9044.241     46.778   3.800  9.51834E-01  9.92562E-01 -4.07283E-02
    9045.405     47.943   3.840  9.58233E-01  9.92253E-01 -3.40200E-02
    9046.582     49.119   3.880  9.65170E-01  9.92014E-01 -2.68449E-02
    9047.771     50.308   3.920  9.73080E-01  9.91847E-01 -1.87674E-02
    9048.971     51.509   3.960  9.82147E-01  9.91731E-01 -9.58373E-03
    9050.185     52.722   4.000  9.92246E-01  9.91686E-01  5.60333E-04
    9051.410     53.947   4.040  1.00281E+00  9.91689E-01  1.11231E-02
    9052.647     55.185   4.080  1.01304E+00  9.91762E-01  2.12769E-02
    9053.897     56.434   4.120  1.02194E+00  9.91882E-01  3.00607E-02
    9055.159     57.696   4.160  1.02886E+00  9.92049E-01  3.68071E-02
    9056.433     58.970   4.200  1.03373E+00  9.92283E-01  4.14446E-02
    9057.719     60.257   4.240  1.03697E+00  9.92561E-01  4.44054E-02
    9059.018     61.555   4.280  1.03917E+00  9.92883E-01  4.62841E-02
    9060.328     62.866   4.320  1.04097E+00  9.93249E-01  4.77191E-02
    9061.651     64.188   4.360  1.04292E+00  9.93678E-01  4.92450E-02
    9062.986     65.523   4.400  1.04517E+00  9.94128E-01  5.10436E-02
    9064.333     66.871   4.440  1.04770E+00  9.94639E-01  5.30640E-02
    9065.693     68.230   4.480  1.05033E+00  9.95166E-01  5.51649E-02
    9067.064     69.602   4.520  1.05316E+00  9.95752E-01  5.74056E-02
    9068.448     70.985   4.560  1.05646E+00  9.96351E-01  6.01077E-02
    9069.844     72.381   4.600  1.06055E+00  9.96960E-01  6.35924E-02
    9071.252     73.790   4.640  1.06556E+00  9.97623E-01  6.79335E-02
    9072.673     75.210   4.680  1.07114E+00  9.98272E-01  7.28695E-02
    9074.105     76.643   4.720  1.07677E+00  9.98950E-01  7.78223E-02
    9075.550     78.087   4.760  1.08156E+00  9.99657E-01  8.19071E-02
    9077.007     79.544   4.800  1.08443E+00  1.00037E+00  8.40638E-02
    9078.476     81.013   4.840  1.08420E+00  1.00105E+00  8.31485E-02
    9079.957     82.495   4.880  1.07995E+00  1.00176E+00  7.81856E-02
    9081.451     83.988   4.920  1.07133E+00  1.00247E+00  6.88614E-02
    9082.957     85.494   4.960  1.05896E+00  1.00315E+00  5.58163E-02
    9084.474     87.012   5.000  1.04421E+00  1.00382E+00  4.03848E-02
    9086.004     88.542   5.040  1.02858E+00  1.00449E+00  2.40870E-02
    9087.547     90.084   5.080  1.01335E+00  1.00515E+00  8.19450E-03
    9089.101     91.639   5.120  9.99523E-01  1.00578E+00 -6.25797E-03
    9090.668     93.205   5.160  9.87868E-01  1.00638E+00 -1.85071E-02
    9092.247     94.784   5.200  9.78917E-01  1.00696E+00 -2.80393E-02
    9093.838     96.375   5.240  9.72708E-01  1.00750E+00 -3.47934E-02
    9095.441     97.978   5.280  9.68829E-01  1.00801E+00 -3.91805E-02
    9097.056     99.594   5.320  9.66596E-01  1.00850E+00 -4.19039E-02
    9098.684    101.222   5.360  9.65237E-01  1.00893E+00 -4.36906E-02
    9100.324    102.861   5.400  9.64145E-01  1.00931E+00 -4.51687E-02
    9101.976    104.513   5.440  9.62809E-01  1.00968E+00 -4.68716E-02
    9103.640    106.178   5.480  9.60909E-01  1.00998E+00 -4.90733E-02
    9105.317    107.854   5.520  9.58763E-01  1.01024E+00 -5.14769E-02
    9107.005    109.543   5.560  9.57118E-01  1.01045E+00 -5.33353E-02
    9108.706    111.243   5.600  9.56603E-01  1.01062E+00 -5.40191E-02
    9110.419    112.956   5.640  9.57229E-01  1.01072E+00 -5.34923E-02
    9112.144    114.681   5.680  9.58500E-01  1.01078E+00 -5.22755E-02
    9113.881    116.419   5.720  9.59674E-01  1.01079E+00 -5.11123E-02
    9115.631    118.168   5.760  9.60270E-01  1.01075E+00 -5.04815E-02
    9117.393    119.930   5.800  9.60395E-01  1.01065E+00 -5.02550E-02
    9119.167    121.704   5.840  9.60792E-01  1.01053E+00 -4.97342E-02
    9120.953    123.490   5.880  9.62201E-01  1.01031E+00 -4.81123E-02
    9122.751    125.288   5.920  9.65032E-01  1.01008E+00 -4.50455E-02
    9124.562    127.099   5.960  9.68996E-01  1.00977E+00 -4.07765E-02
    9126.384    128.922   6.000  9.73782E-01  1.00941E+00 -3.56322E-02
