# # comment:                                                     FEFF 9.9.1  
# # Source:
# # Structure
# # Reduced
# # space
# # abc:
# # angles:
# # sites:
# # POT  SCF 100  7.0000   0, screened core-hole, AFOLP (folp(0)= 1.150)
# # Abs   Z=29 Rmt= 1.365 Rnm= 1.435 K  shell
# # Pot 1 Z=58 Rmt= 1.712 Rnm= 1.807
# # Pot 2 Z=29 Rmt= 1.365 Rnm= 1.435
# # Pot 3 Z=52 Rmt= 1.665 Rnm= 1.744
# # Pot 4 Z= 8 Rmt= 1.043 Rnm= 1.117
# # Gam_ch=1.729E+00 H-L exch Vi= 0.000E+00 Vr= 0.000E+00
# # Mu=-6.889E+00eV kf=1.890E+00 Vint=-1.585E+01eV Rs_int= 1.919
# FMS rfms= 9.0000
# # PATH  Rmax=-1.000,  Keep_limit= 0.00, Heap_limit 0.00  Pwcrit= 2.50%
#  S02=0.950  Temp=   0.00  Debye_temp=   0.00  Global_sig2= 0.00000
#  Energy zero shift, vr, vi    0.00000E+00   0.00000E+00
#  Curved wave amplitude ratio filter   4.000%
#     file         sig2 tot  cw amp ratio   deg  nlegs   reff  inp sig2
#     0/   0 paths used
#  xsedge+ 50, used to normalize mu           2.4532E-04
#  -----------------------------------------------------------------------
#  omega    e    k    mu    mu0     chi     @#
    8983.853    -10.699  -1.000  5.33231E-02  5.89368E-02 -5.61370E-03
    8984.152    -10.401  -0.960  5.67888E-02  6.33575E-02 -6.56866E-03
    8984.438    -10.114  -0.920  6.05657E-02  6.82803E-02 -7.71456E-03
    8984.712     -9.840  -0.880  6.46878E-02  7.37797E-02 -9.09191E-03
    8984.975     -9.578  -0.840  6.91932E-02  7.99429E-02 -1.07497E-02
    8985.224     -9.328  -0.800  7.41239E-02  8.68707E-02 -1.27467E-02
    8985.462     -9.090  -0.760  7.95257E-02  9.46788E-02 -1.51531E-02
    8985.688     -8.864  -0.720  8.54477E-02  1.03498E-01 -1.80505E-02
    8985.901     -8.651  -0.680  9.19409E-02  1.13473E-01 -2.15323E-02
    8986.102     -8.450  -0.640  9.90554E-02  1.24756E-01 -2.57009E-02
    8986.291     -8.261  -0.600  1.06836E-01  1.37497E-01 -3.06615E-02
    8986.468     -8.084  -0.560  1.15313E-01  1.51824E-01 -3.65114E-02
    8986.633     -7.920  -0.520  1.24493E-01  1.67815E-01 -4.33213E-02
    8986.785     -7.767  -0.480  1.34342E-01  1.85452E-01 -5.11098E-02
    8986.925     -7.627  -0.440  1.44768E-01  2.04581E-01 -5.98131E-02
    8987.053     -7.499  -0.400  1.55609E-01  2.24868E-01 -6.92589E-02
    8987.169     -7.383  -0.360  1.66629E-01  2.45786E-01 -7.91569E-02
    8987.273     -7.279  -0.320  1.77530E-01  2.66649E-01 -8.91187E-02
    8987.364     -7.188  -0.280  1.87987E-01  2.86697E-01 -9.87103E-02
    8987.443     -7.109  -0.240  1.97680E-01  3.05201E-01 -1.07521E-01
    8987.510     -7.042  -0.200  2.06327E-01  3.21550E-01 -1.15222E-01
    8987.565     -6.987  -0.160  2.13698E-01  3.35298E-01 -1.21600E-01
    8987.608     -6.944  -0.120  2.19613E-01  3.46163E-01 -1.26550E-01
    8987.638     -6.914  -0.080  2.23941E-01  3.53988E-01 -1.30047E-01
    8987.663     -6.889   0.000  2.27496E-01  3.60274E-01 -1.32778E-01
    8987.718     -6.834   0.120  2.35651E-01  3.74440E-01 -1.38789E-01
    8987.760     -6.792   0.160  2.42049E-01  3.85446E-01 -1.43397E-01
    8987.815     -6.737   0.200  2.50431E-01  3.99475E-01 -1.49044E-01
    8987.882     -6.670   0.240  2.60946E-01  4.16351E-01 -1.55404E-01
    8987.962     -6.591   0.280  2.73742E-01  4.35684E-01 -1.61941E-01
    8988.053     -6.499   0.320  2.89105E-01  4.57009E-01 -1.67904E-01
    8988.157     -6.396   0.360  3.07320E-01  4.79638E-01 -1.72318E-01
    8988.272     -6.280   0.400  3.28860E-01  5.02922E-01 -1.74062E-01
    8988.400     -6.152   0.440  3.54249E-01  5.26231E-01 -1.71982E-01
    8988.541     -6.012   0.480  3.84057E-01  5.49071E-01 -1.65014E-01
    8988.693     -5.859   0.520  4.18685E-01  5.71141E-01 -1.52456E-01
    8988.858     -5.695   0.560  4.58088E-01  5.92279E-01 -1.34191E-01
    8989.034     -5.518   0.600  5.01439E-01  6.12426E-01 -1.10987E-01
    8989.223     -5.329   0.640  5.46984E-01  6.31667E-01 -8.46825E-02
    8989.425     -5.128   0.680  5.92215E-01  6.50046E-01 -5.78310E-02
    8989.638     -4.914   0.720  6.34934E-01  6.67685E-01 -3.27509E-02
    8989.864     -4.689   0.760  6.74157E-01  6.84685E-01 -1.05280E-02
    8990.101     -4.451   0.800  7.09929E-01  7.01135E-01  8.79452E-03
    8990.351     -4.201   0.840  7.42156E-01  7.17089E-01  2.50663E-02
    8990.613     -3.939   0.880  7.70844E-01  7.32608E-01  3.82364E-02
    8990.888     -3.665   0.920  7.98019E-01  7.47735E-01  5.02843E-02
    8991.174     -3.378   0.960  8.27320E-01  7.62501E-01  6.48189E-02
    8991.473     -3.079   1.000  8.60378E-01  7.76905E-01  8.34724E-02
    8991.784     -2.768   1.040  8.95115E-01  7.90976E-01  1.04138E-01
    8992.107     -2.445   1.080  9.26931E-01  8.04694E-01  1.22237E-01
    8992.442     -2.110   1.120  9.49873E-01  8.18035E-01  1.31838E-01
    8992.790     -1.763   1.160  9.59557E-01  8.31028E-01  1.28529E-01
    8993.149     -1.403   1.200  9.58343E-01  8.43618E-01  1.14725E-01
    8993.521     -1.031   1.240  9.54218E-01  8.55789E-01  9.84299E-02
    8993.905     -0.647   1.280  9.52065E-01  8.67560E-01  8.45051E-02
    8994.301     -0.251   1.320  9.49340E-01  8.78870E-01  7.04694E-02
    8994.710      0.158   1.360  9.40697E-01  8.89741E-01  5.09556E-02
    8995.130      0.578   1.400  9.24867E-01  9.00129E-01  2.47375E-02
    8995.563      1.011   1.440  9.06824E-01  9.10032E-01 -3.20792E-03
    8996.008      1.456   1.480  8.94101E-01  9.19451E-01 -2.53500E-02
    8996.465      1.913   1.520  8.93404E-01  9.28345E-01 -3.49410E-02
    8996.935      2.383   1.560  9.10325E-01  9.36753E-01 -2.64279E-02
    8997.416      2.864   1.600  9.48132E-01  9.44639E-01  3.49274E-03
    8997.910      3.358   1.640  1.00647E+00  9.52005E-01  5.44674E-02
    8998.416      3.864   1.680  1.08209E+00  9.58873E-01  1.23213E-01
    8998.934      4.382   1.720  1.16794E+00  9.65230E-01  2.02713E-01
    8999.465      4.912   1.760  1.24353E+00  9.71102E-01  2.72424E-01
    9000.007      5.455   1.800  1.27487E+00  9.76495E-01  2.98375E-01
    9000.562      6.010   1.840  1.24595E+00  9.81395E-01  2.64554E-01
    9001.129      6.577   1.880  1.17196E+00  9.85854E-01  1.86103E-01
    9001.708      7.156   1.920  1.07804E+00  9.89879E-01  8.81617E-02
    9002.299      7.747   1.960  9.85263E-01  9.93481E-01 -8.21795E-03
    9002.903      8.351   2.000  9.12758E-01  9.96669E-01 -8.39111E-02
    9003.518      8.966   2.040  8.73659E-01  9.99475E-01 -1.25816E-01
    9004.146      9.594   2.080  8.67733E-01  1.00193E+00 -1.34195E-01
    9004.786     10.234   2.120  8.82582E-01  1.00402E+00 -1.21439E-01
    9005.439     10.887   2.160  9.03992E-01  1.00580E+00 -1.01812E-01
    9006.103     11.551   2.200  9.22536E-01  1.00727E+00 -8.47322E-02
    9006.780     12.228   2.240  9.33109E-01  1.00847E+00 -7.53565E-02
    9007.469     12.916   2.280  9.35360E-01  1.00941E+00 -7.40476E-02
    9008.170     13.618   2.320  9.33326E-01  1.01010E+00 -7.67789E-02
    9008.883     14.331   2.360  9.33281E-01  1.01059E+00 -7.73072E-02
    9009.608     15.056   2.400  9.36657E-01  1.01089E+00 -7.42308E-02
    9010.346     15.794   2.440  9.45140E-01  1.01099E+00 -6.58533E-02
    9011.096     16.544   2.480  9.61328E-01  1.01093E+00 -4.96045E-02
    9011.858     17.306   2.520  9.86714E-01  1.01074E+00 -2.40243E-02
    9012.632     18.080   2.560  1.02187E+00  1.01042E+00  1.14556E-02
    9013.418     18.866   2.600  1.06504E+00  1.01000E+00  5.50456E-02
    9014.217     19.665   2.640  1.11292E+00  1.00947E+00  1.03446E-01
    9015.028     20.476   2.680  1.15926E+00  1.00886E+00  1.50406E-01
    9015.851     21.298   2.720  1.19459E+00  1.00819E+00  1.86394E-01
    9016.686     22.134   2.760  1.20745E+00  1.00748E+00  1.99971E-01
    9017.533     22.981   2.800  1.19278E+00  1.00672E+00  1.86064E-01
    9018.393     23.840   2.840  1.15588E+00  1.00593E+00  1.49950E-01
    9019.264     24.712   2.880  1.10889E+00  1.00512E+00  1.03766E-01
    9020.148     25.596   2.920  1.06320E+00  1.00431E+00  5.88840E-02
    9021.044     26.492   2.960  1.02441E+00  1.00350E+00  2.09085E-02
    9021.953     27.401   3.000  9.93529E-01  1.00269E+00 -9.16510E-03
    9022.873     28.321   3.040  9.68797E-01  1.00189E+00 -3.30920E-02
    9023.806     29.254   3.080  9.48079E-01  1.00112E+00 -5.30375E-02
    9024.751     30.199   3.120  9.30414E-01  1.00038E+00 -6.99615E-02
    9025.708     31.156   3.160  9.16086E-01  9.99671E-01 -8.35856E-02
    9026.677     32.125   3.200  9.05788E-01  9.98985E-01 -9.31968E-02
    9027.659     33.106   3.240  9.00213E-01  9.98359E-01 -9.81460E-02
    9028.652     34.100   3.280  8.99030E-01  9.97775E-01 -9.87450E-02
    9029.658     35.106   3.320  9.01541E-01  9.97236E-01 -9.56953E-02
    9030.676     36.124   3.360  9.07144E-01  9.96763E-01 -8.96188E-02
    9031.706     37.154   3.400  9.15401E-01  9.96335E-01 -8.09344E-02
    9032.749     38.197   3.440  9.25804E-01  9.95952E-01 -7.01483E-02
    9033.803     39.251   3.480  9.37651E-01  9.95616E-01 -5.79652E-02
    9034.870     40.318   3.520  9.49942E-01  9.95349E-01 -4.54076E-02
    9035.949     41.397   3.560  9.61516E-01  9.95152E-01 -3.36353E-02
    9037.040     42.488   3.600  9.71405E-01  9.95002E-01 -2.35972E-02
    9038.144     43.591   3.640  9.79364E-01  9.94899E-01 -1.55351E-02
    9039.259     44.707   3.680  9.85849E-01  9.94863E-01 -9.01381E-03
    9040.387     45.835   3.720  9.91634E-01  9.94872E-01 -3.23756E-03
    9041.527     46.975   3.760  9.97464E-01  9.94926E-01  2.53783E-03
    9042.679     48.127   3.800  1.00394E+00  9.95024E-01  8.91582E-03
    9043.843     49.291   3.840  1.01132E+00  9.95187E-01  1.61328E-02
    9045.020     50.468   3.880  1.01940E+00  9.95394E-01  2.40051E-02
    9046.209     51.656   3.920  1.02776E+00  9.95642E-01  3.21163E-02
    9047.410     52.857   3.960  1.03601E+00  9.95930E-01  4.00762E-02
    9048.623     54.070   4.000  1.04380E+00  9.96257E-01  4.75471E-02
    9049.848     55.296   4.040  1.05066E+00  9.96621E-01  5.40378E-02
    9051.085     56.533   4.080  1.05590E+00  9.97021E-01  5.88768E-02
    9052.335     57.783   4.120  1.05888E+00  9.97432E-01  6.14481E-02
    9053.597     59.045   4.160  1.05945E+00  9.97877E-01  6.15722E-02
    9054.871     60.319   4.200  1.05790E+00  9.98354E-01  5.95487E-02
    9056.157     61.605   4.240  1.05466E+00  9.98838E-01  5.58261E-02
    9057.456     62.903   4.280  1.04992E+00  9.99327E-01  5.05926E-02
    9058.766     64.214   4.320  1.04348E+00  9.99843E-01  4.36321E-02
    9060.089     65.537   4.360  1.03500E+00  1.00036E+00  3.46337E-02
    9061.424     66.872   4.400  1.02456E+00  1.00088E+00  2.36818E-02
    9062.771     68.219   4.440  1.01289E+00  1.00140E+00  1.14861E-02
    9064.131     69.579   4.480  1.00111E+00  1.00192E+00 -8.12657E-04
    9065.502     70.950   4.520  9.90329E-01  1.00244E+00 -1.21082E-02
    9066.886     72.334   4.560  9.81286E-01  1.00295E+00 -2.16628E-02
    9068.282     73.730   4.600  9.74180E-01  1.00345E+00 -2.92748E-02
    9069.690     75.138   4.640  9.68721E-01  1.00393E+00 -3.52076E-02
    9071.111     76.558   4.680  9.64386E-01  1.00437E+00 -3.99869E-02
    9072.543     77.991   4.720  9.60722E-01  1.00483E+00 -4.41052E-02
    9073.988     79.436   4.760  9.57448E-01  1.00523E+00 -4.77786E-02
    9075.445     80.893   4.800  9.54709E-01  1.00561E+00 -5.09050E-02
    9076.914     82.362   4.840  9.52842E-01  1.00599E+00 -5.31465E-02
    9078.395     83.843   4.880  9.52231E-01  1.00630E+00 -5.40734E-02
    9079.889     85.337   4.920  9.53291E-01  1.00660E+00 -5.33124E-02
    9081.395     86.842   4.960  9.56170E-01  1.00687E+00 -5.06973E-02
    9082.912     88.360   5.000  9.60811E-01  1.00711E+00 -4.63038E-02
    9084.443     89.890   5.040  9.67046E-01  1.00730E+00 -4.02532E-02
    9085.985     91.433   5.080  9.74997E-01  1.00744E+00 -3.24465E-02
    9087.539     92.987   5.120  9.85017E-01  1.00757E+00 -2.25515E-02
    9089.106     94.554   5.160  9.97309E-01  1.00763E+00 -1.03233E-02
    9090.685     96.133   5.200  1.01169E+00  1.00768E+00  4.01067E-03
    9092.276     97.724   5.240  1.02726E+00  1.00768E+00  1.95778E-02
    9093.879     99.327   5.280  1.04263E+00  1.00763E+00  3.50024E-02
    9095.495    100.942   5.320  1.05617E+00  1.00755E+00  4.86195E-02
    9097.122    102.570   5.360  1.06625E+00  1.00743E+00  5.88168E-02
    9098.762    104.210   5.400  1.07172E+00  1.00728E+00  6.44375E-02
    9100.414    105.862   5.440  1.07219E+00  1.00708E+00  6.51108E-02
    9102.078    107.526   5.480  1.06824E+00  1.00685E+00  6.13967E-02
    9103.755    109.202   5.520  1.06121E+00  1.00657E+00  5.46353E-02
    9105.443    110.891   5.560  1.05271E+00  1.00626E+00  4.64460E-02
    9107.144    112.592   5.600  1.04394E+00  1.00593E+00  3.80045E-02
    9108.857    114.305   5.640  1.03522E+00  1.00557E+00  2.96483E-02
    9110.582    116.030   5.680  1.02619E+00  1.00517E+00  2.10144E-02
    9112.319    117.767   5.720  1.01630E+00  1.00474E+00  1.15553E-02
    9114.069    119.517   5.760  1.00527E+00  1.00430E+00  9.70810E-04
    9115.831    121.279   5.800  9.93219E-01  1.00382E+00 -1.06037E-02
    9117.605    123.052   5.840  9.80809E-01  1.00334E+00 -2.25321E-02
    9119.391    124.839   5.880  9.69068E-01  1.00283E+00 -3.37632E-02
    9121.189    126.637   5.920  9.59271E-01  1.00230E+00 -4.30252E-02
    9123.000    128.447   5.960  9.52783E-01  1.00179E+00 -4.90077E-02
    9124.822    130.270   6.000  9.50865E-01  1.00125E+00 -5.03841E-02
