# # comment:                                                     FEFF 9.9.1  
# # Source:
# # Structure
# # Reduced
# # space
# # abc:
# # angles:
# # sites:
# # POT  SCF 100  7.0000   0, screened core-hole, AFOLP (folp(0)= 1.150)
# # Abs   Z=29 Rmt= 1.264 Rnm= 1.324 K  shell
# # Pot 1 Z=29 Rmt= 1.264 Rnm= 1.324
# # Pot 2 Z=15 Rmt= 0.941 Rnm= 1.158
# # Pot 3 Z= 8 Rmt= 0.872 Rnm= 1.043
# # Gam_ch=1.729E+00 H-L exch Vi= 0.000E+00 Vr= 0.000E+00
# # Mu=-6.492E+00eV kf=2.544E+00 Vint=-1.771E+01eV Rs_int= 1.425
# FMS rfms= 9.0000
# # PATH  Rmax=-1.000,  Keep_limit= 0.00, Heap_limit 0.00  Pwcrit= 2.50%
#  S02=0.950  Temp=   0.00  Debye_temp=   0.00  Global_sig2= 0.00000
#  Energy zero shift, vr, vi    0.00000E+00   0.00000E+00
#  Curved wave amplitude ratio filter   4.000%
#     file         sig2 tot  cw amp ratio   deg  nlegs   reff  inp sig2
#     0/   0 paths used
#  xsedge+ 50, used to normalize mu           2.5018E-04
#  -----------------------------------------------------------------------
#  omega    e    k    mu    mu0     chi     @#
    8983.271    -10.302  -1.000  3.29457E-02  4.88470E-02 -1.59013E-02
    8983.569    -10.003  -0.960  3.44052E-02  5.23349E-02 -1.79298E-02
    8983.856     -9.717  -0.920  3.59479E-02  5.62102E-02 -2.02624E-02
    8984.130     -9.443  -0.880  3.75806E-02  6.05303E-02 -2.29496E-02
    8984.392     -9.180  -0.840  3.93111E-02  6.53619E-02 -2.60508E-02
    8984.642     -8.930  -0.800  4.11479E-02  7.07826E-02 -2.96347E-02
    8984.880     -8.693  -0.760  4.31005E-02  7.68816E-02 -3.37811E-02
    8985.105     -8.467  -0.720  4.51794E-02  8.37596E-02 -3.85802E-02
    8985.319     -8.254  -0.680  4.73954E-02  9.15276E-02 -4.41322E-02
    8985.520     -8.053  -0.640  4.97597E-02  1.00303E-01 -5.05434E-02
    8985.709     -7.864  -0.600  5.22818E-02  1.10201E-01 -5.79196E-02
    8985.886     -7.687  -0.560  5.49683E-02  1.21321E-01 -6.63530E-02
    8986.050     -7.522  -0.520  5.78193E-02  1.33722E-01 -7.59023E-02
    8986.203     -7.370  -0.480  6.08246E-02  1.47390E-01 -8.65653E-02
    8986.343     -7.230  -0.440  6.39588E-02  1.62206E-01 -9.82471E-02
    8986.471     -7.102  -0.400  6.71774E-02  1.77910E-01 -1.10733E-01
    8986.587     -6.986  -0.360  7.04156E-02  1.94096E-01 -1.23680E-01
    8986.690     -6.882  -0.320  7.35921E-02  2.10233E-01 -1.36641E-01
    8986.782     -6.791  -0.280  7.66170E-02  2.25735E-01 -1.49118E-01
    8986.861     -6.712  -0.240  7.94025E-02  2.40037E-01 -1.60634E-01
    8986.928     -6.644  -0.200  8.18720E-02  2.52669E-01 -1.70797E-01
    8986.983     -6.590  -0.160  8.39650E-02  2.63289E-01 -1.79324E-01
    8987.026     -6.547  -0.120  8.56373E-02  2.71678E-01 -1.86041E-01
    8987.056     -6.516  -0.080  8.68581E-02  2.77718E-01 -1.90860E-01
    8987.081     -6.492   0.000  8.78632E-02  2.82568E-01 -1.94705E-01
    8987.135     -6.437   0.120  9.01429E-02  2.93517E-01 -2.03374E-01
    8987.178     -6.395   0.160  9.18662E-02  3.01993E-01 -2.10127E-01
    8987.233     -6.340   0.200  9.41175E-02  3.12822E-01 -2.18704E-01
    8987.300     -6.273   0.240  9.68684E-02  3.25844E-01 -2.28975E-01
    8987.379     -6.193   0.280  1.00090E-01  3.40746E-01 -2.40656E-01
    8987.471     -6.102   0.320  1.03827E-01  3.57171E-01 -2.53343E-01
    8987.574     -5.998   0.360  1.08002E-01  3.74585E-01 -2.66583E-01
    8987.690     -5.882   0.400  1.12700E-01  3.92508E-01 -2.79808E-01
    8987.818     -5.754   0.440  1.17873E-01  4.10426E-01 -2.92554E-01
    8987.958     -5.614   0.480  1.23579E-01  4.27974E-01 -3.04395E-01
    8988.111     -5.462   0.520  1.29885E-01  4.44919E-01 -3.15034E-01
    8988.275     -5.297   0.560  1.36901E-01  4.61178E-01 -3.24277E-01
    8988.452     -5.120   0.600  1.44719E-01  4.76703E-01 -3.31985E-01
    8988.641     -4.931   0.640  1.53421E-01  4.91574E-01 -3.38153E-01
    8988.842     -4.730   0.680  1.63029E-01  5.05841E-01 -3.42812E-01
    8989.056     -4.517   0.720  1.73526E-01  5.19630E-01 -3.46104E-01
    8989.281     -4.291   0.760  1.84956E-01  5.33044E-01 -3.48087E-01
    8989.519     -4.054   0.800  1.97601E-01  5.46138E-01 -3.48537E-01
    8989.769     -3.804   0.840  2.12049E-01  5.59021E-01 -3.46972E-01
    8990.031     -3.542   0.880  2.28826E-01  5.71744E-01 -3.42918E-01
    8990.305     -3.267   0.920  2.48148E-01  5.84367E-01 -3.36219E-01
    8990.592     -2.981   0.960  2.70084E-01  5.96902E-01 -3.26818E-01
    8990.891     -2.682   1.000  2.95151E-01  6.09407E-01 -3.14256E-01
    8991.201     -2.371   1.040  3.24059E-01  6.21894E-01 -2.97836E-01
    8991.525     -2.048   1.080  3.56866E-01  6.34390E-01 -2.77524E-01
    8991.860     -1.713   1.120  3.92690E-01  6.46873E-01 -2.54183E-01
    8992.207     -1.365   1.160  4.30509E-01  6.59355E-01 -2.28846E-01
    8992.567     -1.006   1.200  4.70039E-01  6.71848E-01 -2.01809E-01
    8992.939     -0.634   1.240  5.11483E-01  6.84316E-01 -1.72833E-01
    8993.323     -0.250   1.280  5.54997E-01  6.96781E-01 -1.41784E-01
    8993.719      0.146   1.320  6.01497E-01  7.09205E-01 -1.07708E-01
    8994.127      0.555   1.360  6.51412E-01  7.21586E-01 -7.01739E-02
    8994.548      0.976   1.400  7.02613E-01  7.33898E-01 -3.12856E-02
    8994.981      1.408   1.440  7.55324E-01  7.46138E-01  9.18600E-03
    8995.426      1.853   1.480  8.12637E-01  7.58258E-01  5.43789E-02
    8995.883      2.311   1.520  8.74294E-01  7.70274E-01  1.04020E-01
    8996.353      2.780   1.560  9.39067E-01  7.82136E-01  1.56931E-01
    8996.834      3.262   1.600  1.00550E+00  7.93837E-01  2.11666E-01
    8997.328      3.755   1.640  1.06984E+00  8.05347E-01  2.64496E-01
    8997.834      4.261   1.680  1.13310E+00  8.16637E-01  3.16467E-01
    8998.352      4.779   1.720  1.19263E+00  8.27722E-01  3.64909E-01
    8998.882      5.310   1.760  1.23198E+00  8.38550E-01  3.93432E-01
    8999.425      5.852   1.800  1.24065E+00  8.49094E-01  3.91552E-01
    8999.980      6.407   1.840  1.23081E+00  8.59386E-01  3.71421E-01
    9000.547      6.974   1.880  1.22109E+00  8.69360E-01  3.51728E-01
    9001.126      7.553   1.920  1.21735E+00  8.79007E-01  3.38339E-01
    9001.717      8.144   1.960  1.21641E+00  8.88342E-01  3.28073E-01
    9002.320      8.748   2.000  1.21398E+00  8.97338E-01  3.16644E-01
    9002.936      9.364   2.040  1.20390E+00  9.05951E-01  2.97945E-01
    9003.564      9.991   2.080  1.18521E+00  9.14217E-01  2.70994E-01
    9004.204     10.632   2.120  1.16483E+00  9.22132E-01  2.42694E-01
    9004.856     11.284   2.160  1.14859E+00  9.29633E-01  2.18956E-01
    9005.521     11.948   2.200  1.13690E+00  9.36777E-01  2.00121E-01
    9006.198     12.625   2.240  1.12657E+00  9.43526E-01  1.83040E-01
    9006.886     13.314   2.280  1.11622E+00  9.49876E-01  1.66345E-01
    9007.587     14.015   2.320  1.10926E+00  9.55848E-01  1.53411E-01
    9008.301     14.728   2.360  1.11144E+00  9.61443E-01  1.49995E-01
    9009.026     15.453   2.400  1.12211E+00  9.66643E-01  1.55467E-01
    9009.764     16.191   2.440  1.13149E+00  9.71450E-01  1.60037E-01
    9010.513     16.941   2.480  1.13177E+00  9.75906E-01  1.55866E-01
    9011.275     17.703   2.520  1.12375E+00  9.79975E-01  1.43778E-01
    9012.050     18.477   2.560  1.11091E+00  9.83682E-01  1.27224E-01
    9012.836     19.263   2.600  1.09201E+00  9.87051E-01  1.04955E-01
    9013.635     20.062   2.640  1.06200E+00  9.90068E-01  7.19287E-02
    9014.445     20.873   2.680  1.02086E+00  9.92778E-01  2.80818E-02
    9015.268     21.696   2.720  9.76598E-01  9.95146E-01 -1.85483E-02
    9016.103     22.531   2.760  9.37608E-01  9.97219E-01 -5.96107E-02
    9016.951     23.378   2.800  9.03956E-01  9.98983E-01 -9.50278E-02
    9017.810     24.238   2.840  8.73162E-01  1.00048E+00 -1.27323E-01
    9018.682     25.109   2.880  8.47463E-01  1.00171E+00 -1.54248E-01
    9019.566     25.993   2.920  8.29638E-01  1.00269E+00 -1.73051E-01
    9020.462     26.890   2.960  8.18881E-01  1.00341E+00 -1.84526E-01
    9021.370     27.798   3.000  8.09192E-01  1.00393E+00 -1.94738E-01
    9022.291     28.718   3.040  8.00360E-01  1.00423E+00 -2.03867E-01
    9023.224     29.651   3.080  7.93705E-01  1.00433E+00 -2.10620E-01
    9024.168     30.596   3.120  7.90494E-01  1.00425E+00 -2.13757E-01
    9025.126     31.553   3.160  7.92107E-01  1.00401E+00 -2.11905E-01
    9026.095     32.522   3.200  7.98544E-01  1.00362E+00 -2.05072E-01
    9027.076     33.504   3.240  8.09468E-01  1.00309E+00 -1.93622E-01
    9028.070     34.497   3.280  8.24131E-01  1.00242E+00 -1.78289E-01
    9029.076     35.503   3.320  8.41370E-01  1.00165E+00 -1.60283E-01
    9030.094     36.521   3.360  8.60078E-01  1.00079E+00 -1.40717E-01
    9031.124     37.551   3.400  8.79521E-01  9.99832E-01 -1.20312E-01
    9032.166     38.594   3.440  8.99241E-01  9.98811E-01 -9.95701E-02
    9033.221     39.648   3.480  9.18994E-01  9.97717E-01 -7.87230E-02
    9034.288     40.715   3.520  9.38754E-01  9.96554E-01 -5.77997E-02
    9035.367     41.794   3.560  9.58480E-01  9.95370E-01 -3.68896E-02
    9036.458     42.885   3.600  9.77696E-01  9.94150E-01 -1.64534E-02
    9037.561     43.989   3.640  9.95739E-01  9.92918E-01  2.82115E-03
    9038.677     45.104   3.680  1.01175E+00  9.91658E-01  2.00917E-02
    9039.805     46.232   3.720  1.02506E+00  9.90394E-01  3.46649E-02
    9040.945     47.372   3.760  1.03559E+00  9.89130E-01  4.64633E-02
    9042.097     48.524   3.800  1.04391E+00  9.87893E-01  5.60153E-02
    9043.261     49.688   3.840  1.05073E+00  9.86664E-01  6.40678E-02
    9044.438     50.865   3.880  1.05684E+00  9.85465E-01  7.13754E-02
    9045.626     52.054   3.920  1.06268E+00  9.84281E-01  7.83945E-02
    9046.827     53.255   3.960  1.06837E+00  9.83154E-01  8.52163E-02
    9048.040     54.468   4.000  1.07370E+00  9.82046E-01  9.16535E-02
    9049.266     55.693   4.040  1.07849E+00  9.81002E-01  9.74878E-02
    9050.503     56.930   4.080  1.08235E+00  9.80004E-01  1.02347E-01
    9051.753     58.180   4.120  1.08476E+00  9.79072E-01  1.05684E-01
    9053.015     59.442   4.160  1.08508E+00  9.78187E-01  1.06896E-01
    9054.289     60.716   4.200  1.08277E+00  9.77349E-01  1.05419E-01
    9055.575     62.002   4.240  1.07747E+00  9.76583E-01  1.00890E-01
    9056.873     63.301   4.280  1.06935E+00  9.75888E-01  9.34668E-02
    9058.184     64.611   4.320  1.05921E+00  9.75244E-01  8.39622E-02
    9059.507     65.934   4.360  1.04814E+00  9.74673E-01  7.34623E-02
    9060.842     67.269   4.400  1.03715E+00  9.74176E-01  6.29780E-02
    9062.189     68.616   4.440  1.02684E+00  9.73731E-01  5.31128E-02
    9063.548     69.976   4.480  1.01723E+00  9.73358E-01  4.38756E-02
    9064.920     71.347   4.520  1.00795E+00  9.73061E-01  3.48901E-02
    9066.304     72.731   4.560  9.98554E-01  9.72837E-01  2.57170E-02
    9067.700     74.127   4.600  9.88752E-01  9.72663E-01  1.60892E-02
    9069.108     75.535   4.640  9.78572E-01  9.72561E-01  6.01091E-03
    9070.528     76.956   4.680  9.68250E-01  9.72508E-01 -4.25779E-03
    9071.961     78.388   4.720  9.58206E-01  9.72525E-01 -1.43190E-02
    9073.406     79.833   4.760  9.48928E-01  9.72589E-01 -2.36612E-02
    9074.863     81.290   4.800  9.41011E-01  9.72722E-01 -3.17111E-02
    9076.332     82.759   4.840  9.34886E-01  9.72901E-01 -3.80150E-02
    9077.813     84.240   4.880  9.30778E-01  9.73125E-01 -4.23468E-02
    9079.307     85.734   4.920  9.28612E-01  9.73413E-01 -4.48017E-02
    9080.812     87.240   4.960  9.27973E-01  9.73742E-01 -4.57686E-02
    9082.330     88.758   5.000  9.28343E-01  9.74088E-01 -4.57452E-02
    9083.860     90.288   5.040  9.29279E-01  9.74493E-01 -4.52142E-02
    9085.403     91.830   5.080  9.30388E-01  9.74913E-01 -4.45249E-02
    9086.957     93.384   5.120  9.31515E-01  9.75368E-01 -4.38526E-02
    9088.524     94.951   5.160  9.32597E-01  9.75857E-01 -4.32600E-02
    9090.103     96.530   5.200  9.33698E-01  9.76376E-01 -4.26780E-02
    9091.694     98.121   5.240  9.34881E-01  9.76880E-01 -4.19991E-02
    9093.297     99.724   5.280  9.36291E-01  9.77411E-01 -4.11206E-02
    9094.912    101.340   5.320  9.37972E-01  9.77968E-01 -3.99966E-02
    9096.540    102.967   5.360  9.39877E-01  9.78504E-01 -3.86273E-02
    9098.180    104.607   5.400  9.42018E-01  9.79040E-01 -3.70221E-02
    9099.832    106.259   5.440  9.44413E-01  9.79596E-01 -3.51822E-02
    9101.496    107.923   5.480  9.47041E-01  9.80124E-01 -3.30831E-02
    9103.172    109.600   5.520  9.49969E-01  9.80625E-01 -3.06559E-02
    9104.861    111.288   5.560  9.53354E-01  9.81140E-01 -2.77861E-02
    9106.562    112.989   5.600  9.57278E-01  9.81624E-01 -2.43466E-02
    9108.275    114.702   5.640  9.61800E-01  9.82074E-01 -2.02738E-02
    9110.000    116.427   5.680  9.66851E-01  9.82488E-01 -1.56374E-02
    9111.737    118.165   5.720  9.72206E-01  9.82890E-01 -1.06840E-02
    9113.487    119.914   5.760  9.77491E-01  9.83254E-01 -5.76334E-03
    9115.248    121.676   5.800  9.82383E-01  9.83580E-01 -1.19672E-03
    9117.022    123.450   5.840  9.86704E-01  9.83865E-01  2.83884E-03
    9118.808    125.236   5.880  9.90423E-01  9.84109E-01  6.31347E-03
    9120.607    127.034   5.920  9.93589E-01  9.84310E-01  9.27861E-03
    9122.417    128.845   5.960  9.96303E-01  9.84461E-01  1.18421E-02
    9124.240    130.667   6.000  9.98808E-01  9.84517E-01  1.42908E-02
