# # comment:                                                     FEFF 9.9.1  
# # Source:
# # Structure
# # Reduced
# # space
# # abc:
# # angles:
# # sites:
# # POT  SCF 100  7.0000   0, screened core-hole, AFOLP (folp(0)= 1.150)
# # Abs   Z=29 Rmt= 1.269 Rnm= 1.346 K  shell
# # Pot 1 Z=56 Rmt= 2.060 Rnm= 2.126
# # Pot 2 Z=29 Rmt= 1.269 Rnm= 1.346
# # Pot 3 Z=34 Rmt= 1.104 Rnm= 1.329
# # Pot 4 Z= 8 Rmt= 0.953 Rnm= 1.071
# # Gam_ch=1.729E+00 H-L exch Vi= 0.000E+00 Vr= 0.000E+00
# # Mu=-5.623E+00eV kf=2.235E+00 Vint=-1.594E+01eV Rs_int= 1.623
# FMS rfms= 9.0000
# # PATH  Rmax=-1.000,  Keep_limit= 0.00, Heap_limit 0.00  Pwcrit= 2.50%
#  S02=0.950  Temp=   0.00  Debye_temp=   0.00  Global_sig2= 0.00000
#  Energy zero shift, vr, vi    0.00000E+00   0.00000E+00
#  Curved wave amplitude ratio filter   4.000%
#     file         sig2 tot  cw amp ratio   deg  nlegs   reff  inp sig2
#     0/   0 paths used
#  xsedge+ 50, used to normalize mu           2.4569E-04
#  -----------------------------------------------------------------------
#  omega    e    k    mu    mu0     chi     @#
    8983.662     -9.433  -1.000  4.82651E-02  5.84368E-02 -1.01717E-02
    8983.961     -9.134  -0.960  5.13947E-02  6.28376E-02 -1.14429E-02
    8984.248     -8.847  -0.920  5.48452E-02  6.77417E-02 -1.28965E-02
    8984.522     -8.573  -0.880  5.86637E-02  7.32246E-02 -1.45609E-02
    8984.784     -8.311  -0.840  6.29053E-02  7.93742E-02 -1.64689E-02
    8985.034     -8.061  -0.800  6.76342E-02  8.62925E-02 -1.86582E-02
    8985.272     -7.823  -0.760  7.29249E-02  9.40966E-02 -2.11717E-02
    8985.497     -7.598  -0.720  7.88617E-02  1.02919E-01 -2.40576E-02
    8985.711     -7.384  -0.680  8.55383E-02  1.12907E-01 -2.73684E-02
    8985.912     -7.183  -0.640  9.30544E-02  1.24214E-01 -3.11592E-02
    8986.101     -6.994  -0.600  1.01509E-01  1.36992E-01 -3.54836E-02
    8986.278     -6.817  -0.560  1.10987E-01  1.51374E-01 -4.03861E-02
    8986.442     -6.653  -0.520  1.21544E-01  1.67436E-01 -4.58920E-02
    8986.595     -6.500  -0.480  1.33172E-01  1.85163E-01 -5.19911E-02
    8986.735     -6.360  -0.440  1.45779E-01  2.04401E-01 -5.86218E-02
    8986.863     -6.232  -0.400  1.59153E-01  2.24809E-01 -6.56564E-02
    8986.979     -6.116  -0.360  1.72957E-01  2.45856E-01 -7.28984E-02
    8987.082     -6.013  -0.320  1.86749E-01  2.66848E-01 -8.00983E-02
    8987.174     -5.921  -0.280  2.00031E-01  2.87017E-01 -8.69861E-02
    8987.253     -5.842  -0.240  2.12315E-01  3.05626E-01 -9.33109E-02
    8987.320     -5.775  -0.200  2.23190E-01  3.22061E-01 -9.88709E-02
    8987.375     -5.720  -0.160  2.32351E-01  3.35875E-01 -1.03525E-01
    8987.418     -5.677  -0.120  2.39602E-01  3.46787E-01 -1.07185E-01
    8987.448     -5.647  -0.080  2.44835E-01  3.54641E-01 -1.09806E-01
    8987.472     -5.623   0.000  2.49050E-01  3.60947E-01 -1.11897E-01
    8987.527     -5.568   0.120  2.58189E-01  3.75157E-01 -1.16968E-01
    8987.570     -5.525   0.160  2.65345E-01  3.86196E-01 -1.20851E-01
    8987.625     -5.470   0.200  2.74420E-01  4.00247E-01 -1.25827E-01
    8987.692     -5.403   0.240  2.85254E-01  4.17119E-01 -1.31865E-01
    8987.771     -5.324   0.280  2.97519E-01  4.36448E-01 -1.38929E-01
    8987.863     -5.232   0.320  3.10665E-01  4.57689E-01 -1.47024E-01
    8987.966     -5.129   0.360  3.24006E-01  4.80191E-01 -1.56185E-01
    8988.082     -5.013   0.400  3.36673E-01  5.03243E-01 -1.66570E-01
    8988.210     -4.885   0.440  3.47900E-01  5.26216E-01 -1.78316E-01
    8988.350     -4.745   0.480  3.57166E-01  5.48603E-01 -1.91436E-01
    8988.503     -4.592   0.520  3.64479E-01  5.70094E-01 -2.05615E-01
    8988.667     -4.428   0.560  3.70382E-01  5.90527E-01 -2.20144E-01
    8988.844     -4.251   0.600  3.75724E-01  6.09865E-01 -2.34142E-01
    8989.033     -4.062   0.640  3.81461E-01  6.28200E-01 -2.46739E-01
    8989.234     -3.861   0.680  3.88343E-01  6.45584E-01 -2.57241E-01
    8989.447     -3.648   0.720  3.96969E-01  6.62146E-01 -2.65177E-01
    8989.673     -3.422   0.760  4.07654E-01  6.78019E-01 -2.70365E-01
    8989.911     -3.184   0.800  4.20459E-01  6.93279E-01 -2.72820E-01
    8990.161     -2.934   0.840  4.35563E-01  7.08032E-01 -2.72470E-01
    8990.423     -2.672   0.880  4.53560E-01  7.22329E-01 -2.68769E-01
    8990.697     -2.398   0.920  4.75534E-01  7.36241E-01 -2.60707E-01
    8990.984     -2.111   0.960  5.02590E-01  7.49786E-01 -2.47196E-01
    8991.282     -1.813   1.000  5.35144E-01  7.63014E-01 -2.27870E-01
    8991.593     -1.502   1.040  5.71609E-01  7.75941E-01 -2.04332E-01
    8991.916     -1.179   1.080  6.07629E-01  7.88554E-01 -1.80924E-01
    8992.252     -0.843   1.120  6.37361E-01  8.00895E-01 -1.63535E-01
    8992.599     -0.496   1.160  6.57065E-01  8.12921E-01 -1.55856E-01
    8992.959     -0.136   1.200  6.69779E-01  8.24640E-01 -1.54861E-01
    8993.331      0.236   1.240  6.84545E-01  8.36062E-01 -1.51516E-01
    8993.715      0.620   1.280  7.09463E-01  8.47149E-01 -1.37686E-01
    8994.111      1.016   1.320  7.47297E-01  8.57884E-01 -1.10587E-01
    8994.519      1.424   1.360  7.98984E-01  8.68290E-01 -6.93060E-02
    8994.940      1.845   1.400  8.63996E-01  8.78325E-01 -1.43288E-02
    8995.373      2.278   1.440  9.28085E-01  8.87968E-01  4.01172E-02
    8995.818      2.723   1.480  9.72252E-01  8.97239E-01  7.50132E-02
    8996.275      3.180   1.520  9.98769E-01  9.06118E-01  9.26511E-02
    8996.744      3.649   1.560  1.02369E+00  9.14582E-01  1.09111E-01
    8997.226      4.131   1.600  1.05768E+00  9.22633E-01  1.35048E-01
    8997.720      4.625   1.640  1.10657E+00  9.30273E-01  1.76301E-01
    8998.226      5.131   1.680  1.16807E+00  9.37500E-01  2.30568E-01
    8998.744      5.649   1.720  1.23016E+00  9.44295E-01  2.85862E-01
    8999.274      6.179   1.760  1.28185E+00  9.50685E-01  3.31164E-01
    8999.817      6.722   1.800  1.31803E+00  9.56670E-01  3.61357E-01
    9000.371      7.276   1.840  1.33912E+00  9.62235E-01  3.76882E-01
    9000.938      7.843   1.880  1.35022E+00  9.67404E-01  3.82814E-01
    9001.518      8.422   1.920  1.35555E+00  9.72161E-01  3.83387E-01
    9002.109      9.014   1.960  1.35475E+00  9.76553E-01  3.78194E-01
    9002.712      9.617   2.000  1.34354E+00  9.80567E-01  3.62975E-01
    9003.328     10.233   2.040  1.31639E+00  9.84210E-01  3.32178E-01
    9003.956     10.861   2.080  1.27447E+00  9.87510E-01  2.86958E-01
    9004.596     11.501   2.120  1.22522E+00  9.90472E-01  2.34745E-01
    9005.248     12.153   2.160  1.17730E+00  9.93126E-01  1.84172E-01
    9005.913     12.818   2.200  1.14017E+00  9.95482E-01  1.44692E-01
    9006.589     13.494   2.240  1.11845E+00  9.97525E-01  1.20927E-01
    9007.278     14.183   2.280  1.10854E+00  9.99326E-01  1.09216E-01
    9007.979     14.884   2.320  1.10295E+00  1.00085E+00  1.02099E-01
    9008.692     15.597   2.360  1.09502E+00  1.00215E+00  9.28623E-02
    9009.418     16.323   2.400  1.08152E+00  1.00322E+00  7.83048E-02
    9010.156     17.060   2.440  1.06193E+00  1.00407E+00  5.78599E-02
    9010.905     17.810   2.480  1.03704E+00  1.00475E+00  3.22980E-02
    9011.667     18.572   2.520  1.00997E+00  1.00525E+00  4.72534E-03
    9012.442     19.346   2.560  9.83744E-01  1.00556E+00 -2.18189E-02
    9013.228     20.133   2.600  9.58516E-01  1.00576E+00 -4.72464E-02
    9014.026     20.931   2.640  9.35879E-01  1.00581E+00 -6.99329E-02
    9014.837     21.742   2.680  9.19193E-01  1.00574E+00 -8.65454E-02
    9015.660     22.565   2.720  9.07555E-01  1.00557E+00 -9.80151E-02
    9016.495     23.400   2.760  8.99387E-01  1.00532E+00 -1.05928E-01
    9017.343     24.248   2.800  8.93671E-01  1.00498E+00 -1.11306E-01
    9018.202     25.107   2.840  8.89717E-01  1.00458E+00 -1.14867E-01
    9019.074     25.979   2.880  8.87210E-01  1.00412E+00 -1.16907E-01
    9019.958     26.863   2.920  8.85780E-01  1.00360E+00 -1.17824E-01
    9020.854     27.759   2.960  8.85259E-01  1.00305E+00 -1.17790E-01
    9021.762     28.667   3.000  8.85643E-01  1.00246E+00 -1.16816E-01
    9022.683     29.588   3.040  8.86913E-01  1.00186E+00 -1.14943E-01
    9023.615     30.520   3.080  8.89184E-01  1.00125E+00 -1.12064E-01
    9024.560     31.465   3.120  8.92706E-01  1.00064E+00 -1.07931E-01
    9025.517     32.422   3.160  8.97075E-01  1.00003E+00 -1.02950E-01
    9026.487     33.392   3.200  9.02001E-01  9.99416E-01 -9.74154E-02
    9027.468     34.373   3.240  9.07446E-01  9.98834E-01 -9.13878E-02
    9028.462     35.367   3.280  9.13435E-01  9.98259E-01 -8.48243E-02
    9029.468     36.373   3.320  9.20047E-01  9.97715E-01 -7.76681E-02
    9030.486     37.391   3.360  9.27327E-01  9.97185E-01 -6.98582E-02
    9031.516     38.421   3.400  9.35350E-01  9.96710E-01 -6.13607E-02
    9032.558     39.463   3.440  9.43812E-01  9.96251E-01 -5.24390E-02
    9033.613     40.518   3.480  9.52619E-01  9.95829E-01 -4.32100E-02
    9034.680     41.585   3.520  9.61635E-01  9.95447E-01 -3.38124E-02
    9035.759     42.664   3.560  9.70692E-01  9.95127E-01 -2.44350E-02
    9036.850     43.755   3.600  9.79565E-01  9.94826E-01 -1.52611E-02
    9037.953     44.858   3.640  9.88132E-01  9.94588E-01 -6.45581E-03
    9039.069     45.974   3.680  9.96148E-01  9.94370E-01  1.77811E-03
    9040.196     47.101   3.720  1.00346E+00  9.94215E-01  9.24708E-03
    9041.336     48.241   3.760  1.01003E+00  9.94103E-01  1.59278E-02
    9042.489     49.394   3.800  1.01599E+00  9.94034E-01  2.19604E-02
    9043.653     50.558   3.840  1.02157E+00  9.94028E-01  2.75369E-02
    9044.829     51.734   3.880  1.02692E+00  9.94043E-01  3.28814E-02
    9046.018     52.923   3.920  1.03216E+00  9.94120E-01  3.80416E-02
    9047.219     54.124   3.960  1.03704E+00  9.94215E-01  4.28248E-02
    9048.432     55.337   4.000  1.04130E+00  9.94371E-01  4.69255E-02
    9049.657     56.562   4.040  1.04471E+00  9.94545E-01  5.01674E-02
    9050.895     57.800   4.080  1.04734E+00  9.94779E-01  5.25615E-02
    9052.145     59.050   4.120  1.04928E+00  9.95029E-01  5.42487E-02
    9053.406     60.311   4.160  1.05075E+00  9.95337E-01  5.54152E-02
    9054.681     61.585   4.200  1.05184E+00  9.95658E-01  5.61864E-02
    9055.967     62.872   4.240  1.05262E+00  9.95991E-01  5.66284E-02
    9057.265     64.170   4.280  1.05319E+00  9.96376E-01  5.68177E-02
    9058.576     65.481   4.320  1.05357E+00  9.96752E-01  5.68230E-02
    9059.899     66.804   4.360  1.05372E+00  9.97178E-01  5.65435E-02
    9061.234     68.139   4.400  1.05329E+00  9.97612E-01  5.56790E-02
    9062.581     69.486   4.440  1.05195E+00  9.98051E-01  5.38950E-02
    9063.940     70.845   4.480  1.04943E+00  9.98493E-01  5.09387E-02
    9065.312     72.217   4.520  1.04574E+00  9.98960E-01  4.67771E-02
    9066.696     73.601   4.560  1.04101E+00  9.99429E-01  4.15828E-02
    9068.092     74.997   4.600  1.03547E+00  9.99876E-01  3.55900E-02
    9069.500     76.405   4.640  1.02935E+00  1.00034E+00  2.90074E-02
    9070.920     77.825   4.680  1.02286E+00  1.00081E+00  2.20531E-02
    9072.353     79.258   4.720  1.01624E+00  1.00127E+00  1.49676E-02
    9073.797     80.702   4.760  1.00971E+00  1.00171E+00  8.00344E-03
    9075.254     82.159   4.800  1.00356E+00  1.00214E+00  1.42463E-03
    9076.724     83.629   4.840  9.97985E-01  1.00256E+00 -4.57235E-03
    9078.205     85.110   4.880  9.93043E-01  1.00295E+00 -9.90386E-03
    9079.698     86.603   4.920  9.88701E-01  1.00333E+00 -1.46242E-02
    9081.204     88.109   4.960  9.84740E-01  1.00367E+00 -1.89316E-02
    9082.722     89.627   5.000  9.80944E-01  1.00398E+00 -2.30381E-02
    9084.252     91.157   5.040  9.77261E-01  1.00428E+00 -2.70196E-02
    9085.794     92.699   5.080  9.73802E-01  1.00457E+00 -3.07659E-02
    9087.349     94.254   5.120  9.70748E-01  1.00480E+00 -3.40482E-02
    9088.916     95.820   5.160  9.68331E-01  1.00501E+00 -3.66781E-02
    9090.494     97.399   5.200  9.66677E-01  1.00518E+00 -3.85072E-02
    9092.085     98.990   5.240  9.65872E-01  1.00532E+00 -3.94508E-02
    9093.689    100.594   5.280  9.65922E-01  1.00544E+00 -3.95224E-02
    9095.304    102.209   5.320  9.66615E-01  1.00551E+00 -3.88908E-02
    9096.932    103.837   5.360  9.67735E-01  1.00555E+00 -3.78130E-02
    9098.572    105.477   5.400  9.69001E-01  1.00553E+00 -3.65278E-02
    9100.224    107.129   5.440  9.70379E-01  1.00549E+00 -3.51137E-02
    9101.888    108.793   5.480  9.71913E-01  1.00542E+00 -3.35059E-02
    9103.564    110.469   5.520  9.73661E-01  1.00531E+00 -3.16445E-02
    9105.253    112.158   5.560  9.75560E-01  1.00515E+00 -2.95900E-02
    9106.953    113.858   5.600  9.77463E-01  1.00496E+00 -2.74948E-02
    9108.666    115.571   5.640  9.79220E-01  1.00473E+00 -2.55058E-02
    9110.392    117.297   5.680  9.80808E-01  1.00448E+00 -2.36721E-02
    9112.129    119.034   5.720  9.82227E-01  1.00417E+00 -2.19478E-02
    9113.879    120.783   5.760  9.83655E-01  1.00385E+00 -2.01977E-02
    9115.640    122.545   5.800  9.85275E-01  1.00350E+00 -1.82225E-02
    9117.414    124.319   5.840  9.87327E-01  1.00311E+00 -1.57818E-02
    9119.200    126.105   5.880  9.90066E-01  1.00271E+00 -1.26440E-02
    9120.999    127.904   5.920  9.93585E-01  1.00226E+00 -8.67145E-03
    9122.809    129.714   5.960  9.97916E-01  1.00180E+00 -3.88398E-03
    9124.632    131.537   6.000  1.00292E+00  1.00132E+00  1.59577E-03
