# # comment:                                                     FEFF 9.9.1  
# # Source:
# # Structure
# # Reduced
# # space
# # abc:
# # angles:
# # sites:
# # POT  SCF 100  7.0000   0, screened core-hole, AFOLP (folp(0)= 1.150)
# # Abs   Z=29 Rmt= 1.260 Rnm= 1.334 K  shell
# # Pot 1 Z= 3 Rmt= 1.307 Rnm= 1.364
# # Pot 2 Z=29 Rmt= 1.294 Rnm= 1.377
# # Pot 3 Z=15 Rmt= 0.942 Rnm= 1.156
# # Pot 4 Z= 8 Rmt= 0.879 Rnm= 1.041
# # Gam_ch=1.729E+00 H-L exch Vi= 0.000E+00 Vr= 0.000E+00
# # Mu=-6.613E+00eV kf=2.441E+00 Vint=-1.673E+01eV Rs_int= 1.486
# FMS rfms= 9.0000
# # PATH  Rmax=-1.000,  Keep_limit= 0.00, Heap_limit 0.00  Pwcrit= 2.50%
#  S02=0.950  Temp=   0.00  Debye_temp=   0.00  Global_sig2= 0.00000
#  Energy zero shift, vr, vi    0.00000E+00   0.00000E+00
#  Curved wave amplitude ratio filter   4.000%
#     file         sig2 tot  cw amp ratio   deg  nlegs   reff  inp sig2
#     0/   0 paths used
#  xsedge+ 50, used to normalize mu           2.4787E-04
#  -----------------------------------------------------------------------
#  omega    e    k    mu    mu0     chi     @#
    8983.322    -10.423  -1.000  4.36589E-02  5.24754E-02 -8.81652E-03
    8983.621    -10.124  -0.960  4.64843E-02  5.62830E-02 -9.79869E-03
    8983.907     -9.838  -0.920  4.96028E-02  6.05158E-02 -1.09130E-02
    8984.182     -9.564  -0.880  5.30568E-02  6.52366E-02 -1.21799E-02
    8984.444     -9.301  -0.840  5.68957E-02  7.05189E-02 -1.36233E-02
    8984.694     -9.051  -0.800  6.11768E-02  7.64477E-02 -1.52709E-02
    8984.932     -8.814  -0.760  6.59656E-02  8.31204E-02 -1.71548E-02
    8985.157     -8.588  -0.720  7.13362E-02  9.06476E-02 -1.93115E-02
    8985.371     -8.375  -0.680  7.73699E-02  9.91509E-02 -2.17810E-02
    8985.572     -8.174  -0.640  8.41525E-02  1.08759E-01 -2.46062E-02
    8985.761     -7.985  -0.600  9.17684E-02  1.19597E-01 -2.78291E-02
    8985.937     -7.808  -0.560  1.00290E-01  1.31775E-01 -3.14852E-02
    8986.102     -7.643  -0.520  1.09761E-01  1.45356E-01 -3.55946E-02
    8986.254     -7.491  -0.480  1.20176E-01  1.60326E-01 -4.01497E-02
    8986.395     -7.351  -0.440  1.31454E-01  1.76554E-01 -4.51006E-02
    8986.523     -7.223  -0.400  1.43412E-01  1.93757E-01 -5.03441E-02
    8986.638     -7.107  -0.360  1.55766E-01  2.11487E-01 -5.57217E-02
    8986.742     -7.003  -0.320  1.68133E-01  2.29167E-01 -6.10335E-02
    8986.834     -6.912  -0.280  1.80086E-01  2.46153E-01 -6.60671E-02
    8986.913     -6.833  -0.240  1.91195E-01  2.61827E-01 -7.06319E-02
    8986.980     -6.765  -0.200  2.01089E-01  2.75674E-01 -7.45848E-02
    8987.035     -6.711  -0.160  2.09479E-01  2.87317E-01 -7.78380E-02
    8987.077     -6.668  -0.120  2.16167E-01  2.96517E-01 -8.03501E-02
    8987.108     -6.637  -0.080  2.21029E-01  3.03142E-01 -8.21133E-02
    8987.132     -6.613   0.000  2.24992E-01  3.08464E-01 -8.34719E-02
    8987.187     -6.558   0.120  2.33555E-01  3.20462E-01 -8.69062E-02
    8987.230     -6.516   0.160  2.40280E-01  3.29775E-01 -8.94948E-02
    8987.285     -6.461   0.200  2.48935E-01  3.41671E-01 -9.27358E-02
    8987.352     -6.394   0.240  2.59409E-01  3.55959E-01 -9.65496E-02
    8987.431     -6.314   0.280  2.71518E-01  3.72343E-01 -1.00825E-01
    8987.522     -6.223   0.320  2.84913E-01  3.90393E-01 -1.05480E-01
    8987.626     -6.119   0.360  2.99037E-01  4.09557E-01 -1.10519E-01
    8987.742     -6.003   0.400  3.13169E-01  4.29286E-01 -1.16117E-01
    8987.870     -5.875   0.440  3.26478E-01  4.49046E-01 -1.22568E-01
    8988.010     -5.735   0.480  3.38300E-01  4.68438E-01 -1.30138E-01
    8988.162     -5.583   0.520  3.48566E-01  4.87210E-01 -1.38644E-01
    8988.327     -5.418   0.560  3.58088E-01  5.05226E-01 -1.47138E-01
    8988.504     -5.241   0.600  3.68368E-01  5.22457E-01 -1.54089E-01
    8988.693     -5.053   0.640  3.80853E-01  5.38961E-01 -1.58107E-01
    8988.894     -4.851   0.680  3.95948E-01  5.54835E-01 -1.58887E-01
    8989.107     -4.638   0.720  4.12713E-01  5.70169E-01 -1.57456E-01
    8989.333     -4.412   0.760  4.29553E-01  5.85053E-01 -1.55500E-01
    8989.571     -4.175   0.800  4.45094E-01  5.99589E-01 -1.54494E-01
    8989.821     -3.925   0.840  4.58160E-01  6.13842E-01 -1.55682E-01
    8990.083     -3.663   0.880  4.66912E-01  6.27866E-01 -1.60954E-01
    8990.357     -3.388   0.920  4.68384E-01  6.41724E-01 -1.73340E-01
    8990.644     -3.102   0.960  4.61536E-01  6.55447E-01 -1.93911E-01
    8990.942     -2.803   1.000  4.50546E-01  6.69051E-01 -2.18505E-01
    8991.253     -2.492   1.040  4.41932E-01  6.82546E-01 -2.40614E-01
    8991.576     -2.169   1.080  4.40025E-01  6.95955E-01 -2.55930E-01
    8991.911     -1.834   1.120  4.46170E-01  7.09256E-01 -2.63086E-01
    8992.259     -1.486   1.160  4.59890E-01  7.22436E-01 -2.62547E-01
    8992.619     -1.127   1.200  4.80173E-01  7.35524E-01 -2.55350E-01
    8992.990     -0.755   1.240  5.05942E-01  7.48460E-01 -2.42519E-01
    8993.375     -0.371   1.280  5.36550E-01  7.61267E-01 -2.24717E-01
    8993.771      0.025   1.320  5.70352E-01  7.73901E-01 -2.03548E-01
    8994.179      0.434   1.360  6.03934E-01  7.86336E-01 -1.82402E-01
    8994.600      0.854   1.400  6.37676E-01  7.98568E-01 -1.60892E-01
    8995.033      1.287   1.440  6.77751E-01  8.10571E-01 -1.32820E-01
    8995.478      1.732   1.480  7.28042E-01  8.22317E-01 -9.42759E-02
    8995.935      2.189   1.520  7.82455E-01  8.33780E-01 -5.13245E-02
    8996.404      2.659   1.560  8.31364E-01  8.44951E-01 -1.35866E-02
    8996.886      3.140   1.600  8.77541E-01  8.55802E-01  2.17387E-02
    8997.380      3.634   1.640  9.26097E-01  8.66329E-01  5.97681E-02
    8997.886      4.140   1.680  9.67569E-01  8.76505E-01  9.10644E-02
    8998.404      4.658   1.720  9.96779E-01  8.86323E-01  1.10456E-01
    8998.934      5.189   1.760  1.01456E+00  8.95757E-01  1.18798E-01
    8999.477      5.731   1.800  1.02654E+00  9.04804E-01  1.21734E-01
    9000.031      6.286   1.840  1.04399E+00  9.13461E-01  1.30534E-01
    9000.598      6.853   1.880  1.06926E+00  9.21703E-01  1.47558E-01
    9001.177      7.432   1.920  1.09610E+00  9.29530E-01  1.66571E-01
    9001.769      8.023   1.960  1.12028E+00  9.36941E-01  1.83338E-01
    9002.372      8.627   2.000  1.14127E+00  9.43954E-01  1.97311E-01
    9002.988      9.243   2.040  1.16308E+00  9.50531E-01  2.12547E-01
    9003.616      9.870   2.080  1.18971E+00  9.56714E-01  2.32992E-01
    9004.256     10.511   2.120  1.21668E+00  9.62465E-01  2.54212E-01
    9004.908     11.163   2.160  1.23634E+00  9.67827E-01  2.68509E-01
    9005.573     11.827   2.200  1.24750E+00  9.72785E-01  2.74718E-01
    9006.249     12.504   2.240  1.25348E+00  9.77360E-01  2.76121E-01
    9006.938     13.193   2.280  1.25668E+00  9.81540E-01  2.75139E-01
    9007.639     13.894   2.320  1.25625E+00  9.85371E-01  2.70882E-01
    9008.352     14.607   2.360  1.25349E+00  9.88839E-01  2.64651E-01
    9009.078     15.332   2.400  1.24955E+00  9.91947E-01  2.57605E-01
    9009.815     16.070   2.440  1.23715E+00  9.94724E-01  2.42424E-01
    9010.565     16.820   2.480  1.20877E+00  9.97200E-01  2.11570E-01
    9011.327     17.582   2.520  1.16892E+00  9.99360E-01  1.69556E-01
    9012.101     18.356   2.560  1.12938E+00  1.00123E+00  1.28151E-01
    9012.888     19.142   2.600  1.09688E+00  1.00284E+00  9.40346E-02
    9013.686     19.941   2.640  1.06998E+00  1.00418E+00  6.57979E-02
    9014.497     20.752   2.680  1.04322E+00  1.00527E+00  3.79528E-02
    9015.320     21.575   2.720  1.01153E+00  1.00615E+00  5.37970E-03
    9016.155     22.410   2.760  9.74713E-01  1.00679E+00 -3.20772E-02
    9017.003     23.257   2.800  9.38796E-01  1.00725E+00 -6.84567E-02
    9017.862     24.117   2.840  9.15911E-01  1.00752E+00 -9.16099E-02
    9018.734     24.988   2.880  9.04502E-01  1.00762E+00 -1.03120E-01
    9019.618     25.872   2.920  8.97137E-01  1.00756E+00 -1.10426E-01
    9020.514     26.768   2.960  8.91156E-01  1.00737E+00 -1.16216E-01
    9021.422     27.677   3.000  8.85647E-01  1.00706E+00 -1.21408E-01
    9022.343     28.597   3.040  8.80586E-01  1.00662E+00 -1.26032E-01
    9023.275     29.530   3.080  8.76399E-01  1.00607E+00 -1.29669E-01
    9024.220     30.475   3.120  8.73722E-01  1.00545E+00 -1.31731E-01
    9025.177     31.432   3.160  8.72707E-01  1.00474E+00 -1.32029E-01
    9026.146     32.401   3.200  8.72881E-01  1.00397E+00 -1.31084E-01
    9027.128     33.383   3.240  8.73580E-01  1.00314E+00 -1.29565E-01
    9028.122     34.376   3.280  8.74373E-01  1.00226E+00 -1.27886E-01
    9029.127     35.382   3.320  8.74820E-01  1.00136E+00 -1.26535E-01
    9030.145     36.400   3.360  8.74990E-01  1.00042E+00 -1.25426E-01
    9031.176     37.430   3.400  8.75584E-01  9.99467E-01 -1.23883E-01
    9032.218     38.473   3.440  8.77486E-01  9.98490E-01 -1.21004E-01
    9033.273     39.527   3.480  8.81487E-01  9.97509E-01 -1.16022E-01
    9034.339     40.594   3.520  8.88039E-01  9.96552E-01 -1.08512E-01
    9035.418     41.673   3.560  8.97236E-01  9.95598E-01 -9.83623E-02
    9036.510     42.764   3.600  9.08667E-01  9.94650E-01 -8.59833E-02
    9037.613     43.868   3.640  9.21982E-01  9.93732E-01 -7.17504E-02
    9038.729     44.983   3.680  9.36806E-01  9.92828E-01 -5.60219E-02
    9039.856     46.111   3.720  9.52855E-01  9.91980E-01 -3.91242E-02
    9040.996     47.251   3.760  9.69800E-01  9.91146E-01 -2.13461E-02
    9042.148     48.403   3.800  9.87423E-01  9.90352E-01 -2.92843E-03
    9043.313     49.567   3.840  1.00531E+00  9.89619E-01  1.56905E-02
    9044.489     50.744   3.880  1.02281E+00  9.88907E-01  3.39037E-02
    9045.678     51.933   3.920  1.03931E+00  9.88258E-01  5.10485E-02
    9046.879     53.134   3.960  1.05400E+00  9.87653E-01  6.63441E-02
    9048.092     54.347   4.000  1.06600E+00  9.87091E-01  7.89093E-02
    9049.317     55.572   4.040  1.07471E+00  9.86575E-01  8.81402E-02
    9050.555     56.809   4.080  1.07989E+00  9.86126E-01  9.37617E-02
    9051.804     58.059   4.120  1.08156E+00  9.85745E-01  9.58103E-02
    9053.066     59.321   4.160  1.07999E+00  9.85390E-01  9.46049E-02
    9054.340     60.595   4.200  1.07572E+00  9.85101E-01  9.06185E-02
    9055.627     61.881   4.240  1.06924E+00  9.84880E-01  8.43596E-02
    9056.925     63.180   4.280  1.06112E+00  9.84682E-01  7.64381E-02
    9058.236     64.490   4.320  1.05223E+00  9.84552E-01  6.76738E-02
    9059.559     65.813   4.360  1.04337E+00  9.84488E-01  5.88825E-02
    9060.894     67.148   4.400  1.03522E+00  9.84448E-01  5.07724E-02
    9062.241     68.495   4.440  1.02826E+00  9.84471E-01  4.37848E-02
    9063.600     69.855   4.480  1.02251E+00  9.84538E-01  3.79755E-02
    9064.972     71.226   4.520  1.01770E+00  9.84648E-01  3.30477E-02
    9066.356     72.610   4.560  1.01335E+00  9.84821E-01  2.85258E-02
    9067.752     74.006   4.600  1.00896E+00  9.85011E-01  2.39446E-02
    9069.160     75.414   4.640  1.00427E+00  9.85238E-01  1.90370E-02
    9070.580     76.835   4.680  9.99390E-01  9.85502E-01  1.38882E-02
    9072.013     78.267   4.720  9.94683E-01  9.85802E-01  8.88057E-03
    9073.457     79.712   4.760  9.90582E-01  9.86116E-01  4.46583E-03
    9074.914     81.169   4.800  9.87489E-01  9.86485E-01  1.00356E-03
    9076.383     82.638   4.840  9.85501E-01  9.86865E-01 -1.36375E-03
    9077.865     84.119   4.880  9.84553E-01  9.87253E-01 -2.69942E-03
    9079.358     85.613   4.920  9.84505E-01  9.87668E-01 -3.16341E-03
    9080.864     87.119   4.960  9.85117E-01  9.88089E-01 -2.97217E-03
    9082.382     88.637   5.000  9.86067E-01  9.88515E-01 -2.44794E-03
    9083.912     90.167   5.040  9.86848E-01  9.88964E-01 -2.11541E-03
    9085.454     91.709   5.080  9.86757E-01  9.89393E-01 -2.63525E-03
    9087.009     93.263   5.120  9.85290E-01  9.89844E-01 -4.55405E-03
    9088.575     94.830   5.160  9.82218E-01  9.90294E-01 -8.07530E-03
    9090.154     96.409   5.200  9.77745E-01  9.90718E-01 -1.29723E-02
    9091.745     98.000   5.240  9.72415E-01  9.91135E-01 -1.87201E-02
    9093.349     99.603   5.280  9.66886E-01  9.91549E-01 -2.46630E-02
    9094.964    101.219   5.320  9.61780E-01  9.91956E-01 -3.01759E-02
    9096.592    102.846   5.360  9.57543E-01  9.92333E-01 -3.47891E-02
    9098.231    104.486   5.400  9.54456E-01  9.92697E-01 -3.82405E-02
    9099.883    106.138   5.440  9.52509E-01  9.93006E-01 -4.04964E-02
    9101.548    107.802   5.480  9.51644E-01  9.93324E-01 -4.16795E-02
    9103.224    109.479   5.520  9.51612E-01  9.93584E-01 -4.19720E-02
    9104.913    111.167   5.560  9.52278E-01  9.93831E-01 -4.15533E-02
    9106.613    112.868   5.600  9.53503E-01  9.94042E-01 -4.05391E-02
    9108.326    114.581   5.640  9.55234E-01  9.94216E-01 -3.89814E-02
    9110.051    116.306   5.680  9.57498E-01  9.94373E-01 -3.68755E-02
    9111.789    118.043   5.720  9.60248E-01  9.94468E-01 -3.42204E-02
    9113.538    119.793   5.760  9.63462E-01  9.94523E-01 -3.10612E-02
    9115.300    121.555   5.800  9.67045E-01  9.94562E-01 -2.75166E-02
    9117.074    123.329   5.840  9.70800E-01  9.94538E-01 -2.37384E-02
    9118.860    125.115   5.880  9.74624E-01  9.94474E-01 -1.98493E-02
    9120.658    126.913   5.920  9.78458E-01  9.94394E-01 -1.59362E-02
    9122.469    128.724   5.960  9.82146E-01  9.94247E-01 -1.21007E-02
    9124.292    130.546   6.000  9.85659E-01  9.94032E-01 -8.37336E-03
