# # comment:                                                     FEFF 9.9.1  
# # Source:
# # Structure
# # Reduced
# # space
# # abc:
# # angles:
# # sites:
# # POT  SCF 100  7.0000   0, screened core-hole, AFOLP (folp(0)= 1.150)
# # Abs   Z=29 Rmt= 1.372 Rnm= 1.430 K  shell
# # Pot 1 Z= 3 Rmt= 1.276 Rnm= 1.335
# # Pot 2 Z=29 Rmt= 1.314 Rnm= 1.397
# # Pot 3 Z=15 Rmt= 0.946 Rnm= 1.155
# # Pot 4 Z= 8 Rmt= 0.930 Rnm= 1.031
# # Gam_ch=1.729E+00 H-L exch Vi= 0.000E+00 Vr= 0.000E+00
# # Mu=-5.905E+00eV kf=2.374E+00 Vint=-1.717E+01eV Rs_int= 1.528
# FMS rfms= 9.0000
# # PATH  Rmax=-1.000,  Keep_limit= 0.00, Heap_limit 0.00  Pwcrit= 2.50%
#  S02=0.950  Temp=   0.00  Debye_temp=   0.00  Global_sig2= 0.00000
#  Energy zero shift, vr, vi    0.00000E+00   0.00000E+00
#  Curved wave amplitude ratio filter   4.000%
#     file         sig2 tot  cw amp ratio   deg  nlegs   reff  inp sig2
#     0/   0 paths used
#  xsedge+ 50, used to normalize mu           2.4403E-04
#  -----------------------------------------------------------------------
#  omega    e    k    mu    mu0     chi     @#
    8983.472     -9.715  -1.000  5.25137E-02  5.63817E-02 -3.86798E-03
    8983.771     -9.417  -0.960  5.59482E-02  6.05086E-02 -4.56041E-03
    8984.057     -9.130  -0.920  5.97205E-02  6.50977E-02 -5.37718E-03
    8984.331     -8.856  -0.880  6.38765E-02  7.02174E-02 -6.34091E-03
    8984.594     -8.594  -0.840  6.84691E-02  7.59473E-02 -7.47825E-03
    8984.844     -8.344  -0.800  7.35596E-02  8.23801E-02 -8.82048E-03
    8985.081     -8.106  -0.760  7.92179E-02  8.96219E-02 -1.04039E-02
    8985.307     -7.880  -0.720  8.55226E-02  9.77927E-02 -1.22701E-02
    8985.520     -7.667  -0.680  9.25598E-02  1.07025E-01 -1.44653E-02
    8985.721     -7.466  -0.640  1.00420E-01  1.17459E-01 -1.70390E-02
    8985.910     -7.277  -0.600  1.09190E-01  1.29231E-01 -2.00410E-02
    8986.087     -7.100  -0.560  1.18945E-01  1.42460E-01 -2.35149E-02
    8986.252     -6.936  -0.520  1.29726E-01  1.57215E-01 -2.74892E-02
    8986.404     -6.783  -0.480  1.41519E-01  1.73482E-01 -3.19639E-02
    8986.544     -6.643  -0.440  1.54222E-01  1.91118E-01 -3.68960E-02
    8986.672     -6.515  -0.400  1.67627E-01  2.09814E-01 -4.21864E-02
    8986.788     -6.399  -0.360  1.81408E-01  2.29084E-01 -4.76766E-02
    8986.892     -6.296  -0.320  1.95138E-01  2.48299E-01 -5.31609E-02
    8986.983     -6.204  -0.280  2.08345E-01  2.66759E-01 -5.84143E-02
    8987.062     -6.125  -0.240  2.20566E-01  2.83793E-01 -6.32273E-02
    8987.130     -6.058  -0.200  2.31406E-01  2.98841E-01 -6.74348E-02
    8987.184     -6.003  -0.160  2.40563E-01  3.11492E-01 -7.09284E-02
    8987.227     -5.960  -0.120  2.47834E-01  3.21488E-01 -7.36536E-02
    8987.258     -5.930  -0.080  2.53090E-01  3.28686E-01 -7.55961E-02
    8987.282     -5.905   0.000  2.57312E-01  3.34467E-01 -7.71551E-02
    8987.337     -5.851   0.120  2.66825E-01  3.47495E-01 -8.06706E-02
    8987.379     -5.808   0.160  2.74295E-01  3.57610E-01 -8.33151E-02
    8987.434     -5.753   0.200  2.83922E-01  3.70520E-01 -8.65974E-02
    8987.501     -5.686   0.240  2.95639E-01  3.86016E-01 -9.03775E-02
    8987.581     -5.607   0.280  3.09293E-01  4.03796E-01 -9.45028E-02
    8987.672     -5.515   0.320  3.24642E-01  4.23386E-01 -9.87443E-02
    8987.776     -5.412   0.360  3.41283E-01  4.44185E-01 -1.02901E-01
    8987.892     -5.296   0.400  3.58699E-01  4.65551E-01 -1.06852E-01
    8988.020     -5.168   0.440  3.76339E-01  4.86963E-01 -1.10624E-01
    8988.160     -5.028   0.480  3.93467E-01  5.07946E-01 -1.14479E-01
    8988.312     -4.875   0.520  4.09383E-01  5.28224E-01 -1.18842E-01
    8988.477     -4.711   0.560  4.23562E-01  5.47673E-01 -1.24112E-01
    8988.654     -4.534   0.600  4.35860E-01  5.66263E-01 -1.30404E-01
    8988.842     -4.345   0.640  4.46819E-01  5.84082E-01 -1.37263E-01
    8989.044     -4.144   0.680  4.57589E-01  6.01196E-01 -1.43607E-01
    8989.257     -3.930   0.720  4.69853E-01  6.17726E-01 -1.47872E-01
    8989.483     -3.705   0.760  4.85501E-01  6.33794E-01 -1.48294E-01
    8989.720     -3.467   0.800  5.06220E-01  6.49472E-01 -1.43252E-01
    8989.970     -3.217   0.840  5.33128E-01  6.64877E-01 -1.31749E-01
    8990.232     -2.955   0.880  5.66304E-01  6.80052E-01 -1.13748E-01
    8990.507     -2.681   0.920  6.04530E-01  6.95084E-01 -9.05541E-02
    8990.793     -2.394   0.960  6.44354E-01  7.09969E-01 -6.56150E-02
    8991.092     -2.095   1.000  6.80398E-01  7.24750E-01 -4.43522E-02
    8991.403     -1.784   1.040  7.09225E-01  7.39459E-01 -3.02346E-02
    8991.726     -1.461   1.080  7.33957E-01  7.54080E-01 -2.01231E-02
    8992.061     -1.126   1.120  7.62000E-01  7.68608E-01 -6.60835E-03
    8992.409     -0.779   1.160  7.97434E-01  7.83056E-01  1.43779E-02
    8992.768     -0.419   1.200  8.37504E-01  7.97387E-01  4.01176E-02
    8993.140     -0.047   1.240  8.76551E-01  8.11602E-01  6.49490E-02
    8993.524      0.337   1.280  9.12514E-01  8.25657E-01  8.68563E-02
    8993.920      0.733   1.320  9.48095E-01  8.39527E-01  1.08568E-01
    8994.329      1.142   1.360  9.86271E-01  8.53202E-01  1.33069E-01
    8994.749      1.562   1.400  1.02792E+00  8.66612E-01  1.61312E-01
    8995.182      1.995   1.440  1.07366E+00  8.79765E-01  1.93890E-01
    8995.627      2.440   1.480  1.12455E+00  8.92608E-01  2.31945E-01
    8996.084      2.897   1.520  1.18162E+00  9.05087E-01  2.76533E-01
    8996.554      3.367   1.560  1.24238E+00  9.17210E-01  3.25172E-01
    8997.035      3.848   1.600  1.29760E+00  9.28924E-01  3.68679E-01
    8997.529      4.342   1.640  1.33689E+00  9.40194E-01  3.96700E-01
    8998.035      4.848   1.680  1.35469E+00  9.51008E-01  4.03683E-01
    8998.553      5.366   1.720  1.35114E+00  9.61336E-01  3.89803E-01
    8999.084      5.896   1.760  1.32675E+00  9.71147E-01  3.55598E-01
    8999.626      6.439   1.800  1.28029E+00  9.80412E-01  2.99880E-01
    9000.181      6.994   1.840  1.21805E+00  9.89143E-01  2.28909E-01
    9000.748      7.561   1.880  1.15369E+00  9.97294E-01  1.56396E-01
    9001.327      8.140   1.920  1.10321E+00  1.00488E+00  9.83330E-02
    9001.918      8.731   1.960  1.07768E+00  1.01188E+00  6.58050E-02
    9002.522      9.335   2.000  1.07579E+00  1.01828E+00  5.75004E-02
    9003.138      9.950   2.040  1.08519E+00  1.02408E+00  6.11083E-02
    9003.765     10.578   2.080  1.09237E+00  1.02932E+00  6.30469E-02
    9004.406     11.218   2.120  1.08853E+00  1.03399E+00  5.45400E-02
    9005.058     11.870   2.160  1.07090E+00  1.03807E+00  3.28344E-02
    9005.722     12.535   2.200  1.04507E+00  1.04159E+00  3.47315E-03
    9006.399     13.212   2.240  1.02288E+00  1.04460E+00 -2.17134E-02
    9007.088     13.900   2.280  1.01295E+00  1.04705E+00 -3.40925E-02
    9007.789     14.601   2.320  1.01443E+00  1.04902E+00 -3.45859E-02
    9008.502     15.315   2.360  1.01793E+00  1.05049E+00 -3.25606E-02
    9009.227     16.040   2.400  1.01515E+00  1.05151E+00 -3.63624E-02
    9009.965     16.778   2.440  1.00641E+00  1.05211E+00 -4.56981E-02
    9010.715     17.528   2.480  9.96906E-01  1.05229E+00 -5.53875E-02
    9011.477     18.290   2.520  9.88595E-01  1.05210E+00 -6.35032E-02
    9012.251     19.064   2.560  9.79640E-01  1.05154E+00 -7.18992E-02
    9013.037     19.850   2.600  9.68583E-01  1.05065E+00 -8.20687E-02
    9013.836     20.649   2.640  9.55845E-01  1.04949E+00 -9.36459E-02
    9014.647     21.459   2.680  9.41594E-01  1.04805E+00 -1.06456E-01
    9015.470     22.282   2.720  9.25160E-01  1.04636E+00 -1.21204E-01
    9016.305     23.118   2.760  9.09895E-01  1.04447E+00 -1.34572E-01
    9017.152     23.965   2.800  9.04033E-01  1.04239E+00 -1.38359E-01
    9018.012     24.824   2.840  9.05435E-01  1.04015E+00 -1.34720E-01
    9018.883     25.696   2.880  9.11001E-01  1.03779E+00 -1.26787E-01
    9019.767     26.580   2.920  9.18581E-01  1.03530E+00 -1.16721E-01
    9020.663     27.476   2.960  9.26762E-01  1.03273E+00 -1.05968E-01
    9021.572     28.384   3.000  9.35380E-01  1.03010E+00 -9.47247E-02
    9022.492     29.305   3.040  9.44420E-01  1.02742E+00 -8.29953E-02
    9023.425     30.238   3.080  9.53781E-01  1.02473E+00 -7.09532E-02
    9024.370     31.183   3.120  9.63340E-01  1.02203E+00 -5.86901E-02
    9025.327     32.140   3.160  9.73018E-01  1.01935E+00 -4.63354E-02
    9026.296     33.109   3.200  9.82631E-01  1.01669E+00 -3.40589E-02
    9027.278     34.090   3.240  9.92413E-01  1.01409E+00 -2.16782E-02
    9028.271     35.084   3.280  1.00237E+00  1.01154E+00 -9.17254E-03
    9029.277     36.090   3.320  1.01227E+00  1.00909E+00  3.17288E-03
    9030.295     37.108   3.360  1.02180E+00  1.00671E+00  1.50922E-02
    9031.325     38.138   3.400  1.03076E+00  1.00443E+00  2.63276E-02
    9032.368     39.180   3.440  1.03878E+00  1.00227E+00  3.65065E-02
    9033.422     40.235   3.480  1.04550E+00  1.00021E+00  4.52959E-02
    9034.489     41.302   3.520  1.05069E+00  9.98283E-01  5.24080E-02
    9035.568     42.381   3.560  1.05422E+00  9.96465E-01  5.77591E-02
    9036.659     43.472   3.600  1.05655E+00  9.94798E-01  6.17487E-02
    9037.763     44.575   3.640  1.05841E+00  9.93285E-01  6.51268E-02
    9038.878     45.691   3.680  1.06049E+00  9.91904E-01  6.85833E-02
    9040.006     46.819   3.720  1.06304E+00  9.90679E-01  7.23573E-02
    9041.146     47.959   3.760  1.06584E+00  9.89611E-01  7.62279E-02
    9042.298     49.111   3.800  1.06830E+00  9.88679E-01  7.96262E-02
    9043.462     50.275   3.840  1.06984E+00  9.87903E-01  8.19350E-02
    9044.639     51.452   3.880  1.07009E+00  9.87285E-01  8.28080E-02
    9045.828     52.640   3.920  1.06893E+00  9.86802E-01  8.21323E-02
    9047.029     53.841   3.960  1.06629E+00  9.86475E-01  7.98121E-02
    9048.242     55.054   4.000  1.06192E+00  9.86304E-01  7.56139E-02
    9049.467     56.280   4.040  1.05557E+00  9.86265E-01  6.93035E-02
    9050.704     57.517   4.080  1.04702E+00  9.86377E-01  6.06431E-02
    9051.954     58.767   4.120  1.03620E+00  9.86617E-01  4.95815E-02
    9053.216     60.029   4.160  1.02336E+00  9.86982E-01  3.63732E-02
    9054.490     61.303   4.200  1.00906E+00  9.87470E-01  2.15931E-02
    9055.776     62.589   4.240  9.94093E-01  9.88077E-01  6.01587E-03
    9057.075     63.887   4.280  9.79369E-01  9.88801E-01 -9.43177E-03
    9058.385     65.198   4.320  9.65741E-01  9.89615E-01 -2.38745E-02
    9059.708     66.521   4.360  9.53906E-01  9.90518E-01 -3.66122E-02
    9061.043     67.856   4.400  9.44365E-01  9.91528E-01 -4.71630E-02
    9062.390     69.203   4.440  9.37296E-01  9.92622E-01 -5.53260E-02
    9063.750     70.563   4.480  9.32590E-01  9.93791E-01 -6.12008E-02
    9065.121     71.934   4.520  9.30020E-01  9.95010E-01 -6.49899E-02
    9066.505     73.318   4.560  9.29423E-01  9.96275E-01 -6.68518E-02
    9067.901     74.714   4.600  9.30752E-01  9.97603E-01 -6.68517E-02
    9069.309     76.122   4.640  9.33944E-01  9.98947E-01 -6.50036E-02
    9070.730     77.542   4.680  9.38953E-01  1.00032E+00 -6.13706E-02
    9072.162     78.975   4.720  9.45542E-01  1.00171E+00 -5.61659E-02
    9073.607     80.420   4.760  9.53483E-01  1.00312E+00 -4.96327E-02
    9075.064     81.877   4.800  9.62535E-01  1.00450E+00 -4.19652E-02
    9076.533     83.346   4.840  9.72563E-01  1.00588E+00 -3.33139E-02
    9078.014     84.827   4.880  9.83404E-01  1.00724E+00 -2.38400E-02
    9079.508     86.321   4.920  9.94733E-01  1.00857E+00 -1.38398E-02
    9081.014     87.826   4.960  1.00603E+00  1.00984E+00 -3.80965E-03
    9082.532     89.344   5.000  1.01670E+00  1.01108E+00  5.62552E-03
    9084.062     90.874   5.040  1.02605E+00  1.01225E+00  1.38001E-02
    9085.604     92.417   5.080  1.03350E+00  1.01334E+00  2.01611E-02
    9087.158     93.971   5.120  1.03874E+00  1.01438E+00  2.43614E-02
    9088.725     95.538   5.160  1.04162E+00  1.01534E+00  2.62869E-02
    9090.304     97.117   5.200  1.04218E+00  1.01619E+00  2.59928E-02
    9091.895     98.708   5.240  1.04065E+00  1.01697E+00  2.36782E-02
    9093.498    100.311   5.280  1.03727E+00  1.01765E+00  1.96169E-02
    9095.114    101.926   5.320  1.03235E+00  1.01824E+00  1.41152E-02
    9096.741    103.554   5.360  1.02622E+00  1.01871E+00  7.50350E-03
    9098.381    105.194   5.400  1.01924E+00  1.01909E+00  1.51291E-04
    9100.033    106.846   5.440  1.01187E+00  1.01936E+00 -7.48227E-03
    9101.697    108.510   5.480  1.00474E+00  1.01950E+00 -1.47663E-02
    9103.374    110.186   5.520  9.98689E-01  1.01956E+00 -2.08700E-02
    9105.062    111.875   5.560  9.94648E-01  1.01952E+00 -2.48738E-02
    9106.763    113.576   5.600  9.93405E-01  1.01935E+00 -2.59445E-02
    9108.476    115.289   5.640  9.95539E-01  1.01911E+00 -2.35693E-02
    9110.201    117.014   5.680  1.00100E+00  1.01876E+00 -1.77539E-02
    9111.938    118.751   5.720  1.00921E+00  1.01829E+00 -9.08215E-03
    9113.688    120.501   5.760  1.01920E+00  1.01774E+00  1.46337E-03
    9115.450    122.262   5.800  1.02989E+00  1.01711E+00  1.27802E-02
    9117.224    124.036   5.840  1.04022E+00  1.01640E+00  2.38161E-02
    9119.010    125.823   5.880  1.04921E+00  1.01562E+00  3.35876E-02
    9120.808    127.621   5.920  1.05600E+00  1.01479E+00  4.12085E-02
    9122.619    129.431   5.960  1.05979E+00  1.01390E+00  4.58840E-02
    9124.441    131.254   6.000  1.05982E+00  1.01289E+00  4.69340E-02
