# # comment:                                                     FEFF 9.9.1  
# # Source:
# # Structure
# # Reduced
# # space
# # abc:
# # angles:
# # sites:
# # POT  SCF 100  7.0000   0, screened core-hole, AFOLP (folp(0)= 1.150)
# # Abs   Z=29 Rmt= 1.323 Rnm= 1.381 K  shell
# # Pot 1 Z=13 Rmt= 1.245 Rnm= 1.354
# # Pot 2 Z=29 Rmt= 1.323 Rnm= 1.381
# # Pot 3 Z=74 Rmt= 1.272 Rnm= 1.428
# # Pot 4 Z= 8 Rmt= 0.985 Rnm= 1.071
# # Gam_ch=1.729E+00 H-L exch Vi= 0.000E+00 Vr= 0.000E+00
# # Mu=-5.885E+00eV kf=2.301E+00 Vint=-1.671E+01eV Rs_int= 1.576
# FMS rfms= 9.0000
# # PATH  Rmax=-1.000,  Keep_limit= 0.00, Heap_limit 0.00  Pwcrit= 2.50%
#  S02=0.950  Temp=   0.00  Debye_temp=   0.00  Global_sig2= 0.00000
#  Energy zero shift, vr, vi    0.00000E+00   0.00000E+00
#  Curved wave amplitude ratio filter   4.000%
#     file         sig2 tot  cw amp ratio   deg  nlegs   reff  inp sig2
#     0/   0 paths used
#  xsedge+ 50, used to normalize mu           2.4651E-04
#  -----------------------------------------------------------------------
#  omega    e    k    mu    mu0     chi     @#
    8983.439     -9.695  -1.000  4.58858E-02  5.62479E-02 -1.03622E-02
    8983.738     -9.396  -0.960  4.84803E-02  6.04126E-02 -1.19323E-02
    8984.024     -9.110  -0.920  5.12856E-02  6.50484E-02 -1.37628E-02
    8984.299     -8.835  -0.880  5.43270E-02  7.02256E-02 -1.58987E-02
    8984.561     -8.573  -0.840  5.76337E-02  7.60260E-02 -1.83924E-02
    8984.811     -8.323  -0.800  6.12398E-02  8.25446E-02 -2.13048E-02
    8985.049     -8.085  -0.760  6.51845E-02  8.98903E-02 -2.47058E-02
    8985.274     -7.860  -0.720  6.95124E-02  9.81866E-02 -2.86743E-02
    8985.488     -7.647  -0.680  7.42727E-02  1.07570E-01 -3.32969E-02
    8985.689     -7.445  -0.640  7.95176E-02  1.18183E-01 -3.86655E-02
    8985.878     -7.256  -0.600  8.52976E-02  1.30169E-01 -4.48709E-02
    8986.054     -7.080  -0.560  9.16538E-02  1.43647E-01 -5.19933E-02
    8986.219     -6.915  -0.520  9.86052E-02  1.58691E-01 -6.00863E-02
    8986.371     -6.763  -0.480  1.06131E-01  1.75287E-01 -6.91559E-02
    8986.512     -6.622  -0.440  1.14152E-01  1.93288E-01 -7.91360E-02
    8986.640     -6.494  -0.400  1.22511E-01  2.12377E-01 -8.98664E-02
    8986.755     -6.379  -0.360  1.30975E-01  2.32059E-01 -1.01084E-01
    8986.859     -6.275  -0.320  1.39254E-01  2.51686E-01 -1.12433E-01
    8986.951     -6.184  -0.280  1.47039E-01  2.70543E-01 -1.23505E-01
    8987.030     -6.104  -0.240  1.54056E-01  2.87942E-01 -1.33886E-01
    8987.097     -6.037  -0.200  1.60103E-01  3.03309E-01 -1.43206E-01
    8987.152     -5.982  -0.160  1.65063E-01  3.16227E-01 -1.51164E-01
    8987.194     -5.940  -0.120  1.68889E-01  3.26431E-01 -1.57542E-01
    8987.225     -5.909  -0.080  1.71577E-01  3.33778E-01 -1.62201E-01
    8987.249     -5.885   0.000  1.73639E-01  3.39676E-01 -1.66037E-01
    8987.304     -5.830   0.120  1.78277E-01  3.52986E-01 -1.74709E-01
    8987.347     -5.787   0.160  1.81851E-01  3.63298E-01 -1.81447E-01
    8987.402     -5.732   0.200  1.86311E-01  3.76462E-01 -1.90151E-01
    8987.469     -5.665   0.240  1.91478E-01  3.92262E-01 -2.00784E-01
    8987.548     -5.586   0.280  1.97105E-01  4.10361E-01 -2.13256E-01
    8987.639     -5.495   0.320  2.02937E-01  4.30272E-01 -2.27336E-01
    8987.743     -5.391   0.360  2.08713E-01  4.51393E-01 -2.42680E-01
    8987.859     -5.275   0.400  2.14327E-01  4.73061E-01 -2.58734E-01
    8987.987     -5.147   0.440  2.19985E-01  4.94714E-01 -2.74730E-01
    8988.127     -5.007   0.480  2.26200E-01  5.15844E-01 -2.89644E-01
    8988.279     -4.855   0.520  2.33989E-01  5.36204E-01 -3.02216E-01
    8988.444     -4.690   0.560  2.44558E-01  5.55643E-01 -3.11084E-01
    8988.621     -4.513   0.600  2.59228E-01  5.74129E-01 -3.14901E-01
    8988.810     -4.324   0.640  2.79307E-01  5.91709E-01 -3.12402E-01
    8989.011     -4.123   0.680  3.05956E-01  6.08511E-01 -3.02555E-01
    8989.224     -3.910   0.720  3.40015E-01  6.24620E-01 -2.84605E-01
    8989.450     -3.684   0.760  3.81833E-01  6.40158E-01 -2.58325E-01
    8989.688     -3.446   0.800  4.30471E-01  6.55219E-01 -2.24748E-01
    8989.938     -3.196   0.840  4.82596E-01  6.69881E-01 -1.87285E-01
    8990.200     -2.934   0.880  5.31131E-01  6.84230E-01 -1.53100E-01
    8990.474     -2.660   0.920  5.66483E-01  6.98317E-01 -1.31834E-01
    8990.761     -2.374   0.960  5.84116E-01  7.12155E-01 -1.28039E-01
    8991.059     -2.075   1.000  5.90767E-01  7.25811E-01 -1.35045E-01
    8991.370     -1.764   1.040  5.97858E-01  7.39259E-01 -1.41402E-01
    8991.693     -1.441   1.080  6.12214E-01  7.52547E-01 -1.40333E-01
    8992.028     -1.106   1.120  6.35727E-01  7.65673E-01 -1.29945E-01
    8992.376     -0.758   1.160  6.71068E-01  7.78589E-01 -1.07522E-01
    8992.736     -0.398   1.200  7.22932E-01  7.91346E-01 -6.84141E-02
    8993.107     -0.027   1.240  7.93308E-01  8.03886E-01 -1.05783E-02
    8993.492      0.357   1.280  8.79264E-01  8.16213E-01  6.30507E-02
    8993.888      0.754   1.320  9.74404E-01  8.28305E-01  1.46099E-01
    8994.296      1.162   1.360  1.06911E+00  8.40139E-01  2.28968E-01
    8994.717      1.583   1.400  1.14873E+00  8.51692E-01  2.97040E-01
    8995.150      2.016   1.440  1.20083E+00  8.62957E-01  3.37871E-01
    8995.595      2.461   1.480  1.22596E+00  8.73909E-01  3.52049E-01
    8996.052      2.918   1.520  1.23566E+00  8.84525E-01  3.51140E-01
    8996.521      3.387   1.560  1.24774E+00  8.94796E-01  3.52940E-01
    8997.003      3.869   1.600  1.27926E+00  9.04695E-01  3.74567E-01
    8997.497      4.363   1.640  1.33001E+00  9.14200E-01  4.15810E-01
    8998.003      4.868   1.680  1.36985E+00  9.23305E-01  4.46541E-01
    8998.521      5.387   1.720  1.37220E+00  9.32026E-01  4.40178E-01
    8999.051      5.917   1.760  1.35896E+00  9.40298E-01  4.18665E-01
    8999.594      6.460   1.800  1.35589E+00  9.48162E-01  4.07731E-01
    9000.148      7.014   1.840  1.36300E+00  9.55574E-01  4.07423E-01
    9000.715      7.581   1.880  1.38414E+00  9.62554E-01  4.21590E-01
    9001.294      8.160   1.920  1.41910E+00  9.69102E-01  4.49995E-01
    9001.886      8.752   1.960  1.44443E+00  9.75220E-01  4.69211E-01
    9002.489      9.355   2.000  1.42492E+00  9.80910E-01  4.44009E-01
    9003.105      9.971   2.040  1.34814E+00  9.86154E-01  3.61983E-01
    9003.733     10.599   2.080  1.23523E+00  9.90976E-01  2.44252E-01
    9004.373     11.239   2.120  1.11546E+00  9.95380E-01  1.20079E-01
    9005.025     11.891   2.160  1.01140E+00  9.99372E-01  1.20266E-02
    9005.690     12.556   2.200  9.36254E-01  1.00298E+00 -6.67230E-02
    9006.366     13.232   2.240  8.92807E-01  1.00618E+00 -1.13376E-01
    9007.055     13.921   2.280  8.74127E-01  1.00904E+00 -1.34911E-01
    9007.756     14.622   2.320  8.65447E-01  1.01153E+00 -1.46081E-01
    9008.469     15.335   2.360  8.56682E-01  1.01368E+00 -1.56999E-01
    9009.195     16.061   2.400  8.51209E-01  1.01550E+00 -1.64296E-01
    9009.932     16.798   2.440  8.55394E-01  1.01703E+00 -1.61635E-01
    9010.682     17.548   2.480  8.65793E-01  1.01824E+00 -1.52449E-01
    9011.444     18.310   2.520  8.74912E-01  1.01919E+00 -1.44280E-01
    9012.218     19.084   2.560  8.80496E-01  1.01989E+00 -1.39394E-01
    9013.005     19.871   2.600  8.80918E-01  1.02034E+00 -1.39423E-01
    9013.803     20.669   2.640  8.77118E-01  1.02056E+00 -1.43438E-01
    9014.614     21.480   2.680  8.70896E-01  1.02058E+00 -1.49688E-01
    9015.437     22.303   2.720  8.61086E-01  1.02039E+00 -1.59308E-01
    9016.272     23.138   2.760  8.49914E-01  1.02005E+00 -1.70140E-01
    9017.120     23.985   2.800  8.44766E-01  1.01955E+00 -1.74786E-01
    9017.979     24.845   2.840  8.47298E-01  1.01892E+00 -1.71621E-01
    9018.851     25.717   2.880  8.55516E-01  1.01816E+00 -1.62645E-01
    9019.735     26.601   2.920  8.67190E-01  1.01728E+00 -1.50094E-01
    9020.631     27.497   2.960  8.80985E-01  1.01630E+00 -1.35311E-01
    9021.539     28.405   3.000  8.96194E-01  1.01524E+00 -1.19050E-01
    9022.460     29.326   3.040  9.12788E-01  1.01412E+00 -1.01329E-01
    9023.392     30.258   3.080  9.31129E-01  1.01294E+00 -8.18130E-02
    9024.337     31.203   3.120  9.51061E-01  1.01172E+00 -6.06609E-02
    9025.294     32.160   3.160  9.71748E-01  1.01046E+00 -3.87160E-02
    9026.263     33.129   3.200  9.92203E-01  1.00919E+00 -1.69909E-02
    9027.245     34.111   3.240  1.01107E+00  1.00790E+00  3.17208E-03
    9028.239     35.105   3.280  1.02707E+00  1.00662E+00  2.04508E-02
    9029.244     36.110   3.320  1.03943E+00  1.00532E+00  3.41079E-02
    9030.262     37.128   3.360  1.04803E+00  1.00405E+00  4.39854E-02
    9031.293     38.159   3.400  1.05332E+00  1.00281E+00  5.05148E-02
    9032.335     39.201   3.440  1.05614E+00  1.00158E+00  5.45560E-02
    9033.390     40.256   3.480  1.05723E+00  1.00041E+00  5.68217E-02
    9034.456     41.322   3.520  1.05706E+00  9.99261E-01  5.77955E-02
    9035.535     42.401   3.560  1.05607E+00  9.98175E-01  5.78913E-02
    9036.627     43.493   3.600  1.05491E+00  9.97135E-01  5.77794E-02
    9037.730     44.596   3.640  1.05427E+00  9.96141E-01  5.81327E-02
    9038.846     45.712   3.680  1.05455E+00  9.95217E-01  5.93292E-02
    9039.973     46.839   3.720  1.05580E+00  9.94366E-01  6.14310E-02
    9041.113     47.979   3.760  1.05765E+00  9.93567E-01  6.40841E-02
    9042.265     49.131   3.800  1.05954E+00  9.92842E-01  6.66973E-02
    9043.430     50.296   3.840  1.06078E+00  9.92190E-01  6.85887E-02
    9044.606     51.472   3.880  1.06096E+00  9.91591E-01  6.93664E-02
    9045.795     52.661   3.920  1.05995E+00  9.91069E-01  6.88784E-02
    9046.996     53.862   3.960  1.05786E+00  9.90624E-01  6.72346E-02
    9048.209     55.075   4.000  1.05512E+00  9.90256E-01  6.48679E-02
    9049.434     56.300   4.040  1.05227E+00  9.89964E-01  6.23032E-02
    9050.672     57.538   4.080  1.04972E+00  9.89725E-01  5.99928E-02
    9051.921     58.787   4.120  1.04769E+00  9.89560E-01  5.81257E-02
    9053.183     60.049   4.160  1.04587E+00  9.89472E-01  5.63981E-02
    9054.457     61.323   4.200  1.04343E+00  9.89458E-01  5.39744E-02
    9055.744     62.610   4.240  1.03926E+00  9.89495E-01  4.97679E-02
    9057.042     63.908   4.280  1.03245E+00  9.89604E-01  4.28493E-02
    9058.353     65.219   4.320  1.02258E+00  9.89762E-01  3.28196E-02
    9059.676     66.541   4.360  1.01000E+00  9.89988E-01  2.00148E-02
    9061.011     67.876   4.400  9.95637E-01  9.90259E-01  5.37776E-03
    9062.358     69.224   4.440  9.80712E-01  9.90574E-01 -9.86163E-03
    9063.717     70.583   4.480  9.66422E-01  9.90934E-01 -2.45118E-02
    9065.089     71.955   4.520  9.53740E-01  9.91355E-01 -3.76157E-02
    9066.473     73.338   4.560  9.43183E-01  9.91796E-01 -4.86130E-02
    9067.869     74.734   4.600  9.34905E-01  9.92296E-01 -5.73907E-02
    9069.277     76.143   4.640  9.28690E-01  9.92810E-01 -6.41199E-02
    9070.697     77.563   4.680  9.24310E-01  9.93357E-01 -6.90468E-02
    9072.130     78.996   4.720  9.21619E-01  9.93914E-01 -7.22948E-02
    9073.574     80.440   4.760  9.20708E-01  9.94502E-01 -7.37935E-02
    9075.031     81.897   4.800  9.21733E-01  9.95117E-01 -7.33832E-02
    9076.500     83.366   4.840  9.24733E-01  9.95715E-01 -7.09812E-02
    9077.982     84.848   4.880  9.29686E-01  9.96334E-01 -6.66479E-02
    9079.475     86.341   4.920  9.36210E-01  9.96930E-01 -6.07201E-02
    9080.981     87.847   4.960  9.43781E-01  9.97545E-01 -5.37639E-02
    9082.499     89.365   5.000  9.51776E-01  9.98135E-01 -4.63592E-02
    9084.029     90.895   5.040  9.59818E-01  9.98716E-01 -3.88974E-02
    9085.571     92.437   5.080  9.67795E-01  9.99265E-01 -3.14705E-02
    9087.126     93.992   5.120  9.75799E-01  9.99804E-01 -2.40055E-02
    9088.692     95.558   5.160  9.83846E-01  1.00031E+00 -1.64661E-02
    9090.271     97.137   5.200  9.91855E-01  1.00081E+00 -8.95122E-03
    9091.862     98.728   5.240  9.99619E-01  1.00126E+00 -1.64419E-03
    9093.466    100.331   5.280  1.00697E+00  1.00168E+00  5.28955E-03
    9095.081    101.947   5.320  1.01382E+00  1.00206E+00  1.17631E-02
    9096.709    103.575   5.360  1.02017E+00  1.00240E+00  1.77735E-02
    9098.348    105.214   5.400  1.02597E+00  1.00269E+00  2.32781E-02
    9100.000    106.866   5.440  1.03095E+00  1.00291E+00  2.80311E-02
    9101.665    108.531   5.480  1.03465E+00  1.00312E+00  3.15350E-02
    9103.341    110.207   5.520  1.03656E+00  1.00326E+00  3.33032E-02
    9105.030    111.896   5.560  1.03667E+00  1.00335E+00  3.33256E-02
    9106.730    113.596   5.600  1.03562E+00  1.00340E+00  3.22241E-02
    9108.443    115.309   5.640  1.03436E+00  1.00340E+00  3.09620E-02
    9110.168    117.034   5.680  1.03362E+00  1.00333E+00  3.02837E-02
    9111.906    118.772   5.720  1.03354E+00  1.00319E+00  3.03498E-02
    9113.655    120.521   5.760  1.03382E+00  1.00303E+00  3.07884E-02
    9115.417    122.283   5.800  1.03382E+00  1.00281E+00  3.10106E-02
    9117.191    124.057   5.840  1.03304E+00  1.00254E+00  3.04987E-02
    9118.977    125.843   5.880  1.03119E+00  1.00223E+00  2.89599E-02
    9120.775    127.641   5.920  1.02822E+00  1.00185E+00  2.63657E-02
    9122.586    129.452   5.960  1.02429E+00  1.00143E+00  2.28550E-02
    9124.409    131.275   6.000  1.01943E+00  1.00094E+00  1.84865E-02
