# # comment:                                                     FEFF 9.9.1  
# # Source:
# # Structure
# # Reduced
# # space
# # abc:
# # angles:
# # sites:
# # POT  SCF 100  7.0000   0, screened core-hole, AFOLP (folp(0)= 1.150)
# # Abs   Z=29 Rmt= 1.307 Rnm= 1.365 K  shell
# # Pot 1 Z=30 Rmt= 1.291 Rnm= 1.419
# # Pot 2 Z=29 Rmt= 1.288 Rnm= 1.356
# # Pot 3 Z=52 Rmt= 1.293 Rnm= 1.435
# # Pot 4 Z= 8 Rmt= 1.002 Rnm= 1.080
# # Gam_ch=1.729E+00 H-L exch Vi= 0.000E+00 Vr= 0.000E+00
# # Mu=-6.310E+00eV kf=2.213E+00 Vint=-1.657E+01eV Rs_int= 1.639
# FMS rfms= 9.0000
# # PATH  Rmax=-1.000,  Keep_limit= 0.00, Heap_limit 0.00  Pwcrit= 2.50%
#  S02=0.950  Temp=   0.00  Debye_temp=   0.00  Global_sig2= 0.00000
#  Energy zero shift, vr, vi    0.00000E+00   0.00000E+00
#  Curved wave amplitude ratio filter   4.000%
#     file         sig2 tot  cw amp ratio   deg  nlegs   reff  inp sig2
#     0/   0 paths used
#  xsedge+ 50, used to normalize mu           2.4622E-04
#  -----------------------------------------------------------------------
#  omega    e    k    mu    mu0     chi     @#
    8983.581    -10.120  -1.000  4.04068E-02  5.46628E-02 -1.42560E-02
    8983.879     -9.821  -0.960  4.24284E-02  5.86729E-02 -1.62445E-02
    8984.166     -9.534  -0.920  4.45836E-02  6.31336E-02 -1.85500E-02
    8984.440     -9.260  -0.880  4.68847E-02  6.81120E-02 -2.12273E-02
    8984.702     -8.998  -0.840  4.93452E-02  7.36858E-02 -2.43406E-02
    8984.952     -8.748  -0.800  5.19805E-02  7.99456E-02 -2.79651E-02
    8985.190     -8.510  -0.760  5.48076E-02  8.69951E-02 -3.21876E-02
    8985.416     -8.285  -0.720  5.78448E-02  9.49518E-02 -3.71070E-02
    8985.629     -8.071  -0.680  6.11116E-02  1.03945E-01 -4.28333E-02
    8985.830     -7.870  -0.640  6.46275E-02  1.14111E-01 -4.94839E-02
    8986.019     -7.681  -0.600  6.84100E-02  1.25586E-01 -5.71757E-02
    8986.196     -7.504  -0.560  7.24712E-02  1.38483E-01 -6.60114E-02
    8986.361     -7.340  -0.520  7.68133E-02  1.52871E-01 -7.60577E-02
    8986.513     -7.187  -0.480  8.14216E-02  1.68737E-01 -8.73151E-02
    8986.653     -7.047  -0.440  8.62572E-02  1.85940E-01 -9.96826E-02
    8986.781     -6.919  -0.400  9.12505E-02  2.04179E-01 -1.12929E-01
    8986.897     -6.803  -0.360  9.62987E-02  2.22982E-01 -1.26683E-01
    8987.001     -6.700  -0.320  1.01272E-01  2.41731E-01 -1.40460E-01
    8987.092     -6.608  -0.280  1.06024E-01  2.59746E-01 -1.53721E-01
    8987.171     -6.529  -0.240  1.10413E-01  2.76368E-01 -1.65956E-01
    8987.238     -6.462  -0.200  1.14312E-01  2.91053E-01 -1.76741E-01
    8987.293     -6.407  -0.160  1.17620E-01  3.03399E-01 -1.85779E-01
    8987.336     -6.364  -0.120  1.20263E-01  3.13154E-01 -1.92890E-01
    8987.366     -6.334  -0.080  1.22191E-01  3.20179E-01 -1.97988E-01
    8987.391     -6.310   0.000  1.23769E-01  3.25820E-01 -2.02051E-01
    8987.446     -6.255   0.120  1.27366E-01  3.38548E-01 -2.11182E-01
    8987.488     -6.212   0.160  1.30130E-01  3.48414E-01 -2.18284E-01
    8987.543     -6.157   0.200  1.33718E-01  3.61006E-01 -2.27288E-01
    8987.610     -6.090   0.240  1.38121E-01  3.76143E-01 -2.38022E-01
    8987.689     -6.011   0.280  1.43316E-01  3.93488E-01 -2.50173E-01
    8987.781     -5.919   0.320  1.49325E-01  4.12602E-01 -2.63277E-01
    8987.885     -5.816   0.360  1.56102E-01  4.32874E-01 -2.76772E-01
    8988.000     -5.700   0.400  1.63690E-01  4.53722E-01 -2.90032E-01
    8988.128     -5.572   0.440  1.72157E-01  4.74573E-01 -3.02417E-01
    8988.269     -5.432   0.480  1.81666E-01  4.95003E-01 -3.13337E-01
    8988.421     -5.279   0.520  1.92445E-01  5.14742E-01 -3.22297E-01
    8988.586     -5.115   0.560  2.04800E-01  5.33646E-01 -3.28846E-01
    8988.762     -4.938   0.600  2.19016E-01  5.51705E-01 -3.32689E-01
    8988.951     -4.749   0.640  2.35214E-01  5.68940E-01 -3.33726E-01
    8989.152     -4.548   0.680  2.53161E-01  5.85473E-01 -3.32312E-01
    8989.366     -4.334   0.720  2.71964E-01  6.01402E-01 -3.29437E-01
    8989.591     -4.109   0.760  2.90262E-01  6.16801E-01 -3.26539E-01
    8989.829     -3.871   0.800  3.07013E-01  6.31818E-01 -3.24805E-01
    8990.079     -3.621   0.840  3.22198E-01  6.46464E-01 -3.24266E-01
    8990.341     -3.359   0.880  3.37045E-01  6.60860E-01 -3.23815E-01
    8990.616     -3.085   0.920  3.52904E-01  6.75029E-01 -3.22125E-01
    8990.902     -2.798   0.960  3.70901E-01  6.89003E-01 -3.18102E-01
    8991.201     -2.500   1.000  3.91854E-01  7.02805E-01 -3.10951E-01
    8991.512     -2.189   1.040  4.16567E-01  7.16464E-01 -2.99896E-01
    8991.835     -1.866   1.080  4.46062E-01  7.29963E-01 -2.83901E-01
    8992.170     -1.530   1.120  4.82338E-01  7.43321E-01 -2.60983E-01
    8992.517     -1.183   1.160  5.29169E-01  7.56508E-01 -2.27339E-01
    8992.877     -0.823   1.200  5.92008E-01  7.69551E-01 -1.77543E-01
    8993.249     -0.451   1.240  6.76896E-01  7.82391E-01 -1.05495E-01
    8993.633     -0.067   1.280  7.89483E-01  7.95031E-01 -5.54791E-03
    8994.029      0.329   1.320  9.27882E-01  8.07467E-01  1.20415E-01
    8994.438      0.737   1.360  1.07233E+00  8.19634E-01  2.52691E-01
    8994.858      1.158   1.400  1.19190E+00  8.31568E-01  3.60335E-01
    8995.291      1.591   1.440  1.27037E+00  8.43183E-01  4.27190E-01
    8995.736      2.036   1.480  1.31445E+00  8.54512E-01  4.59939E-01
    8996.193      2.493   1.520  1.33832E+00  8.65509E-01  4.72809E-01
    8996.663      2.962   1.560  1.35185E+00  8.76167E-01  4.75684E-01
    8997.144      3.444   1.600  1.35083E+00  8.86459E-01  4.64367E-01
    8997.638      3.938   1.640  1.33020E+00  8.96379E-01  4.33816E-01
    8998.144      4.444   1.680  1.30538E+00  9.05903E-01  3.99478E-01
    8998.662      4.962   1.720  1.30095E+00  9.15004E-01  3.85943E-01
    8999.193      5.492   1.760  1.32613E+00  9.23700E-01  4.02433E-01
    8999.735      6.035   1.800  1.36585E+00  9.31969E-01  4.33879E-01
    9000.290      6.590   1.840  1.39065E+00  9.39807E-01  4.50847E-01
    9000.857      7.156   1.880  1.38282E+00  9.47194E-01  4.35626E-01
    9001.436      7.736   1.920  1.34815E+00  9.54171E-01  3.93983E-01
    9002.027      8.327   1.960  1.29893E+00  9.60696E-01  3.38231E-01
    9002.631      8.930   2.000  1.23860E+00  9.66774E-01  2.71824E-01
    9003.246      9.546   2.040  1.17015E+00  9.72447E-01  1.97699E-01
    9003.874     10.174   2.080  1.10647E+00  9.77676E-01  1.28794E-01
    9004.514     10.814   2.120  1.06069E+00  9.82490E-01  7.82013E-02
    9005.167     11.466   2.160  1.03255E+00  9.86911E-01  4.56376E-02
    9005.831     12.131   2.200  1.01479E+00  9.90925E-01  2.38665E-02
    9006.508     12.807   2.240  1.00390E+00  9.94539E-01  9.36425E-03
    9007.197     13.496   2.280  9.98851E-01  9.97799E-01  1.05159E-03
    9007.898     14.197   2.320  9.98304E-01  1.00069E+00 -2.39071E-03
    9008.611     14.911   2.360  9.99515E-01  1.00325E+00 -3.73764E-03
    9009.336     15.636   2.400  9.98495E-01  1.00548E+00 -6.98337E-03
    9010.074     16.374   2.440  9.95868E-01  1.00738E+00 -1.15159E-02
    9010.824     17.123   2.480  9.94718E-01  1.00900E+00 -1.42781E-02
    9011.586     17.885   2.520  9.91513E-01  1.01034E+00 -1.88316E-02
    9012.360     18.660   2.560  9.75230E-01  1.01142E+00 -3.61876E-02
    9013.146     19.446   2.600  9.34933E-01  1.01224E+00 -7.73096E-02
    9013.945     20.245   2.640  8.81718E-01  1.01285E+00 -1.31133E-01
    9014.756     21.055   2.680  8.38379E-01  1.01325E+00 -1.74871E-01
    9015.579     21.878   2.720  8.10983E-01  1.01345E+00 -2.02466E-01
    9016.414     22.713   2.760  7.97632E-01  1.01347E+00 -2.15843E-01
    9017.261     23.561   2.800  7.94103E-01  1.01331E+00 -2.19211E-01
    9018.121     24.420   2.840  7.96608E-01  1.01304E+00 -2.16431E-01
    9018.992     25.292   2.880  8.01451E-01  1.01261E+00 -2.11163E-01
    9019.876     26.176   2.920  8.06644E-01  1.01207E+00 -2.05424E-01
    9020.772     27.072   2.960  8.12533E-01  1.01143E+00 -1.98895E-01
    9021.681     27.980   3.000  8.20206E-01  1.01070E+00 -1.90497E-01
    9022.601     28.901   3.040  8.30745E-01  1.00990E+00 -1.79153E-01
    9023.534     29.833   3.080  8.44694E-01  1.00902E+00 -1.64325E-01
    9024.479     30.778   3.120  8.62024E-01  1.00811E+00 -1.46090E-01
    9025.436     31.735   3.160  8.82033E-01  1.00715E+00 -1.25112E-01
    9026.405     32.705   3.200  9.04324E-01  1.00616E+00 -1.01835E-01
    9027.386     33.686   3.240  9.28554E-01  1.00514E+00 -7.65887E-02
    9028.380     34.680   3.280  9.54182E-01  1.00412E+00 -4.99377E-02
    9029.386     35.686   3.320  9.80873E-01  1.00309E+00 -2.22198E-02
    9030.404     36.704   3.360  1.00803E+00  1.00207E+00  5.95872E-03
    9031.434     37.734   3.400  1.03473E+00  1.00107E+00  3.36531E-02
    9032.477     38.776   3.440  1.05992E+00  1.00009E+00  5.98353E-02
    9033.531     39.831   3.480  1.08251E+00  9.99132E-01  8.33801E-02
    9034.598     40.898   3.520  1.10108E+00  9.98215E-01  1.02864E-01
    9035.677     41.977   3.560  1.11434E+00  9.97336E-01  1.17002E-01
    9036.768     43.068   3.600  1.12158E+00  9.96498E-01  1.25082E-01
    9037.872     44.171   3.640  1.12277E+00  9.95701E-01  1.27073E-01
    9038.987     45.287   3.680  1.11840E+00  9.94949E-01  1.23455E-01
    9040.115     46.415   3.720  1.10960E+00  9.94264E-01  1.15333E-01
    9041.255     47.554   3.760  1.09778E+00  9.93628E-01  1.04152E-01
    9042.407     48.707   3.800  1.08465E+00  9.93060E-01  9.15937E-02
    9043.571     49.871   3.840  1.07191E+00  9.92542E-01  7.93667E-02
    9044.748     51.047   3.880  1.06098E+00  9.92096E-01  6.88854E-02
    9045.936     52.236   3.920  1.05258E+00  9.91699E-01  6.08821E-02
    9047.137     53.437   3.960  1.04683E+00  9.91373E-01  5.54614E-02
    9048.351     54.650   4.000  1.04348E+00  9.91099E-01  5.23807E-02
    9049.576     55.876   4.040  1.04210E+00  9.90918E-01  5.11779E-02
    9050.813     57.113   4.080  1.04196E+00  9.90766E-01  5.11909E-02
    9052.063     58.363   4.120  1.04229E+00  9.90684E-01  5.16035E-02
    9053.325     59.625   4.160  1.04223E+00  9.90675E-01  5.15529E-02
    9054.599     60.899   4.200  1.04086E+00  9.90714E-01  5.01467E-02
    9055.885     62.185   4.240  1.03747E+00  9.90824E-01  4.66511E-02
    9057.184     63.483   4.280  1.03168E+00  9.90979E-01  4.07006E-02
    9058.494     64.794   4.320  1.02358E+00  9.91179E-01  3.24044E-02
    9059.817     66.117   4.360  1.01368E+00  9.91446E-01  2.22369E-02
    9061.152     67.452   4.400  1.00270E+00  9.91755E-01  1.09402E-02
    9062.499     68.799   4.440  9.91405E-01  9.92084E-01 -6.78395E-04
    9063.859     70.158   4.480  9.80576E-01  9.92473E-01 -1.18964E-02
    9065.230     71.530   4.520  9.70748E-01  9.92902E-01 -2.21541E-02
    9066.614     72.914   4.560  9.62160E-01  9.93369E-01 -3.12097E-02
    9068.010     74.310   4.600  9.54740E-01  9.93848E-01 -3.91080E-02
    9069.418     75.718   4.640  9.48361E-01  9.94360E-01 -4.59987E-02
    9070.839     77.138   4.680  9.42911E-01  9.94904E-01 -5.19922E-02
    9072.271     78.571   4.720  9.38452E-01  9.95455E-01 -5.70021E-02
    9073.716     80.016   4.760  9.35337E-01  9.96008E-01 -6.06714E-02
    9075.173     81.472   4.800  9.34040E-01  9.96566E-01 -6.25266E-02
    9076.642     82.942   4.840  9.34874E-01  9.97149E-01 -6.22752E-02
    9078.123     84.423   4.880  9.37784E-01  9.97734E-01 -5.99500E-02
    9079.617     85.916   4.920  9.42271E-01  9.98315E-01 -5.60436E-02
    9081.122     87.422   4.960  9.47466E-01  9.98870E-01 -5.14034E-02
    9082.640     88.940   5.000  9.52478E-01  9.99419E-01 -4.69410E-02
    9084.170     90.470   5.040  9.56670E-01  9.99963E-01 -4.32927E-02
    9085.713     92.012   5.080  9.59966E-01  1.00050E+00 -4.05321E-02
    9087.267     93.567   5.120  9.62740E-01  1.00100E+00 -3.82603E-02
    9088.834     95.134   5.160  9.65588E-01  1.00147E+00 -3.58796E-02
    9090.413     96.712   5.200  9.69037E-01  1.00192E+00 -3.28817E-02
    9092.004     98.303   5.240  9.73343E-01  1.00231E+00 -2.89672E-02
    9093.607     99.907   5.280  9.78669E-01  1.00269E+00 -2.40168E-02
    9095.222    101.522   5.320  9.84980E-01  1.00302E+00 -1.80439E-02
    9096.850    103.150   5.360  9.92132E-01  1.00332E+00 -1.11889E-02
    9098.490    104.790   5.400  9.99839E-01  1.00358E+00 -3.73690E-03
    9100.142    106.442   5.440  1.00771E+00  1.00379E+00  3.92322E-03
    9101.806    108.106   5.480  1.01531E+00  1.00396E+00  1.13527E-02
    9103.482    109.782   5.520  1.02214E+00  1.00406E+00  1.80810E-02
    9105.171    111.471   5.560  1.02774E+00  1.00414E+00  2.36013E-02
    9106.872    113.172   5.600  1.03166E+00  1.00415E+00  2.75066E-02
    9108.585    114.885   5.640  1.03386E+00  1.00412E+00  2.97379E-02
    9110.310    116.610   5.680  1.03467E+00  1.00402E+00  3.06475E-02
    9112.047    118.347   5.720  1.03474E+00  1.00390E+00  3.08404E-02
    9113.797    120.097   5.760  1.03463E+00  1.00372E+00  3.09112E-02
    9115.559    121.858   5.800  1.03480E+00  1.00349E+00  3.13188E-02
    9117.333    123.632   5.840  1.03553E+00  1.00321E+00  3.23117E-02
    9119.119    125.418   5.880  1.03666E+00  1.00288E+00  3.37812E-02
    9120.917    127.217   5.920  1.03769E+00  1.00252E+00  3.51657E-02
    9122.727    129.027   5.960  1.03773E+00  1.00211E+00  3.56221E-02
    9124.550    130.850   6.000  1.03611E+00  1.00162E+00  3.44919E-02
