# # comment:                                                     FEFF 9.9.1  
# # Source:
# # Structure
# # Reduced
# # space
# # abc:
# # angles:
# # sites:
# # POT  SCF 100  7.0000   0, screened core-hole, AFOLP (folp(0)= 1.150)
# # Abs   Z=29 Rmt= 1.220 Rnm= 1.314 K  shell
# # Pot 1 Z=12 Rmt= 1.334 Rnm= 1.439
# # Pot 2 Z=23 Rmt= 1.098 Rnm= 1.309
# # Pot 3 Z=29 Rmt= 1.236 Rnm= 1.324
# # Pot 4 Z= 8 Rmt= 0.922 Rnm= 1.089
# # Gam_ch=1.729E+00 H-L exch Vi= 0.000E+00 Vr= 0.000E+00
# # Mu=-8.913E+00eV kf=2.263E+00 Vint=-1.726E+01eV Rs_int= 1.603
# FMS rfms= 9.0000
# # PATH  Rmax=-1.000,  Keep_limit= 0.00, Heap_limit 0.00  Pwcrit= 2.50%
#  S02=0.950  Temp=   0.00  Debye_temp=   0.00  Global_sig2= 0.00000
#  Energy zero shift, vr, vi    0.00000E+00   0.00000E+00
#  Curved wave amplitude ratio filter   4.000%
#     file         sig2 tot  cw amp ratio   deg  nlegs   reff  inp sig2
#     0/   0 paths used
#  xsedge+ 50, used to normalize mu           2.4811E-04
#  -----------------------------------------------------------------------
#  omega    e    k    mu    mu0     chi     @#
    8983.929    -12.723  -1.000  3.52520E-02  4.97437E-02 -1.44917E-02
    8984.228    -12.425  -0.960  3.71482E-02  5.32512E-02 -1.61030E-02
    8984.514    -12.138  -0.920  3.92100E-02  5.71406E-02 -1.79306E-02
    8984.789    -11.864  -0.880  4.14596E-02  6.14676E-02 -2.00079E-02
    8985.051    -11.602  -0.840  4.39229E-02  6.62967E-02 -2.23738E-02
    8985.301    -11.352  -0.800  4.66295E-02  7.17028E-02 -2.50733E-02
    8985.538    -11.114  -0.760  4.96135E-02  7.77716E-02 -2.81581E-02
    8985.764    -10.889  -0.720  5.29135E-02  8.46002E-02 -3.16867E-02
    8985.977    -10.675  -0.680  5.65713E-02  9.22949E-02 -3.57236E-02
    8986.178    -10.474  -0.640  6.06311E-02  1.00968E-01 -4.03371E-02
    8986.367    -10.285  -0.600  6.51358E-02  1.10730E-01 -4.55943E-02
    8986.544    -10.108  -0.560  7.01218E-02  1.21675E-01 -5.15528E-02
    8986.709     -9.944  -0.520  7.56099E-02  1.33857E-01 -5.82467E-02
    8986.861     -9.791  -0.480  8.15939E-02  1.47263E-01 -6.56690E-02
    8987.001     -9.651  -0.440  8.80264E-02  1.61776E-01 -7.37494E-02
    8987.129     -9.523  -0.400  9.48072E-02  1.77145E-01 -8.23374E-02
    8987.245     -9.407  -0.360  1.01778E-01  1.92976E-01 -9.11973E-02
    8987.349     -9.304  -0.320  1.08731E-01  2.08757E-01 -1.00026E-01
    8987.440     -9.212  -0.280  1.15431E-01  2.23922E-01 -1.08490E-01
    8987.520     -9.133  -0.240  1.21645E-01  2.37921E-01 -1.16277E-01
    8987.587     -9.066  -0.200  1.27168E-01  2.50297E-01 -1.23129E-01
    8987.642     -9.011  -0.160  1.31845E-01  2.60712E-01 -1.28868E-01
    8987.684     -8.968  -0.120  1.35568E-01  2.68949E-01 -1.33381E-01
    8987.715     -8.938  -0.080  1.38272E-01  2.74885E-01 -1.36613E-01
    8987.739     -8.913   0.000  1.40474E-01  2.79656E-01 -1.39181E-01
    8987.794     -8.859   0.120  1.45309E-01  2.90429E-01 -1.45120E-01
    8987.837     -8.816   0.160  1.49056E-01  2.98783E-01 -1.49727E-01
    8987.891     -8.761   0.200  1.53888E-01  3.09495E-01 -1.55607E-01
    8987.959     -8.694   0.240  1.59692E-01  3.22369E-01 -1.62677E-01
    8988.038     -8.615   0.280  1.66422E-01  3.37200E-01 -1.70778E-01
    8988.129     -8.523   0.320  1.73874E-01  3.53586E-01 -1.79712E-01
    8988.233     -8.420   0.360  1.81910E-01  3.71097E-01 -1.89187E-01
    8988.349     -8.304   0.400  1.90360E-01  3.89254E-01 -1.98894E-01
    8988.477     -8.176   0.440  1.99129E-01  4.07596E-01 -2.08468E-01
    8988.617     -8.036   0.480  2.08291E-01  4.25787E-01 -2.17496E-01
    8988.769     -7.883   0.520  2.17994E-01  4.43590E-01 -2.25596E-01
    8988.934     -7.719   0.560  2.28335E-01  4.60909E-01 -2.32574E-01
    8989.111     -7.542   0.600  2.39052E-01  4.77733E-01 -2.38681E-01
    8989.300     -7.353   0.640  2.49435E-01  4.94092E-01 -2.44658E-01
    8989.501     -7.152   0.680  2.58454E-01  5.10047E-01 -2.51594E-01
    8989.714     -6.938   0.720  2.65339E-01  5.25690E-01 -2.60351E-01
    8989.940     -6.713   0.760  2.70059E-01  5.41090E-01 -2.71030E-01
    8990.177     -6.475   0.800  2.72906E-01  5.56328E-01 -2.83422E-01
    8990.427     -6.225   0.840  2.74132E-01  5.71456E-01 -2.97325E-01
    8990.690     -5.963   0.880  2.74312E-01  5.86494E-01 -3.12182E-01
    8990.964     -5.689   0.920  2.74649E-01  6.01486E-01 -3.26838E-01
    8991.250     -5.402   0.960  2.76315E-01  6.16449E-01 -3.40134E-01
    8991.549     -5.104   1.000  2.80306E-01  6.31392E-01 -3.51085E-01
    8991.860     -4.793   1.040  2.88104E-01  6.46311E-01 -3.58207E-01
    8992.183     -4.470   1.080  3.01402E-01  6.61200E-01 -3.59799E-01
    8992.518     -4.134   1.120  3.20806E-01  6.76045E-01 -3.55239E-01
    8992.866     -3.787   1.160  3.45507E-01  6.90828E-01 -3.45321E-01
    8993.225     -3.427   1.200  3.75321E-01  7.05528E-01 -3.30207E-01
    8993.597     -3.055   1.240  4.11594E-01  7.20118E-01 -3.08525E-01
    8993.981     -2.671   1.280  4.54350E-01  7.34553E-01 -2.80203E-01
    8994.378     -2.275   1.320  4.99805E-01  7.48822E-01 -2.49017E-01
    8994.786     -1.867   1.360  5.44175E-01  7.62898E-01 -2.18722E-01
    8995.207     -1.446   1.400  5.86529E-01  7.76726E-01 -1.90196E-01
    8995.639     -1.013   1.440  6.25077E-01  7.90316E-01 -1.65239E-01
    8996.084     -0.568   1.480  6.59646E-01  8.03597E-01 -1.43951E-01
    8996.542     -0.111   1.520  6.97495E-01  8.16556E-01 -1.19061E-01
    8997.011      0.358   1.560  7.47874E-01  8.29162E-01 -8.12883E-02
    8997.493      0.840   1.600  8.11889E-01  8.41405E-01 -2.95163E-02
    8997.986      1.334   1.640  8.80254E-01  8.53256E-01  2.69978E-02
    8998.492      1.840   1.680  9.40401E-01  8.64686E-01  7.57142E-02
    8999.011      2.358   1.720  9.90377E-01  8.75687E-01  1.14689E-01
    8999.541      2.888   1.760  1.03455E+00  8.86254E-01  1.48292E-01
    9000.083      3.431   1.800  1.07164E+00  8.96339E-01  1.75299E-01
    9000.638      3.986   1.840  1.10182E+00  9.05958E-01  1.95865E-01
    9001.205      4.553   1.880  1.12566E+00  9.15111E-01  2.10549E-01
    9001.784      5.132   1.920  1.14454E+00  9.23774E-01  2.20769E-01
    9002.375      5.723   1.960  1.16850E+00  9.31945E-01  2.36551E-01
    9002.979      6.326   2.000  1.20847E+00  9.39648E-01  2.68826E-01
    9003.595      6.942   2.040  1.26071E+00  9.46864E-01  3.13849E-01
    9004.223      7.570   2.080  1.31077E+00  9.53594E-01  3.57176E-01
    9004.863      8.210   2.120  1.34016E+00  9.59862E-01  3.80301E-01
    9005.515      8.862   2.160  1.33753E+00  9.65655E-01  3.71873E-01
    9006.179      9.527   2.200  1.31027E+00  9.71016E-01  3.39249E-01
    9006.856     10.203   2.240  1.27139E+00  9.75932E-01  2.95458E-01
    9007.545     10.892   2.280  1.22962E+00  9.80409E-01  2.49207E-01
    9008.246     11.593   2.320  1.19156E+00  9.84475E-01  2.07085E-01
    9008.959     12.307   2.360  1.16207E+00  9.88159E-01  1.73913E-01
    9009.685     13.032   2.400  1.14123E+00  9.91448E-01  1.49785E-01
    9010.422     13.770   2.440  1.12250E+00  9.94371E-01  1.28130E-01
    9011.172     14.519   2.480  1.10109E+00  9.96957E-01  1.04131E-01
    9011.934     15.281   2.520  1.07784E+00  9.99215E-01  7.86227E-02
    9012.708     16.056   2.560  1.05387E+00  1.00115E+00  5.27123E-02
    9013.495     16.842   2.600  1.02941E+00  1.00280E+00  2.66023E-02
    9014.293     17.641   2.640  1.00309E+00  1.00417E+00 -1.08548E-03
    9015.104     18.451   2.680  9.79588E-01  1.00529E+00 -2.56988E-02
    9015.927     19.274   2.720  9.63266E-01  1.00616E+00 -4.28931E-02
    9016.762     20.109   2.760  9.52423E-01  1.00680E+00 -5.43745E-02
    9017.609     20.957   2.800  9.45489E-01  1.00725E+00 -6.17620E-02
    9018.469     21.816   2.840  9.41354E-01  1.00751E+00 -6.61550E-02
    9019.341     22.688   2.880  9.38753E-01  1.00758E+00 -6.88239E-02
    9020.225     23.572   2.920  9.36576E-01  1.00750E+00 -7.09280E-02
    9021.121     24.468   2.960  9.34187E-01  1.00730E+00 -7.31121E-02
    9022.029     25.376   3.000  9.31335E-01  1.00695E+00 -7.56144E-02
    9022.949     26.297   3.040  9.28236E-01  1.00648E+00 -7.82446E-02
    9023.882     27.230   3.080  9.25463E-01  1.00594E+00 -8.04771E-02
    9024.827     28.174   3.120  9.23227E-01  1.00530E+00 -8.20683E-02
    9025.784     29.131   3.160  9.21624E-01  1.00457E+00 -8.29465E-02
    9026.753     30.101   3.200  9.20670E-01  1.00379E+00 -8.31212E-02
    9027.735     31.082   3.240  9.20137E-01  1.00294E+00 -8.28060E-02
    9028.728     32.076   3.280  9.19655E-01  1.00205E+00 -8.23970E-02
    9029.734     33.082   3.320  9.18939E-01  1.00115E+00 -8.22063E-02
    9030.752     34.100   3.360  9.18045E-01  1.00021E+00 -8.21609E-02
    9031.782     35.130   3.400  9.17155E-01  9.99257E-01 -8.21028E-02
    9032.825     36.172   3.440  9.16597E-01  9.98283E-01 -8.16861E-02
    9033.879     37.227   3.480  9.16723E-01  9.97329E-01 -8.06055E-02
    9034.946     38.294   3.520  9.17643E-01  9.96377E-01 -7.87335E-02
    9036.025     39.373   3.560  9.19349E-01  9.95430E-01 -7.60815E-02
    9037.116     40.464   3.600  9.21861E-01  9.94511E-01 -7.26507E-02
    9038.220     41.567   3.640  9.25195E-01  9.93603E-01 -6.84075E-02
    9039.335     42.683   3.680  9.29424E-01  9.92728E-01 -6.33034E-02
    9040.463     43.811   3.720  9.34683E-01  9.91888E-01 -5.72053E-02
    9041.603     44.951   3.760  9.41210E-01  9.91084E-01 -4.98740E-02
    9042.755     46.103   3.800  9.49162E-01  9.90298E-01 -4.11356E-02
    9043.920     47.267   3.840  9.58591E-01  9.89574E-01 -3.09829E-02
    9045.096     48.444   3.880  9.69332E-01  9.88891E-01 -1.95587E-02
    9046.285     49.632   3.920  9.81004E-01  9.88252E-01 -7.24834E-03
    9047.486     50.833   3.960  9.93038E-01  9.87677E-01  5.36091E-03
    9048.699     52.046   4.000  1.00476E+00  9.87123E-01  1.76354E-02
    9049.924     53.272   4.040  1.01563E+00  9.86635E-01  2.89933E-02
    9051.162     54.509   4.080  1.02507E+00  9.86191E-01  3.88776E-02
    9052.411     55.759   4.120  1.03272E+00  9.85813E-01  4.69051E-02
    9053.673     57.021   4.160  1.03847E+00  9.85459E-01  5.30072E-02
    9054.947     58.295   4.200  1.04256E+00  9.85171E-01  5.73856E-02
    9056.233     59.581   4.240  1.04532E+00  9.84948E-01  6.03717E-02
    9057.532     60.879   4.280  1.04706E+00  9.84748E-01  6.23153E-02
    9058.843     62.190   4.320  1.04796E+00  9.84613E-01  6.33505E-02
    9060.165     63.513   4.360  1.04790E+00  9.84521E-01  6.33772E-02
    9061.500     64.848   4.400  1.04673E+00  9.84471E-01  6.22560E-02
    9062.848     66.195   4.440  1.04448E+00  9.84463E-01  6.00209E-02
    9064.207     67.554   4.480  1.04149E+00  9.84518E-01  5.69713E-02
    9065.579     68.926   4.520  1.03825E+00  9.84590E-01  5.36639E-02
    9066.962     70.310   4.560  1.03543E+00  9.84702E-01  5.07293E-02
    9068.358     71.706   4.600  1.03350E+00  9.84874E-01  4.86260E-02
    9069.766     73.114   4.640  1.03253E+00  9.85061E-01  4.74651E-02
    9071.187     74.534   4.680  1.03228E+00  9.85282E-01  4.69995E-02
    9072.619     75.967   4.720  1.03218E+00  9.85516E-01  4.66638E-02
    9074.064     77.412   4.760  1.03163E+00  9.85806E-01  4.58244E-02
    9075.521     78.869   4.800  1.03010E+00  9.86105E-01  4.39954E-02
    9076.990     80.338   4.840  1.02731E+00  9.86413E-01  4.08923E-02
    9078.472     81.819   4.880  1.02317E+00  9.86750E-01  3.64178E-02
    9079.965     83.313   4.920  1.01776E+00  9.87093E-01  3.06645E-02
    9081.471     84.818   4.960  1.01137E+00  9.87462E-01  2.39067E-02
    9082.989     86.336   5.000  1.00434E+00  9.87812E-01  1.65266E-02
    9084.519     87.866   5.040  9.96980E-01  9.88186E-01  8.79394E-03
    9086.061     89.408   5.080  9.89282E-01  9.88563E-01  7.18864E-04
    9087.616     90.963   5.120  9.81048E-01  9.88939E-01 -7.89109E-03
    9089.182     92.530   5.160  9.72090E-01  9.89314E-01 -1.72238E-02
    9090.761     94.108   5.200  9.62483E-01  9.89688E-01 -2.72042E-02
    9092.352     95.700   5.240  9.52696E-01  9.90056E-01 -3.73602E-02
    9093.955     97.303   5.280  9.43524E-01  9.90396E-01 -4.68724E-02
    9095.571     98.918   5.320  9.35919E-01  9.90729E-01 -5.48106E-02
    9097.198    100.546   5.360  9.30745E-01  9.91055E-01 -6.03101E-02
    9098.838    102.186   5.400  9.28511E-01  9.91351E-01 -6.28399E-02
    9100.490    103.838   5.440  9.29280E-01  9.91636E-01 -6.23561E-02
    9102.154    105.502   5.480  9.32580E-01  9.91887E-01 -5.93074E-02
    9103.831    107.178   5.520  9.37738E-01  9.92105E-01 -5.43667E-02
    9105.519    108.867   5.560  9.44038E-01  9.92310E-01 -4.82723E-02
    9107.220    110.568   5.600  9.50813E-01  9.92480E-01 -4.16670E-02
    9108.933    112.281   5.640  9.57633E-01  9.92614E-01 -3.49812E-02
    9110.658    114.006   5.680  9.64324E-01  9.92736E-01 -2.84116E-02
    9112.396    115.743   5.720  9.70686E-01  9.92822E-01 -2.21367E-02
    9114.145    117.493   5.760  9.76385E-01  9.92870E-01 -1.64848E-02
    9115.907    119.254   5.800  9.81008E-01  9.92879E-01 -1.18712E-02
    9117.681    121.028   5.840  9.84325E-01  9.92851E-01 -8.52526E-03
    9119.467    122.814   5.880  9.86384E-01  9.92784E-01 -6.39990E-03
    9121.265    124.613   5.920  9.87403E-01  9.92706E-01 -5.30222E-03
    9123.076    126.423   5.960  9.87484E-01  9.92563E-01 -5.07921E-03
    9124.898    128.246   6.000  9.86736E-01  9.92386E-01 -5.64996E-03
