# # comment:                                                     FEFF 9.9.1  
# # Source:
# # Structure
# # Reduced
# # space
# # abc:
# # angles:
# # sites:
# # POT  SCF 100  7.0000   0, screened core-hole, AFOLP (folp(0)= 1.150)
# # Abs   Z=29 Rmt= 1.243 Rnm= 1.359 K  shell
# # Pot 1 Z=29 Rmt= 1.222 Rnm= 1.347
# # Pot 2 Z= 8 Rmt= 0.998 Rnm= 1.128
# # Pot 3 Z= 9 Rmt= 1.032 Rnm= 1.136
# # Gam_ch=1.729E+00 H-L exch Vi= 0.000E+00 Vr= 0.000E+00
# # Mu=-6.589E+00eV kf=1.959E+00 Vint=-1.240E+01eV Rs_int= 1.851
# FMS rfms= 9.0000
# # PATH  Rmax=-1.000,  Keep_limit= 0.00, Heap_limit 0.00  Pwcrit= 2.50%
#  S02=0.950  Temp=   0.00  Debye_temp=   0.00  Global_sig2= 0.00000
#  Energy zero shift, vr, vi    0.00000E+00   0.00000E+00
#  Curved wave amplitude ratio filter   4.000%
#     file         sig2 tot  cw amp ratio   deg  nlegs   reff  inp sig2
#     0/   0 paths used
#  xsedge+ 50, used to normalize mu           2.4187E-04
#  -----------------------------------------------------------------------
#  omega    e    k    mu    mu0     chi     @#
    8983.265    -10.399  -1.000  3.38446E-02  5.55250E-02 -2.16804E-02
    8983.564    -10.101  -0.960  3.52179E-02  5.94961E-02 -2.42783E-02
    8983.850     -9.814  -0.920  3.66492E-02  6.38957E-02 -2.72464E-02
    8984.125     -9.540  -0.880  3.81407E-02  6.87846E-02 -3.06439E-02
    8984.387     -9.278  -0.840  3.96943E-02  7.42338E-02 -3.45395E-02
    8984.637     -9.028  -0.800  4.13121E-02  8.03249E-02 -3.90127E-02
    8984.874     -8.790  -0.760  4.29964E-02  8.71513E-02 -4.41550E-02
    8985.100     -8.564  -0.720  4.47490E-02  9.48183E-02 -5.00692E-02
    8985.313     -8.351  -0.680  4.65719E-02  1.03441E-01 -5.68690E-02
    8985.515     -8.150  -0.640  4.84661E-02  1.13140E-01 -6.46743E-02
    8985.704     -7.961  -0.600  5.04319E-02  1.24035E-01 -7.36030E-02
    8985.880     -7.784  -0.560  5.24670E-02  1.36224E-01 -8.37574E-02
    8986.045     -7.619  -0.520  5.45661E-02  1.49767E-01 -9.52008E-02
    8986.197     -7.467  -0.480  5.67182E-02  1.64646E-01 -1.07927E-01
    8986.337     -7.327  -0.440  5.89049E-02  1.80731E-01 -1.21826E-01
    8986.466     -7.199  -0.400  6.10986E-02  1.97750E-01 -1.36651E-01
    8986.581     -7.083  -0.360  6.32623E-02  2.15274E-01 -1.52012E-01
    8986.685     -6.979  -0.320  6.53511E-02  2.32747E-01 -1.67395E-01
    8986.776     -6.888  -0.280  6.73171E-02  2.49547E-01 -1.82230E-01
    8986.856     -6.809  -0.240  6.91137E-02  2.65076E-01 -1.95962E-01
    8986.923     -6.742  -0.200  7.07003E-02  2.78824E-01 -2.08124E-01
    8986.978     -6.687  -0.160  7.20439E-02  2.90413E-01 -2.18369E-01
    8987.020     -6.644  -0.120  7.31188E-02  2.99593E-01 -2.26474E-01
    8987.051     -6.614  -0.080  7.39053E-02  3.06218E-01 -2.32313E-01
    8987.075     -6.589   0.000  7.45572E-02  3.11551E-01 -2.36994E-01
    8987.130     -6.534   0.120  7.61005E-02  3.23583E-01 -2.47482E-01
    8987.173     -6.492   0.160  7.72594E-02  3.32973E-01 -2.55713E-01
    8987.228     -6.437   0.200  7.87333E-02  3.45008E-01 -2.66274E-01
    8987.295     -6.370   0.240  8.05390E-02  3.59568E-01 -2.79029E-01
    8987.374     -6.291   0.280  8.26565E-02  3.76398E-01 -2.93742E-01
    8987.465     -6.199   0.320  8.51028E-02  3.95146E-01 -3.10043E-01
    8987.569     -6.095   0.360  8.78696E-02  4.15343E-01 -3.27474E-01
    8987.685     -5.980   0.400  9.10229E-02  4.36530E-01 -3.45507E-01
    8987.813     -5.852   0.440  9.45910E-02  4.58218E-01 -3.63627E-01
    8987.953     -5.711   0.480  9.86803E-02  4.80059E-01 -3.81379E-01
    8988.105     -5.559   0.520  1.03432E-01  5.01809E-01 -3.98376E-01
    8988.270     -5.394   0.560  1.08993E-01  5.23318E-01 -4.14325E-01
    8988.447     -5.218   0.600  1.15597E-01  5.44562E-01 -4.28966E-01
    8988.636     -5.029   0.640  1.23450E-01  5.65538E-01 -4.42088E-01
    8988.837     -4.827   0.680  1.32786E-01  5.86289E-01 -4.53503E-01
    8989.050     -4.614   0.720  1.43726E-01  6.06824E-01 -4.63098E-01
    8989.276     -4.389   0.760  1.56360E-01  6.27211E-01 -4.70851E-01
    8989.513     -4.151   0.800  1.70641E-01  6.47468E-01 -4.76827E-01
    8989.763     -3.901   0.840  1.86765E-01  6.67576E-01 -4.80812E-01
    8990.026     -3.639   0.880  2.05586E-01  6.87527E-01 -4.81941E-01
    8990.300     -3.364   0.920  2.28601E-01  7.07297E-01 -4.78696E-01
    8990.586     -3.078   0.960  2.57544E-01  7.26852E-01 -4.69308E-01
    8990.885     -2.779   1.000  2.93558E-01  7.46150E-01 -4.52592E-01
    8991.196     -2.468   1.040  3.36104E-01  7.65099E-01 -4.28995E-01
    8991.519     -2.145   1.080  3.82981E-01  7.83686E-01 -4.00705E-01
    8991.854     -1.810   1.120  4.32331E-01  8.01830E-01 -3.69499E-01
    8992.202     -1.463   1.160  4.85487E-01  8.19450E-01 -3.33963E-01
    8992.561     -1.103   1.200  5.44287E-01  8.36524E-01 -2.92237E-01
    8992.933     -0.731   1.240  6.04089E-01  8.52948E-01 -2.48859E-01
    8993.317     -0.347   1.280  6.54620E-01  8.68725E-01 -2.14105E-01
    8993.714      0.049   1.320  6.87925E-01  8.83754E-01 -1.95829E-01
    8994.122      0.458   1.360  7.04078E-01  8.98018E-01 -1.93940E-01
    8994.543      0.878   1.400  7.12935E-01  9.11506E-01 -1.98572E-01
    8994.975      1.311   1.440  7.32490E-01  9.24147E-01 -1.91658E-01
    8995.420      1.756   1.480  7.79740E-01  9.35956E-01 -1.56217E-01
    8995.878      2.213   1.520  8.59199E-01  9.46931E-01 -8.77325E-02
    8996.347      2.683   1.560  9.59685E-01  9.57053E-01  2.63248E-03
    8996.829      3.164   1.600  1.06581E+00  9.66326E-01  9.94840E-02
    8997.322      3.658   1.640  1.17732E+00  9.74778E-01  2.02542E-01
    8997.828      4.164   1.680  1.30908E+00  9.82398E-01  3.26687E-01
    8998.347      4.682   1.720  1.45660E+00  9.89240E-01  4.67357E-01
    8998.877      5.213   1.760  1.58209E+00  9.95301E-01  5.86788E-01
    8999.419      5.755   1.800  1.64940E+00  1.00066E+00  6.48739E-01
    8999.974      6.310   1.840  1.65426E+00  1.00531E+00  6.48956E-01
    9000.541      6.877   1.880  1.61718E+00  1.00929E+00  6.07888E-01
    9001.120      7.456   1.920  1.56355E+00  1.01267E+00  5.50881E-01
    9001.712      8.047   1.960  1.50914E+00  1.01547E+00  4.93673E-01
    9002.315      8.651   2.000  1.45301E+00  1.01772E+00  4.35288E-01
    9002.931      9.266   2.040  1.38959E+00  1.01948E+00  3.70110E-01
    9003.559      9.894   2.080  1.31563E+00  1.02079E+00  2.94836E-01
    9004.199     10.534   2.120  1.24526E+00  1.02169E+00  2.23567E-01
    9004.851     11.187   2.160  1.19886E+00  1.02219E+00  1.76668E-01
    9005.515     11.851   2.200  1.15626E+00  1.02237E+00  1.33882E-01
    9006.192     12.528   2.240  1.08616E+00  1.02226E+00  6.38970E-02
    9006.881     13.217   2.280  1.00546E+00  1.02187E+00 -1.64113E-02
    9007.582     13.918   2.320  9.52162E-01  1.02126E+00 -6.90935E-02
    9008.295     14.631   2.360  9.38671E-01  1.02046E+00 -8.17879E-02
    9009.021     15.356   2.400  9.60019E-01  1.01947E+00 -5.94538E-02
    9009.758     16.094   2.440  9.81956E-01  1.01835E+00 -3.63940E-02
    9010.508     16.844   2.480  9.98226E-01  1.01711E+00 -1.88817E-02
    9011.270     17.606   2.520  1.00733E+00  1.01580E+00 -8.46946E-03
    9012.044     18.380   2.560  1.00891E+00  1.01439E+00 -5.47774E-03
    9012.831     19.166   2.600  1.00407E+00  1.01296E+00 -8.88607E-03
    9013.629     19.965   2.640  9.94519E-01  1.01149E+00 -1.69713E-02
    9014.440     20.776   2.680  9.82091E-01  1.01002E+00 -2.79259E-02
    9015.263     21.599   2.720  9.68486E-01  1.00854E+00 -4.00588E-02
    9016.098     22.434   2.760  9.54802E-01  1.00710E+00 -5.23000E-02
    9016.945     23.281   2.800  9.42123E-01  1.00567E+00 -6.35519E-02
    9017.805     24.141   2.840  9.31245E-01  1.00431E+00 -7.30660E-02
    9018.677     25.012   2.880  9.22198E-01  1.00300E+00 -8.07990E-02
    9019.561     25.896   2.920  9.14222E-01  1.00176E+00 -8.75332E-02
    9020.457     26.792   2.960  9.06472E-01  1.00059E+00 -9.41181E-02
    9021.365     27.701   3.000  8.98505E-01  9.99486E-01 -1.00980E-01
    9022.285     28.621   3.040  8.90413E-01  9.98486E-01 -1.08073E-01
    9023.218     29.554   3.080  8.82591E-01  9.97574E-01 -1.14983E-01
    9024.163     30.499   3.120  8.75642E-01  9.96772E-01 -1.21130E-01
    9025.120     31.456   3.160  8.70091E-01  9.96059E-01 -1.25968E-01
    9026.089     32.425   3.200  8.66476E-01  9.95438E-01 -1.28962E-01
    9027.071     33.406   3.240  8.65363E-01  9.94930E-01 -1.29567E-01
    9028.064     34.400   3.280  8.67369E-01  9.94537E-01 -1.27168E-01
    9029.070     35.406   3.320  8.72956E-01  9.94237E-01 -1.21280E-01
    9030.088     36.424   3.360  8.81938E-01  9.94051E-01 -1.12113E-01
    9031.119     37.454   3.400  8.93940E-01  9.93959E-01 -1.00019E-01
    9032.161     38.497   3.440  9.08224E-01  9.93980E-01 -8.57562E-02
    9033.216     39.551   3.480  9.23768E-01  9.94115E-01 -7.03465E-02
    9034.282     40.618   3.520  9.39430E-01  9.94340E-01 -5.49107E-02
    9035.361     41.697   3.560  9.54519E-01  9.94654E-01 -4.01347E-02
    9036.452     42.788   3.600  9.68857E-01  9.95075E-01 -2.62180E-02
    9037.556     43.892   3.640  9.82554E-01  9.95581E-01 -1.30271E-02
    9038.671     45.007   3.680  9.95679E-01  9.96149E-01 -4.70202E-04
    9039.799     46.135   3.720  1.00818E+00  9.96820E-01  1.13611E-02
    9040.939     47.275   3.760  1.01976E+00  9.97572E-01  2.21911E-02
    9042.091     48.427   3.800  1.03016E+00  9.98402E-01  3.17532E-02
    9043.256     49.591   3.840  1.03919E+00  9.99285E-01  3.99085E-02
    9044.432     50.768   3.880  1.04706E+00  1.00024E+00  4.68177E-02
    9045.621     51.957   3.920  1.05409E+00  1.00124E+00  5.28539E-02
    9046.822     53.157   3.960  1.06077E+00  1.00228E+00  5.84900E-02
    9048.035     54.371   4.000  1.06749E+00  1.00339E+00  6.40974E-02
    9049.260     55.596   4.040  1.07423E+00  1.00452E+00  6.97059E-02
    9050.498     56.833   4.080  1.08053E+00  1.00568E+00  7.48466E-02
    9051.747     58.083   4.120  1.08559E+00  1.00688E+00  7.87088E-02
    9053.009     59.345   4.160  1.08858E+00  1.00811E+00  8.04700E-02
    9054.283     60.619   4.200  1.08890E+00  1.00932E+00  7.95796E-02
    9055.569     61.905   4.240  1.08646E+00  1.01055E+00  7.59061E-02
    9056.868     63.204   4.280  1.08133E+00  1.01178E+00  6.95473E-02
    9058.179     64.514   4.320  1.07387E+00  1.01301E+00  6.08595E-02
    9059.501     65.837   4.360  1.06478E+00  1.01421E+00  5.05623E-02
    9060.836     67.172   4.400  1.05520E+00  1.01540E+00  3.97953E-02
    9062.184     68.519   4.440  1.04648E+00  1.01656E+00  2.99164E-02
    9063.543     69.879   4.480  1.03992E+00  1.01770E+00  2.22207E-02
    9064.915     71.250   4.520  1.03639E+00  1.01880E+00  1.75897E-02
    9066.298     72.634   4.560  1.03608E+00  1.01984E+00  1.62367E-02
    9067.694     74.030   4.600  1.03841E+00  1.02086E+00  1.75511E-02
    9069.103     75.438   4.640  1.04205E+00  1.02183E+00  2.02207E-02
    9070.523     76.859   4.680  1.04542E+00  1.02273E+00  2.26929E-02
    9071.955     78.291   4.720  1.04741E+00  1.02358E+00  2.38287E-02
    9073.400     79.736   4.760  1.04766E+00  1.02435E+00  2.33082E-02
    9074.857     81.193   4.800  1.04657E+00  1.02507E+00  2.14997E-02
    9076.326     82.662   4.840  1.04468E+00  1.02572E+00  1.89652E-02
    9077.808     84.143   4.880  1.04233E+00  1.02629E+00  1.60470E-02
    9079.301     85.637   4.920  1.03953E+00  1.02680E+00  1.27331E-02
    9080.807     87.142   4.960  1.03601E+00  1.02723E+00  8.78509E-03
    9082.325     88.660   5.000  1.03149E+00  1.02758E+00  3.91272E-03
    9083.855     90.190   5.040  1.02578E+00  1.02785E+00 -2.07122E-03
    9085.397     91.733   5.080  1.01887E+00  1.02804E+00 -9.16787E-03
    9086.952     93.287   5.120  1.01100E+00  1.02817E+00 -1.71663E-02
    9088.518     94.854   5.160  1.00257E+00  1.02819E+00 -2.56188E-02
    9090.097     96.433   5.200  9.94305E-01  1.02816E+00 -3.38599E-02
    9091.688     98.024   5.240  9.86832E-01  1.02806E+00 -4.12245E-02
    9093.291     99.627   5.280  9.80639E-01  1.02789E+00 -4.72535E-02
    9094.907    101.242   5.320  9.75814E-01  1.02763E+00 -5.18151E-02
    9096.534    102.870   5.360  9.72247E-01  1.02731E+00 -5.50651E-02
    9098.174    104.510   5.400  9.69644E-01  1.02694E+00 -5.72981E-02
    9099.826    106.162   5.440  9.67824E-01  1.02650E+00 -5.86758E-02
    9101.490    107.826   5.480  9.66988E-01  1.02598E+00 -5.89969E-02
    9103.167    109.503   5.520  9.67682E-01  1.02544E+00 -5.77620E-02
    9104.855    111.191   5.560  9.70356E-01  1.02483E+00 -5.44788E-02
    9106.556    112.892   5.600  9.75015E-01  1.02416E+00 -4.91409E-02
    9108.269    114.605   5.640  9.81170E-01  1.02346E+00 -4.22886E-02
    9109.994    116.330   5.680  9.88132E-01  1.02272E+00 -3.45914E-02
    9111.732    118.067   5.720  9.95502E-01  1.02195E+00 -2.64489E-02
    9113.481    119.817   5.760  1.00312E+00  1.02114E+00 -1.80241E-02
    9115.243    121.579   5.800  1.01074E+00  1.02032E+00 -9.58907E-03
    9117.017    123.353   5.840  1.01772E+00  1.01948E+00 -1.76174E-03
    9118.803    125.139   5.880  1.02330E+00  1.01860E+00  4.69617E-03
    9120.601    126.937   5.920  1.02706E+00  1.01773E+00  9.32624E-03
    9122.412    128.747   5.960  1.02899E+00  1.01688E+00  1.21088E-02
    9124.235    130.570   6.000  1.02930E+00  1.01602E+00  1.32733E-02
