# # comment:                                                     FEFF 9.9.1  
# # Source:
# # Structure
# # Reduced
# # space
# # abc:
# # angles:
# # sites:
# # POT  SCF 100  7.0000   0, screened core-hole, AFOLP (folp(0)= 1.150)
# # Abs   Z=29 Rmt= 1.169 Rnm= 1.267 K  shell
# # Pot 1 Z=21 Rmt= 1.437 Rnm= 1.532
# # Pot 2 Z=29 Rmt= 1.191 Rnm= 1.277
# # Pot 3 Z= 8 Rmt= 1.033 Rnm= 1.109
# # Gam_ch=1.729E+00 H-L exch Vi= 0.000E+00 Vr= 0.000E+00
# # Mu=-9.070E+00eV kf=2.179E+00 Vint=-1.729E+01eV Rs_int= 1.664
# FMS rfms= 9.0000
# # PATH  Rmax=-1.000,  Keep_limit= 0.00, Heap_limit 0.00  Pwcrit= 2.50%
#  S02=0.950  Temp=   0.00  Debye_temp=   0.00  Global_sig2= 0.00000
#  Energy zero shift, vr, vi    0.00000E+00   0.00000E+00
#  Curved wave amplitude ratio filter   4.000%
#     file         sig2 tot  cw amp ratio   deg  nlegs   reff  inp sig2
#     0/   0 paths used
#  xsedge+ 50, used to normalize mu           2.4517E-04
#  -----------------------------------------------------------------------
#  omega    e    k    mu    mu0     chi     @#
    8984.549    -12.880  -1.000  3.16670E-02  5.39012E-02 -2.22342E-02
    8984.848    -12.582  -0.960  3.30957E-02  5.77846E-02 -2.46889E-02
    8985.135    -12.295  -0.920  3.46246E-02  6.20958E-02 -2.74712E-02
    8985.409    -12.021  -0.880  3.62662E-02  6.68971E-02 -3.06309E-02
    8985.671    -11.759  -0.840  3.80353E-02  7.22613E-02 -3.42260E-02
    8985.921    -11.509  -0.800  3.99495E-02  7.82725E-02 -3.83230E-02
    8986.159    -11.271  -0.760  4.20292E-02  8.50272E-02 -4.29979E-02
    8986.384    -11.045  -0.720  4.42981E-02  9.26342E-02 -4.83361E-02
    8986.598    -10.832  -0.680  4.67826E-02  1.01214E-01 -5.44310E-02
    8986.799    -10.631  -0.640  4.95108E-02  1.10892E-01 -6.13807E-02
    8986.988    -10.442  -0.600  5.25102E-02  1.21792E-01 -6.92819E-02
    8987.165    -10.265  -0.560  5.58029E-02  1.34021E-01 -7.82178E-02
    8987.329    -10.100  -0.520  5.93985E-02  1.47640E-01 -8.82414E-02
    8987.482     -9.948  -0.480  6.32836E-02  1.62635E-01 -9.93511E-02
    8987.622     -9.808  -0.440  6.74108E-02  1.78874E-01 -1.11463E-01
    8987.750     -9.680  -0.400  7.16899E-02  1.96076E-01 -1.24386E-01
    8987.866     -9.564  -0.360  7.59887E-02  2.13800E-01 -1.37811E-01
    8987.969     -9.460  -0.320  8.01481E-02  2.31472E-01 -1.51323E-01
    8988.061     -9.369  -0.280  8.40085E-02  2.48454E-01 -1.64445E-01
    8988.140     -9.290  -0.240  8.74385E-02  2.64132E-01 -1.76694E-01
    8988.207     -9.223  -0.200  9.03538E-02  2.77993E-01 -1.87639E-01
    8988.262     -9.168  -0.160  9.27181E-02  2.89656E-01 -1.96938E-01
    8988.305     -9.125  -0.120  9.45303E-02  2.98880E-01 -2.04350E-01
    8988.335     -9.095  -0.080  9.58073E-02  3.05527E-01 -2.09720E-01
    8988.359     -9.070   0.000  9.68237E-02  3.10869E-01 -2.14045E-01
    8988.414     -9.015   0.120  9.91202E-02  3.22913E-01 -2.23793E-01
    8988.457     -8.973   0.160  1.00797E-01  3.32287E-01 -2.31489E-01
    8988.512     -8.918   0.200  1.02855E-01  3.44263E-01 -2.41408E-01
    8988.579     -8.851   0.240  1.05213E-01  3.58688E-01 -2.53474E-01
    8988.658     -8.772   0.280  1.07795E-01  3.75264E-01 -2.67470E-01
    8988.750     -8.680   0.320  1.10565E-01  3.93608E-01 -2.83042E-01
    8988.853     -8.576   0.360  1.13560E-01  4.13191E-01 -2.99631E-01
    8988.969     -8.461   0.400  1.16922E-01  4.33473E-01 -3.16551E-01
    8989.097     -8.333   0.440  1.20872E-01  4.53942E-01 -3.33069E-01
    8989.237     -8.192   0.480  1.25725E-01  4.74214E-01 -3.48489E-01
    8989.390     -8.040   0.520  1.31743E-01  4.94026E-01 -3.62282E-01
    8989.554     -7.875   0.560  1.39008E-01  5.13265E-01 -3.74256E-01
    8989.731     -7.699   0.600  1.47212E-01  5.31899E-01 -3.84687E-01
    8989.920     -7.510   0.640  1.55575E-01  5.49960E-01 -3.94385E-01
    8990.121     -7.309   0.680  1.63175E-01  5.67557E-01 -4.04383E-01
    8990.335     -7.095   0.720  1.69467E-01  5.84729E-01 -4.15262E-01
    8990.560     -6.870   0.760  1.75123E-01  6.01552E-01 -4.26429E-01
    8990.798     -6.632   0.800  1.81861E-01  6.18137E-01 -4.36276E-01
    8991.048     -6.382   0.840  1.91682E-01  6.34518E-01 -4.42835E-01
    8991.310     -6.120   0.880  2.05911E-01  6.50717E-01 -4.44806E-01
    8991.584     -5.846   0.920  2.24237E-01  6.66783E-01 -4.42546E-01
    8991.871     -5.559   0.960  2.44698E-01  6.82714E-01 -4.38016E-01
    8992.169     -5.260   1.000  2.65481E-01  6.98537E-01 -4.33056E-01
    8992.480     -4.949   1.040  2.86554E-01  7.14209E-01 -4.27655E-01
    8992.803     -4.626   1.080  3.09220E-01  7.29763E-01 -4.20542E-01
    8993.139     -4.291   1.120  3.31898E-01  7.45121E-01 -4.13223E-01
    8993.486     -3.944   1.160  3.46633E-01  7.60305E-01 -4.13672E-01
    8993.846     -3.584   1.200  3.47379E-01  7.75271E-01 -4.27892E-01
    8994.218     -3.212   1.240  3.41941E-01  7.89992E-01 -4.48051E-01
    8994.602     -2.828   1.280  3.42864E-01  8.04420E-01 -4.61556E-01
    8994.998     -2.432   1.320  3.54228E-01  8.18524E-01 -4.64295E-01
    8995.406     -2.023   1.360  3.74926E-01  8.32293E-01 -4.57367E-01
    8995.827     -1.603   1.400  4.05487E-01  8.45697E-01 -4.40210E-01
    8996.260     -1.170   1.440  4.48139E-01  8.58663E-01 -4.10524E-01
    8996.705     -0.725   1.480  5.06642E-01  8.71224E-01 -3.64581E-01
    8997.162     -0.268   1.520  5.84364E-01  8.83305E-01 -2.98941E-01
    8997.631      0.202   1.560  6.80254E-01  8.94899E-01 -2.14644E-01
    8998.113      0.683   1.600  7.92030E-01  9.05978E-01 -1.13948E-01
    8998.607      1.177   1.640  9.23078E-01  9.16557E-01  6.52080E-03
    8999.113      1.683   1.680  1.07200E+00  9.26590E-01  1.45415E-01
    8999.631      2.201   1.720  1.21936E+00  9.36094E-01  2.83266E-01
    9000.161      2.732   1.760  1.34033E+00  9.45026E-01  3.95303E-01
    9000.704      3.274   1.800  1.40312E+00  9.53426E-01  4.49691E-01
    9001.259      3.829   1.840  1.38904E+00  9.61256E-01  4.27788E-01
    9001.825      4.396   1.880  1.32629E+00  9.68536E-01  3.57750E-01
    9002.405      4.975   1.920  1.25138E+00  9.75271E-01  2.76109E-01
    9002.996      5.566   1.960  1.18141E+00  9.81487E-01  1.99923E-01
    9003.599      6.170   2.000  1.12925E+00  9.87169E-01  1.42085E-01
    9004.215      6.785   2.040  1.11386E+00  9.92324E-01  1.21540E-01
    9004.843      7.413   2.080  1.13602E+00  9.97001E-01  1.39015E-01
    9005.483      8.053   2.120  1.18210E+00  1.00119E+00  1.80911E-01
    9006.135      8.706   2.160  1.23407E+00  1.00491E+00  2.29156E-01
    9006.800      9.370   2.200  1.28187E+00  1.00819E+00  2.73676E-01
    9007.476     10.047   2.240  1.33411E+00  1.01105E+00  3.23062E-01
    9008.165     10.736   2.280  1.38461E+00  1.01350E+00  3.71113E-01
    9008.866     11.437   2.320  1.40699E+00  1.01559E+00  3.91404E-01
    9009.580     12.150   2.360  1.38296E+00  1.01730E+00  3.65659E-01
    9010.305     12.875   2.400  1.32292E+00  1.01869E+00  3.04226E-01
    9011.043     13.613   2.440  1.26051E+00  1.01976E+00  2.40756E-01
    9011.792     14.363   2.480  1.22862E+00  1.02052E+00  2.08103E-01
    9012.554     15.125   2.520  1.22925E+00  1.02104E+00  2.08211E-01
    9013.329     15.899   2.560  1.22559E+00  1.02128E+00  2.04302E-01
    9014.115     16.685   2.600  1.18084E+00  1.02132E+00  1.59523E-01
    9014.914     17.484   2.640  1.11991E+00  1.02114E+00  9.87663E-02
    9015.724     18.295   2.680  1.06597E+00  1.02077E+00  4.52062E-02
    9016.547     19.118   2.720  1.02499E+00  1.02025E+00  4.74581E-03
    9017.382     19.953   2.760  9.96395E-01  1.01957E+00 -2.31746E-02
    9018.230     20.800   2.800  9.77120E-01  1.01874E+00 -4.16225E-02
    9019.089     21.660   2.840  9.63077E-01  1.01782E+00 -5.47386E-02
    9019.961     22.531   2.880  9.49894E-01  1.01680E+00 -6.69022E-02
    9020.845     23.415   2.920  9.34846E-01  1.01567E+00 -8.08263E-02
    9021.741     24.311   2.960  9.17795E-01  1.01449E+00 -9.66981E-02
    9022.649     25.220   3.000  9.00112E-01  1.01327E+00 -1.13153E-01
    9023.570     26.140   3.040  8.83802E-01  1.01199E+00 -1.28192E-01
    9024.503     27.073   3.080  8.71203E-01  1.01069E+00 -1.39483E-01
    9025.447     28.018   3.120  8.63400E-01  1.00935E+00 -1.45946E-01
    9026.404     28.975   3.160  8.60172E-01  1.00802E+00 -1.47849E-01
    9027.374     29.944   3.200  8.60922E-01  1.00667E+00 -1.45751E-01
    9028.355     30.925   3.240  8.65134E-01  1.00535E+00 -1.40218E-01
    9029.349     31.919   3.280  8.71963E-01  1.00404E+00 -1.32076E-01
    9030.355     32.925   3.320  8.80430E-01  1.00276E+00 -1.22329E-01
    9031.373     33.943   3.360  8.89625E-01  1.00152E+00 -1.11892E-01
    9032.403     34.973   3.400  8.98935E-01  1.00031E+00 -1.01380E-01
    9033.445     36.016   3.440  9.08464E-01  9.99176E-01 -9.07125E-02
    9034.500     37.070   3.480  9.18533E-01  9.98061E-01 -7.95272E-02
    9035.567     38.137   3.520  9.29192E-01  9.97012E-01 -6.78199E-02
    9036.646     39.216   3.560  9.39554E-01  9.96014E-01 -5.64605E-02
    9037.737     40.307   3.600  9.48081E-01  9.95088E-01 -4.70063E-02
    9038.840     41.410   3.640  9.53220E-01  9.94234E-01 -4.10137E-02
    9039.956     42.526   3.680  9.54282E-01  9.93433E-01 -3.91511E-02
    9041.084     43.654   3.720  9.51856E-01  9.92708E-01 -4.08526E-02
    9042.224     44.794   3.760  9.47396E-01  9.92060E-01 -4.46644E-02
    9043.376     45.946   3.800  9.42544E-01  9.91490E-01 -4.89458E-02
    9044.540     47.110   3.840  9.38623E-01  9.90976E-01 -5.23527E-02
    9045.717     48.287   3.880  9.36576E-01  9.90560E-01 -5.39843E-02
    9046.905     49.475   3.920  9.36843E-01  9.90204E-01 -5.33608E-02
    9048.106     50.676   3.960  9.39651E-01  9.89945E-01 -5.02940E-02
    9049.319     51.889   4.000  9.44934E-01  9.89743E-01 -4.48089E-02
    9050.545     53.115   4.040  9.52682E-01  9.89616E-01 -3.69337E-02
    9051.782     54.352   4.080  9.62812E-01  9.89544E-01 -2.67327E-02
    9053.032     55.602   4.120  9.75247E-01  9.89570E-01 -1.43236E-02
    9054.294     56.864   4.160  9.89673E-01  9.89650E-01  2.39224E-05
    9055.568     58.138   4.200  1.00563E+00  9.89803E-01  1.58307E-02
    9056.854     59.424   4.240  1.02254E+00  9.90010E-01  3.25279E-02
    9058.152     60.723   4.280  1.04009E+00  9.90308E-01  4.97867E-02
    9059.463     62.033   4.320  1.05812E+00  9.90634E-01  6.74838E-02
    9060.786     63.356   4.360  1.07630E+00  9.91030E-01  8.52695E-02
    9062.121     64.691   4.400  1.09381E+00  9.91471E-01  1.02339E-01
    9063.468     66.038   4.440  1.10927E+00  9.91977E-01  1.17294E-01
    9064.827     67.398   4.480  1.12084E+00  9.92506E-01  1.28331E-01
    9066.199     68.769   4.520  1.12680E+00  9.93098E-01  1.33704E-01
    9067.583     70.153   4.560  1.12601E+00  9.93727E-01  1.32278E-01
    9068.979     71.549   4.600  1.11830E+00  9.94371E-01  1.23928E-01
    9070.387     72.957   4.640  1.10483E+00  9.95051E-01  1.09778E-01
    9071.807     74.378   4.680  1.08769E+00  9.95766E-01  9.19187E-02
    9073.240     75.810   4.720  1.06901E+00  9.96515E-01  7.24977E-02
    9074.685     77.255   4.760  1.05039E+00  9.97269E-01  5.31160E-02
    9076.142     78.712   4.800  1.03278E+00  9.98027E-01  3.47557E-02
    9077.611     80.181   4.840  1.01680E+00  9.98790E-01  1.80137E-02
    9079.092     81.662   4.880  1.00296E+00  9.99578E-01  3.38085E-03
    9080.585     83.156   4.920  9.91665E-01  1.00037E+00 -8.70082E-03
    9082.091     84.661   4.960  9.83200E-01  1.00113E+00 -1.79297E-02
    9083.609     86.179   5.000  9.77649E-01  1.00191E+00 -2.42611E-02
    9085.139     87.709   5.040  9.74700E-01  1.00266E+00 -2.79650E-02
    9086.681     89.252   5.080  9.73910E-01  1.00341E+00 -2.95011E-02
    9088.236     90.806   5.120  9.74705E-01  1.00412E+00 -2.94195E-02
    9089.803     92.373   5.160  9.76501E-01  1.00483E+00 -2.83257E-02
    9091.381     93.952   5.200  9.78700E-01  1.00549E+00 -2.67927E-02
    9092.972     95.543   5.240  9.80845E-01  1.00612E+00 -2.52772E-02
    9094.576     97.146   5.280  9.82667E-01  1.00671E+00 -2.40464E-02
    9096.191     98.761   5.320  9.84065E-01  1.00729E+00 -2.32219E-02
    9097.819    100.389   5.360  9.85063E-01  1.00780E+00 -2.27355E-02
    9099.459    102.029   5.400  9.85902E-01  1.00829E+00 -2.23876E-02
    9101.111    103.681   5.440  9.86700E-01  1.00871E+00 -2.20140E-02
    9102.775    105.345   5.480  9.87522E-01  1.00909E+00 -2.15728E-02
    9104.451    107.021   5.520  9.88516E-01  1.00943E+00 -2.09158E-02
    9106.140    108.710   5.560  9.90019E-01  1.00972E+00 -1.97028E-02
    9107.841    110.411   5.600  9.92393E-01  1.00994E+00 -1.75492E-02
    9109.554    112.124   5.640  9.95929E-01  1.01012E+00 -1.41885E-02
    9111.279    113.849   5.680  1.00072E+00  1.01024E+00 -9.52351E-03
    9113.016    115.586   5.720  1.00647E+00  1.01030E+00 -3.83115E-03
    9114.766    117.336   5.760  1.01220E+00  1.01031E+00  1.89290E-03
    9116.527    119.098   5.800  1.01604E+00  1.01025E+00  5.78873E-03
    9118.301    120.872   5.840  1.01576E+00  1.01014E+00  5.61992E-03
    9120.087    122.658   5.880  1.00970E+00  1.00999E+00 -2.88535E-04
    9121.886    124.456   5.920  9.97784E-01  1.00976E+00 -1.19788E-02
    9123.696    126.266   5.960  9.82142E-01  1.00949E+00 -2.73452E-02
    9125.519    128.089   6.000  9.66225E-01  1.00910E+00 -4.28701E-02
