# # comment:                                                     FEFF 9.9.1  
# # Source:
# # Structure
# # Reduced
# # space
# # abc:
# # angles:
# # sites:
# # POT  SCF 100  7.0000   0, screened core-hole, AFOLP (folp(0)= 1.150)
# # Abs   Z=29 Rmt= 1.262 Rnm= 1.319 K  shell
# # Pot 1 Z= 3 Rmt= 1.264 Rnm= 1.328
# # Pot 2 Z=29 Rmt= 1.262 Rnm= 1.319
# # Pot 3 Z=15 Rmt= 0.934 Rnm= 1.151
# # Pot 4 Z= 8 Rmt= 0.907 Rnm= 1.043
# # Gam_ch=1.729E+00 H-L exch Vi= 0.000E+00 Vr= 0.000E+00
# # Mu=-6.795E+00eV kf=2.455E+00 Vint=-1.744E+01eV Rs_int= 1.477
# FMS rfms= 9.0000
# # PATH  Rmax=-1.000,  Keep_limit= 0.00, Heap_limit 0.00  Pwcrit= 2.50%
#  S02=0.950  Temp=   0.00  Debye_temp=   0.00  Global_sig2= 0.00000
#  Energy zero shift, vr, vi    0.00000E+00   0.00000E+00
#  Curved wave amplitude ratio filter   4.000%
#     file         sig2 tot  cw amp ratio   deg  nlegs   reff  inp sig2
#     0/   0 paths used
#  xsedge+ 50, used to normalize mu           2.4895E-04
#  -----------------------------------------------------------------------
#  omega    e    k    mu    mu0     chi     @#
    8983.540    -10.605  -1.000  3.21761E-02  4.90072E-02 -1.68311E-02
    8983.839    -10.307  -0.960  3.35616E-02  5.25054E-02 -1.89438E-02
    8984.125    -10.020  -0.920  3.50230E-02  5.63916E-02 -2.13687E-02
    8984.399     -9.746  -0.880  3.65664E-02  6.07231E-02 -2.41568E-02
    8984.662     -9.484  -0.840  3.81987E-02  6.55668E-02 -2.73681E-02
    8984.912     -9.234  -0.800  3.99279E-02  7.10001E-02 -3.10721E-02
    8985.149     -8.996  -0.760  4.17628E-02  7.71120E-02 -3.53492E-02
    8985.375     -8.771  -0.720  4.37131E-02  8.40032E-02 -4.02901E-02
    8985.588     -8.557  -0.680  4.57892E-02  9.17847E-02 -4.59955E-02
    8985.789     -8.356  -0.640  4.80014E-02  1.00574E-01 -5.25722E-02
    8985.978     -8.167  -0.600  5.03593E-02  1.10485E-01 -6.01258E-02
    8986.155     -7.990  -0.560  5.28693E-02  1.21618E-01 -6.87484E-02
    8986.320     -7.826  -0.520  5.55323E-02  1.34030E-01 -7.84978E-02
    8986.472     -7.673  -0.480  5.83393E-02  1.47710E-01 -8.93703E-02
    8986.612     -7.533  -0.440  6.12676E-02  1.62536E-01 -1.01268E-01
    8986.740     -7.405  -0.400  6.42765E-02  1.78250E-01 -1.13974E-01
    8986.856     -7.289  -0.360  6.73061E-02  1.94445E-01 -1.27139E-01
    8986.960     -7.186  -0.320  7.02805E-02  2.10592E-01 -1.40311E-01
    8987.051     -7.094  -0.280  7.31155E-02  2.26103E-01 -1.52987E-01
    8987.130     -7.015  -0.240  7.57283E-02  2.40415E-01 -1.64687E-01
    8987.198     -6.948  -0.200  7.80461E-02  2.53058E-01 -1.75012E-01
    8987.252     -6.893  -0.160  8.00114E-02  2.63689E-01 -1.83677E-01
    8987.295     -6.850  -0.120  8.15826E-02  2.72088E-01 -1.90505E-01
    8987.326     -6.820  -0.080  8.27309E-02  2.78136E-01 -1.95405E-01
    8987.350     -6.795   0.000  8.36794E-02  2.82993E-01 -1.99314E-01
    8987.405     -6.741   0.120  8.57706E-02  2.93933E-01 -2.08162E-01
    8987.447     -6.698   0.160  8.74111E-02  3.02447E-01 -2.15035E-01
    8987.502     -6.643   0.200  8.94887E-02  3.13287E-01 -2.23799E-01
    8987.569     -6.576   0.240  9.20196E-02  3.26320E-01 -2.34301E-01
    8987.649     -6.497   0.280  9.49912E-02  3.41274E-01 -2.46283E-01
    8987.740     -6.405   0.320  9.83788E-02  3.57733E-01 -2.59355E-01
    8987.844     -6.302   0.360  1.02178E-01  3.75230E-01 -2.73053E-01
    8987.960     -6.186   0.400  1.06345E-01  3.93227E-01 -2.86881E-01
    8988.088     -6.058   0.440  1.10884E-01  4.11250E-01 -3.00366E-01
    8988.228     -5.918   0.480  1.15778E-01  4.28937E-01 -3.13159E-01
    8988.380     -5.765   0.520  1.21017E-01  4.46037E-01 -3.25020E-01
    8988.545     -5.601   0.560  1.26653E-01  4.62447E-01 -3.35794E-01
    8988.722     -5.424   0.600  1.32752E-01  4.78180E-01 -3.45428E-01
    8988.911     -5.235   0.640  1.39329E-01  4.93231E-01 -3.53902E-01
    8989.112     -5.034   0.680  1.46632E-01  5.07752E-01 -3.61120E-01
    8989.325     -4.820   0.720  1.54838E-01  5.21786E-01 -3.66947E-01
    8989.551     -4.595   0.760  1.64341E-01  5.35433E-01 -3.71093E-01
    8989.788     -4.357   0.800  1.75524E-01  5.48792E-01 -3.73268E-01
    8990.038     -4.107   0.840  1.88569E-01  5.61943E-01 -3.73374E-01
    8990.300     -3.845   0.880  2.03299E-01  5.74918E-01 -3.71619E-01
    8990.575     -3.571   0.920  2.19400E-01  5.87797E-01 -3.68398E-01
    8990.861     -3.284   0.960  2.37150E-01  6.00608E-01 -3.63458E-01
    8991.160     -2.985   1.000  2.57876E-01  6.13368E-01 -3.55493E-01
    8991.471     -2.675   1.040  2.83486E-01  6.26109E-01 -3.42623E-01
    8991.794     -2.351   1.080  3.15357E-01  6.38813E-01 -3.23457E-01
    8992.129     -2.016   1.120  3.53715E-01  6.51519E-01 -2.97804E-01
    8992.477     -1.669   1.160  3.97716E-01  6.64197E-01 -2.66481E-01
    8992.836     -1.309   1.200  4.46726E-01  6.76877E-01 -2.30151E-01
    8993.208     -0.937   1.240  4.99815E-01  6.89501E-01 -1.89686E-01
    8993.592     -0.553   1.280  5.54526E-01  7.02091E-01 -1.47565E-01
    8993.988     -0.157   1.320  6.10312E-01  7.14627E-01 -1.04315E-01
    8994.397      0.251   1.360  6.71540E-01  7.27086E-01 -5.55459E-02
    8994.818      0.672   1.400  7.37716E-01  7.39444E-01 -1.72830E-03
    8995.250      1.105   1.440  7.92434E-01  7.51695E-01  4.07395E-02
    8995.695      1.550   1.480  8.18337E-01  7.63810E-01  5.45266E-02
    8996.153      2.007   1.520  8.24582E-01  7.75764E-01  4.88177E-02
    8996.622      2.477   1.560  8.35145E-01  7.87549E-01  4.75960E-02
    8997.103      2.958   1.600  8.64729E-01  7.99135E-01  6.55938E-02
    8997.597      3.452   1.640  9.23299E-01  8.10496E-01  1.12803E-01
    8998.103      3.958   1.680  1.02603E+00  8.21621E-01  2.04405E-01
    8998.621      4.476   1.720  1.17572E+00  8.32485E-01  3.43238E-01
    8999.152      5.006   1.760  1.32645E+00  8.43079E-01  4.83367E-01
    8999.694      5.549   1.800  1.41188E+00  8.53375E-01  5.58510E-01
    9000.249      6.104   1.840  1.42274E+00  8.63367E-01  5.59375E-01
    9000.816      6.671   1.880  1.38986E+00  8.73049E-01  5.16808E-01
    9001.395      7.250   1.920  1.34908E+00  8.82375E-01  4.66708E-01
    9001.986      7.841   1.960  1.31881E+00  8.91358E-01  4.27450E-01
    9002.590      8.444   2.000  1.29149E+00  8.99997E-01  3.91493E-01
    9003.206      9.060   2.040  1.25089E+00  9.08266E-01  3.42622E-01
    9003.833      9.688   2.080  1.19668E+00  9.16162E-01  2.80519E-01
    9004.474     10.328   2.120  1.14279E+00  9.23664E-01  2.19129E-01
    9005.126     10.980   2.160  1.10173E+00  9.30810E-01  1.70916E-01
    9005.790     11.645   2.200  1.07904E+00  9.37561E-01  1.41475E-01
    9006.467     12.322   2.240  1.07335E+00  9.43934E-01  1.29418E-01
    9007.156     13.010   2.280  1.07786E+00  9.49913E-01  1.27943E-01
    9007.857     13.711   2.320  1.08578E+00  9.55539E-01  1.30237E-01
    9008.570     14.425   2.360  1.09124E+00  9.60772E-01  1.30467E-01
    9009.295     15.150   2.400  1.09080E+00  9.65638E-01  1.25164E-01
    9010.033     15.888   2.440  1.08785E+00  9.70138E-01  1.17712E-01
    9010.783     16.637   2.480  1.08822E+00  9.74296E-01  1.13921E-01
    9011.545     17.399   2.520  1.09262E+00  9.78099E-01  1.14521E-01
    9012.319     18.174   2.560  1.09823E+00  9.81569E-01  1.16659E-01
    9013.105     18.960   2.600  1.09906E+00  9.84692E-01  1.14366E-01
    9013.904     19.759   2.640  1.08833E+00  9.87514E-01  1.00814E-01
    9014.715     20.569   2.680  1.06298E+00  9.90042E-01  7.29398E-02
    9015.538     21.392   2.720  1.02204E+00  9.92262E-01  2.97747E-02
    9016.373     22.227   2.760  9.67768E-01  9.94220E-01 -2.64518E-02
    9017.220     23.075   2.800  9.08354E-01  9.95902E-01 -8.75482E-02
    9018.080     23.934   2.840  8.56069E-01  9.97334E-01 -1.41265E-01
    9018.951     24.806   2.880  8.21369E-01  9.98505E-01 -1.77137E-01
    9019.835     25.690   2.920  8.00001E-01  9.99482E-01 -1.99481E-01
    9020.731     26.586   2.960  7.86618E-01  1.00023E+00 -2.13612E-01
    9021.640     27.494   3.000  7.78598E-01  1.00080E+00 -2.22200E-01
    9022.560     28.415   3.040  7.74462E-01  1.00115E+00 -2.26689E-01
    9023.493     29.348   3.080  7.73309E-01  1.00136E+00 -2.28050E-01
    9024.438     30.292   3.120  7.74758E-01  1.00141E+00 -2.26648E-01
    9025.395     31.250   3.160  7.78724E-01  1.00132E+00 -2.22596E-01
    9026.364     32.219   3.200  7.85018E-01  1.00109E+00 -2.16067E-01
    9027.346     33.200   3.240  7.93767E-01  1.00073E+00 -2.06963E-01
    9028.339     34.194   3.280  8.05472E-01  1.00028E+00 -1.94808E-01
    9029.345     35.200   3.320  8.19944E-01  9.99719E-01 -1.79775E-01
    9030.363     36.218   3.360  8.37352E-01  9.99075E-01 -1.61723E-01
    9031.393     37.248   3.400  8.57684E-01  9.98375E-01 -1.40692E-01
    9032.436     38.290   3.440  8.80346E-01  9.97603E-01 -1.17257E-01
    9033.490     39.345   3.480  9.04492E-01  9.96785E-01 -9.22922E-02
    9034.557     40.412   3.520  9.29269E-01  9.95924E-01 -6.66549E-02
    9035.636     41.491   3.560  9.53854E-01  9.95025E-01 -4.11716E-02
    9036.727     42.582   3.600  9.77527E-01  9.94114E-01 -1.65869E-02
    9037.831     43.685   3.640  1.00005E+00  9.93173E-01  6.88115E-03
    9038.946     44.801   3.680  1.02129E+00  9.92226E-01  2.90608E-02
    9040.074     45.929   3.720  1.04089E+00  9.91278E-01  4.96156E-02
    9041.214     47.069   3.760  1.05858E+00  9.90352E-01  6.82283E-02
    9042.366     48.221   3.800  1.07408E+00  9.89411E-01  8.46703E-02
    9043.530     49.385   3.840  1.08718E+00  9.88497E-01  9.86853E-02
    9044.707     50.562   3.880  1.09787E+00  9.87615E-01  1.10258E-01
    9045.896     51.750   3.920  1.10621E+00  9.86747E-01  1.19460E-01
    9047.097     52.951   3.960  1.11210E+00  9.85934E-01  1.26166E-01
    9048.310     54.164   4.000  1.11509E+00  9.85137E-01  1.29950E-01
    9049.535     55.390   4.040  1.11476E+00  9.84380E-01  1.30382E-01
    9050.772     56.627   4.080  1.11069E+00  9.83685E-01  1.27003E-01
    9052.022     57.877   4.120  1.10269E+00  9.83011E-01  1.19675E-01
    9053.284     59.139   4.160  1.09133E+00  9.82401E-01  1.08929E-01
    9054.558     60.413   4.200  1.07773E+00  9.81834E-01  9.58908E-02
    9055.844     61.699   4.240  1.06320E+00  9.81313E-01  8.18823E-02
    9057.143     62.997   4.280  1.04899E+00  9.80859E-01  6.81353E-02
    9058.453     64.308   4.320  1.03608E+00  9.80452E-01  5.56318E-02
    9059.776     65.631   4.360  1.02506E+00  9.80114E-01  4.49486E-02
    9061.111     66.966   4.400  1.01622E+00  9.79821E-01  3.63984E-02
    9062.458     68.313   4.440  1.00960E+00  9.79574E-01  3.00223E-02
    9063.818     69.672   4.480  1.00496E+00  9.79394E-01  2.55622E-02
    9065.189     71.044   4.520  1.00178E+00  9.79260E-01  2.25222E-02
    9066.573     72.428   4.560  9.99479E-01  9.79171E-01  2.03081E-02
    9067.969     73.824   4.600  9.97463E-01  9.79146E-01  1.83170E-02
    9069.377     75.232   4.640  9.95180E-01  9.79146E-01  1.60346E-02
    9070.798     76.652   4.680  9.92332E-01  9.79231E-01  1.31006E-02
    9072.230     78.085   4.720  9.88604E-01  9.79338E-01  9.26627E-03
    9073.675     79.530   4.760  9.83832E-01  9.79486E-01  4.34602E-03
    9075.132     80.987   4.800  9.77949E-01  9.79695E-01 -1.74530E-03
    9076.601     82.456   4.840  9.70934E-01  9.79920E-01 -8.98535E-03
    9078.082     83.937   4.880  9.63069E-01  9.80182E-01 -1.71132E-02
    9079.576     85.431   4.920  9.54831E-01  9.80482E-01 -2.56516E-02
    9081.082     86.936   4.960  9.46707E-01  9.80819E-01 -3.41118E-02
    9082.600     88.454   5.000  9.39028E-01  9.81190E-01 -4.21622E-02
    9084.130     89.984   5.040  9.31851E-01  9.81572E-01 -4.97212E-02
    9085.672     91.527   5.080  9.25181E-01  9.81983E-01 -5.68020E-02
    9087.226     93.081   5.120  9.19146E-01  9.82402E-01 -6.32556E-02
    9088.793     94.648   5.160  9.14186E-01  9.82848E-01 -6.86616E-02
    9090.372     96.227   5.200  9.10904E-01  9.83275E-01 -7.23708E-02
    9091.963     97.818   5.240  9.09959E-01  9.83725E-01 -7.37661E-02
    9093.566     99.421   5.280  9.11676E-01  9.84178E-01 -7.25021E-02
    9095.182    101.036   5.320  9.15882E-01  9.84631E-01 -6.87493E-02
    9096.809    102.664   5.360  9.21853E-01  9.85082E-01 -6.32292E-02
    9098.449    104.304   5.400  9.28558E-01  9.85528E-01 -5.69705E-02
    9100.101    105.956   5.440  9.35072E-01  9.85947E-01 -5.08754E-02
    9101.765    107.620   5.480  9.40977E-01  9.86359E-01 -4.53812E-02
    9103.442    109.296   5.520  9.46345E-01  9.86763E-01 -4.04176E-02
    9105.130    110.985   5.560  9.51570E-01  9.87137E-01 -3.55672E-02
    9106.831    112.686   5.600  9.57173E-01  9.87500E-01 -3.03275E-02
    9108.544    114.399   5.640  9.63432E-01  9.87828E-01 -2.43961E-02
    9110.269    116.124   5.680  9.70340E-01  9.88119E-01 -1.77792E-02
    9112.007    117.861   5.720  9.77668E-01  9.88373E-01 -1.07049E-02
    9113.756    119.611   5.760  9.85164E-01  9.88612E-01 -3.44791E-03
    9115.518    121.372   5.800  9.92553E-01  9.88790E-01  3.76305E-03
    9117.292    123.146   5.840  9.99704E-01  9.88950E-01  1.07536E-02
    9119.078    124.932   5.880  1.00640E+00  9.89048E-01  1.73513E-02
    9120.876    126.731   5.920  1.01250E+00  9.89130E-01  2.33672E-02
    9122.687    128.541   5.960  1.01772E+00  9.89167E-01  2.85496E-02
    9124.509    130.364   6.000  1.02179E+00  9.89113E-01  3.26750E-02
