# # comment:                                                     FEFF 9.9.1  
# # Source:
# # Structure
# # Reduced
# # space
# # abc:
# # angles:
# # sites:
# # POT  SCF 100  7.0000   0, screened core-hole, AFOLP (folp(0)= 1.150)
# # Abs   Z=29 Rmt= 1.201 Rnm= 1.296 K  shell
# # Pot 1 Z=38 Rmt= 1.751 Rnm= 1.811
# # Pot 2 Z=29 Rmt= 1.190 Rnm= 1.288
# # Pot 3 Z= 8 Rmt= 1.072 Rnm= 1.121
# # Gam_ch=1.729E+00 H-L exch Vi= 0.000E+00 Vr= 0.000E+00
# # Mu=-9.132E+00eV kf=2.008E+00 Vint=-1.757E+01eV Rs_int= 1.806
# FMS rfms= 9.0000
# # PATH  Rmax=-1.000,  Keep_limit= 0.00, Heap_limit 0.00  Pwcrit= 2.50%
#  S02=0.950  Temp=   0.00  Debye_temp=   0.00  Global_sig2= 0.00000
#  Energy zero shift, vr, vi    0.00000E+00   0.00000E+00
#  Curved wave amplitude ratio filter   4.000%
#     file         sig2 tot  cw amp ratio   deg  nlegs   reff  inp sig2
#     0/   0 paths used
#  xsedge+ 50, used to normalize mu           2.4514E-04
#  -----------------------------------------------------------------------
#  omega    e    k    mu    mu0     chi     @#
    8984.846    -12.942  -1.000  4.15876E-02  5.65459E-02 -1.49583E-02
    8985.145    -12.643  -0.960  4.41803E-02  6.06974E-02 -1.65171E-02
    8985.431    -12.357  -0.920  4.70504E-02  6.53123E-02 -1.82619E-02
    8985.706    -12.082  -0.880  5.02419E-02  7.04588E-02 -2.02170E-02
    8985.968    -11.820  -0.840  5.38065E-02  7.62163E-02 -2.24098E-02
    8986.218    -11.570  -0.800  5.78053E-02  8.26767E-02 -2.48713E-02
    8986.455    -11.333  -0.760  6.23090E-02  8.99454E-02 -2.76364E-02
    8986.681    -11.107  -0.720  6.73984E-02  9.81415E-02 -3.07432E-02
    8986.894    -10.894  -0.680  7.31635E-02  1.07396E-01 -3.42329E-02
    8987.096    -10.693  -0.640  7.97005E-02  1.17848E-01 -3.81477E-02
    8987.284    -10.504  -0.600  8.71054E-02  1.29633E-01 -4.25276E-02
    8987.461    -10.327  -0.560  9.54623E-02  1.42867E-01 -4.74043E-02
    8987.626    -10.162  -0.520  1.04826E-01  1.57618E-01 -5.27924E-02
    8987.778    -10.010  -0.480  1.15195E-01  1.73872E-01 -5.86768E-02
    8987.918     -9.870  -0.440  1.26486E-01  1.91485E-01 -6.49989E-02
    8988.046     -9.742  -0.400  1.38508E-01  2.10152E-01 -7.16440E-02
    8988.162     -9.626  -0.360  1.50952E-01  2.29391E-01 -7.84385E-02
    8988.266     -9.522  -0.320  1.63415E-01  2.48576E-01 -8.51610E-02
    8988.357     -9.431  -0.280  1.75445E-01  2.67013E-01 -9.15687E-02
    8988.437     -9.351  -0.240  1.86601E-01  2.84034E-01 -9.74328E-02
    8988.504     -9.284  -0.200  1.96510E-01  2.99077E-01 -1.02567E-01
    8988.559     -9.230  -0.160  2.04891E-01  3.11734E-01 -1.06843E-01
    8988.601     -9.187  -0.120  2.11555E-01  3.21740E-01 -1.10185E-01
    8988.632     -9.156  -0.080  2.16384E-01  3.28949E-01 -1.12565E-01
    8988.656     -9.132   0.000  2.20293E-01  3.34742E-01 -1.14449E-01
    8988.711     -9.077   0.120  2.28927E-01  3.47802E-01 -1.18874E-01
    8988.754     -9.034   0.160  2.35714E-01  3.57950E-01 -1.22236E-01
    8988.808     -8.980   0.200  2.44461E-01  3.70926E-01 -1.26465E-01
    8988.876     -8.913   0.240  2.55060E-01  3.86514E-01 -1.31454E-01
    8988.955     -8.833   0.280  2.67387E-01  4.04450E-01 -1.37063E-01
    8989.046     -8.742   0.320  2.81110E-01  4.24241E-01 -1.43131E-01
    8989.150     -8.638   0.360  2.95743E-01  4.45349E-01 -1.49607E-01
    8989.266     -8.522   0.400  3.10399E-01  4.67136E-01 -1.56737E-01
    8989.394     -8.394   0.440  3.23789E-01  4.89057E-01 -1.65268E-01
    8989.534     -8.254   0.480  3.34076E-01  5.10688E-01 -1.76612E-01
    8989.686     -8.102   0.520  3.39104E-01  5.31740E-01 -1.92637E-01
    8989.851     -7.937   0.560  3.37216E-01  5.52067E-01 -2.14851E-01
    8990.028     -7.760   0.600  3.28304E-01  5.71654E-01 -2.43350E-01
    8990.217     -7.571   0.640  3.14085E-01  5.90517E-01 -2.76431E-01
    8990.418     -7.370   0.680  2.97407E-01  6.08752E-01 -3.11345E-01
    8990.631     -7.157   0.720  2.80957E-01  6.26446E-01 -3.45489E-01
    8990.857     -6.931   0.760  2.66680E-01  6.43688E-01 -3.77007E-01
    8991.094     -6.694   0.800  2.55731E-01  6.60532E-01 -4.04801E-01
    8991.344     -6.444   0.840  2.48753E-01  6.77064E-01 -4.28312E-01
    8991.607     -6.182   0.880  2.46127E-01  6.93311E-01 -4.47184E-01
    8991.881     -5.907   0.920  2.48268E-01  7.09307E-01 -4.61039E-01
    8992.167     -5.621   0.960  2.55665E-01  7.25075E-01 -4.69410E-01
    8992.466     -5.322   1.000  2.68737E-01  7.40604E-01 -4.71868E-01
    8992.777     -5.011   1.040  2.87513E-01  7.55897E-01 -4.68385E-01
    8993.100     -4.688   1.080  3.11353E-01  7.70948E-01 -4.59595E-01
    8993.435     -4.353   1.120  3.39520E-01  7.85745E-01 -4.46225E-01
    8993.783     -4.005   1.160  3.71988E-01  8.00250E-01 -4.28262E-01
    8994.142     -3.646   1.200  4.09297E-01  8.14462E-01 -4.05165E-01
    8994.514     -3.274   1.240  4.53348E-01  8.28317E-01 -3.74969E-01
    8994.898     -2.890   1.280  5.09044E-01  8.41811E-01 -3.32767E-01
    8995.295     -2.494   1.320  5.78341E-01  8.54894E-01 -2.76553E-01
    8995.703     -2.085   1.360  6.49313E-01  8.67561E-01 -2.18247E-01
    8996.124     -1.664   1.400  7.06195E-01  8.79803E-01 -1.73608E-01
    8996.556     -1.232   1.440  7.57173E-01  8.91552E-01 -1.34379E-01
    8997.001     -0.787   1.480  8.21080E-01  9.02824E-01 -8.17437E-02
    8997.459     -0.329   1.520  8.89798E-01  9.13570E-01 -2.37722E-02
    8997.928      0.140   1.560  9.32746E-01  9.23806E-01  8.93981E-03
    8998.410      0.622   1.600  9.38078E-01  9.33488E-01  4.58933E-03
    8998.903      1.115   1.640  9.36846E-01  9.42635E-01 -5.78887E-03
    8999.409      1.621   1.680  9.71643E-01  9.51226E-01  2.04177E-02
    8999.928      2.139   1.720  1.06734E+00  9.59259E-01  1.08080E-01
    9000.458      2.670   1.760  1.22466E+00  9.66740E-01  2.57917E-01
    9001.000      3.212   1.800  1.39563E+00  9.73691E-01  4.21942E-01
    9001.555      3.767   1.840  1.47795E+00  9.80075E-01  4.97877E-01
    9002.122      4.334   1.880  1.45126E+00  9.85939E-01  4.65322E-01
    9002.701      4.913   1.920  1.40264E+00  9.91290E-01  4.11345E-01
    9003.293      5.504   1.960  1.36732E+00  9.96138E-01  3.71187E-01
    9003.896      6.108   2.000  1.34162E+00  1.00049E+00  3.41130E-01
    9004.512      6.724   2.040  1.31615E+00  1.00435E+00  3.11802E-01
    9005.140      7.351   2.080  1.28104E+00  1.00778E+00  2.73261E-01
    9005.780      7.992   2.120  1.23318E+00  1.01078E+00  2.22395E-01
    9006.432      8.644   2.160  1.18308E+00  1.01337E+00  1.69705E-01
    9007.096      9.308   2.200  1.14559E+00  1.01556E+00  1.30037E-01
    9007.773      9.985   2.240  1.13008E+00  1.01739E+00  1.12685E-01
    9008.462     10.674   2.280  1.13756E+00  1.01889E+00  1.18665E-01
    9009.163     11.375   2.320  1.15717E+00  1.02004E+00  1.37132E-01
    9009.876     12.088   2.360  1.17363E+00  1.02091E+00  1.52711E-01
    9010.602     12.813   2.400  1.18131E+00  1.02151E+00  1.59808E-01
    9011.339     13.551   2.440  1.17493E+00  1.02184E+00  1.53090E-01
    9012.089     14.301   2.480  1.15806E+00  1.02194E+00  1.36117E-01
    9012.851     15.063   2.520  1.14155E+00  1.02185E+00  1.19699E-01
    9013.625     15.837   2.560  1.12791E+00  1.02154E+00  1.06369E-01
    9014.412     16.623   2.600  1.11416E+00  1.02107E+00  9.30865E-02
    9015.210     17.422   2.640  1.09528E+00  1.02045E+00  7.48305E-02
    9016.021     18.233   2.680  1.06792E+00  1.01970E+00  4.82188E-02
    9016.844     19.056   2.720  1.03262E+00  1.01883E+00  1.37917E-02
    9017.679     19.891   2.760  9.93352E-01  1.01784E+00 -2.44866E-02
    9018.526     20.738   2.800  9.54211E-01  1.01679E+00 -6.25774E-02
    9019.386     21.598   2.840  9.18607E-01  1.01566E+00 -9.70541E-02
    9020.258     22.470   2.880  8.88814E-01  1.01448E+00 -1.25670E-01
    9021.142     23.353   2.920  8.66367E-01  1.01326E+00 -1.46896E-01
    9022.038     24.250   2.960  8.51935E-01  1.01200E+00 -1.60068E-01
    9022.946     25.158   3.000  8.45443E-01  1.01071E+00 -1.65270E-01
    9023.866     26.078   3.040  8.46288E-01  1.00944E+00 -1.63149E-01
    9024.799     27.011   3.080  8.53543E-01  1.00816E+00 -1.54618E-01
    9025.744     27.956   3.120  8.65764E-01  1.00687E+00 -1.41107E-01
    9026.701     28.913   3.160  8.80882E-01  1.00563E+00 -1.24745E-01
    9027.670     29.882   3.200  8.96512E-01  1.00440E+00 -1.07885E-01
    9028.652     30.864   3.240  9.10336E-01  1.00320E+00 -9.28650E-02
    9029.645     31.857   3.280  9.20584E-01  1.00205E+00 -8.14612E-02
    9030.651     32.863   3.320  9.26716E-01  1.00093E+00 -7.42167E-02
    9031.669     33.881   3.360  9.29531E-01  9.99885E-01 -7.03547E-02
    9032.700     34.911   3.400  9.30606E-01  9.98884E-01 -6.82778E-02
    9033.742     35.954   3.440  9.31312E-01  9.97930E-01 -6.66182E-02
    9034.797     37.008   3.480  9.32648E-01  9.97047E-01 -6.43984E-02
    9035.863     38.075   3.520  9.35277E-01  9.96214E-01 -6.09373E-02
    9036.942     39.154   3.560  9.39130E-01  9.95456E-01 -5.63262E-02
    9038.033     40.245   3.600  9.43523E-01  9.94773E-01 -5.12493E-02
    9039.137     41.349   3.640  9.47718E-01  9.94165E-01 -4.64468E-02
    9040.252     42.464   3.680  9.51325E-01  9.93612E-01 -4.22875E-02
    9041.380     43.592   3.720  9.54474E-01  9.93155E-01 -3.86810E-02
    9042.520     44.732   3.760  9.57573E-01  9.92732E-01 -3.51588E-02
    9043.672     45.884   3.800  9.61089E-01  9.92406E-01 -3.13175E-02
    9044.837     47.048   3.840  9.65242E-01  9.92156E-01 -2.69139E-02
    9046.013     48.225   3.880  9.70156E-01  9.91959E-01 -2.18030E-02
    9047.202     49.414   3.920  9.76128E-01  9.91835E-01 -1.57066E-02
    9048.403     50.615   3.960  9.83653E-01  9.91762E-01 -8.10974E-03
    9049.616     51.828   4.000  9.93217E-01  9.91763E-01  1.45420E-03
    9050.841     53.053   4.040  1.00457E+00  9.91837E-01  1.27339E-02
    9052.079     54.290   4.080  1.01659E+00  9.91961E-01  2.46330E-02
    9053.328     55.540   4.120  1.02794E+00  9.92153E-01  3.57920E-02
    9054.590     56.802   4.160  1.03790E+00  9.92393E-01  4.55119E-02
    9055.864     58.076   4.200  1.04670E+00  9.92678E-01  5.40237E-02
    9057.150     59.362   4.240  1.05524E+00  9.93027E-01  6.22135E-02
    9058.449     60.661   4.280  1.06427E+00  9.93398E-01  7.08734E-02
    9059.760     61.971   4.320  1.07408E+00  9.93830E-01  8.02538E-02
    9061.082     63.294   4.360  1.08418E+00  9.94303E-01  8.98799E-02
    9062.417     64.629   4.400  1.09353E+00  9.94789E-01  9.87405E-02
    9063.765     65.976   4.440  1.10086E+00  9.95310E-01  1.05554E-01
    9065.124     67.336   4.480  1.10487E+00  9.95868E-01  1.09002E-01
    9066.496     68.707   4.520  1.10451E+00  9.96457E-01  1.08055E-01
    9067.879     70.091   4.560  1.09946E+00  9.97054E-01  1.02402E-01
    9069.275     71.487   4.600  1.09028E+00  9.97657E-01  9.26261E-02
    9070.684     72.895   4.640  1.07827E+00  9.98287E-01  7.99842E-02
    9072.104     74.316   4.680  1.06477E+00  9.98920E-01  6.58454E-02
    9073.536     75.748   4.720  1.05059E+00  9.99555E-01  5.10310E-02
    9074.981     77.193   4.760  1.03583E+00  1.00019E+00  3.56455E-02
    9076.438     78.650   4.800  1.02036E+00  1.00082E+00  1.95402E-02
    9077.907     80.119   4.840  1.00431E+00  1.00142E+00  2.88721E-03
    9079.389     81.600   4.880  9.88381E-01  1.00204E+00 -1.36581E-02
    9080.882     83.094   4.920  9.73548E-01  1.00263E+00 -2.90804E-02
    9082.388     84.600   4.960  9.61142E-01  1.00319E+00 -4.20454E-02
    9083.906     86.118   5.000  9.52847E-01  1.00376E+00 -5.09108E-02
    9085.436     87.648   5.040  9.50073E-01  1.00427E+00 -5.41988E-02
    9086.978     89.190   5.080  9.53620E-01  1.00477E+00 -5.11527E-02
    9088.533     90.744   5.120  9.62983E-01  1.00524E+00 -4.22525E-02
    9090.099     92.311   5.160  9.76303E-01  1.00566E+00 -2.93550E-02
    9091.678     93.890   5.200  9.90744E-01  1.00604E+00 -1.52989E-02
    9093.269     95.481   5.240  1.00338E+00  1.00639E+00 -3.00995E-03
    9094.872     97.084   5.280  1.01193E+00  1.00672E+00  5.21881E-03
    9096.488     98.700   5.320  1.01492E+00  1.00698E+00  7.93862E-03
    9098.115    100.327   5.360  1.01180E+00  1.00722E+00  4.58089E-03
    9099.755    101.967   5.400  1.00299E+00  1.00740E+00 -4.41807E-03
    9101.407    103.619   5.440  9.89980E-01  1.00754E+00 -1.75573E-02
    9103.071    105.283   5.480  9.75218E-01  1.00763E+00 -3.24122E-02
    9104.748    106.960   5.520  9.61578E-01  1.00768E+00 -4.61007E-02
    9106.436    108.648   5.560  9.51554E-01  1.00768E+00 -5.61296E-02
    9108.137    110.349   5.600  9.46412E-01  1.00762E+00 -6.12102E-02
    9109.850    112.062   5.640  9.45910E-01  1.00754E+00 -6.16291E-02
    9111.575    113.787   5.680  9.48576E-01  1.00739E+00 -5.88153E-02
    9113.313    115.525   5.720  9.52585E-01  1.00720E+00 -5.46146E-02
    9115.062    117.274   5.760  9.56265E-01  1.00697E+00 -5.07010E-02
    9116.824    119.036   5.800  9.58375E-01  1.00669E+00 -4.83178E-02
    9118.598    120.810   5.840  9.58484E-01  1.00638E+00 -4.78968E-02
    9120.384    122.596   5.880  9.57486E-01  1.00603E+00 -4.85453E-02
    9122.182    124.394   5.920  9.57662E-01  1.00565E+00 -4.79836E-02
    9123.993    126.205   5.960  9.61767E-01  1.00522E+00 -4.34559E-02
    9125.816    128.027   6.000  9.71886E-01  1.00474E+00 -3.28497E-02
