# # comment:                                                     FEFF 9.9.1  
# # Source:
# # Structure
# # Reduced
# # space
# # abc:
# # angles:113.698502
# # sites:
# # POT  SCF 100  7.0000   0, screened core-hole, AFOLP (folp(0)= 1.150)
# # Abs   Z=29 Rmt= 1.296 Rnm= 1.387 K  shell
# # Pot 1 Z=64 Rmt= 1.664 Rnm= 1.747
# # Pot 2 Z=29 Rmt= 1.296 Rnm= 1.387
# # Pot 3 Z=74 Rmt= 1.257 Rnm= 1.423
# # Pot 4 Z= 8 Rmt= 0.952 Rnm= 1.075
# # Gam_ch=1.729E+00 H-L exch Vi= 0.000E+00 Vr= 0.000E+00
# # Mu=-5.809E+00eV kf=2.254E+00 Vint=-1.631E+01eV Rs_int= 1.609
# FMS rfms= 9.0000
# # PATH  Rmax=-1.000,  Keep_limit= 0.00, Heap_limit 0.00  Pwcrit= 2.50%
#  S02=0.950  Temp=   0.00  Debye_temp=   0.00  Global_sig2= 0.00000
#  Energy zero shift, vr, vi    0.00000E+00   0.00000E+00
#  Curved wave amplitude ratio filter   4.000%
#     file         sig2 tot  cw amp ratio   deg  nlegs   reff  inp sig2
#     0/   0 paths used
#  xsedge+ 50, used to normalize mu           2.4709E-04
#  -----------------------------------------------------------------------
#  omega    e    k    mu    mu0     chi     @#
    8983.521     -9.619  -1.000  5.24615E-02  5.65303E-02 -4.06880E-03
    8983.820     -9.320  -0.960  5.61269E-02  6.07347E-02 -4.60778E-03
    8984.106     -9.034  -0.920  6.01881E-02  6.54162E-02 -5.22805E-03
    8984.380     -8.760  -0.880  6.47028E-02  7.06459E-02 -5.94303E-03
    8984.643     -8.497  -0.840  6.97382E-02  7.65067E-02 -6.76852E-03
    8984.893     -8.248  -0.800  7.53721E-02  8.30950E-02 -7.72291E-03
    8985.130     -8.010  -0.760  8.16938E-02  9.05214E-02 -8.82752E-03
    8985.356     -7.784  -0.720  8.88042E-02  9.89108E-02 -1.01066E-02
    8985.569     -7.571  -0.680  9.68142E-02  1.08401E-01 -1.15871E-02
    8985.770     -7.370  -0.640  1.05841E-01  1.19139E-01 -1.32978E-02
    8985.959     -7.181  -0.600  1.15999E-01  1.31267E-01 -1.52674E-02
    8986.136     -7.004  -0.560  1.27387E-01  1.44908E-01 -1.75207E-02
    8986.301     -6.839  -0.520  1.40062E-01  1.60136E-01 -2.00739E-02
    8986.453     -6.687  -0.480  1.54011E-01  1.76937E-01 -2.29258E-02
    8986.593     -6.547  -0.440  1.69112E-01  1.95162E-01 -2.60503E-02
    8986.721     -6.419  -0.400  1.85104E-01  2.14492E-01 -2.93879E-02
    8986.837     -6.303  -0.360  2.01577E-01  2.34422E-01 -3.28446E-02
    8986.941     -6.199  -0.320  2.18001E-01  2.54299E-01 -3.62982E-02
    8987.032     -6.108  -0.280  2.33781E-01  2.73396E-01 -3.96147E-02
    8987.111     -6.029  -0.240  2.48349E-01  2.91017E-01 -4.26677E-02
    8987.178     -5.962  -0.200  2.61225E-01  3.06580E-01 -4.53549E-02
    8987.233     -5.907  -0.160  2.72058E-01  3.19663E-01 -4.76051E-02
    8987.276     -5.864  -0.120  2.80622E-01  3.29998E-01 -4.93759E-02
    8987.307     -5.834  -0.080  2.86792E-01  3.37438E-01 -5.06466E-02
    8987.331     -5.809   0.000  2.91748E-01  3.43412E-01 -5.16640E-02
    8987.386     -5.754   0.120  3.02830E-01  3.56865E-01 -5.40354E-02
    8987.428     -5.712   0.160  3.11467E-01  3.67330E-01 -5.58625E-02
    8987.483     -5.657   0.200  3.22477E-01  3.80656E-01 -5.81789E-02
    8987.550     -5.590   0.240  3.35715E-01  3.96646E-01 -6.09312E-02
    8987.630     -5.510   0.280  3.50942E-01  4.14979E-01 -6.40367E-02
    8987.721     -5.419   0.320  3.67790E-01  4.35139E-01 -6.73490E-02
    8987.825     -5.315   0.360  3.85848E-01  4.56517E-01 -7.06697E-02
    8987.940     -5.200   0.400  4.04764E-01  4.78443E-01 -7.36791E-02
    8988.069     -5.072   0.440  4.24359E-01  5.00325E-01 -7.59655E-02
    8988.209     -4.931   0.480  4.44648E-01  5.21708E-01 -7.70596E-02
    8988.361     -4.779   0.520  4.65585E-01  5.42281E-01 -7.66959E-02
    8988.526     -4.614   0.560  4.86702E-01  5.61890E-01 -7.51881E-02
    8988.702     -4.438   0.600  5.06862E-01  5.80544E-01 -7.36815E-02
    8988.891     -4.249   0.640  5.24448E-01  5.98247E-01 -7.37981E-02
    8989.093     -4.047   0.680  5.38370E-01  6.15149E-01 -7.67784E-02
    8989.306     -3.834   0.720  5.48646E-01  6.31314E-01 -8.26683E-02
    8989.532     -3.608   0.760  5.56385E-01  6.46887E-01 -9.05013E-02
    8989.769     -3.371   0.800  5.62824E-01  6.61960E-01 -9.91364E-02
    8990.019     -3.121   0.840  5.68852E-01  6.76595E-01 -1.07743E-01
    8990.281     -2.859   0.880  5.75434E-01  6.90874E-01 -1.15440E-01
    8990.556     -2.584   0.920  5.84266E-01  7.04848E-01 -1.20582E-01
    8990.842     -2.298   0.960  5.97851E-01  7.18553E-01 -1.20703E-01
    8991.141     -1.999   1.000  6.17691E-01  7.32016E-01 -1.14325E-01
    8991.452     -1.688   1.040  6.41796E-01  7.45249E-01 -1.03453E-01
    8991.775     -1.365   1.080  6.65611E-01  7.58280E-01 -9.26682E-02
    8992.110     -1.030   1.120  6.86729E-01  7.71108E-01 -8.43789E-02
    8992.458     -0.682   1.160  7.07755E-01  7.83708E-01 -7.59527E-02
    8992.817     -0.323   1.200  7.33270E-01  7.96088E-01 -6.28176E-02
    8993.189      0.049   1.240  7.62901E-01  8.08213E-01 -4.53117E-02
    8993.573      0.433   1.280  7.88304E-01  8.20106E-01 -3.18019E-02
    8993.969      0.829   1.320  8.01135E-01  8.31727E-01 -3.05921E-02
    8994.378      1.238   1.360  8.01523E-01  8.43055E-01 -4.15324E-02
    8994.798      1.658   1.400  7.98438E-01  8.54088E-01 -5.56505E-02
    8995.231      2.091   1.440  8.01496E-01  8.64801E-01 -6.33048E-02
    8995.676      2.536   1.480  8.12681E-01  8.75170E-01 -6.24893E-02
    8996.133      2.993   1.520  8.30461E-01  8.85192E-01 -5.47315E-02
    8996.603      3.463   1.560  8.55227E-01  8.94844E-01 -3.96170E-02
    8997.084      3.944   1.600  8.87043E-01  9.04143E-01 -1.70998E-02
    8997.578      4.438   1.640  9.24989E-01  9.13022E-01  1.19665E-02
    8998.084      4.944   1.680  9.70544E-01  9.21522E-01  4.90221E-02
    8998.602      5.462   1.720  1.02346E+00  9.29600E-01  9.38620E-02
    8999.133      5.993   1.760  1.08002E+00  9.37274E-01  1.42749E-01
    8999.675      6.535   1.800  1.13977E+00  9.44524E-01  1.95250E-01
    9000.230      7.090   1.840  1.20521E+00  9.51373E-01  2.53836E-01
    9000.797      7.657   1.880  1.27358E+00  9.57801E-01  3.15782E-01
    9001.376      8.236   1.920  1.33562E+00  9.63809E-01  3.71813E-01
    9001.967      8.827   1.960  1.38218E+00  9.69399E-01  4.12780E-01
    9002.571      9.431   2.000  1.40508E+00  9.74597E-01  4.30484E-01
    9003.187     10.047   2.040  1.39842E+00  9.79408E-01  4.19013E-01
    9003.814     10.674   2.080  1.36739E+00  9.83814E-01  3.83579E-01
    9004.454     11.314   2.120  1.32033E+00  9.87841E-01  3.32486E-01
    9005.107     11.967   2.160  1.25489E+00  9.91496E-01  2.63397E-01
    9005.771     12.631   2.200  1.17529E+00  9.94786E-01  1.80505E-01
    9006.448     13.308   2.240  1.09681E+00  9.97757E-01  9.90543E-02
    9007.137     13.997   2.280  1.03076E+00  1.00038E+00  3.03818E-02
    9007.838     14.698   2.320  9.81855E-01  1.00269E+00 -2.08392E-02
    9008.551     15.411   2.360  9.51916E-01  1.00472E+00 -5.27992E-02
    9009.276     16.136   2.400  9.40396E-01  1.00645E+00 -6.60531E-02
    9010.014     16.874   2.440  9.40731E-01  1.00790E+00 -6.71727E-02
    9010.764     17.624   2.480  9.42382E-01  1.00911E+00 -6.67238E-02
    9011.526     18.386   2.520  9.38036E-01  1.01008E+00 -7.20489E-02
    9012.300     19.160   2.560  9.26896E-01  1.01083E+00 -8.39311E-02
    9013.086     19.946   2.600  9.12507E-01  1.01136E+00 -9.88559E-02
    9013.885     20.745   2.640  8.98741E-01  1.01170E+00 -1.12959E-01
    9014.696     21.556   2.680  8.94972E-01  1.01188E+00 -1.16913E-01
    9015.519     22.379   2.720  8.97291E-01  1.01188E+00 -1.14593E-01
    9016.354     23.214   2.760  9.03294E-01  1.01175E+00 -1.08453E-01
    9017.201     24.061   2.800  9.11265E-01  1.01146E+00 -1.00197E-01
    9018.061     24.921   2.840  9.20395E-01  1.01107E+00 -9.06776E-02
    9018.932     25.792   2.880  9.30049E-01  1.01057E+00 -8.05178E-02
    9019.816     26.676   2.920  9.40106E-01  1.00997E+00 -6.98675E-02
    9020.712     27.572   2.960  9.50602E-01  1.00930E+00 -5.86937E-02
    9021.621     28.481   3.000  9.61289E-01  1.00854E+00 -4.72523E-02
    9022.541     29.401   3.040  9.71612E-01  1.00774E+00 -3.61242E-02
    9023.474     30.334   3.080  9.80718E-01  1.00688E+00 -2.61664E-02
    9024.419     31.279   3.120  9.87648E-01  1.00599E+00 -1.83432E-02
    9025.376     32.236   3.160  9.91608E-01  1.00506E+00 -1.34529E-02
    9026.345     33.205   3.200  9.92320E-01  1.00412E+00 -1.17987E-02
    9027.327     34.187   3.240  9.90106E-01  1.00315E+00 -1.30403E-02
    9028.320     35.180   3.280  9.85842E-01  1.00217E+00 -1.63297E-02
    9029.326     36.186   3.320  9.80614E-01  1.00122E+00 -2.06011E-02
    9030.344     37.204   3.360  9.75395E-01  1.00024E+00 -2.48456E-02
    9031.374     38.234   3.400  9.70982E-01  9.99293E-01 -2.83113E-02
    9032.417     39.277   3.440  9.67700E-01  9.98376E-01 -3.06756E-02
    9033.471     40.331   3.480  9.65552E-01  9.97469E-01 -3.19174E-02
    9034.538     41.398   3.520  9.64443E-01  9.96596E-01 -3.21530E-02
    9035.617     42.477   3.560  9.64209E-01  9.95758E-01 -3.15491E-02
    9036.708     43.568   3.600  9.64673E-01  9.94936E-01 -3.02624E-02
    9037.812     44.672   3.640  9.65745E-01  9.94174E-01 -2.84295E-02
    9038.927     45.787   3.680  9.67363E-01  9.93455E-01 -2.60916E-02
    9040.055     46.915   3.720  9.69667E-01  9.92777E-01 -2.31105E-02
    9041.195     48.055   3.760  9.72974E-01  9.92143E-01 -1.91689E-02
    9042.347     49.207   3.800  9.77659E-01  9.91574E-01 -1.39154E-02
    9043.511     50.371   3.840  9.83927E-01  9.91050E-01 -7.12276E-03
    9044.688     51.548   3.880  9.91791E-01  9.90570E-01  1.22099E-03
    9045.877     52.737   3.920  1.00104E+00  9.90134E-01  1.09088E-02
    9047.078     53.938   3.960  1.01120E+00  9.89766E-01  2.14363E-02
    9048.291     55.151   4.000  1.02156E+00  9.89444E-01  3.21141E-02
    9049.516     56.376   4.040  1.03144E+00  9.89187E-01  4.22491E-02
    9050.753     57.613   4.080  1.04019E+00  9.88955E-01  5.12305E-02
    9052.003     58.863   4.120  1.04735E+00  9.88790E-01  5.85635E-02
    9053.265     60.125   4.160  1.05256E+00  9.88689E-01  6.38747E-02
    9054.539     61.399   4.200  1.05547E+00  9.88612E-01  6.68608E-02
    9055.825     62.685   4.240  1.05603E+00  9.88599E-01  6.74257E-02
    9057.124     63.984   4.280  1.05440E+00  9.88629E-01  6.57759E-02
    9058.434     65.294   4.320  1.05108E+00  9.88700E-01  6.23781E-02
    9059.757     66.617   4.360  1.04659E+00  9.88810E-01  5.77834E-02
    9061.092     67.952   4.400  1.04136E+00  9.88958E-01  5.23997E-02
    9062.439     69.299   4.440  1.03560E+00  9.89145E-01  4.64538E-02
    9063.799     70.659   4.480  1.02926E+00  9.89348E-01  3.99086E-02
    9065.170     72.030   4.520  1.02231E+00  9.89609E-01  3.26985E-02
    9066.554     73.414   4.560  1.01487E+00  9.89907E-01  2.49608E-02
    9067.950     74.810   4.600  1.00729E+00  9.90215E-01  1.70754E-02
    9069.358     76.218   4.640  1.00008E+00  9.90532E-01  9.54403E-03
    9070.779     77.639   4.680  9.93683E-01  9.90902E-01  2.78093E-03
    9072.211     79.071   4.720  9.88168E-01  9.91259E-01 -3.09173E-03
    9073.656     80.516   4.760  9.83417E-01  9.91644E-01 -8.22734E-03
    9075.113     81.973   4.800  9.79164E-01  9.92056E-01 -1.28921E-02
    9076.582     83.442   4.840  9.75185E-01  9.92449E-01 -1.72639E-02
    9078.063     84.923   4.880  9.71562E-01  9.92866E-01 -2.13043E-02
    9079.557     86.417   4.920  9.68487E-01  9.93285E-01 -2.47977E-02
    9081.063     87.923   4.960  9.66209E-01  9.93701E-01 -2.74913E-02
    9082.580     89.440   5.000  9.64854E-01  9.94093E-01 -2.92388E-02
    9084.111     90.971   5.040  9.64342E-01  9.94503E-01 -3.01615E-02
    9085.653     92.513   5.080  9.64233E-01  9.94887E-01 -3.06539E-02
    9087.207     94.067   5.120  9.64054E-01  9.95265E-01 -3.12112E-02
    9088.774     95.634   5.160  9.63424E-01  9.95636E-01 -3.22123E-02
    9090.353     97.213   5.200  9.62274E-01  9.95977E-01 -3.37024E-02
    9091.944     98.804   5.240  9.60934E-01  9.96308E-01 -3.53738E-02
    9093.547    100.407   5.280  9.59941E-01  9.96607E-01 -3.66651E-02
    9095.163    102.023   5.320  9.59923E-01  9.96893E-01 -3.69701E-02
    9096.790    103.650   5.360  9.61331E-01  9.97146E-01 -3.58147E-02
    9098.430    105.290   5.400  9.64387E-01  9.97364E-01 -3.29765E-02
    9100.082    106.942   5.440  9.69054E-01  9.97566E-01 -2.85122E-02
    9101.746    108.606   5.480  9.74977E-01  9.97709E-01 -2.27316E-02
    9103.423    110.283   5.520  9.81691E-01  9.97838E-01 -1.61475E-02
    9105.111    111.971   5.560  9.88525E-01  9.97954E-01 -9.42899E-03
    9106.812    113.672   5.600  9.94716E-01  9.98008E-01 -3.29152E-03
    9108.525    115.385   5.640  9.99686E-01  9.98022E-01  1.66358E-03
    9110.250    117.110   5.680  1.00313E+00  9.98020E-01  5.10616E-03
    9111.987    118.847   5.720  1.00501E+00  9.97957E-01  7.05714E-03
    9113.737    120.597   5.760  1.00572E+00  9.97877E-01  7.84825E-03
    9115.499    122.359   5.800  1.00570E+00  9.97736E-01  7.96711E-03
    9117.273    124.133   5.840  1.00547E+00  9.97581E-01  7.89336E-03
    9119.059    125.919   5.880  1.00538E+00  9.97390E-01  7.98744E-03
    9120.857    127.717   5.920  1.00560E+00  9.97162E-01  8.44142E-03
    9122.668    129.528   5.960  1.00618E+00  9.96896E-01  9.28142E-03
    9124.490    131.350   6.000  1.00701E+00  9.96568E-01  1.04443E-02
