# # comment:                                                     FEFF 9.9.1  
# # Source:
# # Structure
# # Reduced
# # space
# # abc:
# # angles:
# # sites:
# # POT  SCF 100  7.0000   0, screened core-hole, AFOLP (folp(0)= 1.150)
# # Abs   Z=29 Rmt= 1.391 Rnm= 1.454 K  shell
# # Pot 1 Z= 3 Rmt= 1.229 Rnm= 1.302
# # Pot 2 Z=29 Rmt= 1.409 Rnm= 1.481
# # Pot 3 Z=15 Rmt= 0.942 Rnm= 1.157
# # Pot 4 Z= 8 Rmt= 0.883 Rnm= 1.037
# # Gam_ch=1.729E+00 H-L exch Vi= 0.000E+00 Vr= 0.000E+00
# # Mu=-6.468E+00eV kf=2.484E+00 Vint=-1.773E+01eV Rs_int= 1.460
# FMS rfms= 9.0000
# # PATH  Rmax=-1.000,  Keep_limit= 0.00, Heap_limit 0.00  Pwcrit= 2.50%
#  S02=0.950  Temp=   0.00  Debye_temp=   0.00  Global_sig2= 0.00000
#  Energy zero shift, vr, vi    0.00000E+00   0.00000E+00
#  Curved wave amplitude ratio filter   4.000%
#     file         sig2 tot  cw amp ratio   deg  nlegs   reff  inp sig2
#     0/   0 paths used
#  xsedge+ 50, used to normalize mu           2.4342E-04
#  -----------------------------------------------------------------------
#  omega    e    k    mu    mu0     chi     @#
    8983.496    -10.278  -1.000  5.53215E-02  5.55648E-02 -2.43290E-04
    8983.795     -9.980  -0.960  5.89927E-02  5.95804E-02 -5.87698E-04
    8984.082     -9.693  -0.920  6.30180E-02  6.40412E-02 -1.02323E-03
    8984.356     -9.419  -0.880  6.74428E-02  6.90128E-02 -1.56998E-03
    8984.618     -9.157  -0.840  7.23192E-02  7.45714E-02 -2.25218E-03
    8984.868     -8.907  -0.800  7.77068E-02  8.08056E-02 -3.09880E-03
    8985.106     -8.669  -0.760  8.36729E-02  8.78171E-02 -4.14416E-03
    8985.331     -8.443  -0.720  9.02925E-02  9.57207E-02 -5.42822E-03
    8985.545     -8.230  -0.680  9.76466E-02  1.04643E-01 -6.99631E-03
    8985.746     -8.029  -0.640  1.05820E-01  1.14718E-01 -8.89790E-03
    8985.935     -7.840  -0.600  1.14892E-01  1.26076E-01 -1.11835E-02
    8986.112     -7.663  -0.560  1.24931E-01  1.38830E-01 -1.38987E-02
    8986.276     -7.499  -0.520  1.35971E-01  1.53046E-01 -1.70753E-02
    8986.429     -7.346  -0.480  1.47993E-01  1.68710E-01 -2.07176E-02
    8986.569     -7.206  -0.440  1.60896E-01  1.85684E-01 -2.47880E-02
    8986.697     -7.078  -0.400  1.74478E-01  2.03672E-01 -2.91942E-02
    8986.813     -6.962  -0.360  1.88421E-01  2.22209E-01 -3.37871E-02
    8986.916     -6.859  -0.320  2.02315E-01  2.40689E-01 -3.83744E-02
    8987.008     -6.767  -0.280  2.15694E-01  2.58443E-01 -4.27496E-02
    8987.087     -6.688  -0.240  2.28100E-01  2.74827E-01 -4.67272E-02
    8987.154     -6.621  -0.200  2.39132E-01  2.89301E-01 -5.01690E-02
    8987.209     -6.566  -0.160  2.48480E-01  3.01473E-01 -5.29934E-02
    8987.252     -6.523  -0.120  2.55925E-01  3.11093E-01 -5.51674E-02
    8987.282     -6.493  -0.080  2.61330E-01  3.18022E-01 -5.66914E-02
    8987.306     -6.468   0.000  2.65716E-01  3.23589E-01 -5.78730E-02
    8987.361     -6.414   0.120  2.75417E-01  3.36126E-01 -6.07085E-02
    8987.404     -6.371   0.160  2.83052E-01  3.45880E-01 -6.28281E-02
    8987.459     -6.316   0.200  2.92867E-01  3.58306E-01 -6.54397E-02
    8987.526     -6.249   0.240  3.04879E-01  3.73269E-01 -6.83898E-02
    8987.605     -6.170   0.280  3.18943E-01  3.90420E-01 -7.14766E-02
    8987.697     -6.078   0.320  3.34866E-01  4.09311E-01 -7.44442E-02
    8987.800     -5.975   0.360  3.52481E-01  4.29429E-01 -7.69480E-02
    8987.916     -5.859   0.400  3.71501E-01  4.50126E-01 -7.86249E-02
    8988.044     -5.731   0.440  3.91841E-01  4.70907E-01 -7.90656E-02
    8988.184     -5.591   0.480  4.13454E-01  4.91338E-01 -7.78834E-02
    8988.337     -5.438   0.520  4.36359E-01  5.11159E-01 -7.48002E-02
    8988.501     -5.274   0.560  4.60431E-01  5.30253E-01 -6.98221E-02
    8988.678     -5.097   0.600  4.85182E-01  5.48572E-01 -6.33908E-02
    8988.867     -4.908   0.640  5.09907E-01  5.66222E-01 -5.63151E-02
    8989.068     -4.707   0.680  5.33914E-01  5.83266E-01 -4.93519E-02
    8989.281     -4.493   0.720  5.57110E-01  5.99820E-01 -4.27108E-02
    8989.507     -4.268   0.760  5.80126E-01  6.16004E-01 -3.58781E-02
    8989.745     -4.030   0.800  6.04232E-01  6.31924E-01 -2.76914E-02
    8989.995     -3.780   0.840  6.30945E-01  6.47613E-01 -1.66678E-02
    8990.257     -3.518   0.880  6.61630E-01  6.63192E-01 -1.56170E-03
    8990.531     -3.244   0.920  6.96783E-01  6.78686E-01  1.80973E-02
    8990.818     -2.957   0.960  7.36429E-01  6.94148E-01  4.22808E-02
    8991.116     -2.658   1.000  7.80548E-01  7.09599E-01  7.09491E-02
    8991.427     -2.348   1.040  8.27933E-01  7.25030E-01  1.02903E-01
    8991.750     -2.024   1.080  8.74469E-01  7.40484E-01  1.33985E-01
    8992.086     -1.689   1.120  9.14284E-01  7.55934E-01  1.58349E-01
    8992.433     -1.342   1.160  9.43181E-01  7.71370E-01  1.71811E-01
    8992.793     -0.982   1.200  9.59716E-01  7.86774E-01  1.72942E-01
    8993.165     -0.610   1.240  9.67011E-01  8.02123E-01  1.64888E-01
    8993.549     -0.226   1.280  9.75634E-01  8.17394E-01  1.58240E-01
    8993.945      0.170   1.320  9.99781E-01  8.32556E-01  1.67225E-01
    8994.353      0.579   1.360  1.04636E+00  8.47556E-01  1.98805E-01
    8994.774      0.999   1.400  1.11034E+00  8.62382E-01  2.47953E-01
    8995.207      1.432   1.440  1.18100E+00  8.76977E-01  3.04022E-01
    8995.652      1.877   1.480  1.24651E+00  8.91282E-01  3.55230E-01
    8996.109      2.334   1.520  1.29531E+00  9.05303E-01  3.90007E-01
    8996.578      2.804   1.560  1.32461E+00  9.18956E-01  4.05654E-01
    8997.060      3.285   1.600  1.33644E+00  9.32206E-01  4.04236E-01
    8997.554      3.779   1.640  1.32228E+00  9.45034E-01  3.77246E-01
    8998.060      4.285   1.680  1.27454E+00  9.57380E-01  3.17162E-01
    8998.578      4.803   1.720  1.21085E+00  9.69208E-01  2.41639E-01
    8999.108      5.333   1.760  1.15482E+00  9.80480E-01  1.74339E-01
    8999.651      5.876   1.800  1.10749E+00  9.91184E-01  1.16308E-01
    9000.205      6.431   1.840  1.06020E+00  1.00129E+00  5.89145E-02
    9000.772      6.998   1.880  1.01743E+00  1.01076E+00  6.67693E-03
    9001.352      7.577   1.920  9.89192E-01  1.01958E+00 -3.03897E-02
    9001.943      8.168   1.960  9.79601E-01  1.02772E+00 -4.81152E-02
    9002.546      8.772   2.000  9.87210E-01  1.03520E+00 -4.79853E-02
    9003.162      9.387   2.040  1.00768E+00  1.04198E+00 -3.42943E-02
    9003.790     10.015   2.080  1.03315E+00  1.04808E+00 -1.49305E-02
    9004.430     10.655   2.120  1.05382E+00  1.05348E+00  3.37937E-04
    9005.082     11.307   2.160  1.06298E+00  1.05823E+00  4.75222E-03
    9005.747     11.972   2.200  1.06110E+00  1.06229E+00 -1.19293E-03
    9006.423     12.649   2.240  1.05384E+00  1.06569E+00 -1.18476E-02
    9007.112     13.337   2.280  1.04627E+00  1.06846E+00 -2.21851E-02
    9007.813     14.038   2.320  1.03938E+00  1.07060E+00 -3.12196E-02
    9008.526     14.752   2.360  1.02988E+00  1.07216E+00 -4.22764E-02
    9009.252     15.477   2.400  1.01435E+00  1.07317E+00 -5.88203E-02
    9009.990     16.215   2.440  9.93128E-01  1.07361E+00 -8.04862E-02
    9010.739     16.965   2.480  9.70402E-01  1.07358E+00 -1.03178E-01
    9011.501     17.727   2.520  9.51975E-01  1.07306E+00 -1.21083E-01
    9012.276     18.501   2.560  9.41774E-01  1.07209E+00 -1.30315E-01
    9013.062     19.287   2.600  9.38620E-01  1.07073E+00 -1.32110E-01
    9013.860     20.086   2.640  9.38812E-01  1.06900E+00 -1.30187E-01
    9014.671     20.896   2.680  9.42360E-01  1.06693E+00 -1.24573E-01
    9015.494     21.719   2.720  9.51505E-01  1.06457E+00 -1.13067E-01
    9016.329     22.555   2.760  9.65628E-01  1.06193E+00 -9.63044E-02
    9017.177     23.402   2.800  9.83053E-01  1.05907E+00 -7.60199E-02
    9018.036     24.261   2.840  1.00371E+00  1.05601E+00 -5.23030E-02
    9018.908     25.133   2.880  1.02342E+00  1.05280E+00 -2.93808E-02
    9019.792     26.017   2.920  1.03525E+00  1.04944E+00 -1.41965E-02
    9020.688     26.913   2.960  1.04089E+00  1.04597E+00 -5.07365E-03
    9021.596     27.821   3.000  1.04355E+00  1.04243E+00  1.12007E-03
    9022.517     28.742   3.040  1.04494E+00  1.03885E+00  6.08396E-03
    9023.449     29.675   3.080  1.04567E+00  1.03524E+00  1.04267E-02
    9024.394     30.620   3.120  1.04576E+00  1.03164E+00  1.41174E-02
    9025.351     31.577   3.160  1.04481E+00  1.02805E+00  1.67594E-02
    9026.321     32.546   3.200  1.04276E+00  1.02451E+00  1.82541E-02
    9027.302     33.527   3.240  1.04001E+00  1.02102E+00  1.89906E-02
    9028.296     34.521   3.280  1.03720E+00  1.01762E+00  1.95736E-02
    9029.302     35.527   3.320  1.03489E+00  1.01432E+00  2.05692E-02
    9030.320     36.545   3.360  1.03337E+00  1.01114E+00  2.22247E-02
    9031.350     37.575   3.400  1.03247E+00  1.00810E+00  2.43707E-02
    9032.392     38.617   3.440  1.03175E+00  1.00516E+00  2.65922E-02
    9033.447     39.672   3.480  1.03087E+00  1.00239E+00  2.84765E-02
    9034.514     40.739   3.520  1.02955E+00  9.99774E-01  2.97785E-02
    9035.593     41.818   3.560  1.02786E+00  9.97352E-01  3.05034E-02
    9036.684     42.909   3.600  1.02587E+00  9.95071E-01  3.08036E-02
    9037.787     44.012   3.640  1.02371E+00  9.92978E-01  3.07363E-02
    9038.903     45.128   3.680  1.02123E+00  9.91084E-01  3.01473E-02
    9040.030     46.256   3.720  1.01815E+00  9.89364E-01  2.87883E-02
    9041.170     47.396   3.760  1.01440E+00  9.87820E-01  2.65831E-02
    9042.323     48.548   3.800  1.01023E+00  9.86496E-01  2.37385E-02
    9043.487     49.712   3.840  1.00600E+00  9.85349E-01  2.06528E-02
    9044.663     50.889   3.880  1.00215E+00  9.84400E-01  1.77459E-02
    9045.852     52.077   3.920  9.98910E-01  9.83628E-01  1.52818E-02
    9047.053     53.278   3.960  9.96422E-01  9.83053E-01  1.33688E-02
    9048.266     54.491   4.000  9.94706E-01  9.82675E-01  1.20314E-02
    9049.491     55.717   4.040  9.93710E-01  9.82471E-01  1.12394E-02
    9050.729     56.954   4.080  9.93312E-01  9.82459E-01  1.08529E-02
    9051.979     58.204   4.120  9.93219E-01  9.82616E-01  1.06032E-02
    9053.240     59.466   4.160  9.93075E-01  9.82938E-01  1.01374E-02
    9054.515     60.740   4.200  9.92563E-01  9.83422E-01  9.14096E-03
    9055.801     62.026   4.240  9.91437E-01  9.84043E-01  7.39459E-03
    9057.099     63.324   4.280  9.89632E-01  9.84841E-01  4.79112E-03
    9058.410     64.635   4.320  9.87055E-01  9.85748E-01  1.30636E-03
    9059.733     65.958   4.360  9.83788E-01  9.86802E-01 -3.01382E-03
    9061.068     67.293   4.400  9.80001E-01  9.87978E-01 -7.97628E-03
    9062.415     68.640   4.440  9.76058E-01  9.89249E-01 -1.31912E-02
    9063.774     70.000   4.480  9.72500E-01  9.90631E-01 -1.81311E-02
    9065.146     71.371   4.520  9.69826E-01  9.92100E-01 -2.22737E-02
    9066.530     72.755   4.560  9.68397E-01  9.93649E-01 -2.52524E-02
    9067.926     74.151   4.600  9.68300E-01  9.95273E-01 -2.69725E-02
    9069.334     75.559   4.640  9.69433E-01  9.96942E-01 -2.75088E-02
    9070.754     76.979   4.680  9.71710E-01  9.98652E-01 -2.69424E-02
    9072.187     78.412   4.720  9.75113E-01  1.00038E+00 -2.52645E-02
    9073.631     79.857   4.760  9.79768E-01  1.00215E+00 -2.23853E-02
    9075.088     81.314   4.800  9.85641E-01  1.00391E+00 -1.82689E-02
    9076.558     82.783   4.840  9.92538E-01  1.00566E+00 -1.31266E-02
    9078.039     84.264   4.880  9.99995E-01  1.00741E+00 -7.41508E-03
    9079.532     85.758   4.920  1.00735E+00  1.00912E+00 -1.77365E-03
    9081.038     87.263   4.960  1.01394E+00  1.01079E+00  3.15326E-03
    9082.556     88.781   5.000  1.01932E+00  1.01241E+00  6.90636E-03
    9084.086     90.311   5.040  1.02327E+00  1.01396E+00  9.30824E-03
    9085.628     91.854   5.080  1.02590E+00  1.01545E+00  1.04521E-02
    9087.183     93.408   5.120  1.02741E+00  1.01683E+00  1.05758E-02
    9088.750     94.975   5.160  1.02805E+00  1.01813E+00  9.91655E-03
    9090.328     96.554   5.200  1.02794E+00  1.01934E+00  8.60053E-03
    9091.919     98.145   5.240  1.02706E+00  1.02043E+00  6.62520E-03
    9093.523     99.748   5.280  1.02540E+00  1.02143E+00  3.97013E-03
    9095.138    101.363   5.320  1.02306E+00  1.02228E+00  7.75422E-04
    9096.766    102.991   5.360  1.02048E+00  1.02303E+00 -2.55650E-03
    9098.406    104.631   5.400  1.01819E+00  1.02364E+00 -5.45031E-03
    9100.058    106.283   5.440  1.01672E+00  1.02414E+00 -7.41908E-03
    9101.722    107.947   5.480  1.01618E+00  1.02448E+00 -8.30175E-03
    9103.398    109.623   5.520  1.01635E+00  1.02468E+00 -8.32932E-03
    9105.087    111.312   5.560  1.01681E+00  1.02478E+00 -7.96800E-03
    9106.787    113.013   5.600  1.01708E+00  1.02472E+00 -7.64101E-03
    9108.500    114.726   5.640  1.01706E+00  1.02457E+00 -7.50435E-03
    9110.226    116.451   5.680  1.01687E+00  1.02426E+00 -7.38907E-03
    9111.963    118.188   5.720  1.01691E+00  1.02384E+00 -6.92757E-03
    9113.713    119.938   5.760  1.01751E+00  1.02329E+00 -5.77645E-03
    9115.474    121.699   5.800  1.01885E+00  1.02265E+00 -3.80787E-03
    9117.248    123.473   5.840  1.02073E+00  1.02191E+00 -1.17467E-03
    9119.034    125.260   5.880  1.02283E+00  1.02105E+00  1.78423E-03
    9120.833    127.058   5.920  1.02486E+00  1.02012E+00  4.74387E-03
    9122.643    128.868   5.960  1.02665E+00  1.01913E+00  7.52156E-03
    9124.466    130.691   6.000  1.02810E+00  1.01798E+00  1.01181E-02
