# # comment:                                                     FEFF 9.9.1  
# # Source:
# # Structure
# # Reduced
# # space
# # abc:
# # angles:114.538543
# # sites:
# # POT  SCF 100  7.0000   0, screened core-hole, AFOLP (folp(0)= 1.150)
# # Abs   Z=29 Rmt= 1.273 Rnm= 1.343 K  shell
# # Pot 1 Z=66 Rmt= 1.595 Rnm= 1.680
# # Pot 2 Z=29 Rmt= 1.273 Rnm= 1.344
# # Pot 3 Z=14 Rmt= 1.009 Rnm= 1.219
# # Pot 4 Z= 8 Rmt= 0.945 Rnm= 1.067
# # Gam_ch=1.729E+00 H-L exch Vi= 0.000E+00 Vr= 0.000E+00
# # Mu=-7.041E+00eV kf=2.335E+00 Vint=-1.808E+01eV Rs_int= 1.553
# FMS rfms= 9.0000
# # PATH  Rmax=-1.000,  Keep_limit= 0.00, Heap_limit 0.00  Pwcrit= 2.50%
#  S02=0.950  Temp=   0.00  Debye_temp=   0.00  Global_sig2= 0.00000
#  Energy zero shift, vr, vi    0.00000E+00   0.00000E+00
#  Curved wave amplitude ratio filter   4.000%
#     file         sig2 tot  cw amp ratio   deg  nlegs   reff  inp sig2
#     0/   0 paths used
#  xsedge+ 50, used to normalize mu           2.4930E-04
#  -----------------------------------------------------------------------
#  omega    e    k    mu    mu0     chi     @#
    8983.611    -10.851  -1.000  4.66083E-02  5.26198E-02 -6.01147E-03
    8983.909    -10.552  -0.960  4.96242E-02  5.64437E-02 -6.81952E-03
    8984.196    -10.266  -0.920  5.29314E-02  6.06958E-02 -7.76445E-03
    8984.470     -9.992  -0.880  5.65662E-02  6.54396E-02 -8.87342E-03
    8984.732     -9.729  -0.840  6.05697E-02  7.07491E-02 -1.01794E-02
    8984.982     -9.480  -0.800  6.49879E-02  7.67103E-02 -1.17224E-02
    8985.220     -9.242  -0.760  6.98717E-02  8.34219E-02 -1.35502E-02
    8985.446     -9.016  -0.720  7.52763E-02  9.09954E-02 -1.57191E-02
    8985.659     -8.803  -0.680  8.12602E-02  9.95540E-02 -1.82937E-02
    8985.860     -8.602  -0.640  8.78821E-02  1.09228E-01 -2.13456E-02
    8986.049     -8.413  -0.600  9.51966E-02  1.20144E-01 -2.49478E-02
    8986.226     -8.236  -0.560  1.03247E-01  1.32414E-01 -2.91668E-02
    8986.390     -8.071  -0.520  1.12054E-01  1.46100E-01 -3.40470E-02
    8986.543     -7.919  -0.480  1.21602E-01  1.61192E-01 -3.95901E-02
    8986.683     -7.779  -0.440  1.31824E-01  1.77554E-01 -4.57309E-02
    8986.811     -7.651  -0.400  1.42584E-01  1.94902E-01 -5.23178E-02
    8986.927     -7.535  -0.360  1.53673E-01  2.12783E-01 -5.91098E-02
    8987.031     -7.431  -0.320  1.64812E-01  2.30613E-01 -6.58009E-02
    8987.122     -7.340  -0.280  1.75671E-01  2.47742E-01 -7.20708E-02
    8987.201     -7.261  -0.240  1.85901E-01  2.63546E-01 -7.76448E-02
    8987.268     -7.194  -0.200  1.95166E-01  2.77505E-01 -8.23391E-02
    8987.323     -7.139  -0.160  2.03167E-01  2.89241E-01 -8.60737E-02
    8987.366     -7.096  -0.120  2.09659E-01  2.98512E-01 -8.88539E-02
    8987.396     -7.065  -0.080  2.14453E-01  3.05189E-01 -9.07358E-02
    8987.421     -7.041   0.000  2.18434E-01  3.10551E-01 -9.21174E-02
    8987.476     -6.986   0.120  2.27323E-01  3.22640E-01 -9.53171E-02
    8987.518     -6.944   0.160  2.34386E-01  3.32020E-01 -9.76347E-02
    8987.573     -6.889   0.200  2.43673E-01  3.43973E-01 -1.00300E-01
    8987.640     -6.822   0.240  2.55368E-01  3.58343E-01 -1.02975E-01
    8987.719     -6.742   0.280  2.69585E-01  3.74806E-01 -1.05221E-01
    8987.811     -6.651   0.320  2.86437E-01  3.92940E-01 -1.06503E-01
    8987.914     -6.547   0.360  3.05894E-01  4.12165E-01 -1.06270E-01
    8988.030     -6.432   0.400  3.27880E-01  4.31940E-01 -1.04060E-01
    8988.158     -6.303   0.440  3.52072E-01  4.51679E-01 -9.96072E-02
    8988.299     -6.163   0.480  3.78124E-01  4.71017E-01 -9.28930E-02
    8988.451     -6.011   0.520  4.05591E-01  4.89677E-01 -8.40859E-02
    8988.616     -5.846   0.560  4.34055E-01  5.07544E-01 -7.34888E-02
    8988.792     -5.670   0.600  4.63045E-01  5.24588E-01 -6.15430E-02
    8988.981     -5.481   0.640  4.91781E-01  5.40850E-01 -4.90691E-02
    8989.182     -5.279   0.680  5.18777E-01  5.56451E-01 -3.76740E-02
    8989.396     -5.066   0.720  5.41482E-01  5.71486E-01 -3.00043E-02
    8989.621     -4.840   0.760  5.57408E-01  5.86050E-01 -2.86414E-02
    8989.859     -4.603   0.800  5.66291E-01  6.00245E-01 -3.39542E-02
    8990.109     -4.353   0.840  5.70303E-01  6.14164E-01 -4.38616E-02
    8990.371     -4.091   0.880  5.71127E-01  6.27846E-01 -5.67187E-02
    8990.645     -3.816   0.920  5.68064E-01  6.41355E-01 -7.32912E-02
    8990.932     -3.530   0.960  5.59977E-01  6.54747E-01 -9.47700E-02
    8991.231     -3.231   1.000  5.48264E-01  6.68023E-01 -1.19759E-01
    8991.542     -2.920   1.040  5.37167E-01  6.81216E-01 -1.44049E-01
    8991.865     -2.597   1.080  5.30904E-01  6.94353E-01 -1.63449E-01
    8992.200     -2.262   1.120  5.31170E-01  7.07410E-01 -1.76240E-01
    8992.547     -1.914   1.160  5.37332E-01  7.20403E-01 -1.83072E-01
    8992.907     -1.555   1.200  5.47443E-01  7.33300E-01 -1.85857E-01
    8993.279     -1.183   1.240  5.60027E-01  7.46126E-01 -1.86100E-01
    8993.663     -0.799   1.280  5.75489E-01  7.58841E-01 -1.83352E-01
    8994.059     -0.403   1.320  5.95412E-01  7.71446E-01 -1.76034E-01
    8994.468      0.006   1.360  6.21796E-01  7.83898E-01 -1.62102E-01
    8994.888      0.426   1.400  6.59605E-01  7.96210E-01 -1.36605E-01
    8995.321      0.859   1.440  7.14512E-01  8.08338E-01 -9.38257E-02
    8995.766      1.304   1.480  7.83978E-01  8.20255E-01 -3.62771E-02
    8996.223      1.761   1.520  8.60653E-01  8.31953E-01  2.87004E-02
    8996.693      2.231   1.560  9.35575E-01  8.43403E-01  9.21718E-02
    8997.174      2.712   1.600  9.83447E-01  8.54578E-01  1.28868E-01
    8997.668      3.206   1.640  9.88386E-01  8.65471E-01  1.22916E-01
    8998.174      3.712   1.680  9.70257E-01  8.76052E-01  9.42055E-02
    8998.692      4.230   1.720  9.58282E-01  8.86315E-01  7.19675E-02
    8999.222      4.761   1.760  9.71827E-01  8.96231E-01  7.55963E-02
    8999.765      5.303   1.800  1.01819E+00  9.05794E-01  1.12399E-01
    9000.320      5.858   1.840  1.09035E+00  9.14960E-01  1.75394E-01
    9000.887      6.425   1.880  1.16635E+00  9.23762E-01  2.42585E-01
    9001.466      7.004   1.920  1.22022E+00  9.32156E-01  2.88069E-01
    9002.057      7.595   1.960  1.24482E+00  9.40138E-01  3.04682E-01
    9002.661      8.199   2.000  1.25239E+00  9.47725E-01  3.04663E-01
    9003.276      8.815   2.040  1.25484E+00  9.54877E-01  2.99963E-01
    9003.904      9.442   2.080  1.25220E+00  9.61632E-01  2.90566E-01
    9004.544     10.082   2.120  1.23574E+00  9.67948E-01  2.67790E-01
    9005.197     10.735   2.160  1.20691E+00  9.73826E-01  2.33085E-01
    9005.861     11.399   2.200  1.17612E+00  9.79309E-01  1.96809E-01
    9006.538     12.076   2.240  1.15298E+00  9.84360E-01  1.68619E-01
    9007.227     12.765   2.280  1.14574E+00  9.89000E-01  1.56738E-01
    9007.928     13.466   2.320  1.15383E+00  9.93254E-01  1.60581E-01
    9008.641     14.179   2.360  1.16919E+00  9.97105E-01  1.72087E-01
    9009.366     14.904   2.400  1.18249E+00  1.00056E+00  1.81927E-01
    9010.104     15.642   2.440  1.18577E+00  1.00364E+00  1.82126E-01
    9010.854     16.392   2.480  1.17181E+00  1.00636E+00  1.65446E-01
    9011.616     17.154   2.520  1.14012E+00  1.00874E+00  1.31380E-01
    9012.390     17.928   2.560  1.09434E+00  1.01077E+00  8.35679E-02
    9013.176     18.714   2.600  1.04071E+00  1.01249E+00  2.82128E-02
    9013.975     19.513   2.640  9.92553E-01  1.01390E+00 -2.13473E-02
    9014.786     20.324   2.680  9.60742E-01  1.01500E+00 -5.42543E-02
    9015.608     21.147   2.720  9.45223E-01  1.01583E+00 -7.06102E-02
    9016.444     21.982   2.760  9.40318E-01  1.01642E+00 -7.60987E-02
    9017.291     22.829   2.800  9.33390E-01  1.01674E+00 -8.33461E-02
    9018.150     23.689   2.840  9.23287E-01  1.01684E+00 -9.35509E-02
    9019.022     24.560   2.880  9.12144E-01  1.01673E+00 -1.04588E-01
    9019.906     25.444   2.920  9.01772E-01  1.01642E+00 -1.14653E-01
    9020.802     26.340   2.960  8.92686E-01  1.01592E+00 -1.23238E-01
    9021.711     27.249   3.000  8.84590E-01  1.01526E+00 -1.30668E-01
    9022.631     28.169   3.040  8.77219E-01  1.01445E+00 -1.37235E-01
    9023.564     29.102   3.080  8.70671E-01  1.01350E+00 -1.42833E-01
    9024.509     30.047   3.120  8.65437E-01  1.01245E+00 -1.47015E-01
    9025.466     31.004   3.160  8.61686E-01  1.01128E+00 -1.49598E-01
    9026.435     31.973   3.200  8.59424E-01  1.01001E+00 -1.50583E-01
    9027.416     32.955   3.240  8.58884E-01  1.00867E+00 -1.49786E-01
    9028.410     33.948   3.280  8.60600E-01  1.00726E+00 -1.46658E-01
    9029.416     34.954   3.320  8.65182E-01  1.00580E+00 -1.40614E-01
    9030.434     35.972   3.360  8.73268E-01  1.00427E+00 -1.31003E-01
    9031.464     37.002   3.400  8.85330E-01  1.00273E+00 -1.17399E-01
    9032.507     38.045   3.440  9.00700E-01  1.00118E+00 -1.00476E-01
    9033.561     39.099   3.480  9.18131E-01  9.99596E-01 -8.14650E-02
    9034.628     40.166   3.520  9.36296E-01  9.98013E-01 -6.17172E-02
    9035.707     41.245   3.560  9.54005E-01  9.96452E-01 -4.24476E-02
    9036.798     42.336   3.600  9.70369E-01  9.94877E-01 -2.45077E-02
    9037.901     43.440   3.640  9.85154E-01  9.93352E-01 -8.19808E-03
    9039.017     44.555   3.680  9.98352E-01  9.91842E-01  6.50974E-03
    9040.145     45.683   3.720  1.01022E+00  9.90370E-01  1.98470E-02
    9041.285     46.823   3.760  1.02115E+00  9.88938E-01  3.22141E-02
    9042.437     47.975   3.800  1.03151E+00  9.87569E-01  4.39398E-02
    9043.601     49.139   3.840  1.04120E+00  9.86247E-01  5.49507E-02
    9044.778     50.316   3.880  1.04994E+00  9.84973E-01  6.49642E-02
    9045.966     51.505   3.920  1.05732E+00  9.83767E-01  7.35495E-02
    9047.167     52.706   3.960  1.06286E+00  9.82635E-01  8.02292E-02
    9048.380     53.919   4.000  1.06617E+00  9.81556E-01  8.46134E-02
    9049.606     55.144   4.040  1.06730E+00  9.80551E-01  8.67497E-02
    9050.843     56.381   4.080  1.06659E+00  9.79621E-01  8.69667E-02
    9052.093     57.631   4.120  1.06440E+00  9.78769E-01  8.56294E-02
    9053.355     58.893   4.160  1.06104E+00  9.77972E-01  8.30715E-02
    9054.629     60.167   4.200  1.05668E+00  9.77275E-01  7.94091E-02
    9055.915     61.453   4.240  1.05121E+00  9.76657E-01  7.45529E-02
    9057.214     62.752   4.280  1.04454E+00  9.76098E-01  6.84391E-02
    9058.524     64.062   4.320  1.03685E+00  9.75638E-01  6.12074E-02
    9059.847     65.385   4.360  1.02841E+00  9.75257E-01  5.31535E-02
    9061.182     66.720   4.400  1.01962E+00  9.74933E-01  4.46839E-02
    9062.529     68.067   4.440  1.01100E+00  9.74707E-01  3.62893E-02
    9063.889     69.427   4.480  1.00294E+00  9.74536E-01  2.84078E-02
    9065.260     70.798   4.520  9.95816E-01  9.74441E-01  2.13741E-02
    9066.644     72.182   4.560  9.89784E-01  9.74423E-01  1.53613E-02
    9068.040     73.578   4.600  9.84832E-01  9.74478E-01  1.03543E-02
    9069.448     74.986   4.640  9.80863E-01  9.74584E-01  6.27862E-03
    9070.868     76.407   4.680  9.77913E-01  9.74761E-01  3.15168E-03
    9072.301     77.839   4.720  9.75972E-01  9.74988E-01  9.83708E-04
    9073.746     79.284   4.760  9.74919E-01  9.75283E-01 -3.63882E-04
    9075.203     80.741   4.800  9.74358E-01  9.75625E-01 -1.26634E-03
    9076.672     82.210   4.840  9.73737E-01  9.76032E-01 -2.29507E-03
    9078.153     83.691   4.880  9.72412E-01  9.76460E-01 -4.04752E-03
    9079.647     85.185   4.920  9.70000E-01  9.76948E-01 -6.94784E-03
    9081.152     86.691   4.960  9.66319E-01  9.77455E-01 -1.11355E-02
    9082.670     88.208   5.000  9.61618E-01  9.78019E-01 -1.64013E-02
    9084.200     89.739   5.040  9.56354E-01  9.78595E-01 -2.22410E-02
    9085.743     91.281   5.080  9.51187E-01  9.79182E-01 -2.79953E-02
    9087.297     92.835   5.120  9.46770E-01  9.79821E-01 -3.30509E-02
    9088.864     94.402   5.160  9.43325E-01  9.80445E-01 -3.71196E-02
    9090.443     95.981   5.200  9.40866E-01  9.81094E-01 -4.02282E-02
    9092.034     97.572   5.240  9.39225E-01  9.81747E-01 -4.25217E-02
    9093.637     99.175   5.280  9.38377E-01  9.82399E-01 -4.40222E-02
    9095.252    100.791   5.320  9.38440E-01  9.83050E-01 -4.46101E-02
    9096.880    102.418   5.360  9.39539E-01  9.83697E-01 -4.41579E-02
    9098.520    104.058   5.400  9.41659E-01  9.84314E-01 -4.26546E-02
    9100.172    105.710   5.440  9.44703E-01  9.84922E-01 -4.02189E-02
    9101.836    107.374   5.480  9.48490E-01  9.85500E-01 -3.70107E-02
    9103.512    109.051   5.520  9.52879E-01  9.86069E-01 -3.31895E-02
    9105.201    110.739   5.560  9.57649E-01  9.86624E-01 -2.89750E-02
    9106.902    112.440   5.600  9.62407E-01  9.87120E-01 -2.47124E-02
    9108.615    114.153   5.640  9.66783E-01  9.87576E-01 -2.07933E-02
    9110.340    115.878   5.680  9.70485E-01  9.88016E-01 -1.75306E-02
    9112.077    117.615   5.720  9.73274E-01  9.88393E-01 -1.51183E-02
    9113.827    119.365   5.760  9.75174E-01  9.88750E-01 -1.35765E-02
    9115.589    121.127   5.800  9.76402E-01  9.89041E-01 -1.26391E-02
    9117.362    122.901   5.840  9.77587E-01  9.89286E-01 -1.16992E-02
    9119.149    124.687   5.880  9.79473E-01  9.89460E-01 -9.98640E-03
    9120.947    126.485   5.920  9.82670E-01  9.89586E-01 -6.91623E-03
    9122.757    128.296   5.960  9.87347E-01  9.89659E-01 -2.31213E-03
    9124.580    130.118   6.000  9.93311E-01  9.89655E-01  3.65518E-03
