# # comment:                                                     FEFF 9.9.1  
# # Source:
# # Structure
# # Reduced
# # space
# # abc:
# # angles:
# # sites:
# # POT  SCF 100  7.0000   0, screened core-hole, AFOLP (folp(0)= 1.150)
# # Abs   Z=29 Rmt= 1.199 Rnm= 1.334 K  shell
# # Pot 1 Z=29 Rmt= 1.171 Rnm= 1.309
# # Pot 2 Z= 8 Rmt= 0.987 Rnm= 1.113
# # Pot 3 Z= 9 Rmt= 1.027 Rnm= 1.127
# # Gam_ch=1.729E+00 H-L exch Vi= 0.000E+00 Vr= 0.000E+00
# # Mu=-6.236E+00eV kf=2.018E+00 Vint=-1.288E+01eV Rs_int= 1.797
# FMS rfms= 9.0000
# # PATH  Rmax=-1.000,  Keep_limit= 0.00, Heap_limit 0.00  Pwcrit= 2.50%
#  S02=0.950  Temp=   0.00  Debye_temp=   0.00  Global_sig2= 0.00000
#  Energy zero shift, vr, vi    0.00000E+00   0.00000E+00
#  Curved wave amplitude ratio filter   4.000%
#     file         sig2 tot  cw amp ratio   deg  nlegs   reff  inp sig2
#     0/   0 paths used
#  xsedge+ 50, used to normalize mu           2.4144E-04
#  -----------------------------------------------------------------------
#  omega    e    k    mu    mu0     chi     @#
    8983.273    -10.046  -1.000  3.61872E-02  5.73127E-02 -2.11255E-02
    8983.572     -9.747  -0.960  3.77749E-02  6.14652E-02 -2.36903E-02
    8983.858     -9.461  -0.920  3.94435E-02  6.60720E-02 -2.66285E-02
    8984.133     -9.187  -0.880  4.11975E-02  7.11986E-02 -3.00011E-02
    8984.395     -8.924  -0.840  4.30419E-02  7.69211E-02 -3.38792E-02
    8984.645     -8.674  -0.800  4.49819E-02  8.33276E-02 -3.83457E-02
    8984.883     -8.437  -0.760  4.70232E-02  9.05187E-02 -4.34955E-02
    8985.108     -8.211  -0.720  4.91715E-02  9.86081E-02 -4.94366E-02
    8985.322     -7.998  -0.680  5.14326E-02  1.07720E-01 -5.62878E-02
    8985.523     -7.797  -0.640  5.38115E-02  1.17987E-01 -6.41753E-02
    8985.712     -7.608  -0.600  5.63119E-02  1.29536E-01 -7.32239E-02
    8985.888     -7.431  -0.560  5.89342E-02  1.42476E-01 -8.35421E-02
    8986.053     -7.266  -0.520  6.16735E-02  1.56872E-01 -9.51988E-02
    8986.205     -7.114  -0.480  6.45161E-02  1.72707E-01 -1.08191E-01
    8986.346     -6.974  -0.440  6.74362E-02  1.89842E-01 -1.22406E-01
    8986.474     -6.846  -0.400  7.03931E-02  2.07984E-01 -1.37590E-01
    8986.589     -6.730  -0.360  7.33305E-02  2.26671E-01 -1.53340E-01
    8986.693     -6.626  -0.320  7.61805E-02  2.45304E-01 -1.69123E-01
    8986.785     -6.535  -0.280  7.88699E-02  2.63217E-01 -1.84347E-01
    8986.864     -6.456  -0.240  8.13295E-02  2.79765E-01 -1.98436E-01
    8986.931     -6.388  -0.200  8.35001E-02  2.94407E-01 -2.10907E-01
    8986.986     -6.334  -0.160  8.53352E-02  3.06739E-01 -2.21404E-01
    8987.028     -6.291  -0.120  8.68002E-02  3.16501E-01 -2.29701E-01
    8987.059     -6.260  -0.080  8.78705E-02  3.23542E-01 -2.35671E-01
    8987.083     -6.236   0.000  8.87562E-02  3.29205E-01 -2.40449E-01
    8987.138     -6.181   0.120  9.08006E-02  3.41978E-01 -2.51177E-01
    8987.181     -6.139   0.160  9.23507E-02  3.51937E-01 -2.59587E-01
    8987.236     -6.084   0.200  9.43280E-02  3.64660E-01 -2.70332E-01
    8987.303     -6.017   0.240  9.67641E-02  3.80042E-01 -2.83278E-01
    8987.382     -5.937   0.280  9.96376E-02  3.97774E-01 -2.98137E-01
    8987.473     -5.846   0.320  1.03002E-01  4.17479E-01 -3.14477E-01
    8987.577     -5.742   0.360  1.06849E-01  4.38611E-01 -3.31762E-01
    8987.693     -5.626   0.400  1.11229E-01  4.60629E-01 -3.49400E-01
    8987.821     -5.498   0.440  1.16278E-01  4.83039E-01 -3.66760E-01
    8987.961     -5.358   0.480  1.22067E-01  5.05411E-01 -3.83344E-01
    8988.113     -5.206   0.520  1.28783E-01  5.27519E-01 -3.98735E-01
    8988.278     -5.041   0.560  1.36609E-01  5.49202E-01 -4.12593E-01
    8988.455     -4.864   0.600  1.45696E-01  5.70421E-01 -4.24725E-01
    8988.644     -4.675   0.640  1.56166E-01  5.91179E-01 -4.35013E-01
    8988.845     -4.474   0.680  1.68144E-01  6.11554E-01 -4.43410E-01
    8989.058     -4.261   0.720  1.81767E-01  6.31615E-01 -4.49848E-01
    8989.284     -4.035   0.760  1.97474E-01  6.51385E-01 -4.53911E-01
    8989.522     -3.798   0.800  2.16197E-01  6.70918E-01 -4.54721E-01
    8989.772     -3.548   0.840  2.39349E-01  6.90234E-01 -4.50884E-01
    8990.034     -3.286   0.880  2.68523E-01  7.09359E-01 -4.40837E-01
    8990.308     -3.011   0.920  3.04675E-01  7.28265E-01 -4.23590E-01
    8990.595     -2.725   0.960  3.47145E-01  7.46952E-01 -3.99807E-01
    8990.893     -2.426   1.000  3.93386E-01  7.65370E-01 -3.71985E-01
    8991.204     -2.115   1.040  4.41295E-01  7.83522E-01 -3.42226E-01
    8991.527     -1.792   1.080  4.92141E-01  8.01320E-01 -3.09178E-01
    8991.863     -1.457   1.120  5.48720E-01  8.18736E-01 -2.70015E-01
    8992.210     -1.109   1.160  6.07969E-01  8.35736E-01 -2.27767E-01
    8992.570     -0.750   1.200  6.58823E-01  8.52245E-01 -1.93422E-01
    8992.941     -0.378   1.240  6.91115E-01  8.68203E-01 -1.77088E-01
    8993.326      0.006   1.280  7.01987E-01  8.83596E-01 -1.81610E-01
    8993.722      0.402   1.320  6.96587E-01  8.98368E-01 -2.01781E-01
    8994.130      0.811   1.360  6.90049E-01  9.12482E-01 -2.22433E-01
    8994.551      1.232   1.400  7.01865E-01  9.25886E-01 -2.24021E-01
    8994.984      1.664   1.440  7.43995E-01  9.38567E-01 -1.94572E-01
    8995.429      2.109   1.480  8.13542E-01  9.50498E-01 -1.36956E-01
    8995.886      2.567   1.520  8.92780E-01  9.61675E-01 -6.88948E-02
    8996.355      3.036   1.560  9.63045E-01  9.72051E-01 -9.00580E-03
    8996.837      3.518   1.600  1.02886E+00  9.81668E-01  4.71919E-02
    8997.331      4.011   1.640  1.11357E+00  9.90509E-01  1.23065E-01
    8997.837      4.517   1.680  1.22462E+00  9.98558E-01  2.26064E-01
    8998.355      5.035   1.720  1.33856E+00  1.00586E+00  3.32701E-01
    8998.885      5.566   1.760  1.42000E+00  1.01242E+00  4.07585E-01
    8999.428      6.108   1.800  1.45925E+00  1.01827E+00  4.40981E-01
    8999.982      6.663   1.840  1.48147E+00  1.02341E+00  4.58060E-01
    9000.549      7.230   1.880  1.50708E+00  1.02788E+00  4.79200E-01
    9001.128      7.809   1.920  1.52708E+00  1.03171E+00  4.95368E-01
    9001.720      8.400   1.960  1.52389E+00  1.03494E+00  4.88948E-01
    9002.323      9.004   2.000  1.49407E+00  1.03760E+00  4.56475E-01
    9002.939      9.620   2.040  1.44028E+00  1.03972E+00  4.00560E-01
    9003.567     10.247   2.080  1.36652E+00  1.04135E+00  3.25173E-01
    9004.207     10.888   2.120  1.29486E+00  1.04249E+00  2.52365E-01
    9004.859     11.540   2.160  1.24383E+00  1.04322E+00  2.00602E-01
    9005.524     12.204   2.200  1.19763E+00  1.04355E+00  1.54075E-01
    9006.200     12.881   2.240  1.13882E+00  1.04351E+00  9.53145E-02
    9006.889     13.570   2.280  1.07716E+00  1.04315E+00  3.40070E-02
    9007.590     14.271   2.320  1.03569E+00  1.04250E+00 -6.80984E-03
    9008.303     14.984   2.360  1.02302E+00  1.04160E+00 -1.85795E-02
    9009.029     15.709   2.400  1.02566E+00  1.04045E+00 -1.47908E-02
    9009.766     16.447   2.440  1.03494E+00  1.03912E+00 -4.17440E-03
    9010.516     17.197   2.480  1.04863E+00  1.03759E+00  1.10372E-02
    9011.278     17.959   2.520  1.05985E+00  1.03593E+00  2.39167E-02
    9012.052     18.733   2.560  1.06465E+00  1.03417E+00  3.04793E-02
    9012.839     19.519   2.600  1.06304E+00  1.03229E+00  3.07504E-02
    9013.637     20.318   2.640  1.05618E+00  1.03033E+00  2.58502E-02
    9014.448     21.129   2.680  1.04527E+00  1.02832E+00  1.69505E-02
    9015.271     21.952   2.720  1.03214E+00  1.02626E+00  5.88169E-03
    9016.106     22.787   2.760  1.01856E+00  1.02420E+00 -5.63695E-03
    9016.954     23.634   2.800  1.00581E+00  1.02211E+00 -1.63006E-02
    9017.813     24.494   2.840  9.94582E-01  1.02004E+00 -2.54601E-02
    9018.685     25.365   2.880  9.84614E-01  1.01801E+00 -3.33966E-02
    9019.569     26.249   2.920  9.75079E-01  1.01599E+00 -4.09147E-02
    9020.465     27.146   2.960  9.65120E-01  1.01404E+00 -4.89224E-02
    9021.373     28.054   3.000  9.54149E-01  1.01214E+00 -5.79927E-02
    9022.294     28.974   3.040  9.42137E-01  1.01031E+00 -6.81772E-02
    9023.226     29.907   3.080  9.29594E-01  1.00857E+00 -7.89718E-02
    9024.171     30.852   3.120  9.17452E-01  1.00690E+00 -8.94482E-02
    9025.128     31.809   3.160  9.06519E-01  1.00532E+00 -9.88013E-02
    9026.098     32.778   3.200  8.97335E-01  1.00385E+00 -1.06513E-01
    9027.079     33.760   3.240  8.90300E-01  1.00247E+00 -1.12166E-01
    9028.073     34.753   3.280  8.85750E-01  1.00118E+00 -1.15426E-01
    9029.078     35.759   3.320  8.83915E-01  1.00000E+00 -1.16085E-01
    9030.096     36.777   3.360  8.84359E-01  9.98941E-01 -1.14581E-01
    9031.127     37.807   3.400  8.86586E-01  9.97978E-01 -1.11391E-01
    9032.169     38.850   3.440  8.90174E-01  9.97154E-01 -1.06979E-01
    9033.224     39.904   3.480  8.94851E-01  9.96428E-01 -1.01577E-01
    9034.290     40.971   3.520  9.00453E-01  9.95797E-01 -9.53438E-02
    9035.369     42.050   3.560  9.07074E-01  9.95305E-01 -8.82307E-02
    9036.461     43.141   3.600  9.14800E-01  9.94911E-01 -8.01112E-02
    9037.564     44.245   3.640  9.23702E-01  9.94636E-01 -7.09344E-02
    9038.680     45.360   3.680  9.33564E-01  9.94478E-01 -6.09131E-02
    9039.807     46.488   3.720  9.44057E-01  9.94436E-01 -5.03786E-02
    9040.947     47.628   3.760  9.54792E-01  9.94487E-01 -3.96951E-02
    9042.099     48.780   3.800  9.65393E-01  9.94629E-01 -2.92358E-02
    9043.264     49.944   3.840  9.75580E-01  9.94880E-01 -1.93002E-02
    9044.440     51.121   3.880  9.85209E-01  9.95222E-01 -1.00131E-02
    9045.629     52.310   3.920  9.94358E-01  9.95673E-01 -1.31521E-03
    9046.830     53.511   3.960  1.00321E+00  9.96208E-01  6.99912E-03
    9048.043     54.724   4.000  1.01207E+00  9.96805E-01  1.52686E-02
    9049.268     55.949   4.040  1.02134E+00  9.97504E-01  2.38349E-02
    9050.506     57.186   4.080  1.03114E+00  9.98279E-01  3.28610E-02
    9051.755     58.436   4.120  1.04130E+00  9.99108E-01  4.21883E-02
    9053.017     59.698   4.160  1.05130E+00  9.99987E-01  5.13161E-02
    9054.291     60.972   4.200  1.06040E+00  1.00094E+00  5.94590E-02
    9055.578     62.258   4.240  1.06778E+00  1.00196E+00  6.58276E-02
    9056.876     63.557   4.280  1.07278E+00  1.00300E+00  6.97841E-02
    9058.187     64.867   4.320  1.07516E+00  1.00410E+00  7.10651E-02
    9059.510     66.190   4.360  1.07517E+00  1.00522E+00  6.99539E-02
    9060.845     67.525   4.400  1.07365E+00  1.00637E+00  6.72777E-02
    9062.192     68.872   4.440  1.07166E+00  1.00755E+00  6.41090E-02
    9063.551     70.232   4.480  1.07021E+00  1.00874E+00  6.14683E-02
    9064.923     71.603   4.520  1.06995E+00  1.00993E+00  6.00133E-02
    9066.307     72.987   4.560  1.07105E+00  1.01113E+00  5.99271E-02
    9067.703     74.383   4.600  1.07319E+00  1.01232E+00  6.08694E-02
    9069.111     75.791   4.640  1.07566E+00  1.01350E+00  6.21582E-02
    9070.531     77.212   4.680  1.07779E+00  1.01469E+00  6.31027E-02
    9071.964     78.644   4.720  1.07905E+00  1.01583E+00  6.32168E-02
    9073.408     80.089   4.760  1.07920E+00  1.01697E+00  6.22251E-02
    9074.865     81.546   4.800  1.07802E+00  1.01807E+00  5.99509E-02
    9076.334     83.015   4.840  1.07541E+00  1.01913E+00  5.62777E-02
    9077.816     84.496   4.880  1.07143E+00  1.02014E+00  5.12850E-02
    9079.309     85.990   4.920  1.06642E+00  1.02109E+00  4.53293E-02
    9080.815     87.496   4.960  1.06077E+00  1.02201E+00  3.87585E-02
    9082.333     89.014   5.000  1.05446E+00  1.02287E+00  3.15875E-02
    9083.863     90.544   5.040  1.04716E+00  1.02367E+00  2.34860E-02
    9085.405     92.086   5.080  1.03857E+00  1.02443E+00  1.41432E-02
    9086.960     93.640   5.120  1.02868E+00  1.02508E+00  3.59870E-03
    9088.526     95.207   5.160  1.01797E+00  1.02571E+00 -7.73779E-03
    9090.105     96.786   5.200  1.00697E+00  1.02623E+00 -1.92641E-02
    9091.696     98.377   5.240  9.96251E-01  1.02670E+00 -3.04454E-02
    9093.300     99.980   5.280  9.86214E-01  1.02708E+00 -4.08703E-02
    9094.915    101.596   5.320  9.77211E-01  1.02739E+00 -5.01807E-02
    9096.543    103.223   5.360  9.69551E-01  1.02762E+00 -5.80688E-02
    9098.182    104.863   5.400  9.63434E-01  1.02779E+00 -6.43546E-02
    9099.834    106.515   5.440  9.58904E-01  1.02786E+00 -6.89514E-02
    9101.499    108.179   5.480  9.56193E-01  1.02787E+00 -7.16733E-02
    9103.175    109.856   5.520  9.55573E-01  1.02780E+00 -7.22258E-02
    9104.864    111.544   5.560  9.57336E-01  1.02768E+00 -7.03405E-02
    9106.564    113.245   5.600  9.61275E-01  1.02745E+00 -6.61776E-02
    9108.277    114.958   5.640  9.66604E-01  1.02717E+00 -6.05684E-02
    9110.002    116.683   5.680  9.72041E-01  1.02682E+00 -5.47779E-02
    9111.740    118.421   5.720  9.76472E-01  1.02641E+00 -4.99428E-02
    9113.489    120.170   5.760  9.79376E-01  1.02594E+00 -4.65616E-02
    9115.251    121.932   5.800  9.81126E-01  1.02541E+00 -4.42870E-02
    9117.025    123.706   5.840  9.82563E-01  1.02482E+00 -4.22573E-02
    9118.811    125.492   5.880  9.84454E-01  1.02418E+00 -3.97309E-02
    9120.609    127.290   5.920  9.87126E-01  1.02351E+00 -3.63862E-02
    9122.420    129.101   5.960  9.90665E-01  1.02278E+00 -3.21132E-02
    9124.243    130.923   6.000  9.95519E-01  1.02200E+00 -2.64778E-02
