# # comment:                                                     FEFF 9.9.1  
# # Source:
# # Structure
# # Reduced
# # space
# # abc:
# # angles:
# # sites:
# # POT  SCF 100  7.0000   0, screened core-hole, AFOLP (folp(0)= 1.150)
# # Abs   Z=29 Rmt= 1.194 Rnm= 1.290 K  shell
# # Pot 1 Z=20 Rmt= 1.671 Rnm= 1.744
# # Pot 2 Z=59 Rmt= 1.709 Rnm= 1.790
# # Pot 3 Z=29 Rmt= 1.219 Rnm= 1.304
# # Pot 4 Z= 8 Rmt= 1.038 Rnm= 1.098
# # Gam_ch=1.729E+00 H-L exch Vi= 0.000E+00 Vr= 0.000E+00
# # Mu=-8.898E+00eV kf=2.107E+00 Vint=-1.823E+01eV Rs_int= 1.722
# FMS rfms= 9.0000
# # PATH  Rmax=-1.000,  Keep_limit= 0.00, Heap_limit 0.00  Pwcrit= 2.50%
#  S02=0.950  Temp=   0.00  Debye_temp=   0.00  Global_sig2= 0.00000
#  Energy zero shift, vr, vi    0.00000E+00   0.00000E+00
#  Curved wave amplitude ratio filter   4.000%
#     file         sig2 tot  cw amp ratio   deg  nlegs   reff  inp sig2
#     0/   0 paths used
#  xsedge+ 50, used to normalize mu           2.4669E-04
#  -----------------------------------------------------------------------
#  omega    e    k    mu    mu0     chi     @#
    8984.936    -12.708  -1.000  4.19615E-02  5.51392E-02 -1.31777E-02
    8985.235    -12.409  -0.960  4.45578E-02  5.91824E-02 -1.46245E-02
    8985.521    -12.123  -0.920  4.74175E-02  6.36784E-02 -1.62609E-02
    8985.795    -11.848  -0.880  5.05791E-02  6.86943E-02 -1.81152E-02
    8986.058    -11.586  -0.840  5.40875E-02  7.43080E-02 -2.02205E-02
    8986.307    -11.336  -0.800  5.79949E-02  8.06100E-02 -2.26151E-02
    8986.545    -11.098  -0.760  6.23612E-02  8.77040E-02 -2.53428E-02
    8986.771    -10.873  -0.720  6.72540E-02  9.57073E-02 -2.84533E-02
    8986.984    -10.660  -0.680  7.27478E-02  1.04749E-01 -3.20015E-02
    8987.185    -10.458  -0.640  7.89211E-02  1.14966E-01 -3.60450E-02
    8987.374    -10.269  -0.600  8.58512E-02  1.26492E-01 -4.06409E-02
    8987.551    -10.093  -0.560  9.36050E-02  1.39442E-01 -4.58368E-02
    8987.716     -9.928  -0.520  1.02224E-01  1.53884E-01 -5.16599E-02
    8987.868     -9.776  -0.480  1.11703E-01  1.69803E-01 -5.80992E-02
    8988.008     -9.635  -0.440  1.21972E-01  1.87059E-01 -6.50868E-02
    8988.136     -9.507  -0.400  1.32870E-01  2.05352E-01 -7.24820E-02
    8988.252     -9.392  -0.360  1.44139E-01  2.24207E-01 -8.00680E-02
    8988.356     -9.288  -0.320  1.55441E-01  2.43010E-01 -8.75691E-02
    8988.447     -9.196  -0.280  1.66387E-01  2.61077E-01 -9.46894E-02
    8988.526     -9.117  -0.240  1.76592E-01  2.77751E-01 -1.01159E-01
    8988.593     -9.050  -0.200  1.85713E-01  2.92485E-01 -1.06772E-01
    8988.648     -8.995  -0.160  1.93476E-01  3.04876E-01 -1.11400E-01
    8988.691     -8.953  -0.120  1.99684E-01  3.14669E-01 -1.14985E-01
    8988.721     -8.922  -0.080  2.04205E-01  3.21723E-01 -1.17517E-01
    8988.746     -8.898   0.000  2.07886E-01  3.27389E-01 -1.19503E-01
    8988.801     -8.843   0.120  2.16078E-01  3.40153E-01 -1.24075E-01
    8988.843     -8.800   0.160  2.22545E-01  3.50080E-01 -1.27535E-01
    8988.898     -8.745   0.200  2.30897E-01  3.62743E-01 -1.31846E-01
    8988.965     -8.678   0.240  2.41099E-01  3.77965E-01 -1.36866E-01
    8989.045     -8.599   0.280  2.53046E-01  3.95436E-01 -1.42390E-01
    8989.136     -8.508   0.320  2.66465E-01  4.14704E-01 -1.48239E-01
    8989.240     -8.404   0.360  2.80861E-01  4.35187E-01 -1.54327E-01
    8989.355     -8.288   0.400  2.95495E-01  4.56290E-01 -1.60794E-01
    8989.483     -8.160   0.440  3.09329E-01  4.77446E-01 -1.68117E-01
    8989.624     -8.020   0.480  3.21156E-01  4.98256E-01 -1.77099E-01
    8989.776     -7.868   0.520  3.29907E-01  5.18410E-01 -1.88504E-01
    8989.941     -7.703   0.560  3.35193E-01  5.37786E-01 -2.02594E-01
    8990.117     -7.526   0.600  3.37579E-01  5.56351E-01 -2.18772E-01
    8990.306     -7.337   0.640  3.38335E-01  5.74164E-01 -2.35829E-01
    8990.508     -7.136   0.680  3.38675E-01  5.91304E-01 -2.52629E-01
    8990.721     -6.923   0.720  3.39207E-01  6.07884E-01 -2.68677E-01
    8990.947     -6.697   0.760  3.39774E-01  6.23954E-01 -2.84180E-01
    8991.184     -6.459   0.800  3.40297E-01  6.39637E-01 -2.99340E-01
    8991.434     -6.209   0.840  3.41472E-01  6.55001E-01 -3.13529E-01
    8991.696     -5.947   0.880  3.45001E-01  6.70079E-01 -3.25079E-01
    8991.971     -5.673   0.920  3.52558E-01  6.84934E-01 -3.32376E-01
    8992.257     -5.387   0.960  3.64362E-01  6.99571E-01 -3.35209E-01
    8992.556     -5.088   1.000  3.78933E-01  7.14027E-01 -3.35094E-01
    8992.867     -4.777   1.040  3.93966E-01  7.28309E-01 -3.34343E-01
    8993.190     -4.454   1.080  4.08050E-01  7.42399E-01 -3.34348E-01
    8993.525     -4.119   1.120  4.20775E-01  7.56307E-01 -3.35533E-01
    8993.873     -3.771   1.160  4.32796E-01  7.69982E-01 -3.37186E-01
    8994.232     -3.411   1.200  4.48418E-01  7.83469E-01 -3.35051E-01
    8994.604     -3.040   1.240  4.74392E-01  7.96686E-01 -3.22294E-01
    8994.988     -2.656   1.280  5.15436E-01  8.09653E-01 -2.94217E-01
    8995.384     -2.259   1.320  5.71705E-01  8.22323E-01 -2.50619E-01
    8995.793     -1.851   1.360  6.35996E-01  8.34693E-01 -1.98697E-01
    8996.213     -1.430   1.400  6.89835E-01  8.46737E-01 -1.56901E-01
    8996.646     -0.997   1.440  7.20106E-01  8.58406E-01 -1.38301E-01
    8997.091     -0.552   1.480  7.38180E-01  8.69696E-01 -1.31516E-01
    8997.548     -0.095   1.520  7.64916E-01  8.80620E-01 -1.15703E-01
    8998.018      0.374   1.560  8.10155E-01  8.91111E-01 -8.09563E-02
    8998.499      0.856   1.600  8.72170E-01  9.01165E-01 -2.89949E-02
    8998.993      1.350   1.640  9.42174E-01  9.10777E-01  3.13975E-02
    8999.499      1.856   1.680  1.00992E+00  9.19963E-01  8.99593E-02
    9000.017      2.374   1.720  1.06862E+00  9.28662E-01  1.39963E-01
    9000.548      2.904   1.760  1.11688E+00  9.36913E-01  1.79964E-01
    9001.090      3.447   1.800  1.17022E+00  9.44673E-01  2.25546E-01
    9001.645      4.001   1.840  1.23858E+00  9.51984E-01  2.86593E-01
    9002.212      4.568   1.880  1.29605E+00  9.58810E-01  3.37243E-01
    9002.791      5.147   1.920  1.31382E+00  9.65191E-01  3.48625E-01
    9003.382      5.739   1.960  1.30215E+00  9.71091E-01  3.31058E-01
    9003.986      6.342   2.000  1.28742E+00  9.76557E-01  3.10866E-01
    9004.602      6.958   2.040  1.28006E+00  9.81571E-01  2.98485E-01
    9005.229      7.586   2.080  1.27916E+00  9.86161E-01  2.92996E-01
    9005.869      8.226   2.120  1.28110E+00  9.90314E-01  2.90784E-01
    9006.522      8.878   2.160  1.28024E+00  9.94077E-01  2.86158E-01
    9007.186      9.543   2.200  1.26974E+00  9.97460E-01  2.72285E-01
    9007.863     10.219   2.240  1.24376E+00  1.00047E+00  2.43288E-01
    9008.552     10.908   2.280  1.20968E+00  1.00311E+00  2.06568E-01
    9009.253     11.609   2.320  1.18195E+00  1.00542E+00  1.76533E-01
    9009.966     12.322   2.360  1.16573E+00  1.00740E+00  1.58329E-01
    9010.691     13.048   2.400  1.15579E+00  1.00906E+00  1.46728E-01
    9011.429     13.785   2.440  1.14199E+00  1.01046E+00  1.31533E-01
    9012.179     14.535   2.480  1.11933E+00  1.01157E+00  1.07757E-01
    9012.941     15.297   2.520  1.09604E+00  1.01244E+00  8.36001E-02
    9013.715     16.071   2.560  1.08219E+00  1.01308E+00  6.91068E-02
    9014.501     16.858   2.600  1.07323E+00  1.01350E+00  5.97298E-02
    9015.300     17.656   2.640  1.06166E+00  1.01373E+00  4.79256E-02
    9016.111     18.467   2.680  1.04421E+00  1.01377E+00  3.04418E-02
    9016.934     19.290   2.720  1.02179E+00  1.01366E+00  8.12959E-03
    9017.769     20.125   2.760  9.97304E-01  1.01338E+00 -1.60738E-02
    9018.616     20.972   2.800  9.73402E-01  1.01298E+00 -3.95822E-02
    9019.476     21.832   2.840  9.51510E-01  1.01245E+00 -6.09383E-02
    9020.347     22.704   2.880  9.32293E-01  1.01184E+00 -7.95459E-02
    9021.231     23.588   2.920  9.15669E-01  1.01112E+00 -9.54520E-02
    9022.127     24.484   2.960  9.01694E-01  1.01032E+00 -1.08626E-01
    9023.036     25.392   3.000  8.90374E-01  1.00944E+00 -1.19068E-01
    9023.956     26.313   3.040  8.81564E-01  1.00851E+00 -1.26951E-01
    9024.889     27.245   3.080  8.74898E-01  1.00755E+00 -1.32649E-01
    9025.834     28.190   3.120  8.70213E-01  1.00656E+00 -1.36348E-01
    9026.791     29.147   3.160  8.67135E-01  1.00554E+00 -1.38405E-01
    9027.760     30.116   3.200  8.65517E-01  1.00449E+00 -1.38973E-01
    9028.742     31.098   3.240  8.65625E-01  1.00346E+00 -1.37831E-01
    9029.735     32.092   3.280  8.67742E-01  1.00240E+00 -1.34657E-01
    9030.741     33.097   3.320  8.72060E-01  1.00137E+00 -1.29306E-01
    9031.759     34.115   3.360  8.78465E-01  1.00034E+00 -1.21874E-01
    9032.789     35.146   3.400  8.86603E-01  9.99320E-01 -1.12718E-01
    9033.832     36.188   3.440  8.95766E-01  9.98354E-01 -1.02588E-01
    9034.886     37.243   3.480  9.05269E-01  9.97404E-01 -9.21343E-02
    9035.953     38.309   3.520  9.14699E-01  9.96490E-01 -8.17917E-02
    9037.032     39.388   3.560  9.23849E-01  9.95615E-01 -7.17655E-02
    9038.123     40.480   3.600  9.32753E-01  9.94781E-01 -6.20279E-02
    9039.227     41.583   3.640  9.41848E-01  9.94010E-01 -5.21614E-02
    9040.342     42.699   3.680  9.51678E-01  9.93261E-01 -4.15836E-02
    9041.470     43.826   3.720  9.62710E-01  9.92578E-01 -2.98675E-02
    9042.610     44.966   3.760  9.75071E-01  9.91939E-01 -1.68689E-02
    9043.762     46.118   3.800  9.88679E-01  9.91368E-01 -2.68950E-03
    9044.926     47.283   3.840  1.00295E+00  9.90822E-01  1.21245E-02
    9046.103     48.459   3.880  1.01713E+00  9.90365E-01  2.67664E-02
    9047.292     49.648   3.920  1.03034E+00  9.89936E-01  4.04043E-02
    9048.493     50.849   3.960  1.04180E+00  9.89595E-01  5.22051E-02
    9049.706     52.062   4.000  1.05072E+00  9.89279E-01  6.14371E-02
    9050.931     53.287   4.040  1.05661E+00  9.89032E-01  6.75762E-02
    9052.168     54.525   4.080  1.05917E+00  9.88832E-01  7.03351E-02
    9053.418     55.774   4.120  1.05834E+00  9.88699E-01  6.96364E-02
    9054.680     57.036   4.160  1.05439E+00  9.88613E-01  6.57772E-02
    9055.954     58.310   4.200  1.04801E+00  9.88569E-01  5.94382E-02
    9057.240     59.597   4.240  1.04015E+00  9.88591E-01  5.15626E-02
    9058.539     60.895   4.280  1.03187E+00  9.88636E-01  4.32330E-02
    9059.849     62.206   4.320  1.02419E+00  9.88743E-01  3.54453E-02
    9061.172     63.528   4.360  1.01776E+00  9.88892E-01  2.88689E-02
    9062.507     64.863   4.400  1.01296E+00  9.89081E-01  2.38776E-02
    9063.854     66.211   4.440  1.01015E+00  9.89307E-01  2.08448E-02
    9065.214     67.570   4.480  1.00971E+00  9.89549E-01  2.01567E-02
    9066.585     68.942   4.520  1.01191E+00  9.89848E-01  2.20641E-02
    9067.969     70.325   4.560  1.01658E+00  9.90161E-01  2.64188E-02
    9069.365     71.721   4.600  1.02315E+00  9.90508E-01  3.26371E-02
    9070.773     73.130   4.640  1.03074E+00  9.90888E-01  3.98476E-02
    9072.194     74.550   4.680  1.03837E+00  9.91276E-01  4.70942E-02
    9073.626     75.983   4.720  1.04512E+00  9.91670E-01  5.34536E-02
    9075.071     77.427   4.760  1.05008E+00  9.92092E-01  5.79897E-02
    9076.528     78.884   4.800  1.05232E+00  9.92520E-01  5.97978E-02
    9077.997     80.353   4.840  1.05116E+00  9.92973E-01  5.81892E-02
    9079.478     81.835   4.880  1.04642E+00  9.93406E-01  5.30139E-02
    9080.972     83.328   4.920  1.03870E+00  9.93858E-01  4.48444E-02
    9082.478     84.834   4.960  1.02906E+00  9.94288E-01  3.47685E-02
    9083.995     86.352   5.000  1.01876E+00  9.94716E-01  2.40464E-02
    9085.526     87.882   5.040  1.00886E+00  9.95163E-01  1.36947E-02
    9087.068     89.424   5.080  9.99805E-01  9.95583E-01  4.22242E-03
    9088.622     90.979   5.120  9.91609E-01  9.95974E-01 -4.36516E-03
    9090.189     92.545   5.160  9.83953E-01  9.96380E-01 -1.24279E-02
    9091.768     94.124   5.200  9.76422E-01  9.96756E-01 -2.03335E-02
    9093.359     95.715   5.240  9.68797E-01  9.97099E-01 -2.83020E-02
    9094.962     97.318   5.280  9.61107E-01  9.97430E-01 -3.63230E-02
    9096.578     98.934   5.320  9.53560E-01  9.97730E-01 -4.41696E-02
    9098.205    100.562   5.360  9.46559E-01  9.98017E-01 -5.14573E-02
    9099.845    102.201   5.400  9.40513E-01  9.98267E-01 -5.77538E-02
    9101.497    103.853   5.440  9.35738E-01  9.98481E-01 -6.27438E-02
    9103.161    105.518   5.480  9.32316E-01  9.98658E-01 -6.63416E-02
    9104.838    107.194   5.520  9.30241E-01  9.98819E-01 -6.85777E-02
    9106.526    108.883   5.560  9.29573E-01  9.98920E-01 -6.93466E-02
    9108.227    110.583   5.600  9.30730E-01  9.99004E-01 -6.82741E-02
    9109.940    112.296   5.640  9.34236E-01  9.99051E-01 -6.48148E-02
    9111.665    114.021   5.680  9.40606E-01  9.99059E-01 -5.84526E-02
    9113.402    115.759   5.720  9.50120E-01  9.99028E-01 -4.89086E-02
    9115.152    117.508   5.760  9.62745E-01  9.98961E-01 -3.62151E-02
    9116.914    119.270   5.800  9.78082E-01  9.98877E-01 -2.07943E-02
    9118.688    121.044   5.840  9.95090E-01  9.98731E-01 -3.64144E-03
    9120.474    122.830   5.880  1.01206E+00  9.98548E-01  1.35094E-02
    9122.272    124.628   5.920  1.02668E+00  9.98354E-01  2.83284E-02
    9124.083    126.439   5.960  1.03656E+00  9.98123E-01  3.84409E-02
    9125.905    128.262   6.000  1.04001E+00  9.97802E-01  4.22114E-02
