# # comment:                                                     FEFF 9.9.1  
# # Source:
# # Structure
# # Reduced
# # space
# # abc:
# # angles:
# # sites:
# # POT  SCF 100  7.0000   0, screened core-hole, AFOLP (folp(0)= 1.150)
# # Abs   Z=29 Rmt= 1.270 Rnm= 1.351 K  shell
# # Pot 1 Z=25 Rmt= 1.308 Rnm= 1.411
# # Pot 2 Z=29 Rmt= 1.275 Rnm= 1.331
# # Pot 3 Z= 8 Rmt= 1.045 Rnm= 1.108
# # Gam_ch=1.729E+00 H-L exch Vi= 0.000E+00 Vr= 0.000E+00
# # Mu=-1.053E+01eV kf=2.165E+00 Vint=-1.814E+01eV Rs_int= 1.675
# FMS rfms= 9.0000
# # PATH  Rmax=-1.000,  Keep_limit= 0.00, Heap_limit 0.00  Pwcrit= 2.50%
#  S02=0.950  Temp=   0.00  Debye_temp=   0.00  Global_sig2= 0.00000
#  Energy zero shift, vr, vi    0.00000E+00   0.00000E+00
#  Curved wave amplitude ratio filter   4.000%
#     file         sig2 tot  cw amp ratio   deg  nlegs   reff  inp sig2
#     0/   0 paths used
#  xsedge+ 50, used to normalize mu           2.5075E-04
#  -----------------------------------------------------------------------
#  omega    e    k    mu    mu0     chi     @#
    8984.062    -14.344  -1.000  3.12537E-02  4.48215E-02 -1.35678E-02
    8984.361    -14.045  -0.960  3.27268E-02  4.78317E-02 -1.51050E-02
    8984.648    -13.758  -0.920  3.43062E-02  5.11580E-02 -1.68518E-02
    8984.922    -13.484  -0.880  3.60045E-02  5.48455E-02 -1.88409E-02
    8985.184    -13.222  -0.840  3.78365E-02  5.89465E-02 -2.11100E-02
    8985.434    -12.972  -0.800  3.98192E-02  6.35217E-02 -2.37025E-02
    8985.672    -12.734  -0.760  4.19722E-02  6.86404E-02 -2.66682E-02
    8985.897    -12.509  -0.720  4.43177E-02  7.43808E-02 -3.00631E-02
    8986.111    -12.295  -0.680  4.68802E-02  8.08288E-02 -3.39486E-02
    8986.312    -12.094  -0.640  4.96852E-02  8.80747E-02 -3.83894E-02
    8986.501    -11.905  -0.600  5.27574E-02  9.62069E-02 -4.34495E-02
    8986.678    -11.728  -0.560  5.61158E-02  1.05300E-01 -4.91844E-02
    8986.842    -11.564  -0.520  5.97676E-02  1.15398E-01 -5.56305E-02
    8986.995    -11.411  -0.480  6.36992E-02  1.26488E-01 -6.27891E-02
    8987.135    -11.271  -0.440  6.78656E-02  1.38474E-01 -7.06082E-02
    8987.263    -11.143  -0.400  7.21835E-02  1.51150E-01 -7.89665E-02
    8987.379    -11.027  -0.360  7.65313E-02  1.64196E-01 -8.76647E-02
    8987.482    -10.924  -0.320  8.07616E-02  1.77195E-01 -9.64339E-02
    8987.574    -10.832  -0.280  8.47238E-02  1.89685E-01 -1.04962E-01
    8987.653    -10.753  -0.240  8.82890E-02  2.01219E-01 -1.12930E-01
    8987.720    -10.686  -0.200  9.13654E-02  2.11420E-01 -1.20054E-01
    8987.775    -10.631  -0.160  9.39005E-02  2.20009E-01 -1.26109E-01
    8987.818    -10.589  -0.120  9.58706E-02  2.26807E-01 -1.30936E-01
    8987.848    -10.558  -0.080  9.72682E-02  2.31709E-01 -1.34441E-01
    8987.872    -10.534   0.000  9.83643E-02  2.35652E-01 -1.37287E-01
    8987.927    -10.479   0.120  1.00996E-01  2.44550E-01 -1.43554E-01
    8987.970    -10.436   0.160  1.03008E-01  2.51479E-01 -1.48472E-01
    8988.025    -10.381   0.200  1.05559E-01  2.60347E-01 -1.54788E-01
    8988.092    -10.314   0.240  1.08616E-01  2.71040E-01 -1.62424E-01
    8988.171    -10.235   0.280  1.12179E-01  2.83388E-01 -1.71209E-01
    8988.263    -10.143   0.320  1.16227E-01  2.97083E-01 -1.80856E-01
    8988.366    -10.040   0.360  1.20852E-01  3.11792E-01 -1.90940E-01
    8988.482     -9.924   0.400  1.26207E-01  3.27139E-01 -2.00932E-01
    8988.610     -9.796   0.440  1.32487E-01  3.42760E-01 -2.10273E-01
    8988.750     -9.656   0.480  1.39921E-01  3.58368E-01 -2.18447E-01
    8988.903     -9.503   0.520  1.48619E-01  3.73837E-01 -2.25218E-01
    8989.067     -9.339   0.560  1.58335E-01  3.89072E-01 -2.30737E-01
    8989.244     -9.162   0.600  1.68340E-01  4.04049E-01 -2.35709E-01
    8989.433     -8.973   0.640  1.77359E-01  4.18831E-01 -2.41472E-01
    8989.634     -8.772   0.680  1.83712E-01  4.33443E-01 -2.49730E-01
    8989.847     -8.559   0.720  1.86428E-01  4.47981E-01 -2.61553E-01
    8990.073     -8.333   0.760  1.86449E-01  4.62498E-01 -2.76050E-01
    8990.311     -8.095   0.800  1.86536E-01  4.77042E-01 -2.90506E-01
    8990.561     -7.845   0.840  1.89718E-01  4.91690E-01 -3.01972E-01
    8990.823     -7.583   0.880  1.98123E-01  5.06430E-01 -3.08307E-01
    8991.097     -7.309   0.920  2.13453E-01  5.21341E-01 -3.07888E-01
    8991.384     -7.022   0.960  2.37610E-01  5.36410E-01 -2.98800E-01
    8991.682     -6.724   1.000  2.72632E-01  5.51642E-01 -2.79009E-01
    8991.993     -6.413   1.040  3.19086E-01  5.67030E-01 -2.47944E-01
    8992.316     -6.090   1.080  3.72959E-01  5.82601E-01 -2.09642E-01
    8992.652     -5.754   1.120  4.22611E-01  5.98302E-01 -1.75690E-01
    8992.999     -5.407   1.160  4.51319E-01  6.14131E-01 -1.62812E-01
    8993.359     -5.047   1.200  4.52747E-01  6.30044E-01 -1.77297E-01
    8993.731     -4.675   1.240  4.41491E-01  6.46053E-01 -2.04561E-01
    8994.115     -4.291   1.280  4.34105E-01  6.62089E-01 -2.27984E-01
    8994.511     -3.895   1.320  4.36131E-01  6.78139E-01 -2.42008E-01
    8994.919     -3.487   1.360  4.50171E-01  6.94170E-01 -2.43999E-01
    8995.340     -3.066   1.400  4.79571E-01  7.10127E-01 -2.30556E-01
    8995.773     -2.633   1.440  5.24673E-01  7.25974E-01 -2.01301E-01
    8996.218     -2.188   1.480  5.82821E-01  7.41694E-01 -1.58873E-01
    8996.675     -1.731   1.520  6.49015E-01  7.57230E-01 -1.08215E-01
    8997.144     -1.262   1.560  7.10331E-01  7.72564E-01 -6.22329E-02
    8997.626     -0.780   1.600  7.45931E-01  7.87620E-01 -4.16890E-02
    8998.120     -0.286   1.640  7.46125E-01  8.02400E-01 -5.62757E-02
    8998.626      0.220   1.680  7.30716E-01  8.16848E-01 -8.61319E-02
    8999.144      0.738   1.720  7.29814E-01  8.30947E-01 -1.01133E-01
    8999.674      1.268   1.760  7.60201E-01  8.44642E-01 -8.44418E-02
    9000.217      1.811   1.800  8.34300E-01  8.57900E-01 -2.35997E-02
    9000.771      2.365   1.840  9.70125E-01  8.70726E-01  9.93986E-02
    9001.338      2.932   1.880  1.16862E+00  8.83069E-01  2.85554E-01
    9001.918      3.511   1.920  1.36191E+00  8.94900E-01  4.67013E-01
    9002.509      4.103   1.960  1.42483E+00  9.06250E-01  5.18578E-01
    9003.112      4.706   2.000  1.34063E+00  9.17029E-01  4.23601E-01
    9003.728      5.322   2.040  1.23781E+00  9.27292E-01  3.10523E-01
    9004.356      5.950   2.080  1.18813E+00  9.36974E-01  2.51151E-01
    9004.996      6.590   2.120  1.17333E+00  9.46113E-01  2.27220E-01
    9005.648      7.242   2.160  1.17950E+00  9.54686E-01  2.24816E-01
    9006.313      7.907   2.200  1.21383E+00  9.62672E-01  2.51159E-01
    9006.989      8.583   2.240  1.25486E+00  9.70112E-01  2.84749E-01
    9007.678      9.272   2.280  1.26218E+00  9.76969E-01  2.85215E-01
    9008.379      9.973   2.320  1.23241E+00  9.83285E-01  2.49120E-01
    9009.092     10.686   2.360  1.18085E+00  9.89026E-01  1.91824E-01
    9009.818     11.412   2.400  1.10550E+00  9.94256E-01  1.11240E-01
    9010.556     12.149   2.440  1.02448E+00  9.98964E-01  2.55184E-02
    9011.305     12.899   2.480  9.75327E-01  1.00316E+00 -2.78286E-02
    9012.067     13.661   2.520  9.55981E-01  1.00684E+00 -5.08580E-02
    9012.842     14.435   2.560  9.53351E-01  1.01006E+00 -5.67116E-02
    9013.628     15.222   2.600  9.69889E-01  1.01282E+00 -4.29290E-02
    9014.426     16.020   2.640  9.91236E-01  1.01515E+00 -2.39181E-02
    9015.237     16.831   2.680  1.00706E+00  1.01706E+00 -9.99728E-03
    9016.060     17.654   2.720  1.01181E+00  1.01859E+00 -6.77824E-03
    9016.895     18.489   2.760  1.00724E+00  1.01974E+00 -1.24989E-02
    9017.743     19.337   2.800  9.99478E-01  1.02054E+00 -2.10626E-02
    9018.602     20.196   2.840  9.93160E-01  1.02100E+00 -2.78416E-02
    9019.474     21.068   2.880  9.89111E-01  1.02117E+00 -3.20568E-02
    9020.358     21.952   2.920  9.85884E-01  1.02103E+00 -3.51469E-02
    9021.254     22.848   2.960  9.80852E-01  1.02066E+00 -3.98122E-02
    9022.162     23.756   3.000  9.71716E-01  1.02004E+00 -4.83213E-02
    9023.083     24.677   3.040  9.58047E-01  1.01920E+00 -6.11515E-02
    9024.015     25.609   3.080  9.41682E-01  1.01816E+00 -7.64775E-02
    9024.960     26.554   3.120  9.25293E-01  1.01695E+00 -9.16586E-02
    9025.917     27.511   3.160  9.10725E-01  1.01556E+00 -1.04839E-01
    9026.887     28.481   3.200  8.98913E-01  1.01407E+00 -1.15153E-01
    9027.868     29.462   3.240  8.89993E-01  1.01243E+00 -1.22432E-01
    9028.862     30.456   3.280  8.83874E-01  1.01069E+00 -1.26817E-01
    9029.868     31.462   3.320  8.80422E-01  1.00885E+00 -1.28431E-01
    9030.886     32.480   3.360  8.79667E-01  1.00696E+00 -1.27292E-01
    9031.916     33.510   3.400  8.81175E-01  1.00502E+00 -1.23840E-01
    9032.958     34.552   3.440  8.84570E-01  1.00301E+00 -1.18441E-01
    9034.013     35.607   3.480  8.89680E-01  1.00099E+00 -1.11313E-01
    9035.080     36.674   3.520  8.96372E-01  9.98966E-01 -1.02594E-01
    9036.159     37.753   3.560  9.04472E-01  9.96916E-01 -9.24435E-02
    9037.250     38.844   3.600  9.14084E-01  9.94891E-01 -8.08070E-02
    9038.353     39.947   3.640  9.25353E-01  9.92895E-01 -6.75422E-02
    9039.469     41.063   3.680  9.38302E-01  9.90912E-01 -5.26102E-02
    9040.596     42.190   3.720  9.52760E-01  9.88966E-01 -3.62066E-02
    9041.736     43.330   3.760  9.68200E-01  9.87062E-01 -1.88618E-02
    9042.889     44.483   3.800  9.83860E-01  9.85223E-01 -1.36327E-03
    9044.053     45.647   3.840  9.99284E-01  9.83433E-01  1.58515E-02
    9045.229     46.823   3.880  1.01449E+00  9.81714E-01  3.27746E-02
    9046.418     48.012   3.920  1.02942E+00  9.80051E-01  4.93722E-02
    9047.619     49.213   3.960  1.04372E+00  9.78487E-01  6.52310E-02
    9048.832     50.426   4.000  1.05664E+00  9.77003E-01  7.96372E-02
    9050.057     51.651   4.040  1.06733E+00  9.75601E-01  9.17290E-02
    9051.295     52.889   4.080  1.07516E+00  9.74279E-01  1.00877E-01
    9052.545     54.139   4.120  1.08030E+00  9.73043E-01  1.07258E-01
    9053.806     55.400   4.160  1.08360E+00  9.71913E-01  1.11690E-01
    9055.081     56.674   4.200  1.08608E+00  9.70870E-01  1.15206E-01
    9056.367     57.961   4.240  1.08876E+00  9.69935E-01  1.18822E-01
    9057.665     59.259   4.280  1.09209E+00  9.69085E-01  1.23006E-01
    9058.976     60.570   4.320  1.09494E+00  9.68323E-01  1.26615E-01
    9060.299     61.893   4.360  1.09404E+00  9.67668E-01  1.26372E-01
    9061.634     63.228   4.400  1.08532E+00  9.67100E-01  1.18225E-01
    9062.981     64.575   4.440  1.06650E+00  9.66642E-01  9.98630E-02
    9064.340     65.934   4.480  1.03864E+00  9.66270E-01  7.23665E-02
    9065.712     67.306   4.520  1.00561E+00  9.66005E-01  3.96057E-02
    9067.096     68.690   4.560  9.72042E-01  9.65825E-01  6.21658E-03
    9068.492     70.086   4.600  9.41652E-01  9.65726E-01 -2.40746E-02
    9069.900     71.494   4.640  9.16764E-01  9.65708E-01 -4.89442E-02
    9071.320     72.914   4.680  8.98462E-01  9.65770E-01 -6.73086E-02
    9072.753     74.347   4.720  8.86957E-01  9.65911E-01 -7.89540E-02
    9074.197     75.791   4.760  8.81980E-01  9.66130E-01 -8.41492E-02
    9075.654     77.248   4.800  8.83079E-01  9.66425E-01 -8.33465E-02
    9077.124     78.718   4.840  8.89772E-01  9.66795E-01 -7.70224E-02
    9078.605     80.199   4.880  9.01625E-01  9.67215E-01 -6.55907E-02
    9080.098     81.692   4.920  9.18177E-01  9.67705E-01 -4.95287E-02
    9081.604     83.198   4.960  9.38463E-01  9.68242E-01 -2.97787E-02
    9083.122     84.716   5.000  9.60349E-01  9.68843E-01 -8.49330E-03
    9084.652     86.246   5.040  9.80321E-01  9.69465E-01  1.08562E-02
    9086.194     87.788   5.080  9.94868E-01  9.70146E-01  2.47217E-02
    9087.749     89.343   5.120  1.00224E+00  9.70844E-01  3.13935E-02
    9089.316     90.909   5.160  1.00337E+00  9.71575E-01  3.17997E-02
    9090.894     92.488   5.200  1.00062E+00  9.72337E-01  2.82816E-02
    9092.485     94.079   5.240  9.95885E-01  9.73106E-01  2.27789E-02
    9094.089     95.683   5.280  9.89872E-01  9.73881E-01  1.59908E-02
    9095.704     97.298   5.320  9.82383E-01  9.74680E-01  7.70335E-03
    9097.332     98.926   5.360  9.73070E-01  9.75459E-01 -2.38908E-03
    9098.972    100.565   5.400  9.62244E-01  9.76257E-01 -1.40128E-02
    9100.624    102.218   5.440  9.50984E-01  9.77030E-01 -2.60452E-02
    9102.288    103.882   5.480  9.40859E-01  9.77796E-01 -3.69368E-02
    9103.964    105.558   5.520  9.32938E-01  9.78554E-01 -4.56165E-02
    9105.653    107.247   5.560  9.27129E-01  9.79279E-01 -5.21501E-02
    9107.353    108.947   5.600  9.22499E-01  9.79966E-01 -5.74670E-02
    9109.066    110.660   5.640  9.18015E-01  9.80615E-01 -6.26001E-02
    9110.792    112.386   5.680  9.13105E-01  9.81226E-01 -6.81203E-02
    9112.529    114.123   5.720  9.07957E-01  9.81819E-01 -7.38623E-02
    9114.279    115.872   5.760  9.03723E-01  9.82346E-01 -7.86233E-02
    9116.040    117.634   5.800  9.02393E-01  9.82827E-01 -8.04346E-02
    9117.814    119.408   5.840  9.05653E-01  9.83238E-01 -7.75851E-02
    9119.600    121.194   5.880  9.14200E-01  9.83600E-01 -6.94001E-02
    9121.399    122.993   5.920  9.27915E-01  9.83913E-01 -5.59981E-02
    9123.209    124.803   5.960  9.46357E-01  9.84141E-01 -3.77837E-02
    9125.032    126.626   6.000  9.69654E-01  9.84285E-01 -1.46317E-02
