# # comment:                                                     FEFF 9.9.1  
# # Source:
# # Structure
# # Reduced
# # space
# # abc:
# # angles:
# # sites:
# # POT  SCF 100  7.0000   0, screened core-hole, AFOLP (folp(0)= 1.150)
# # Abs   Z=29 Rmt= 1.283 Rnm= 1.353 K  shell
# # Pot 1 Z= 3 Rmt= 1.370 Rnm= 1.436
# # Pot 2 Z=29 Rmt= 1.295 Rnm= 1.364
# # Pot 3 Z=15 Rmt= 0.938 Rnm= 1.154
# # Pot 4 Z= 8 Rmt= 0.882 Rnm= 1.041
# # Gam_ch=1.729E+00 H-L exch Vi= 0.000E+00 Vr= 0.000E+00
# # Mu=-5.946E+00eV kf=2.443E+00 Vint=-1.681E+01eV Rs_int= 1.485
# FMS rfms= 9.0000
# # PATH  Rmax=-1.000,  Keep_limit= 0.00, Heap_limit 0.00  Pwcrit= 2.50%
#  S02=0.950  Temp=   0.00  Debye_temp=   0.00  Global_sig2= 0.00000
#  Energy zero shift, vr, vi    0.00000E+00   0.00000E+00
#  Curved wave amplitude ratio filter   4.000%
#     file         sig2 tot  cw amp ratio   deg  nlegs   reff  inp sig2
#     0/   0 paths used
#  xsedge+ 50, used to normalize mu           2.4812E-04
#  -----------------------------------------------------------------------
#  omega    e    k    mu    mu0     chi     @#
    8983.325     -9.756  -1.000  4.55917E-02  5.40058E-02 -8.41413E-03
    8983.624     -9.457  -0.960  4.85244E-02  5.79717E-02 -9.44726E-03
    8983.910     -9.171  -0.920  5.17578E-02  6.23845E-02 -1.06267E-02
    8984.185     -8.896  -0.880  5.53355E-02  6.73108E-02 -1.19753E-02
    8984.447     -8.634  -0.840  5.93083E-02  7.28283E-02 -1.35200E-02
    8984.697     -8.384  -0.800  6.37349E-02  7.90268E-02 -1.52918E-02
    8984.934     -8.146  -0.760  6.86830E-02  8.60097E-02 -1.73267E-02
    8985.160     -7.921  -0.720  7.42287E-02  9.38941E-02 -1.96654E-02
    8985.373     -7.707  -0.680  8.04558E-02  1.02809E-01 -2.23529E-02
    8985.574     -7.506  -0.640  8.74529E-02  1.12890E-01 -2.54372E-02
    8985.763     -7.317  -0.600  9.53063E-02  1.24272E-01 -2.89658E-02
    8985.940     -7.141  -0.560  1.04090E-01  1.37070E-01 -3.29802E-02
    8986.105     -6.976  -0.520  1.13845E-01  1.51352E-01 -3.75063E-02
    8986.257     -6.824  -0.480  1.24563E-01  1.67104E-01 -4.25414E-02
    8986.397     -6.683  -0.440  1.36148E-01  1.84188E-01 -4.80399E-02
    8986.525     -6.555  -0.400  1.48404E-01  2.02304E-01 -5.38993E-02
    8986.641     -6.440  -0.360  1.61024E-01  2.20980E-01 -5.99560E-02
    8986.745     -6.336  -0.320  1.73608E-01  2.39604E-01 -6.59960E-02
    8986.836     -6.244  -0.280  1.85715E-01  2.57496E-01 -7.17810E-02
    8986.916     -6.165  -0.240  1.96921E-01  2.74005E-01 -7.70844E-02
    8986.983     -6.098  -0.200  2.06863E-01  2.88586E-01 -8.17232E-02
    8987.037     -6.043  -0.160  2.15269E-01  3.00843E-01 -8.55745E-02
    8987.080     -6.001  -0.120  2.21950E-01  3.10526E-01 -8.85762E-02
    8987.111     -5.970  -0.080  2.26784E-01  3.17497E-01 -9.07130E-02
    8987.135     -5.946   0.000  2.30670E-01  3.23096E-01 -9.24257E-02
    8987.190     -5.891   0.120  2.39496E-01  3.35709E-01 -9.62126E-02
    8987.233     -5.848   0.160  2.46463E-01  3.45501E-01 -9.90384E-02
    8987.287     -5.793   0.200  2.55511E-01  3.57992E-01 -1.02481E-01
    8987.354     -5.726   0.240  2.66644E-01  3.72998E-01 -1.06354E-01
    8987.434     -5.647   0.280  2.79819E-01  3.90178E-01 -1.10359E-01
    8987.525     -5.556   0.320  2.94954E-01  4.09071E-01 -1.14117E-01
    8987.629     -5.452   0.360  3.11902E-01  4.29126E-01 -1.17224E-01
    8987.745     -5.336   0.400  3.30272E-01  4.49693E-01 -1.19422E-01
    8987.873     -5.208   0.440  3.49338E-01  4.70243E-01 -1.20905E-01
    8988.013     -5.068   0.480  3.67599E-01  4.90329E-01 -1.22730E-01
    8988.165     -4.916   0.520  3.82693E-01  5.09680E-01 -1.26987E-01
    8988.330     -4.751   0.560  3.91896E-01  5.28153E-01 -1.36256E-01
    8988.507     -4.574   0.600  3.93721E-01  5.45737E-01 -1.52015E-01
    8988.696     -4.385   0.640  3.89343E-01  5.62496E-01 -1.73153E-01
    8988.897     -4.184   0.680  3.82396E-01  5.78495E-01 -1.96099E-01
    8989.110     -3.971   0.720  3.77073E-01  5.93872E-01 -2.16799E-01
    8989.336     -3.745   0.760  3.76293E-01  6.08724E-01 -2.32431E-01
    8989.573     -3.507   0.800  3.81139E-01  6.23140E-01 -2.42001E-01
    8989.823     -3.257   0.840  3.91256E-01  6.37194E-01 -2.45938E-01
    8990.085     -2.995   0.880  4.05930E-01  6.50970E-01 -2.45040E-01
    8990.360     -2.721   0.920  4.25287E-01  6.64534E-01 -2.39247E-01
    8990.646     -2.434   0.960  4.49313E-01  6.77880E-01 -2.28566E-01
    8990.945     -2.136   1.000  4.74590E-01  6.91093E-01 -2.16503E-01
    8991.256     -1.825   1.040  4.94117E-01  7.04146E-01 -2.10030E-01
    8991.579     -1.502   1.080  5.04824E-01  7.17067E-01 -2.12243E-01
    8991.914     -1.167   1.120  5.11807E-01  7.29853E-01 -2.18047E-01
    8992.262     -0.819   1.160  5.23399E-01  7.42520E-01 -2.19121E-01
    8992.621     -0.459   1.200  5.45224E-01  7.55034E-01 -2.09809E-01
    8992.993     -0.088   1.240  5.78104E-01  7.67403E-01 -1.89298E-01
    8993.377      0.297   1.280  6.19537E-01  7.79608E-01 -1.60071E-01
    8993.773      0.693   1.320  6.66018E-01  7.91630E-01 -1.25612E-01
    8994.182      1.101   1.360  7.15759E-01  8.03466E-01 -8.77066E-02
    8994.603      1.522   1.400  7.70984E-01  8.15073E-01 -4.40891E-02
    8995.035      1.955   1.440  8.35814E-01  8.26445E-01  9.36884E-03
    8995.480      2.400   1.480  9.11136E-01  8.37559E-01  7.35771E-02
    8995.938      2.857   1.520  9.90002E-01  8.48428E-01  1.41575E-01
    8996.407      3.326   1.560  1.05929E+00  8.58985E-01  2.00306E-01
    8996.889      3.808   1.600  1.11410E+00  8.69225E-01  2.44879E-01
    8997.382      4.302   1.640  1.16715E+00  8.79163E-01  2.87991E-01
    8997.888      4.808   1.680  1.22134E+00  8.88754E-01  3.32590E-01
    8998.406      5.326   1.720  1.25098E+00  8.97991E-01  3.52985E-01
    8998.937      5.856   1.760  1.24701E+00  9.06851E-01  3.40160E-01
    8999.479      6.399   1.800  1.21515E+00  9.15370E-01  2.99779E-01
    9000.034      6.953   1.840  1.15522E+00  9.23485E-01  2.31738E-01
    9000.601      7.520   1.880  1.08235E+00  9.31214E-01  1.51140E-01
    9001.180      8.099   1.920  1.02548E+00  9.38536E-01  8.69455E-02
    9001.771      8.691   1.960  1.00280E+00  9.45490E-01  5.73151E-02
    9002.375      9.294   2.000  1.01286E+00  9.52015E-01  6.08420E-02
    9002.991      9.910   2.040  1.04192E+00  9.58173E-01  8.37480E-02
    9003.618     10.538   2.080  1.07650E+00  9.63926E-01  1.12576E-01
    9004.259     11.178   2.120  1.10780E+00  9.69275E-01  1.38524E-01
    9004.911     11.830   2.160  1.12944E+00  9.74244E-01  1.55194E-01
    9005.575     12.495   2.200  1.14120E+00  9.78838E-01  1.62358E-01
    9006.252     13.171   2.240  1.14888E+00  9.83060E-01  1.65824E-01
    9006.941     13.860   2.280  1.15549E+00  9.86913E-01  1.68579E-01
    9007.642     14.561   2.320  1.15836E+00  9.90425E-01  1.67936E-01
    9008.355     15.274   2.360  1.15686E+00  9.93581E-01  1.63284E-01
    9009.080     16.000   2.400  1.15760E+00  9.96408E-01  1.61194E-01
    9009.818     16.737   2.440  1.16263E+00  9.98930E-01  1.63695E-01
    9010.568     17.487   2.480  1.16394E+00  1.00114E+00  1.62806E-01
    9011.330     18.249   2.520  1.15355E+00  1.00305E+00  1.50494E-01
    9012.104     19.023   2.560  1.13066E+00  1.00469E+00  1.25973E-01
    9012.890     19.810   2.600  1.10444E+00  1.00607E+00  9.83721E-02
    9013.689     20.608   2.640  1.08590E+00  1.00720E+00  7.86975E-02
    9014.500     21.419   2.680  1.07411E+00  1.00812E+00  6.59937E-02
    9015.323     22.242   2.720  1.05737E+00  1.00877E+00  4.85953E-02
    9016.158     23.077   2.760  1.02819E+00  1.00925E+00  1.89369E-02
    9017.005     23.925   2.800  9.88616E-01  1.00955E+00 -2.09340E-02
    9017.865     24.784   2.840  9.48771E-01  1.00966E+00 -6.08873E-02
    9018.737     25.656   2.880  9.17694E-01  1.00960E+00 -9.19087E-02
    9019.620     26.540   2.920  8.94648E-01  1.00941E+00 -1.14763E-01
    9020.517     27.436   2.960  8.76567E-01  1.00907E+00 -1.32503E-01
    9021.425     28.344   3.000  8.61265E-01  1.00863E+00 -1.47362E-01
    9022.345     29.265   3.040  8.48408E-01  1.00805E+00 -1.59639E-01
    9023.278     30.197   3.080  8.38270E-01  1.00740E+00 -1.69126E-01
    9024.223     31.142   3.120  8.30860E-01  1.00664E+00 -1.75781E-01
    9025.180     32.099   3.160  8.26120E-01  1.00583E+00 -1.79709E-01
    9026.149     33.068   3.200  8.24033E-01  1.00494E+00 -1.80910E-01
    9027.131     34.050   3.240  8.24909E-01  1.00401E+00 -1.79103E-01
    9028.124     35.044   3.280  8.29349E-01  1.00304E+00 -1.73688E-01
    9029.130     36.049   3.320  8.37358E-01  1.00205E+00 -1.64687E-01
    9030.148     37.067   3.360  8.48934E-01  1.00100E+00 -1.52067E-01
    9031.178     38.098   3.400  8.63831E-01  9.99966E-01 -1.36136E-01
    9032.221     39.140   3.440  8.81244E-01  9.98906E-01 -1.17663E-01
    9033.275     40.195   3.480  9.00294E-01  9.97844E-01 -9.75497E-02
    9034.342     41.261   3.520  9.20091E-01  9.96805E-01 -7.67145E-02
    9035.421     42.340   3.560  9.39734E-01  9.95751E-01 -5.60176E-02
    9036.512     43.432   3.600  9.58477E-01  9.94747E-01 -3.62692E-02
    9037.616     44.535   3.640  9.76055E-01  9.93753E-01 -1.76982E-02
    9038.731     45.651   3.680  9.92613E-01  9.92793E-01 -1.80208E-04
    9039.859     46.778   3.720  1.00844E+00  9.91847E-01  1.65948E-02
    9040.999     47.918   3.760  1.02395E+00  9.90959E-01  3.29906E-02
    9042.151     49.070   3.800  1.03932E+00  9.90092E-01  4.92251E-02
    9043.315     50.235   3.840  1.05432E+00  9.89286E-01  6.50335E-02
    9044.492     51.411   3.880  1.06833E+00  9.88523E-01  7.98112E-02
    9045.681     52.600   3.920  1.08059E+00  9.87805E-01  9.27858E-02
    9046.882     53.801   3.960  1.09023E+00  9.87153E-01  1.03072E-01
    9048.095     55.014   4.000  1.09626E+00  9.86548E-01  1.09712E-01
    9049.320     56.239   4.040  1.09801E+00  9.85987E-01  1.12026E-01
    9050.557     57.477   4.080  1.09516E+00  9.85493E-01  1.09663E-01
    9051.807     58.726   4.120  1.08791E+00  9.85046E-01  1.02867E-01
    9053.069     59.988   4.160  1.07724E+00  9.84647E-01  9.25936E-02
    9054.343     61.262   4.200  1.06451E+00  9.84316E-01  8.01960E-02
    9055.629     62.549   4.240  1.05102E+00  9.84053E-01  6.69708E-02
    9056.928     63.847   4.280  1.03786E+00  9.83816E-01  5.40419E-02
    9058.238     65.158   4.320  1.02601E+00  9.83647E-01  4.23656E-02
    9059.561     66.481   4.360  1.01607E+00  9.83546E-01  3.25220E-02
    9060.896     67.816   4.400  1.00825E+00  9.83491E-01  2.47635E-02
    9062.243     69.163   4.440  1.00252E+00  9.83478E-01  1.90373E-02
    9063.603     70.522   4.480  9.98552E-01  9.83510E-01  1.50424E-02
    9064.974     71.894   4.520  9.95939E-01  9.83604E-01  1.23345E-02
    9066.358     73.278   4.560  9.94108E-01  9.83720E-01  1.03873E-02
    9067.754     74.674   4.600  9.92529E-01  9.83897E-01  8.63124E-03
    9069.162     76.082   4.640  9.90677E-01  9.84092E-01  6.58451E-03
    9070.583     77.502   4.680  9.88362E-01  9.84349E-01  4.01371E-03
    9072.015     78.935   4.720  9.85586E-01  9.84642E-01  9.44011E-04
    9073.460     80.379   4.760  9.82488E-01  9.84949E-01 -2.46015E-03
    9074.917     81.836   4.800  9.79320E-01  9.85288E-01 -5.96792E-03
    9076.386     83.305   4.840  9.76321E-01  9.85637E-01 -9.31592E-03
    9077.867     84.787   4.880  9.73900E-01  9.86018E-01 -1.21175E-02
    9079.361     86.280   4.920  9.72507E-01  9.86430E-01 -1.39231E-02
    9080.867     87.786   4.960  9.72396E-01  9.86849E-01 -1.44527E-02
    9082.385     89.304   5.000  9.73490E-01  9.87272E-01 -1.37818E-02
    9083.915     90.834   5.040  9.75336E-01  9.87721E-01 -1.23853E-02
    9085.457     92.376   5.080  9.77189E-01  9.88149E-01 -1.09600E-02
    9087.011     93.931   5.120  9.78453E-01  9.88601E-01 -1.01471E-02
    9088.578     95.497   5.160  9.78686E-01  9.89051E-01 -1.03645E-02
    9090.157     97.076   5.200  9.77701E-01  9.89476E-01 -1.17745E-02
    9091.748     98.667   5.240  9.75507E-01  9.89918E-01 -1.44111E-02
    9093.351    100.271   5.280  9.72066E-01  9.90333E-01 -1.82669E-02
    9094.967    101.886   5.320  9.67372E-01  9.90719E-01 -2.33469E-02
    9096.594    103.514   5.360  9.61473E-01  9.91117E-01 -2.96440E-02
    9098.234    105.153   5.400  9.54486E-01  9.91460E-01 -3.69743E-02
    9099.886    106.805   5.440  9.46958E-01  9.91794E-01 -4.48357E-02
    9101.550    108.470   5.480  9.39719E-01  9.92118E-01 -5.23987E-02
    9103.227    110.146   5.520  9.33668E-01  9.92407E-01 -5.87390E-02
    9104.915    111.835   5.560  9.29583E-01  9.92659E-01 -6.30752E-02
    9106.616    113.535   5.600  9.28041E-01  9.92873E-01 -6.48326E-02
    9108.329    115.248   5.640  9.29480E-01  9.93073E-01 -6.35928E-02
    9110.054    116.973   5.680  9.34116E-01  9.93211E-01 -5.90948E-02
    9111.792    118.711   5.720  9.42042E-01  9.93331E-01 -5.12890E-02
    9113.541    120.460   5.760  9.52997E-01  9.93391E-01 -4.03941E-02
    9115.303    122.222   5.800  9.66495E-01  9.93434E-01 -2.69396E-02
    9117.077    123.996   5.840  9.81641E-01  9.93438E-01 -1.17975E-02
    9118.863    125.782   5.880  9.97233E-01  9.93378E-01  3.85460E-03
    9120.661    127.580   5.920  1.01198E+00  9.93302E-01  1.86797E-02
    9122.472    129.391   5.960  1.02443E+00  9.93157E-01  3.12709E-02
    9124.294    131.214   6.000  1.03333E+00  9.92972E-01  4.03578E-02
