# # comment:                                                     FEFF 9.9.1  
# # Source:
# # Structure
# # Reduced
# # space
# # abc:
# # angles:
# # sites:
# # POT  SCF 100  7.0000   0, screened core-hole, AFOLP (folp(0)= 1.150)
# # Abs   Z=29 Rmt= 1.235 Rnm= 1.310 K  shell
# # Pot 1 Z=12 Rmt= 1.379 Rnm= 1.455
# # Pot 2 Z=25 Rmt= 1.068 Rnm= 1.274
# # Pot 3 Z=29 Rmt= 1.231 Rnm= 1.321
# # Pot 4 Z= 8 Rmt= 0.938 Rnm= 1.091
# # Gam_ch=1.729E+00 H-L exch Vi= 0.000E+00 Vr= 0.000E+00
# # Mu=-8.845E+00eV kf=2.243E+00 Vint=-1.677E+01eV Rs_int= 1.617
# FMS rfms= 9.0000
# # PATH  Rmax=-1.000,  Keep_limit= 0.00, Heap_limit 0.00  Pwcrit= 2.50%
#  S02=0.950  Temp=   0.00  Debye_temp=   0.00  Global_sig2= 0.00000
#  Energy zero shift, vr, vi    0.00000E+00   0.00000E+00
#  Curved wave amplitude ratio filter   4.000%
#     file         sig2 tot  cw amp ratio   deg  nlegs   reff  inp sig2
#     0/   0 paths used
#  xsedge+ 50, used to normalize mu           2.4571E-04
#  -----------------------------------------------------------------------
#  omega    e    k    mu    mu0     chi     @#
    8984.215    -12.655  -1.000  3.52681E-02  5.27329E-02 -1.74648E-02
    8984.513    -12.356  -0.960  3.70762E-02  5.65072E-02 -1.94311E-02
    8984.800    -12.069  -0.920  3.90322E-02  6.06953E-02 -2.16630E-02
    8985.074    -11.795  -0.880  4.11554E-02  6.53573E-02 -2.42019E-02
    8985.336    -11.533  -0.840  4.34678E-02  7.05632E-02 -2.70954E-02
    8985.586    -11.283  -0.800  4.59953E-02  7.63943E-02 -3.03990E-02
    8985.824    -11.045  -0.760  4.87671E-02  8.29434E-02 -3.41763E-02
    8986.050    -10.820  -0.720  5.18163E-02  9.03154E-02 -3.84991E-02
    8986.263    -10.606  -0.680  5.51790E-02  9.86257E-02 -4.34467E-02
    8986.464    -10.405  -0.640  5.88932E-02  1.07996E-01 -4.91028E-02
    8986.653    -10.216  -0.600  6.29955E-02  1.18545E-01 -5.55500E-02
    8986.830    -10.039  -0.560  6.75164E-02  1.30376E-01 -6.28592E-02
    8986.995     -9.875  -0.520  7.24725E-02  1.43546E-01 -7.10739E-02
    8987.147     -9.722  -0.480  7.78556E-02  1.58043E-01 -8.01873E-02
    8987.287     -9.582  -0.440  8.36212E-02  1.73739E-01 -9.01174E-02
    8987.415     -9.454  -0.400  8.96773E-02  1.90362E-01 -1.00685E-01
    8987.531     -9.338  -0.360  9.58819E-02  2.07487E-01 -1.11605E-01
    8987.635     -9.235  -0.320  1.02051E-01  2.24562E-01 -1.22510E-01
    8987.726     -9.143  -0.280  1.07980E-01  2.40970E-01 -1.32990E-01
    8987.805     -9.064  -0.240  1.13468E-01  2.56120E-01 -1.42652E-01
    8987.872     -8.997  -0.200  1.18344E-01  2.69515E-01 -1.51171E-01
    8987.927     -8.942  -0.160  1.22473E-01  2.80788E-01 -1.58315E-01
    8987.970     -8.899  -0.120  1.25763E-01  2.89704E-01 -1.63941E-01
    8988.000     -8.869  -0.080  1.28150E-01  2.96130E-01 -1.67980E-01
    8988.025     -8.845   0.000  1.30078E-01  3.01294E-01 -1.71216E-01
    8988.080     -8.790   0.120  1.34489E-01  3.12951E-01 -1.78462E-01
    8988.122     -8.747   0.160  1.37941E-01  3.22012E-01 -1.84070E-01
    8988.177     -8.692   0.200  1.42402E-01  3.33611E-01 -1.91209E-01
    8988.244     -8.625   0.240  1.47838E-01  3.47564E-01 -1.99726E-01
    8988.323     -8.546   0.280  1.54232E-01  3.63625E-01 -2.09393E-01
    8988.415     -8.454   0.320  1.61488E-01  3.81409E-01 -2.19921E-01
    8988.519     -8.351   0.360  1.69450E-01  4.00390E-01 -2.30940E-01
    8988.634     -8.235   0.400  1.77960E-01  4.20093E-01 -2.42132E-01
    8988.762     -8.107   0.440  1.86682E-01  4.40003E-01 -2.53320E-01
    8988.903     -7.967   0.480  1.95214E-01  4.59755E-01 -2.64541E-01
    8989.055     -7.814   0.520  2.03024E-01  4.79116E-01 -2.76092E-01
    8989.220     -7.650   0.560  2.09545E-01  4.97957E-01 -2.88413E-01
    8989.396     -7.473   0.600  2.14341E-01  5.16248E-01 -3.01907E-01
    8989.585     -7.284   0.640  2.17531E-01  5.34016E-01 -3.16485E-01
    8989.787     -7.083   0.680  2.20076E-01  5.51347E-01 -3.31271E-01
    8990.000     -6.870   0.720  2.23830E-01  5.68335E-01 -3.44505E-01
    8990.225     -6.644   0.760  2.30813E-01  5.85012E-01 -3.54199E-01
    8990.463     -6.406   0.800  2.42333E-01  6.01463E-01 -3.59130E-01
    8990.713     -6.156   0.840  2.58035E-01  6.17759E-01 -3.59724E-01
    8990.975     -5.894   0.880  2.75703E-01  6.33899E-01 -3.58195E-01
    8991.250     -5.620   0.920  2.92402E-01  6.49928E-01 -3.57526E-01
    8991.536     -5.333   0.960  3.05854E-01  6.65841E-01 -3.59987E-01
    8991.835     -5.035   1.000  3.14851E-01  6.81662E-01 -3.66811E-01
    8992.146     -4.724   1.040  3.20054E-01  6.97367E-01 -3.77314E-01
    8992.469     -4.401   1.080  3.24857E-01  7.12947E-01 -3.88090E-01
    8992.804     -4.065   1.120  3.32439E-01  7.28384E-01 -3.95945E-01
    8993.151     -3.718   1.160  3.44175E-01  7.43617E-01 -3.99442E-01
    8993.511     -3.358   1.200  3.61496E-01  7.58661E-01 -3.97164E-01
    8993.883     -2.986   1.240  3.85232E-01  7.73468E-01 -3.88236E-01
    8994.267     -2.602   1.280  4.15014E-01  7.87989E-01 -3.72976E-01
    8994.663     -2.206   1.320  4.50557E-01  8.02215E-01 -3.51657E-01
    8995.072     -1.798   1.360  4.91337E-01  8.16091E-01 -3.24754E-01
    8995.492     -1.377   1.400  5.35674E-01  8.29609E-01 -2.93935E-01
    8995.925     -0.944   1.440  5.82105E-01  8.42715E-01 -2.60610E-01
    8996.370     -0.499   1.480  6.31410E-01  8.55398E-01 -2.23988E-01
    8996.827     -0.042   1.520  6.84009E-01  8.67630E-01 -1.83621E-01
    8997.297      0.427   1.560  7.38398E-01  8.79360E-01 -1.40961E-01
    8997.778      0.909   1.600  7.96148E-01  8.90620E-01 -9.44713E-02
    8998.272      1.403   1.640  8.64568E-01  9.01344E-01 -3.67757E-02
    8998.778      1.909   1.680  9.47132E-01  9.11568E-01  3.55639E-02
    8999.296      2.427   1.720  1.03867E+00  9.21228E-01  1.17443E-01
    8999.827      2.957   1.760  1.14280E+00  9.30362E-01  2.12440E-01
    9000.369      3.500   1.800  1.26732E+00  9.38948E-01  3.28371E-01
    9000.924      4.054   1.840  1.40808E+00  9.46989E-01  4.61096E-01
    9001.491      4.621   1.880  1.54719E+00  9.54487E-01  5.92705E-01
    9002.070      5.200   1.920  1.64589E+00  9.61445E-01  6.84447E-01
    9002.661      5.792   1.960  1.65811E+00  9.67889E-01  6.90223E-01
    9003.265      6.395   2.000  1.58333E+00  9.73804E-01  6.09527E-01
    9003.880      7.011   2.040  1.47741E+00  9.79218E-01  4.98188E-01
    9004.508      7.639   2.080  1.38479E+00  9.84139E-01  4.00656E-01
    9005.148      8.279   2.120  1.31100E+00  9.88594E-01  3.22402E-01
    9005.801      8.931   2.160  1.25310E+00  9.92595E-01  2.60507E-01
    9006.465      9.596   2.200  1.21008E+00  9.96151E-01  2.13930E-01
    9007.142     10.272   2.240  1.17448E+00  9.99312E-01  1.75163E-01
    9007.831     10.961   2.280  1.13766E+00  1.00205E+00  1.35610E-01
    9008.532     11.662   2.320  1.10070E+00  1.00444E+00  9.62608E-02
    9009.245     12.375   2.360  1.07107E+00  1.00648E+00  6.45936E-02
    9009.970     13.101   2.400  1.05051E+00  1.00817E+00  4.23411E-02
    9010.708     13.838   2.440  1.03265E+00  1.00957E+00  2.30779E-02
    9011.458     14.588   2.480  1.01379E+00  1.01068E+00  3.11646E-03
    9012.220     15.350   2.520  9.97913E-01  1.01153E+00 -1.36155E-02
    9012.994     16.124   2.560  9.91215E-01  1.01213E+00 -2.09189E-02
    9013.780     16.911   2.600  9.95671E-01  1.01250E+00 -1.68330E-02
    9014.579     17.709   2.640  1.00498E+00  1.01269E+00 -7.70667E-03
    9015.390     18.520   2.680  1.00944E+00  1.01268E+00 -3.23965E-03
    9016.213     19.343   2.720  1.00573E+00  1.01250E+00 -6.77512E-03
    9017.048     20.178   2.760  9.94604E-01  1.01219E+00 -1.75834E-02
    9017.895     21.026   2.800  9.78037E-01  1.01173E+00 -3.36877E-02
    9018.755     21.885   2.840  9.59263E-01  1.01116E+00 -5.19016E-02
    9019.626     22.757   2.880  9.41061E-01  1.01049E+00 -6.94295E-02
    9020.510     23.641   2.920  9.25318E-01  1.00975E+00 -8.44364E-02
    9021.406     24.537   2.960  9.12936E-01  1.00892E+00 -9.59843E-02
    9022.315     25.445   3.000  9.03933E-01  1.00806E+00 -1.04124E-01
    9023.235     26.366   3.040  8.97669E-01  1.00713E+00 -1.09459E-01
    9024.168     27.298   3.080  8.93656E-01  1.00618E+00 -1.12526E-01
    9025.113     28.243   3.120  8.91011E-01  1.00520E+00 -1.14189E-01
    9026.070     29.200   3.160  8.89177E-01  1.00419E+00 -1.15014E-01
    9027.039     30.170   3.200  8.88093E-01  1.00320E+00 -1.15108E-01
    9028.020     31.151   3.240  8.87982E-01  1.00221E+00 -1.14231E-01
    9029.014     32.145   3.280  8.89176E-01  1.00123E+00 -1.12053E-01
    9030.020     33.151   3.320  8.92004E-01  1.00028E+00 -1.08272E-01
    9031.038     34.169   3.360  8.96622E-01  9.99355E-01 -1.02733E-01
    9032.068     35.199   3.400  9.02720E-01  9.98450E-01 -9.57297E-02
    9033.111     36.241   3.440  9.10089E-01  9.97580E-01 -8.74913E-02
    9034.165     37.296   3.480  9.18624E-01  9.96773E-01 -7.81492E-02
    9035.232     38.363   3.520  9.28129E-01  9.95988E-01 -6.78597E-02
    9036.311     39.442   3.560  9.38400E-01  9.95268E-01 -5.68675E-02
    9037.402     40.533   3.600  9.49182E-01  9.94593E-01 -4.54116E-02
    9038.506     41.636   3.640  9.60171E-01  9.93987E-01 -3.38160E-02
    9039.621     42.752   3.680  9.70882E-01  9.93429E-01 -2.25464E-02
    9040.749     43.879   3.720  9.80873E-01  9.92918E-01 -1.20447E-02
    9041.889     45.019   3.760  9.89951E-01  9.92477E-01 -2.52637E-03
    9043.041     46.172   3.800  9.98094E-01  9.92108E-01  5.98580E-03
    9044.205     47.336   3.840  1.00547E+00  9.91788E-01  1.36810E-02
    9045.382     48.512   3.880  1.01239E+00  9.91517E-01  2.08755E-02
    9046.571     49.701   3.920  1.01915E+00  9.91317E-01  2.78348E-02
    9047.771     50.902   3.960  1.02583E+00  9.91188E-01  3.46390E-02
    9048.985     52.115   4.000  1.03237E+00  9.91108E-01  4.12595E-02
    9050.210     53.340   4.040  1.03865E+00  9.91076E-01  4.75784E-02
    9051.447     54.578   4.080  1.04454E+00  9.91112E-01  5.34303E-02
    9052.697     55.828   4.120  1.04993E+00  9.91218E-01  5.87075E-02
    9053.959     57.089   4.160  1.05470E+00  9.91347E-01  6.33517E-02
    9055.233     58.363   4.200  1.05870E+00  9.91541E-01  6.71604E-02
    9056.519     59.650   4.240  1.06155E+00  9.91779E-01  6.97693E-02
    9057.818     60.948   4.280  1.06294E+00  9.92060E-01  7.08803E-02
    9059.128     62.259   4.320  1.06272E+00  9.92381E-01  7.03423E-02
    9060.451     63.582   4.360  1.06097E+00  9.92764E-01  6.82024E-02
    9061.786     64.917   4.400  1.05782E+00  9.93165E-01  6.46589E-02
    9063.133     66.264   4.440  1.05355E+00  9.93599E-01  5.99530E-02
    9064.493     67.623   4.480  1.04835E+00  9.94047E-01  5.43037E-02
    9065.864     68.995   4.520  1.04255E+00  9.94550E-01  4.80033E-02
    9067.248     70.379   4.560  1.03648E+00  9.95063E-01  4.14184E-02
    9068.644     71.775   4.600  1.03051E+00  9.95583E-01  3.49309E-02
    9070.052     73.183   4.640  1.02502E+00  9.96133E-01  2.88909E-02
    9071.473     74.603   4.680  1.02017E+00  9.96687E-01  2.34877E-02
    9072.905     76.036   4.720  1.01595E+00  9.97244E-01  1.87072E-02
    9074.350     77.480   4.760  1.01216E+00  9.97825E-01  1.43351E-02
    9075.807     78.937   4.800  1.00838E+00  9.98385E-01  9.99713E-03
    9077.276     80.407   4.840  1.00429E+00  9.98963E-01  5.33178E-03
    9078.757     81.888   4.880  9.99724E-01  9.99517E-01  2.06145E-04
    9080.251     83.381   4.920  9.94821E-01  1.00007E+00 -5.24503E-03
    9081.756     84.887   4.960  9.89882E-01  1.00061E+00 -1.07251E-02
    9083.274     86.405   5.000  9.85132E-01  1.00112E+00 -1.59870E-02
    9084.804     87.935   5.040  9.80652E-01  1.00162E+00 -2.09672E-02
    9086.347     89.477   5.080  9.76343E-01  1.00209E+00 -2.57451E-02
    9087.901     91.032   5.120  9.72110E-01  1.00255E+00 -3.04352E-02
    9089.468     92.598   5.160  9.67903E-01  1.00297E+00 -3.50648E-02
    9091.047     94.177   5.200  9.63868E-01  1.00335E+00 -3.94855E-02
    9092.638     95.768   5.240  9.60315E-01  1.00372E+00 -4.34079E-02
    9094.241     97.372   5.280  9.57481E-01  1.00403E+00 -4.65505E-02
    9095.856     98.987   5.320  9.55525E-01  1.00432E+00 -4.87981E-02
    9097.484    100.615   5.360  9.54427E-01  1.00458E+00 -5.01507E-02
    9099.124    102.255   5.400  9.54214E-01  1.00479E+00 -5.05760E-02
    9100.776    103.907   5.440  9.55118E-01  1.00496E+00 -4.98416E-02
    9102.440    105.571   5.480  9.57479E-01  1.00506E+00 -4.75859E-02
    9104.117    107.247   5.520  9.61587E-01  1.00515E+00 -4.35637E-02
    9105.805    108.936   5.560  9.67267E-01  1.00520E+00 -3.79290E-02
    9107.506    110.636   5.600  9.73936E-01  1.00518E+00 -3.12399E-02
    9109.219    112.349   5.640  9.80960E-01  1.00514E+00 -2.41754E-02
    9110.944    114.075   5.680  9.87961E-01  1.00503E+00 -1.70706E-02
    9112.681    115.812   5.720  9.95147E-01  1.00491E+00 -9.76216E-03
    9114.431    117.561   5.760  1.00286E+00  1.00472E+00 -1.86454E-03
    9116.193    119.323   5.800  1.01115E+00  1.00449E+00  6.65749E-03
    9117.967    121.097   5.840  1.01941E+00  1.00422E+00  1.51900E-02
    9119.753    122.883   5.880  1.02655E+00  1.00391E+00  2.26377E-02
    9121.551    124.682   5.920  1.03145E+00  1.00357E+00  2.78826E-02
    9123.362    126.492   5.960  1.03336E+00  1.00319E+00  3.01693E-02
    9125.184    128.315   6.000  1.03198E+00  1.00277E+00  2.92023E-02
