# # comment:                                                     FEFF 9.9.1  
# # Source:
# # Structure
# # Reduced
# # space
# # abc:
# # angles:
# # sites:
# # POT  SCF 100  7.0000   0, screened core-hole, AFOLP (folp(0)= 1.150)
# # Abs   Z=29 Rmt= 1.138 Rnm= 1.235 K  shell
# # Pot 1 Z= 3 Rmt= 1.154 Rnm= 1.213
# # Pot 2 Z=57 Rmt= 1.765 Rnm= 1.838
# # Pot 3 Z=29 Rmt= 1.178 Rnm= 1.259
# # Pot 4 Z= 8 Rmt= 1.051 Rnm= 1.098
# # Gam_ch=1.729E+00 H-L exch Vi= 0.000E+00 Vr= 0.000E+00
# # Mu=-8.564E+00eV kf=2.000E+00 Vint=-1.943E+01eV Rs_int= 1.813
# FMS rfms= 9.0000
# # PATH  Rmax=-1.000,  Keep_limit= 0.00, Heap_limit 0.00  Pwcrit= 2.50%
#  S02=0.950  Temp=   0.00  Debye_temp=   0.00  Global_sig2= 0.00000
#  Energy zero shift, vr, vi    0.00000E+00   0.00000E+00
#  Curved wave amplitude ratio filter   4.000%
#     file         sig2 tot  cw amp ratio   deg  nlegs   reff  inp sig2
#     0/   0 paths used
#  xsedge+ 50, used to normalize mu           2.4625E-04
#  -----------------------------------------------------------------------
#  omega    e    k    mu    mu0     chi     @#
    8985.524    -12.374  -1.000  3.72423E-02  5.59582E-02 -1.87159E-02
    8985.822    -12.075  -0.960  3.91405E-02  6.01192E-02 -2.09787E-02
    8986.109    -11.789  -0.920  4.11856E-02  6.47530E-02 -2.35674E-02
    8986.383    -11.515  -0.880  4.33961E-02  6.99303E-02 -2.65342E-02
    8986.645    -11.252  -0.840  4.57940E-02  7.57334E-02 -2.99394E-02
    8986.895    -11.003  -0.800  4.84048E-02  8.22579E-02 -3.38531E-02
    8987.133    -10.765  -0.760  5.12586E-02  8.96137E-02 -3.83551E-02
    8987.359    -10.539  -0.720  5.43895E-02  9.79250E-02 -4.35355E-02
    8987.572    -10.326  -0.680  5.78359E-02  1.07329E-01 -4.94931E-02
    8987.773    -10.125  -0.640  6.16384E-02  1.17971E-01 -5.63321E-02
    8987.962     -9.936  -0.600  6.58370E-02  1.29992E-01 -6.41554E-02
    8988.139     -9.759  -0.560  7.04640E-02  1.43517E-01 -7.30527E-02
    8988.303     -9.594  -0.520  7.55346E-02  1.58617E-01 -8.30824E-02
    8988.456     -9.442  -0.480  8.10325E-02  1.75279E-01 -9.42464E-02
    8988.596     -9.302  -0.440  8.68942E-02  1.93355E-01 -1.06461E-01
    8988.724     -9.174  -0.400  9.29972E-02  2.12529E-01 -1.19532E-01
    8988.840     -9.058  -0.360  9.91604E-02  2.32299E-01 -1.33139E-01
    8988.944     -8.954  -0.320  1.05162E-01  2.52016E-01 -1.46854E-01
    8989.035     -8.863  -0.280  1.10776E-01  2.70959E-01 -1.60183E-01
    8989.114     -8.784  -0.240  1.15809E-01  2.88436E-01 -1.72627E-01
    8989.181     -8.717  -0.200  1.20127E-01  3.03871E-01 -1.83743E-01
    8989.236     -8.662  -0.160  1.23659E-01  3.16844E-01 -1.93184E-01
    8989.279     -8.619  -0.120  1.26385E-01  3.27090E-01 -2.00705E-01
    8989.309     -8.589  -0.080  1.28309E-01  3.34466E-01 -2.06157E-01
    8989.334     -8.564   0.000  1.29819E-01  3.40387E-01 -2.10568E-01
    8989.389     -8.509   0.120  1.33163E-01  3.53731E-01 -2.20568E-01
    8989.431     -8.467   0.160  1.35701E-01  3.64096E-01 -2.28395E-01
    8989.486     -8.412   0.200  1.38876E-01  3.77309E-01 -2.38433E-01
    8989.553     -8.345   0.240  1.42585E-01  3.93153E-01 -2.50568E-01
    8989.632     -8.265   0.280  1.46726E-01  4.11306E-01 -2.64580E-01
    8989.724     -8.174   0.320  1.51232E-01  4.31254E-01 -2.80022E-01
    8989.827     -8.070   0.360  1.56083E-01  4.52407E-01 -2.96324E-01
    8989.943     -7.955   0.400  1.61297E-01  4.74076E-01 -3.12780E-01
    8990.071     -7.827   0.440  1.67031E-01  4.95672E-01 -3.28641E-01
    8990.211     -7.686   0.480  1.73492E-01  5.16761E-01 -3.43268E-01
    8990.364     -7.534   0.520  1.80724E-01  5.37011E-01 -3.56288E-01
    8990.528     -7.369   0.560  1.88637E-01  5.56291E-01 -3.67654E-01
    8990.705     -7.193   0.600  1.97054E-01  5.74569E-01 -3.77515E-01
    8990.894     -7.004   0.640  2.05917E-01  5.91933E-01 -3.86015E-01
    8991.095     -6.802   0.680  2.15483E-01  6.08448E-01 -3.92965E-01
    8991.309     -6.589   0.720  2.26343E-01  6.24222E-01 -3.97879E-01
    8991.534     -6.363   0.760  2.39276E-01  6.39400E-01 -4.00124E-01
    8991.772     -6.126   0.800  2.54595E-01  6.54056E-01 -3.99462E-01
    8992.022     -5.876   0.840  2.71275E-01  6.68272E-01 -3.96996E-01
    8992.284     -5.614   0.880  2.86710E-01  6.82131E-01 -3.95421E-01
    8992.558     -5.339   0.920  2.98786E-01  6.95705E-01 -3.96919E-01
    8992.845     -5.053   0.960  3.08415E-01  7.08992E-01 -4.00577E-01
    8993.144     -4.754   1.000  3.19066E-01  7.22060E-01 -4.02995E-01
    8993.455     -4.443   1.040  3.33822E-01  7.34924E-01 -4.01103E-01
    8993.778     -4.120   1.080  3.54075E-01  7.47572E-01 -3.93497E-01
    8994.113     -3.785   1.120  3.80753E-01  7.60023E-01 -3.79270E-01
    8994.460     -3.437   1.160  4.16425E-01  7.72275E-01 -3.55849E-01
    8994.820     -3.078   1.200  4.66050E-01  7.84337E-01 -3.18286E-01
    8995.192     -2.706   1.240  5.35594E-01  7.96175E-01 -2.60581E-01
    8995.576     -2.322   1.280  6.30125E-01  8.07773E-01 -1.77648E-01
    8995.972     -1.926   1.320  7.51902E-01  8.19133E-01 -6.72307E-02
    8996.381     -1.517   1.360  9.00781E-01  8.30254E-01  7.05268E-02
    8996.801     -1.097   1.400  1.07035E+00  8.41095E-01  2.29256E-01
    8997.234     -0.664   1.440  1.21317E+00  8.51652E-01  3.61516E-01
    8997.679     -0.219   1.480  1.23441E+00  8.61902E-01  3.72505E-01
    8998.136      0.238   1.520  1.12935E+00  8.71841E-01  2.57506E-01
    8998.606      0.708   1.560  9.96558E-01  8.81446E-01  1.15112E-01
    8999.087      1.189   1.600  8.97896E-01  8.90693E-01  7.20335E-03
    8999.581      1.683   1.640  8.56965E-01  8.99600E-01 -4.26351E-02
    9000.087      2.189   1.680  8.85604E-01  9.08143E-01 -2.25388E-02
    9000.605      2.707   1.720  9.81646E-01  9.16320E-01  6.53255E-02
    9001.135      3.238   1.760  1.11671E+00  9.24089E-01  1.92617E-01
    9001.678      3.780   1.800  1.22305E+00  9.31511E-01  2.91541E-01
    9002.233      4.335   1.840  1.23480E+00  9.38523E-01  2.96272E-01
    9002.800      4.902   1.880  1.18731E+00  9.45147E-01  2.42165E-01
    9003.379      5.481   1.920  1.14787E+00  9.51385E-01  1.96480E-01
    9003.970      6.072   1.960  1.12061E+00  9.57238E-01  1.63368E-01
    9004.574      6.676   2.000  1.10002E+00  9.62707E-01  1.37314E-01
    9005.189      7.291   2.040  1.10918E+00  9.67798E-01  1.41384E-01
    9005.817      7.919   2.080  1.14395E+00  9.72514E-01  1.71433E-01
    9006.457      8.559   2.120  1.18818E+00  9.76881E-01  2.11297E-01
    9007.110      9.212   2.160  1.22472E+00  9.80882E-01  2.43839E-01
    9007.774      9.876   2.200  1.23768E+00  9.84542E-01  2.53142E-01
    9008.451     10.553   2.240  1.22264E+00  9.87870E-01  2.34772E-01
    9009.139     11.242   2.280  1.18245E+00  9.90891E-01  1.91555E-01
    9009.841     11.943   2.320  1.12698E+00  9.93589E-01  1.33389E-01
    9010.554     12.656   2.360  1.07300E+00  9.95993E-01  7.70093E-02
    9011.279     13.381   2.400  1.03770E+00  9.98109E-01  3.95876E-02
    9012.017     14.119   2.440  1.03687E+00  9.99946E-01  3.69271E-02
    9012.767     14.869   2.480  1.05017E+00  1.00155E+00  4.86200E-02
    9013.529     15.631   2.520  1.06778E+00  1.00291E+00  6.48712E-02
    9014.303     16.405   2.560  1.08580E+00  1.00403E+00  8.17690E-02
    9015.089     17.191   2.600  1.10212E+00  1.00494E+00  9.71820E-02
    9015.888     17.990   2.640  1.11402E+00  1.00567E+00  1.08348E-01
    9016.698     18.801   2.680  1.11899E+00  1.00620E+00  1.12791E-01
    9017.521     19.624   2.720  1.11622E+00  1.00657E+00  1.09652E-01
    9018.357     20.459   2.760  1.10663E+00  1.00677E+00  9.98599E-02
    9019.204     21.306   2.800  1.09200E+00  1.00684E+00  8.51686E-02
    9020.063     22.166   2.840  1.07387E+00  1.00677E+00  6.70969E-02
    9020.935     23.037   2.880  1.05329E+00  1.00657E+00  4.67174E-02
    9021.819     23.921   2.920  1.03088E+00  1.00629E+00  2.45866E-02
    9022.715     24.817   2.960  1.00697E+00  1.00591E+00  1.06579E-03
    9023.624     25.726   3.000  9.82790E-01  1.00544E+00 -2.26479E-02
    9024.544     26.646   3.040  9.60057E-01  1.00491E+00 -4.48527E-02
    9025.477     27.579   3.080  9.39745E-01  1.00431E+00 -6.45646E-02
    9026.422     28.524   3.120  9.22255E-01  1.00366E+00 -8.14058E-02
    9027.379     29.481   3.160  9.07532E-01  1.00297E+00 -9.54367E-02
    9028.348     30.450   3.200  8.95414E-01  1.00224E+00 -1.06823E-01
    9029.329     31.432   3.240  8.85990E-01  1.00147E+00 -1.15481E-01
    9030.323     32.425   3.280  8.79439E-01  1.00069E+00 -1.21255E-01
    9031.329     33.431   3.320  8.75823E-01  9.99913E-01 -1.24090E-01
    9032.347     34.449   3.360  8.74861E-01  9.99130E-01 -1.24269E-01
    9033.377     35.479   3.400  8.75987E-01  9.98348E-01 -1.22360E-01
    9034.419     36.522   3.440  8.78409E-01  9.97590E-01 -1.19181E-01
    9035.474     37.576   3.480  8.81420E-01  9.96839E-01 -1.15420E-01
    9036.541     38.643   3.520  8.84856E-01  9.96096E-01 -1.11240E-01
    9037.620     39.722   3.560  8.89065E-01  9.95384E-01 -1.06319E-01
    9038.711     40.813   3.600  8.94596E-01  9.94704E-01 -1.00108E-01
    9039.814     41.917   3.640  9.01876E-01  9.94040E-01 -9.21631E-02
    9040.930     43.032   3.680  9.10801E-01  9.93434E-01 -8.26330E-02
    9042.058     44.160   3.720  9.20331E-01  9.92845E-01 -7.25146E-02
    9043.198     45.300   3.760  9.29016E-01  9.92317E-01 -6.33012E-02
    9044.350     46.452   3.800  9.35736E-01  9.91809E-01 -5.60731E-02
    9045.514     47.616   3.840  9.40222E-01  9.91364E-01 -5.11426E-02
    9046.691     48.793   3.880  9.43035E-01  9.90963E-01 -4.79285E-02
    9047.879     49.982   3.920  9.45597E-01  9.90605E-01 -4.50087E-02
    9049.080     51.183   3.960  9.49613E-01  9.90311E-01 -4.06976E-02
    9050.293     52.396   4.000  9.56417E-01  9.90040E-01 -3.36232E-02
    9051.519     53.621   4.040  9.66441E-01  9.89834E-01 -2.33931E-02
    9052.756     54.858   4.080  9.78775E-01  9.89672E-01 -1.08974E-02
    9054.006     56.108   4.120  9.91545E-01  9.89575E-01  1.96968E-03
    9055.268     57.370   4.160  1.00256E+00  9.89502E-01  1.30589E-02
    9056.542     58.644   4.200  1.01058E+00  9.89492E-01  2.10905E-02
    9057.828     59.930   4.240  1.01560E+00  9.89525E-01  2.60786E-02
    9059.126     61.229   4.280  1.01856E+00  9.89599E-01  2.89625E-02
    9060.437     62.539   4.320  1.02082E+00  9.89714E-01  3.11069E-02
    9061.760     63.862   4.360  1.02360E+00  9.89871E-01  3.37263E-02
    9063.095     65.197   4.400  1.02740E+00  9.90090E-01  3.73147E-02
    9064.442     66.544   4.440  1.03190E+00  9.90327E-01  4.15734E-02
    9065.802     67.904   4.480  1.03656E+00  9.90601E-01  4.59616E-02
    9067.173     69.275   4.520  1.04121E+00  9.90911E-01  5.02937E-02
    9068.557     70.659   4.560  1.04627E+00  9.91258E-01  5.50135E-02
    9069.953     72.055   4.600  1.05257E+00  9.91617E-01  6.09513E-02
    9071.361     73.463   4.640  1.06079E+00  9.92031E-01  6.87586E-02
    9072.781     74.884   4.680  1.07081E+00  9.92435E-01  7.83771E-02
    9074.214     76.316   4.720  1.08182E+00  9.92892E-01  8.89276E-02
    9075.659     77.761   4.760  1.09209E+00  9.93357E-01  9.87344E-02
    9077.116     79.218   4.800  1.09971E+00  9.93824E-01  1.05887E-01
    9078.585     80.687   4.840  1.10315E+00  9.94297E-01  1.08853E-01
    9080.066     82.168   4.880  1.10160E+00  9.94794E-01  1.06808E-01
    9081.560     83.662   4.920  1.09498E+00  9.95272E-01  9.97092E-02
    9083.065     85.168   4.960  1.08401E+00  9.95773E-01  8.82424E-02
    9084.583     86.685   5.000  1.06980E+00  9.96274E-01  7.35224E-02
    9086.113     88.216   5.040  1.05356E+00  9.96774E-01  5.67821E-02
    9087.656     89.758   5.080  1.03628E+00  9.97270E-01  3.90151E-02
    9089.210     91.312   5.120  1.01878E+00  9.97738E-01  2.10427E-02
    9090.777     92.879   5.160  1.00200E+00  9.98199E-01  3.80203E-03
    9092.356     94.458   5.200  9.87194E-01  9.98654E-01 -1.14597E-02
    9093.947     96.049   5.240  9.75540E-01  9.99077E-01 -2.35375E-02
    9095.550     97.652   5.280  9.67711E-01  9.99490E-01 -3.17790E-02
    9097.165     99.268   5.320  9.63568E-01  9.99871E-01 -3.63030E-02
    9098.793    100.895   5.360  9.62441E-01  1.00024E+00 -3.77999E-02
    9100.433    102.535   5.400  9.63356E-01  1.00058E+00 -3.72198E-02
    9102.085    104.187   5.440  9.65121E-01  1.00087E+00 -3.57505E-02
    9103.749    105.851   5.480  9.66455E-01  1.00113E+00 -3.46752E-02
    9105.425    107.528   5.520  9.66417E-01  1.00137E+00 -3.49569E-02
    9107.114    109.216   5.560  9.64776E-01  1.00156E+00 -3.67806E-02
    9108.815    110.917   5.600  9.62048E-01  1.00172E+00 -3.96750E-02
    9110.528    112.630   5.640  9.58817E-01  1.00185E+00 -4.30351E-02
    9112.253    114.355   5.680  9.55497E-01  1.00194E+00 -4.64430E-02
    9113.990    116.092   5.720  9.52353E-01  1.00199E+00 -4.96354E-02
    9115.740    117.842   5.760  9.49552E-01  1.00199E+00 -5.24425E-02
    9117.502    119.604   5.800  9.47142E-01  1.00194E+00 -5.47949E-02
    9119.275    121.378   5.840  9.45224E-01  1.00186E+00 -5.66383E-02
    9121.062    123.164   5.880  9.44086E-01  1.00175E+00 -5.76651E-02
    9122.860    124.962   5.920  9.43906E-01  1.00160E+00 -5.76946E-02
    9124.670    126.773   5.960  9.45237E-01  1.00141E+00 -5.61701E-02
    9126.493    128.595   6.000  9.48434E-01  1.00112E+00 -5.26814E-02
