# # comment:                                                     FEFF 9.9.1  
# # Source:
# # Structure
# # Reduced
# # space
# # abc:
# # angles:
# # sites:
# # POT  SCF 100  7.0000   0, screened core-hole, AFOLP (folp(0)= 1.150)
# # Abs   Z=29 Rmt= 1.166 Rnm= 1.243 K  shell
# # Pot 1 Z=56 Rmt= 1.909 Rnm= 1.961
# # Pot 2 Z=70 Rmt= 1.571 Rnm= 1.642
# # Pot 3 Z=29 Rmt= 1.166 Rnm= 1.243
# # Pot 4 Z= 8 Rmt= 1.049 Rnm= 1.101
# # Gam_ch=1.729E+00 H-L exch Vi= 0.000E+00 Vr= 0.000E+00
# # Mu=-7.862E+00eV kf=2.056E+00 Vint=-1.819E+01eV Rs_int= 1.764
# FMS rfms= 9.0000
# # PATH  Rmax=-1.000,  Keep_limit= 0.00, Heap_limit 0.00  Pwcrit= 2.50%
#  S02=0.950  Temp=   0.00  Debye_temp=   0.00  Global_sig2= 0.00000
#  Energy zero shift, vr, vi    0.00000E+00   0.00000E+00
#  Curved wave amplitude ratio filter   4.000%
#     file         sig2 tot  cw amp ratio   deg  nlegs   reff  inp sig2
#     0/   0 paths used
#  xsedge+ 50, used to normalize mu           2.4386E-04
#  -----------------------------------------------------------------------
#  omega    e    k    mu    mu0     chi     @#
    8985.246    -11.672  -1.000  3.73650E-02  5.73087E-02 -1.99437E-02
    8985.545    -11.373  -0.960  3.93473E-02  6.15883E-02 -2.22410E-02
    8985.831    -11.086  -0.920  4.15008E-02  6.63547E-02 -2.48538E-02
    8986.106    -10.812  -0.880  4.38495E-02  7.16805E-02 -2.78310E-02
    8986.368    -10.550  -0.840  4.64216E-02  7.76505E-02 -3.12290E-02
    8986.618    -10.300  -0.800  4.92501E-02  8.43630E-02 -3.51129E-02
    8986.855    -10.062  -0.760  5.23736E-02  9.19310E-02 -3.95573E-02
    8987.081     -9.837  -0.720  5.58360E-02  1.00482E-01 -4.46460E-02
    8987.294     -9.623  -0.680  5.96864E-02  1.10157E-01 -5.04709E-02
    8987.496     -9.422  -0.640  6.39770E-02  1.21106E-01 -5.71287E-02
    8987.684     -9.233  -0.600  6.87598E-02  1.33474E-01 -6.47139E-02
    8987.861     -9.056  -0.560  7.40794E-02  1.47387E-01 -7.33076E-02
    8988.026     -8.892  -0.520  7.99624E-02  1.62921E-01 -8.29585E-02
    8988.178     -8.739  -0.480  8.64028E-02  1.80061E-01 -9.36579E-02
    8988.318     -8.599  -0.440  9.33439E-02  1.98655E-01 -1.05311E-01
    8988.446     -8.471  -0.400  1.00664E-01  2.18378E-01 -1.17714E-01
    8988.562     -8.355  -0.360  1.08173E-01  2.38714E-01 -1.30542E-01
    8988.666     -8.252  -0.320  1.15621E-01  2.58997E-01 -1.43376E-01
    8988.757     -8.160  -0.280  1.22736E-01  2.78484E-01 -1.55748E-01
    8988.837     -8.081  -0.240  1.29260E-01  2.96465E-01 -1.67206E-01
    8988.904     -8.014  -0.200  1.34982E-01  3.12347E-01 -1.77365E-01
    8988.959     -7.959  -0.160  1.39759E-01  3.25696E-01 -1.85938E-01
    8989.001     -7.916  -0.120  1.43511E-01  3.36241E-01 -1.92730E-01
    8989.032     -7.886  -0.080  1.46204E-01  3.43833E-01 -1.97628E-01
    8989.056     -7.862   0.000  1.48369E-01  3.49927E-01 -2.01558E-01
    8989.111     -7.807   0.120  1.53018E-01  3.63681E-01 -2.10663E-01
    8989.154     -7.764   0.160  1.56584E-01  3.74327E-01 -2.17743E-01
    8989.208     -7.709   0.200  1.61076E-01  3.87932E-01 -2.26856E-01
    8989.276     -7.642   0.240  1.66339E-01  4.04254E-01 -2.37915E-01
    8989.355     -7.563   0.280  1.72238E-01  4.22963E-01 -2.50725E-01
    8989.446     -7.471   0.320  1.78491E-01  4.43534E-01 -2.65043E-01
    8989.550     -7.368   0.360  1.84828E-01  4.65324E-01 -2.80496E-01
    8989.666     -7.252   0.400  1.91062E-01  4.87690E-01 -2.96628E-01
    8989.794     -7.124   0.440  1.96985E-01  5.10007E-01 -3.13022E-01
    8989.934     -6.984   0.480  2.02543E-01  5.31786E-01 -3.29243E-01
    8990.086     -6.831   0.520  2.07769E-01  5.52755E-01 -3.44986E-01
    8990.251     -6.667   0.560  2.12717E-01  5.72733E-01 -3.60016E-01
    8990.428     -6.490   0.600  2.17514E-01  5.91687E-01 -3.74173E-01
    8990.617     -6.301   0.640  2.22285E-01  6.09706E-01 -3.87421E-01
    8990.818     -6.100   0.680  2.27117E-01  6.26857E-01 -3.99740E-01
    8991.031     -5.886   0.720  2.32265E-01  6.43268E-01 -4.11003E-01
    8991.257     -5.661   0.760  2.38165E-01  6.59043E-01 -4.20879E-01
    8991.494     -5.423   0.800  2.45490E-01  6.74278E-01 -4.28789E-01
    8991.744     -5.173   0.840  2.54905E-01  6.89053E-01 -4.34148E-01
    8992.007     -4.911   0.880  2.67060E-01  7.03433E-01 -4.36373E-01
    8992.281     -4.637   0.920  2.82604E-01  7.17490E-01 -4.34886E-01
    8992.567     -4.350   0.960  3.02085E-01  7.31261E-01 -4.29176E-01
    8992.866     -4.052   1.000  3.25424E-01  7.44749E-01 -4.19325E-01
    8993.177     -3.741   1.040  3.51870E-01  7.57989E-01 -4.06119E-01
    8993.500     -3.418   1.080  3.79814E-01  7.70968E-01 -3.91154E-01
    8993.835     -3.082   1.120  4.06436E-01  7.83705E-01 -3.77268E-01
    8994.183     -2.735   1.160  4.28704E-01  7.96194E-01 -3.67490E-01
    8994.542     -2.375   1.200  4.45295E-01  8.08424E-01 -3.63129E-01
    8994.914     -2.003   1.240  4.57991E-01  8.20401E-01 -3.62410E-01
    8995.298     -1.619   1.280  4.70852E-01  8.32067E-01 -3.61215E-01
    8995.695     -1.223   1.320  4.85661E-01  8.43442E-01 -3.57781E-01
    8996.103     -0.815   1.360  5.05047E-01  8.54505E-01 -3.49458E-01
    8996.524     -0.394   1.400  5.35771E-01  8.65212E-01 -3.29441E-01
    8996.956      0.039   1.440  5.78623E-01  8.75584E-01 -2.96961E-01
    8997.401      0.484   1.480  6.33531E-01  8.85596E-01 -2.52065E-01
    8997.859      0.941   1.520  7.10330E-01  8.95225E-01 -1.84895E-01
    8998.328      1.410   1.560  8.14872E-01  9.04468E-01 -8.95954E-02
    8998.810      1.892   1.600  9.32438E-01  9.13302E-01  1.91361E-02
    8999.303      2.386   1.640  1.04470E+00  9.21746E-01  1.22953E-01
    8999.809      2.892   1.680  1.16550E+00  9.29758E-01  2.35744E-01
    9000.328      3.410   1.720  1.31429E+00  9.37337E-01  3.76957E-01
    9000.858      3.940   1.760  1.45284E+00  9.44505E-01  5.08335E-01
    9001.400      4.483   1.800  1.52357E+00  9.51262E-01  5.72305E-01
    9001.955      5.038   1.840  1.54623E+00  9.57569E-01  5.88662E-01
    9002.522      5.604   1.880  1.56042E+00  9.63471E-01  5.96950E-01
    9003.101      6.184   1.920  1.56995E+00  9.68951E-01  6.00996E-01
    9003.693      6.775   1.960  1.56302E+00  9.74033E-01  5.88989E-01
    9004.296      7.378   2.000  1.51947E+00  9.78721E-01  5.40749E-01
    9004.912      7.994   2.040  1.43170E+00  9.83001E-01  4.48703E-01
    9005.540      8.622   2.080  1.32506E+00  9.86899E-01  3.38165E-01
    9006.180      9.262   2.120  1.23874E+00  9.90444E-01  2.48296E-01
    9006.832      9.914   2.160  1.18539E+00  9.93620E-01  1.91766E-01
    9007.496     10.579   2.200  1.15510E+00  9.96455E-01  1.58646E-01
    9008.173     11.255   2.240  1.13900E+00  9.98980E-01  1.40020E-01
    9008.862     11.944   2.280  1.13202E+00  1.00118E+00  1.30844E-01
    9009.563     12.645   2.320  1.12222E+00  1.00309E+00  1.19138E-01
    9010.276     13.359   2.360  1.10209E+00  1.00470E+00  9.73835E-02
    9011.002     14.084   2.400  1.08078E+00  1.00608E+00  7.46935E-02
    9011.739     14.822   2.440  1.07139E+00  1.00719E+00  6.42015E-02
    9012.489     15.571   2.480  1.07684E+00  1.00808E+00  6.87596E-02
    9013.251     16.333   2.520  1.08559E+00  1.00876E+00  7.68320E-02
    9014.025     17.108   2.560  1.09137E+00  1.00923E+00  8.21418E-02
    9014.812     17.894   2.600  1.09198E+00  1.00953E+00  8.24550E-02
    9015.610     18.693   2.640  1.08620E+00  1.00966E+00  7.65451E-02
    9016.421     19.503   2.680  1.07334E+00  1.00965E+00  6.36858E-02
    9017.244     20.326   2.720  1.05396E+00  1.00949E+00  4.44643E-02
    9018.079     21.161   2.760  1.03041E+00  1.00923E+00  2.11826E-02
    9018.926     22.009   2.800  1.00570E+00  1.00882E+00 -3.12160E-03
    9019.786     22.868   2.840  9.82947E-01  1.00835E+00 -2.54043E-02
    9020.658     23.740   2.880  9.64224E-01  1.00779E+00 -4.35712E-02
    9021.542     24.624   2.920  9.49569E-01  1.00716E+00 -5.75918E-02
    9022.438     25.520   2.960  9.37565E-01  1.00648E+00 -6.89118E-02
    9023.346     26.428   3.000  9.26304E-01  1.00575E+00 -7.94430E-02
    9024.266     27.349   3.040  9.14029E-01  1.00498E+00 -9.09476E-02
    9025.199     28.281   3.080  8.99952E-01  1.00417E+00 -1.04218E-01
    9026.144     29.226   3.120  8.84774E-01  1.00335E+00 -1.18580E-01
    9027.101     30.183   3.160  8.69533E-01  1.00253E+00 -1.32999E-01
    9028.070     31.153   3.200  8.55266E-01  1.00171E+00 -1.46442E-01
    9029.052     32.134   3.240  8.42872E-01  1.00089E+00 -1.58016E-01
    9030.045     33.128   3.280  8.32984E-01  1.00009E+00 -1.67109E-01
    9031.051     34.134   3.320  8.25983E-01  9.99307E-01 -1.73325E-01
    9032.069     35.152   3.360  8.22248E-01  9.98554E-01 -1.76306E-01
    9033.100     36.182   3.400  8.22155E-01  9.97814E-01 -1.75659E-01
    9034.142     37.224   3.440  8.25608E-01  9.97132E-01 -1.71524E-01
    9035.197     38.279   3.480  8.32456E-01  9.96471E-01 -1.64015E-01
    9036.263     39.346   3.520  8.42659E-01  9.95873E-01 -1.53214E-01
    9037.342     40.425   3.560  8.56056E-01  9.95321E-01 -1.39265E-01
    9038.433     41.516   3.600  8.72444E-01  9.94835E-01 -1.22391E-01
    9039.537     42.619   3.640  8.91569E-01  9.94373E-01 -1.02805E-01
    9040.652     43.735   3.680  9.13100E-01  9.94001E-01 -8.09013E-02
    9041.780     44.863   3.720  9.36290E-01  9.93658E-01 -5.73673E-02
    9042.920     46.002   3.760  9.60453E-01  9.93384E-01 -3.29311E-02
    9044.072     47.155   3.800  9.84919E-01  9.93181E-01 -8.26222E-03
    9045.237     48.319   3.840  1.00876E+00  9.93029E-01  1.57308E-02
    9046.413     49.495   3.880  1.03082E+00  9.92947E-01  3.78729E-02
    9047.602     50.684   3.920  1.04979E+00  9.92917E-01  5.68686E-02
    9048.803     51.885   3.960  1.06433E+00  9.92957E-01  7.13683E-02
    9050.016     53.098   4.000  1.07349E+00  9.93047E-01  8.04451E-02
    9051.241     54.323   4.040  1.07722E+00  9.93207E-01  8.40093E-02
    9052.479     55.561   4.080  1.07620E+00  9.93417E-01  8.27791E-02
    9053.728     56.811   4.120  1.07187E+00  9.93696E-01  7.81753E-02
    9054.990     58.073   4.160  1.06600E+00  9.94023E-01  7.19765E-02
    9056.264     59.347   4.200  1.06007E+00  9.94395E-01  6.56704E-02
    9057.550     60.633   4.240  1.05500E+00  9.94833E-01  6.01669E-02
    9058.849     61.931   4.280  1.05108E+00  9.95317E-01  5.57665E-02
    9060.160     63.242   4.320  1.04813E+00  9.95844E-01  5.22849E-02
    9061.482     64.565   4.360  1.04576E+00  9.96412E-01  4.93494E-02
    9062.817     65.900   4.400  1.04367E+00  9.97018E-01  4.66510E-02
    9064.165     67.247   4.440  1.04187E+00  9.97664E-01  4.42034E-02
    9065.524     68.606   4.480  1.04060E+00  9.98349E-01  4.22548E-02
    9066.896     69.978   4.520  1.04028E+00  9.99068E-01  4.12127E-02
    9068.279     71.362   4.560  1.04129E+00  9.99797E-01  4.14948E-02
    9069.675     72.758   4.600  1.04390E+00  1.00056E+00  4.33373E-02
    9071.084     74.166   4.640  1.04804E+00  1.00133E+00  4.67137E-02
    9072.504     75.586   4.680  1.05344E+00  1.00213E+00  5.13116E-02
    9073.936     77.019   4.720  1.05943E+00  1.00293E+00  5.64939E-02
    9075.381     78.464   4.760  1.06507E+00  1.00374E+00  6.13295E-02
    9076.838     79.920   4.800  1.06933E+00  1.00457E+00  6.47579E-02
    9078.307     81.390   4.840  1.07119E+00  1.00538E+00  6.58130E-02
    9079.789     82.871   4.880  1.06997E+00  1.00618E+00  6.37884E-02
    9081.282     84.364   4.920  1.06525E+00  1.00698E+00  5.82730E-02
    9082.788     85.870   4.960  1.05692E+00  1.00777E+00  4.91517E-02
    9084.306     87.388   5.000  1.04527E+00  1.00853E+00  3.67405E-02
    9085.836     88.918   5.040  1.03122E+00  1.00929E+00  2.19274E-02
    9087.378     90.460   5.080  1.01602E+00  1.01003E+00  5.98930E-03
    9088.933     92.015   5.120  1.00096E+00  1.01071E+00 -9.75599E-03
    9090.499     93.582   5.160  9.87112E-01  1.01138E+00 -2.42710E-02
    9092.078     95.160   5.200  9.75229E-01  1.01201E+00 -3.67859E-02
    9093.669     96.751   5.240  9.65891E-01  1.01261E+00 -4.67152E-02
    9095.272     98.355   5.280  9.59499E-01  1.01316E+00 -5.36590E-02
    9096.888     99.970   5.320  9.56220E-01  1.01369E+00 -5.74715E-02
    9098.515    101.598   5.360  9.55905E-01  1.01416E+00 -5.82527E-02
    9100.155    103.238   5.400  9.58296E-01  1.01458E+00 -5.62824E-02
    9101.807    104.890   5.440  9.62944E-01  1.01493E+00 -5.19881E-02
    9103.471    106.554   5.480  9.69283E-01  1.01526E+00 -4.59788E-02
    9105.148    108.230   5.520  9.76453E-01  1.01552E+00 -3.90701E-02
    9106.836    109.919   5.560  9.83436E-01  1.01574E+00 -3.22998E-02
    9108.537    111.620   5.600  9.89078E-01  1.01588E+00 -2.67996E-02
    9110.250    113.333   5.640  9.92453E-01  1.01597E+00 -2.35188E-02
    9111.975    115.058   5.680  9.92996E-01  1.01602E+00 -2.30233E-02
    9113.713    116.795   5.720  9.90665E-01  1.01600E+00 -2.53320E-02
    9115.462    118.545   5.760  9.86073E-01  1.01593E+00 -2.98544E-02
    9117.224    120.306   5.800  9.80278E-01  1.01581E+00 -3.55349E-02
    9118.998    122.080   5.840  9.74531E-01  1.01563E+00 -4.10969E-02
    9120.784    123.866   5.880  9.70072E-01  1.01540E+00 -4.53238E-02
    9122.582    125.665   5.920  9.67904E-01  1.01509E+00 -4.71899E-02
    9124.393    127.475   5.960  9.68679E-01  1.01474E+00 -4.60641E-02
    9126.216    129.298   6.000  9.72942E-01  1.01431E+00 -4.13642E-02
