# # comment:                                                     FEFF 9.9.1  
# # Source:
# # Structure
# # Reduced
# # space
# # abc:
# # angles:
# # sites:
# # POT  SCF 100  7.0000   0, screened core-hole, AFOLP (folp(0)= 1.150)
# # Abs   Z=29 Rmt= 1.231 Rnm= 1.348 K  shell
# # Pot 1 Z=29 Rmt= 1.251 Rnm= 1.359
# # Pot 2 Z= 1 Rmt= 0.692 Rnm= 0.833
# # Pot 3 Z= 6 Rmt= 0.674 Rnm= 0.928
# # Pot 4 Z= 8 Rmt= 0.984 Rnm= 1.127
# # Gam_ch=1.729E+00 H-L exch Vi= 0.000E+00 Vr= 0.000E+00
# # Mu=-7.482E+00eV kf=2.244E+00 Vint=-1.476E+01eV Rs_int= 1.616
# FMS rfms= 9.0000
# # PATH  Rmax=-1.000,  Keep_limit= 0.00, Heap_limit 0.00  Pwcrit= 2.50%
#  S02=0.950  Temp=   0.00  Debye_temp=   0.00  Global_sig2= 0.00000
#  Energy zero shift, vr, vi    0.00000E+00   0.00000E+00
#  Curved wave amplitude ratio filter   4.000%
#     file         sig2 tot  cw amp ratio   deg  nlegs   reff  inp sig2
#     0/   0 paths used
#  xsedge+ 50, used to normalize mu           2.4482E-04
#  -----------------------------------------------------------------------
#  omega    e    k    mu    mu0     chi     @#
    8983.322    -11.292  -1.000  3.57910E-02  5.32632E-02 -1.74723E-02
    8983.621    -10.993  -0.960  3.74887E-02  5.70599E-02 -1.95712E-02
    8983.907    -10.707  -0.920  3.92883E-02  6.12697E-02 -2.19813E-02
    8984.182    -10.432  -0.880  4.11968E-02  6.59523E-02 -2.47554E-02
    8984.444    -10.170  -0.840  4.32216E-02  7.11772E-02 -2.79555E-02
    8984.694     -9.920  -0.800  4.53705E-02  7.70246E-02 -3.16541E-02
    8984.932     -9.683  -0.760  4.76516E-02  8.35864E-02 -3.59349E-02
    8985.157     -9.457  -0.720  5.00731E-02  9.09665E-02 -4.08934E-02
    8985.371     -9.244  -0.680  5.26429E-02  9.92787E-02 -4.66358E-02
    8985.572     -9.043  -0.640  5.53679E-02  1.08643E-01 -5.32751E-02
    8985.761     -8.854  -0.600  5.82529E-02  1.19177E-01 -6.09240E-02
    8985.937     -8.677  -0.560  6.12985E-02  1.30980E-01 -6.96817E-02
    8986.102     -8.512  -0.520  6.44986E-02  1.44112E-01 -7.96130E-02
    8986.254     -8.360  -0.480  6.78365E-02  1.58556E-01 -9.07193E-02
    8986.395     -8.220  -0.440  7.12808E-02  1.74187E-01 -1.02906E-01
    8986.523     -8.092  -0.400  7.47821E-02  1.90735E-01 -1.15953E-01
    8986.638     -7.976  -0.360  7.82729E-02  2.07780E-01 -1.29507E-01
    8986.742     -7.872  -0.320  8.16708E-02  2.24773E-01 -1.43103E-01
    8986.834     -7.781  -0.280  8.48872E-02  2.41106E-01 -1.56219E-01
    8986.913     -7.701  -0.240  8.78370E-02  2.56190E-01 -1.68353E-01
    8986.980     -7.634  -0.200  9.04468E-02  2.69531E-01 -1.79084E-01
    8987.035     -7.579  -0.160  9.26583E-02  2.80764E-01 -1.88106E-01
    8987.077     -7.537  -0.120  9.44286E-02  2.89652E-01 -1.95223E-01
    8987.108     -7.506  -0.080  9.57266E-02  2.96061E-01 -2.00334E-01
    8987.132     -7.482   0.000  9.68094E-02  3.01213E-01 -2.04404E-01
    8987.187     -7.427   0.120  9.92752E-02  3.12839E-01 -2.13564E-01
    8987.230     -7.384   0.160  1.01142E-01  3.21892E-01 -2.20750E-01
    8987.285     -7.330   0.200  1.03556E-01  3.33476E-01 -2.29919E-01
    8987.352     -7.263   0.240  1.06497E-01  3.47432E-01 -2.40935E-01
    8987.431     -7.183   0.280  1.10015E-01  3.63529E-01 -2.53514E-01
    8987.522     -7.092   0.320  1.14104E-01  3.81373E-01 -2.67269E-01
    8987.626     -6.988   0.360  1.18850E-01  4.00475E-01 -2.81625E-01
    8987.742     -6.872   0.400  1.24380E-01  4.20374E-01 -2.95994E-01
    8987.870     -6.744   0.440  1.30822E-01  4.40549E-01 -3.09727E-01
    8988.010     -6.604   0.480  1.38465E-01  4.60644E-01 -3.22180E-01
    8988.162     -6.452   0.520  1.47667E-01  4.80453E-01 -3.32786E-01
    8988.327     -6.287   0.560  1.58792E-01  4.99828E-01 -3.41036E-01
    8988.504     -6.110   0.600  1.72327E-01  5.18756E-01 -3.46430E-01
    8988.693     -5.921   0.640  1.88755E-01  5.37244E-01 -3.48489E-01
    8988.894     -5.720   0.680  2.08705E-01  5.55371E-01 -3.46666E-01
    8989.107     -5.507   0.720  2.33129E-01  5.73206E-01 -3.40077E-01
    8989.333     -5.281   0.760  2.63491E-01  5.90814E-01 -3.27323E-01
    8989.571     -5.044   0.800  3.01748E-01  6.08255E-01 -3.06507E-01
    8989.821     -4.794   0.840  3.49112E-01  6.25552E-01 -2.76441E-01
    8990.083     -4.532   0.880  4.04127E-01  6.42738E-01 -2.38611E-01
    8990.357     -4.257   0.920  4.61844E-01  6.59831E-01 -1.97987E-01
    8990.644     -3.971   0.960  5.16578E-01  6.76820E-01 -1.60242E-01
    8990.942     -3.672   1.000  5.63483E-01  6.93724E-01 -1.30240E-01
    8991.253     -3.361   1.040  5.95454E-01  7.10491E-01 -1.15037E-01
    8991.576     -3.038   1.080  6.03870E-01  7.27105E-01 -1.23234E-01
    8991.911     -2.703   1.120  5.88368E-01  7.43523E-01 -1.55154E-01
    8992.259     -2.355   1.160  5.61624E-01  7.59740E-01 -1.98115E-01
    8992.619     -1.996   1.200  5.37394E-01  7.75684E-01 -2.38290E-01
    8992.990     -1.624   1.240  5.21070E-01  7.91345E-01 -2.70275E-01
    8993.375     -1.240   1.280  5.13656E-01  8.06667E-01 -2.93011E-01
    8993.771     -0.843   1.320  5.16663E-01  8.21597E-01 -3.04934E-01
    8994.179     -0.435   1.360  5.31659E-01  8.36099E-01 -3.04440E-01
    8994.600     -0.014   1.400  5.59665E-01  8.50160E-01 -2.90495E-01
    8995.033      0.418   1.440  5.99050E-01  8.63724E-01 -2.64674E-01
    8995.478      0.863   1.480  6.44223E-01  8.76760E-01 -2.32538E-01
    8995.935      1.321   1.520  6.92615E-01  8.89259E-01 -1.96644E-01
    8996.404      1.790   1.560  7.46571E-01  9.01189E-01 -1.54618E-01
    8996.886      2.272   1.600  8.08128E-01  9.12523E-01 -1.04395E-01
    8997.380      2.765   1.640  8.78129E-01  9.23276E-01 -4.51474E-02
    8997.886      3.271   1.680  9.53066E-01  9.33383E-01  1.96834E-02
    8998.404      3.789   1.720  1.02550E+00  9.42883E-01  8.26143E-02
    8998.934      4.320   1.760  1.08700E+00  9.51778E-01  1.35226E-01
    8999.477      4.862   1.800  1.13471E+00  9.60025E-01  1.74681E-01
    9000.031      5.417   1.840  1.18056E+00  9.67671E-01  2.12891E-01
    9000.598      5.984   1.880  1.23352E+00  9.74720E-01  2.58796E-01
    9001.177      6.563   1.920  1.27959E+00  9.81161E-01  2.98429E-01
    9001.769      7.154   1.960  1.29951E+00  9.87021E-01  3.12488E-01
    9002.372      7.758   2.000  1.28983E+00  9.92328E-01  2.97497E-01
    9002.988      8.374   2.040  1.26477E+00  9.97094E-01  2.67674E-01
    9003.616      9.002   2.080  1.23967E+00  1.00133E+00  2.38343E-01
    9004.256      9.642   2.120  1.22371E+00  1.00509E+00  2.18622E-01
    9004.908     10.294   2.160  1.22252E+00  1.00836E+00  2.14165E-01
    9005.573     10.958   2.200  1.22829E+00  1.01118E+00  2.17112E-01
    9006.249     11.635   2.240  1.22267E+00  1.01358E+00  2.09092E-01
    9006.938     12.324   2.280  1.20615E+00  1.01557E+00  1.90584E-01
    9007.639     13.025   2.320  1.19130E+00  1.01718E+00  1.74118E-01
    9008.352     13.738   2.360  1.18560E+00  1.01846E+00  1.67138E-01
    9009.078     14.464   2.400  1.18866E+00  1.01942E+00  1.69242E-01
    9009.815     15.201   2.440  1.19043E+00  1.02007E+00  1.70360E-01
    9010.565     15.951   2.480  1.18368E+00  1.02047E+00  1.63212E-01
    9011.327     16.713   2.520  1.17584E+00  1.02060E+00  1.55236E-01
    9012.101     17.487   2.560  1.17345E+00  1.02052E+00  1.52928E-01
    9012.888     18.274   2.600  1.16880E+00  1.02025E+00  1.48551E-01
    9013.686     19.072   2.640  1.14631E+00  1.01979E+00  1.26529E-01
    9014.497     19.883   2.680  1.10297E+00  1.01916E+00  8.38053E-02
    9015.320     20.706   2.720  1.05667E+00  1.01840E+00  3.82715E-02
    9016.155     21.541   2.760  1.01350E+00  1.01752E+00 -4.02207E-03
    9017.003     22.388   2.800  9.76110E-01  1.01655E+00 -4.04420E-02
    9017.862     23.248   2.840  9.45085E-01  1.01550E+00 -7.04117E-02
    9018.734     24.120   2.880  9.19981E-01  1.01436E+00 -9.43808E-02
    9019.618     25.003   2.920  9.00360E-01  1.01318E+00 -1.12819E-01
    9020.514     25.900   2.960  8.85826E-01  1.01195E+00 -1.26129E-01
    9021.422     26.808   3.000  8.75582E-01  1.01069E+00 -1.35112E-01
    9022.343     27.728   3.040  8.68891E-01  1.00942E+00 -1.40534E-01
    9023.275     28.661   3.080  8.65085E-01  1.00815E+00 -1.43067E-01
    9024.220     29.606   3.120  8.63331E-01  1.00688E+00 -1.43550E-01
    9025.177     30.563   3.160  8.62971E-01  1.00562E+00 -1.42645E-01
    9026.146     31.532   3.200  8.63642E-01  1.00441E+00 -1.40764E-01
    9027.128     32.514   3.240  8.65046E-01  1.00321E+00 -1.38164E-01
    9028.122     33.507   3.280  8.67259E-01  1.00205E+00 -1.34791E-01
    9029.127     34.513   3.320  8.70719E-01  1.00093E+00 -1.30214E-01
    9030.145     35.531   3.360  8.75991E-01  9.99860E-01 -1.23870E-01
    9031.176     36.561   3.400  8.83440E-01  9.98855E-01 -1.15415E-01
    9032.218     37.604   3.440  8.93238E-01  9.97900E-01 -1.04661E-01
    9033.273     38.658   3.480  9.05331E-01  9.97016E-01 -9.16849E-02
    9034.339     39.725   3.520  9.19130E-01  9.96207E-01 -7.70769E-02
    9035.418     40.804   3.560  9.33572E-01  9.95451E-01 -6.18790E-02
    9036.510     41.895   3.600  9.47656E-01  9.94771E-01 -4.71153E-02
    9037.613     42.999   3.640  9.60673E-01  9.94169E-01 -3.34959E-02
    9038.729     44.114   3.680  9.72448E-01  9.93643E-01 -2.11952E-02
    9039.856     45.242   3.720  9.83261E-01  9.93173E-01 -9.91140E-03
    9040.996     46.382   3.760  9.93487E-01  9.92801E-01  6.86146E-04
    9042.148     47.534   3.800  1.00307E+00  9.92486E-01  1.05869E-02
    9043.313     48.699   3.840  1.01179E+00  9.92248E-01  1.95419E-02
    9044.489     49.875   3.880  1.01950E+00  9.92086E-01  2.74183E-02
    9045.678     51.064   3.920  1.02622E+00  9.92001E-01  3.42197E-02
    9046.879     52.265   3.960  1.03204E+00  9.91970E-01  4.00651E-02
    9048.092     53.478   4.000  1.03713E+00  9.92014E-01  4.51130E-02
    9049.317     54.703   4.040  1.04152E+00  9.92133E-01  4.93885E-02
    9050.555     55.941   4.080  1.04516E+00  9.92325E-01  5.28310E-02
    9051.804     57.190   4.120  1.04805E+00  9.92566E-01  5.54880E-02
    9053.066     58.452   4.160  1.05037E+00  9.92855E-01  5.75106E-02
    9054.340     59.726   4.200  1.05233E+00  9.93211E-01  5.91231E-02
    9055.627     61.012   4.240  1.05415E+00  9.93613E-01  6.05392E-02
    9056.925     62.311   4.280  1.05596E+00  9.94056E-01  6.19050E-02
    9058.236     63.621   4.320  1.05759E+00  9.94542E-01  6.30486E-02
    9059.559     64.944   4.360  1.05859E+00  9.95068E-01  6.35222E-02
    9060.894     66.279   4.400  1.05849E+00  9.95656E-01  6.28368E-02
    9062.241     67.627   4.440  1.05698E+00  9.96257E-01  6.07266E-02
    9063.600     68.986   4.480  1.05414E+00  9.96872E-01  5.72672E-02
    9064.972     70.358   4.520  1.05038E+00  9.97540E-01  5.28357E-02
    9066.356     71.741   4.560  1.04610E+00  9.98217E-01  4.78804E-02
    9067.752     73.137   4.600  1.04164E+00  9.98899E-01  4.27400E-02
    9069.160     74.545   4.640  1.03716E+00  9.99586E-01  3.75765E-02
    9070.580     75.966   4.680  1.03264E+00  1.00030E+00  3.23451E-02
    9072.013     77.398   4.720  1.02781E+00  1.00101E+00  2.68044E-02
    9073.457     78.843   4.760  1.02238E+00  1.00170E+00  2.06787E-02
    9074.914     80.300   4.800  1.01626E+00  1.00240E+00  1.38521E-02
    9076.383     81.769   4.840  1.00960E+00  1.00309E+00  6.51469E-03
    9077.865     83.251   4.880  1.00292E+00  1.00376E+00 -8.35747E-04
    9079.358     84.744   4.920  9.96809E-01  1.00442E+00 -7.61557E-03
    9080.864     86.250   4.960  9.91689E-01  1.00506E+00 -1.33704E-02
    9082.382     87.768   5.000  9.87759E-01  1.00568E+00 -1.79218E-02
    9083.912     89.298   5.040  9.84827E-01  1.00624E+00 -2.14178E-02
    9085.454     90.840   5.080  9.82543E-01  1.00682E+00 -2.42723E-02
    9087.009     92.394   5.120  9.80295E-01  1.00733E+00 -2.70323E-02
    9088.575     93.961   5.160  9.77687E-01  1.00780E+00 -3.01109E-02
    9090.154     95.540   5.200  9.74713E-01  1.00825E+00 -3.35370E-02
    9091.745     97.131   5.240  9.71738E-01  1.00864E+00 -3.68990E-02
    9093.349     98.734   5.280  9.69405E-01  1.00898E+00 -3.95751E-02
    9094.964    100.350   5.320  9.68192E-01  1.00928E+00 -4.10885E-02
    9096.592    101.977   5.360  9.68265E-01  1.00954E+00 -4.12720E-02
    9098.231    103.617   5.400  9.69506E-01  1.00975E+00 -4.02453E-02
    9099.883    105.269   5.440  9.71675E-01  1.00992E+00 -3.82444E-02
    9101.548    106.933   5.480  9.74562E-01  1.01002E+00 -3.54566E-02
    9103.224    108.610   5.520  9.78193E-01  1.01007E+00 -3.18790E-02
    9104.913    110.298   5.560  9.82680E-01  1.01008E+00 -2.74014E-02
    9106.613    111.999   5.600  9.87970E-01  1.01005E+00 -2.20755E-02
    9108.326    113.712   5.640  9.93595E-01  1.00994E+00 -1.63452E-02
    9110.051    115.437   5.680  9.98787E-01  1.00979E+00 -1.10015E-02
    9111.789    117.175   5.720  1.00271E+00  1.00959E+00 -6.88109E-03
    9113.538    118.924   5.760  1.00485E+00  1.00936E+00 -4.51134E-03
    9115.300    120.686   5.800  1.00512E+00  1.00905E+00 -3.93297E-03
    9117.074    122.460   5.840  1.00394E+00  1.00873E+00 -4.79599E-03
    9118.860    124.246   5.880  1.00172E+00  1.00835E+00 -6.62980E-03
    9120.658    126.044   5.920  9.98943E-01  1.00793E+00 -8.98373E-03
    9122.469    127.855   5.960  9.96111E-01  1.00747E+00 -1.13574E-02
    9124.292    129.677   6.000  9.93877E-01  1.00697E+00 -1.30939E-02
