# # comment:                                                     FEFF 9.9.1  
# # Source:
# # Structure
# # Reduced
# # space
# # abc:
# # angles:109.471221
# # sites:
# # POT  SCF 100  7.0000   0, screened core-hole, AFOLP (folp(0)= 1.150)
# # Abs   Z=29 Rmt= 1.292 Rnm= 1.364 K  shell
# # Pot 1 Z=29 Rmt= 1.292 Rnm= 1.364
# # Pot 2 Z=51 Rmt= 1.363 Rnm= 1.491
# # Pot 3 Z= 8 Rmt= 1.002 Rnm= 1.086
# # Gam_ch=1.729E+00 H-L exch Vi= 0.000E+00 Vr= 0.000E+00
# # Mu=-5.435E+00eV kf=2.220E+00 Vint=-1.544E+01eV Rs_int= 1.634
# FMS rfms= 9.0000
# # PATH  Rmax=-1.000,  Keep_limit= 0.00, Heap_limit 0.00  Pwcrit= 2.50%
#  S02=0.950  Temp=   0.00  Debye_temp=   0.00  Global_sig2= 0.00000
#  Energy zero shift, vr, vi    0.00000E+00   0.00000E+00
#  Curved wave amplitude ratio filter   4.000%
#     file         sig2 tot  cw amp ratio   deg  nlegs   reff  inp sig2
#     0/   0 paths used
#  xsedge+ 50, used to normalize mu           2.4553E-04
#  -----------------------------------------------------------------------
#  omega    e    k    mu    mu0     chi     @#
    8983.341     -9.245  -1.000  5.07425E-02  5.85854E-02 -7.84297E-03
    8983.640     -8.946  -0.960  5.39467E-02  6.29918E-02 -9.04512E-03
    8983.927     -8.659  -0.920  5.74296E-02  6.79013E-02 -1.04718E-02
    8984.201     -8.385  -0.880  6.12197E-02  7.33892E-02 -1.21695E-02
    8984.463     -8.123  -0.840  6.53480E-02  7.95429E-02 -1.41949E-02
    8984.713     -7.873  -0.800  6.98483E-02  8.64644E-02 -1.66161E-02
    8984.951     -7.635  -0.760  7.47559E-02  9.42704E-02 -1.95146E-02
    8985.176     -7.410  -0.720  8.01076E-02  1.03093E-01 -2.29857E-02
    8985.390     -7.196  -0.680  8.59399E-02  1.13079E-01 -2.71388E-02
    8985.591     -6.995  -0.640  9.22869E-02  1.24381E-01 -3.20940E-02
    8985.780     -6.806  -0.600  9.91763E-02  1.37152E-01 -3.79754E-02
    8985.956     -6.630  -0.560  1.06624E-01  1.51521E-01 -4.48971E-02
    8986.121     -6.465  -0.520  1.14626E-01  1.67567E-01 -5.29406E-02
    8986.273     -6.313  -0.480  1.23150E-01  1.85274E-01 -6.21242E-02
    8986.414     -6.172  -0.440  1.32121E-01  2.04487E-01 -7.23658E-02
    8986.542     -6.044  -0.400  1.41416E-01  2.24867E-01 -8.34516E-02
    8986.658     -5.928  -0.360  1.50857E-01  2.45884E-01 -9.50275E-02
    8986.761     -5.825  -0.320  1.60219E-01  2.66846E-01 -1.06627E-01
    8986.853     -5.733  -0.280  1.69248E-01  2.86987E-01 -1.17739E-01
    8986.932     -5.654  -0.240  1.77682E-01  3.05572E-01 -1.27890E-01
    8986.999     -5.587  -0.200  1.85273E-01  3.21987E-01 -1.36714E-01
    8987.054     -5.532  -0.160  1.91802E-01  3.35785E-01 -1.43983E-01
    8987.096     -5.490  -0.120  1.97086E-01  3.46685E-01 -1.49599E-01
    8987.127     -5.459  -0.080  2.00982E-01  3.54532E-01 -1.53550E-01
    8987.151     -5.435   0.000  2.04212E-01  3.60832E-01 -1.56620E-01
    8987.206     -5.380   0.120  2.11629E-01  3.75038E-01 -1.63409E-01
    8987.249     -5.337   0.160  2.17458E-01  3.86048E-01 -1.68590E-01
    8987.304     -5.282   0.200  2.25202E-01  4.00120E-01 -1.74918E-01
    8987.371     -5.215   0.240  2.34979E-01  4.16986E-01 -1.82007E-01
    8987.450     -5.136   0.280  2.47087E-01  4.36305E-01 -1.89218E-01
    8987.541     -5.045   0.320  2.61892E-01  4.57576E-01 -1.95683E-01
    8987.645     -4.941   0.360  2.79862E-01  4.80092E-01 -2.00230E-01
    8987.761     -4.825   0.400  3.01802E-01  5.03189E-01 -2.01388E-01
    8987.889     -4.697   0.440  3.28795E-01  5.26242E-01 -1.97447E-01
    8988.029     -4.557   0.480  3.62249E-01  5.48748E-01 -1.86498E-01
    8988.182     -4.405   0.520  4.03819E-01  5.70357E-01 -1.66538E-01
    8988.346     -4.240   0.560  4.54889E-01  5.90968E-01 -1.36080E-01
    8988.523     -4.063   0.600  5.15180E-01  6.10506E-01 -9.53257E-02
    8988.712     -3.874   0.640  5.80926E-01  6.29038E-01 -4.81119E-02
    8988.913     -3.673   0.680  6.43429E-01  6.46654E-01 -3.22499E-03
    8989.126     -3.460   0.720  6.92044E-01  6.63486E-01  2.85589E-02
    8989.352     -3.234   0.760  7.21762E-01  6.79620E-01  4.21424E-02
    8989.590     -2.996   0.800  7.36915E-01  6.95175E-01  4.17404E-02
    8989.840     -2.746   0.840  7.44317E-01  7.10211E-01  3.41057E-02
    8990.102     -2.484   0.880  7.45624E-01  7.24817E-01  2.08074E-02
    8990.376     -2.210   0.920  7.39299E-01  7.39042E-01  2.56873E-04
    8990.663     -1.923   0.960  7.25856E-01  7.52906E-01 -2.70496E-02
    8990.961     -1.625   1.000  7.06813E-01  7.66433E-01 -5.96199E-02
    8991.272     -1.314   1.040  6.84241E-01  7.79660E-01 -9.54182E-02
    8991.595     -0.991   1.080  6.62433E-01  7.92590E-01 -1.30158E-01
    8991.931     -0.655   1.120  6.44187E-01  8.05206E-01 -1.61019E-01
    8992.278     -0.308   1.160  6.28041E-01  8.17501E-01 -1.89460E-01
    8992.638      0.052   1.200  6.13289E-01  8.29483E-01 -2.16194E-01
    8993.010      0.424   1.240  6.07472E-01  8.41140E-01 -2.33668E-01
    8993.394      0.808   1.280  6.23212E-01  8.52455E-01 -2.29244E-01
    8993.790      1.204   1.320  6.66871E-01  8.63411E-01 -1.96540E-01
    8994.198      1.612   1.360  7.33835E-01  8.74005E-01 -1.40169E-01
    8994.619      2.033   1.400  8.16414E-01  8.84198E-01 -6.77841E-02
    8995.052      2.466   1.440  9.16154E-01  8.93990E-01  2.21647E-02
    8995.497      2.911   1.480  1.04093E+00  9.03377E-01  1.37554E-01
    8995.954      3.368   1.520  1.19123E+00  9.12340E-01  2.78885E-01
    8996.423      3.837   1.560  1.32680E+00  9.20879E-01  4.05917E-01
    8996.905      4.319   1.600  1.34202E+00  9.28992E-01  4.13030E-01
    8997.399      4.813   1.640  1.22288E+00  9.36662E-01  2.86219E-01
    8997.905      5.319   1.680  1.09722E+00  9.43888E-01  1.53332E-01
    8998.423      5.837   1.720  1.04266E+00  9.50672E-01  9.19859E-02
    8998.953      6.367   1.760  1.06161E+00  9.57017E-01  1.04592E-01
    8999.496      6.910   1.800  1.12158E+00  9.62928E-01  1.58647E-01
    9000.050      7.464   1.840  1.17161E+00  9.68409E-01  2.03196E-01
    9000.617      8.031   1.880  1.17376E+00  9.73466E-01  2.00293E-01
    9001.196      8.610   1.920  1.13788E+00  9.78124E-01  1.59757E-01
    9001.788      9.202   1.960  1.10320E+00  9.82390E-01  1.20813E-01
    9002.391      9.805   2.000  1.09665E+00  9.86250E-01  1.10400E-01
    9003.007     10.421   2.040  1.12408E+00  9.89754E-01  1.34330E-01
    9003.635     11.049   2.080  1.17431E+00  9.92888E-01  1.81427E-01
    9004.275     11.689   2.120  1.22848E+00  9.95680E-01  2.32795E-01
    9004.927     12.341   2.160  1.27133E+00  9.98142E-01  2.73191E-01
    9005.592     13.006   2.200  1.29496E+00  1.00030E+00  2.94656E-01
    9006.268     13.682   2.240  1.29355E+00  1.00216E+00  2.91391E-01
    9006.957     14.371   2.280  1.26676E+00  1.00376E+00  2.62994E-01
    9007.658     15.072   2.320  1.22751E+00  1.00509E+00  2.22417E-01
    9008.371     15.785   2.360  1.18752E+00  1.00619E+00  1.81331E-01
    9009.097     16.511   2.400  1.13660E+00  1.00707E+00  1.29530E-01
    9009.834     17.248   2.440  1.05281E+00  1.00772E+00  4.50885E-02
    9010.584     17.998   2.480  9.53662E-01  1.00819E+00 -5.45309E-02
    9011.346     18.760   2.520  8.81014E-01  1.00849E+00 -1.27479E-01
    9012.120     19.534   2.560  8.45008E-01  1.00863E+00 -1.63622E-01
    9012.907     20.321   2.600  8.40680E-01  1.00863E+00 -1.67951E-01
    9013.705     21.119   2.640  8.73999E-01  1.00849E+00 -1.34487E-01
    9014.516     21.930   2.680  9.23683E-01  1.00824E+00 -8.45563E-02
    9015.339     22.753   2.720  9.66642E-01  1.00790E+00 -4.12599E-02
    9016.174     23.588   2.760  9.86666E-01  1.00748E+00 -2.08119E-02
    9017.022     24.436   2.800  9.84062E-01  1.00697E+00 -2.29131E-02
    9017.881     25.295   2.840  9.72598E-01  1.00640E+00 -3.37996E-02
    9018.753     26.167   2.880  9.63750E-01  1.00579E+00 -4.20414E-02
    9019.637     27.051   2.920  9.57726E-01  1.00512E+00 -4.73977E-02
    9020.533     27.947   2.960  9.49149E-01  1.00444E+00 -5.52899E-02
    9021.441     28.855   3.000  9.34294E-01  1.00372E+00 -6.94259E-02
    9022.362     29.776   3.040  9.15000E-01  1.00299E+00 -8.79946E-02
    9023.294     30.708   3.080  8.97113E-01  1.00227E+00 -1.05153E-01
    9024.239     31.653   3.120  8.85904E-01  1.00154E+00 -1.15633E-01
    9025.196     32.610   3.160  8.83434E-01  1.00083E+00 -1.17398E-01
    9026.166     33.580   3.200  8.88606E-01  1.00013E+00 -1.11528E-01
    9027.147     34.561   3.240  8.98514E-01  9.99444E-01 -1.00930E-01
    9028.141     35.555   3.280  9.08803E-01  9.98785E-01 -8.99816E-02
    9029.146     36.560   3.320  9.15557E-01  9.98162E-01 -8.26053E-02
    9030.164     37.578   3.360  9.16727E-01  9.97577E-01 -8.08505E-02
    9031.195     38.609   3.400  9.13035E-01  9.97030E-01 -8.39944E-02
    9032.237     39.651   3.440  9.07220E-01  9.96522E-01 -8.93020E-02
    9033.292     40.706   3.480  9.02445E-01  9.96054E-01 -9.36086E-02
    9034.359     41.773   3.520  9.00755E-01  9.95629E-01 -9.48738E-02
    9035.438     42.851   3.560  9.02448E-01  9.95247E-01 -9.27990E-02
    9036.529     43.943   3.600  9.06904E-01  9.94929E-01 -8.80247E-02
    9037.632     45.046   3.640  9.13888E-01  9.94656E-01 -8.07679E-02
    9038.748     46.162   3.680  9.24092E-01  9.94427E-01 -7.03344E-02
    9039.875     47.289   3.720  9.38567E-01  9.94241E-01 -5.56747E-02
    9041.015     48.429   3.760  9.58135E-01  9.94122E-01 -3.59873E-02
    9042.167     49.581   3.800  9.82985E-01  9.94047E-01 -1.10621E-02
    9043.332     50.746   3.840  1.01255E+00  9.94014E-01  1.85361E-02
    9044.508     51.922   3.880  1.04561E+00  9.94026E-01  5.15833E-02
    9045.697     53.111   3.920  1.08028E+00  9.94102E-01  8.61758E-02
    9046.898     54.312   3.960  1.11372E+00  9.94198E-01  1.19526E-01
    9048.111     55.525   4.000  1.14261E+00  9.94358E-01  1.48249E-01
    9049.336     56.750   4.040  1.16362E+00  9.94558E-01  1.69060E-01
    9050.574     57.988   4.080  1.17466E+00  9.94796E-01  1.79866E-01
    9051.823     59.237   4.120  1.17561E+00  9.95053E-01  1.80556E-01
    9053.085     60.499   4.160  1.16797E+00  9.95368E-01  1.72602E-01
    9054.359     61.773   4.200  1.15374E+00  9.95721E-01  1.58022E-01
    9055.646     63.060   4.240  1.13489E+00  9.96086E-01  1.38804E-01
    9056.944     64.358   4.280  1.11323E+00  9.96482E-01  1.16745E-01
    9058.255     65.669   4.320  1.09041E+00  9.96889E-01  9.35165E-02
    9059.578     66.992   4.360  1.06790E+00  9.97327E-01  7.05750E-02
    9060.913     68.327   4.400  1.04687E+00  9.97795E-01  4.90707E-02
    9062.260     69.674   4.440  1.02792E+00  9.98248E-01  2.96763E-02
    9063.619     71.033   4.480  1.01125E+00  9.98747E-01  1.25069E-02
    9064.991     72.405   4.520  9.96574E-01  9.99228E-01 -2.65351E-03
    9066.375     73.789   4.560  9.83592E-01  9.99710E-01 -1.61186E-02
    9067.771     75.185   4.600  9.72097E-01  1.00021E+00 -2.81168E-02
    9069.179     76.593   4.640  9.62127E-01  1.00070E+00 -3.85686E-02
    9070.599     78.013   4.680  9.54149E-01  1.00120E+00 -4.70478E-02
    9072.032     79.446   4.720  9.48673E-01  1.00167E+00 -5.29992E-02
    9073.476     80.890   4.760  9.46108E-01  1.00214E+00 -5.60337E-02
    9074.933     82.347   4.800  9.46400E-01  1.00260E+00 -5.62043E-02
    9076.402     83.816   4.840  9.48870E-01  1.00304E+00 -5.41677E-02
    9077.884     85.298   4.880  9.52482E-01  1.00346E+00 -5.09771E-02
    9079.377     86.791   4.920  9.55978E-01  1.00385E+00 -4.78717E-02
    9080.883     88.297   4.960  9.58311E-01  1.00423E+00 -4.59180E-02
    9082.401     89.815   5.000  9.58849E-01  1.00457E+00 -4.57254E-02
    9083.931     91.345   5.040  9.57569E-01  1.00490E+00 -4.73356E-02
    9085.473     92.887   5.080  9.55009E-01  1.00518E+00 -5.01693E-02
    9087.028     94.442   5.120  9.52279E-01  1.00544E+00 -5.31572E-02
    9088.594     96.008   5.160  9.50629E-01  1.00568E+00 -5.50503E-02
    9090.173     97.587   5.200  9.51076E-01  1.00586E+00 -5.47849E-02
    9091.764     99.178   5.240  9.54201E-01  1.00600E+00 -5.18027E-02
    9093.368    100.782   5.280  9.60086E-01  1.00613E+00 -4.60447E-02
    9094.983    102.397   5.320  9.68471E-01  1.00622E+00 -3.77460E-02
    9096.611    104.025   5.360  9.79027E-01  1.00624E+00 -2.72129E-02
    9098.250    105.664   5.400  9.91384E-01  1.00625E+00 -1.48618E-02
    9099.902    107.316   5.440  1.00479E+00  1.00621E+00 -1.42036E-03
    9101.567    108.981   5.480  1.01813E+00  1.00614E+00  1.19905E-02
    9103.243    110.657   5.520  1.03003E+00  1.00603E+00  2.40018E-02
    9104.932    112.346   5.560  1.03915E+00  1.00587E+00  3.32795E-02
    9106.632    114.046   5.600  1.04445E+00  1.00568E+00  3.87748E-02
    9108.345    115.759   5.640  1.04518E+00  1.00545E+00  3.97276E-02
    9110.071    117.485   5.680  1.04087E+00  1.00520E+00  3.56673E-02
    9111.808    119.222   5.720  1.03156E+00  1.00489E+00  2.66612E-02
    9113.557    120.971   5.760  1.01833E+00  1.00457E+00  1.37574E-02
    9115.319    122.733   5.800  1.00340E+00  1.00422E+00 -8.17766E-04
    9117.093    124.507   5.840  9.89677E-01  1.00383E+00 -1.41494E-02
    9118.879    126.293   5.880  9.79774E-01  1.00340E+00 -2.36275E-02
    9120.678    128.091   5.920  9.75103E-01  1.00297E+00 -2.78691E-02
    9122.488    129.902   5.960  9.75495E-01  1.00251E+00 -2.70187E-02
    9124.311    131.725   6.000  9.79768E-01  1.00200E+00 -2.22353E-02
