# # comment:                                                     FEFF 9.9.1  
# # Source:
# # Structure
# # Reduced
# # space
# # abc:
# # angles:
# # sites:
# # POT  SCF 100  7.0000   0, screened core-hole, AFOLP (folp(0)= 1.150)
# # Abs   Z=29 Rmt= 1.263 Rnm= 1.322 K  shell
# # Pot 1 Z=25 Rmt= 1.304 Rnm= 1.416
# # Pot 2 Z=29 Rmt= 1.280 Rnm= 1.353
# # Pot 3 Z= 8 Rmt= 1.017 Rnm= 1.096
# # Gam_ch=1.729E+00 H-L exch Vi= 0.000E+00 Vr= 0.000E+00
# # Mu=-1.055E+01eV kf=2.163E+00 Vint=-1.812E+01eV Rs_int= 1.677
# FMS rfms= 9.0000
# # PATH  Rmax=-1.000,  Keep_limit= 0.00, Heap_limit 0.00  Pwcrit= 2.50%
#  S02=0.950  Temp=   0.00  Debye_temp=   0.00  Global_sig2= 0.00000
#  Energy zero shift, vr, vi    0.00000E+00   0.00000E+00
#  Curved wave amplitude ratio filter   4.000%
#     file         sig2 tot  cw amp ratio   deg  nlegs   reff  inp sig2
#     0/   0 paths used
#  xsedge+ 50, used to normalize mu           2.4800E-04
#  -----------------------------------------------------------------------
#  omega    e    k    mu    mu0     chi     @#
    8984.713    -14.357  -1.000  3.11726E-02  4.78729E-02 -1.67004E-02
    8985.011    -14.058  -0.960  3.25326E-02  5.11745E-02 -1.86418E-02
    8985.298    -13.772  -0.920  3.39797E-02  5.48287E-02 -2.08490E-02
    8985.572    -13.497  -0.880  3.55238E-02  5.88864E-02 -2.33625E-02
    8985.834    -13.235  -0.840  3.71771E-02  6.34063E-02 -2.62292E-02
    8986.084    -12.985  -0.800  3.89537E-02  6.84567E-02 -2.95030E-02
    8986.322    -12.748  -0.760  4.08702E-02  7.41156E-02 -3.32454E-02
    8986.548    -12.522  -0.720  4.29455E-02  8.04708E-02 -3.75253E-02
    8986.761    -12.309  -0.680  4.52010E-02  8.76192E-02 -4.24182E-02
    8986.962    -12.108  -0.640  4.76593E-02  9.56625E-02 -4.80032E-02
    8987.151    -11.919  -0.600  5.03428E-02  1.04700E-01 -5.43575E-02
    8987.328    -11.742  -0.560  5.32706E-02  1.14817E-01 -6.15466E-02
    8987.493    -11.577  -0.520  5.64530E-02  1.26062E-01 -6.96093E-02
    8987.645    -11.425  -0.480  5.98852E-02  1.38423E-01 -7.85373E-02
    8987.785    -11.285  -0.440  6.35386E-02  1.51790E-01 -8.82512E-02
    8987.913    -11.157  -0.400  6.73539E-02  1.65935E-01 -9.85809E-02
    8988.029    -11.041  -0.360  7.12386E-02  1.80498E-01 -1.09260E-01
    8988.133    -10.937  -0.320  7.50730E-02  1.95013E-01 -1.19940E-01
    8988.224    -10.846  -0.280  7.87241E-02  2.08961E-01 -1.30237E-01
    8988.303    -10.766  -0.240  8.20651E-02  2.21841E-01 -1.39776E-01
    8988.370    -10.699  -0.200  8.49925E-02  2.33232E-01 -1.48239E-01
    8988.425    -10.645  -0.160  8.74348E-02  2.42822E-01 -1.55388E-01
    8988.468    -10.602  -0.120  8.93522E-02  2.50411E-01 -1.61058E-01
    8988.498    -10.571  -0.080  9.07280E-02  2.55882E-01 -1.65154E-01
    8988.523    -10.547   0.000  9.18355E-02  2.60281E-01 -1.68446E-01
    8988.578    -10.492   0.120  9.42404E-02  2.70208E-01 -1.75967E-01
    8988.620    -10.449   0.160  9.60828E-02  2.77939E-01 -1.81857E-01
    8988.675    -10.395   0.200  9.83514E-02  2.87829E-01 -1.89478E-01
    8988.742    -10.328   0.240  1.00983E-01  2.99758E-01 -1.98776E-01
    8988.821    -10.248   0.280  1.03841E-01  3.13494E-01 -2.09653E-01
    8988.913    -10.157   0.320  1.06816E-01  3.28758E-01 -2.21943E-01
    8989.017    -10.053   0.360  1.09697E-01  3.45111E-01 -2.35414E-01
    8989.132     -9.937   0.400  1.12421E-01  3.62125E-01 -2.49704E-01
    8989.260     -9.809   0.440  1.15022E-01  3.79412E-01 -2.64391E-01
    8989.401     -9.669   0.480  1.17659E-01  3.96672E-01 -2.79012E-01
    8989.553     -9.517   0.520  1.20518E-01  4.13692E-01 -2.93174E-01
    8989.718     -9.352   0.560  1.23837E-01  4.30405E-01 -3.06568E-01
    8989.894     -9.175   0.600  1.27587E-01  4.46765E-01 -3.19178E-01
    8990.083     -8.986   0.640  1.31604E-01  4.62837E-01 -3.31232E-01
    8990.284     -8.785   0.680  1.35547E-01  4.78651E-01 -3.43104E-01
    8990.498     -8.572   0.720  1.39214E-01  4.94291E-01 -3.55076E-01
    8990.723     -8.346   0.760  1.42779E-01  5.09833E-01 -3.67055E-01
    8990.961     -8.109   0.800  1.46853E-01  5.25330E-01 -3.78478E-01
    8991.211     -7.859   0.840  1.52316E-01  5.40806E-01 -3.88491E-01
    8991.473     -7.597   0.880  1.60127E-01  5.56309E-01 -3.96182E-01
    8991.748     -7.322   0.920  1.71282E-01  5.71879E-01 -4.00597E-01
    8992.034     -7.036   0.960  1.86834E-01  5.87505E-01 -4.00671E-01
    8992.333     -6.737   1.000  2.07784E-01  6.03190E-01 -3.95405E-01
    8992.644     -6.426   1.040  2.34400E-01  6.18945E-01 -3.84545E-01
    8992.967     -6.103   1.080  2.65478E-01  6.34738E-01 -3.69259E-01
    8993.302     -5.768   1.120  2.98303E-01  6.50550E-01 -3.52247E-01
    8993.649     -5.420   1.160  3.30434E-01  6.66341E-01 -3.35908E-01
    8994.009     -5.061   1.200  3.62607E-01  6.82124E-01 -3.19517E-01
    8994.381     -4.689   1.240  3.97466E-01  6.97828E-01 -3.00362E-01
    8994.765     -4.305   1.280  4.36462E-01  7.13422E-01 -2.76961E-01
    8995.161     -3.909   1.320  4.81459E-01  7.28895E-01 -2.47436E-01
    8995.570     -3.500   1.360  5.35381E-01  7.44192E-01 -2.08811E-01
    8995.990     -3.079   1.400  6.00030E-01  7.59276E-01 -1.59246E-01
    8996.423     -2.647   1.440  6.75275E-01  7.74114E-01 -9.88390E-02
    8996.868     -2.202   1.480  7.52533E-01  7.88670E-01 -3.61377E-02
    8997.325     -1.744   1.520  8.12510E-01  8.02888E-01  9.62273E-03
    8997.795     -1.275   1.560  8.41968E-01  8.16774E-01  2.51939E-02
    8998.276     -0.793   1.600  8.48214E-01  8.30274E-01  1.79403E-02
    8998.770     -0.300   1.640  8.56077E-01  8.43374E-01  1.27029E-02
    8999.276      0.206   1.680  8.94139E-01  8.56023E-01  3.81162E-02
    8999.794      0.724   1.720  9.76114E-01  8.68210E-01  1.07904E-01
    9000.325      1.255   1.760  1.09187E+00  8.79905E-01  2.11965E-01
    9000.867      1.797   1.800  1.22746E+00  8.91101E-01  3.36363E-01
    9001.422      2.352   1.840  1.37674E+00  9.01812E-01  4.74930E-01
    9001.989      2.919   1.880  1.52867E+00  9.11971E-01  6.16697E-01
    9002.568      3.498   1.920  1.67009E+00  9.21597E-01  7.48489E-01
    9003.159      4.089   1.960  1.76097E+00  9.30708E-01  8.30266E-01
    9003.763      4.693   2.000  1.75175E+00  9.39261E-01  8.12488E-01
    9004.378      5.309   2.040  1.65797E+00  9.47279E-01  7.10692E-01
    9005.006      5.936   2.080  1.51799E+00  9.54762E-01  5.63232E-01
    9005.646      6.577   2.120  1.34073E+00  9.61715E-01  3.79010E-01
    9006.299      7.229   2.160  1.15942E+00  9.68163E-01  1.91261E-01
    9006.963      7.893   2.200  1.02410E+00  9.74068E-01  5.00324E-02
    9007.640      8.570   2.240  9.45361E-01  9.79500E-01 -3.41388E-02
    9008.329      9.259   2.280  9.06301E-01  9.84445E-01 -7.81445E-02
    9009.030      9.960   2.320  8.91797E-01  9.88910E-01 -9.71126E-02
    9009.743     10.673   2.360  8.91851E-01  9.92924E-01 -1.01073E-01
    9010.468     11.398   2.400  8.92130E-01  9.96495E-01 -1.04366E-01
    9011.206     12.136   2.440  8.84456E-01  9.99655E-01 -1.15199E-01
    9011.956     12.886   2.480  8.87259E-01  1.00243E+00 -1.15174E-01
    9012.718     13.648   2.520  9.22183E-01  1.00482E+00 -8.26371E-02
    9013.492     14.422   2.560  9.77360E-01  1.00686E+00 -2.95046E-02
    9014.278     15.208   2.600  1.00919E+00  1.00856E+00  6.37077E-04
    9015.077     16.007   2.640  1.01336E+00  1.00993E+00  3.43019E-03
    9015.888     16.818   2.680  1.00660E+00  1.01101E+00 -4.41096E-03
    9016.711     17.641   2.720  9.93583E-01  1.01183E+00 -1.82447E-02
    9017.546     18.476   2.760  9.75360E-01  1.01238E+00 -3.70184E-02
    9018.393     19.323   2.800  9.54030E-01  1.01269E+00 -5.86588E-02
    9019.253     20.183   2.840  9.32250E-01  1.01281E+00 -8.05587E-02
    9020.124     21.055   2.880  9.11549E-01  1.01271E+00 -1.01158E-01
    9021.008     21.938   2.920  8.92964E-01  1.01243E+00 -1.19471E-01
    9021.904     22.835   2.960  8.77420E-01  1.01200E+00 -1.34579E-01
    9022.813     23.743   3.000  8.65178E-01  1.01141E+00 -1.46232E-01
    9023.733     24.663   3.040  8.56169E-01  1.01071E+00 -1.54546E-01
    9024.666     25.596   3.080  8.50283E-01  1.00990E+00 -1.59619E-01
    9025.611     26.541   3.120  8.46832E-01  1.00898E+00 -1.62147E-01
    9026.568     27.498   3.160  8.45332E-01  1.00797E+00 -1.62639E-01
    9027.537     28.467   3.200  8.45850E-01  1.00691E+00 -1.61058E-01
    9028.518     29.449   3.240  8.48682E-01  1.00577E+00 -1.57091E-01
    9029.512     30.442   3.280  8.54169E-01  1.00459E+00 -1.50425E-01
    9030.518     31.448   3.320  8.62651E-01  1.00338E+00 -1.40728E-01
    9031.536     32.466   3.360  8.74301E-01  1.00215E+00 -1.27848E-01
    9032.566     33.496   3.400  8.88798E-01  1.00091E+00 -1.12115E-01
    9033.609     34.539   3.440  9.05847E-01  9.99654E-01 -9.38067E-02
    9034.663     35.593   3.480  9.25307E-01  9.98416E-01 -7.31084E-02
    9035.730     36.660   3.520  9.46768E-01  9.97182E-01 -5.04138E-02
    9036.809     37.739   3.560  9.69767E-01  9.95955E-01 -2.61884E-02
    9037.900     38.830   3.600  9.93804E-01  9.94762E-01 -9.57190E-04
    9039.004     39.934   3.640  1.01813E+00  9.93604E-01  2.45275E-02
    9040.119     41.049   3.680  1.04174E+00  9.92484E-01  4.92559E-02
    9041.247     42.177   3.720  1.06362E+00  9.91405E-01  7.22133E-02
    9042.387     43.317   3.760  1.08285E+00  9.90368E-01  9.24845E-02
    9043.539     44.469   3.800  1.09877E+00  9.89398E-01  1.09375E-01
    9044.703     45.633   3.840  1.11138E+00  9.88475E-01  1.22903E-01
    9045.880     46.810   3.880  1.12127E+00  9.87596E-01  1.33672E-01
    9047.068     47.999   3.920  1.12909E+00  9.86787E-01  1.42303E-01
    9048.269     49.200   3.960  1.13492E+00  9.86027E-01  1.48894E-01
    9049.482     50.413   4.000  1.13833E+00  9.85337E-01  1.52989E-01
    9050.708     51.638   4.040  1.13830E+00  9.84699E-01  1.53601E-01
    9051.945     52.875   4.080  1.13364E+00  9.84134E-01  1.49507E-01
    9053.195     54.125   4.120  1.12340E+00  9.83642E-01  1.39758E-01
    9054.457     55.387   4.160  1.10737E+00  9.83223E-01  1.24150E-01
    9055.731     56.661   4.200  1.08645E+00  9.82855E-01  1.03594E-01
    9057.017     57.947   4.240  1.06254E+00  9.82538E-01  7.99978E-02
    9058.316     59.246   4.280  1.03797E+00  9.82313E-01  5.56523E-02
    9059.626     60.556   4.320  1.01460E+00  9.82118E-01  3.24795E-02
    9060.949     61.879   4.360  9.93596E-01  9.82015E-01  1.15811E-02
    9062.284     63.214   4.400  9.75207E-01  9.81961E-01 -6.75429E-03
    9063.631     64.561   4.440  9.59250E-01  9.81955E-01 -2.27046E-02
    9064.991     65.921   4.480  9.45579E-01  9.82016E-01 -3.64375E-02
    9066.362     67.292   4.520  9.34241E-01  9.82123E-01 -4.78820E-02
    9067.746     68.676   4.560  9.25462E-01  9.82274E-01 -5.68119E-02
    9069.142     70.072   4.600  9.19418E-01  9.82489E-01 -6.30709E-02
    9070.550     71.480   4.640  9.16042E-01  9.82725E-01 -6.66832E-02
    9071.971     72.901   4.680  9.15168E-01  9.83024E-01 -6.78558E-02
    9073.403     74.333   4.720  9.16375E-01  9.83361E-01 -6.69858E-02
    9074.848     75.778   4.760  9.19158E-01  9.83712E-01 -6.45538E-02
    9076.305     77.235   4.800  9.23075E-01  9.84099E-01 -6.10239E-02
    9077.774     78.704   4.840  9.27814E-01  9.84520E-01 -5.67060E-02
    9079.255     80.185   4.880  9.33367E-01  9.84976E-01 -5.16091E-02
    9080.749     81.679   4.920  9.39875E-01  9.85442E-01 -4.55665E-02
    9082.254     83.185   4.960  9.47636E-01  9.85937E-01 -3.83004E-02
    9083.772     84.703   5.000  9.56689E-01  9.86437E-01 -2.97477E-02
    9085.302     86.233   5.040  9.66491E-01  9.86942E-01 -2.04511E-02
    9086.845     87.775   5.080  9.75952E-01  9.87469E-01 -1.15174E-02
    9088.399     89.329   5.120  9.84042E-01  9.87977E-01 -3.93488E-03
    9089.966     90.896   5.160  9.90736E-01  9.88505E-01  2.23146E-03
    9091.545     92.475   5.200  9.96788E-01  9.89008E-01  7.77952E-03
    9093.136     94.066   5.240  1.00302E+00  9.89505E-01  1.35121E-02
    9094.739     95.669   5.280  1.00947E+00  9.89997E-01  1.94753E-02
    9096.354     97.285   5.320  1.01533E+00  9.90460E-01  2.48739E-02
    9097.982     98.912   5.360  1.01944E+00  9.90915E-01  2.85206E-02
    9099.622    100.552   5.400  1.02059E+00  9.91360E-01  2.92325E-02
    9101.274    102.204   5.440  1.01799E+00  9.91773E-01  2.62157E-02
    9102.938    103.868   5.480  1.01152E+00  9.92151E-01  1.93712E-02
    9104.614    105.545   5.520  1.00190E+00  9.92512E-01  9.38287E-03
    9106.303    107.233   5.560  9.90088E-01  9.92815E-01 -2.72758E-03
    9108.004    108.934   5.600  9.77127E-01  9.93103E-01 -1.59758E-02
    9109.717    110.647   5.640  9.63928E-01  9.93353E-01 -2.94247E-02
    9111.442    112.372   5.680  9.51549E-01  9.93563E-01 -4.20139E-02
    9113.179    114.110   5.720  9.41168E-01  9.93733E-01 -5.25647E-02
    9114.929    115.859   5.760  9.33884E-01  9.93863E-01 -5.99795E-02
    9116.691    117.621   5.800  9.30556E-01  9.93953E-01 -6.33974E-02
    9118.465    119.395   5.840  9.31714E-01  9.94002E-01 -6.22879E-02
    9120.251    121.181   5.880  9.37351E-01  9.94008E-01 -5.66569E-02
    9122.049    122.979   5.920  9.46773E-01  9.93948E-01 -4.71757E-02
    9123.859    124.790   5.960  9.58969E-01  9.93867E-01 -3.48973E-02
    9125.682    126.612   6.000  9.73391E-01  9.93691E-01 -2.03009E-02
