# # comment:                                                     FEFF 9.9.1  
# # Source:
# # Structure
# # Reduced
# # space
# # abc:
# # angles:
# # sites:
# # POT  SCF 100  7.0000   0, screened core-hole, AFOLP (folp(0)= 1.150)
# # Abs   Z=29 Rmt= 1.245 Rnm= 1.324 K  shell
# # Pot 1 Z= 3 Rmt= 1.254 Rnm= 1.319
# # Pot 2 Z=29 Rmt= 1.230 Rnm= 1.318
# # Pot 3 Z=15 Rmt= 0.932 Rnm= 1.150
# # Pot 4 Z= 8 Rmt= 0.935 Rnm= 1.051
# # Gam_ch=1.729E+00 H-L exch Vi= 0.000E+00 Vr= 0.000E+00
# # Mu=-7.282E+00eV kf=2.393E+00 Vint=-1.721E+01eV Rs_int= 1.515
# FMS rfms= 9.0000
# # PATH  Rmax=-1.000,  Keep_limit= 0.00, Heap_limit 0.00  Pwcrit= 2.50%
#  S02=0.950  Temp=   0.00  Debye_temp=   0.00  Global_sig2= 0.00000
#  Energy zero shift, vr, vi    0.00000E+00   0.00000E+00
#  Curved wave amplitude ratio filter   4.000%
#     file         sig2 tot  cw amp ratio   deg  nlegs   reff  inp sig2
#     0/   0 paths used
#  xsedge+ 50, used to normalize mu           2.4800E-04
#  -----------------------------------------------------------------------
#  omega    e    k    mu    mu0     chi     @#
    8983.507    -11.092  -1.000  3.68902E-02  5.24018E-02 -1.55116E-02
    8983.806    -10.793  -0.960  3.87426E-02  5.61938E-02 -1.74513E-02
    8984.093    -10.507  -0.920  4.07224E-02  6.04082E-02 -1.96858E-02
    8984.367    -10.232  -0.880  4.28414E-02  6.51073E-02 -2.22659E-02
    8984.629     -9.970  -0.840  4.51123E-02  7.03638E-02 -2.52514E-02
    8984.879     -9.720  -0.800  4.75494E-02  7.62618E-02 -2.87124E-02
    8985.117     -9.482  -0.760  5.01679E-02  8.28983E-02 -3.27304E-02
    8985.342     -9.257  -0.720  5.29838E-02  9.03824E-02 -3.73986E-02
    8985.556     -9.044  -0.680  5.60138E-02  9.88347E-02 -4.28209E-02
    8985.757     -8.842  -0.640  5.92737E-02  1.08382E-01 -4.91088E-02
    8985.946     -8.653  -0.600  6.27771E-02  1.19151E-01 -5.63736E-02
    8986.122     -8.477  -0.560  6.65328E-02  1.31246E-01 -6.47135E-02
    8986.287     -8.312  -0.520  7.05409E-02  1.44733E-01 -7.41920E-02
    8986.439     -8.160  -0.480  7.47876E-02  1.59597E-01 -8.48091E-02
    8986.580     -8.019  -0.440  7.92402E-02  1.75707E-01 -9.64668E-02
    8986.708     -7.891  -0.400  8.38416E-02  1.92783E-01 -1.08941E-01
    8986.824     -7.776  -0.360  8.85082E-02  2.10382E-01 -1.21873E-01
    8986.927     -7.672  -0.320  9.31327E-02  2.27929E-01 -1.34797E-01
    8987.019     -7.580  -0.280  9.75915E-02  2.44789E-01 -1.47197E-01
    8987.098     -7.501  -0.240  1.01757E-01  2.60347E-01 -1.58590E-01
    8987.165     -7.434  -0.200  1.05506E-01  2.74092E-01 -1.68586E-01
    8987.220     -7.379  -0.160  1.08731E-01  2.85651E-01 -1.76919E-01
    8987.262     -7.337  -0.120  1.11344E-01  2.94785E-01 -1.83440E-01
    8987.293     -7.306  -0.080  1.13275E-01  3.01363E-01 -1.88087E-01
    8987.317     -7.282   0.000  1.14889E-01  3.06646E-01 -1.91757E-01
    8987.372     -7.227   0.120  1.18545E-01  3.18572E-01 -2.00027E-01
    8987.415     -7.184   0.160  1.21393E-01  3.27820E-01 -2.06427E-01
    8987.470     -7.129   0.200  1.25126E-01  3.39629E-01 -2.14503E-01
    8987.537     -7.062   0.240  1.29780E-01  3.53811E-01 -2.24031E-01
    8987.616     -6.983   0.280  1.35453E-01  3.70096E-01 -2.34643E-01
    8987.707     -6.892   0.320  1.42210E-01  3.88058E-01 -2.45848E-01
    8987.811     -6.788   0.360  1.50057E-01  4.07132E-01 -2.57075E-01
    8987.927     -6.672   0.400  1.59079E-01  4.26779E-01 -2.67699E-01
    8988.055     -6.544   0.440  1.69277E-01  4.46488E-01 -2.77210E-01
    8988.195     -6.404   0.480  1.80541E-01  4.65828E-01 -2.85287E-01
    8988.348     -6.252   0.520  1.92812E-01  4.84587E-01 -2.91775E-01
    8988.512     -6.087   0.560  2.05922E-01  5.02613E-01 -2.96691E-01
    8988.689     -5.910   0.600  2.19802E-01  5.19896E-01 -3.00094E-01
    8988.878     -5.721   0.640  2.34637E-01  5.36474E-01 -3.01837E-01
    8989.079     -5.520   0.680  2.50833E-01  5.52442E-01 -3.01609E-01
    8989.292     -5.307   0.720  2.68800E-01  5.67889E-01 -2.99089E-01
    8989.518     -5.081   0.760  2.88575E-01  5.82923E-01 -2.94348E-01
    8989.756     -4.843   0.800  3.09220E-01  5.97622E-01 -2.88403E-01
    8990.006     -4.593   0.840  3.28785E-01  6.12074E-01 -2.83289E-01
    8990.268     -4.331   0.880  3.45023E-01  6.26311E-01 -2.81288E-01
    8990.542     -4.057   0.920  3.57664E-01  6.40392E-01 -2.82727E-01
    8990.829     -3.770   0.960  3.70460E-01  6.54325E-01 -2.83864E-01
    8991.127     -3.472   1.000  3.89923E-01  6.68188E-01 -2.78265E-01
    8991.438     -3.161   1.040  4.20350E-01  6.81932E-01 -2.61582E-01
    8991.761     -2.838   1.080  4.60868E-01  6.95596E-01 -2.34728E-01
    8992.097     -2.503   1.120  5.05887E-01  7.09175E-01 -2.03287E-01
    8992.444     -2.155   1.160  5.48333E-01  7.22639E-01 -1.74306E-01
    8992.804     -1.795   1.200  5.83998E-01  7.35993E-01 -1.51995E-01
    8993.176     -1.424   1.240  6.14973E-01  7.49218E-01 -1.34246E-01
    8993.560     -1.039   1.280  6.46617E-01  7.62315E-01 -1.15698E-01
    8993.956     -0.643   1.320  6.80870E-01  7.75219E-01 -9.43490E-02
    8994.364     -0.235   1.360  7.15561E-01  7.87945E-01 -7.23836E-02
    8994.785      0.186   1.400  7.49407E-01  8.00446E-01 -5.10388E-02
    8995.218      0.619   1.440  7.86778E-01  8.12716E-01 -2.59382E-02
    8995.663      1.064   1.480  8.35238E-01  8.24726E-01  1.05119E-02
    8996.120      1.521   1.520  8.96210E-01  8.36448E-01  5.97617E-02
    8996.589      1.990   1.560  9.59367E-01  8.47855E-01  1.11512E-01
    8997.071      2.472   1.600  1.01331E+00  8.58958E-01  1.54355E-01
    8997.565      2.966   1.640  1.05420E+00  8.69690E-01  1.84509E-01
    8998.071      3.472   1.680  1.07801E+00  8.80084E-01  1.97930E-01
    8998.589      3.990   1.720  1.08226E+00  8.90093E-01  1.92162E-01
    8999.119      4.520   1.760  1.07613E+00  8.99714E-01  1.76412E-01
    8999.662      5.063   1.800  1.06650E+00  9.08919E-01  1.57586E-01
    9000.216      5.617   1.840  1.05728E+00  9.17725E-01  1.39551E-01
    9000.783      6.184   1.880  1.05140E+00  9.26088E-01  1.25316E-01
    9001.362      6.763   1.920  1.04734E+00  9.34028E-01  1.13308E-01
    9001.954      7.355   1.960  1.04231E+00  9.41545E-01  1.00761E-01
    9002.557      7.958   2.000  1.03875E+00  9.48636E-01  9.01173E-02
    9003.173      8.574   2.040  1.04487E+00  9.55282E-01  8.95870E-02
    9003.801      9.202   2.080  1.06810E+00  9.61508E-01  1.06596E-01
    9004.441      9.842   2.120  1.10911E+00  9.67313E-01  1.41802E-01
    9005.093     10.494   2.160  1.15877E+00  9.72679E-01  1.86093E-01
    9005.758     11.159   2.200  1.20164E+00  9.77634E-01  2.24007E-01
    9006.434     11.835   2.240  1.22867E+00  9.82201E-01  2.46470E-01
    9007.123     12.524   2.280  1.24033E+00  9.86364E-01  2.53962E-01
    9007.824     13.225   2.320  1.23962E+00  9.90131E-01  2.49492E-01
    9008.537     13.938   2.360  1.23026E+00  9.93547E-01  2.36718E-01
    9009.263     14.664   2.400  1.21473E+00  9.96598E-01  2.18135E-01
    9010.000     15.401   2.440  1.19278E+00  9.99294E-01  1.93489E-01
    9010.750     16.151   2.480  1.16504E+00  1.00166E+00  1.63380E-01
    9011.512     16.913   2.520  1.13630E+00  1.00372E+00  1.32579E-01
    9012.286     17.687   2.560  1.11240E+00  1.00548E+00  1.06924E-01
    9013.073     18.474   2.600  1.09228E+00  1.00696E+00  8.53130E-02
    9013.871     19.272   2.640  1.06922E+00  1.00817E+00  6.10495E-02
    9014.682     20.083   2.680  1.04077E+00  1.00914E+00  3.16301E-02
    9015.505     20.906   2.720  1.01150E+00  1.00986E+00  1.64307E-03
    9016.340     21.741   2.760  9.87938E-01  1.01036E+00 -2.24253E-02
    9017.188     22.589   2.800  9.73915E-01  1.01064E+00 -3.67304E-02
    9018.047     23.448   2.840  9.61852E-01  1.01075E+00 -4.88975E-02
    9018.919     24.320   2.880  9.47925E-01  1.01069E+00 -6.27616E-02
    9019.803     25.204   2.920  9.33294E-01  1.01048E+00 -7.71893E-02
    9020.699     26.100   2.960  9.19738E-01  1.01011E+00 -9.03689E-02
    9021.607     27.008   3.000  9.08584E-01  1.00962E+00 -1.01039E-01
    9022.528     27.929   3.040  9.00172E-01  1.00902E+00 -1.08847E-01
    9023.460     28.861   3.080  8.94475E-01  1.00830E+00 -1.13829E-01
    9024.405     29.806   3.120  8.91505E-01  1.00750E+00 -1.15994E-01
    9025.362     30.763   3.160  8.90859E-01  1.00661E+00 -1.15755E-01
    9026.332     31.732   3.200  8.91646E-01  1.00568E+00 -1.14030E-01
    9027.313     32.714   3.240  8.93142E-01  1.00467E+00 -1.11526E-01
    9028.307     33.708   3.280  8.95007E-01  1.00364E+00 -1.08631E-01
    9029.312     34.713   3.320  8.96909E-01  1.00255E+00 -1.05640E-01
    9030.330     35.731   3.360  8.98812E-01  1.00145E+00 -1.02635E-01
    9031.361     36.762   3.400  9.00725E-01  1.00034E+00 -9.96114E-02
    9032.403     37.804   3.440  9.02563E-01  9.99221E-01 -9.66582E-02
    9033.458     38.859   3.480  9.04369E-01  9.98084E-01 -9.37147E-02
    9034.525     39.925   3.520  9.06547E-01  9.96969E-01 -9.04215E-02
    9035.603     41.004   3.560  9.09631E-01  9.95859E-01 -8.62278E-02
    9036.695     42.096   3.600  9.14251E-01  9.94780E-01 -8.05282E-02
    9037.798     43.199   3.640  9.21023E-01  9.93711E-01 -7.26878E-02
    9038.914     44.315   3.680  9.30389E-01  9.92679E-01 -6.22901E-02
    9040.041     45.442   3.720  9.42278E-01  9.91705E-01 -4.94271E-02
    9041.181     46.582   3.760  9.55990E-01  9.90751E-01 -3.47607E-02
    9042.333     47.734   3.800  9.70540E-01  9.89836E-01 -1.92953E-02
    9043.498     48.899   3.840  9.84806E-01  9.88983E-01 -4.17756E-03
    9044.674     50.075   3.880  9.97875E-01  9.88156E-01  9.71906E-03
    9045.863     51.264   3.920  1.00942E+00  9.87415E-01  2.20063E-02
    9047.064     52.465   3.960  1.01935E+00  9.86701E-01  3.26475E-02
    9048.277     53.678   4.000  1.02783E+00  9.86055E-01  4.17782E-02
    9049.502     54.903   4.040  1.03515E+00  9.85479E-01  4.96735E-02
    9050.740     56.141   4.080  1.04157E+00  9.84951E-01  5.66169E-02
    9051.989     57.390   4.120  1.04725E+00  9.84470E-01  6.27774E-02
    9053.251     58.652   4.160  1.05228E+00  9.84058E-01  6.82209E-02
    9054.525     59.926   4.200  1.05658E+00  9.83696E-01  7.28859E-02
    9055.812     61.213   4.240  1.05996E+00  9.83405E-01  7.65543E-02
    9057.110     62.511   4.280  1.06206E+00  9.83185E-01  7.88764E-02
    9058.421     63.822   4.320  1.06250E+00  9.83013E-01  7.94863E-02
    9059.744     65.145   4.360  1.06096E+00  9.82887E-01  7.80772E-02
    9061.079     66.480   4.400  1.05740E+00  9.82830E-01  7.45748E-02
    9062.426     67.827   4.440  1.05211E+00  9.82819E-01  6.92878E-02
    9063.785     69.186   4.480  1.04560E+00  9.82875E-01  6.27225E-02
    9065.157     70.558   4.520  1.03838E+00  9.82954E-01  5.54288E-02
    9066.541     71.942   4.560  1.03102E+00  9.83097E-01  4.79223E-02
    9067.937     73.337   4.600  1.02394E+00  9.83284E-01  4.06538E-02
    9069.345     74.746   4.640  1.01753E+00  9.83534E-01  3.39912E-02
    9070.765     76.166   4.680  1.01202E+00  9.83802E-01  2.82132E-02
    9072.198     77.599   4.720  1.00754E+00  9.84107E-01  2.34316E-02
    9073.642     79.043   4.760  1.00398E+00  9.84449E-01  1.95306E-02
    9075.099     80.500   4.800  1.00105E+00  9.84826E-01  1.62196E-02
    9076.568     81.969   4.840  9.98298E-01  9.85215E-01  1.30833E-02
    9078.050     83.451   4.880  9.95286E-01  9.85637E-01  9.64965E-03
    9079.543     84.944   4.920  9.91582E-01  9.86089E-01  5.49257E-03
    9081.049     86.450   4.960  9.86853E-01  9.86550E-01  3.03743E-04
    9082.567     87.968   5.000  9.81030E-01  9.87016E-01 -5.98651E-03
    9084.097     89.498   5.040  9.74392E-01  9.87509E-01 -1.31162E-02
    9085.639     91.040   5.080  9.67493E-01  9.88004E-01 -2.05114E-02
    9087.194     92.595   5.120  9.61091E-01  9.88501E-01 -2.74100E-02
    9088.760     94.161   5.160  9.55833E-01  9.88998E-01 -3.31656E-02
    9090.339     95.740   5.200  9.52095E-01  9.89491E-01 -3.73960E-02
    9091.930     97.331   5.240  9.49868E-01  9.89957E-01 -4.00889E-02
    9093.534     98.934   5.280  9.48931E-01  9.90441E-01 -4.15094E-02
    9095.149    100.550   5.320  9.48862E-01  9.90895E-01 -4.20325E-02
    9096.777    102.178   5.360  9.49354E-01  9.91318E-01 -4.19643E-02
    9098.416    103.817   5.400  9.50289E-01  9.91732E-01 -4.14428E-02
    9100.068    105.469   5.440  9.51632E-01  9.92137E-01 -4.05049E-02
    9101.733    107.134   5.480  9.53357E-01  9.92509E-01 -3.91521E-02
    9103.409    108.810   5.520  9.55453E-01  9.92845E-01 -3.73919E-02
    9105.098    110.499   5.560  9.57905E-01  9.93166E-01 -3.52604E-02
    9106.798    112.199   5.600  9.60571E-01  9.93427E-01 -3.28565E-02
    9108.511    113.912   5.640  9.63324E-01  9.93673E-01 -3.03492E-02
    9110.237    115.637   5.680  9.65946E-01  9.93881E-01 -2.79355E-02
    9111.974    117.375   5.720  9.68272E-01  9.94048E-01 -2.57762E-02
    9113.723    119.124   5.760  9.70297E-01  9.94174E-01 -2.38768E-02
    9115.485    120.886   5.800  9.72222E-01  9.94236E-01 -2.20147E-02
    9117.259    122.660   5.840  9.74494E-01  9.94281E-01 -1.97865E-02
    9119.045    124.446   5.880  9.77493E-01  9.94285E-01 -1.67915E-02
    9120.844    126.244   5.920  9.81393E-01  9.94223E-01 -1.28306E-02
    9122.654    128.055   5.960  9.86167E-01  9.94141E-01 -7.97389E-03
    9124.477    129.878   6.000  9.91588E-01  9.93963E-01 -2.37567E-03
