# # comment:                                                     FEFF 9.9.1  
# # Source:
# # Structure
# # Reduced
# # space
# # abc:
# # angles:
# # sites:
# # POT  SCF 100  7.0000   0, screened core-hole, AFOLP (folp(0)= 1.150)
# # Abs   Z=29 Rmt= 1.118 Rnm= 1.259 K  shell
# # Pot 1 Z=11 Rmt= 1.499 Rnm= 1.555
# # Pot 2 Z=29 Rmt= 1.118 Rnm= 1.259
# # Pot 3 Z= 8 Rmt= 1.087 Rnm= 1.146
# # Gam_ch=1.729E+00 H-L exch Vi= 0.000E+00 Vr= 0.000E+00
# # Mu=-8.591E+00eV kf=1.845E+00 Vint=-1.551E+01eV Rs_int= 1.966
# FMS rfms= 9.0000
# # PATH  Rmax=-1.000,  Keep_limit= 0.00, Heap_limit 0.00  Pwcrit= 2.50%
#  S02=0.950  Temp=   0.00  Debye_temp=   0.00  Global_sig2= 0.00000
#  Energy zero shift, vr, vi    0.00000E+00   0.00000E+00
#  Curved wave amplitude ratio filter   4.000%
#     file         sig2 tot  cw amp ratio   deg  nlegs   reff  inp sig2
#     0/   0 paths used
#  xsedge+ 50, used to normalize mu           2.4489E-04
#  -----------------------------------------------------------------------
#  omega    e    k    mu    mu0     chi     @#
    8984.269    -12.401  -1.000  3.41572E-02  5.51808E-02 -2.10236E-02
    8984.568    -12.102  -0.960  3.58365E-02  5.90870E-02 -2.32505E-02
    8984.854    -11.816  -0.920  3.76423E-02  6.34133E-02 -2.57710E-02
    8985.129    -11.541  -0.880  3.95890E-02  6.82199E-02 -2.86308E-02
    8985.391    -11.279  -0.840  4.16930E-02  7.35765E-02 -3.18835E-02
    8985.641    -11.029  -0.800  4.39728E-02  7.95639E-02 -3.55911E-02
    8985.879    -10.791  -0.760  4.64491E-02  8.62744E-02 -3.98253E-02
    8986.104    -10.566  -0.720  4.91446E-02  9.38121E-02 -4.46675E-02
    8986.317    -10.353  -0.680  5.20835E-02  1.02291E-01 -5.02076E-02
    8986.519    -10.151  -0.640  5.52905E-02  1.11832E-01 -5.65412E-02
    8986.708     -9.962  -0.600  5.87882E-02  1.22551E-01 -6.37629E-02
    8986.884     -9.786  -0.560  6.25943E-02  1.34549E-01 -7.19548E-02
    8987.049     -9.621  -0.520  6.67159E-02  1.47883E-01 -8.11675E-02
    8987.201     -9.469  -0.480  7.11426E-02  1.62538E-01 -9.13953E-02
    8987.342     -9.328  -0.440  7.58386E-02  1.78385E-01 -1.02546E-01
    8987.470     -9.200  -0.400  8.07358E-02  1.95153E-01 -1.14418E-01
    8987.585     -9.085  -0.360  8.57315E-02  2.12419E-01 -1.26687E-01
    8987.689     -8.981  -0.320  9.06936E-02  2.29630E-01 -1.38936E-01
    8987.781     -8.890  -0.280  9.54733E-02  2.46172E-01 -1.50699E-01
    8987.860     -8.810  -0.240  9.99218E-02  2.61454E-01 -1.61532E-01
    8987.927     -8.743  -0.200  1.03905E-01  2.74974E-01 -1.71069E-01
    8987.982     -8.688  -0.160  1.07313E-01  2.86363E-01 -1.79050E-01
    8988.024     -8.646  -0.120  1.10062E-01  2.95379E-01 -1.85317E-01
    8988.055     -8.615  -0.080  1.12090E-01  3.01882E-01 -1.89792E-01
    8988.079     -8.591   0.000  1.13791E-01  3.07113E-01 -1.93322E-01
    8988.134     -8.536   0.120  1.17517E-01  3.18922E-01 -2.01405E-01
    8988.177     -8.493   0.160  1.20425E-01  3.28123E-01 -2.07698E-01
    8988.232     -8.438   0.200  1.24191E-01  3.39907E-01 -2.15716E-01
    8988.299     -8.371   0.240  1.28845E-01  3.54117E-01 -2.25272E-01
    8988.378     -8.292   0.280  1.34412E-01  3.70532E-01 -2.36120E-01
    8988.469     -8.201   0.320  1.40932E-01  3.88765E-01 -2.47832E-01
    8988.573     -8.097   0.360  1.48414E-01  4.08354E-01 -2.59940E-01
    8988.689     -7.981   0.400  1.56925E-01  4.28808E-01 -2.71884E-01
    8988.817     -7.853   0.440  1.66536E-01  4.49653E-01 -2.83117E-01
    8988.957     -7.713   0.480  1.77469E-01  4.70536E-01 -2.93067E-01
    8989.109     -7.561   0.520  1.89980E-01  4.91216E-01 -3.01236E-01
    8989.274     -7.396   0.560  2.04210E-01  5.11587E-01 -3.07377E-01
    8989.451     -7.219   0.600  2.19589E-01  5.31617E-01 -3.12028E-01
    8989.640     -7.030   0.640  2.34294E-01  5.51333E-01 -3.17039E-01
    8989.841     -6.829   0.680  2.45224E-01  5.70792E-01 -3.25567E-01
    8990.054     -6.616   0.720  2.49749E-01  5.90081E-01 -3.40332E-01
    8990.280     -6.390   0.760  2.48394E-01  6.09223E-01 -3.60828E-01
    8990.518     -6.152   0.800  2.45121E-01  6.28315E-01 -3.83194E-01
    8990.768     -5.902   0.840  2.44174E-01  6.47357E-01 -4.03184E-01
    8991.030     -5.640   0.880  2.47742E-01  6.66378E-01 -4.18636E-01
    8991.304     -5.366   0.920  2.55793E-01  6.85392E-01 -4.29599E-01
    8991.590     -5.080   0.960  2.67583E-01  7.04382E-01 -4.36799E-01
    8991.889     -4.781   1.000  2.83747E-01  7.23323E-01 -4.39576E-01
    8992.200     -4.470   1.040  3.05911E-01  7.42196E-01 -4.36286E-01
    8992.523     -4.147   1.080  3.33829E-01  7.60961E-01 -4.27132E-01
    8992.858     -3.812   1.120  3.64572E-01  7.79567E-01 -4.14994E-01
    8993.206     -3.464   1.160  3.96175E-01  7.97960E-01 -4.01785E-01
    8993.566     -3.104   1.200  4.30356E-01  8.16104E-01 -3.85747E-01
    8993.937     -2.733   1.240  4.71495E-01  8.33939E-01 -3.62444E-01
    8994.321     -2.349   1.280  5.22749E-01  8.51404E-01 -3.28655E-01
    8994.718     -1.952   1.320  5.79323E-01  8.68457E-01 -2.89134E-01
    8995.126     -1.544   1.360  6.25932E-01  8.85014E-01 -2.59083E-01
    8995.547     -1.123   1.400  6.45714E-01  9.01056E-01 -2.55342E-01
    8995.980     -0.690   1.440  6.28829E-01  9.16541E-01 -2.87713E-01
    8996.425     -0.245   1.480  5.85353E-01  9.31391E-01 -3.46038E-01
    8996.882      0.212   1.520  5.43077E-01  9.45587E-01 -4.02510E-01
    8997.351      0.681   1.560  5.22337E-01  9.59095E-01 -4.36757E-01
    8997.833      1.163   1.600  5.29061E-01  9.71902E-01 -4.42841E-01
    8998.327      1.657   1.640  5.61872E-01  9.83938E-01 -4.22066E-01
    8998.833      2.162   1.680  6.15551E-01  9.95235E-01 -3.79684E-01
    8999.351      2.681   1.720  6.86136E-01  1.00577E+00 -3.19634E-01
    8999.881      3.211   1.760  7.73289E-01  1.01552E+00 -2.42231E-01
    9000.424      3.754   1.800  8.72333E-01  1.02448E+00 -1.52150E-01
    9000.978      4.308   1.840  9.75508E-01  1.03268E+00 -5.71761E-02
    9001.545      4.875   1.880  1.07674E+00  1.04011E+00  3.66312E-02
    9002.124      5.454   1.920  1.17692E+00  1.04680E+00  1.30117E-01
    9002.716      6.046   1.960  1.28264E+00  1.05273E+00  2.29906E-01
    9003.319      6.649   2.000  1.39949E+00  1.05795E+00  3.41537E-01
    9003.935      7.265   2.040  1.52246E+00  1.06250E+00  4.59969E-01
    9004.563      7.893   2.080  1.63497E+00  1.06635E+00  5.68619E-01
    9005.203      8.533   2.120  1.71955E+00  1.06958E+00  6.49963E-01
    9005.855      9.185   2.160  1.75599E+00  1.07222E+00  6.83779E-01
    9006.520      9.850   2.200  1.72130E+00  1.07425E+00  6.47050E-01
    9007.196     10.526   2.240  1.61366E+00  1.07574E+00  5.37922E-01
    9007.885     11.215   2.280  1.47716E+00  1.07671E+00  4.00450E-01
    9008.586     11.916   2.320  1.37198E+00  1.07720E+00  2.94773E-01
    9009.299     12.629   2.360  1.29558E+00  1.07725E+00  2.18324E-01
    9010.025     13.355   2.400  1.23836E+00  1.07691E+00  1.61457E-01
    9010.762     14.092   2.440  1.19414E+00  1.07615E+00  1.17994E-01
    9011.512     14.842   2.480  1.15943E+00  1.07506E+00  8.43711E-02
    9012.274     15.604   2.520  1.13118E+00  1.07365E+00  5.75221E-02
    9013.048     16.378   2.560  1.10799E+00  1.07194E+00  3.60549E-02
    9013.835     17.165   2.600  1.08977E+00  1.06999E+00  1.97854E-02
    9014.633     17.963   2.640  1.07590E+00  1.06780E+00  8.10117E-03
    9015.444     18.774   2.680  1.06617E+00  1.06540E+00  7.61682E-04
    9016.267     19.597   2.720  1.06007E+00  1.06284E+00 -2.76632E-03
    9017.102     20.432   2.760  1.05678E+00  1.06011E+00 -3.32536E-03
    9017.949     21.279   2.800  1.05520E+00  1.05726E+00 -2.05987E-03
    9018.809     22.139   2.840  1.05436E+00  1.05431E+00  5.57160E-05
    9019.681     23.011   2.880  1.05319E+00  1.05125E+00  1.93763E-03
    9020.565     23.895   2.920  1.05036E+00  1.04814E+00  2.21371E-03
    9021.461     24.791   2.960  1.04503E+00  1.04499E+00  4.22534E-05
    9022.369     25.699   3.000  1.03729E+00  1.04180E+00 -4.50431E-03
    9023.290     26.620   3.040  1.02754E+00  1.03859E+00 -1.10487E-02
    9024.222     27.552   3.080  1.01657E+00  1.03539E+00 -1.88221E-02
    9025.167     28.497   3.120  1.00499E+00  1.03220E+00 -2.72118E-02
    9026.124     29.454   3.160  9.92917E-01  1.02904E+00 -3.61225E-02
    9027.093     30.423   3.200  9.79995E-01  1.02592E+00 -4.59221E-02
    9028.075     31.405   3.240  9.66029E-01  1.02286E+00 -5.68272E-02
    9029.069     32.399   3.280  9.50974E-01  1.01983E+00 -6.88513E-02
    9030.074     33.404   3.320  9.35080E-01  1.01689E+00 -8.18111E-02
    9031.092     34.422   3.360  9.18983E-01  1.01401E+00 -9.50286E-02
    9032.123     35.453   3.400  9.03760E-01  1.01124E+00 -1.07478E-01
    9033.165     36.495   3.440  8.90311E-01  1.00855E+00 -1.18241E-01
    9034.220     37.550   3.480  8.79583E-01  1.00596E+00 -1.26374E-01
    9035.286     38.616   3.520  8.72348E-01  1.00345E+00 -1.31099E-01
    9036.365     39.695   3.560  8.68753E-01  1.00107E+00 -1.32314E-01
    9037.457     40.787   3.600  8.68294E-01  9.98784E-01 -1.30490E-01
    9038.560     41.890   3.640  8.70253E-01  9.96616E-01 -1.26363E-01
    9039.676     43.006   3.680  8.73693E-01  9.94570E-01 -1.20877E-01
    9040.803     44.133   3.720  8.77437E-01  9.92633E-01 -1.15196E-01
    9041.943     45.273   3.760  8.80814E-01  9.90836E-01 -1.10021E-01
    9043.095     46.425   3.800  8.83654E-01  9.89149E-01 -1.05495E-01
    9044.260     47.590   3.840  8.86302E-01  9.87590E-01 -1.01288E-01
    9045.436     48.766   3.880  8.89452E-01  9.86160E-01 -9.67074E-02
    9046.625     49.955   3.920  8.93943E-01  9.84849E-01 -9.09060E-02
    9047.826     51.156   3.960  9.00418E-01  9.83661E-01 -8.32430E-02
    9049.039     52.369   4.000  9.09222E-01  9.82598E-01 -7.33755E-02
    9050.264     53.594   4.040  9.20482E-01  9.81678E-01 -6.11958E-02
    9051.502     54.832   4.080  9.34080E-01  9.80861E-01 -4.67802E-02
    9052.751     56.081   4.120  9.49832E-01  9.80185E-01 -3.03524E-02
    9054.013     57.343   4.160  9.67370E-01  9.79608E-01 -1.22381E-02
    9055.287     58.617   4.200  9.86213E-01  9.79150E-01  7.06261E-03
    9056.574     59.904   4.240  1.00560E+00  9.78810E-01  2.67869E-02
    9057.872     61.202   4.280  1.02463E+00  9.78589E-01  4.60429E-02
    9059.183     62.513   4.320  1.04252E+00  9.78484E-01  6.40345E-02
    9060.505     63.835   4.360  1.05847E+00  9.78471E-01  7.99959E-02
    9061.840     65.170   4.400  1.07167E+00  9.78549E-01  9.31189E-02
    9063.188     66.518   4.440  1.08141E+00  9.78760E-01  1.02649E-01
    9064.547     67.877   4.480  1.08709E+00  9.79038E-01  1.08055E-01
    9065.919     69.249   4.520  1.08871E+00  9.79423E-01  1.09289E-01
    9067.302     70.632   4.560  1.08679E+00  9.79893E-01  1.06892E-01
    9068.698     72.028   4.600  1.08217E+00  9.80444E-01  1.01727E-01
    9070.107     73.437   4.640  1.07585E+00  9.81075E-01  9.47796E-02
    9071.527     74.857   4.680  1.06881E+00  9.81783E-01  8.70242E-02
    9072.960     76.290   4.720  1.06183E+00  9.82544E-01  7.92867E-02
    9074.404     77.734   4.760  1.05546E+00  9.83376E-01  7.20815E-02
    9075.861     79.191   4.800  1.04980E+00  9.84257E-01  6.55438E-02
    9077.330     80.660   4.840  1.04477E+00  9.85207E-01  5.95639E-02
    9078.812     82.142   4.880  1.04017E+00  9.86202E-01  5.39635E-02
    9080.305     83.635   4.920  1.03578E+00  9.87237E-01  4.85438E-02
    9081.811     85.141   4.960  1.03135E+00  9.88310E-01  4.30408E-02
    9083.329     86.659   5.000  1.02664E+00  9.89397E-01  3.72401E-02
    9084.859     88.189   5.040  1.02179E+00  9.90538E-01  3.12526E-02
    9086.401     89.731   5.080  1.01708E+00  9.91666E-01  2.54120E-02
    9087.956     91.286   5.120  1.01290E+00  9.92821E-01  2.00824E-02
    9089.522     92.852   5.160  1.00939E+00  9.93980E-01  1.54115E-02
    9091.101     94.431   5.200  1.00631E+00  9.95161E-01  1.11497E-02
    9092.692     96.022   5.240  1.00294E+00  9.96318E-01  6.61993E-03
    9094.295     97.625   5.280  9.98451E-01  9.97446E-01  1.00452E-03
    9095.911     99.241   5.320  9.92536E-01  9.98589E-01 -6.05337E-03
    9097.539    100.869   5.360  9.85562E-01  9.99702E-01 -1.41404E-02
    9099.178    102.508   5.400  9.78536E-01  1.00078E+00 -2.22445E-02
    9100.830    104.160   5.440  9.72709E-01  1.00184E+00 -2.91354E-02
    9102.495    105.825   5.480  9.69172E-01  1.00287E+00 -3.36964E-02
    9104.171    107.501   5.520  9.68530E-01  1.00383E+00 -3.52986E-02
    9105.860    109.190   5.560  9.70544E-01  1.00477E+00 -3.42249E-02
    9107.560    110.890   5.600  9.73987E-01  1.00564E+00 -3.16534E-02
    9109.273    112.603   5.640  9.77420E-01  1.00647E+00 -2.90449E-02
    9110.998    114.328   5.680  9.79960E-01  1.00724E+00 -2.72830E-02
    9112.736    116.066   5.720  9.81530E-01  1.00795E+00 -2.64197E-02
    9114.485    117.815   5.760  9.82510E-01  1.00860E+00 -2.60936E-02
    9116.247    119.577   5.800  9.83150E-01  1.00918E+00 -2.60310E-02
    9118.021    121.351   5.840  9.83588E-01  1.00968E+00 -2.60910E-02
    9119.807    123.137   5.880  9.83960E-01  1.01012E+00 -2.61613E-02
    9121.605    124.935   5.920  9.84170E-01  1.01045E+00 -2.62837E-02
    9123.416    126.746   5.960  9.83965E-01  1.01071E+00 -2.67467E-02
    9125.239    128.569   6.000  9.82899E-01  1.01084E+00 -2.79373E-02
