# # comment:                                                     FEFF 9.9.1  
# # Source:
# # Structure
# # Reduced
# # space
# # abc:
# # angles:
# # sites:
# # POT  SCF 100  7.0000   0, screened core-hole, AFOLP (folp(0)= 1.150)
# # Abs   Z=29 Rmt= 1.244 Rnm= 1.335 K  shell
# # Pot 1 Z=11 Rmt= 1.533 Rnm= 1.588
# # Pot 2 Z=29 Rmt= 1.234 Rnm= 1.327
# # Pot 3 Z=32 Rmt= 1.119 Rnm= 1.313
# # Pot 4 Z= 8 Rmt= 0.988 Rnm= 1.084
# # Gam_ch=1.729E+00 H-L exch Vi= 0.000E+00 Vr= 0.000E+00
# # Mu=-6.701E+00eV kf=2.230E+00 Vint=-1.620E+01eV Rs_int= 1.626
# FMS rfms= 9.0000
# # PATH  Rmax=-1.000,  Keep_limit= 0.00, Heap_limit 0.00  Pwcrit= 2.50%
#  S02=0.950  Temp=   0.00  Debye_temp=   0.00  Global_sig2= 0.00000
#  Energy zero shift, vr, vi    0.00000E+00   0.00000E+00
#  Curved wave amplitude ratio filter   4.000%
#     file         sig2 tot  cw amp ratio   deg  nlegs   reff  inp sig2
#     0/   0 paths used
#  xsedge+ 50, used to normalize mu           2.4672E-04
#  -----------------------------------------------------------------------
#  omega    e    k    mu    mu0     chi     @#
    8983.499    -10.511  -1.000  4.46407E-02  5.40188E-02 -9.37806E-03
    8983.798    -10.212  -0.960  4.75003E-02  5.79600E-02 -1.04598E-02
    8984.084     -9.926  -0.920  5.06398E-02  6.23418E-02 -1.17020E-02
    8984.359     -9.652  -0.880  5.40952E-02  6.72292E-02 -1.31340E-02
    8984.621     -9.389  -0.840  5.79071E-02  7.26981E-02 -1.47911E-02
    8984.871     -9.140  -0.800  6.21210E-02  7.88364E-02 -1.67155E-02
    8985.108     -8.902  -0.760  6.67874E-02  8.57450E-02 -1.89577E-02
    8985.334     -8.676  -0.720  7.19612E-02  9.35380E-02 -2.15768E-02
    8985.547     -8.463  -0.680  7.77003E-02  1.02341E-01 -2.46407E-02
    8985.749     -8.262  -0.640  8.40634E-02  1.12287E-01 -2.82236E-02
    8985.938     -8.073  -0.600  9.11049E-02  1.23506E-01 -3.24012E-02
    8986.114     -7.896  -0.560  9.88687E-02  1.36110E-01 -3.72412E-02
    8986.279     -7.731  -0.520  1.07378E-01  1.50165E-01 -4.27873E-02
    8986.431     -7.579  -0.480  1.16620E-01  1.65657E-01 -4.90364E-02
    8986.572     -7.439  -0.440  1.26536E-01  1.82449E-01 -5.59134E-02
    8986.700     -7.311  -0.400  1.37000E-01  2.00249E-01 -6.32494E-02
    8986.815     -7.195  -0.360  1.47816E-01  2.18596E-01 -7.07797E-02
    8986.919     -7.091  -0.320  1.58720E-01  2.36890E-01 -7.81703E-02
    8987.010     -7.000  -0.280  1.69395E-01  2.54468E-01 -8.50729E-02
    8987.090     -6.921  -0.240  1.79501E-01  2.70691E-01 -9.11903E-02
    8987.157     -6.854  -0.200  1.88699E-01  2.85025E-01 -9.63259E-02
    8987.212     -6.799  -0.160  1.96682E-01  2.97079E-01 -1.00397E-01
    8987.254     -6.756  -0.120  2.03189E-01  3.06605E-01 -1.03416E-01
    8987.285     -6.725  -0.080  2.08018E-01  3.13467E-01 -1.05449E-01
    8987.309     -6.701   0.000  2.12058E-01  3.18978E-01 -1.06920E-01
    8987.364     -6.646   0.120  2.21058E-01  3.31391E-01 -1.10333E-01
    8987.407     -6.604   0.160  2.28252E-01  3.41051E-01 -1.12799E-01
    8987.462     -6.549   0.200  2.37757E-01  3.53364E-01 -1.15606E-01
    8987.529     -6.482   0.240  2.49809E-01  3.68178E-01 -1.18369E-01
    8987.608     -6.402   0.280  2.64582E-01  3.85169E-01 -1.20588E-01
    8987.699     -6.311   0.320  2.82291E-01  4.03898E-01 -1.21607E-01
    8987.803     -6.207   0.360  3.03020E-01  4.23818E-01 -1.20799E-01
    8987.919     -6.092   0.400  3.26654E-01  4.44348E-01 -1.17694E-01
    8988.047     -5.963   0.440  3.52657E-01  4.64916E-01 -1.12259E-01
    8988.187     -5.823   0.480  3.79917E-01  4.85133E-01 -1.05216E-01
    8988.339     -5.671   0.520  4.06578E-01  5.04738E-01 -9.81604E-02
    8988.504     -5.506   0.560  4.30246E-01  5.23573E-01 -9.33277E-02
    8988.681     -5.330   0.600  4.48890E-01  5.41626E-01 -9.27355E-02
    8988.870     -5.141   0.640  4.61879E-01  5.58955E-01 -9.70760E-02
    8989.071     -4.939   0.680  4.70357E-01  5.75637E-01 -1.05280E-01
    8989.284     -4.726   0.720  4.76536E-01  5.91763E-01 -1.15227E-01
    8989.510     -4.500   0.760  4.82478E-01  6.07423E-01 -1.24946E-01
    8989.748     -4.263   0.800  4.89504E-01  6.22718E-01 -1.33214E-01
    8989.997     -4.013   0.840  4.98006E-01  6.37713E-01 -1.39707E-01
    8990.260     -3.751   0.880  5.06991E-01  6.52443E-01 -1.45452E-01
    8990.534     -3.476   0.920  5.13830E-01  6.66988E-01 -1.53158E-01
    8990.820     -3.190   0.960  5.14236E-01  6.81355E-01 -1.67119E-01
    8991.119     -2.891   1.000  5.04282E-01  6.95560E-01 -1.91277E-01
    8991.430     -2.580   1.040  4.85308E-01  7.09611E-01 -2.24303E-01
    8991.753     -2.257   1.080  4.65323E-01  7.23530E-01 -2.58208E-01
    8992.088     -1.922   1.120  4.52781E-01  7.37270E-01 -2.84489E-01
    8992.436     -1.574   1.160  4.52064E-01  7.50858E-01 -2.98795E-01
    8992.795     -1.215   1.200  4.64291E-01  7.64258E-01 -2.99968E-01
    8993.167     -0.843   1.240  4.89194E-01  7.77452E-01 -2.88257E-01
    8993.551     -0.459   1.280  5.24161E-01  7.90438E-01 -2.66277E-01
    8993.948     -0.063   1.320  5.61819E-01  8.03170E-01 -2.41351E-01
    8994.356      0.346   1.360  5.92749E-01  8.15644E-01 -2.22896E-01
    8994.777      0.766   1.400  6.14006E-01  8.27814E-01 -2.13809E-01
    8995.210      1.199   1.440  6.33376E-01  8.39673E-01 -2.06297E-01
    8995.655      1.644   1.480  6.60395E-01  8.51194E-01 -1.90799E-01
    8996.112      2.101   1.520  6.95682E-01  8.62370E-01 -1.66688E-01
    8996.581      2.571   1.560  7.33972E-01  8.73175E-01 -1.39203E-01
    8997.063      3.052   1.600  7.75806E-01  8.83581E-01 -1.07774E-01
    8997.556      3.546   1.640  8.26303E-01  8.93583E-01 -6.72796E-02
    8998.062      4.052   1.680  8.86158E-01  9.03158E-01 -1.69998E-02
    8998.581      4.570   1.720  9.52515E-01  9.12321E-01  4.01949E-02
    8999.111      5.101   1.760  1.02653E+00  9.21027E-01  1.05503E-01
    8999.653      5.643   1.800  1.10999E+00  9.29299E-01  1.80692E-01
    9000.208      6.198   1.840  1.18874E+00  9.37113E-01  2.51629E-01
    9000.775      6.765   1.880  1.24306E+00  9.44489E-01  2.98570E-01
    9001.354      7.344   1.920  1.27412E+00  9.51408E-01  3.22711E-01
    9001.946      7.935   1.960  1.29903E+00  9.57874E-01  3.41159E-01
    9002.549      8.539   2.000  1.32535E+00  9.63909E-01  3.61443E-01
    9003.165      9.155   2.040  1.34860E+00  9.69495E-01  3.79104E-01
    9003.793      9.782   2.080  1.36698E+00  9.74661E-01  3.92321E-01
    9004.433     10.422   2.120  1.37600E+00  9.79410E-01  3.96586E-01
    9005.085     11.075   2.160  1.36301E+00  9.83768E-01  3.79246E-01
    9005.749     11.739   2.200  1.32619E+00  9.87700E-01  3.38487E-01
    9006.426     12.416   2.240  1.27905E+00  9.91277E-01  2.87769E-01
    9007.115     13.105   2.280  1.23478E+00  9.94484E-01  2.40301E-01
    9007.816     13.806   2.320  1.19890E+00  9.97328E-01  2.01570E-01
    9008.529     14.519   2.360  1.16916E+00  9.99839E-01  1.69317E-01
    9009.255     15.244   2.400  1.14099E+00  1.00202E+00  1.38968E-01
    9009.992     15.982   2.440  1.11476E+00  1.00392E+00  1.10846E-01
    9010.742     16.732   2.480  1.09341E+00  1.00554E+00  8.78768E-02
    9011.504     17.494   2.520  1.07569E+00  1.00686E+00  6.88293E-02
    9012.278     18.268   2.560  1.05863E+00  1.00796E+00  5.06783E-02
    9013.065     19.054   2.600  1.04016E+00  1.00881E+00  3.13564E-02
    9013.863     19.853   2.640  1.02038E+00  1.00943E+00  1.09534E-02
    9014.674     20.664   2.680  1.00128E+00  1.00986E+00 -8.58415E-03
    9015.497     21.487   2.720  9.81647E-01  1.01010E+00 -2.84532E-02
    9016.332     22.322   2.760  9.61109E-01  1.01017E+00 -4.90629E-02
    9017.179     23.169   2.800  9.40834E-01  1.01010E+00 -6.92706E-02
    9018.039     24.029   2.840  9.22398E-01  1.00988E+00 -8.74870E-02
    9018.911     24.900   2.880  9.07282E-01  1.00954E+00 -1.02259E-01
    9019.795     25.784   2.920  8.96111E-01  1.00910E+00 -1.12987E-01
    9020.691     26.680   2.960  8.88891E-01  1.00854E+00 -1.19653E-01
    9021.599     27.589   3.000  8.85027E-01  1.00790E+00 -1.22877E-01
    9022.519     28.509   3.040  8.83264E-01  1.00718E+00 -1.23921E-01
    9023.452     29.442   3.080  8.82474E-01  1.00641E+00 -1.23939E-01
    9024.397     30.387   3.120  8.81787E-01  1.00557E+00 -1.23787E-01
    9025.354     31.344   3.160  8.80492E-01  1.00471E+00 -1.24221E-01
    9026.323     32.313   3.200  8.78333E-01  1.00382E+00 -1.25485E-01
    9027.305     33.295   3.240  8.75850E-01  1.00291E+00 -1.27060E-01
    9028.298     34.288   3.280  8.73826E-01  1.00197E+00 -1.28146E-01
    9029.304     35.294   3.320  8.73187E-01  1.00103E+00 -1.27843E-01
    9030.322     36.312   3.360  8.74730E-01  1.00009E+00 -1.25359E-01
    9031.353     37.342   3.400  8.78983E-01  9.99172E-01 -1.20189E-01
    9032.395     38.385   3.440  8.85880E-01  9.98260E-01 -1.12380E-01
    9033.450     39.439   3.480  8.95128E-01  9.97357E-01 -1.02229E-01
    9034.516     40.506   3.520  9.06236E-01  9.96487E-01 -9.02502E-02
    9035.595     41.585   3.560  9.18393E-01  9.95651E-01 -7.72579E-02
    9036.687     42.676   3.600  9.30825E-01  9.94853E-01 -6.40273E-02
    9037.790     43.780   3.640  9.43119E-01  9.94094E-01 -5.09744E-02
    9038.905     44.895   3.680  9.55204E-01  9.93376E-01 -3.81717E-02
    9040.033     46.023   3.720  9.67296E-01  9.92698E-01 -2.54020E-02
    9041.173     47.163   3.760  9.79746E-01  9.92062E-01 -1.23158E-02
    9042.325     48.315   3.800  9.92830E-01  9.91490E-01  1.34022E-03
    9043.490     49.479   3.840  1.00657E+00  9.90943E-01  1.56236E-02
    9044.666     50.656   3.880  1.02082E+00  9.90463E-01  3.03589E-02
    9045.855     51.845   3.920  1.03508E+00  9.90049E-01  4.50303E-02
    9047.056     53.046   3.960  1.04836E+00  9.89682E-01  5.86757E-02
    9048.269     54.259   4.000  1.05954E+00  9.89360E-01  7.01798E-02
    9049.494     55.484   4.040  1.06774E+00  9.89083E-01  7.86594E-02
    9050.732     56.721   4.080  1.07252E+00  9.88873E-01  8.36457E-02
    9051.981     57.971   4.120  1.07397E+00  9.88711E-01  8.52633E-02
    9053.243     59.233   4.160  1.07290E+00  9.88613E-01  8.42846E-02
    9054.517     60.507   4.200  1.07036E+00  9.88540E-01  8.18184E-02
    9055.803     61.793   4.240  1.06749E+00  9.88531E-01  7.89546E-02
    9057.102     63.092   4.280  1.06502E+00  9.88566E-01  7.64578E-02
    9058.413     64.402   4.320  1.06323E+00  9.88666E-01  7.45661E-02
    9059.735     65.725   4.360  1.06172E+00  9.88787E-01  7.29283E-02
    9061.070     67.060   4.400  1.05972E+00  9.88969E-01  7.07492E-02
    9062.418     68.407   4.440  1.05628E+00  9.89169E-01  6.71063E-02
    9063.777     69.767   4.480  1.05071E+00  9.89429E-01  6.12829E-02
    9065.149     71.138   4.520  1.04278E+00  9.89705E-01  5.30728E-02
    9066.532     72.522   4.560  1.03297E+00  9.90016E-01  4.29551E-02
    9067.928     73.918   4.600  1.02227E+00  9.90364E-01  3.19034E-02
    9069.337     75.326   4.640  1.01178E+00  9.90745E-01  2.10380E-02
    9070.757     76.747   4.680  1.00242E+00  9.91136E-01  1.12836E-02
    9072.189     78.179   4.720  9.94754E-01  9.91557E-01  3.19701E-03
    9073.634     79.624   4.760  9.88929E-01  9.91984E-01 -3.05468E-03
    9075.091     81.081   4.800  9.84873E-01  9.92417E-01 -7.54414E-03
    9076.560     82.550   4.840  9.82429E-01  9.92877E-01 -1.04473E-02
    9078.042     84.031   4.880  9.81405E-01  9.93340E-01 -1.19347E-02
    9079.535     85.525   4.920  9.81595E-01  9.93804E-01 -1.22087E-02
    9081.041     87.031   4.960  9.82611E-01  9.94268E-01 -1.16579E-02
    9082.559     88.548   5.000  9.83909E-01  9.94732E-01 -1.08224E-02
    9084.089     90.079   5.040  9.84994E-01  9.95193E-01 -1.01992E-02
    9085.631     91.621   5.080  9.85739E-01  9.95651E-01 -9.91243E-03
    9087.186     93.175   5.120  9.86443E-01  9.96104E-01 -9.66069E-03
    9088.752     94.742   5.160  9.87462E-01  9.96528E-01 -9.06547E-03
    9090.331     96.321   5.200  9.88884E-01  9.96942E-01 -8.05822E-03
    9091.922     97.912   5.240  9.90305E-01  9.97325E-01 -7.01964E-03
    9093.525     99.515   5.280  9.91128E-01  9.97697E-01 -6.56869E-03
    9095.141    101.131   5.320  9.90659E-01  9.98036E-01 -7.37766E-03
    9096.768    102.758   5.360  9.88367E-01  9.98362E-01 -9.99503E-03
    9098.408    104.398   5.400  9.83914E-01  9.98631E-01 -1.47169E-02
    9100.060    106.050   5.440  9.77453E-01  9.98908E-01 -2.14550E-02
    9101.724    107.714   5.480  9.69404E-01  9.99126E-01 -2.97220E-02
    9103.401    109.391   5.520  9.60566E-01  9.99305E-01 -3.87390E-02
    9105.089    111.079   5.560  9.51842E-01  9.99471E-01 -4.76287E-02
    9106.790    112.780   5.600  9.44018E-01  9.99598E-01 -5.55799E-02
    9108.503    114.493   5.640  9.37669E-01  9.99685E-01 -6.20159E-02
    9110.228    116.218   5.680  9.33160E-01  9.99733E-01 -6.65736E-02
    9111.966    117.955   5.720  9.30700E-01  9.99739E-01 -6.90385E-02
    9113.715    119.705   5.760  9.30419E-01  9.99681E-01 -6.92619E-02
    9115.477    121.467   5.800  9.32423E-01  9.99606E-01 -6.71830E-02
    9117.251    123.241   5.840  9.36661E-01  9.99494E-01 -6.28333E-02
    9119.037    125.027   5.880  9.43000E-01  9.99345E-01 -5.63451E-02
    9120.835    126.825   5.920  9.51243E-01  9.99157E-01 -4.79143E-02
    9122.646    128.636   5.960  9.61183E-01  9.98929E-01 -3.77465E-02
    9124.469    130.458   6.000  9.72959E-01  9.98637E-01 -2.56781E-02
