# # comment:                                                     FEFF 9.9.1  
# # Source:
# # Structure
# # Reduced
# # space
# # abc:
# # angles:
# # sites:
# # POT  SCF 100  7.0000   0, screened core-hole, AFOLP (folp(0)= 1.150)
# # Abs   Z=29 Rmt= 1.274 Rnm= 1.319 K  shell
# # Pot 1 Z=12 Rmt= 1.351 Rnm= 1.416
# # Pot 2 Z=30 Rmt= 1.336 Rnm= 1.397
# # Pot 3 Z=29 Rmt= 1.274 Rnm= 1.320
# # Pot 4 Z= 8 Rmt= 1.051 Rnm= 1.099
# # Gam_ch=1.729E+00 H-L exch Vi= 0.000E+00 Vr= 0.000E+00
# # Mu=-1.085E+01eV kf=2.093E+00 Vint=-2.063E+01eV Rs_int= 1.733
# FMS rfms= 9.0000
# # PATH  Rmax=-1.000,  Keep_limit= 0.00, Heap_limit 0.00  Pwcrit= 2.50%
#  S02=0.950  Temp=   0.00  Debye_temp=   0.00  Global_sig2= 0.00000
#  Energy zero shift, vr, vi    0.00000E+00   0.00000E+00
#  Curved wave amplitude ratio filter   4.000%
#     file         sig2 tot  cw amp ratio   deg  nlegs   reff  inp sig2
#     0/   0 paths used
#  xsedge+ 50, used to normalize mu           2.4866E-04
#  -----------------------------------------------------------------------
#  omega    e    k    mu    mu0     chi     @#
    8985.845    -14.660  -1.000  3.43709E-02  4.92153E-02 -1.48444E-02
    8986.143    -14.361  -0.960  3.59040E-02  5.27110E-02 -1.68070E-02
    8986.430    -14.075  -0.920  3.75175E-02  5.65917E-02 -1.90742E-02
    8986.704    -13.801  -0.880  3.92159E-02  6.09142E-02 -2.16983E-02
    8986.966    -13.538  -0.840  4.10036E-02  6.57443E-02 -2.47407E-02
    8987.216    -13.289  -0.800  4.28854E-02  7.11586E-02 -2.82732E-02
    8987.454    -13.051  -0.760  4.48660E-02  7.72447E-02 -3.23786E-02
    8987.680    -12.825  -0.720  4.69500E-02  8.41017E-02 -3.71518E-02
    8987.893    -12.612  -0.680  4.91413E-02  9.18390E-02 -4.26977E-02
    8988.094    -12.411  -0.640  5.14432E-02  1.00572E-01 -4.91286E-02
    8988.283    -12.222  -0.600  5.38569E-02  1.10413E-01 -5.65564E-02
    8988.460    -12.045  -0.560  5.63808E-02  1.21460E-01 -6.50793E-02
    8988.625    -11.880  -0.520  5.90084E-02  1.33770E-01 -7.47614E-02
    8988.777    -11.728  -0.480  6.17259E-02  1.47329E-01 -8.56035E-02
    8988.917    -11.588  -0.440  6.45099E-02  1.62020E-01 -9.75098E-02
    8989.045    -11.460  -0.400  6.73248E-02  1.77585E-01 -1.10260E-01
    8989.161    -11.344  -0.360  7.01227E-02  1.93624E-01 -1.23501E-01
    8989.265    -11.240  -0.320  7.28450E-02  2.09614E-01 -1.36769E-01
    8989.356    -11.149  -0.280  7.54272E-02  2.24975E-01 -1.49548E-01
    8989.435    -11.070  -0.240  7.78053E-02  2.39152E-01 -1.61347E-01
    8989.502    -11.003  -0.200  7.99205E-02  2.51678E-01 -1.71758E-01
    8989.557    -10.948  -0.160  8.17224E-02  2.62213E-01 -1.80490E-01
    8989.600    -10.905  -0.120  8.31696E-02  2.70539E-01 -1.87369E-01
    8989.630    -10.875  -0.080  8.42299E-02  2.76536E-01 -1.92306E-01
    8989.655    -10.850   0.000  8.51041E-02  2.81353E-01 -1.96248E-01
    8989.710    -10.795   0.120  8.71961E-02  2.92219E-01 -2.05023E-01
    8989.752    -10.753   0.160  8.88021E-02  3.00668E-01 -2.11866E-01
    8989.807    -10.698   0.200  9.08461E-02  3.11432E-01 -2.20585E-01
    8989.874    -10.631   0.240  9.34162E-02  3.24400E-01 -2.30983E-01
    8989.953    -10.551   0.280  9.64844E-02  3.39269E-01 -2.42784E-01
    8990.045    -10.460   0.320  1.00121E-01  3.55677E-01 -2.55556E-01
    8990.149    -10.356   0.360  1.04344E-01  3.73129E-01 -2.68786E-01
    8990.264    -10.241   0.400  1.09253E-01  3.91144E-01 -2.81890E-01
    8990.392    -10.113   0.440  1.14959E-01  4.09219E-01 -2.94261E-01
    8990.533     -9.972   0.480  1.21663E-01  4.27040E-01 -3.05377E-01
    8990.685     -9.820   0.520  1.29522E-01  4.44343E-01 -3.14821E-01
    8990.850     -9.655   0.560  1.38785E-01  4.61026E-01 -3.22241E-01
    8991.026     -9.479   0.600  1.49686E-01  4.77083E-01 -3.27397E-01
    8991.215     -9.290   0.640  1.62351E-01  4.92546E-01 -3.30195E-01
    8991.416     -9.088   0.680  1.76903E-01  5.07522E-01 -3.30619E-01
    8991.630     -8.875   0.720  1.93483E-01  5.22052E-01 -3.28569E-01
    8991.855     -8.649   0.760  2.12833E-01  5.36275E-01 -3.23442E-01
    8992.093     -8.412   0.800  2.36330E-01  5.50260E-01 -3.13930E-01
    8992.343     -8.162   0.840  2.65916E-01  5.64046E-01 -2.98131E-01
    8992.605     -7.900   0.880  3.03411E-01  5.77721E-01 -2.74311E-01
    8992.880     -7.625   0.920  3.48371E-01  5.91299E-01 -2.42928E-01
    8993.166     -7.339   0.960  3.95054E-01  6.04827E-01 -2.09773E-01
    8993.465     -7.040   1.000  4.32034E-01  6.18338E-01 -1.86303E-01
    8993.776     -6.729   1.040  4.51790E-01  6.31818E-01 -1.80028E-01
    8994.099     -6.406   1.080  4.63007E-01  6.45288E-01 -1.82281E-01
    8994.434     -6.071   1.120  4.82644E-01  6.58742E-01 -1.76098E-01
    8994.781     -5.723   1.160  5.15612E-01  6.72169E-01 -1.56558E-01
    8995.141     -5.364   1.200  5.46070E-01  6.85573E-01 -1.39504E-01
    8995.513     -4.992   1.240  5.53765E-01  6.98916E-01 -1.45151E-01
    8995.897     -4.608   1.280  5.43709E-01  7.12196E-01 -1.68486E-01
    8996.293     -4.212   1.320  5.42230E-01  7.25389E-01 -1.83159E-01
    8996.702     -3.803   1.360  5.65445E-01  7.38471E-01 -1.73026E-01
    8997.122     -3.383   1.400  6.09256E-01  7.51435E-01 -1.42179E-01
    8997.555     -2.950   1.440  6.63295E-01  7.64233E-01 -1.00938E-01
    8998.000     -2.505   1.480  7.17721E-01  7.76856E-01 -5.91341E-02
    8998.457     -2.048   1.520  7.65371E-01  7.89274E-01 -2.39027E-02
    8998.927     -1.578   1.560  8.17766E-01  8.01480E-01  1.62862E-02
    8999.408     -1.097   1.600  8.93028E-01  8.13421E-01  7.96072E-02
    8999.902     -0.603   1.640  1.00219E+00  8.25090E-01  1.77097E-01
    9000.408     -0.097   1.680  1.16019E+00  8.36458E-01  3.23734E-01
    9000.926      0.421   1.720  1.37989E+00  8.47516E-01  5.32370E-01
    9001.457      0.952   1.760  1.63769E+00  8.58256E-01  7.79433E-01
    9001.999      1.494   1.800  1.82687E+00  8.68632E-01  9.58242E-01
    9002.554      2.049   1.840  1.83205E+00  8.78656E-01  9.53391E-01
    9003.121      2.616   1.880  1.70343E+00  8.88303E-01  8.15123E-01
    9003.700      3.195   1.920  1.53188E+00  8.97568E-01  6.34316E-01
    9004.291      3.786   1.960  1.36494E+00  9.06426E-01  4.58512E-01
    9004.895      4.390   2.000  1.23754E+00  9.14872E-01  3.22663E-01
    9005.510      5.006   2.040  1.14707E+00  9.22906E-01  2.24161E-01
    9006.138      5.633   2.080  1.09928E+00  9.30527E-01  1.68752E-01
    9006.778      6.273   2.120  1.08007E+00  9.37754E-01  1.42321E-01
    9007.431      6.926   2.160  1.06074E+00  9.44545E-01  1.16193E-01
    9008.095      7.590   2.200  1.03184E+00  9.50905E-01  8.09318E-02
    9008.772      8.267   2.240  1.00012E+00  9.56873E-01  4.32472E-02
    9009.461      8.956   2.280  9.72909E-01  9.62432E-01  1.04778E-02
    9010.162      9.657   2.320  9.52081E-01  9.67586E-01 -1.55053E-02
    9010.875     10.370   2.360  9.36567E-01  9.72340E-01 -3.57725E-02
    9011.600     11.095   2.400  9.26707E-01  9.76717E-01 -5.00099E-02
    9012.338     11.833   2.440  9.21027E-01  9.80723E-01 -5.96954E-02
    9013.088     12.583   2.480  9.11892E-01  9.84363E-01 -7.24709E-02
    9013.850     13.345   2.520  8.91333E-01  9.87644E-01 -9.63104E-02
    9014.624     14.119   2.560  8.59026E-01  9.90591E-01 -1.31565E-01
    9015.410     14.905   2.600  8.27383E-01  9.93211E-01 -1.65828E-01
    9016.209     15.704   2.640  8.03417E-01  9.95512E-01 -1.92094E-01
    9017.020     16.515   2.680  7.86302E-01  9.97520E-01 -2.11218E-01
    9017.843     17.338   2.720  7.73450E-01  9.99225E-01 -2.25774E-01
    9018.678     18.173   2.760  7.63102E-01  1.00069E+00 -2.37590E-01
    9019.525     19.020   2.800  7.54754E-01  1.00189E+00 -2.47135E-01
    9020.385     19.880   2.840  7.49297E-01  1.00285E+00 -2.53549E-01
    9021.256     20.751   2.880  7.47650E-01  1.00359E+00 -2.55938E-01
    9022.140     21.635   2.920  7.50311E-01  1.00412E+00 -2.53814E-01
    9023.036     22.531   2.960  7.57926E-01  1.00446E+00 -2.46536E-01
    9023.945     23.440   3.000  7.71115E-01  1.00461E+00 -2.33492E-01
    9024.865     24.360   3.040  7.89681E-01  1.00461E+00 -2.14927E-01
    9025.798     25.293   3.080  8.13080E-01  1.00445E+00 -1.91372E-01
    9026.743     26.238   3.120  8.40574E-01  1.00415E+00 -1.63572E-01
    9027.700     27.195   3.160  8.70439E-01  1.00374E+00 -1.33297E-01
    9028.669     28.164   3.200  9.01414E-01  1.00319E+00 -1.01775E-01
    9029.650     29.146   3.240  9.32821E-01  1.00257E+00 -6.97506E-02
    9030.644     30.139   3.280  9.64442E-01  1.00185E+00 -3.74085E-02
    9031.650     31.145   3.320  9.96651E-01  1.00107E+00 -4.42147E-03
    9032.668     32.163   3.360  1.03016E+00  1.00022E+00  2.99419E-02
    9033.698     33.193   3.400  1.06565E+00  9.99320E-01  6.63261E-02
    9034.741     34.236   3.440  1.10370E+00  9.98378E-01  1.05322E-01
    9035.795     35.290   3.480  1.14430E+00  9.97399E-01  1.46902E-01
    9036.862     36.357   3.520  1.18538E+00  9.96386E-01  1.88995E-01
    9037.941     37.436   3.560  1.22201E+00  9.95385E-01  2.26630E-01
    9039.032     38.527   3.600  1.24687E+00  9.94359E-01  2.52510E-01
    9040.136     39.631   3.640  1.25318E+00  9.93331E-01  2.59851E-01
    9041.251     40.746   3.680  1.23830E+00  9.92304E-01  2.45991E-01
    9042.379     41.874   3.720  1.20558E+00  9.91304E-01  2.14279E-01
    9043.519     43.014   3.760  1.16199E+00  9.90313E-01  1.71677E-01
    9044.671     44.166   3.800  1.11413E+00  9.89353E-01  1.24775E-01
    9045.835     45.330   3.840  1.06632E+00  9.88406E-01  7.79185E-02
    9047.012     46.507   3.880  1.02163E+00  9.87516E-01  3.41159E-02
    9048.200     47.696   3.920  9.83173E-01  9.86644E-01 -3.47036E-03
    9049.401     48.897   3.960  9.54546E-01  9.85832E-01 -3.12856E-02
    9050.614     50.110   4.000  9.38328E-01  9.85041E-01 -4.67130E-02
    9051.840     51.335   4.040  9.34397E-01  9.84314E-01 -4.99172E-02
    9053.077     52.572   4.080  9.39921E-01  9.83633E-01 -4.37113E-02
    9054.327     53.822   4.120  9.50542E-01  9.83018E-01 -3.24758E-02
    9055.589     55.084   4.160  9.62019E-01  9.82449E-01 -2.04298E-02
    9056.863     56.358   4.200  9.71485E-01  9.81926E-01 -1.04420E-02
    9058.149     57.644   4.240  9.77911E-01  9.81472E-01 -3.56026E-03
    9059.448     58.943   4.280  9.81429E-01  9.81062E-01  3.66962E-04
    9060.758     60.253   4.320  9.82422E-01  9.80699E-01  1.72248E-03
    9062.081     61.576   4.360  9.81296E-01  9.80407E-01  8.89179E-04
    9063.416     62.911   4.400  9.78836E-01  9.80182E-01 -1.34596E-03
    9064.763     64.258   4.440  9.75899E-01  9.79982E-01 -4.08298E-03
    9066.123     65.618   4.480  9.73022E-01  9.79850E-01 -6.82789E-03
    9067.494     66.989   4.520  9.70579E-01  9.79787E-01 -9.20787E-03
    9068.878     68.373   4.560  9.69238E-01  9.79769E-01 -1.05314E-02
    9070.274     69.769   4.600  9.69366E-01  9.79795E-01 -1.04288E-02
    9071.682     71.177   4.640  9.69922E-01  9.79864E-01 -9.94152E-03
    9073.103     72.598   4.680  9.68442E-01  9.79996E-01 -1.15534E-02
    9074.535     74.030   4.720  9.62558E-01  9.80148E-01 -1.75901E-02
    9075.980     75.475   4.760  9.52186E-01  9.80361E-01 -2.81748E-02
    9077.437     76.932   4.800  9.39903E-01  9.80593E-01 -4.06900E-02
    9078.906     78.401   4.840  9.29967E-01  9.80882E-01 -5.09148E-02
    9080.387     79.882   4.880  9.26454E-01  9.81187E-01 -5.47331E-02
    9081.881     81.376   4.920  9.32037E-01  9.81528E-01 -4.94909E-02
    9083.386     82.882   4.960  9.47120E-01  9.81903E-01 -3.47827E-02
    9084.904     84.399   5.000  9.69313E-01  9.82310E-01 -1.29962E-02
    9086.434     85.930   5.040  9.93109E-01  9.82703E-01  1.04053E-02
    9087.977     87.472   5.080  1.01074E+00  9.83146E-01  2.75988E-02
    9089.531     89.026   5.120  1.01466E+00  9.83572E-01  3.10897E-02
    9091.098     90.593   5.160  1.00239E+00  9.84024E-01  1.83622E-02
    9092.677     92.172   5.200  9.78271E-01  9.84479E-01 -6.20764E-03
    9094.268     93.763   5.240  9.49913E-01  9.84934E-01 -3.50212E-02
    9095.871     95.366   5.280  9.23396E-01  9.85389E-01 -6.19930E-02
    9097.486     96.982   5.320  9.01945E-01  9.85842E-01 -8.38974E-02
    9099.114     98.609   5.360  8.86925E-01  9.86293E-01 -9.93676E-02
    9100.754    100.249   5.400  8.78888E-01  9.86738E-01 -1.07850E-01
    9102.406    101.901   5.440  8.78283E-01  9.87155E-01 -1.08872E-01
    9104.070    103.565   5.480  8.85864E-01  9.87562E-01 -1.01698E-01
    9105.746    105.242   5.520  9.02472E-01  9.87938E-01 -8.54658E-02
    9107.435    106.930   5.560  9.28531E-01  9.88302E-01 -5.97713E-02
    9109.136    108.631   5.600  9.63201E-01  9.88632E-01 -2.54316E-02
    9110.849    110.344   5.640  1.00372E+00  9.88927E-01  1.47903E-02
    9112.574    112.069   5.680  1.04542E+00  9.89207E-01  5.62147E-02
    9114.311    113.806   5.720  1.08310E+00  9.89427E-01  9.36713E-02
    9116.061    115.556   5.760  1.11297E+00  9.89632E-01  1.23341E-01
    9117.823    117.318   5.800  1.13241E+00  9.89800E-01  1.42615E-01
    9119.597    119.092   5.840  1.13899E+00  9.89928E-01  1.49061E-01
    9121.383    120.878   5.880  1.13228E+00  9.90015E-01  1.42262E-01
    9123.181    122.676   5.920  1.11601E+00  9.90063E-01  1.25944E-01
    9124.991    124.487   5.960  1.09603E+00  9.90066E-01  1.05960E-01
    9126.814    126.309   6.000  1.07621E+00  9.90005E-01  8.62055E-02
