# # comment:                                                     FEFF 9.9.1  
# # Source:
# # Structure
# # Reduced
# # space
# # abc:
# # angles:
# # sites:
# # POT  SCF 100  7.0000   0, screened core-hole, AFOLP (folp(0)= 1.150)
# # Abs   Z=29 Rmt= 1.228 Rnm= 1.303 K  shell
# # Pot 1 Z=66 Rmt= 1.668 Rnm= 1.714
# # Pot 2 Z=22 Rmt= 1.274 Rnm= 1.406
# # Pot 3 Z=29 Rmt= 1.228 Rnm= 1.303
# # Pot 4 Z= 8 Rmt= 1.022 Rnm= 1.096
# # Gam_ch=1.729E+00 H-L exch Vi= 0.000E+00 Vr= 0.000E+00
# # Mu=-1.036E+01eV kf=2.192E+00 Vint=-1.928E+01eV Rs_int= 1.654
# FMS rfms= 9.0000
# # PATH  Rmax=-1.000,  Keep_limit= 0.00, Heap_limit 0.00  Pwcrit= 2.50%
#  S02=0.950  Temp=   0.00  Debye_temp=   0.00  Global_sig2= 0.00000
#  Energy zero shift, vr, vi    0.00000E+00   0.00000E+00
#  Curved wave amplitude ratio filter   4.000%
#     file         sig2 tot  cw amp ratio   deg  nlegs   reff  inp sig2
#     0/   0 paths used
#  xsedge+ 50, used to normalize mu           2.4884E-04
#  -----------------------------------------------------------------------
#  omega    e    k    mu    mu0     chi     @#
    8985.012    -14.166  -1.000  3.63589E-02  4.96245E-02 -1.32656E-02
    8985.311    -13.867  -0.960  3.82181E-02  5.31376E-02 -1.49195E-02
    8985.597    -13.581  -0.920  4.02074E-02  5.70353E-02 -1.68279E-02
    8985.872    -13.306  -0.880  4.23386E-02  6.13739E-02 -1.90353E-02
    8986.134    -13.044  -0.840  4.46248E-02  6.62189E-02 -2.15941E-02
    8986.384    -12.794  -0.800  4.70803E-02  7.16460E-02 -2.45658E-02
    8986.621    -12.556  -0.760  4.97204E-02  7.77423E-02 -2.80219E-02
    8986.847    -12.331  -0.720  5.25618E-02  8.46060E-02 -3.20442E-02
    8987.060    -12.117  -0.680  5.56212E-02  9.23452E-02 -3.67240E-02
    8987.262    -11.916  -0.640  5.89152E-02  1.01074E-01 -4.21588E-02
    8987.450    -11.727  -0.600  6.24579E-02  1.10904E-01 -4.84463E-02
    8987.627    -11.551  -0.560  6.62587E-02  1.21931E-01 -5.56725E-02
    8987.792    -11.386  -0.520  7.03185E-02  1.34212E-01 -6.38932E-02
    8987.944    -11.234  -0.480  7.46241E-02  1.47732E-01 -7.31080E-02
    8988.084    -11.093  -0.440  7.91427E-02  1.62374E-01 -8.32312E-02
    8988.212    -10.965  -0.400  8.38165E-02  1.77883E-01 -9.40666E-02
    8988.328    -10.850  -0.360  8.85603E-02  1.93861E-01 -1.05301E-01
    8988.432    -10.746  -0.320  9.32637E-02  2.09790E-01 -1.16526E-01
    8988.523    -10.654  -0.280  9.77994E-02  2.25095E-01 -1.27295E-01
    8988.603    -10.575  -0.240  1.02035E-01  2.39222E-01 -1.37187E-01
    8988.670    -10.508  -0.200  1.05844E-01  2.51708E-01 -1.45864E-01
    8988.725    -10.453  -0.160  1.09117E-01  2.62212E-01 -1.53095E-01
    8988.767    -10.411  -0.120  1.11765E-01  2.70517E-01 -1.58751E-01
    8988.798    -10.380  -0.080  1.13720E-01  2.76500E-01 -1.62780E-01
    8988.822    -10.356   0.000  1.15353E-01  2.81309E-01 -1.65956E-01
    8988.877    -10.301   0.120  1.18975E-01  2.92151E-01 -1.73176E-01
    8988.920    -10.258   0.160  1.21828E-01  3.00591E-01 -1.78763E-01
    8988.974    -10.203   0.200  1.25535E-01  3.11360E-01 -1.85824E-01
    8989.042    -10.136   0.240  1.30138E-01  3.24316E-01 -1.94178E-01
    8989.121    -10.057   0.280  1.35681E-01  3.39204E-01 -2.03523E-01
    8989.212     -9.966   0.320  1.42197E-01  3.55673E-01 -2.13476E-01
    8989.316     -9.862   0.360  1.49622E-01  3.73219E-01 -2.23598E-01
    8989.432     -9.746   0.400  1.57887E-01  3.91371E-01 -2.33484E-01
    8989.560     -9.618   0.440  1.66815E-01  4.09659E-01 -2.42845E-01
    8989.700     -9.478   0.480  1.76125E-01  4.27737E-01 -2.51611E-01
    8989.852     -9.326   0.520  1.85508E-01  4.45362E-01 -2.59854E-01
    8990.017     -9.161   0.560  1.94703E-01  4.62457E-01 -2.67753E-01
    8990.194     -8.984   0.600  2.03756E-01  4.78992E-01 -2.75236E-01
    8990.383     -8.795   0.640  2.13316E-01  4.94999E-01 -2.81683E-01
    8990.584     -8.594   0.680  2.24996E-01  5.10562E-01 -2.85566E-01
    8990.797     -8.381   0.720  2.41418E-01  5.25755E-01 -2.84337E-01
    8991.023     -8.155   0.760  2.65790E-01  5.40674E-01 -2.74884E-01
    8991.260     -7.917   0.800  3.00959E-01  5.55384E-01 -2.54425E-01
    8991.510     -7.667   0.840  3.47604E-01  5.69961E-01 -2.22357E-01
    8991.773     -7.405   0.880  4.00946E-01  5.84406E-01 -1.83459E-01
    8992.047     -7.131   0.920  4.50576E-01  5.98809E-01 -1.48232E-01
    8992.333     -6.844   0.960  4.89114E-01  6.13151E-01 -1.24036E-01
    8992.632     -6.546   1.000  5.20185E-01  6.27483E-01 -1.07298E-01
    8992.943     -6.235   1.040  5.51039E-01  6.41787E-01 -9.07483E-02
    8993.266     -5.912   1.080  5.84872E-01  6.56059E-01 -7.11871E-02
    8993.601     -5.576   1.120  6.24907E-01  6.70309E-01 -4.54018E-02
    8993.949     -5.229   1.160  6.75463E-01  6.84501E-01 -9.03838E-03
    8994.308     -4.869   1.200  7.23906E-01  6.98617E-01  2.52884E-02
    8994.680     -4.498   1.240  7.28545E-01  7.12655E-01  1.58906E-02
    8995.064     -4.113   1.280  6.70553E-01  7.26590E-01 -5.60367E-02
    8995.461     -3.717   1.320  5.91168E-01  7.40376E-01 -1.49208E-01
    8995.869     -3.309   1.360  5.36753E-01  7.54004E-01 -2.17251E-01
    8996.290     -2.888   1.400  5.27171E-01  7.67445E-01 -2.40274E-01
    8996.722     -2.455   1.440  5.64742E-01  7.80650E-01 -2.15908E-01
    8997.167     -2.010   1.480  6.40988E-01  7.93629E-01 -1.52641E-01
    8997.625     -1.553   1.520  7.29762E-01  8.06329E-01 -7.65671E-02
    8998.094     -1.084   1.560  7.97698E-01  8.18743E-01 -2.10442E-02
    8998.576     -0.602   1.600  8.42325E-01  8.30818E-01  1.15067E-02
    8999.069     -0.108   1.640  8.75316E-01  8.42568E-01  3.27479E-02
    8999.575      0.398   1.680  8.80882E-01  8.53943E-01  2.69392E-02
    9000.094      0.916   1.720  8.39907E-01  8.64954E-01 -2.50466E-02
    9000.624      1.446   1.760  7.92341E-01  8.75553E-01 -8.32119E-02
    9001.166      1.989   1.800  7.86044E-01  8.85735E-01 -9.96916E-02
    9001.721      2.543   1.840  8.17309E-01  8.95495E-01 -7.81865E-02
    9002.288      3.110   1.880  8.66711E-01  9.04810E-01 -3.80985E-02
    9002.867      3.689   1.920  9.34016E-01  9.13695E-01  2.03210E-02
    9003.459      4.281   1.960  1.01774E+00  9.22128E-01  9.56135E-02
    9004.062      4.884   2.000  1.10184E+00  9.30110E-01  1.71733E-01
    9004.678      5.500   2.040  1.16518E+00  9.37660E-01  2.27518E-01
    9005.306      6.128   2.080  1.20947E+00  9.44738E-01  2.64737E-01
    9005.946      6.768   2.120  1.24721E+00  9.51367E-01  2.95845E-01
    9006.598      7.420   2.160  1.28096E+00  9.57549E-01  3.23409E-01
    9007.262      8.085   2.200  1.31174E+00  9.63309E-01  3.48428E-01
    9007.939      8.761   2.240  1.32882E+00  9.68651E-01  3.60170E-01
    9008.628      9.450   2.280  1.32451E+00  9.73560E-01  3.50955E-01
    9009.329     10.151   2.320  1.32191E+00  9.78060E-01  3.43852E-01
    9010.042     10.864   2.360  1.33602E+00  9.82159E-01  3.53856E-01
    9010.768     11.590   2.400  1.34364E+00  9.85905E-01  3.57733E-01
    9011.505     12.327   2.440  1.30310E+00  9.89263E-01  3.13837E-01
    9012.255     13.077   2.480  1.20804E+00  9.92260E-01  2.15776E-01
    9013.017     13.839   2.520  1.10194E+00  9.94926E-01  1.07013E-01
    9013.791     14.613   2.560  1.02096E+00  9.97287E-01  2.36712E-02
    9014.578     15.400   2.600  9.78982E-01  9.99312E-01 -2.03291E-02
    9015.376     16.198   2.640  9.61127E-01  1.00107E+00 -3.99417E-02
    9016.187     17.009   2.680  9.48127E-01  1.00255E+00 -5.44203E-02
    9017.010     17.832   2.720  9.37683E-01  1.00375E+00 -6.60703E-02
    9017.845     18.667   2.760  9.31026E-01  1.00474E+00 -7.37104E-02
    9018.692     19.515   2.800  9.27823E-01  1.00548E+00 -7.76616E-02
    9019.552     20.374   2.840  9.26394E-01  1.00603E+00 -7.96329E-02
    9020.424     21.246   2.880  9.24033E-01  1.00637E+00 -8.23352E-02
    9021.308     22.130   2.920  9.18749E-01  1.00654E+00 -8.77901E-02
    9022.204     23.026   2.960  9.09952E-01  1.00655E+00 -9.65937E-02
    9023.112     23.934   3.000  8.98234E-01  1.00640E+00 -1.08164E-01
    9024.032     24.855   3.040  8.84909E-01  1.00612E+00 -1.21211E-01
    9024.965     25.787   3.080  8.71491E-01  1.00572E+00 -1.34227E-01
    9025.910     26.732   3.120  8.59870E-01  1.00520E+00 -1.45330E-01
    9026.867     27.689   3.160  8.51354E-01  1.00459E+00 -1.53239E-01
    9027.836     28.659   3.200  8.46899E-01  1.00390E+00 -1.57002E-01
    9028.818     29.640   3.240  8.47057E-01  1.00313E+00 -1.56073E-01
    9029.811     30.634   3.280  8.51615E-01  1.00229E+00 -1.50671E-01
    9030.817     31.639   3.320  8.59867E-01  1.00140E+00 -1.41529E-01
    9031.835     32.657   3.360  8.70999E-01  1.00048E+00 -1.29484E-01
    9032.865     33.688   3.400  8.84013E-01  9.99513E-01 -1.15501E-01
    9033.908     34.730   3.440  8.97602E-01  9.98530E-01 -1.00929E-01
    9034.963     35.785   3.480  9.11019E-01  9.97538E-01 -8.65193E-02
    9036.029     36.851   3.520  9.24123E-01  9.96521E-01 -7.23984E-02
    9037.108     37.930   3.560  9.37426E-01  9.95521E-01 -5.80946E-02
    9038.199     39.022   3.600  9.51780E-01  9.94501E-01 -4.27210E-02
    9039.303     40.125   3.640  9.68049E-01  9.93506E-01 -2.54575E-02
    9040.418     41.241   3.680  9.86319E-01  9.92518E-01 -6.19855E-03
    9041.546     42.368   3.720  1.00565E+00  9.91561E-01  1.40925E-02
    9042.686     43.508   3.760  1.02428E+00  9.90636E-01  3.36415E-02
    9043.838     44.660   3.800  1.03996E+00  9.89724E-01  5.02328E-02
    9045.003     45.825   3.840  1.05052E+00  9.88847E-01  6.16763E-02
    9046.179     47.001   3.880  1.05448E+00  9.88008E-01  6.64702E-02
    9047.368     48.190   3.920  1.05113E+00  9.87207E-01  6.39207E-02
    9048.569     49.391   3.960  1.04101E+00  9.86449E-01  5.45661E-02
    9049.782     50.604   4.000  1.02618E+00  9.85753E-01  4.04286E-02
    9051.007     51.829   4.040  1.00975E+00  9.85079E-01  2.46673E-02
    9052.245     53.067   4.080  9.95273E-01  9.84468E-01  1.08053E-02
    9053.494     54.316   4.120  9.85746E-01  9.83901E-01  1.84435E-03
    9054.756     55.578   4.160  9.83153E-01  9.83379E-01 -2.26223E-04
    9056.030     56.852   4.200  9.88065E-01  9.82922E-01  5.14278E-03
    9057.316     58.139   4.240  9.99445E-01  9.82510E-01  1.69352E-02
    9058.615     59.437   4.280  1.01492E+00  9.82142E-01  3.27806E-02
    9059.926     60.748   4.320  1.03142E+00  9.81818E-01  4.96023E-02
    9061.248     62.071   4.360  1.04597E+00  9.81559E-01  6.44111E-02
    9062.583     63.406   4.400  1.05612E+00  9.81345E-01  7.47738E-02
    9063.931     64.753   4.440  1.06041E+00  9.81176E-01  7.92392E-02
    9065.290     66.112   4.480  1.05852E+00  9.81069E-01  7.74489E-02
    9066.662     67.484   4.520  1.05132E+00  9.80984E-01  7.03354E-02
    9068.045     68.868   4.560  1.04103E+00  9.80962E-01  6.00698E-02
    9069.441     70.264   4.600  1.03047E+00  9.80979E-01  4.94870E-02
    9070.850     71.672   4.640  1.02231E+00  9.81015E-01  4.12945E-02
    9072.270     73.092   4.680  1.01837E+00  9.81111E-01  3.72570E-02
    9073.702     74.525   4.720  1.01881E+00  9.81246E-01  3.75644E-02
    9075.147     75.969   4.760  1.02230E+00  9.81396E-01  4.09013E-02
    9076.604     77.426   4.800  1.02676E+00  9.81604E-01  4.51597E-02
    9078.073     78.895   4.840  1.03015E+00  9.81826E-01  4.83190E-02
    9079.555     80.377   4.880  1.03118E+00  9.82080E-01  4.90967E-02
    9081.048     81.870   4.920  1.02923E+00  9.82342E-01  4.68902E-02
    9082.554     83.376   4.960  1.02416E+00  9.82636E-01  4.15279E-02
    9084.072     84.894   5.000  1.01609E+00  9.82939E-01  3.31537E-02
    9085.602     86.424   5.040  1.00528E+00  9.83270E-01  2.20131E-02
    9087.144     87.966   5.080  9.91924E-01  9.83608E-01  8.31667E-03
    9088.699     89.521   5.120  9.76289E-01  9.83971E-01 -7.68147E-03
    9090.265     91.087   5.160  9.58839E-01  9.84315E-01 -2.54757E-02
    9091.844     92.666   5.200  9.40479E-01  9.84682E-01 -4.42029E-02
    9093.435     94.257   5.240  9.22293E-01  9.85049E-01 -6.27561E-02
    9095.038     95.861   5.280  9.05454E-01  9.85394E-01 -7.99396E-02
    9096.654     97.476   5.320  8.91117E-01  9.85757E-01 -9.46396E-02
    9098.281     99.104   5.360  8.80168E-01  9.86096E-01 -1.05927E-01
    9099.921    100.743   5.400  8.73329E-01  9.86453E-01 -1.13124E-01
    9101.573    102.395   5.440  8.70972E-01  9.86782E-01 -1.15810E-01
    9103.237    104.060   5.480  8.73225E-01  9.87079E-01 -1.13854E-01
    9104.914    105.736   5.520  8.79968E-01  9.87368E-01 -1.07401E-01
    9106.602    107.425   5.560  8.90912E-01  9.87650E-01 -9.67380E-02
    9108.303    109.125   5.600  9.05744E-01  9.87900E-01 -8.21558E-02
    9110.016    110.838   5.640  9.24153E-01  9.88115E-01 -6.39621E-02
    9111.741    112.563   5.680  9.45612E-01  9.88321E-01 -4.27083E-02
    9113.479    114.301   5.720  9.69002E-01  9.88515E-01 -1.95131E-02
    9115.228    116.050   5.760  9.92682E-01  9.88652E-01  4.03029E-03
    9116.990    117.812   5.800  1.01512E+00  9.88774E-01  2.63437E-02
    9118.764    119.586   5.840  1.03513E+00  9.88860E-01  4.62744E-02
    9120.550    121.372   5.880  1.05189E+00  9.88909E-01  6.29798E-02
    9122.348    123.170   5.920  1.06431E+00  9.88920E-01  7.53912E-02
    9124.159    124.981   5.960  1.07076E+00  9.88915E-01  8.18408E-02
    9125.981    126.804   6.000  1.06923E+00  9.88828E-01  8.04016E-02
