# # comment:                                                     FEFF 9.9.1  
# # Source:
# # Structure
# # Reduced
# # space
# # abc:
# # angles:
# # sites:
# # POT  SCF 100  7.0000   0, screened core-hole, AFOLP (folp(0)= 1.150)
# # Abs   Z=29 Rmt= 1.286 Rnm= 1.352 K  shell
# # Pot 1 Z=49 Rmt= 1.480 Rnm= 1.556
# # Pot 2 Z=29 Rmt= 1.286 Rnm= 1.352
# # Pot 3 Z=15 Rmt= 0.941 Rnm= 1.157
# # Pot 4 Z= 8 Rmt= 0.885 Rnm= 1.044
# # Gam_ch=1.729E+00 H-L exch Vi= 0.000E+00 Vr= 0.000E+00
# # Mu=-5.957E+00eV kf=2.470E+00 Vint=-1.723E+01eV Rs_int= 1.468
# FMS rfms= 9.0000
# # PATH  Rmax=-1.000,  Keep_limit= 0.00, Heap_limit 0.00  Pwcrit= 2.50%
#  S02=0.950  Temp=   0.00  Debye_temp=   0.00  Global_sig2= 0.00000
#  Energy zero shift, vr, vi    0.00000E+00   0.00000E+00
#  Curved wave amplitude ratio filter   4.000%
#     file         sig2 tot  cw amp ratio   deg  nlegs   reff  inp sig2
#     0/   0 paths used
#  xsedge+ 50, used to normalize mu           2.4841E-04
#  -----------------------------------------------------------------------
#  omega    e    k    mu    mu0     chi     @#
    8983.352     -9.767  -1.000  4.49456E-02  5.44277E-02 -9.48205E-03
    8983.651     -9.469  -0.960  4.76073E-02  5.84410E-02 -1.08336E-02
    8983.937     -9.182  -0.920  5.05005E-02  6.29082E-02 -1.24077E-02
    8984.212     -8.908  -0.880  5.36527E-02  6.78971E-02 -1.42444E-02
    8984.474     -8.646  -0.840  5.70955E-02  7.34867E-02 -1.63913E-02
    8984.724     -8.396  -0.800  6.08643E-02  7.97686E-02 -1.89043E-02
    8984.962     -8.158  -0.760  6.49992E-02  8.68482E-02 -2.18490E-02
    8985.187     -7.932  -0.720  6.95439E-02  9.48445E-02 -2.53005E-02
    8985.400     -7.719  -0.680  7.45457E-02  1.03889E-01 -2.93433E-02
    8985.602     -7.518  -0.640  8.00526E-02  1.14121E-01 -3.40681E-02
    8985.791     -7.329  -0.600  8.61102E-02  1.25676E-01 -3.95661E-02
    8985.967     -7.152  -0.560  9.27550E-02  1.38673E-01 -4.59181E-02
    8986.132     -6.988  -0.520  1.00004E-01  1.53181E-01 -5.31766E-02
    8986.284     -6.835  -0.480  1.07845E-01  1.69187E-01 -6.13417E-02
    8986.425     -6.695  -0.440  1.16215E-01  1.86548E-01 -7.03331E-02
    8986.553     -6.567  -0.400  1.24995E-01  2.04962E-01 -7.99666E-02
    8986.668     -6.451  -0.360  1.33997E-01  2.23946E-01 -8.99490E-02
    8986.772     -6.348  -0.320  1.42976E-01  2.42878E-01 -9.99020E-02
    8986.863     -6.256  -0.280  1.51651E-01  2.61066E-01 -1.09415E-01
    8986.943     -6.177  -0.240  1.59735E-01  2.77846E-01 -1.18111E-01
    8987.010     -6.110  -0.200  1.66968E-01  2.92665E-01 -1.25697E-01
    8987.065     -6.055  -0.160  1.73137E-01  3.05120E-01 -1.31984E-01
    8987.107     -6.012  -0.120  1.78080E-01  3.14958E-01 -1.36878E-01
    8987.138     -5.982  -0.080  1.81688E-01  3.22040E-01 -1.40352E-01
    8987.162     -5.957   0.000  1.84643E-01  3.27726E-01 -1.43083E-01
    8987.217     -5.903   0.120  1.91340E-01  3.40553E-01 -1.49213E-01
    8987.260     -5.860   0.160  1.96539E-01  3.50485E-01 -1.53946E-01
    8987.315     -5.805   0.200  2.03281E-01  3.63163E-01 -1.59882E-01
    8987.382     -5.738   0.240  2.11556E-01  3.78397E-01 -1.66840E-01
    8987.461     -5.659   0.280  2.21273E-01  3.95819E-01 -1.74546E-01
    8987.552     -5.567   0.320  2.32334E-01  4.14974E-01 -1.82640E-01
    8987.656     -5.464   0.360  2.44581E-01  4.35276E-01 -1.90695E-01
    8987.772     -5.348   0.400  2.57833E-01  4.56106E-01 -1.98273E-01
    8987.900     -5.220   0.440  2.71995E-01  4.76877E-01 -2.04883E-01
    8988.040     -5.080   0.480  2.87127E-01  4.97133E-01 -2.10006E-01
    8988.192     -4.927   0.520  3.03538E-01  5.16616E-01 -2.13077E-01
    8988.357     -4.763   0.560  3.21637E-01  5.35181E-01 -2.13545E-01
    8988.534     -4.586   0.600  3.41671E-01  5.52799E-01 -2.11128E-01
    8988.723     -4.397   0.640  3.63564E-01  5.69554E-01 -2.05990E-01
    8988.924     -4.196   0.680  3.86640E-01  5.85532E-01 -1.98892E-01
    8989.137     -3.982   0.720  4.09890E-01  6.00815E-01 -1.90926E-01
    8989.363     -3.757   0.760  4.32454E-01  6.15546E-01 -1.83092E-01
    8989.601     -3.519   0.800  4.53947E-01  6.29815E-01 -1.75868E-01
    8989.851     -3.269   0.840  4.74285E-01  6.43701E-01 -1.69417E-01
    8990.113     -3.007   0.880  4.93137E-01  6.57290E-01 -1.64153E-01
    8990.387     -2.733   0.920  5.09566E-01  6.70610E-01 -1.61044E-01
    8990.673     -2.446   0.960  5.22698E-01  6.83737E-01 -1.61039E-01
    8990.972     -2.147   1.000  5.32879E-01  6.96698E-01 -1.63819E-01
    8991.283     -1.837   1.040  5.42493E-01  7.09489E-01 -1.66996E-01
    8991.606     -1.513   1.080  5.55529E-01  7.22140E-01 -1.66611E-01
    8991.941     -1.178   1.120  5.76177E-01  7.34651E-01 -1.58474E-01
    8992.289     -0.831   1.160  6.06875E-01  7.47035E-01 -1.40160E-01
    8992.649     -0.471   1.200  6.46148E-01  7.59284E-01 -1.13137E-01
    8993.020     -0.099   1.240  6.89859E-01  7.71366E-01 -8.15078E-02
    8993.404      0.285   1.280  7.34742E-01  7.83305E-01 -4.85631E-02
    8993.801      0.681   1.320  7.79230E-01  7.95039E-01 -1.58087E-02
    8994.209      1.090   1.360  8.25406E-01  8.06608E-01  1.87984E-02
    8994.630      1.510   1.400  8.79169E-01  8.17949E-01  6.12200E-02
    8995.063      1.943   1.440  9.42131E-01  8.29079E-01  1.13052E-01
    8995.508      2.388   1.480  1.00619E+00  8.39955E-01  1.66238E-01
    8995.965      2.845   1.520  1.06566E+00  8.50568E-01  2.15091E-01
    8996.434      3.315   1.560  1.12410E+00  8.60896E-01  2.63204E-01
    8996.916      3.796   1.600  1.18068E+00  8.70931E-01  3.09747E-01
    8997.410      4.290   1.640  1.23470E+00  8.80671E-01  3.54027E-01
    8997.915      4.796   1.680  1.28841E+00  8.90069E-01  3.98344E-01
    8998.434      5.314   1.720  1.32662E+00  8.99141E-01  4.27479E-01
    8998.964      5.844   1.760  1.32815E+00  9.07842E-01  4.20310E-01
    8999.507      6.387   1.800  1.29730E+00  9.16208E-01  3.81093E-01
    9000.061      6.942   1.840  1.25009E+00  9.24198E-01  3.25891E-01
    9000.628      7.509   1.880  1.19838E+00  9.31808E-01  2.66575E-01
    9001.207      8.088   1.920  1.15352E+00  9.39037E-01  2.14480E-01
    9001.799      8.679   1.960  1.12035E+00  9.45884E-01  1.74466E-01
    9002.402      9.283   2.000  1.09859E+00  9.52348E-01  1.46241E-01
    9003.018      9.898   2.040  1.08514E+00  9.58411E-01  1.26730E-01
    9003.646     10.526   2.080  1.07406E+00  9.64115E-01  1.09940E-01
    9004.286     11.166   2.120  1.06283E+00  9.69420E-01  9.34124E-02
    9004.938     11.818   2.160  1.05474E+00  9.74350E-01  8.03883E-02
    9005.603     12.483   2.200  1.05210E+00  9.78909E-01  7.31937E-02
    9006.279     13.160   2.240  1.05087E+00  9.83120E-01  6.77523E-02
    9006.968     13.848   2.280  1.04475E+00  9.86968E-01  5.77860E-02
    9007.669     14.549   2.320  1.03258E+00  9.90456E-01  4.21240E-02
    9008.382     15.263   2.360  1.01929E+00  9.93611E-01  2.56758E-02
    9009.108     15.988   2.400  1.00788E+00  9.96460E-01  1.14190E-02
    9009.845     16.726   2.440  9.98051E-01  9.98967E-01 -9.16102E-04
    9010.595     17.476   2.480  9.90332E-01  1.00120E+00 -1.08691E-02
    9011.357     18.238   2.520  9.87961E-01  1.00313E+00 -1.51647E-02
    9012.131     19.012   2.560  9.94816E-01  1.00479E+00 -9.97412E-03
    9012.918     19.798   2.600  1.01283E+00  1.00620E+00  6.62433E-03
    9013.716     20.597   2.640  1.03959E+00  1.00735E+00  3.22483E-02
    9014.527     21.407   2.680  1.06620E+00  1.00827E+00  5.79310E-02
    9015.350     22.230   2.720  1.07612E+00  1.00896E+00  6.71629E-02
    9016.185     23.066   2.760  1.05355E+00  1.00946E+00  4.40822E-02
    9017.032     23.913   2.800  1.00044E+00  1.00975E+00 -9.30821E-03
    9017.892     24.772   2.840  9.37359E-01  1.00989E+00 -7.25282E-02
    9018.764     25.644   2.880  8.94038E-01  1.00984E+00 -1.15800E-01
    9019.648     26.528   2.920  8.74073E-01  1.00965E+00 -1.35581E-01
    9020.544     27.424   2.960  8.66954E-01  1.00934E+00 -1.42385E-01
    9021.452     28.332   3.000  8.66594E-01  1.00888E+00 -1.42285E-01
    9022.373     29.253   3.040  8.69167E-01  1.00832E+00 -1.39156E-01
    9023.305     30.186   3.080  8.72216E-01  1.00768E+00 -1.35459E-01
    9024.250     31.131   3.120  8.75159E-01  1.00692E+00 -1.31762E-01
    9025.207     32.088   3.160  8.78647E-01  1.00611E+00 -1.27461E-01
    9026.176     33.057   3.200  8.83480E-01  1.00522E+00 -1.21739E-01
    9027.158     34.038   3.240  8.90255E-01  1.00426E+00 -1.14006E-01
    9028.152     35.032   3.280  8.99335E-01  1.00328E+00 -1.03945E-01
    9029.157     36.038   3.320  9.10464E-01  1.00226E+00 -9.17938E-02
    9030.175     37.056   3.360  9.23382E-01  1.00120E+00 -7.78190E-02
    9031.206     38.086   3.400  9.37611E-01  1.00011E+00 -6.25012E-02
    9032.248     39.128   3.440  9.52269E-01  9.99039E-01 -4.67692E-02
    9033.303     40.183   3.480  9.66490E-01  9.97942E-01 -3.14519E-02
    9034.369     41.250   3.520  9.79866E-01  9.96867E-01 -1.70007E-02
    9035.448     42.329   3.560  9.92043E-01  9.95796E-01 -3.75316E-03
    9036.540     43.420   3.600  1.00267E+00  9.94731E-01  7.94190E-03
    9037.643     44.523   3.640  1.01155E+00  9.93697E-01  1.78549E-02
    9038.759     45.639   3.680  1.01859E+00  9.92697E-01  2.58974E-02
    9039.886     46.767   3.720  1.02399E+00  9.91710E-01  3.22752E-02
    9041.026     47.907   3.760  1.02823E+00  9.90781E-01  3.74512E-02
    9042.178     49.059   3.800  1.03169E+00  9.89870E-01  4.18180E-02
    9043.343     50.223   3.840  1.03443E+00  9.89020E-01  4.54149E-02
    9044.519     51.400   3.880  1.03628E+00  9.88191E-01  4.80855E-02
    9045.708     52.588   3.920  1.03714E+00  9.87425E-01  4.97165E-02
    9046.909     53.789   3.960  1.03708E+00  9.86705E-01  5.03720E-02
    9048.122     55.002   4.000  1.03628E+00  9.86052E-01  5.02258E-02
    9049.347     56.228   4.040  1.03495E+00  9.85445E-01  4.95037E-02
    9050.585     57.465   4.080  1.03320E+00  9.84884E-01  4.83196E-02
    9051.834     58.715   4.120  1.03104E+00  9.84390E-01  4.66499E-02
    9053.096     59.977   4.160  1.02834E+00  9.83942E-01  4.44012E-02
    9054.370     61.251   4.200  1.02506E+00  9.83542E-01  4.15200E-02
    9055.657     62.537   4.240  1.02129E+00  9.83210E-01  3.80750E-02
    9056.955     63.835   4.280  1.01730E+00  9.82948E-01  3.43500E-02
    9058.266     65.146   4.320  1.01359E+00  9.82711E-01  3.08815E-02
    9059.588     66.469   4.360  1.01078E+00  9.82563E-01  2.82164E-02
    9060.923     67.804   4.400  1.00920E+00  9.82438E-01  2.67614E-02
    9062.271     69.151   4.440  1.00904E+00  9.82380E-01  2.66591E-02
    9063.630     70.511   4.480  1.01009E+00  9.82366E-01  2.77285E-02
    9065.002     71.882   4.520  1.01194E+00  9.82394E-01  2.95473E-02
    9066.385     73.266   4.560  1.01406E+00  9.82465E-01  3.15994E-02
    9067.781     74.662   4.600  1.01594E+00  9.82600E-01  3.33406E-02
    9069.190     76.070   4.640  1.01698E+00  9.82776E-01  3.42088E-02
    9070.610     77.490   4.680  1.01664E+00  9.82969E-01  3.36715E-02
    9072.043     78.923   4.720  1.01450E+00  9.83220E-01  3.12801E-02
    9073.487     80.368   4.760  1.01025E+00  9.83486E-01  2.67677E-02
    9074.944     81.825   4.800  1.00398E+00  9.83788E-01  2.01898E-02
    9076.413     83.294   4.840  9.96004E-01  9.84122E-01  1.18818E-02
    9077.895     84.775   4.880  9.86852E-01  9.84467E-01  2.38502E-03
    9079.388     86.269   4.920  9.77153E-01  9.84842E-01 -7.68901E-03
    9080.894     87.774   4.960  9.67422E-01  9.85226E-01 -1.78038E-02
    9082.412     89.292   5.000  9.58129E-01  9.85638E-01 -2.75084E-02
    9083.942     90.822   5.040  9.49647E-01  9.86054E-01 -3.64069E-02
    9085.484     92.365   5.080  9.42408E-01  9.86475E-01 -4.40668E-02
    9087.039     93.919   5.120  9.36911E-01  9.86918E-01 -5.00074E-02
    9088.605     95.486   5.160  9.33498E-01  9.87339E-01 -5.38414E-02
    9090.184     97.065   5.200  9.32324E-01  9.87757E-01 -5.54329E-02
    9091.775     98.656   5.240  9.33138E-01  9.88173E-01 -5.50348E-02
    9093.378    100.259   5.280  9.35426E-01  9.88585E-01 -5.31589E-02
    9094.994    101.874   5.320  9.38642E-01  9.88991E-01 -5.03494E-02
    9096.621    103.502   5.360  9.42383E-01  9.89369E-01 -4.69855E-02
    9098.261    105.142   5.400  9.46508E-01  9.89737E-01 -4.32289E-02
    9099.913    106.794   5.440  9.50977E-01  9.90073E-01 -3.90961E-02
    9101.578    108.458   5.480  9.55825E-01  9.90399E-01 -3.45738E-02
    9103.254    110.134   5.520  9.60974E-01  9.90691E-01 -2.97165E-02
    9104.943    111.823   5.560  9.66274E-01  9.90970E-01 -2.46962E-02
    9106.643    113.524   5.600  9.71396E-01  9.91191E-01 -1.97949E-02
    9108.356    115.237   5.640  9.76070E-01  9.91397E-01 -1.53263E-02
    9110.081    116.962   5.680  9.80069E-01  9.91565E-01 -1.14960E-02
    9111.819    118.699   5.720  9.83367E-01  9.91694E-01 -8.32699E-03
    9113.568    120.449   5.760  9.86120E-01  9.91786E-01 -5.66680E-03
    9115.330    122.210   5.800  9.88635E-01  9.91863E-01 -3.22843E-03
    9117.104    123.984   5.840  9.91232E-01  9.91877E-01 -6.45216E-04
    9118.890    125.771   5.880  9.94276E-01  9.91849E-01  2.42724E-03
    9120.688    127.569   5.920  9.98018E-01  9.91781E-01  6.23753E-03
    9122.499    129.379   5.960  1.00252E+00  9.91670E-01  1.08467E-02
    9124.322    131.202   6.000  1.00769E+00  9.91523E-01  1.61719E-02
