# # comment:                                                     FEFF 9.9.1  
# # Source:
# # Structure
# # Reduced
# # space
# # abc:
# # angles:
# # sites:
# # POT  SCF 100  7.0000   0, screened core-hole, AFOLP (folp(0)= 1.150)
# # Abs   Z=29 Rmt= 1.200 Rnm= 1.366 K  shell
# # Pot 1 Z=41 Rmt= 1.291 Rnm= 1.440
# # Pot 2 Z=29 Rmt= 1.200 Rnm= 1.366
# # Pot 3 Z= 8 Rmt= 0.997 Rnm= 1.096
# # Gam_ch=1.729E+00 H-L exch Vi= 0.000E+00 Vr= 0.000E+00
# # Mu=-6.360E+00eV kf=2.181E+00 Vint=-1.594E+01eV Rs_int= 1.663
# FMS rfms= 9.0000
# # PATH  Rmax=-1.000,  Keep_limit= 0.00, Heap_limit 0.00  Pwcrit= 2.50%
#  S02=0.950  Temp=   0.00  Debye_temp=   0.00  Global_sig2= 0.00000
#  Energy zero shift, vr, vi    0.00000E+00   0.00000E+00
#  Curved wave amplitude ratio filter   4.000%
#     file         sig2 tot  cw amp ratio   deg  nlegs   reff  inp sig2
#     0/   0 paths used
#  xsedge+ 50, used to normalize mu           2.4656E-04
#  -----------------------------------------------------------------------
#  omega    e    k    mu    mu0     chi     @#
    8983.622    -10.170  -1.000  4.91774E-02  5.58442E-02 -6.66684E-03
    8983.920     -9.871  -0.960  5.27555E-02  5.99636E-02 -7.20815E-03
    8984.207     -9.584  -0.920  5.67687E-02  6.45467E-02 -7.77794E-03
    8984.481     -9.310  -0.880  6.12906E-02  6.96621E-02 -8.37153E-03
    8984.743     -9.048  -0.840  6.64085E-02  7.53901E-02 -8.98160E-03
    8984.993     -8.798  -0.800  7.22260E-02  8.18235E-02 -9.59748E-03
    8985.231     -8.560  -0.760  7.88646E-02  8.90689E-02 -1.02043E-02
    8985.456     -8.335  -0.720  8.64646E-02  9.72469E-02 -1.07823E-02
    8985.670     -8.121  -0.680  9.51841E-02  1.06490E-01 -1.13061E-02
    8985.871     -7.920  -0.640  1.05194E-01  1.16940E-01 -1.17455E-02
    8986.060     -7.731  -0.600  1.16666E-01  1.28733E-01 -1.20661E-02
    8986.237     -7.554  -0.560  1.29753E-01  1.41987E-01 -1.22340E-02
    8986.401     -7.390  -0.520  1.44553E-01  1.56774E-01 -1.22216E-02
    8986.554     -7.237  -0.480  1.61061E-01  1.73079E-01 -1.20184E-02
    8986.694     -7.097  -0.440  1.79116E-01  1.90758E-01 -1.16417E-02
    8986.822     -6.969  -0.400  1.98356E-01  2.09502E-01 -1.11459E-02
    8986.938     -6.853  -0.360  2.18202E-01  2.28824E-01 -1.06217E-02
    8987.041     -6.750  -0.320  2.37912E-01  2.48093E-01 -1.01813E-02
    8987.133     -6.658  -0.280  2.56678E-01  2.66608E-01 -9.92923E-03
    8987.212     -6.579  -0.240  2.73764E-01  2.83694E-01 -9.93050E-03
    8987.279     -6.512  -0.200  2.88600E-01  2.98789E-01 -1.01895E-02
    8987.334     -6.457  -0.160  3.00834E-01  3.11483E-01 -1.06489E-02
    8987.377     -6.414  -0.120  3.10304E-01  3.21513E-01 -1.12093E-02
    8987.407     -6.384  -0.080  3.16977E-01  3.28737E-01 -1.17592E-02
    8987.432     -6.360   0.000  3.22150E-01  3.34538E-01 -1.23885E-02
    8987.486     -6.305   0.120  3.33772E-01  3.47630E-01 -1.38584E-02
    8987.529     -6.262   0.160  3.42691E-01  3.57790E-01 -1.50991E-02
    8987.584     -6.207   0.200  3.53733E-01  3.70734E-01 -1.70011E-02
    8987.651     -6.140   0.240  3.66439E-01  3.86317E-01 -1.98781E-02
    8987.730     -6.061   0.280  3.80034E-01  4.04178E-01 -2.41449E-02
    8987.822     -5.969   0.320  3.93556E-01  4.23870E-01 -3.03140E-02
    8987.925     -5.866   0.360  4.05852E-01  4.44770E-01 -3.89180E-02
    8988.041     -5.750   0.400  4.15906E-01  4.66303E-01 -5.03968E-02
    8988.169     -5.622   0.440  4.22912E-01  4.87845E-01 -6.49331E-02
    8988.309     -5.482   0.480  4.26691E-01  5.08983E-01 -8.22916E-02
    8988.462     -5.329   0.520  4.27679E-01  5.29418E-01 -1.01739E-01
    8988.626     -5.165   0.560  4.26864E-01  5.49023E-01 -1.22159E-01
    8988.803     -4.988   0.600  4.25407E-01  5.67744E-01 -1.42337E-01
    8988.992     -4.799   0.640  4.24322E-01  5.85665E-01 -1.61343E-01
    8989.193     -4.598   0.680  4.24126E-01  6.02866E-01 -1.78739E-01
    8989.407     -4.384   0.720  4.24857E-01  6.19424E-01 -1.94566E-01
    8989.632     -4.159   0.760  4.26616E-01  6.35454E-01 -2.08838E-01
    8989.870     -3.921   0.800  4.29839E-01  6.51061E-01 -2.21223E-01
    8990.120     -3.671   0.840  4.34818E-01  6.66277E-01 -2.31459E-01
    8990.382     -3.409   0.880  4.41063E-01  6.81201E-01 -2.40139E-01
    8990.656     -3.135   0.920  4.47444E-01  6.95835E-01 -2.48391E-01
    8990.943     -2.848   0.960  4.53599E-01  7.10249E-01 -2.56650E-01
    8991.242     -2.550   1.000  4.60268E-01  7.24463E-01 -2.64194E-01
    8991.552     -2.239   1.040  4.68503E-01  7.38443E-01 -2.69940E-01
    8991.876     -1.916   1.080  4.79433E-01  7.52234E-01 -2.72801E-01
    8992.211     -1.580   1.120  4.94766E-01  7.65790E-01 -2.71024E-01
    8992.558     -1.233   1.160  5.16581E-01  7.79140E-01 -2.62559E-01
    8992.918     -0.873   1.200  5.45270E-01  7.92248E-01 -2.46978E-01
    8993.290     -0.501   1.240  5.78827E-01  8.05097E-01 -2.26270E-01
    8993.674     -0.117   1.280  6.14387E-01  8.17666E-01 -2.03280E-01
    8994.070      0.279   1.320  6.48739E-01  8.29935E-01 -1.81196E-01
    8994.479      0.687   1.360  6.76128E-01  8.41895E-01 -1.65767E-01
    8994.899      1.108   1.400  6.90179E-01  8.53503E-01 -1.63324E-01
    8995.332      1.541   1.440  6.92119E-01  8.64775E-01 -1.72657E-01
    8995.777      1.986   1.480  6.90887E-01  8.75646E-01 -1.84759E-01
    8996.234      2.443   1.520  6.95946E-01  8.86129E-01 -1.90182E-01
    8996.704      2.912   1.560  7.10905E-01  8.96200E-01 -1.85294E-01
    8997.185      3.394   1.600  7.34313E-01  9.05854E-01 -1.71542E-01
    8997.679      3.888   1.640  7.67328E-01  9.15069E-01 -1.47741E-01
    8998.185      4.394   1.680  8.15628E-01  9.23842E-01 -1.08214E-01
    8998.703      4.912   1.720  8.83959E-01  9.32150E-01 -4.81908E-02
    8999.233      5.442   1.760  9.72921E-01  9.40014E-01  3.29070E-02
    8999.776      5.985   1.800  1.07760E+00  9.47415E-01  1.30186E-01
    9000.331      6.540   1.840  1.18010E+00  9.54374E-01  2.25729E-01
    9000.898      7.106   1.880  1.24916E+00  9.60872E-01  2.88291E-01
    9001.477      7.686   1.920  1.27331E+00  9.66912E-01  3.06398E-01
    9002.068      8.277   1.960  1.28116E+00  9.72500E-01  3.08661E-01
    9002.672      8.880   2.000  1.30740E+00  9.77679E-01  3.29723E-01
    9003.287      9.496   2.040  1.35860E+00  9.82416E-01  3.76186E-01
    9003.915     10.124   2.080  1.40234E+00  9.86735E-01  4.15607E-01
    9004.555     10.764   2.120  1.39454E+00  9.90646E-01  4.03894E-01
    9005.207     11.416   2.160  1.33171E+00  9.94176E-01  3.37535E-01
    9005.872     12.081   2.200  1.24746E+00  9.97354E-01  2.50106E-01
    9006.549     12.757   2.240  1.17093E+00  1.00017E+00  1.70759E-01
    9007.237     13.446   2.280  1.10818E+00  1.00262E+00  1.05559E-01
    9007.938     14.147   2.320  1.05723E+00  1.00477E+00  5.24651E-02
    9008.652     14.861   2.360  1.02238E+00  1.00660E+00  1.57869E-02
    9009.377     15.586   2.400  1.00257E+00  1.00816E+00 -5.58290E-03
    9010.115     16.324   2.440  9.85713E-01  1.00944E+00 -2.37249E-02
    9010.864     17.073   2.480  9.61779E-01  1.01047E+00 -4.86871E-02
    9011.626     17.835   2.520  9.34296E-01  1.01125E+00 -7.69552E-02
    9012.401     18.610   2.560  9.15002E-01  1.01182E+00 -9.68223E-02
    9013.187     19.396   2.600  9.15396E-01  1.01219E+00 -9.67939E-02
    9013.986     20.194   2.640  9.27767E-01  1.01236E+00 -8.45925E-02
    9014.796     21.005   2.680  9.45549E-01  1.01238E+00 -6.68333E-02
    9015.619     21.828   2.720  9.66318E-01  1.01222E+00 -4.59067E-02
    9016.455     22.663   2.760  9.87980E-01  1.01196E+00 -2.39753E-02
    9017.302     23.511   2.800  1.00939E+00  1.01156E+00 -2.17073E-03
    9018.161     24.370   2.840  1.02971E+00  1.01103E+00  1.86769E-02
    9019.033     25.242   2.880  1.04768E+00  1.01043E+00  3.72468E-02
    9019.917     26.126   2.920  1.06150E+00  1.00975E+00  5.17501E-02
    9020.813     27.022   2.960  1.06928E+00  1.00899E+00  6.02973E-02
    9021.721     27.930   3.000  1.07016E+00  1.00815E+00  6.20053E-02
    9022.642     28.851   3.040  1.06460E+00  1.00729E+00  5.73086E-02
    9023.575     29.783   3.080  1.05379E+00  1.00639E+00  4.73983E-02
    9024.519     30.728   3.120  1.03942E+00  1.00544E+00  3.39814E-02
    9025.477     31.685   3.160  1.02326E+00  1.00449E+00  1.87727E-02
    9026.446     32.655   3.200  1.00638E+00  1.00352E+00  2.86042E-03
    9027.427     33.636   3.240  9.89506E-01  1.00256E+00 -1.30549E-02
    9028.421     34.630   3.280  9.73030E-01  1.00159E+00 -2.85547E-02
    9029.427     35.636   3.320  9.57214E-01  1.00063E+00 -4.34204E-02
    9030.445     36.654   3.360  9.42354E-01  9.99691E-01 -5.73362E-02
    9031.475     37.684   3.400  9.28894E-01  9.98778E-01 -6.98847E-02
    9032.517     38.726   3.440  9.17119E-01  9.97899E-01 -8.07799E-02
    9033.572     39.781   3.480  9.07245E-01  9.97034E-01 -8.97889E-02
    9034.639     40.848   3.520  8.99612E-01  9.96206E-01 -9.65947E-02
    9035.718     41.927   3.560  8.94477E-01  9.95438E-01 -1.00961E-01
    9036.809     43.018   3.600  8.91963E-01  9.94691E-01 -1.02728E-01
    9037.912     44.121   3.640  8.92291E-01  9.94008E-01 -1.01717E-01
    9039.028     45.237   3.680  8.95440E-01  9.93367E-01 -9.79263E-02
    9040.156     46.365   3.720  9.01133E-01  9.92769E-01 -9.16360E-02
    9041.296     47.504   3.760  9.09028E-01  9.92217E-01 -8.31890E-02
    9042.448     48.657   3.800  9.18842E-01  9.91733E-01 -7.28911E-02
    9043.612     49.821   3.840  9.30274E-01  9.91294E-01 -6.10205E-02
    9044.789     50.997   3.880  9.43096E-01  9.90924E-01 -4.78274E-02
    9045.977     52.186   3.920  9.57103E-01  9.90600E-01 -3.34965E-02
    9047.178     53.387   3.960  9.72020E-01  9.90321E-01 -1.83009E-02
    9048.391     54.600   4.000  9.87541E-01  9.90108E-01 -2.56692E-03
    9049.617     55.825   4.040  1.00319E+00  9.89921E-01  1.32658E-02
    9050.854     57.063   4.080  1.01842E+00  9.89820E-01  2.85971E-02
    9052.104     58.313   4.120  1.03237E+00  9.89744E-01  4.26232E-02
    9053.366     59.574   4.160  1.04422E+00  9.89733E-01  5.44910E-02
    9054.640     60.849   4.200  1.05325E+00  9.89765E-01  6.34885E-02
    9055.926     62.135   4.240  1.05909E+00  9.89838E-01  6.92500E-02
    9057.224     63.433   4.280  1.06181E+00  9.89952E-01  7.18596E-02
    9058.535     64.744   4.320  1.06182E+00  9.90106E-01  7.17165E-02
    9059.858     66.067   4.360  1.05951E+00  9.90299E-01  6.92107E-02
    9061.193     67.402   4.400  1.05513E+00  9.90531E-01  6.46019E-02
    9062.540     68.749   4.440  1.04903E+00  9.90800E-01  5.82288E-02
    9063.899     70.108   4.480  1.04181E+00  9.91104E-01  5.07109E-02
    9065.271     71.480   4.520  1.03432E+00  9.91421E-01  4.28942E-02
    9066.655     72.864   4.560  1.02736E+00  9.91772E-01  3.55873E-02
    9068.051     74.260   4.600  1.02143E+00  9.92153E-01  2.92798E-02
    9069.459     75.668   4.640  1.01665E+00  9.92544E-01  2.41069E-02
    9070.879     77.088   4.680  1.01291E+00  9.92962E-01  1.99474E-02
    9072.312     78.521   4.720  1.00987E+00  9.93365E-01  1.65033E-02
    9073.757     79.966   4.760  1.00716E+00  9.93814E-01  1.33438E-02
    9075.214     81.422   4.800  1.00430E+00  9.94244E-01  1.00525E-02
    9076.683     82.892   4.840  1.00109E+00  9.94676E-01  6.41157E-03
    9078.164     84.373   4.880  9.97617E-01  9.95128E-01  2.48832E-03
    9079.658     85.866   4.920  9.94171E-01  9.95558E-01 -1.38755E-03
    9081.163     87.372   4.960  9.91218E-01  9.95985E-01 -4.76686E-03
    9082.681     88.890   5.000  9.89188E-01  9.96429E-01 -7.24102E-03
    9084.211     90.420   5.040  9.88288E-01  9.96825E-01 -8.53637E-03
    9085.754     91.962   5.080  9.88689E-01  9.97234E-01 -8.54550E-03
    9087.308     93.517   5.120  9.90296E-01  9.97614E-01 -7.31796E-03
    9088.875     95.084   5.160  9.92840E-01  9.97963E-01 -5.12237E-03
    9090.454     96.662   5.200  9.95849E-01  9.98323E-01 -2.47432E-03
    9092.045     98.253   5.240  9.98607E-01  9.98628E-01 -2.07400E-05
    9093.648     99.857   5.280  1.00064E+00  9.98921E-01  1.71494E-03
    9095.263    101.472   5.320  1.00169E+00  9.99180E-01  2.50973E-03
    9096.891    103.100   5.360  1.00183E+00  9.99426E-01  2.40835E-03
    9098.531    104.740   5.400  1.00122E+00  9.99635E-01  1.58383E-03
    9100.183    106.392   5.440  1.00005E+00  9.99807E-01  2.46446E-04
    9101.847    108.056   5.480  9.98567E-01  9.99939E-01 -1.37127E-03
    9103.523    109.732   5.520  9.96957E-01  1.00003E+00 -3.07386E-03
    9105.212    111.421   5.560  9.95305E-01  1.00009E+00 -4.78244E-03
    9106.913    113.122   5.600  9.93611E-01  1.00013E+00 -6.51661E-03
    9108.626    114.834   5.640  9.91823E-01  1.00013E+00 -8.30603E-03
    9110.351    116.560   5.680  9.89958E-01  1.00007E+00 -1.01103E-02
    9112.088    118.297   5.720  9.88120E-01  9.99992E-01 -1.18716E-02
    9113.838    120.047   5.760  9.86268E-01  9.99877E-01 -1.36088E-02
    9115.599    121.808   5.800  9.84271E-01  9.99724E-01 -1.54529E-02
    9117.373    123.582   5.840  9.82039E-01  9.99534E-01 -1.74951E-02
    9119.159    125.368   5.880  9.79635E-01  9.99306E-01 -1.96705E-02
    9120.958    127.167   5.920  9.77267E-01  9.99042E-01 -2.17757E-02
    9122.768    128.977   5.960  9.75265E-01  9.98768E-01 -2.35032E-02
    9124.591    130.800   6.000  9.73927E-01  9.98407E-01 -2.44796E-02
