# # comment:                                                     FEFF 9.9.1  
# # Source:
# # Structure
# # Reduced
# # space
# # abc:
# # angles:
# # sites:
# # POT  SCF 100  7.0000   0, screened core-hole, AFOLP (folp(0)= 1.150)
# # Abs   Z=29 Rmt= 1.146 Rnm= 1.277 K  shell
# # Pot 1 Z=29 Rmt= 1.124 Rnm= 1.258
# # Pot 2 Z=47 Rmt= 1.404 Rnm= 1.498
# # Pot 3 Z= 8 Rmt= 1.011 Rnm= 1.114
# # Gam_ch=1.729E+00 H-L exch Vi= 0.000E+00 Vr= 0.000E+00
# # Mu=-6.630E+00eV kf=2.160E+00 Vint=-1.449E+01eV Rs_int= 1.679
# FMS rfms= 9.0000
# # PATH  Rmax=-1.000,  Keep_limit= 0.00, Heap_limit 0.00  Pwcrit= 2.50%
#  S02=0.950  Temp=   0.00  Debye_temp=   0.00  Global_sig2= 0.00000
#  Energy zero shift, vr, vi    0.00000E+00   0.00000E+00
#  Curved wave amplitude ratio filter   4.000%
#     file         sig2 tot  cw amp ratio   deg  nlegs   reff  inp sig2
#     0/   0 paths used
#  xsedge+ 50, used to normalize mu           2.4270E-04
#  -----------------------------------------------------------------------
#  omega    e    k    mu    mu0     chi     @#
    8983.505    -10.440  -1.000  3.61832E-02  5.67323E-02 -2.05491E-02
    8983.803    -10.142  -0.960  3.80077E-02  6.08670E-02 -2.28593E-02
    8984.090     -9.855  -0.920  3.99617E-02  6.54591E-02 -2.54974E-02
    8984.364     -9.581  -0.880  4.20570E-02  7.05755E-02 -2.85185E-02
    8984.626     -9.319  -0.840  4.43067E-02  7.62940E-02 -3.19873E-02
    8984.876     -9.069  -0.800  4.67249E-02  8.27045E-02 -3.59796E-02
    8985.114     -8.831  -0.760  4.93268E-02  8.99101E-02 -4.05833E-02
    8985.339     -8.606  -0.720  5.21286E-02  9.80272E-02 -4.58987E-02
    8985.553     -8.392  -0.680  5.51464E-02  1.07184E-01 -5.20376E-02
    8985.754     -8.191  -0.640  5.83958E-02  1.17515E-01 -5.91195E-02
    8985.943     -8.002  -0.600  6.18898E-02  1.29154E-01 -6.72639E-02
    8986.120     -7.825  -0.560  6.56357E-02  1.42212E-01 -7.65762E-02
    8986.284     -7.661  -0.520  6.96306E-02  1.56756E-01 -8.71257E-02
    8986.437     -7.508  -0.480  7.38559E-02  1.72771E-01 -9.89155E-02
    8986.577     -7.368  -0.440  7.82702E-02  1.90117E-01 -1.11847E-01
    8986.705     -7.240  -0.400  8.28042E-02  2.08492E-01 -1.25688E-01
    8986.821     -7.124  -0.360  8.73602E-02  2.27426E-01 -1.40066E-01
    8986.924     -7.021  -0.320  9.18183E-02  2.46306E-01 -1.54488E-01
    8987.016     -6.929  -0.280  9.60494E-02  2.64452E-01 -1.68402E-01
    8987.095     -6.850  -0.240  9.99315E-02  2.81206E-01 -1.81275E-01
    8987.162     -6.783  -0.200  1.03362E-01  2.96020E-01 -1.92658E-01
    8987.217     -6.728  -0.160  1.06260E-01  3.08487E-01 -2.02227E-01
    8987.260     -6.685  -0.120  1.08571E-01  3.18347E-01 -2.09776E-01
    8987.290     -6.655  -0.080  1.10255E-01  3.25453E-01 -2.15198E-01
    8987.315     -6.630   0.000  1.11641E-01  3.31164E-01 -2.19523E-01
    8987.369     -6.576   0.120  1.14890E-01  3.44063E-01 -2.29172E-01
    8987.412     -6.533   0.160  1.17353E-01  3.54085E-01 -2.36732E-01
    8987.467     -6.478   0.200  1.20502E-01  3.66878E-01 -2.46376E-01
    8987.534     -6.411   0.240  1.24387E-01  3.82322E-01 -2.57935E-01
    8987.613     -6.332   0.280  1.28975E-01  4.00063E-01 -2.71088E-01
    8987.705     -6.240   0.320  1.34377E-01  4.19712E-01 -2.85335E-01
    8987.808     -6.137   0.360  1.40616E-01  4.40691E-01 -3.00076E-01
    8987.924     -6.021   0.400  1.47924E-01  4.62426E-01 -3.14502E-01
    8988.052     -5.893   0.440  1.56579E-01  4.84391E-01 -3.27812E-01
    8988.192     -5.753   0.480  1.66992E-01  5.06139E-01 -3.39147E-01
    8988.345     -5.600   0.520  1.79746E-01  5.27429E-01 -3.47683E-01
    8988.509     -5.436   0.560  1.95532E-01  5.48121E-01 -3.52589E-01
    8988.686     -5.259   0.600  2.15123E-01  5.68177E-01 -3.53055E-01
    8988.875     -5.070   0.640  2.39354E-01  5.87611E-01 -3.48257E-01
    8989.076     -4.869   0.680  2.69064E-01  6.06511E-01 -3.37447E-01
    8989.290     -4.655   0.720  3.04946E-01  6.24981E-01 -3.20036E-01
    8989.515     -4.430   0.760  3.47354E-01  6.43039E-01 -2.95685E-01
    8989.753     -4.192   0.800  3.96356E-01  6.60817E-01 -2.64461E-01
    8990.003     -3.942   0.840  4.50030E-01  6.78308E-01 -2.28277E-01
    8990.265     -3.680   0.880  5.01327E-01  6.95594E-01 -1.94267E-01
    8990.539     -3.406   0.920  5.35731E-01  7.12664E-01 -1.76934E-01
    8990.826     -3.119   0.960  5.39269E-01  7.29512E-01 -1.90242E-01
    8991.125     -2.820   1.000  5.13704E-01  7.46182E-01 -2.32479E-01
    8991.435     -2.510   1.040  4.76776E-01  7.62610E-01 -2.85834E-01
    8991.759     -2.187   1.080  4.45006E-01  7.78803E-01 -3.33797E-01
    8992.094     -1.851   1.120  4.23331E-01  7.94743E-01 -3.71412E-01
    8992.441     -1.504   1.160  4.10608E-01  8.10367E-01 -3.99759E-01
    8992.801     -1.144   1.200  4.06760E-01  8.25648E-01 -4.18888E-01
    8993.173     -0.772   1.240  4.11881E-01  8.40557E-01 -4.28676E-01
    8993.557     -0.388   1.280  4.23590E-01  8.55065E-01 -4.31475E-01
    8993.953      0.008   1.320  4.38543E-01  8.69120E-01 -4.30577E-01
    8994.362      0.416   1.360  4.54520E-01  8.82710E-01 -4.28190E-01
    8994.782      0.837   1.400  4.70115E-01  8.95783E-01 -4.25668E-01
    8995.215      1.270   1.440  4.85578E-01  9.08310E-01 -4.22732E-01
    8995.660      1.715   1.480  5.04658E-01  9.20280E-01 -4.15622E-01
    8996.117      2.172   1.520  5.32597E-01  9.31666E-01 -3.99069E-01
    8996.587      2.642   1.560  5.71912E-01  9.42462E-01 -3.70550E-01
    8997.068      3.123   1.600  6.20661E-01  9.52621E-01 -3.31959E-01
    8997.562      3.617   1.640  6.77247E-01  9.62161E-01 -2.84914E-01
    8998.068      4.123   1.680  7.42866E-01  9.71063E-01 -2.28197E-01
    8998.586      4.641   1.720  8.17562E-01  9.79324E-01 -1.61762E-01
    8999.116      5.171   1.760  8.93519E-01  9.86969E-01 -9.34501E-02
    8999.659      5.714   1.800  9.60726E-01  9.93984E-01 -3.32577E-02
    9000.214      6.269   1.840  1.02818E+00  1.00037E+00  2.78104E-02
    9000.781      6.836   1.880  1.11684E+00  1.00616E+00  1.10681E-01
    9001.360      7.415   1.920  1.22513E+00  1.01138E+00  2.13748E-01
    9001.951      8.006   1.960  1.32807E+00  1.01602E+00  3.12045E-01
    9002.555      8.609   2.000  1.41996E+00  1.02011E+00  3.99848E-01
    9003.170      9.225   2.040  1.50331E+00  1.02367E+00  4.79644E-01
    9003.798      9.853   2.080  1.55304E+00  1.02674E+00  5.26298E-01
    9004.438     10.493   2.120  1.55102E+00  1.02932E+00  5.21696E-01
    9005.090     11.145   2.160  1.52098E+00  1.03145E+00  4.89539E-01
    9005.755     11.810   2.200  1.48436E+00  1.03317E+00  4.51192E-01
    9006.432     12.487   2.240  1.43991E+00  1.03446E+00  4.05451E-01
    9007.120     13.175   2.280  1.38839E+00  1.03539E+00  3.52998E-01
    9007.821     13.876   2.320  1.34058E+00  1.03599E+00  3.04588E-01
    9008.535     14.590   2.360  1.29991E+00  1.03626E+00  2.63651E-01
    9009.260     15.315   2.400  1.26651E+00  1.03624E+00  2.30279E-01
    9009.998     16.053   2.440  1.24339E+00  1.03595E+00  2.07434E-01
    9010.747     16.802   2.480  1.22439E+00  1.03545E+00  1.88941E-01
    9011.509     17.564   2.520  1.19558E+00  1.03468E+00  1.60903E-01
    9012.284     18.339   2.560  1.15543E+00  1.03376E+00  1.21678E-01
    9013.070     19.125   2.600  1.11862E+00  1.03264E+00  8.59780E-02
    9013.869     19.924   2.640  1.09374E+00  1.03139E+00  6.23558E-02
    9014.679     20.734   2.680  1.07729E+00  1.03000E+00  4.72876E-02
    9015.502     21.557   2.720  1.06608E+00  1.02851E+00  3.75787E-02
    9016.337     22.392   2.760  1.05739E+00  1.02692E+00  3.04720E-02
    9017.185     23.240   2.800  1.04872E+00  1.02527E+00  2.34529E-02
    9018.044     24.099   2.840  1.03792E+00  1.02355E+00  1.43645E-02
    9018.916     24.971   2.880  1.02378E+00  1.02179E+00  1.98629E-03
    9019.800     25.855   2.920  1.00646E+00  1.01999E+00 -1.35308E-02
    9020.696     26.751   2.960  9.87607E-01  1.01821E+00 -3.06030E-02
    9021.604     27.659   3.000  9.69009E-01  1.01640E+00 -4.73951E-02
    9022.525     28.580   3.040  9.51795E-01  1.01462E+00 -6.28284E-02
    9023.458     29.513   3.080  9.36769E-01  1.01285E+00 -7.60834E-02
    9024.402     30.457   3.120  9.24380E-01  1.01112E+00 -8.67377E-02
    9025.360     31.415   3.160  9.14372E-01  1.00944E+00 -9.50724E-02
    9026.329     32.384   3.200  9.06013E-01  1.00779E+00 -1.01781E-01
    9027.310     33.365   3.240  8.98665E-01  1.00621E+00 -1.07548E-01
    9028.304     34.359   3.280  8.91768E-01  1.00470E+00 -1.12936E-01
    9029.310     35.365   3.320  8.85399E-01  1.00325E+00 -1.17850E-01
    9030.328     36.383   3.360  8.80167E-01  1.00187E+00 -1.21704E-01
    9031.358     37.413   3.400  8.76630E-01  1.00057E+00 -1.23942E-01
    9032.400     38.455   3.440  8.75170E-01  9.99356E-01 -1.24186E-01
    9033.455     39.510   3.480  8.75860E-01  9.98225E-01 -1.22365E-01
    9034.522     40.577   3.520  8.78629E-01  9.97201E-01 -1.18572E-01
    9035.601     41.656   3.560  8.82967E-01  9.96263E-01 -1.13296E-01
    9036.692     42.747   3.600  8.88491E-01  9.95413E-01 -1.06921E-01
    9037.795     43.850   3.640  8.94765E-01  9.94650E-01 -9.98855E-02
    9038.911     44.966   3.680  9.01228E-01  9.93999E-01 -9.27709E-02
    9040.039     46.094   3.720  9.07323E-01  9.93459E-01 -8.61360E-02
    9041.179     47.234   3.760  9.12732E-01  9.93009E-01 -8.02765E-02
    9042.331     48.386   3.800  9.17454E-01  9.92646E-01 -7.51922E-02
    9043.495     49.550   3.840  9.21725E-01  9.92373E-01 -7.06476E-02
    9044.672     50.727   3.880  9.26095E-01  9.92208E-01 -6.61134E-02
    9045.860     51.915   3.920  9.31295E-01  9.92154E-01 -6.08583E-02
    9047.061     53.116   3.960  9.38092E-01  9.92165E-01 -5.40739E-02
    9048.274     54.329   4.000  9.47279E-01  9.92283E-01 -4.50040E-02
    9049.500     55.555   4.040  9.59295E-01  9.92486E-01 -3.31907E-02
    9050.737     56.792   4.080  9.73884E-01  9.92773E-01 -1.88889E-02
    9051.987     58.042   4.120  9.89920E-01  9.93140E-01 -3.22083E-03
    9053.249     59.304   4.160  1.00591E+00  9.93590E-01  1.23166E-02
    9054.523     60.578   4.200  1.02051E+00  9.94119E-01  2.63871E-02
    9055.809     61.864   4.240  1.03292E+00  9.94725E-01  3.81935E-02
    9057.107     63.162   4.280  1.04308E+00  9.95386E-01  4.76955E-02
    9058.418     64.473   4.320  1.05142E+00  9.96141E-01  5.52835E-02
    9059.741     65.796   4.360  1.05843E+00  9.96924E-01  6.15105E-02
    9061.076     67.131   4.400  1.06472E+00  9.97775E-01  6.69430E-02
    9062.423     68.478   4.440  1.07071E+00  9.98671E-01  7.20425E-02
    9063.782     69.837   4.480  1.07663E+00  9.99612E-01  7.70192E-02
    9065.154     71.209   4.520  1.08241E+00  1.00062E+00  8.17950E-02
    9066.538     72.593   4.560  1.08784E+00  1.00164E+00  8.62035E-02
    9067.934     73.989   4.600  1.09269E+00  1.00269E+00  8.99991E-02
    9069.342     75.397   4.640  1.09674E+00  1.00375E+00  9.29918E-02
    9070.762     76.817   4.680  1.09991E+00  1.00485E+00  9.50589E-02
    9072.195     78.250   4.720  1.10200E+00  1.00597E+00  9.60282E-02
    9073.640     79.695   4.760  1.10254E+00  1.00708E+00  9.54652E-02
    9075.097     81.152   4.800  1.10088E+00  1.00821E+00  9.26691E-02
    9076.566     82.621   4.840  1.09612E+00  1.00934E+00  8.67810E-02
    9078.047     84.102   4.880  1.08763E+00  1.01044E+00  7.71949E-02
    9079.541     85.596   4.920  1.07556E+00  1.01156E+00  6.40013E-02
    9081.046     87.101   4.960  1.06077E+00  1.01262E+00  4.81505E-02
    9082.564     88.619   5.000  1.04497E+00  1.01370E+00  3.12731E-02
    9084.094     90.149   5.040  1.02986E+00  1.01472E+00  1.51470E-02
    9085.637     91.692   5.080  1.01682E+00  1.01572E+00  1.10119E-03
    9087.191     93.246   5.120  1.00653E+00  1.01668E+00 -1.01572E-02
    9088.758     94.813   5.160  9.99075E-01  1.01761E+00 -1.85322E-02
    9090.337     96.392   5.200  9.94119E-01  1.01848E+00 -2.43658E-02
    9091.928     97.983   5.240  9.91024E-01  1.01929E+00 -2.82713E-02
    9093.531     99.586   5.280  9.89213E-01  1.02008E+00 -3.08678E-02
    9095.146    101.201   5.320  9.88177E-01  1.02080E+00 -3.26178E-02
    9096.774    102.829   5.360  9.87537E-01  1.02144E+00 -3.38995E-02
    9098.414    104.469   5.400  9.86910E-01  1.02203E+00 -3.51165E-02
    9100.066    106.121   5.440  9.86037E-01  1.02256E+00 -3.65269E-02
    9101.730    107.785   5.480  9.84943E-01  1.02300E+00 -3.80596E-02
    9103.406    109.461   5.520  9.84147E-01  1.02339E+00 -3.92406E-02
    9105.095    111.150   5.560  9.84395E-01  1.02372E+00 -3.93237E-02
    9106.796    112.851   5.600  9.86472E-01  1.02395E+00 -3.74766E-02
    9108.509    114.564   5.640  9.90927E-01  1.02412E+00 -3.31955E-02
    9110.234    116.289   5.680  9.97607E-01  1.02422E+00 -2.66132E-02
    9111.971    118.026   5.720  1.00565E+00  1.02424E+00 -1.85938E-02
    9113.721    119.776   5.760  1.01377E+00  1.02420E+00 -1.04329E-02
    9115.482    121.537   5.800  1.02069E+00  1.02406E+00 -3.37936E-03
    9117.256    123.311   5.840  1.02571E+00  1.02387E+00  1.83658E-03
    9119.042    125.097   5.880  1.02857E+00  1.02361E+00  4.96754E-03
    9120.841    126.896   5.920  1.02910E+00  1.02326E+00  5.83361E-03
    9122.651    128.706   5.960  1.02688E+00  1.02286E+00  4.01813E-03
    9124.474    130.529   6.000  1.02110E+00  1.02233E+00 -1.22805E-03
