# # comment:                                                     FEFF 9.9.1  
# # Source:
# # Structure
# # Reduced
# # space
# # abc:
# # angles:119.808936
# # sites:
# # POT  SCF 100  7.0000   0, screened core-hole, AFOLP (folp(0)= 1.150)
# # Abs   Z=29 Rmt= 1.337 Rnm= 1.406 K  shell
# # Pot 1 Z= 3 Rmt= 1.270 Rnm= 1.328
# # Pot 2 Z=29 Rmt= 1.337 Rnm= 1.406
# # Pot 3 Z= 6 Rmt= 0.714 Rnm= 0.925
# # Pot 4 Z= 8 Rmt= 0.871 Rnm= 1.010
# # Gam_ch=1.729E+00 H-L exch Vi= 0.000E+00 Vr= 0.000E+00
# # Mu=-6.675E+00eV kf=2.524E+00 Vint=-1.830E+01eV Rs_int= 1.437
# FMS rfms= 9.0000
# # PATH  Rmax=-1.000,  Keep_limit= 0.00, Heap_limit 0.00  Pwcrit= 2.50%
#  S02=0.950  Temp=   0.00  Debye_temp=   0.00  Global_sig2= 0.00000
#  Energy zero shift, vr, vi    0.00000E+00   0.00000E+00
#  Curved wave amplitude ratio filter   4.000%
#     file         sig2 tot  cw amp ratio   deg  nlegs   reff  inp sig2
#     0/   0 paths used
#  xsedge+ 50, used to normalize mu           2.4738E-04
#  -----------------------------------------------------------------------
#  omega    e    k    mu    mu0     chi     @#
    8983.687    -10.485  -1.000  5.36526E-02  5.31552E-02  4.97412E-04
    8983.986    -10.186  -0.960  5.75555E-02  5.69990E-02  5.56455E-04
    8984.272     -9.900  -0.920  6.19055E-02  6.12714E-02  6.34030E-04
    8984.546     -9.626  -0.880  6.67718E-02  6.60359E-02  7.35959E-04
    8984.809     -9.363  -0.840  7.22359E-02  7.13663E-02  8.69590E-04
    8985.058     -9.113  -0.800  7.83926E-02  7.73485E-02  1.04408E-03
    8985.296     -8.876  -0.760  8.53517E-02  8.40810E-02  1.27065E-03
    8985.522     -8.650  -0.720  9.32381E-02  9.16753E-02  1.56282E-03
    8985.735     -8.437  -0.680  1.02191E-01  1.00254E-01  1.93642E-03
    8985.936     -8.236  -0.640  1.12357E-01  1.09948E-01  2.40932E-03
    8986.125     -8.047  -0.600  1.23884E-01  1.20883E-01  3.00074E-03
    8986.302     -7.870  -0.560  1.36899E-01  1.33170E-01  3.72977E-03
    8986.467     -7.705  -0.520  1.51486E-01  1.46873E-01  4.61297E-03
    8986.619     -7.553  -0.480  1.67639E-01  1.61978E-01  5.66100E-03
    8986.759     -7.413  -0.440  1.85228E-01  1.78353E-01  6.87448E-03
    8986.887     -7.285  -0.400  2.03951E-01  1.95712E-01  8.23985E-03
    8987.003     -7.169  -0.360  2.23329E-01  2.13602E-01  9.72651E-03
    8987.107     -7.065  -0.320  2.42727E-01  2.31440E-01  1.12866E-02
    8987.198     -6.974  -0.280  2.61434E-01  2.48576E-01  1.28579E-02
    8987.277     -6.895  -0.240  2.78757E-01  2.64386E-01  1.43707E-02
    8987.344     -6.827  -0.200  2.94107E-01  2.78351E-01  1.57560E-02
    8987.399     -6.773  -0.160  3.07046E-01  2.90091E-01  1.69543E-02
    8987.442     -6.730  -0.120  3.17287E-01  2.99367E-01  1.79199E-02
    8987.472     -6.699  -0.080  3.24664E-01  3.06046E-01  1.86182E-02
    8987.497     -6.675   0.000  3.30552E-01  3.11410E-01  1.91417E-02
    8987.552     -6.620   0.120  3.43577E-01  3.23512E-01  2.00651E-02
    8987.594     -6.578   0.160  3.53848E-01  3.32903E-01  2.09456E-02
    8987.649     -6.523   0.200  3.66990E-01  3.44870E-01  2.21203E-02
    8987.716     -6.456   0.240  3.82804E-01  3.59258E-01  2.35454E-02
    8987.796     -6.376   0.280  4.00822E-01  3.75745E-01  2.50770E-02
    8987.887     -6.285   0.320  4.20307E-01  3.93890E-01  2.64175E-02
    8987.991     -6.181   0.360  4.40186E-01  4.13148E-01  2.70381E-02
    8988.106     -6.065   0.400  4.59111E-01  4.32967E-01  2.61439E-02
    8988.234     -5.937   0.440  4.75556E-01  4.52780E-01  2.27755E-02
    8988.375     -5.797   0.480  4.88291E-01  4.72183E-01  1.61075E-02
    8988.527     -5.645   0.520  4.96824E-01  4.90942E-01  5.88215E-03
    8988.692     -5.480   0.560  5.01617E-01  5.08919E-01 -7.30156E-03
    8988.868     -5.303   0.600  5.04012E-01  5.26108E-01 -2.20956E-02
    8989.057     -5.115   0.640  5.05662E-01  5.42552E-01 -3.68900E-02
    8989.259     -4.913   0.680  5.08062E-01  5.58354E-01 -5.02914E-02
    8989.472     -4.700   0.720  5.12359E-01  5.73627E-01 -6.12681E-02
    8989.698     -4.474   0.760  5.19275E-01  5.88467E-01 -6.91912E-02
    8989.935     -4.237   0.800  5.28601E-01  6.02957E-01 -7.43563E-02
    8990.185     -3.987   0.840  5.38874E-01  6.17215E-01 -7.83409E-02
    8990.447     -3.725   0.880  5.48595E-01  6.31297E-01 -8.27028E-02
    8990.722     -3.450   0.920  5.58471E-01  6.45232E-01 -8.67612E-02
    8991.008     -3.164   0.960  5.71505E-01  6.59092E-01 -8.75862E-02
    8991.307     -2.865   1.000  5.90482E-01  6.72900E-01 -8.24176E-02
    8991.618     -2.554   1.040  6.15881E-01  6.86670E-01 -7.07896E-02
    8991.941     -2.231   1.080  6.44934E-01  7.00428E-01 -5.54944E-02
    8992.276     -1.896   1.120  6.71539E-01  7.14152E-01 -4.26127E-02
    8992.624     -1.548   1.160  6.91396E-01  7.27855E-01 -3.64588E-02
    8992.983     -1.189   1.200  7.08845E-01  7.41526E-01 -3.26806E-02
    8993.355     -0.817   1.240  7.31426E-01  7.55166E-01 -2.37409E-02
    8993.739     -0.433   1.280  7.59322E-01  7.68717E-01 -9.39481E-03
    8994.135     -0.037   1.320  7.88863E-01  7.82196E-01  6.66666E-03
    8994.544      0.372   1.360  8.21508E-01  7.95578E-01  2.59299E-02
    8994.964      0.792   1.400  8.60504E-01  8.08835E-01  5.16685E-02
    8995.397      1.225   1.440  9.04973E-01  8.21918E-01  8.30548E-02
    8995.842      1.670   1.480  9.50375E-01  8.34818E-01  1.15557E-01
    8996.299      2.128   1.520  9.92803E-01  8.47525E-01  1.45278E-01
    8996.769      2.597   1.560  1.02903E+00  8.59965E-01  1.69060E-01
    8997.250      3.078   1.600  1.04947E+00  8.72149E-01  1.77324E-01
    8997.744      3.572   1.640  1.04749E+00  8.84023E-01  1.63468E-01
    8998.250      4.078   1.680  1.02961E+00  8.95596E-01  1.34012E-01
    8998.768      4.596   1.720  1.01131E+00  9.06796E-01  1.04516E-01
    8999.299      5.127   1.760  1.00792E+00  9.17632E-01  9.02846E-02
    8999.841      5.669   1.800  1.01671E+00  9.28053E-01  8.86532E-02
    9000.396      6.224   1.840  1.02001E+00  9.38050E-01  8.19607E-02
    9000.963      6.791   1.880  1.01311E+00  9.47616E-01  6.54991E-02
    9001.542      7.370   1.920  1.00685E+00  9.56741E-01  5.01049E-02
    9002.133      7.961   1.960  1.00859E+00  9.65358E-01  4.32346E-02
    9002.737      8.565   2.000  1.01884E+00  9.73523E-01  4.53137E-02
    9003.353      9.181   2.040  1.03654E+00  9.81171E-01  5.53718E-02
    9003.980      9.808   2.080  1.06085E+00  9.88318E-01  7.25289E-02
    9004.620     10.449   2.120  1.08994E+00  9.94963E-01  9.49814E-02
    9005.273     11.101   2.160  1.12131E+00  1.00111E+00  1.20201E-01
    9005.937     11.765   2.200  1.15403E+00  1.00673E+00  1.47303E-01
    9006.614     12.442   2.240  1.18504E+00  1.01185E+00  1.73195E-01
    9007.303     13.131   2.280  1.20520E+00  1.01648E+00  1.88720E-01
    9008.004     13.832   2.320  1.20769E+00  1.02061E+00  1.87077E-01
    9008.717     14.545   2.360  1.19544E+00  1.02426E+00  1.71182E-01
    9009.442     15.270   2.400  1.17287E+00  1.02744E+00  1.45432E-01
    9010.180     16.008   2.440  1.13922E+00  1.03018E+00  1.09045E-01
    9010.930     16.758   2.480  1.09543E+00  1.03247E+00  6.29620E-02
    9011.692     17.520   2.520  1.04910E+00  1.03434E+00  1.47676E-02
    9012.466     18.294   2.560  1.00977E+00  1.03580E+00 -2.60318E-02
    9013.252     19.080   2.600  9.81300E-01  1.03687E+00 -5.55705E-02
    9014.051     19.879   2.640  9.60949E-01  1.03759E+00 -7.66430E-02
    9014.862     20.690   2.680  9.45922E-01  1.03796E+00 -9.20360E-02
    9015.685     21.513   2.720  9.36224E-01  1.03802E+00 -1.01795E-01
    9016.520     22.348   2.760  9.31459E-01  1.03777E+00 -1.06307E-01
    9017.367     23.195   2.800  9.29764E-01  1.03723E+00 -1.07466E-01
    9018.227     24.055   2.840  9.29018E-01  1.03644E+00 -1.07425E-01
    9019.098     24.926   2.880  9.27351E-01  1.03544E+00 -1.08088E-01
    9019.982     25.810   2.920  9.26541E-01  1.03420E+00 -1.07663E-01
    9020.878     26.706   2.960  9.27232E-01  1.03279E+00 -1.05558E-01
    9021.787     27.615   3.000  9.29411E-01  1.03119E+00 -1.01779E-01
    9022.707     28.535   3.040  9.33047E-01  1.02945E+00 -9.64071E-02
    9023.640     29.468   3.080  9.38310E-01  1.02759E+00 -8.92852E-02
    9024.585     30.413   3.120  9.45403E-01  1.02564E+00 -8.02372E-02
    9025.542     31.370   3.160  9.54157E-01  1.02358E+00 -6.94186E-02
    9026.511     32.339   3.200  9.63873E-01  1.02143E+00 -5.75615E-02
    9027.493     33.321   3.240  9.73795E-01  1.01927E+00 -4.54724E-02
    9028.486     34.314   3.280  9.83353E-01  1.01704E+00 -3.36867E-02
    9029.492     35.320   3.320  9.92237E-01  1.01480E+00 -2.25612E-02
    9030.510     36.338   3.360  1.00019E+00  1.01255E+00 -1.23637E-02
    9031.540     37.368   3.400  1.00694E+00  1.01031E+00 -3.37131E-03
    9032.583     38.411   3.440  1.01211E+00  1.00810E+00  4.01364E-03
    9033.637     39.465   3.480  1.01544E+00  1.00590E+00  9.53487E-03
    9034.704     40.532   3.520  1.01712E+00  1.00377E+00  1.33526E-02
    9035.783     41.611   3.560  1.01766E+00  1.00168E+00  1.59812E-02
    9036.874     42.702   3.600  1.01782E+00  9.99636E-01  1.81865E-02
    9037.978     43.806   3.640  1.01838E+00  9.97693E-01  2.06886E-02
    9039.093     44.921   3.680  1.01968E+00  9.95809E-01  2.38663E-02
    9040.221     46.049   3.720  1.02166E+00  9.94029E-01  2.76318E-02
    9041.361     47.189   3.760  1.02393E+00  9.92336E-01  3.15948E-02
    9042.513     48.341   3.800  1.02599E+00  9.90731E-01  3.52608E-02
    9043.677     49.505   3.840  1.02742E+00  9.89258E-01  3.81664E-02
    9044.854     50.682   3.880  1.02784E+00  9.87859E-01  3.99808E-02
    9046.043     51.871   3.920  1.02711E+00  9.86596E-01  4.05159E-02
    9047.244     53.072   3.960  1.02514E+00  9.85430E-01  3.97083E-02
    9048.457     54.285   4.000  1.02196E+00  9.84403E-01  3.75527E-02
    9049.682     55.510   4.040  1.01759E+00  9.83474E-01  3.41137E-02
    9050.919     56.747   4.080  1.01213E+00  9.82665E-01  2.94665E-02
    9052.169     57.997   4.120  1.00580E+00  9.81997E-01  2.37998E-02
    9053.431     59.259   4.160  9.98961E-01  9.81427E-01  1.75342E-02
    9054.705     60.533   4.200  9.92287E-01  9.80975E-01  1.13126E-02
    9055.991     61.819   4.240  9.86474E-01  9.80640E-01  5.83414E-03
    9057.290     63.118   4.280  9.82120E-01  9.80423E-01  1.69624E-03
    9058.600     64.428   4.320  9.79545E-01  9.80302E-01 -7.56359E-04
    9059.923     65.751   4.360  9.78833E-01  9.80317E-01 -1.48383E-03
    9061.258     67.086   4.400  9.79735E-01  9.80424E-01 -6.89304E-04
    9062.605     68.433   4.440  9.81908E-01  9.80619E-01  1.28884E-03
    9063.965     69.793   4.480  9.84953E-01  9.80924E-01  4.02888E-03
    9065.336     71.164   4.520  9.88373E-01  9.81316E-01  7.05632E-03
    9066.720     72.548   4.560  9.91693E-01  9.81813E-01  9.88080E-03
    9068.116     73.944   4.600  9.94401E-01  9.82368E-01  1.20333E-02
    9069.524     75.352   4.640  9.96125E-01  9.83000E-01  1.31242E-02
    9070.945     76.773   4.680  9.96630E-01  9.83710E-01  1.29197E-02
    9072.377     78.205   4.720  9.95831E-01  9.84492E-01  1.13386E-02
    9073.822     79.650   4.760  9.93774E-01  9.85322E-01  8.45231E-03
    9075.279     81.107   4.800  9.90688E-01  9.86197E-01  4.49098E-03
    9076.748     82.576   4.840  9.86932E-01  9.87135E-01 -2.03337E-04
    9078.229     84.057   4.880  9.82877E-01  9.88088E-01 -5.21176E-03
    9079.723     85.551   4.920  9.79003E-01  9.89074E-01 -1.00714E-02
    9081.229     87.057   4.960  9.75734E-01  9.90070E-01 -1.43363E-02
    9082.746     88.575   5.000  9.73476E-01  9.91094E-01 -1.76187E-02
    9084.277     90.105   5.040  9.72448E-01  9.92122E-01 -1.96741E-02
    9085.819     91.647   5.080  9.72720E-01  9.93148E-01 -2.04280E-02
    9087.373     93.201   5.120  9.74221E-01  9.94170E-01 -1.99485E-02
    9088.940     94.768   5.160  9.76712E-01  9.95162E-01 -1.84504E-02
    9090.519     96.347   5.200  9.79852E-01  9.96143E-01 -1.62904E-02
    9092.110     97.938   5.240  9.83137E-01  9.97087E-01 -1.39507E-02
    9093.713     99.541   5.280  9.86050E-01  9.97992E-01 -1.19427E-02
    9095.329    101.157   5.320  9.88184E-01  9.98853E-01 -1.06692E-02
    9096.956    102.784   5.360  9.89329E-01  9.99648E-01 -1.03185E-02
    9098.596    104.424   5.400  9.89604E-01  1.00042E+00 -1.08122E-02
    9100.248    106.076   5.440  9.89267E-01  1.00109E+00 -1.18253E-02
    9101.912    107.740   5.480  9.88863E-01  1.00174E+00 -1.28755E-02
    9103.589    109.417   5.520  9.88789E-01  1.00229E+00 -1.34993E-02
    9105.277    111.105   5.560  9.89348E-01  1.00278E+00 -1.34320E-02
    9106.978    112.806   5.600  9.90526E-01  1.00319E+00 -1.26688E-02
    9108.691    114.519   5.640  9.92128E-01  1.00351E+00 -1.13772E-02
    9110.416    116.244   5.680  9.94005E-01  1.00376E+00 -9.75161E-03
    9112.153    117.982   5.720  9.96002E-01  1.00393E+00 -7.92375E-03
    9113.903    119.731   5.760  9.98051E-01  1.00399E+00 -5.93896E-03
    9115.665    121.493   5.800  1.00021E+00  1.00397E+00 -3.76385E-03
    9117.439    123.267   5.840  1.00254E+00  1.00387E+00 -1.32770E-03
    9119.225    125.053   5.880  1.00510E+00  1.00369E+00  1.40730E-03
    9121.023    126.851   5.920  1.00778E+00  1.00343E+00  4.35581E-03
    9122.834    128.662   5.960  1.01037E+00  1.00308E+00  7.28945E-03
    9124.656    130.484   6.000  1.01248E+00  1.00259E+00  9.89601E-03
