# # comment:                                                     FEFF 9.9.1  
# # Source:
# # Structure
# # Reduced
# # space
# # abc:
# # angles:
# # sites:
# # POT  SCF 100  7.0000   0, screened core-hole, AFOLP (folp(0)= 1.150)
# # Abs   Z=29 Rmt= 1.172 Rnm= 1.305 K  shell
# # Pot 1 Z=29 Rmt= 1.169 Rnm= 1.303
# # Pot 2 Z=50 Rmt= 1.382 Rnm= 1.532
# # Pot 3 Z= 8 Rmt= 0.948 Rnm= 1.111
# # Gam_ch=1.729E+00 H-L exch Vi= 0.000E+00 Vr= 0.000E+00
# # Mu=-8.619E+00eV kf=2.126E+00 Vint=-1.380E+01eV Rs_int= 1.706
# FMS rfms= 9.0000
# # PATH  Rmax=-1.000,  Keep_limit= 0.00, Heap_limit 0.00  Pwcrit= 2.50%
#  S02=0.950  Temp=   0.00  Debye_temp=   0.00  Global_sig2= 0.00000
#  Energy zero shift, vr, vi    0.00000E+00   0.00000E+00
#  Curved wave amplitude ratio filter   4.000%
#     file         sig2 tot  cw amp ratio   deg  nlegs   reff  inp sig2
#     0/   0 paths used
#  xsedge+ 50, used to normalize mu           2.4309E-04
#  -----------------------------------------------------------------------
#  omega    e    k    mu    mu0     chi     @#
    8983.336    -12.429  -1.000  2.90819E-02  4.89945E-02 -1.99126E-02
    8983.635    -12.130  -0.960  3.02988E-02  5.22645E-02 -2.19657E-02
    8983.921    -11.844  -0.920  3.15988E-02  5.58672E-02 -2.42684E-02
    8984.195    -11.569  -0.880  3.29932E-02  5.98483E-02 -2.68551E-02
    8984.458    -11.307  -0.840  3.44955E-02  6.42605E-02 -2.97650E-02
    8984.707    -11.057  -0.800  3.61220E-02  6.91649E-02 -3.30429E-02
    8984.945    -10.820  -0.760  3.78915E-02  7.46306E-02 -3.67391E-02
    8985.171    -10.594  -0.720  3.98261E-02  8.07355E-02 -4.09094E-02
    8985.384    -10.381  -0.680  4.19502E-02  8.75645E-02 -4.56142E-02
    8985.585    -10.180  -0.640  4.42907E-02  9.52066E-02 -5.09158E-02
    8985.774     -9.991  -0.600  4.68743E-02  1.03748E-01 -5.68738E-02
    8985.951     -9.814  -0.560  4.97245E-02  1.13261E-01 -6.35370E-02
    8986.116     -9.649  -0.520  5.28564E-02  1.23787E-01 -7.09307E-02
    8986.268     -9.497  -0.480  5.62697E-02  1.35310E-01 -7.90401E-02
    8986.408     -9.357  -0.440  5.99393E-02  1.47730E-01 -8.77907E-02
    8986.536     -9.229  -0.400  6.38085E-02  1.60841E-01 -9.70321E-02
    8986.652     -9.113  -0.360  6.77856E-02  1.74319E-01 -1.06534E-01
    8986.756     -9.009  -0.320  7.17488E-02  1.87747E-01 -1.15998E-01
    8986.847     -8.918  -0.280  7.55602E-02  2.00656E-01 -1.25096E-01
    8986.926     -8.838  -0.240  7.90847E-02  2.12593E-01 -1.33509E-01
    8986.993     -8.771  -0.200  8.22068E-02  2.23171E-01 -1.40964E-01
    8987.048     -8.716  -0.160  8.48407E-02  2.32097E-01 -1.47256E-01
    8987.091     -8.674  -0.120  8.69322E-02  2.39176E-01 -1.52244E-01
    8987.121     -8.643  -0.080  8.84544E-02  2.44291E-01 -1.55837E-01
    8987.146     -8.619   0.000  8.97297E-02  2.48414E-01 -1.58684E-01
    8987.201     -8.564   0.120  9.26699E-02  2.57732E-01 -1.65062E-01
    8987.243     -8.521   0.160  9.48072E-02  2.65013E-01 -1.70205E-01
    8987.298     -8.467   0.200  9.74353E-02  2.74365E-01 -1.76930E-01
    8987.365     -8.400   0.240  1.00445E-01  2.85713E-01 -1.85268E-01
    8987.445     -8.320   0.280  1.03660E-01  2.98899E-01 -1.95239E-01
    8987.536     -8.229   0.320  1.06826E-01  3.13682E-01 -2.06856E-01
    8987.640     -8.125   0.360  1.09613E-01  3.29751E-01 -2.20139E-01
    8987.755     -8.009   0.400  1.11643E-01  3.46762E-01 -2.35119E-01
    8987.883     -7.881   0.440  1.12599E-01  3.64416E-01 -2.51816E-01
    8988.024     -7.741   0.480  1.12310E-01  3.82431E-01 -2.70121E-01
    8988.176     -7.589   0.520  1.11011E-01  4.00695E-01 -2.89684E-01
    8988.341     -7.424   0.560  1.09164E-01  4.19097E-01 -3.09933E-01
    8988.517     -7.247   0.600  1.07449E-01  4.37629E-01 -3.30180E-01
    8988.706     -7.058   0.640  1.06612E-01  4.56322E-01 -3.49710E-01
    8988.908     -6.857   0.680  1.07151E-01  4.75188E-01 -3.68037E-01
    8989.121     -6.644   0.720  1.09427E-01  4.94283E-01 -3.84857E-01
    8989.347     -6.418   0.760  1.13459E-01  5.13619E-01 -4.00160E-01
    8989.584     -6.181   0.800  1.18990E-01  5.33219E-01 -4.14229E-01
    8989.834     -5.931   0.840  1.25541E-01  5.53117E-01 -4.27576E-01
    8990.096     -5.669   0.880  1.32771E-01  5.73273E-01 -4.40502E-01
    8990.371     -5.394   0.920  1.40927E-01  5.93657E-01 -4.52731E-01
    8990.657     -5.108   0.960  1.50411E-01  6.14271E-01 -4.63860E-01
    8990.956     -4.809   1.000  1.61116E-01  6.35044E-01 -4.73928E-01
    8991.267     -4.498   1.040  1.72719E-01  6.55900E-01 -4.83181E-01
    8991.590     -4.175   1.080  1.85410E-01  6.76820E-01 -4.91410E-01
    8991.925     -3.840   1.120  1.99860E-01  6.97693E-01 -4.97834E-01
    8992.273     -3.492   1.160  2.16790E-01  7.18471E-01 -5.01681E-01
    8992.632     -3.133   1.200  2.36016E-01  7.39080E-01 -5.03064E-01
    8993.004     -2.761   1.240  2.56580E-01  7.59403E-01 -5.02824E-01
    8993.388     -2.377   1.280  2.79328E-01  7.79407E-01 -5.00079E-01
    8993.784     -1.980   1.320  3.06961E-01  7.98994E-01 -4.92033E-01
    8994.193     -1.572   1.360  3.39618E-01  8.18068E-01 -4.78450E-01
    8994.613     -1.151   1.400  3.73755E-01  8.36598E-01 -4.62843E-01
    8995.046     -0.719   1.440  4.10575E-01  8.54513E-01 -4.43938E-01
    8995.491     -0.274   1.480  4.59874E-01  8.71744E-01 -4.11870E-01
    8995.948      0.184   1.520  5.30396E-01  8.88226E-01 -3.57829E-01
    8996.418      0.653   1.560  6.28574E-01  9.03936E-01 -2.75362E-01
    8996.899      1.135   1.600  7.64755E-01  9.18818E-01 -1.54063E-01
    8997.393      1.628   1.640  9.44161E-01  9.32857E-01  1.13040E-02
    8997.899      2.134   1.680  1.14177E+00  9.46044E-01  1.95727E-01
    8998.417      2.652   1.720  1.31286E+00  9.58331E-01  3.54525E-01
    8998.948      3.183   1.760  1.42254E+00  9.69758E-01  4.52785E-01
    8999.490      3.725   1.800  1.42245E+00  9.80263E-01  4.42186E-01
    9000.045      4.280   1.840  1.32373E+00  9.89911E-01  3.33817E-01
    9000.612      4.847   1.880  1.22292E+00  9.98690E-01  2.24227E-01
    9001.191      5.426   1.920  1.17165E+00  1.00661E+00  1.65041E-01
    9001.782      6.017   1.960  1.16654E+00  1.01372E+00  1.52820E-01
    9002.386      6.621   2.000  1.18928E+00  1.02002E+00  1.69258E-01
    9003.001      7.237   2.040  1.22142E+00  1.02556E+00  1.95858E-01
    9003.629      7.865   2.080  1.26080E+00  1.03039E+00  2.30413E-01
    9004.269      8.505   2.120  1.31821E+00  1.03449E+00  2.83724E-01
    9004.922      9.157   2.160  1.37740E+00  1.03795E+00  3.39454E-01
    9005.586      9.821   2.200  1.39220E+00  1.04077E+00  3.51428E-01
    9006.263     10.498   2.240  1.34684E+00  1.04303E+00  3.03813E-01
    9006.952     11.187   2.280  1.27221E+00  1.04475E+00  2.27460E-01
    9007.653     11.888   2.320  1.20368E+00  1.04595E+00  1.57730E-01
    9008.366     12.601   2.360  1.14662E+00  1.04669E+00  9.99295E-02
    9009.091     13.327   2.400  1.09565E+00  1.04704E+00  4.86180E-02
    9009.829     14.064   2.440  1.06033E+00  1.04698E+00  1.33509E-02
    9010.579     14.814   2.480  1.05429E+00  1.04656E+00  7.72315E-03
    9011.341     15.576   2.520  1.07669E+00  1.04584E+00  3.08478E-02
    9012.115     16.350   2.560  1.10241E+00  1.04486E+00  5.75551E-02
    9012.901     17.137   2.600  1.10279E+00  1.04361E+00  5.91805E-02
    9013.700     17.935   2.640  1.08710E+00  1.04214E+00  4.49593E-02
    9014.511     18.746   2.680  1.06727E+00  1.04050E+00  2.67746E-02
    9015.334     19.569   2.720  1.04848E+00  1.03869E+00  9.78437E-03
    9016.169     20.404   2.760  1.03048E+00  1.03673E+00 -6.24758E-03
    9017.016     21.251   2.800  1.01104E+00  1.03468E+00 -2.36387E-02
    9017.876     22.111   2.840  9.88960E-01  1.03254E+00 -4.35785E-02
    9018.747     22.983   2.880  9.65169E-01  1.03034E+00 -6.51756E-02
    9019.631     23.866   2.920  9.42033E-01  1.02809E+00 -8.60531E-02
    9020.527     24.763   2.960  9.22221E-01  1.02581E+00 -1.03590E-01
    9021.436     25.671   3.000  9.07823E-01  1.02351E+00 -1.15685E-01
    9022.356     26.591   3.040  9.00358E-01  1.02123E+00 -1.20869E-01
    9023.289     27.524   3.080  9.00423E-01  1.01895E+00 -1.18530E-01
    9024.234     28.469   3.120  9.06719E-01  1.01672E+00 -1.09997E-01
    9025.191     29.426   3.160  9.17543E-01  1.01452E+00 -9.69773E-02
    9026.160     30.395   3.200  9.31223E-01  1.01237E+00 -8.11460E-02
    9027.142     31.377   3.240  9.46493E-01  1.01029E+00 -6.37965E-02
    9028.135     32.370   3.280  9.62374E-01  1.00829E+00 -4.59135E-02
    9029.141     33.376   3.320  9.77996E-01  1.00634E+00 -2.83478E-02
    9030.159     34.394   3.360  9.92478E-01  1.00450E+00 -1.20251E-02
    9031.189     35.424   3.400  1.00483E+00  1.00275E+00  2.07795E-03
    9032.232     36.467   3.440  1.01445E+00  1.00109E+00  1.33658E-02
    9033.286     37.521   3.480  1.02097E+00  9.99533E-01  2.14388E-02
    9034.353     38.588   3.520  1.02435E+00  9.98095E-01  2.62563E-02
    9035.432     39.667   3.560  1.02503E+00  9.96752E-01  2.82752E-02
    9036.523     40.758   3.600  1.02398E+00  9.95524E-01  2.84511E-02
    9037.627     41.862   3.640  1.02225E+00  9.94392E-01  2.78596E-02
    9038.742     42.977   3.680  1.02076E+00  9.93398E-01  2.73660E-02
    9039.870     44.105   3.720  1.01992E+00  9.92503E-01  2.74194E-02
    9041.010     45.245   3.760  1.01964E+00  9.91726E-01  2.79150E-02
    9042.162     46.397   3.800  1.01917E+00  9.91067E-01  2.81039E-02
    9043.326     47.562   3.840  1.01741E+00  9.90506E-01  2.69054E-02
    9044.503     48.738   3.880  1.01341E+00  9.90084E-01  2.33284E-02
    9045.692     49.927   3.920  1.00672E+00  9.89758E-01  1.69618E-02
    9046.892     51.128   3.960  9.97776E-01  9.89548E-01  8.22819E-03
    9048.106     52.341   4.000  9.87650E-01  9.89434E-01 -1.78441E-03
    9049.331     53.566   4.040  9.77604E-01  9.89455E-01 -1.18506E-02
    9050.568     54.804   4.080  9.68556E-01  9.89546E-01 -2.09901E-02
    9051.818     56.053   4.120  9.61124E-01  9.89748E-01 -2.86239E-02
    9053.080     57.315   4.160  9.55514E-01  9.90062E-01 -3.45478E-02
    9054.354     58.589   4.200  9.51831E-01  9.90463E-01 -3.86321E-02
    9055.640     59.875   4.240  9.50410E-01  9.90948E-01 -4.05373E-02
    9056.939     61.174   4.280  9.51580E-01  9.91513E-01 -3.99330E-02
    9058.249     62.484   4.320  9.55257E-01  9.92136E-01 -3.68792E-02
    9059.572     63.807   4.360  9.60824E-01  9.92861E-01 -3.20372E-02
    9060.907     65.142   4.400  9.67183E-01  9.93662E-01 -2.64790E-02
    9062.254     66.490   4.440  9.73338E-01  9.94515E-01 -2.11762E-02
    9063.614     67.849   4.480  9.78764E-01  9.95416E-01 -1.66517E-02
    9064.985     69.221   4.520  9.83397E-01  9.96385E-01 -1.29874E-02
    9066.369     70.604   4.560  9.87449E-01  9.97399E-01 -9.94963E-03
    9067.765     72.000   4.600  9.91281E-01  9.98456E-01 -7.17481E-03
    9069.173     73.408   4.640  9.95147E-01  9.99551E-01 -4.40442E-03
    9070.594     74.829   4.680  9.99142E-01  1.00068E+00 -1.54124E-03
    9072.026     76.261   4.720  1.00320E+00  1.00185E+00  1.34740E-03
    9073.471     77.706   4.760  1.00700E+00  1.00300E+00  3.99944E-03
    9074.928     79.163   4.800  1.01029E+00  1.00420E+00  6.09390E-03
    9076.397     80.632   4.840  1.01293E+00  1.00538E+00  7.55221E-03
    9077.878     82.114   4.880  1.01531E+00  1.00656E+00  8.74845E-03
    9079.372     83.607   4.920  1.01814E+00  1.00776E+00  1.03737E-02
    9080.878     85.113   4.960  1.02188E+00  1.00894E+00  1.29386E-02
    9082.395     86.631   5.000  1.02651E+00  1.01010E+00  1.64039E-02
    9083.926     88.161   5.040  1.03148E+00  1.01123E+00  2.02509E-02
    9085.468     89.703   5.080  1.03616E+00  1.01233E+00  2.38271E-02
    9087.022     91.257   5.120  1.04006E+00  1.01341E+00  2.66524E-02
    9088.589     92.824   5.160  1.04291E+00  1.01445E+00  2.84577E-02
    9090.168     94.403   5.200  1.04454E+00  1.01543E+00  2.91170E-02
    9091.759     95.994   5.240  1.04508E+00  1.01638E+00  2.87038E-02
    9093.362     97.597   5.280  1.04487E+00  1.01727E+00  2.76073E-02
    9094.978     99.213   5.320  1.04467E+00  1.01810E+00  2.65659E-02
    9096.605    100.840   5.360  1.04523E+00  1.01889E+00  2.63344E-02
    9098.245    102.480   5.400  1.04685E+00  1.01961E+00  2.72406E-02
    9099.897    104.132   5.440  1.04909E+00  1.02025E+00  2.88460E-02
    9101.561    105.796   5.480  1.05091E+00  1.02083E+00  3.00773E-02
    9103.238    107.473   5.520  1.05114E+00  1.02134E+00  2.98064E-02
    9104.926    109.161   5.560  1.04931E+00  1.02176E+00  2.75468E-02
    9106.627    110.862   5.600  1.04573E+00  1.02211E+00  2.36210E-02
    9108.340    112.575   5.640  1.04117E+00  1.02238E+00  1.87956E-02
    9110.065    114.300   5.680  1.03635E+00  1.02259E+00  1.37599E-02
    9111.802    116.038   5.720  1.03164E+00  1.02269E+00  8.94879E-03
    9113.552    117.787   5.760  1.02742E+00  1.02274E+00  4.67156E-03
    9115.314    119.549   5.800  1.02400E+00  1.02272E+00  1.28854E-03
    9117.088    121.323   5.840  1.02174E+00  1.02258E+00 -8.43174E-04
    9118.874    123.109   5.880  1.02078E+00  1.02239E+00 -1.61300E-03
    9120.672    124.907   5.920  1.02079E+00  1.02213E+00 -1.33579E-03
    9122.483    126.718   5.960  1.02112E+00  1.02180E+00 -6.81247E-04
    9124.305    128.540   6.000  1.02078E+00  1.02131E+00 -5.28476E-04
