# # comment:                                                     FEFF 9.9.1  
# # Source:
# # Structure
# # Reduced
# # space
# # abc:
# # angles:
# # sites:
# # POT  SCF 100  7.0000   0, screened core-hole, AFOLP (folp(0)= 1.150)
# # Abs   Z=29 Rmt= 1.259 Rnm= 1.320 K  shell
# # Pot 1 Z=60 Rmt= 1.682 Rnm= 1.760
# # Pot 2 Z=22 Rmt= 1.270 Rnm= 1.392
# # Pot 3 Z=29 Rmt= 1.259 Rnm= 1.320
# # Pot 4 Z= 8 Rmt= 1.040 Rnm= 1.100
# # Gam_ch=1.729E+00 H-L exch Vi= 0.000E+00 Vr= 0.000E+00
# # Mu=-8.800E+00eV kf=2.081E+00 Vint=-1.919E+01eV Rs_int= 1.743
# FMS rfms= 9.0000
# # PATH  Rmax=-1.000,  Keep_limit= 0.00, Heap_limit 0.00  Pwcrit= 2.50%
#  S02=0.950  Temp=   0.00  Debye_temp=   0.00  Global_sig2= 0.00000
#  Energy zero shift, vr, vi    0.00000E+00   0.00000E+00
#  Curved wave amplitude ratio filter   4.000%
#     file         sig2 tot  cw amp ratio   deg  nlegs   reff  inp sig2
#     0/   0 paths used
#  xsedge+ 50, used to normalize mu           2.4787E-04
#  -----------------------------------------------------------------------
#  omega    e    k    mu    mu0     chi     @#
    8984.884    -12.610  -1.000  4.07054E-02  5.42524E-02 -1.35471E-02
    8985.183    -12.312  -0.960  4.28367E-02  5.82312E-02 -1.53945E-02
    8985.469    -12.025  -0.920  4.51265E-02  6.26573E-02 -1.75308E-02
    8985.744    -11.751  -0.880  4.75924E-02  6.75972E-02 -2.00048E-02
    8986.006    -11.489  -0.840  5.02547E-02  7.31284E-02 -2.28737E-02
    8986.256    -11.239  -0.800  5.31362E-02  7.93407E-02 -2.62044E-02
    8986.494    -11.001  -0.760  5.62634E-02  8.63372E-02 -3.00738E-02
    8986.719    -10.775  -0.720  5.96654E-02  9.42346E-02 -3.45692E-02
    8986.932    -10.562  -0.680  6.33740E-02  1.03162E-01 -3.97876E-02
    8987.134    -10.361  -0.640  6.74220E-02  1.13254E-01 -4.58319E-02
    8987.323    -10.172  -0.600  7.18407E-02  1.24646E-01 -5.28048E-02
    8987.499     -9.995  -0.560  7.66548E-02  1.37450E-01 -6.07957E-02
    8987.664     -9.831  -0.520  8.18750E-02  1.51737E-01 -6.98623E-02
    8987.816     -9.678  -0.480  8.74878E-02  1.67492E-01 -8.00042E-02
    8987.957     -9.538  -0.440  9.34434E-02  1.84576E-01 -9.11323E-02
    8988.085     -9.410  -0.400  9.96462E-02  2.02689E-01 -1.03043E-01
    8988.200     -9.294  -0.360  1.05951E-01  2.21362E-01 -1.15411E-01
    8988.304     -9.191  -0.320  1.12174E-01  2.39982E-01 -1.27809E-01
    8988.395     -9.099  -0.280  1.18109E-01  2.57872E-01 -1.39763E-01
    8988.475     -9.020  -0.240  1.23562E-01  2.74380E-01 -1.50818E-01
    8988.542     -8.953  -0.200  1.28368E-01  2.88961E-01 -1.60593E-01
    8988.597     -8.898  -0.160  1.32409E-01  3.01221E-01 -1.68812E-01
    8988.639     -8.855  -0.120  1.35609E-01  3.10907E-01 -1.75298E-01
    8988.670     -8.825  -0.080  1.37925E-01  3.17882E-01 -1.79956E-01
    8988.694     -8.800   0.000  1.39810E-01  3.23483E-01 -1.83674E-01
    8988.749     -8.746   0.120  1.43902E-01  3.36102E-01 -1.92201E-01
    8988.792     -8.703   0.160  1.47095E-01  3.45916E-01 -1.98820E-01
    8988.847     -8.648   0.200  1.51131E-01  3.58398E-01 -2.07267E-01
    8988.914     -8.581   0.240  1.56053E-01  3.73430E-01 -2.17377E-01
    8988.993     -8.502   0.280  1.61761E-01  3.90635E-01 -2.28874E-01
    8989.084     -8.410   0.320  1.68262E-01  4.09595E-01 -2.41333E-01
    8989.188     -8.307   0.360  1.75529E-01  4.29704E-01 -2.54175E-01
    8989.304     -8.191   0.400  1.83694E-01  4.50379E-01 -2.66686E-01
    8989.432     -8.063   0.440  1.92885E-01  4.71032E-01 -2.78148E-01
    8989.572     -7.923   0.480  2.03317E-01  4.91280E-01 -2.87964E-01
    8989.724     -7.770   0.520  2.14966E-01  5.10815E-01 -2.95849E-01
    8989.889     -7.606   0.560  2.27602E-01  5.29492E-01 -3.01890E-01
    8990.066     -7.429   0.600  2.40865E-01  5.47321E-01 -3.06457E-01
    8990.255     -7.240   0.640  2.54254E-01  5.64346E-01 -3.10092E-01
    8990.456     -7.039   0.680  2.67474E-01  5.80648E-01 -3.13174E-01
    8990.669     -6.825   0.720  2.80758E-01  5.96344E-01 -3.15586E-01
    8990.895     -6.600   0.760  2.95072E-01  6.11529E-01 -3.16457E-01
    8991.133     -6.362   0.800  3.11445E-01  6.26291E-01 -3.14846E-01
    8991.383     -6.112   0.840  3.30112E-01  6.40722E-01 -3.10611E-01
    8991.645     -5.850   0.880  3.50149E-01  6.54882E-01 -3.04734E-01
    8991.919     -5.576   0.920  3.69804E-01  6.68816E-01 -2.99013E-01
    8992.205     -5.289   0.960  3.86504E-01  6.82557E-01 -2.96054E-01
    8992.504     -4.990   1.000  3.97522E-01  6.96147E-01 -2.98626E-01
    8992.815     -4.680   1.040  4.02915E-01  7.09577E-01 -3.06662E-01
    8993.138     -4.356   1.080  4.08272E-01  7.22872E-01 -3.14600E-01
    8993.473     -4.021   1.120  4.22049E-01  7.36031E-01 -3.13982E-01
    8993.821     -3.674   1.160  4.51249E-01  7.49044E-01 -2.97795E-01
    8994.181     -3.314   1.200  4.99522E-01  7.61899E-01 -2.62377E-01
    8994.552     -2.942   1.240  5.66924E-01  7.74580E-01 -2.07656E-01
    8994.936     -2.558   1.280  6.52425E-01  7.87067E-01 -1.34642E-01
    8995.333     -2.162   1.320  7.58412E-01  7.99381E-01 -4.09689E-02
    8995.741     -1.753   1.360  8.91184E-01  8.11437E-01  7.97468E-02
    8996.162     -1.333   1.400  1.05246E+00  8.23270E-01  2.29186E-01
    8996.595     -0.900   1.440  1.22276E+00  8.34836E-01  3.87923E-01
    8997.040     -0.455   1.480  1.36018E+00  8.46128E-01  5.14048E-01
    8997.497      0.002   1.520  1.43607E+00  8.57101E-01  5.78968E-01
    8997.966      0.472   1.560  1.47358E+00  8.67768E-01  6.05814E-01
    8998.448      0.953   1.600  1.51545E+00  8.78083E-01  6.37372E-01
    8998.942      1.447   1.640  1.56066E+00  8.88059E-01  6.72601E-01
    8999.447      1.953   1.680  1.58253E+00  8.97652E-01  6.84880E-01
    8999.966      2.471   1.720  1.56520E+00  9.06856E-01  6.58345E-01
    9000.496      3.001   1.760  1.50173E+00  9.15689E-01  5.86040E-01
    9001.039      3.544   1.800  1.40593E+00  9.24107E-01  4.81826E-01
    9001.593      4.099   1.840  1.30725E+00  9.32108E-01  3.75143E-01
    9002.160      4.666   1.880  1.21878E+00  9.39709E-01  2.79067E-01
    9002.739      5.245   1.920  1.13867E+00  9.46891E-01  1.91775E-01
    9003.331      5.836   1.960  1.06210E+00  9.53633E-01  1.08466E-01
    9003.934      6.440   2.000  9.88080E-01  9.59977E-01  2.81030E-02
    9004.550      7.055   2.040  9.32242E-01  9.65905E-01 -3.36630E-02
    9005.178      7.683   2.080  9.12708E-01  9.71419E-01 -5.87112E-02
    9005.818      8.323   2.120  9.17888E-01  9.76522E-01 -5.86341E-02
    9006.470      8.975   2.160  9.29936E-01  9.81240E-01 -5.13035E-02
    9007.135      9.640   2.200  9.42259E-01  9.85556E-01 -4.32977E-02
    9007.811     10.317   2.240  9.55542E-01  9.89495E-01 -3.39534E-02
    9008.500     11.005   2.280  9.72335E-01  9.93063E-01 -2.07288E-02
    9009.201     11.706   2.320  9.95990E-01  9.96268E-01 -2.77074E-04
    9009.914     12.420   2.360  1.03018E+00  9.99135E-01  3.10444E-02
    9010.640     13.145   2.400  1.07527E+00  1.00167E+00  7.36003E-02
    9011.377     13.883   2.440  1.11773E+00  1.00388E+00  1.13845E-01
    9012.127     14.633   2.480  1.12923E+00  1.00580E+00  1.23430E-01
    9012.889     15.395   2.520  1.08878E+00  1.00743E+00  8.13494E-02
    9013.663     16.169   2.560  1.02871E+00  1.00878E+00  1.99282E-02
    9014.450     16.955   2.600  9.71059E-01  1.00988E+00 -3.88262E-02
    9015.248     17.754   2.640  9.22767E-01  1.01076E+00 -8.79944E-02
    9016.059     18.564   2.680  8.83421E-01  1.01140E+00 -1.27981E-01
    9016.882     19.387   2.720  8.52868E-01  1.01181E+00 -1.58946E-01
    9017.717     20.223   2.760  8.31006E-01  1.01205E+00 -1.81039E-01
    9018.564     21.070   2.800  8.17295E-01  1.01210E+00 -1.94809E-01
    9019.424     21.929   2.840  8.11014E-01  1.01198E+00 -2.00964E-01
    9020.296     22.801   2.880  8.10514E-01  1.01171E+00 -2.01200E-01
    9021.180     23.685   2.920  8.14451E-01  1.01132E+00 -1.96869E-01
    9022.076     24.581   2.960  8.22212E-01  1.01080E+00 -1.88591E-01
    9022.984     25.489   3.000  8.33288E-01  1.01017E+00 -1.76880E-01
    9023.905     26.410   3.040  8.47077E-01  1.00942E+00 -1.62345E-01
    9024.837     27.343   3.080  8.63273E-01  1.00861E+00 -1.45338E-01
    9025.782     28.288   3.120  8.81482E-01  1.00772E+00 -1.26240E-01
    9026.739     29.245   3.160  9.00538E-01  1.00676E+00 -1.06223E-01
    9027.708     30.214   3.200  9.19565E-01  1.00575E+00 -8.61879E-02
    9028.690     31.195   3.240  9.37810E-01  1.00472E+00 -6.69124E-02
    9029.684     32.189   3.280  9.55065E-01  1.00363E+00 -4.85691E-02
    9030.689     33.195   3.320  9.72084E-01  1.00253E+00 -3.04512E-02
    9031.707     34.213   3.360  9.90051E-01  1.00143E+00 -1.13761E-02
    9032.738     35.243   3.400  1.00983E+00  1.00031E+00  9.52117E-03
    9033.780     36.285   3.440  1.03164E+00  9.99179E-01  3.24582E-02
    9034.835     37.340   3.480  1.05505E+00  9.98068E-01  5.69794E-02
    9035.901     38.407   3.520  1.07852E+00  9.96963E-01  8.15552E-02
    9036.980     39.486   3.560  1.09953E+00  9.95887E-01  1.03644E-01
    9038.072     40.577   3.600  1.11525E+00  9.94844E-01  1.20409E-01
    9039.175     41.680   3.640  1.12329E+00  9.93816E-01  1.29474E-01
    9040.291     42.796   3.680  1.12247E+00  9.92824E-01  1.29645E-01
    9041.418     43.924   3.720  1.11326E+00  9.91891E-01  1.21372E-01
    9042.558     45.064   3.760  1.09734E+00  9.90977E-01  1.06367E-01
    9043.710     46.216   3.800  1.07727E+00  9.90106E-01  8.71651E-02
    9044.875     47.380   3.840  1.05570E+00  9.89298E-01  6.64062E-02
    9046.051     48.557   3.880  1.03518E+00  9.88537E-01  4.66456E-02
    9047.240     49.745   3.920  1.01777E+00  9.87843E-01  2.99276E-02
    9048.441     50.946   3.960  1.00483E+00  9.87173E-01  1.76606E-02
    9049.654     52.159   4.000  9.97076E-01  9.86592E-01  1.04838E-02
    9050.879     53.385   4.040  9.94318E-01  9.86036E-01  8.28200E-03
    9052.117     54.622   4.080  9.95790E-01  9.85550E-01  1.02397E-02
    9053.366     55.872   4.120  1.00000E+00  9.85135E-01  1.48687E-02
    9054.628     57.134   4.160  1.00496E+00  9.84766E-01  2.01902E-02
    9055.902     58.408   4.200  1.00865E+00  9.84445E-01  2.42068E-02
    9057.189     59.694   4.240  1.00972E+00  9.84193E-01  2.55293E-02
    9058.487     60.992   4.280  1.00776E+00  9.84009E-01  2.37509E-02
    9059.798     62.303   4.320  1.00321E+00  9.83851E-01  1.93592E-02
    9061.120     63.626   4.360  9.97126E-01  9.83759E-01  1.33670E-02
    9062.455     64.961   4.400  9.90724E-01  9.83734E-01  6.98972E-03
    9063.803     66.308   4.440  9.85054E-01  9.83732E-01  1.32181E-03
    9065.162     67.668   4.480  9.80876E-01  9.83794E-01 -2.91845E-03
    9066.534     69.039   4.520  9.78304E-01  9.83900E-01 -5.59608E-03
    9067.917     70.423   4.560  9.76859E-01  9.84046E-01 -7.18730E-03
    9069.313     71.819   4.600  9.75746E-01  9.84232E-01 -8.48648E-03
    9070.722     73.227   4.640  9.74267E-01  9.84459E-01 -1.01920E-02
    9072.142     74.647   4.680  9.71977E-01  9.84745E-01 -1.27686E-02
    9073.575     76.080   4.720  9.68465E-01  9.85024E-01 -1.65591E-02
    9075.019     77.525   4.760  9.63679E-01  9.85358E-01 -2.16794E-02
    9076.476     78.982   4.800  9.57940E-01  9.85706E-01 -2.77658E-02
    9077.945     80.451   4.840  9.52151E-01  9.86085E-01 -3.39344E-02
    9079.427     81.932   4.880  9.47361E-01  9.86495E-01 -3.91347E-02
    9080.920     83.426   4.920  9.44316E-01  9.86892E-01 -4.25762E-02
    9082.426     84.931   4.960  9.43479E-01  9.87337E-01 -4.38574E-02
    9083.944     86.449   5.000  9.44930E-01  9.87765E-01 -4.28350E-02
    9085.474     87.979   5.040  9.48578E-01  9.88217E-01 -3.96391E-02
    9087.016     89.522   5.080  9.53970E-01  9.88670E-01 -3.46998E-02
    9088.571     91.076   5.120  9.60411E-01  9.89100E-01 -2.86893E-02
    9090.137     92.643   5.160  9.67233E-01  9.89551E-01 -2.23177E-02
    9091.716     94.222   5.200  9.73875E-01  9.90000E-01 -1.61248E-02
    9093.307     95.813   5.240  9.79932E-01  9.90422E-01 -1.04895E-02
    9094.910     97.416   5.280  9.85127E-01  9.90837E-01 -5.70968E-03
    9096.526     99.031   5.320  9.89242E-01  9.91245E-01 -2.00284E-03
    9098.153    100.659   5.360  9.92255E-01  9.91624E-01  6.31199E-04
    9099.793    102.299   5.400  9.94560E-01  9.91992E-01  2.56758E-03
    9101.445    103.951   5.440  9.96856E-01  9.92329E-01  4.52705E-03
    9103.110    105.615   5.480  9.99862E-01  9.92654E-01  7.20779E-03
    9104.786    107.291   5.520  1.00373E+00  9.92943E-01  1.07863E-02
    9106.475    108.980   5.560  1.00793E+00  9.93196E-01  1.47339E-02
    9108.175    110.681   5.600  1.01160E+00  9.93412E-01  1.81873E-02
    9109.888    112.394   5.640  1.01408E+00  9.93613E-01  2.04666E-02
    9111.613    114.119   5.680  1.01508E+00  9.93776E-01  2.12986E-02
    9113.351    115.856   5.720  1.01461E+00  9.93877E-01  2.07351E-02
    9115.100    117.606   5.760  1.01295E+00  9.93962E-01  1.89851E-02
    9116.862    119.367   5.800  1.01036E+00  9.94008E-01  1.63490E-02
    9118.636    121.141   5.840  1.00724E+00  9.94013E-01  1.32232E-02
    9120.422    122.928   5.880  1.00400E+00  9.93955E-01  1.00485E-02
    9122.220    124.726   5.920  1.00107E+00  9.93881E-01  7.19333E-03
    9124.031    126.536   5.960  9.98654E-01  9.93767E-01  4.88734E-03
    9125.854    128.359   6.000  9.96811E-01  9.93589E-01  3.22217E-03
