# # comment:                                                     FEFF 9.9.1  
# # Source:
# # Structure
# # Reduced
# # space
# # abc:
# # angles:119.737996
# # sites:
# # POT  SCF 100  7.0000   0, screened core-hole, AFOLP (folp(0)= 1.150)
# # Abs   Z=29 Rmt= 1.272 Rnm= 1.342 K  shell
# # Pot 1 Z= 3 Rmt= 1.296 Rnm= 1.350
# # Pot 2 Z=29 Rmt= 1.272 Rnm= 1.342
# # Pot 3 Z= 5 Rmt= 0.763 Rnm= 0.981
# # Pot 4 Z= 8 Rmt= 0.909 Rnm= 1.054
# # Gam_ch=1.729E+00 H-L exch Vi= 0.000E+00 Vr= 0.000E+00
# # Mu=-6.441E+00eV kf=2.336E+00 Vint=-1.735E+01eV Rs_int= 1.552
# FMS rfms= 9.0000
# # PATH  Rmax=-1.000,  Keep_limit= 0.00, Heap_limit 0.00  Pwcrit= 2.50%
#  S02=0.950  Temp=   0.00  Debye_temp=   0.00  Global_sig2= 0.00000
#  Energy zero shift, vr, vi    0.00000E+00   0.00000E+00
#  Curved wave amplitude ratio filter   4.000%
#     file         sig2 tot  cw amp ratio   deg  nlegs   reff  inp sig2
#     0/   0 paths used
#  xsedge+ 50, used to normalize mu           2.4742E-04
#  -----------------------------------------------------------------------
#  omega    e    k    mu    mu0     chi     @#
    8983.779    -10.251  -1.000  4.90891E-02  5.62870E-02 -7.19793E-03
    8984.078     -9.952  -0.960  5.24086E-02  6.04755E-02 -8.06693E-03
    8984.365     -9.666  -0.920  5.60936E-02  6.51401E-02 -9.04644E-03
    8984.639     -9.392  -0.880  6.02023E-02  7.03517E-02 -1.01494E-02
    8984.901     -9.129  -0.840  6.48037E-02  7.61933E-02 -1.13896E-02
    8985.151     -8.879  -0.800  6.99793E-02  8.27611E-02 -1.27818E-02
    8985.389     -8.642  -0.760  7.58248E-02  9.01658E-02 -1.43410E-02
    8985.614     -8.416  -0.720  8.24501E-02  9.85324E-02 -1.60824E-02
    8985.828     -8.203  -0.680  8.99789E-02  1.07999E-01 -1.80201E-02
    8986.029     -8.002  -0.640  9.85450E-02  1.18711E-01 -2.01664E-02
    8986.218     -7.813  -0.600  1.08283E-01  1.30813E-01 -2.25299E-02
    8986.395     -7.636  -0.560  1.19315E-01  1.44428E-01 -2.51128E-02
    8986.559     -7.471  -0.520  1.31721E-01  1.59628E-01 -2.79078E-02
    8986.712     -7.319  -0.480  1.45507E-01  1.76401E-01 -3.08939E-02
    8986.852     -7.179  -0.440  1.60565E-01  1.94598E-01 -3.40329E-02
    8986.980     -7.051  -0.400  1.76631E-01  2.13899E-01 -3.72683E-02
    8987.096     -6.935  -0.360  1.93272E-01  2.33801E-01 -4.05293E-02
    8987.199     -6.831  -0.320  2.09910E-01  2.53650E-01 -4.37398E-02
    8987.291     -6.740  -0.280  2.25890E-01  2.72719E-01 -4.68284E-02
    8987.370     -6.661  -0.240  2.40580E-01  2.90312E-01 -4.97325E-02
    8987.437     -6.593  -0.200  2.53458E-01  3.05851E-01 -5.23931E-02
    8987.492     -6.539  -0.160  2.64169E-01  3.18911E-01 -5.47421E-02
    8987.535     -6.496  -0.120  2.72532E-01  3.29227E-01 -5.66955E-02
    8987.565     -6.465  -0.080  2.78490E-01  3.36654E-01 -5.81640E-02
    8987.589     -6.441   0.000  2.83228E-01  3.42618E-01 -5.93898E-02
    8987.644     -6.386   0.120  2.93066E-01  3.56043E-01 -6.29767E-02
    8987.687     -6.344   0.160  3.00611E-01  3.66467E-01 -6.58558E-02
    8987.742     -6.289   0.200  3.09895E-01  3.79775E-01 -6.98804E-02
    8987.809     -6.222   0.240  3.20391E-01  3.95728E-01 -7.53375E-02
    8987.888     -6.142   0.280  3.31355E-01  4.14003E-01 -8.26480E-02
    8987.980     -6.051   0.320  3.41790E-01  4.34081E-01 -9.22918E-02
    8988.083     -5.947   0.360  3.50688E-01  4.55369E-01 -1.04681E-01
    8988.199     -5.831   0.400  3.57205E-01  4.77174E-01 -1.19969E-01
    8988.327     -5.703   0.440  3.61124E-01  4.98923E-01 -1.37799E-01
    8988.467     -5.563   0.480  3.62855E-01  5.20158E-01 -1.57302E-01
    8988.620     -5.411   0.520  3.63225E-01  5.40546E-01 -1.77321E-01
    8988.784     -5.246   0.560  3.63216E-01  5.59955E-01 -1.96739E-01
    8988.961     -5.069   0.600  3.63766E-01  5.78353E-01 -2.14587E-01
    8989.150     -4.881   0.640  3.65876E-01  5.95827E-01 -2.29951E-01
    8989.351     -4.679   0.680  3.70520E-01  6.12449E-01 -2.41928E-01
    8989.564     -4.466   0.720  3.78235E-01  6.28363E-01 -2.50129E-01
    8989.790     -4.240   0.760  3.88318E-01  6.43634E-01 -2.55316E-01
    8990.028     -4.003   0.800  3.99325E-01  6.58398E-01 -2.59073E-01
    8990.278     -3.753   0.840  4.10197E-01  6.72717E-01 -2.62521E-01
    8990.540     -3.491   0.880  4.21711E-01  6.86699E-01 -2.64988E-01
    8990.814     -3.216   0.920  4.36506E-01  7.00352E-01 -2.63846E-01
    8991.101     -2.930   0.960  4.57869E-01  7.13756E-01 -2.55887E-01
    8991.399     -2.631   1.000  4.87899E-01  7.26919E-01 -2.39020E-01
    8991.710     -2.320   1.040  5.26728E-01  7.39878E-01 -2.13150E-01
    8992.033     -1.997   1.080  5.71150E-01  7.52637E-01 -1.81487E-01
    8992.369     -1.662   1.120  6.15568E-01  7.65200E-01 -1.49631E-01
    8992.716     -1.314   1.160  6.55551E-01  7.77541E-01 -1.21991E-01
    8993.076     -0.955   1.200  6.90646E-01  7.89693E-01 -9.90471E-02
    8993.448     -0.583   1.240  7.26915E-01  8.01640E-01 -7.47248E-02
    8993.832     -0.199   1.280  7.72742E-01  8.13346E-01 -4.06041E-02
    8994.228      0.197   1.320  8.27288E-01  8.24811E-01  2.47741E-03
    8994.636      0.606   1.360  8.79444E-01  8.36016E-01  4.34271E-02
    8995.057      1.026   1.400  9.20228E-01  8.46940E-01  7.32879E-02
    8995.490      1.459   1.440  9.52692E-01  8.57578E-01  9.51141E-02
    8995.935      1.904   1.480  9.85028E-01  8.67906E-01  1.17122E-01
    8996.392      2.361   1.520  1.01946E+00  8.77922E-01  1.41536E-01
    8996.861      2.831   1.560  1.06257E+00  8.87601E-01  1.74972E-01
    8997.343      3.312   1.600  1.13042E+00  8.96919E-01  2.33497E-01
    8997.837      3.806   1.640  1.22227E+00  9.05875E-01  3.16395E-01
    8998.343      4.312   1.680  1.29894E+00  9.14463E-01  3.84475E-01
    8998.861      4.830   1.720  1.32843E+00  9.22681E-01  4.05749E-01
    8999.391      5.361   1.760  1.32938E+00  9.30488E-01  3.98895E-01
    8999.934      5.903   1.800  1.31555E+00  9.37923E-01  3.77625E-01
    9000.488      6.458   1.840  1.28195E+00  9.44945E-01  3.37000E-01
    9001.055      7.025   1.880  1.24404E+00  9.51575E-01  2.92468E-01
    9001.635      7.604   1.920  1.21748E+00  9.57815E-01  2.59668E-01
    9002.226      8.195   1.960  1.20282E+00  9.63645E-01  2.39180E-01
    9002.829      8.799   2.000  1.18673E+00  9.69087E-01  2.17640E-01
    9003.445      9.415   2.040  1.15431E+00  9.74146E-01  1.80164E-01
    9004.073     10.042   2.080  1.10198E+00  9.78806E-01  1.23176E-01
    9004.713     10.683   2.120  1.03764E+00  9.83111E-01  5.45263E-02
    9005.365     11.335   2.160  9.79484E-01  9.87047E-01 -7.56237E-03
    9006.030     11.999   2.200  9.43803E-01  9.90639E-01 -4.68359E-02
    9006.706     12.676   2.240  9.34591E-01  9.93872E-01 -5.92815E-02
    9007.395     13.365   2.280  9.45264E-01  9.96773E-01 -5.15084E-02
    9008.096     14.066   2.320  9.66365E-01  9.99370E-01 -3.30049E-02
    9008.809     14.779   2.360  9.92710E-01  1.00167E+00 -8.96061E-03
    9009.535     15.504   2.400  1.02101E+00  1.00366E+00  1.73523E-02
    9010.273     16.242   2.440  1.04469E+00  1.00538E+00  3.93069E-02
    9011.022     16.992   2.480  1.06138E+00  1.00683E+00  5.45452E-02
    9011.784     17.754   2.520  1.07647E+00  1.00803E+00  6.84443E-02
    9012.559     18.528   2.560  1.09051E+00  1.00901E+00  8.14961E-02
    9013.345     19.314   2.600  1.09575E+00  1.00976E+00  8.59930E-02
    9014.143     20.113   2.640  1.08763E+00  1.01032E+00  7.73154E-02
    9014.954     20.924   2.680  1.06755E+00  1.01068E+00  5.68690E-02
    9015.777     21.747   2.720  1.03914E+00  1.01088E+00  2.82670E-02
    9016.612     22.582   2.760  1.00921E+00  1.01088E+00 -1.67074E-03
    9017.460     23.429   2.800  9.84642E-01  1.01078E+00 -2.61360E-02
    9018.319     24.289   2.840  9.63381E-01  1.01052E+00 -4.71404E-02
    9019.191     25.160   2.880  9.44766E-01  1.01014E+00 -6.53774E-02
    9020.075     26.044   2.920  9.28417E-01  1.00967E+00 -8.12516E-02
    9020.971     26.940   2.960  9.14211E-01  1.00909E+00 -9.48742E-02
    9021.879     27.849   3.000  9.02581E-01  1.00844E+00 -1.05858E-01
    9022.800     28.769   3.040  8.93706E-01  1.00771E+00 -1.14008E-01
    9023.732     29.702   3.080  8.87786E-01  1.00691E+00 -1.19128E-01
    9024.677     30.647   3.120  8.84964E-01  1.00607E+00 -1.21102E-01
    9025.634     31.604   3.160  8.84973E-01  1.00518E+00 -1.20204E-01
    9026.604     32.573   3.200  8.87193E-01  1.00425E+00 -1.17056E-01
    9027.585     33.555   3.240  8.91125E-01  1.00331E+00 -1.12182E-01
    9028.579     34.548   3.280  8.96529E-01  1.00234E+00 -1.05807E-01
    9029.585     35.554   3.320  9.03043E-01  1.00138E+00 -9.83382E-02
    9030.603     36.572   3.360  9.10604E-01  1.00040E+00 -8.97976E-02
    9031.633     37.602   3.400  9.19330E-01  9.99425E-01 -8.00947E-02
    9032.675     38.645   3.440  9.29306E-01  9.98473E-01 -6.91667E-02
    9033.730     39.699   3.480  9.40568E-01  9.97528E-01 -5.69600E-02
    9034.797     40.766   3.520  9.53106E-01  9.96614E-01 -4.35086E-02
    9035.876     41.845   3.560  9.66617E-01  9.95733E-01 -2.91158E-02
    9036.967     42.936   3.600  9.80462E-01  9.94866E-01 -1.44036E-02
    9038.070     44.040   3.640  9.94160E-01  9.94035E-01  1.24912E-04
    9039.186     45.155   3.680  1.00728E+00  9.93242E-01  1.40417E-02
    9040.313     46.283   3.720  1.01948E+00  9.92511E-01  2.69724E-02
    9041.453     47.423   3.760  1.03038E+00  9.91800E-01  3.85826E-02
    9042.606     48.575   3.800  1.03961E+00  9.91154E-01  4.84515E-02
    9043.770     49.739   3.840  1.04650E+00  9.90550E-01  5.59509E-02
    9044.946     50.916   3.880  1.05050E+00  9.89989E-01  6.05084E-02
    9046.135     52.105   3.920  1.05131E+00  9.89472E-01  6.18352E-02
    9047.336     53.306   3.960  1.04908E+00  9.89021E-01  6.00623E-02
    9048.549     54.519   4.000  1.04442E+00  9.88615E-01  5.58058E-02
    9049.774     55.744   4.040  1.03840E+00  9.88253E-01  5.01445E-02
    9051.012     56.981   4.080  1.03214E+00  9.87936E-01  4.42008E-02
    9052.262     58.231   4.120  1.02660E+00  9.87687E-01  3.89097E-02
    9053.523     59.493   4.160  1.02235E+00  9.87506E-01  3.48406E-02
    9054.798     60.767   4.200  1.01948E+00  9.87347E-01  3.21362E-02
    9056.084     62.053   4.240  1.01780E+00  9.87253E-01  3.05440E-02
    9057.382     63.352   4.280  1.01677E+00  9.87203E-01  2.95677E-02
    9058.693     64.662   4.320  1.01587E+00  9.87193E-01  2.86815E-02
    9060.016     65.985   4.360  1.01467E+00  9.87225E-01  2.74435E-02
    9061.351     67.320   4.400  1.01294E+00  9.87300E-01  2.56386E-02
    9062.698     68.667   4.440  1.01077E+00  9.87434E-01  2.33383E-02
    9064.057     70.027   4.480  1.00844E+00  9.87587E-01  2.08530E-02
    9065.429     71.398   4.520  1.00640E+00  9.87777E-01  1.86255E-02
    9066.813     72.782   4.560  1.00508E+00  9.88005E-01  1.70781E-02
    9068.209     74.178   4.600  1.00469E+00  9.88268E-01  1.64182E-02
    9069.617     75.586   4.640  1.00511E+00  9.88566E-01  1.65455E-02
    9071.037     77.007   4.680  1.00596E+00  9.88875E-01  1.70897E-02
    9072.470     78.439   4.720  1.00672E+00  9.89215E-01  1.75023E-02
    9073.914     79.884   4.760  1.00677E+00  9.89564E-01  1.72056E-02
    9075.371     81.341   4.800  1.00573E+00  9.89941E-01  1.57839E-02
    9076.841     82.810   4.840  1.00342E+00  9.90324E-01  1.30912E-02
    9078.322     84.291   4.880  9.99923E-01  9.90712E-01  9.21042E-03
    9079.815     85.785   4.920  9.95466E-01  9.91125E-01  4.34090E-03
    9081.321     87.291   4.960  9.90238E-01  9.91538E-01 -1.29980E-03
    9082.839     88.809   5.000  9.84469E-01  9.91930E-01 -7.46143E-03
    9084.369     90.339   5.040  9.78515E-01  9.92341E-01 -1.38257E-02
    9085.911     91.881   5.080  9.72678E-01  9.92729E-01 -2.00512E-02
    9087.466     93.435   5.120  9.67279E-01  9.93135E-01 -2.58553E-02
    9089.033     95.002   5.160  9.62412E-01  9.93514E-01 -3.11017E-02
    9090.611     96.581   5.200  9.58131E-01  9.93886E-01 -3.57549E-02
    9092.202     98.172   5.240  9.54394E-01  9.94228E-01 -3.98340E-02
    9093.806     99.775   5.280  9.51166E-01  9.94562E-01 -4.33959E-02
    9095.421    101.391   5.320  9.48356E-01  9.94888E-01 -4.65321E-02
    9097.049    103.018   5.360  9.45857E-01  9.95180E-01 -4.93233E-02
    9098.689    104.658   5.400  9.43775E-01  9.95436E-01 -5.16612E-02
    9100.341    106.310   5.440  9.42553E-01  9.95679E-01 -5.31260E-02
    9102.005    107.974   5.480  9.42838E-01  9.95863E-01 -5.30256E-02
    9103.681    109.651   5.520  9.45346E-01  9.96034E-01 -5.06882E-02
    9105.370    111.339   5.560  9.50436E-01  9.96191E-01 -4.57546E-02
    9107.070    113.040   5.600  9.58041E-01  9.96288E-01 -3.82475E-02
    9108.783    114.753   5.640  9.67900E-01  9.96369E-01 -2.84690E-02
    9110.509    116.478   5.680  9.79526E-01  9.96388E-01 -1.68623E-02
    9112.246    118.215   5.720  9.92388E-01  9.96392E-01 -4.00362E-03
    9113.996    119.965   5.760  1.00571E+00  9.96359E-01  9.35306E-03
    9115.757    121.727   5.800  1.01858E+00  9.96287E-01  2.22968E-02
    9117.531    123.501   5.840  1.03007E+00  9.96176E-01  3.38942E-02
    9119.317    125.287   5.880  1.03936E+00  9.96027E-01  4.33321E-02
    9121.116    127.085   5.920  1.04584E+00  9.95840E-01  4.99993E-02
    9122.926    128.896   5.960  1.04899E+00  9.95615E-01  5.33746E-02
    9124.749    130.718   6.000  1.04817E+00  9.95356E-01  5.28164E-02
