# # comment:                                                     FEFF 9.9.1  
# # Source:
# # Structure
# # Reduced
# # space
# # abc:
# # angles:
# # sites:
# # POT  SCF 100  7.0000   0, screened core-hole, AFOLP (folp(0)= 1.150)
# # Abs   Z=29 Rmt= 1.165 Rnm= 1.280 K  shell
# # Pot 1 Z=56 Rmt= 1.927 Rnm= 1.985
# # Pot 2 Z=39 Rmt= 1.636 Rnm= 1.713
# # Pot 3 Z=29 Rmt= 1.165 Rnm= 1.280
# # Pot 4 Z= 8 Rmt= 1.083 Rnm= 1.133
# # Gam_ch=1.729E+00 H-L exch Vi= 0.000E+00 Vr= 0.000E+00
# # Mu=-9.198E+00eV kf=2.000E+00 Vint=-1.794E+01eV Rs_int= 1.813
# FMS rfms= 9.0000
# # PATH  Rmax=-1.000,  Keep_limit= 0.00, Heap_limit 0.00  Pwcrit= 2.50%
#  S02=0.950  Temp=   0.00  Debye_temp=   0.00  Global_sig2= 0.00000
#  Energy zero shift, vr, vi    0.00000E+00   0.00000E+00
#  Curved wave amplitude ratio filter   4.000%
#     file         sig2 tot  cw amp ratio   deg  nlegs   reff  inp sig2
#     0/   0 paths used
#  xsedge+ 50, used to normalize mu           2.4509E-04
#  -----------------------------------------------------------------------
#  omega    e    k    mu    mu0     chi     @#
    8985.189    -13.008  -1.000  3.78338E-02  5.63473E-02 -1.85135E-02
    8985.488    -12.710  -0.960  3.99377E-02  6.04779E-02 -2.05402E-02
    8985.774    -12.423  -0.920  4.22432E-02  6.50695E-02 -2.28263E-02
    8986.048    -12.149  -0.880  4.47819E-02  7.01899E-02 -2.54080E-02
    8986.311    -11.887  -0.840  4.75917E-02  7.59182E-02 -2.83265E-02
    8986.561    -11.637  -0.800  5.07174E-02  8.23459E-02 -3.16284E-02
    8986.798    -11.399  -0.760  5.42122E-02  8.95779E-02 -3.53657E-02
    8987.024    -11.173  -0.720  5.81377E-02  9.77330E-02 -3.95953E-02
    8987.237    -10.960  -0.680  6.25635E-02  1.06942E-01 -4.43783E-02
    8987.438    -10.759  -0.640  6.75654E-02  1.17342E-01 -4.97767E-02
    8987.627    -10.570  -0.600  7.32203E-02  1.29069E-01 -5.58491E-02
    8987.804    -10.393  -0.560  7.95963E-02  1.42239E-01 -6.26429E-02
    8987.969    -10.228  -0.520  8.67386E-02  1.56920E-01 -7.01816E-02
    8988.121    -10.076  -0.480  9.46475E-02  1.73097E-01 -7.84496E-02
    8988.261     -9.936  -0.440  1.03254E-01  1.90628E-01 -8.73741E-02
    8988.389     -9.808  -0.400  1.12398E-01  2.09208E-01 -9.68096E-02
    8988.505     -9.692  -0.360  1.21823E-01  2.28357E-01 -1.06534E-01
    8988.609     -9.588  -0.320  1.31190E-01  2.47452E-01 -1.16262E-01
    8988.700     -9.497  -0.280  1.40129E-01  2.65802E-01 -1.25673E-01
    8988.779     -9.418  -0.240  1.48289E-01  2.82741E-01 -1.34451E-01
    8988.847     -9.351  -0.200  1.55395E-01  2.97711E-01 -1.42316E-01
    8988.901     -9.296  -0.160  1.61268E-01  3.10305E-01 -1.49037E-01
    8988.944     -9.253  -0.120  1.65823E-01  3.20261E-01 -1.54437E-01
    8988.975     -9.223  -0.080  1.69041E-01  3.27433E-01 -1.58393E-01
    8988.999     -9.198   0.000  1.71552E-01  3.33197E-01 -1.61645E-01
    8989.054     -9.143   0.120  1.77132E-01  3.46182E-01 -1.69049E-01
    8989.096     -9.101   0.160  1.81349E-01  3.56277E-01 -1.74927E-01
    8989.151     -9.046   0.200  1.86505E-01  3.69172E-01 -1.82667E-01
    8989.218     -8.979   0.240  1.92288E-01  3.84695E-01 -1.92407E-01
    8989.298     -8.900   0.280  1.98196E-01  4.02516E-01 -2.04319E-01
    8989.389     -8.808   0.320  2.03578E-01  4.22185E-01 -2.18607E-01
    8989.493     -8.705   0.360  2.07710E-01  4.43142E-01 -2.35432E-01
    8989.609     -8.589   0.400  2.09874E-01  4.64770E-01 -2.54896E-01
    8989.737     -8.461   0.440  2.09732E-01  4.86524E-01 -2.76792E-01
    8989.877     -8.320   0.480  2.07438E-01  5.07961E-01 -3.00523E-01
    8990.029     -8.168   0.520  2.03685E-01  5.28814E-01 -3.25128E-01
    8990.194     -8.003   0.560  1.99543E-01  5.48935E-01 -3.49392E-01
    8990.371     -7.827   0.600  1.96041E-01  5.68313E-01 -3.72272E-01
    8990.560     -7.638   0.640  1.93974E-01  5.86964E-01 -3.92990E-01
    8990.761     -7.437   0.680  1.93897E-01  6.04985E-01 -4.11087E-01
    8990.974     -7.223   0.720  1.96142E-01  6.22445E-01 -4.26303E-01
    8991.200     -6.998   0.760  2.00952E-01  6.39475E-01 -4.38522E-01
    8991.437     -6.760   0.800  2.08518E-01  6.56110E-01 -4.47593E-01
    8991.687     -6.510   0.840  2.19142E-01  6.72459E-01 -4.53317E-01
    8991.949     -6.248   0.880  2.33448E-01  6.88529E-01 -4.55081E-01
    8992.224     -5.974   0.920  2.52538E-01  7.04357E-01 -4.51819E-01
    8992.510     -5.687   0.960  2.77883E-01  7.19987E-01 -4.42104E-01
    8992.809     -5.388   1.000  3.10886E-01  7.35411E-01 -4.24525E-01
    8993.120     -5.077   1.040  3.52185E-01  7.50633E-01 -3.98448E-01
    8993.443     -4.754   1.080  4.00857E-01  7.65627E-01 -3.64770E-01
    8993.778     -4.419   1.120  4.54970E-01  7.80402E-01 -3.25432E-01
    8994.126     -4.072   1.160  5.13282E-01  7.94923E-01 -2.81640E-01
    8994.485     -3.712   1.200  5.72247E-01  8.09169E-01 -2.36921E-01
    8994.857     -3.340   1.240  6.18632E-01  8.23117E-01 -2.04485E-01
    8995.241     -2.956   1.280  6.38359E-01  8.36740E-01 -1.98382E-01
    8995.637     -2.560   1.320  6.36106E-01  8.49992E-01 -2.13886E-01
    8996.046     -2.151   1.360  6.28452E-01  8.62867E-01 -2.34416E-01
    8996.467     -1.731   1.400  6.28309E-01  8.75335E-01 -2.47026E-01
    8996.899     -1.298   1.440  6.46300E-01  8.87346E-01 -2.41046E-01
    8997.344     -0.853   1.480  6.87925E-01  8.98915E-01 -2.10990E-01
    8997.802     -0.396   1.520  7.41137E-01  9.09994E-01 -1.68857E-01
    8998.271      0.074   1.560  7.67930E-01  9.20576E-01 -1.52646E-01
    8998.753      0.555   1.600  7.49520E-01  9.30657E-01 -1.81137E-01
    8999.246      1.049   1.640  7.30439E-01  9.40191E-01 -2.09752E-01
    8999.752      1.555   1.680  7.60635E-01  9.49219E-01 -1.88584E-01
    9000.270      2.073   1.720  8.63121E-01  9.57676E-01 -9.45549E-02
    9000.801      2.604   1.760  1.03559E+00  9.65604E-01  6.99854E-02
    9001.343      3.146   1.800  1.25153E+00  9.72985E-01  2.78545E-01
    9001.898      3.701   1.840  1.44855E+00  9.79841E-01  4.68704E-01
    9002.465      4.268   1.880  1.56014E+00  9.86155E-01  5.73990E-01
    9003.044      4.847   1.920  1.58279E+00  9.91932E-01  5.90860E-01
    9003.635      5.438   1.960  1.52640E+00  9.97200E-01  5.29201E-01
    9004.239      6.042   2.000  1.41543E+00  1.00197E+00  4.13461E-01
    9004.855      6.657   2.040  1.30377E+00  1.00626E+00  2.97512E-01
    9005.482      7.285   2.080  1.23635E+00  1.01009E+00  2.26260E-01
    9006.123      7.925   2.120  1.22074E+00  1.01344E+00  2.07302E-01
    9006.775      8.578   2.160  1.22304E+00  1.01637E+00  2.06668E-01
    9007.439      9.242   2.200  1.21170E+00  1.01890E+00  1.92792E-01
    9008.116      9.919   2.240  1.18596E+00  1.02103E+00  1.64925E-01
    9008.805     10.608   2.280  1.15687E+00  1.02279E+00  1.34079E-01
    9009.506     11.309   2.320  1.13158E+00  1.02421E+00  1.07374E-01
    9010.219     12.022   2.360  1.11541E+00  1.02529E+00  9.01210E-02
    9010.944     12.747   2.400  1.11318E+00  1.02606E+00  8.71226E-02
    9011.682     13.485   2.440  1.12880E+00  1.02656E+00  1.02243E-01
    9012.432     14.235   2.480  1.15390E+00  1.02681E+00  1.27092E-01
    9013.194     14.997   2.520  1.17789E+00  1.02681E+00  1.51087E-01
    9013.968     15.771   2.560  1.18501E+00  1.02658E+00  1.58437E-01
    9014.754     16.557   2.600  1.17000E+00  1.02616E+00  1.43842E-01
    9015.553     17.356   2.640  1.13885E+00  1.02557E+00  1.13276E-01
    9016.364     18.167   2.680  1.10123E+00  1.02482E+00  7.64180E-02
    9017.187     18.990   2.720  1.06490E+00  1.02391E+00  4.09920E-02
    9018.022     19.825   2.760  1.03352E+00  1.02288E+00  1.06495E-02
    9018.869     20.672   2.800  1.00765E+00  1.02175E+00 -1.40941E-02
    9019.729     21.532   2.840  9.87189E-01  1.02053E+00 -3.33393E-02
    9020.600     22.403   2.880  9.71630E-01  1.01923E+00 -4.75986E-02
    9021.484     23.287   2.920  9.59848E-01  1.01786E+00 -5.80070E-02
    9022.381     24.183   2.960  9.50619E-01  1.01644E+00 -6.58174E-02
    9023.289     25.092   3.000  9.42846E-01  1.01500E+00 -7.21516E-02
    9024.209     26.012   3.040  9.35810E-01  1.01350E+00 -7.76946E-02
    9025.142     26.945   3.080  9.29222E-01  1.01202E+00 -8.28023E-02
    9026.087     27.890   3.120  9.23069E-01  1.01054E+00 -8.74732E-02
    9027.044     28.847   3.160  9.17309E-01  1.00906E+00 -9.17535E-02
    9028.013     29.816   3.200  9.11681E-01  1.00759E+00 -9.59069E-02
    9028.995     30.797   3.240  9.05709E-01  1.00614E+00 -1.00435E-01
    9029.988     31.791   3.280  8.98586E-01  1.00471E+00 -1.06127E-01
    9030.994     32.797   3.320  8.89971E-01  1.00334E+00 -1.13373E-01
    9032.012     33.815   3.360  8.80280E-01  1.00202E+00 -1.21738E-01
    9033.042     34.845   3.400  8.70793E-01  1.00074E+00 -1.29943E-01
    9034.085     35.888   3.440  8.62986E-01  9.99521E-01 -1.36535E-01
    9035.139     36.942   3.480  8.58294E-01  9.98355E-01 -1.40061E-01
    9036.206     38.009   3.520  8.57829E-01  9.97240E-01 -1.39411E-01
    9037.285     39.088   3.560  8.62092E-01  9.96221E-01 -1.34129E-01
    9038.376     40.179   3.600  8.70885E-01  9.95257E-01 -1.24372E-01
    9039.480     41.282   3.640  8.83865E-01  9.94368E-01 -1.10503E-01
    9040.595     42.398   3.680  9.00544E-01  9.93556E-01 -9.30115E-02
    9041.723     43.526   3.720  9.20147E-01  9.92801E-01 -7.26547E-02
    9042.863     44.666   3.760  9.41585E-01  9.92148E-01 -5.05631E-02
    9044.015     45.818   3.800  9.63029E-01  9.91574E-01 -2.85443E-02
    9045.179     46.982   3.840  9.82161E-01  9.91058E-01 -8.89664E-03
    9046.356     48.159   3.880  9.97109E-01  9.90642E-01  6.46699E-03
    9047.545     49.347   3.920  1.00722E+00  9.90285E-01  1.69341E-02
    9048.746     50.548   3.960  1.01334E+00  9.90028E-01  2.33089E-02
    9049.959     51.761   4.000  1.01729E+00  9.89829E-01  2.74627E-02
    9051.184     52.987   4.040  1.02125E+00  9.89707E-01  3.15469E-02
    9052.421     54.224   4.080  1.02685E+00  9.89685E-01  3.71667E-02
    9053.671     55.474   4.120  1.03453E+00  9.89697E-01  4.48317E-02
    9054.933     56.736   4.160  1.04366E+00  9.89805E-01  5.38511E-02
    9056.207     58.010   4.200  1.05239E+00  9.89967E-01  6.24207E-02
    9057.493     59.296   4.240  1.05848E+00  9.90202E-01  6.82751E-02
    9058.792     60.595   4.280  1.06028E+00  9.90510E-01  6.97690E-02
    9060.102     61.905   4.320  1.05741E+00  9.90868E-01  6.65399E-02
    9061.425     63.228   4.360  1.05077E+00  9.91271E-01  5.94952E-02
    9062.760     64.563   4.400  1.04223E+00  9.91743E-01  5.04854E-02
    9064.107     65.910   4.440  1.03396E+00  9.92258E-01  4.17044E-02
    9065.467     67.270   4.480  1.02791E+00  9.92815E-01  3.50924E-02
    9066.838     68.641   4.520  1.02540E+00  9.93413E-01  3.19827E-02
    9068.222     70.025   4.560  1.02706E+00  9.94050E-01  3.30142E-02
    9069.618     71.421   4.600  1.03278E+00  9.94722E-01  3.80596E-02
    9071.026     72.829   4.640  1.04171E+00  9.95407E-01  4.63084E-02
    9072.447     74.250   4.680  1.05253E+00  9.96125E-01  5.64024E-02
    9073.879     75.682   4.720  1.06342E+00  9.96875E-01  6.65469E-02
    9075.324     77.127   4.760  1.07237E+00  9.97633E-01  7.47350E-02
    9076.781     78.584   4.800  1.07769E+00  9.98418E-01  7.92745E-02
    9078.250     80.053   4.840  1.07838E+00  9.99184E-01  7.91996E-02
    9079.731     81.534   4.880  1.07411E+00  9.99973E-01  7.41406E-02
    9081.225     83.028   4.920  1.06487E+00  1.00076E+00  6.41060E-02
    9082.731     84.533   4.960  1.05119E+00  1.00152E+00  4.96704E-02
    9084.249     86.051   5.000  1.03461E+00  1.00230E+00  3.23110E-02
    9085.779     87.581   5.040  1.01731E+00  1.00305E+00  1.42569E-02
    9087.321     89.124   5.080  1.00156E+00  1.00377E+00 -2.21451E-03
    9088.875     90.678   5.120  9.89027E-01  1.00448E+00 -1.54559E-02
    9090.442     92.245   5.160  9.80314E-01  1.00518E+00 -2.48682E-02
    9092.021     93.824   5.200  9.74953E-01  1.00585E+00 -3.08935E-02
    9093.612     95.415   5.240  9.71664E-01  1.00647E+00 -3.48087E-02
    9095.215     97.018   5.280  9.68848E-01  1.00706E+00 -3.82093E-02
    9096.831     98.633   5.320  9.65400E-01  1.00760E+00 -4.22017E-02
    9098.458    100.261   5.360  9.61464E-01  1.00810E+00 -4.66399E-02
    9100.098    101.901   5.400  9.58319E-01  1.00856E+00 -5.02456E-02
    9101.750    103.553   5.440  9.57297E-01  1.00898E+00 -5.16827E-02
    9103.414    105.217   5.480  9.58684E-01  1.00933E+00 -5.06437E-02
    9105.091    106.893   5.520  9.61755E-01  1.00965E+00 -4.78996E-02
    9106.779    108.582   5.560  9.65442E-01  1.00991E+00 -4.44707E-02
    9108.480    110.283   5.600  9.69293E-01  1.01012E+00 -4.08301E-02
    9110.193    111.996   5.640  9.73340E-01  1.01026E+00 -3.69229E-02
    9111.918    113.721   5.680  9.77977E-01  1.01036E+00 -3.23792E-02
    9113.656    115.458   5.720  9.83025E-01  1.01040E+00 -2.73769E-02
    9115.405    117.208   5.760  9.87685E-01  1.01038E+00 -2.26931E-02
    9117.167    118.970   5.800  9.90717E-01  1.01031E+00 -1.95892E-02
    9118.941    120.744   5.840  9.90948E-01  1.01016E+00 -1.92150E-02
    9120.727    122.530   5.880  9.88182E-01  1.00997E+00 -2.17923E-02
    9122.525    124.328   5.920  9.83666E-01  1.00974E+00 -2.60766E-02
    9124.336    126.138   5.960  9.79804E-01  1.00943E+00 -2.96302E-02
    9126.158    127.961   6.000  9.78176E-01  1.00904E+00 -3.08599E-02
