# # comment:                                                     FEFF 9.9.1  
# # Source:
# # Structure
# # Reduced
# # space
# # abc:
# # angles:
# # sites:
# # POT  SCF 100  7.0000   0, screened core-hole, AFOLP (folp(0)= 1.150)
# # Abs   Z=29 Rmt= 1.262 Rnm= 1.338 K  shell
# # Pot 1 Z=23 Rmt= 1.100 Rnm= 1.313
# # Pot 2 Z=29 Rmt= 1.241 Rnm= 1.330
# # Pot 3 Z= 1 Rmt= 0.743 Rnm= 0.857
# # Pot 4 Z= 8 Rmt= 0.957 Rnm= 1.093
# # Gam_ch=1.729E+00 H-L exch Vi= 0.000E+00 Vr= 0.000E+00
# # Mu=-7.692E+00eV kf=2.206E+00 Vint=-1.611E+01eV Rs_int= 1.644
# FMS rfms= 9.0000
# # PATH  Rmax=-1.000,  Keep_limit= 0.00, Heap_limit 0.00  Pwcrit= 2.50%
#  S02=0.950  Temp=   0.00  Debye_temp=   0.00  Global_sig2= 0.00000
#  Energy zero shift, vr, vi    0.00000E+00   0.00000E+00
#  Curved wave amplitude ratio filter   4.000%
#     file         sig2 tot  cw amp ratio   deg  nlegs   reff  inp sig2
#     0/   0 paths used
#  xsedge+ 50, used to normalize mu           2.4601E-04
#  -----------------------------------------------------------------------
#  omega    e    k    mu    mu0     chi     @#
    8983.815    -11.502  -1.000  3.67176E-02  5.26284E-02 -1.59108E-02
    8984.113    -11.203  -0.960  3.85662E-02  5.64131E-02 -1.78469E-02
    8984.400    -10.917  -0.920  4.05533E-02  6.06152E-02 -2.00619E-02
    8984.674    -10.642  -0.880  4.26953E-02  6.52959E-02 -2.26006E-02
    8984.936    -10.380  -0.840  4.50111E-02  7.05261E-02 -2.55151E-02
    8985.186    -10.130  -0.800  4.75223E-02  7.63883E-02 -2.88660E-02
    8985.424     -9.893  -0.760  5.02538E-02  8.29769E-02 -3.27231E-02
    8985.650     -9.667  -0.720  5.32335E-02  9.03985E-02 -3.71650E-02
    8985.863     -9.454  -0.680  5.64917E-02  9.87704E-02 -4.22787E-02
    8986.064     -9.253  -0.640  6.00603E-02  1.08217E-01 -4.81563E-02
    8986.253     -9.064  -0.600  6.39700E-02  1.18858E-01 -5.48884E-02
    8986.430     -8.887  -0.560  6.82464E-02  1.30799E-01 -6.25530E-02
    8986.595     -8.722  -0.520  7.29038E-02  1.44101E-01 -7.11970E-02
    8986.747     -8.570  -0.480  7.79361E-02  1.58748E-01 -8.08123E-02
    8986.887     -8.430  -0.440  8.33069E-02  1.74614E-01 -9.13068E-02
    8987.015     -8.302  -0.400  8.89403E-02  1.91422E-01 -1.02481E-01
    8987.131     -8.186  -0.360  9.47160E-02  2.08740E-01 -1.14024E-01
    8987.235     -8.082  -0.320  1.00474E-01  2.26007E-01 -1.25533E-01
    8987.326     -7.991  -0.280  1.06031E-01  2.42600E-01 -1.36569E-01
    8987.405     -7.911  -0.240  1.11199E-01  2.57918E-01 -1.46719E-01
    8987.472     -7.844  -0.200  1.15809E-01  2.71457E-01 -1.55648E-01
    8987.527     -7.790  -0.160  1.19728E-01  2.82850E-01 -1.63122E-01
    8987.570     -7.747  -0.120  1.22860E-01  2.91858E-01 -1.68997E-01
    8987.600     -7.716  -0.080  1.25147E-01  2.98350E-01 -1.73203E-01
    8987.625     -7.692   0.000  1.27028E-01  3.03567E-01 -1.76539E-01
    8987.680     -7.637   0.120  1.31105E-01  3.15335E-01 -1.84230E-01
    8987.722     -7.594   0.160  1.34260E-01  3.24471E-01 -1.90211E-01
    8987.777     -7.540   0.200  1.38323E-01  3.36164E-01 -1.97842E-01
    8987.844     -7.473   0.240  1.43178E-01  3.50220E-01 -2.07043E-01
    8987.923     -7.393   0.280  1.48808E-01  3.66408E-01 -2.17600E-01
    8988.015     -7.302   0.320  1.54990E-01  3.84264E-01 -2.29275E-01
    8988.119     -7.198   0.360  1.61569E-01  4.03331E-01 -2.41761E-01
    8988.234     -7.082   0.400  1.68355E-01  4.23056E-01 -2.54701E-01
    8988.362     -6.954   0.440  1.75231E-01  4.42936E-01 -2.67705E-01
    8988.503     -6.814   0.480  1.82210E-01  4.62592E-01 -2.80382E-01
    8988.655     -6.662   0.520  1.89377E-01  4.81784E-01 -2.92407E-01
    8988.820     -6.497   0.560  1.96757E-01  5.00383E-01 -3.03626E-01
    8988.996     -6.320   0.600  2.04138E-01  5.18357E-01 -3.14219E-01
    8989.185     -6.131   0.640  2.11188E-01  5.35758E-01 -3.24570E-01
    8989.387     -5.930   0.680  2.17493E-01  5.52634E-01 -3.35141E-01
    8989.600     -5.717   0.720  2.22769E-01  5.69104E-01 -3.46335E-01
    8989.825     -5.491   0.760  2.27062E-01  5.85246E-01 -3.58184E-01
    8990.063     -5.254   0.800  2.31451E-01  6.01107E-01 -3.69657E-01
    8990.313     -5.004   0.840  2.38155E-01  6.16745E-01 -3.78590E-01
    8990.575     -4.742   0.880  2.49552E-01  6.32222E-01 -3.82670E-01
    8990.850     -4.467   0.920  2.66799E-01  6.47569E-01 -3.80770E-01
    8991.136     -4.181   0.960  2.89296E-01  6.62783E-01 -3.73487E-01
    8991.435     -3.882   1.000  3.15799E-01  6.77875E-01 -3.62075E-01
    8991.746     -3.571   1.040  3.46034E-01  6.92864E-01 -3.46830E-01
    8992.069     -3.248   1.080  3.80519E-01  7.07723E-01 -3.27204E-01
    8992.404     -2.913   1.120  4.18570E-01  7.22419E-01 -3.03849E-01
    8992.751     -2.565   1.160  4.58736E-01  7.36976E-01 -2.78240E-01
    8993.111     -2.206   1.200  5.02572E-01  7.51331E-01 -2.48759E-01
    8993.483     -1.834   1.240  5.55438E-01  7.65480E-01 -2.10042E-01
    8993.867     -1.450   1.280  6.21652E-01  7.79376E-01 -1.57724E-01
    8994.263     -1.054   1.320  6.98446E-01  7.93012E-01 -9.45659E-02
    8994.672     -0.645   1.360  7.72998E-01  8.06339E-01 -3.33414E-02
    8995.092     -0.224   1.400  8.30581E-01  8.19346E-01  1.12342E-02
    8995.525      0.208   1.440  8.65338E-01  8.31985E-01  3.33522E-02
    8995.970      0.653   1.480  8.82596E-01  8.44267E-01  3.83285E-02
    8996.427      1.111   1.520  8.99548E-01  8.56121E-01  4.34277E-02
    8996.897      1.580   1.560  9.33959E-01  8.67579E-01  6.63800E-02
    8997.378      2.062   1.600  9.88038E-01  8.78574E-01  1.09464E-01
    8997.872      2.555   1.640  1.04904E+00  8.89101E-01  1.59938E-01
    8998.378      3.061   1.680  1.10357E+00  8.99174E-01  2.04394E-01
    8998.896      3.579   1.720  1.15302E+00  9.08749E-01  2.44273E-01
    8999.427      4.110   1.760  1.21407E+00  9.17843E-01  2.96228E-01
    8999.969      4.652   1.800  1.30145E+00  9.26435E-01  3.75016E-01
    9000.524      5.207   1.840  1.39991E+00  9.34526E-01  4.65382E-01
    9001.091      5.774   1.880  1.46823E+00  9.42116E-01  5.26114E-01
    9001.670      6.353   1.920  1.48696E+00  9.49228E-01  5.37735E-01
    9002.261      6.944   1.960  1.46920E+00  9.55847E-01  5.13352E-01
    9002.865      7.548   2.000  1.42992E+00  9.61976E-01  4.67942E-01
    9003.480      8.164   2.040  1.37281E+00  9.67661E-01  4.05151E-01
    9004.108      8.791   2.080  1.29833E+00  9.72867E-01  3.25459E-01
    9004.748      9.432   2.120  1.21542E+00  9.77623E-01  2.37800E-01
    9005.401     10.084   2.160  1.13812E+00  9.81956E-01  1.56164E-01
    9006.065     10.748   2.200  1.07711E+00  9.85875E-01  9.12386E-02
    9006.742     11.425   2.240  1.02831E+00  9.89410E-01  3.89014E-02
    9007.431     12.114   2.280  9.84733E-01  9.92548E-01 -7.81445E-03
    9008.132     12.815   2.320  9.51315E-01  9.95340E-01 -4.40248E-02
    9008.845     13.528   2.360  9.30443E-01  9.97774E-01 -6.73313E-02
    9009.570     14.253   2.400  9.16494E-01  9.99902E-01 -8.34076E-02
    9010.308     14.991   2.440  9.07600E-01  1.00171E+00 -9.41134E-02
    9011.058     15.741   2.480  9.06516E-01  1.00326E+00 -9.67410E-02
    9011.820     16.503   2.520  9.14665E-01  1.00450E+00 -8.98372E-02
    9012.594     17.277   2.560  9.33695E-01  1.00552E+00 -7.18262E-02
    9013.380     18.063   2.600  9.65157E-01  1.00632E+00 -4.11660E-02
    9014.179     18.862   2.640  9.98861E-01  1.00690E+00 -8.03586E-03
    9014.990     19.673   2.680  1.01972E+00  1.00729E+00  1.24295E-02
    9015.813     20.496   2.720  1.02814E+00  1.00752E+00  2.06216E-02
    9016.648     21.331   2.760  1.02635E+00  1.00758E+00  1.87691E-02
    9017.495     22.178   2.800  1.01738E+00  1.00748E+00  9.90045E-03
    9018.355     23.038   2.840  1.00406E+00  1.00727E+00 -3.20969E-03
    9019.226     23.909   2.880  9.88394E-01  1.00695E+00 -1.85575E-02
    9020.110     24.793   2.920  9.71344E-01  1.00655E+00 -3.52011E-02
    9021.006     25.690   2.960  9.53816E-01  1.00603E+00 -5.22183E-02
    9021.915     26.598   3.000  9.36677E-01  1.00547E+00 -6.87887E-02
    9022.835     27.518   3.040  9.20869E-01  1.00483E+00 -8.39561E-02
    9023.768     28.451   3.080  9.07528E-01  1.00414E+00 -9.66104E-02
    9024.713     29.396   3.120  8.97222E-01  1.00341E+00 -1.06189E-01
    9025.670     30.353   3.160  8.90062E-01  1.00267E+00 -1.12608E-01
    9026.639     31.322   3.200  8.85858E-01  1.00190E+00 -1.16039E-01
    9027.620     32.304   3.240  8.84496E-01  1.00112E+00 -1.16624E-01
    9028.614     33.297   3.280  8.85853E-01  1.00036E+00 -1.14509E-01
    9029.620     34.303   3.320  8.89950E-01  9.99582E-01 -1.09632E-01
    9030.638     35.321   3.360  8.96876E-01  9.98807E-01 -1.01931E-01
    9031.668     36.351   3.400  9.06562E-01  9.98061E-01 -9.14991E-02
    9032.711     37.394   3.440  9.18735E-01  9.97348E-01 -7.86132E-02
    9033.765     38.448   3.480  9.33127E-01  9.96667E-01 -6.35407E-02
    9034.832     39.515   3.520  9.49255E-01  9.96002E-01 -4.67466E-02
    9035.911     40.594   3.560  9.66437E-01  9.95372E-01 -2.89357E-02
    9037.002     41.685   3.600  9.83703E-01  9.94783E-01 -1.10793E-02
    9038.106     42.789   3.640  9.99882E-01  9.94256E-01  5.62615E-03
    9039.221     43.904   3.680  1.01363E+00  9.93750E-01  1.98783E-02
    9040.349     45.032   3.720  1.02402E+00  9.93305E-01  3.07150E-02
    9041.489     46.172   3.760  1.03069E+00  9.92885E-01  3.78067E-02
    9042.641     47.324   3.800  1.03401E+00  9.92551E-01  4.14600E-02
    9043.805     48.488   3.840  1.03467E+00  9.92241E-01  4.24310E-02
    9044.982     49.665   3.880  1.03362E+00  9.91996E-01  4.16258E-02
    9046.171     50.854   3.920  1.03160E+00  9.91795E-01  3.98072E-02
    9047.371     52.055   3.960  1.02916E+00  9.91639E-01  3.75206E-02
    9048.585     53.268   4.000  1.02667E+00  9.91526E-01  3.51422E-02
    9049.810     54.493   4.040  1.02440E+00  9.91480E-01  3.29198E-02
    9051.047     55.730   4.080  1.02256E+00  9.91478E-01  3.10841E-02
    9052.297     56.980   4.120  1.02140E+00  9.91518E-01  2.98791E-02
    9053.559     58.242   4.160  1.02115E+00  9.91602E-01  2.95522E-02
    9054.833     59.516   4.200  1.02196E+00  9.91748E-01  3.02076E-02
    9056.119     60.802   4.240  1.02370E+00  9.91915E-01  3.17829E-02
    9057.418     62.101   4.280  1.02623E+00  9.92142E-01  3.40896E-02
    9058.728     63.411   4.320  1.02918E+00  9.92387E-01  3.67960E-02
    9060.051     64.734   4.360  1.03207E+00  9.92691E-01  3.93743E-02
    9061.386     66.069   4.400  1.03417E+00  9.93009E-01  4.11563E-02
    9062.733     67.416   4.440  1.03499E+00  9.93361E-01  4.16330E-02
    9064.093     68.776   4.480  1.03437E+00  9.93723E-01  4.06434E-02
    9065.464     70.147   4.520  1.03260E+00  9.94118E-01  3.84863E-02
    9066.848     71.531   4.560  1.03032E+00  9.94545E-01  3.57763E-02
    9068.244     72.927   4.600  1.02810E+00  9.94979E-01  3.31188E-02
    9069.652     74.335   4.640  1.02633E+00  9.95441E-01  3.08911E-02
    9071.073     75.756   4.680  1.02508E+00  9.95885E-01  2.91961E-02
    9072.505     77.188   4.720  1.02426E+00  9.96356E-01  2.79074E-02
    9073.950     78.633   4.760  1.02364E+00  9.96851E-01  2.67912E-02
    9075.407     80.090   4.800  1.02289E+00  9.97324E-01  2.55676E-02
    9076.876     81.559   4.840  1.02173E+00  9.97794E-01  2.39355E-02
    9078.357     83.040   4.880  1.01990E+00  9.98262E-01  2.16420E-02
    9079.851     84.534   4.920  1.01720E+00  9.98727E-01  1.84715E-02
    9081.356     86.040   4.960  1.01334E+00  9.99186E-01  1.41534E-02
    9082.874     87.558   5.000  1.00796E+00  9.99617E-01  8.34594E-03
    9084.404     89.088   5.040  1.00088E+00  1.00004E+00  8.40649E-04
    9085.947     90.630   5.080  9.92262E-01  1.00046E+00 -8.19440E-03
    9087.501     92.184   5.120  9.82643E-01  1.00084E+00 -1.81973E-02
    9089.068     93.751   5.160  9.72740E-01  1.00121E+00 -2.84737E-02
    9090.647     95.330   5.200  9.63168E-01  1.00155E+00 -3.83836E-02
    9092.238     96.921   5.240  9.54454E-01  1.00185E+00 -4.73977E-02
    9093.841     98.524   5.280  9.47096E-01  1.00212E+00 -5.50206E-02
    9095.456    100.140   5.320  9.41548E-01  1.00237E+00 -6.08186E-02
    9097.084    101.767   5.360  9.38086E-01  1.00258E+00 -6.44952E-02
    9098.724    103.407   5.400  9.36777E-01  1.00276E+00 -6.59811E-02
    9100.376    105.059   5.440  9.37556E-01  1.00292E+00 -6.53613E-02
    9102.040    106.723   5.480  9.40249E-01  1.00301E+00 -6.27655E-02
    9103.717    108.400   5.520  9.44773E-01  1.00307E+00 -5.82994E-02
    9105.405    110.088   5.560  9.50903E-01  1.00311E+00 -5.22098E-02
    9107.106    111.789   5.600  9.58128E-01  1.00309E+00 -4.49648E-02
    9108.819    113.502   5.640  9.65858E-01  1.00305E+00 -3.71965E-02
    9110.544    115.227   5.680  9.73487E-01  1.00298E+00 -2.94900E-02
    9112.281    116.965   5.720  9.80651E-01  1.00284E+00 -2.21851E-02
    9114.031    118.714   5.760  9.87375E-01  1.00268E+00 -1.53045E-02
    9115.793    120.476   5.800  9.93770E-01  1.00249E+00 -8.71582E-03
    9117.567    122.250   5.840  9.99923E-01  1.00225E+00 -2.33060E-03
    9119.353    124.036   5.880  1.00580E+00  1.00199E+00  3.81111E-03
    9121.151    125.834   5.920  1.01130E+00  1.00168E+00  9.61844E-03
    9122.962    127.645   5.960  1.01642E+00  1.00134E+00  1.50766E-02
    9124.784    129.467   6.000  1.02133E+00  1.00097E+00  2.03576E-02
