# # comment:                                                     FEFF 9.9.1  
# # Source:
# # Structure
# # Reduced
# # space
# # abc:
# # angles:
# # sites:
# # POT  SCF 100  7.0000   0, screened core-hole, AFOLP (folp(0)= 1.150)
# # Abs   Z=29 Rmt= 1.389 Rnm= 1.444 K  shell
# # Pot 1 Z=29 Rmt= 1.388 Rnm= 1.443
# # Pot 2 Z= 6 Rmt= 0.817 Rnm= 1.000
# # Pot 3 Z= 8 Rmt= 0.680 Rnm= 0.996
# # Gam_ch=1.729E+00 H-L exch Vi= 0.000E+00 Vr= 0.000E+00
# # Mu=-7.961E+00eV kf=2.002E+00 Vint=-1.509E+01eV Rs_int= 1.812
# FMS rfms= 9.0000
# # PATH  Rmax=-1.000,  Keep_limit= 0.00, Heap_limit 0.00  Pwcrit= 2.50%
#  S02=0.950  Temp=   0.00  Debye_temp=   0.00  Global_sig2= 0.00000
#  Energy zero shift, vr, vi    0.00000E+00   0.00000E+00
#  Curved wave amplitude ratio filter   4.000%
#     file         sig2 tot  cw amp ratio   deg  nlegs   reff  inp sig2
#     0/   0 paths used
#  xsedge+ 50, used to normalize mu           2.4523E-04
#  -----------------------------------------------------------------------
#  omega    e    k    mu    mu0     chi     @#
    8984.329    -11.771  -1.000  5.03699E-02  5.78282E-02 -7.45833E-03
    8984.628    -11.473  -0.960  5.39380E-02  6.21314E-02 -8.19346E-03
    8984.914    -11.186  -0.920  5.79035E-02  6.69180E-02 -9.01454E-03
    8985.189    -10.912  -0.880  6.23260E-02  7.22590E-02 -9.93300E-03
    8985.451    -10.650  -0.840  6.72752E-02  7.82371E-02 -1.09619E-02
    8985.701    -10.400  -0.800  7.28321E-02  8.49481E-02 -1.21160E-02
    8985.938    -10.162  -0.760  7.90899E-02  9.25018E-02 -1.34119E-02
    8986.164     -9.936  -0.720  8.61541E-02  1.01022E-01 -1.48680E-02
    8986.377     -9.723  -0.680  9.41411E-02  1.10645E-01 -1.65041E-02
    8986.578     -9.522  -0.640  1.03175E-01  1.21515E-01 -1.83407E-02
    8986.767     -9.333  -0.600  1.13376E-01  1.33773E-01 -2.03974E-02
    8986.944     -9.156  -0.560  1.24850E-01  1.47540E-01 -2.26899E-02
    8987.109     -8.991  -0.520  1.37660E-01  1.62886E-01 -2.52265E-02
    8987.261     -8.839  -0.480  1.51794E-01  1.79796E-01 -2.80019E-02
    8987.401     -8.699  -0.440  1.67131E-01  1.98122E-01 -3.09914E-02
    8987.529     -8.571  -0.400  1.83401E-01  2.17545E-01 -3.41447E-02
    8987.645     -8.455  -0.360  2.00182E-01  2.37567E-01 -3.73850E-02
    8987.749     -8.351  -0.320  2.16924E-01  2.57537E-01 -4.06127E-02
    8987.840     -8.260  -0.280  2.33017E-01  2.76734E-01 -4.37170E-02
    8987.920     -8.181  -0.240  2.47871E-01  2.94461E-01 -4.65895E-02
    8987.987     -8.114  -0.200  2.60998E-01  3.10135E-01 -4.91373E-02
    8988.042     -8.059  -0.160  2.72038E-01  3.23327E-01 -5.12888E-02
    8988.084     -8.016  -0.120  2.80764E-01  3.33760E-01 -5.29951E-02
    8988.115     -7.986  -0.080  2.87051E-01  3.41278E-01 -5.42272E-02
    8988.139     -7.961   0.000  2.92100E-01  3.47320E-01 -5.52201E-02
    8988.194     -7.906   0.120  3.03434E-01  3.60946E-01 -5.75118E-02
    8988.237     -7.864   0.160  3.12252E-01  3.71553E-01 -5.93012E-02
    8988.291     -7.809   0.200  3.23487E-01  3.85097E-01 -6.16100E-02
    8988.359     -7.742   0.240  3.37001E-01  4.01426E-01 -6.44256E-02
    8988.438     -7.663   0.280  3.52445E-01  4.20172E-01 -6.77278E-02
    8988.529     -7.571   0.320  3.69439E-01  4.40919E-01 -7.14805E-02
    8988.633     -7.467   0.360  3.87435E-01  4.63077E-01 -7.56419E-02
    8988.749     -7.352   0.400  4.05813E-01  4.85993E-01 -8.01799E-02
    8988.877     -7.224   0.440  4.24019E-01  5.09109E-01 -8.50895E-02
    8989.017     -7.083   0.480  4.41560E-01  5.31968E-01 -9.04077E-02
    8989.169     -6.931   0.520  4.58059E-01  5.54269E-01 -9.62099E-02
    8989.334     -6.766   0.560  4.73237E-01  5.75836E-01 -1.02598E-01
    8989.511     -6.590   0.600  4.86979E-01  5.96645E-01 -1.09665E-01
    8989.700     -6.401   0.640  4.99257E-01  6.16704E-01 -1.17447E-01
    8989.901     -6.200   0.680  5.10167E-01  6.36062E-01 -1.25894E-01
    8990.114     -5.986   0.720  5.19975E-01  6.54817E-01 -1.34842E-01
    8990.340     -5.761   0.760  5.28998E-01  6.73007E-01 -1.44008E-01
    8990.577     -5.523   0.800  5.37678E-01  6.90700E-01 -1.53022E-01
    8990.827     -5.273   0.840  5.46496E-01  7.07929E-01 -1.61433E-01
    8991.090     -5.011   0.880  5.55886E-01  7.24714E-01 -1.68828E-01
    8991.364     -4.736   0.920  5.66062E-01  7.41080E-01 -1.75018E-01
    8991.650     -4.450   0.960  5.76791E-01  7.57041E-01 -1.80250E-01
    8991.949     -4.151   1.000  5.87224E-01  7.72540E-01 -1.85315E-01
    8992.260     -3.840   1.040  5.96434E-01  7.87592E-01 -1.91157E-01
    8992.583     -3.517   1.080  6.03951E-01  8.02166E-01 -1.98214E-01
    8992.918     -3.182   1.120  6.10389E-01  8.16249E-01 -2.05859E-01
    8993.266     -2.835   1.160  6.17304E-01  8.29801E-01 -2.12497E-01
    8993.625     -2.475   1.200  6.26544E-01  8.42823E-01 -2.16279E-01
    8993.997     -2.103   1.240  6.39444E-01  8.55272E-01 -2.15828E-01
    8994.381     -1.719   1.280  6.56576E-01  8.67127E-01 -2.10551E-01
    8994.778     -1.323   1.320  6.77956E-01  8.78366E-01 -2.00410E-01
    8995.186     -0.914   1.360  7.02943E-01  8.89011E-01 -1.86068E-01
    8995.607     -0.494   1.400  7.29791E-01  8.99021E-01 -1.69230E-01
    8996.039     -0.061   1.440  7.56362E-01  9.08398E-01 -1.52036E-01
    8996.484      0.384   1.480  7.81535E-01  9.17128E-01 -1.35593E-01
    8996.942      0.841   1.520  8.06141E-01  9.25257E-01 -1.19116E-01
    8997.411      1.311   1.560  8.32240E-01  9.32771E-01 -1.00531E-01
    8997.893      1.792   1.600  8.61921E-01  9.39679E-01 -7.77583E-02
    8998.386      2.286   1.640  8.96210E-01  9.45993E-01 -4.97834E-02
    8998.892      2.792   1.680  9.34616E-01  9.51744E-01 -1.71280E-02
    8999.411      3.310   1.720  9.75596E-01  9.56965E-01  1.86316E-02
    8999.941      3.841   1.760  1.01742E+00  9.61649E-01  5.57756E-02
    9000.483      4.383   1.800  1.05824E+00  9.65851E-01  9.23868E-02
    9001.038      4.938   1.840  1.09455E+00  9.69587E-01  1.24968E-01
    9001.605      5.505   1.880  1.12117E+00  9.72871E-01  1.48295E-01
    9002.184      6.084   1.920  1.13487E+00  9.75757E-01  1.59112E-01
    9002.776      6.675   1.960  1.13687E+00  9.78263E-01  1.58610E-01
    9003.379      7.279   2.000  1.12955E+00  9.80405E-01  1.49146E-01
    9003.995      7.894   2.040  1.11423E+00  9.82238E-01  1.31995E-01
    9004.623      8.522   2.080  1.09253E+00  9.83777E-01  1.08756E-01
    9005.263      9.162   2.120  1.06748E+00  9.85057E-01  8.24254E-02
    9005.915      9.815   2.160  1.04315E+00  9.86091E-01  5.70601E-02
    9006.579     10.479   2.200  1.02656E+00  9.86911E-01  3.96512E-02
    9007.256     11.156   2.240  1.02197E+00  9.87553E-01  3.44209E-02
    9007.945     11.845   2.280  1.02724E+00  9.88028E-01  3.92097E-02
    9008.646     12.546   2.320  1.03705E+00  9.88347E-01  4.87007E-02
    9009.359     13.259   2.360  1.04713E+00  9.88561E-01  5.85701E-02
    9010.085     13.984   2.400  1.05610E+00  9.88660E-01  6.74439E-02
    9010.822     14.722   2.440  1.05743E+00  9.88675E-01  6.87528E-02
    9011.572     15.472   2.480  1.05399E+00  9.88633E-01  6.53610E-02
    9012.334     16.234   2.520  1.04539E+00  9.88544E-01  5.68481E-02
    9013.108     17.008   2.560  1.03235E+00  9.88412E-01  4.39371E-02
    9013.895     17.794   2.600  1.01612E+00  9.88246E-01  2.78770E-02
    9014.693     18.593   2.640  9.98693E-01  9.88073E-01  1.06200E-02
    9015.504     19.404   2.680  9.82012E-01  9.87898E-01 -5.88588E-03
    9016.327     20.227   2.720  9.67663E-01  9.87746E-01 -2.00834E-02
    9017.162     21.062   2.760  9.57084E-01  9.87600E-01 -3.05167E-02
    9018.009     21.909   2.800  9.50645E-01  9.87464E-01 -3.68194E-02
    9018.869     22.769   2.840  9.48263E-01  9.87383E-01 -3.91200E-02
    9019.741     23.640   2.880  9.49243E-01  9.87320E-01 -3.80766E-02
    9020.625     24.524   2.920  9.52483E-01  9.87295E-01 -3.48114E-02
    9021.521     25.420   2.960  9.57018E-01  9.87332E-01 -3.03145E-02
    9022.429     26.329   3.000  9.62080E-01  9.87413E-01 -2.53331E-02
    9023.349     27.249   3.040  9.67369E-01  9.87537E-01 -2.01674E-02
    9024.282     28.182   3.080  9.72909E-01  9.87706E-01 -1.47971E-02
    9025.227     29.127   3.120  9.78982E-01  9.87941E-01 -8.95842E-03
    9026.184     30.084   3.160  9.85956E-01  9.88221E-01 -2.26486E-03
    9027.153     31.053   3.200  9.93980E-01  9.88547E-01  5.43270E-03
    9028.135     32.034   3.240  1.00279E+00  9.88939E-01  1.38522E-02
    9029.128     33.028   3.280  1.01190E+00  9.89374E-01  2.25214E-02
    9030.134     34.034   3.320  1.02056E+00  9.89853E-01  3.07102E-02
    9031.152     35.052   3.360  1.02799E+00  9.90375E-01  3.76134E-02
    9032.182     36.082   3.400  1.03338E+00  9.90960E-01  4.24180E-02
    9033.225     37.125   3.440  1.03597E+00  9.91562E-01  4.44080E-02
    9034.279     38.179   3.480  1.03534E+00  9.92203E-01  4.31368E-02
    9035.346     39.246   3.520  1.03139E+00  9.92903E-01  3.84865E-02
    9036.425     40.325   3.560  1.02428E+00  9.93618E-01  3.06670E-02
    9037.516     41.416   3.600  1.01449E+00  9.94365E-01  2.01209E-02
    9038.620     42.520   3.640  1.00276E+00  9.95122E-01  7.63567E-03
    9039.735     43.635   3.680  9.89979E-01  9.95908E-01 -5.92905E-03
    9040.863     44.763   3.720  9.76982E-01  9.96701E-01 -1.97195E-02
    9042.003     45.903   3.760  9.64603E-01  9.97521E-01 -3.29177E-02
    9043.155     47.055   3.800  9.53627E-01  9.98343E-01 -4.47164E-02
    9044.320     48.219   3.840  9.44806E-01  9.99165E-01 -5.43587E-02
    9045.496     49.396   3.880  9.38714E-01  9.99984E-01 -6.12697E-02
    9046.685     50.585   3.920  9.35683E-01  1.00078E+00 -6.50942E-02
    9047.886     51.785   3.960  9.35737E-01  1.00159E+00 -6.58484E-02
    9049.099     52.999   4.000  9.38371E-01  1.00236E+00 -6.39936E-02
    9050.324     54.224   4.040  9.42756E-01  1.00311E+00 -6.03565E-02
    9051.562     55.461   4.080  9.48003E-01  1.00387E+00 -5.58667E-02
    9052.811     56.711   4.120  9.53382E-01  1.00457E+00 -5.11911E-02
    9054.073     57.973   4.160  9.58616E-01  1.00526E+00 -4.66438E-02
    9055.347     59.247   4.200  9.63713E-01  1.00591E+00 -4.21951E-02
    9056.633     60.533   4.240  9.68924E-01  1.00652E+00 -3.75959E-02
    9057.932     61.832   4.280  9.74560E-01  1.00711E+00 -3.25512E-02
    9059.243     63.142   4.320  9.80753E-01  1.00764E+00 -2.68869E-02
    9060.565     64.465   4.360  9.87381E-01  1.00812E+00 -2.07427E-02
    9061.900     65.800   4.400  9.94033E-01  1.00856E+00 -1.45307E-02
    9063.248     67.147   4.440  1.00028E+00  1.00896E+00 -8.67591E-03
    9064.607     68.507   4.480  1.00596E+00  1.00931E+00 -3.35114E-03
    9065.979     69.878   4.520  1.01128E+00  1.00962E+00  1.65283E-03
    9067.362     71.262   4.560  1.01668E+00  1.00989E+00  6.79182E-03
    9068.758     72.658   4.600  1.02260E+00  1.01008E+00  1.25148E-02
    9070.167     74.066   4.640  1.02936E+00  1.01023E+00  1.91288E-02
    9071.587     75.487   4.680  1.03706E+00  1.01033E+00  2.67251E-02
    9073.019     76.919   4.720  1.04564E+00  1.01039E+00  3.52544E-02
    9074.464     78.364   4.760  1.05499E+00  1.01038E+00  4.46070E-02
    9075.921     79.821   4.800  1.06507E+00  1.01035E+00  5.47286E-02
    9077.390     81.290   4.840  1.07596E+00  1.01025E+00  6.57072E-02
    9078.872     82.771   4.880  1.08780E+00  1.01011E+00  7.76923E-02
    9080.365     84.265   4.920  1.10044E+00  1.00995E+00  9.04911E-02
    9081.871     85.770   4.960  1.11276E+00  1.00972E+00  1.03034E-01
    9083.389     87.288   5.000  1.12252E+00  1.00946E+00  1.13061E-01
    9084.919     88.818   5.040  1.12657E+00  1.00917E+00  1.17395E-01
    9086.461     90.361   5.080  1.12196E+00  1.00883E+00  1.13131E-01
    9088.016     91.915   5.120  1.10768E+00  1.00847E+00  9.92105E-02
    9089.582     93.482   5.160  1.08533E+00  1.00808E+00  7.72564E-02
    9091.161     95.061   5.200  1.05859E+00  1.00767E+00  5.09235E-02
    9092.752     96.652   5.240  1.03148E+00  1.00723E+00  2.42513E-02
    9094.355     98.255   5.280  1.00690E+00  1.00676E+00  1.40093E-04
    9095.971     99.870   5.320  9.86023E-01  1.00627E+00 -2.02518E-02
    9097.598    101.498   5.360  9.68327E-01  1.00579E+00 -3.74602E-02
    9099.238    103.138   5.400  9.52193E-01  1.00530E+00 -5.31027E-02
    9100.890    104.790   5.440  9.35940E-01  1.00477E+00 -6.88349E-02
    9102.554    106.454   5.480  9.18838E-01  1.00425E+00 -8.54085E-02
    9104.231    108.130   5.520  9.01420E-01  1.00369E+00 -1.02273E-01
    9105.919    109.819   5.560  8.85371E-01  1.00316E+00 -1.17791E-01
    9107.620    111.520   5.600  8.72651E-01  1.00263E+00 -1.29981E-01
    9109.333    113.233   5.640  8.64767E-01  1.00210E+00 -1.37336E-01
    9111.058    114.958   5.680  8.62320E-01  1.00158E+00 -1.39256E-01
    9112.796    116.695   5.720  8.65262E-01  1.00105E+00 -1.35788E-01
    9114.545    118.445   5.760  8.73366E-01  1.00053E+00 -1.27161E-01
    9116.307    120.207   5.800  8.86382E-01  1.00001E+00 -1.13627E-01
    9118.081    121.981   5.840  9.03718E-01  9.99522E-01 -9.58040E-02
    9119.867    123.767   5.880  9.24316E-01  9.99045E-01 -7.47283E-02
    9121.665    125.565   5.920  9.47146E-01  9.98580E-01 -5.14336E-02
    9123.476    127.375   5.960  9.71328E-01  9.98161E-01 -2.68336E-02
    9125.298    129.198   6.000  9.96110E-01  9.97762E-01 -1.65235E-03
