# # comment:                                                     FEFF 9.9.1  
# # Source:
# # Structure
# # Reduced
# # space
# # abc:
# # angles:
# # sites:
# # POT  SCF 100  7.0000   0, screened core-hole, AFOLP (folp(0)= 1.150)
# # Abs   Z=29 Rmt= 1.239 Rnm= 1.341 K  shell
# # Pot 1 Z=19 Rmt= 1.971 Rnm= 2.032
# # Pot 2 Z=29 Rmt= 1.239 Rnm= 1.341
# # Pot 3 Z=16 Rmt= 0.856 Rnm= 1.104
# # Pot 4 Z= 8 Rmt= 1.017 Rnm= 1.109
# # Gam_ch=1.729E+00 H-L exch Vi= 0.000E+00 Vr= 0.000E+00
# # Mu=-7.347E+00eV kf=2.287E+00 Vint=-1.554E+01eV Rs_int= 1.586
# FMS rfms= 9.0000
# # PATH  Rmax=-1.000,  Keep_limit= 0.00, Heap_limit 0.00  Pwcrit= 2.50%
#  S02=0.950  Temp=   0.00  Debye_temp=   0.00  Global_sig2= 0.00000
#  Energy zero shift, vr, vi    0.00000E+00   0.00000E+00
#  Curved wave amplitude ratio filter   4.000%
#     file         sig2 tot  cw amp ratio   deg  nlegs   reff  inp sig2
#     0/   0 paths used
#  xsedge+ 50, used to normalize mu           2.4624E-04
#  -----------------------------------------------------------------------
#  omega    e    k    mu    mu0     chi     @#
    8983.472    -11.157  -1.000  3.51666E-02  5.25032E-02 -1.73366E-02
    8983.771    -10.858  -0.960  3.68136E-02  5.62677E-02 -1.94542E-02
    8984.057    -10.571  -0.920  3.85577E-02  6.04461E-02 -2.18884E-02
    8984.331    -10.297  -0.880  4.04056E-02  6.50988E-02 -2.46932E-02
    8984.594    -10.035  -0.840  4.23642E-02  7.02960E-02 -2.79318E-02
    8984.844     -9.785  -0.800  4.44409E-02  7.61191E-02 -3.16782E-02
    8985.081     -9.547  -0.760  4.66432E-02  8.26615E-02 -3.60183E-02
    8985.307     -9.322  -0.720  4.89789E-02  9.00286E-02 -4.10497E-02
    8985.520     -9.108  -0.680  5.14551E-02  9.83361E-02 -4.68810E-02
    8985.721     -8.907  -0.640  5.40782E-02  1.07706E-01 -5.36282E-02
    8985.910     -8.718  -0.600  5.68526E-02  1.18259E-01 -6.14069E-02
    8986.087     -8.541  -0.560  5.97786E-02  1.30097E-01 -7.03186E-02
    8986.252     -8.377  -0.520  6.28508E-02  1.43280E-01 -8.04293E-02
    8986.404     -8.224  -0.480  6.60543E-02  1.57794E-01 -9.17394E-02
    8986.544     -8.084  -0.440  6.93616E-02  1.73511E-01 -1.04149E-01
    8986.672     -7.956  -0.400  7.27293E-02  1.90159E-01 -1.17430E-01
    8986.788     -7.840  -0.360  7.60974E-02  2.07312E-01 -1.31215E-01
    8986.892     -7.737  -0.320  7.93921E-02  2.24414E-01 -1.45022E-01
    8986.983     -7.645  -0.280  8.25310E-02  2.40848E-01 -1.58317E-01
    8987.062     -7.566  -0.240  8.54321E-02  2.56020E-01 -1.70588E-01
    8987.130     -7.499  -0.200  8.80200E-02  2.69432E-01 -1.81413E-01
    8987.184     -7.444  -0.160  9.02297E-02  2.80719E-01 -1.90489E-01
    8987.227     -7.401  -0.120  9.20086E-02  2.89644E-01 -1.97636E-01
    8987.258     -7.371  -0.080  9.33167E-02  2.96077E-01 -2.02760E-01
    8987.282     -7.347   0.000  9.44095E-02  3.01246E-01 -2.06836E-01
    8987.337     -7.292   0.120  9.70113E-02  3.12909E-01 -2.15898E-01
    8987.379     -7.249   0.160  9.89799E-02  3.21977E-01 -2.22997E-01
    8987.434     -7.194   0.200  1.01532E-01  3.33573E-01 -2.32042E-01
    8987.501     -7.127   0.240  1.04667E-01  3.47530E-01 -2.42863E-01
    8987.581     -7.048   0.280  1.08406E-01  3.63579E-01 -2.55173E-01
    8987.672     -6.956   0.320  1.12792E-01  3.81327E-01 -2.68535E-01
    8987.776     -6.853   0.360  1.17829E-01  4.00264E-01 -2.82435E-01
    8987.892     -6.737   0.400  1.23641E-01  4.19890E-01 -2.96249E-01
    8988.020     -6.609   0.440  1.30266E-01  4.39704E-01 -3.09438E-01
    8988.160     -6.469   0.480  1.37821E-01  4.59317E-01 -3.21496E-01
    8988.312     -6.316   0.520  1.46527E-01  4.78495E-01 -3.31968E-01
    8988.477     -6.152   0.560  1.56677E-01  4.97128E-01 -3.40451E-01
    8988.654     -5.975   0.600  1.68652E-01  5.15165E-01 -3.46514E-01
    8988.842     -5.786   0.640  1.83017E-01  5.32657E-01 -3.49641E-01
    8989.044     -5.585   0.680  2.00447E-01  5.49689E-01 -3.49242E-01
    8989.257     -5.372   0.720  2.21582E-01  5.66339E-01 -3.44757E-01
    8989.483     -5.146   0.760  2.46969E-01  5.82660E-01 -3.35691E-01
    8989.720     -4.908   0.800  2.77050E-01  5.98740E-01 -3.21691E-01
    8989.970     -4.658   0.840  3.11962E-01  6.14611E-01 -3.02649E-01
    8990.232     -4.396   0.880  3.51129E-01  6.30354E-01 -2.79225E-01
    8990.507     -4.122   0.920  3.92654E-01  6.45960E-01 -2.53306E-01
    8990.793     -3.835   0.960  4.33903E-01  6.61463E-01 -2.27560E-01
    8991.092     -3.537   1.000  4.73323E-01  6.76850E-01 -2.03527E-01
    8991.403     -3.226   1.040  5.11231E-01  6.92121E-01 -1.80890E-01
    8991.726     -2.903   1.080  5.48051E-01  7.07267E-01 -1.59216E-01
    8992.061     -2.567   1.120  5.81789E-01  7.22292E-01 -1.40503E-01
    8992.409     -2.220   1.160  6.07107E-01  7.37139E-01 -1.30032E-01
    8992.768     -1.860   1.200  6.19601E-01  7.51783E-01 -1.32182E-01
    8993.140     -1.488   1.240  6.22197E-01  7.66221E-01 -1.44024E-01
    8993.524     -1.104   1.280  6.23469E-01  7.80403E-01 -1.56933E-01
    8993.920     -0.708   1.320  6.28564E-01  7.94319E-01 -1.65755E-01
    8994.329     -0.300   1.360  6.36112E-01  8.07902E-01 -1.71790E-01
    8994.749      0.121   1.400  6.42585E-01  8.21160E-01 -1.78575E-01
    8995.182      0.554   1.440  6.46510E-01  8.34021E-01 -1.87511E-01
    8995.627      0.999   1.480  6.50650E-01  8.46517E-01 -1.95867E-01
    8996.084      1.456   1.520  6.59097E-01  8.58578E-01 -1.99482E-01
    8996.554      1.925   1.560  6.74869E-01  8.70195E-01 -1.95325E-01
    8997.035      2.407   1.600  7.03935E-01  8.81340E-01 -1.77405E-01
    8997.529      2.901   1.640  7.51741E-01  8.92027E-01 -1.40286E-01
    8998.035      3.407   1.680  8.20334E-01  9.02211E-01 -8.18772E-02
    8998.553      3.925   1.720  9.09046E-01  9.11889E-01 -2.84201E-03
    8999.084      4.455   1.760  1.00878E+00  9.21056E-01  8.77221E-02
    8999.626      4.998   1.800  1.10547E+00  9.29713E-01  1.75761E-01
    9000.181      5.552   1.840  1.19035E+00  9.37860E-01  2.52489E-01
    9000.748      6.119   1.880  1.26211E+00  9.45478E-01  3.16630E-01
    9001.327      6.699   1.920  1.32157E+00  9.52611E-01  3.68957E-01
    9001.918      7.290   1.960  1.36728E+00  9.59222E-01  4.08053E-01
    9002.522      7.893   2.000  1.39027E+00  9.65337E-01  4.24931E-01
    9003.138      8.509   2.040  1.38270E+00  9.70981E-01  4.11719E-01
    9003.765      9.137   2.080  1.34952E+00  9.76142E-01  3.73383E-01
    9004.406      9.777   2.120  1.29873E+00  9.80866E-01  3.17864E-01
    9005.058     10.429   2.160  1.23964E+00  9.85123E-01  2.54522E-01
    9005.722     11.094   2.200  1.18441E+00  9.88983E-01  1.95425E-01
    9006.399     11.770   2.240  1.14350E+00  9.92433E-01  1.51063E-01
    9007.088     12.459   2.280  1.12163E+00  9.95483E-01  1.26149E-01
    9007.789     13.160   2.320  1.11454E+00  9.98184E-01  1.16351E-01
    9008.502     13.873   2.360  1.11446E+00  1.00053E+00  1.13938E-01
    9009.227     14.599   2.400  1.11686E+00  1.00254E+00  1.14323E-01
    9009.965     15.337   2.440  1.11884E+00  1.00425E+00  1.14587E-01
    9010.715     16.086   2.480  1.11614E+00  1.00568E+00  1.10464E-01
    9011.477     16.848   2.520  1.10465E+00  1.00683E+00  9.78223E-02
    9012.251     17.622   2.560  1.08373E+00  1.00773E+00  7.60034E-02
    9013.037     18.409   2.600  1.05723E+00  1.00841E+00  4.88183E-02
    9013.836     19.207   2.640  1.03167E+00  1.00889E+00  2.27871E-02
    9014.647     20.018   2.680  1.01264E+00  1.00916E+00  3.47847E-03
    9015.470     20.841   2.720  1.00136E+00  1.00927E+00 -7.90868E-03
    9016.305     21.676   2.760  9.93980E-01  1.00924E+00 -1.52578E-02
    9017.152     22.524   2.800  9.88978E-01  1.00903E+00 -2.00529E-02
    9018.012     23.383   2.840  9.85340E-01  1.00872E+00 -2.33807E-02
    9018.883     24.255   2.880  9.80460E-01  1.00832E+00 -2.78556E-02
    9019.767     25.139   2.920  9.72124E-01  1.00780E+00 -3.56744E-02
    9020.663     26.035   2.960  9.59786E-01  1.00720E+00 -4.74132E-02
    9021.572     26.943   3.000  9.44455E-01  1.00652E+00 -6.20679E-02
    9022.492     27.864   3.040  9.27917E-01  1.00582E+00 -7.79012E-02
    9023.425     28.796   3.080  9.11995E-01  1.00505E+00 -9.30541E-02
    9024.370     29.741   3.120  8.98169E-01  1.00424E+00 -1.06071E-01
    9025.327     30.698   3.160  8.87157E-01  1.00342E+00 -1.16260E-01
    9026.296     31.668   3.200  8.79207E-01  1.00257E+00 -1.23359E-01
    9027.278     32.649   3.240  8.74345E-01  1.00171E+00 -1.27364E-01
    9028.271     33.643   3.280  8.72170E-01  1.00087E+00 -1.28705E-01
    9029.277     34.649   3.320  8.72218E-01  1.00004E+00 -1.27824E-01
    9030.295     35.667   3.360  8.74037E-01  9.99215E-01 -1.25178E-01
    9031.325     36.697   3.400  8.77030E-01  9.98395E-01 -1.21365E-01
    9032.368     37.739   3.440  8.80661E-01  9.97607E-01 -1.16945E-01
    9033.422     38.794   3.480  8.84785E-01  9.96855E-01 -1.12071E-01
    9034.489     39.861   3.520  8.89584E-01  9.96141E-01 -1.06557E-01
    9035.568     40.940   3.560  8.95291E-01  9.95465E-01 -1.00174E-01
    9036.659     42.031   3.600  9.02179E-01  9.94831E-01 -9.26521E-02
    9037.763     43.134   3.640  9.10450E-01  9.94238E-01 -8.37886E-02
    9038.878     44.250   3.680  9.20240E-01  9.93709E-01 -7.34683E-02
    9040.006     45.377   3.720  9.31571E-01  9.93203E-01 -6.16323E-02
    9041.146     46.517   3.760  9.44570E-01  9.92762E-01 -4.81914E-02
    9042.298     47.670   3.800  9.59102E-01  9.92366E-01 -3.32645E-02
    9043.462     48.834   3.840  9.74741E-01  9.92039E-01 -1.72981E-02
    9044.639     50.010   3.880  9.90898E-01  9.91756E-01 -8.58081E-04
    9045.828     51.199   3.920  1.00703E+00  9.91517E-01  1.55150E-02
    9047.029     52.400   3.960  1.02274E+00  9.91323E-01  3.14143E-02
    9048.242     53.613   4.000  1.03780E+00  9.91196E-01  4.66075E-02
    9049.467     54.838   4.040  1.05203E+00  9.91113E-01  6.09175E-02
    9050.704     56.076   4.080  1.06509E+00  9.91073E-01  7.40131E-02
    9051.954     57.326   4.120  1.07648E+00  9.91079E-01  8.53973E-02
    9053.216     58.587   4.160  1.08576E+00  9.91148E-01  9.46161E-02
    9054.490     59.862   4.200  1.09259E+00  9.91262E-01  1.01331E-01
    9055.776     61.148   4.240  1.09687E+00  9.91415E-01  1.05457E-01
    9057.075     62.446   4.280  1.09880E+00  9.91607E-01  1.07197E-01
    9058.385     63.757   4.320  1.09862E+00  9.91815E-01  1.06802E-01
    9059.708     65.080   4.360  1.09648E+00  9.92084E-01  1.04397E-01
    9061.043     66.415   4.400  1.09244E+00  9.92390E-01  1.00052E-01
    9062.390     67.762   4.440  1.08666E+00  9.92709E-01  9.39474E-02
    9063.750     69.121   4.480  1.07939E+00  9.93062E-01  8.63314E-02
    9065.121     70.493   4.520  1.07099E+00  9.93447E-01  7.75390E-02
    9066.505     71.877   4.560  1.06172E+00  9.93840E-01  6.78752E-02
    9067.901     73.273   4.600  1.05180E+00  9.94240E-01  5.75574E-02
    9069.309     74.681   4.640  1.04143E+00  9.94670E-01  4.67615E-02
    9070.730     76.101   4.680  1.03084E+00  9.95127E-01  3.57124E-02
    9072.162     77.534   4.720  1.02017E+00  9.95566E-01  2.46078E-02
    9073.607     78.978   4.760  1.00963E+00  9.96030E-01  1.36044E-02
    9075.064     80.435   4.800  9.99269E-01  9.96494E-01  2.77449E-03
    9076.533     81.905   4.840  9.89093E-01  9.96956E-01 -7.86355E-03
    9078.014     83.386   4.880  9.79220E-01  9.97395E-01 -1.81748E-02
    9079.508     84.879   4.920  9.69997E-01  9.97851E-01 -2.78543E-02
    9081.014     86.385   4.960  9.61830E-01  9.98283E-01 -3.64536E-02
    9082.532     87.903   5.000  9.55171E-01  9.98729E-01 -4.35582E-02
    9084.062     89.433   5.040  9.50118E-01  9.99127E-01 -4.90089E-02
    9085.604     90.975   5.080  9.46602E-01  9.99537E-01 -5.29349E-02
    9087.158     92.530   5.120  9.44307E-01  9.99916E-01 -5.56087E-02
    9088.725     94.096   5.160  9.43096E-01  1.00026E+00 -5.71646E-02
    9090.304     95.675   5.200  9.43158E-01  1.00059E+00 -5.74342E-02
    9091.895     97.266   5.240  9.44818E-01  1.00089E+00 -5.60716E-02
    9093.498     98.870   5.280  9.48338E-01  1.00115E+00 -5.28123E-02
    9095.114    100.485   5.320  9.53641E-01  1.00140E+00 -4.77554E-02
    9096.741    102.113   5.360  9.60268E-01  1.00158E+00 -4.13147E-02
    9098.381    103.753   5.400  9.67595E-01  1.00176E+00 -3.41614E-02
    9100.033    105.405   5.440  9.74897E-01  1.00191E+00 -2.70170E-02
    9101.697    107.069   5.480  9.81574E-01  1.00201E+00 -2.04363E-02
    9103.374    108.745   5.520  9.87426E-01  1.00207E+00 -1.46429E-02
    9105.062    110.434   5.560  9.92497E-01  1.00211E+00 -9.61396E-03
    9106.763    112.134   5.600  9.96872E-01  1.00211E+00 -5.24100E-03
    9108.476    113.847   5.640  1.00047E+00  1.00205E+00 -1.58467E-03
    9110.201    115.573   5.680  1.00287E+00  1.00198E+00  8.94266E-04
    9111.938    117.310   5.720  1.00366E+00  1.00186E+00  1.80117E-03
    9113.688    119.060   5.760  1.00254E+00  1.00171E+00  8.34378E-04
    9115.450    120.821   5.800  9.99581E-01  1.00152E+00 -1.93661E-03
    9117.224    122.595   5.840  9.95216E-01  1.00129E+00 -6.07181E-03
    9119.010    124.381   5.880  9.90135E-01  1.00102E+00 -1.08871E-02
    9120.808    126.180   5.920  9.85164E-01  1.00075E+00 -1.55833E-02
    9122.619    127.990   5.960  9.81064E-01  1.00041E+00 -1.93488E-02
    9124.441    129.813   6.000  9.78577E-01  1.00004E+00 -2.14673E-02
