# # comment:                                                     FEFF 9.9.1  
# # Source:
# # Structure
# # Reduced
# # space
# # abc:
# # angles:
# # sites:
# # POT  SCF 100  7.0000   0, screened core-hole, AFOLP (folp(0)= 1.150)
# # Abs   Z=29 Rmt= 1.202 Rnm= 1.330 K  shell
# # Pot 1 Z=29 Rmt= 1.222 Rnm= 1.347
# # Pot 2 Z= 8 Rmt= 1.001 Rnm= 1.128
# # Pot 3 Z= 9 Rmt= 1.047 Rnm= 1.137
# # Gam_ch=1.729E+00 H-L exch Vi= 0.000E+00 Vr= 0.000E+00
# # Mu=-6.586E+00eV kf=1.966E+00 Vint=-1.243E+01eV Rs_int= 1.845
# FMS rfms= 9.0000
# # PATH  Rmax=-1.000,  Keep_limit= 0.00, Heap_limit 0.00  Pwcrit= 2.50%
#  S02=0.950  Temp=   0.00  Debye_temp=   0.00  Global_sig2= 0.00000
#  Energy zero shift, vr, vi    0.00000E+00   0.00000E+00
#  Curved wave amplitude ratio filter   4.000%
#     file         sig2 tot  cw amp ratio   deg  nlegs   reff  inp sig2
#     0/   0 paths used
#  xsedge+ 50, used to normalize mu           2.4049E-04
#  -----------------------------------------------------------------------
#  omega    e    k    mu    mu0     chi     @#
    8983.300    -10.396  -1.000  3.43410E-02  5.73526E-02 -2.30116E-02
    8983.599    -10.098  -0.960  3.57777E-02  6.14611E-02 -2.56833E-02
    8983.886     -9.811  -0.920  3.72859E-02  6.60119E-02 -2.87261E-02
    8984.160     -9.537  -0.880  3.88704E-02  7.10683E-02 -3.21979E-02
    8984.422     -9.275  -0.840  4.05368E-02  7.67030E-02 -3.61662E-02
    8984.672     -9.025  -0.800  4.22914E-02  8.30004E-02 -4.07090E-02
    8984.910     -8.787  -0.760  4.41414E-02  9.00567E-02 -4.59153E-02
    8985.135     -8.561  -0.720  4.60947E-02  9.79802E-02 -5.18855E-02
    8985.349     -8.348  -0.680  4.81598E-02  1.06890E-01 -5.87298E-02
    8985.550     -8.147  -0.640  5.03451E-02  1.16910E-01 -6.65646E-02
    8985.739     -7.958  -0.600  5.26583E-02  1.28162E-01 -7.55038E-02
    8985.916     -7.781  -0.560  5.51043E-02  1.40750E-01 -8.56455E-02
    8986.080     -7.616  -0.520  5.76824E-02  1.54732E-01 -9.70499E-02
    8986.233     -7.464  -0.480  6.03826E-02  1.70092E-01 -1.09710E-01
    8986.373     -7.324  -0.440  6.31812E-02  1.86696E-01 -1.23515E-01
    8986.501     -7.196  -0.400  6.60374E-02  2.04261E-01 -1.38224E-01
    8986.617     -7.080  -0.360  6.88921E-02  2.22347E-01 -1.53454E-01
    8986.720     -6.976  -0.320  7.16718E-02  2.40378E-01 -1.68706E-01
    8986.812     -6.885  -0.280  7.42969E-02  2.57716E-01 -1.83419E-01
    8986.891     -6.806  -0.240  7.66922E-02  2.73742E-01 -1.97050E-01
    8986.958     -6.739  -0.200  7.87954E-02  2.87930E-01 -2.09135E-01
    8987.013     -6.684  -0.160  8.05609E-02  2.99891E-01 -2.19330E-01
    8987.056     -6.641  -0.120  8.19580E-02  3.09366E-01 -2.27408E-01
    8987.086     -6.611  -0.080  8.29675E-02  3.16206E-01 -2.33238E-01
    8987.110     -6.586   0.000  8.37865E-02  3.21711E-01 -2.37924E-01
    8987.165     -6.531   0.120  8.57795E-02  3.34142E-01 -2.48363E-01
    8987.208     -6.489   0.160  8.72564E-02  3.43841E-01 -2.56585E-01
    8987.263     -6.434   0.200  8.90998E-02  3.56255E-01 -2.67155E-01
    8987.330     -6.367   0.240  9.13023E-02  3.71281E-01 -2.79979E-01
    8987.409     -6.288   0.280  9.38131E-02  3.88660E-01 -2.94847E-01
    8987.501     -6.196   0.320  9.66010E-02  4.08050E-01 -3.11449E-01
    8987.604     -6.092   0.360  9.95724E-02  4.28928E-01 -3.29356E-01
    8987.720     -5.977   0.400  1.02728E-01  4.50840E-01 -3.48112E-01
    8987.848     -5.849   0.440  1.06125E-01  4.73288E-01 -3.67163E-01
    8987.988     -5.708   0.480  1.09839E-01  4.95914E-01 -3.86075E-01
    8988.141     -5.556   0.520  1.14024E-01  5.18446E-01 -4.04422E-01
    8988.305     -5.391   0.560  1.18903E-01  5.40793E-01 -4.21891E-01
    8988.482     -5.215   0.600  1.24605E-01  5.62874E-01 -4.38268E-01
    8988.671     -5.026   0.640  1.31330E-01  5.84704E-01 -4.53374E-01
    8988.872     -4.825   0.680  1.39234E-01  6.06329E-01 -4.67095E-01
    8989.086     -4.611   0.720  1.48453E-01  6.27781E-01 -4.79328E-01
    8989.311     -4.386   0.760  1.59115E-01  6.49091E-01 -4.89976E-01
    8989.549     -4.148   0.800  1.71437E-01  6.70297E-01 -4.98860E-01
    8989.799     -3.898   0.840  1.85759E-01  6.91384E-01 -5.05626E-01
    8990.061     -3.636   0.880  2.02826E-01  7.12343E-01 -5.09516E-01
    8990.335     -3.361   0.920  2.23715E-01  7.33148E-01 -5.09432E-01
    8990.622     -3.075   0.960  2.49626E-01  7.53767E-01 -5.04140E-01
    8990.920     -2.776   1.000  2.81576E-01  7.74132E-01 -4.92556E-01
    8991.231     -2.465   1.040  3.20068E-01  7.94172E-01 -4.74105E-01
    8991.554     -2.142   1.080  3.64949E-01  8.13850E-01 -4.48901E-01
    8991.890     -1.807   1.120  4.16128E-01  8.33081E-01 -4.16953E-01
    8992.237     -1.460   1.160  4.74883E-01  8.51781E-01 -3.76898E-01
    8992.597     -1.100   1.200  5.41258E-01  8.69923E-01 -3.28666E-01
    8992.969     -0.728   1.240  6.09023E-01  8.87402E-01 -2.78379E-01
    8993.353     -0.344   1.280  6.68423E-01  9.04150E-01 -2.35726E-01
    8993.749      0.052   1.320  7.13050E-01  9.20168E-01 -2.07118E-01
    8994.157      0.461   1.360  7.38700E-01  9.35352E-01 -1.96652E-01
    8994.578      0.881   1.400  7.47279E-01  9.49686E-01 -2.02407E-01
    8995.011      1.314   1.440  7.55561E-01  9.63117E-01 -2.07556E-01
    8995.456      1.759   1.480  7.83885E-01  9.75655E-01 -1.91771E-01
    8995.913      2.216   1.520  8.39229E-01  9.87276E-01 -1.48047E-01
    8996.382      2.686   1.560  9.13801E-01  9.97936E-01 -8.41345E-02
    8996.864      3.167   1.600  9.93845E-01  1.00768E+00 -1.38343E-02
    8997.358      3.661   1.640  1.07432E+00  1.01651E+00  5.78088E-02
    8997.864      4.167   1.680  1.16435E+00  1.02442E+00  1.39929E-01
    8998.382      4.685   1.720  1.26908E+00  1.03144E+00  2.37634E-01
    8998.912      5.216   1.760  1.37608E+00  1.03761E+00  3.38472E-01
    8999.455      5.758   1.800  1.46825E+00  1.04296E+00  4.25285E-01
    9000.010      6.313   1.840  1.53446E+00  1.04751E+00  4.86951E-01
    9000.576      6.880   1.880  1.56974E+00  1.05131E+00  5.18427E-01
    9001.156      7.459   1.920  1.57721E+00  1.05441E+00  5.22793E-01
    9001.747      8.050   1.960  1.56144E+00  1.05683E+00  5.04611E-01
    9002.350      8.654   2.000  1.52892E+00  1.05863E+00  4.70290E-01
    9002.966      9.269   2.040  1.47932E+00  1.05987E+00  4.19450E-01
    9003.594      9.897   2.080  1.40634E+00  1.06055E+00  3.45782E-01
    9004.234     10.537   2.120  1.33060E+00  1.06078E+00  2.69819E-01
    9004.886     11.190   2.160  1.28616E+00  1.06053E+00  2.25629E-01
    9005.551     11.854   2.200  1.26345E+00  1.05992E+00  2.03532E-01
    9006.227     12.531   2.240  1.21914E+00  1.05893E+00  1.60209E-01
    9006.916     13.220   2.280  1.14101E+00  1.05762E+00  8.33921E-02
    9007.617     13.921   2.320  1.06549E+00  1.05604E+00  9.44447E-03
    9008.331     14.634   2.360  1.02547E+00  1.05422E+00 -2.87515E-02
    9009.056     15.359   2.400  1.02698E+00  1.05220E+00 -2.52275E-02
    9009.794     16.097   2.440  1.03819E+00  1.05000E+00 -1.18070E-02
    9010.543     16.847   2.480  1.04787E+00  1.04765E+00  2.24542E-04
    9011.305     17.609   2.520  1.05324E+00  1.04518E+00  8.05737E-03
    9012.080     18.383   2.560  1.05345E+00  1.04263E+00  1.08261E-02
    9012.866     19.169   2.600  1.04909E+00  1.03999E+00  9.09386E-03
    9013.665     19.968   2.640  1.04111E+00  1.03734E+00  3.77309E-03
    9014.475     20.779   2.680  1.03052E+00  1.03466E+00 -4.13679E-03
    9015.298     21.602   2.720  1.01855E+00  1.03199E+00 -1.34365E-02
    9016.133     22.437   2.760  1.00641E+00  1.02931E+00 -2.28962E-02
    9016.981     23.284   2.800  9.95398E-01  1.02669E+00 -3.12896E-02
    9017.840     24.144   2.840  9.86365E-01  1.02411E+00 -3.77431E-02
    9018.712     25.015   2.880  9.79341E-01  1.02158E+00 -4.22376E-02
    9019.596     25.899   2.920  9.73467E-01  1.01913E+00 -4.56594E-02
    9020.492     26.795   2.960  9.67500E-01  1.01678E+00 -4.92794E-02
    9021.400     27.704   3.000  9.60329E-01  1.01450E+00 -5.41676E-02
    9022.321     28.624   3.040  9.51414E-01  1.01233E+00 -6.09124E-02
    9023.254     29.557   3.080  9.40837E-01  1.01027E+00 -6.94353E-02
    9024.198     30.502   3.120  9.29204E-01  1.00832E+00 -7.91119E-02
    9025.155     31.459   3.160  9.17368E-01  1.00650E+00 -8.91338E-02
    9026.125     32.428   3.200  9.06171E-01  1.00479E+00 -9.86197E-02
    9027.106     33.409   3.240  8.96744E-01  1.00323E+00 -1.06482E-01
    9028.100     34.403   3.280  8.89961E-01  1.00177E+00 -1.11807E-01
    9029.106     35.409   3.320  8.86563E-01  1.00046E+00 -1.13894E-01
    9030.124     36.427   3.360  8.86721E-01  9.99298E-01 -1.12577E-01
    9031.154     37.457   3.400  8.90218E-01  9.98248E-01 -1.08031E-01
    9032.196     38.500   3.440  8.96461E-01  9.97349E-01 -1.00888E-01
    9033.251     39.554   3.480  9.04536E-01  9.96580E-01 -9.20436E-02
    9034.318     40.621   3.520  9.13482E-01  9.95961E-01 -8.24792E-02
    9035.397     41.700   3.560  9.22615E-01  9.95471E-01 -7.28560E-02
    9036.488     42.791   3.600  9.31804E-01  9.95087E-01 -6.32834E-02
    9037.591     43.895   3.640  9.41394E-01  9.94873E-01 -5.34787E-02
    9038.707     45.010   3.680  9.51592E-01  9.94762E-01 -4.31694E-02
    9039.835     46.138   3.720  9.62432E-01  9.94773E-01 -3.23408E-02
    9040.975     47.278   3.760  9.73596E-01  9.94907E-01 -2.13110E-02
    9042.127     48.430   3.800  9.84486E-01  9.95163E-01 -1.06771E-02
    9043.291     49.594   3.840  9.94470E-01  9.95536E-01 -1.06626E-03
    9044.468     50.771   3.880  1.00327E+00  9.96004E-01  7.27048E-03
    9045.656     51.959   3.920  1.01116E+00  9.96586E-01  1.45739E-02
    9046.857     53.160   3.960  1.01866E+00  9.97258E-01  2.14008E-02
    9048.070     54.373   4.000  1.02637E+00  9.98039E-01  2.83269E-02
    9049.296     55.599   4.040  1.03458E+00  9.98882E-01  3.56962E-02
    9050.533     56.836   4.080  1.04323E+00  9.99828E-01  4.34035E-02
    9051.783     58.086   4.120  1.05170E+00  1.00083E+00  5.08712E-02
    9053.045     59.348   4.160  1.05913E+00  1.00191E+00  5.72197E-02
    9054.319     60.622   4.200  1.06457E+00  1.00306E+00  6.15072E-02
    9055.605     61.908   4.240  1.06724E+00  1.00426E+00  6.29778E-02
    9056.903     63.207   4.280  1.06669E+00  1.00551E+00  6.11850E-02
    9058.214     64.517   4.320  1.06299E+00  1.00679E+00  5.61999E-02
    9059.537     65.840   4.360  1.05684E+00  1.00811E+00  4.87339E-02
    9060.872     67.175   4.400  1.04954E+00  1.00944E+00  4.00980E-02
    9062.219     68.522   4.440  1.04272E+00  1.01083E+00  3.18871E-02
    9063.578     69.882   4.480  1.03780E+00  1.01220E+00  2.55979E-02
    9064.950     71.253   4.520  1.03593E+00  1.01359E+00  2.23316E-02
    9066.334     72.637   4.560  1.03761E+00  1.01496E+00  2.26420E-02
    9067.730     74.033   4.600  1.04266E+00  1.01633E+00  2.63360E-02
    9069.138     75.441   4.640  1.05011E+00  1.01769E+00  3.24206E-02
    9070.558     76.862   4.680  1.05844E+00  1.01904E+00  3.93990E-02
    9071.991     78.294   4.720  1.06619E+00  1.02035E+00  4.58360E-02
    9073.436     79.739   4.760  1.07245E+00  1.02163E+00  5.08206E-02
    9074.893     81.196   4.800  1.07684E+00  1.02286E+00  5.39829E-02
    9076.362     82.665   4.840  1.07923E+00  1.02405E+00  5.51788E-02
    9077.843     84.146   4.880  1.07946E+00  1.02519E+00  5.42740E-02
    9079.336     85.640   4.920  1.07746E+00  1.02626E+00  5.12043E-02
    9080.842     87.145   4.960  1.07328E+00  1.02728E+00  4.60018E-02
    9082.360     88.663   5.000  1.06702E+00  1.02824E+00  3.87801E-02
    9083.890     90.193   5.040  1.05885E+00  1.02911E+00  2.97373E-02
    9085.432     91.736   5.080  1.04911E+00  1.02992E+00  1.91965E-02
    9086.987     93.290   5.120  1.03828E+00  1.03067E+00  7.60617E-03
    9088.554     94.857   5.160  1.02683E+00  1.03132E+00 -4.48452E-03
    9090.132     96.436   5.200  1.01547E+00  1.03188E+00 -1.64123E-02
    9091.723     98.027   5.240  1.00490E+00  1.03236E+00 -2.74582E-02
    9093.327     99.630   5.280  9.95807E-01  1.03275E+00 -3.69463E-02
    9094.942    101.245   5.320  9.88702E-01  1.03309E+00 -4.43851E-02
    9096.570    102.873   5.360  9.83628E-01  1.03331E+00 -4.96859E-02
    9098.210    104.513   5.400  9.80220E-01  1.03345E+00 -5.32345E-02
    9099.862    106.165   5.440  9.77866E-01  1.03351E+00 -5.56431E-02
    9101.526    107.829   5.480  9.76248E-01  1.03348E+00 -5.72306E-02
    9103.202    109.505   5.520  9.75527E-01  1.03334E+00 -5.78132E-02
    9104.891    111.194   5.560  9.76126E-01  1.03314E+00 -5.70177E-02
    9106.592    112.895   5.600  9.78033E-01  1.03287E+00 -5.48332E-02
    9108.305    114.608   5.640  9.80829E-01  1.03251E+00 -5.16815E-02
    9110.030    116.333   5.680  9.84157E-01  1.03210E+00 -4.79409E-02
    9111.767    118.070   5.720  9.88047E-01  1.03159E+00 -4.35384E-02
    9113.517    119.820   5.760  9.93001E-01  1.03102E+00 -3.80217E-02
    9115.278    121.582   5.800  9.99400E-01  1.03041E+00 -3.10111E-02
    9117.052    123.356   5.840  1.00712E+00  1.02973E+00 -2.26057E-02
    9118.838    125.142   5.880  1.01542E+00  1.02898E+00 -1.35575E-02
    9120.637    126.940   5.920  1.02312E+00  1.02819E+00 -5.06945E-03
    9122.447    128.750   5.960  1.02899E+00  1.02740E+00  1.59580E-03
    9124.270    130.573   6.000  1.03196E+00  1.02650E+00  5.46204E-03
