# # comment:                                                     FEFF 9.9.1  
# # Source:
# # Structure
# # Reduced
# # space
# # abc:
# # angles:
# # sites:
# # POT  SCF 100  7.0000   0, screened core-hole, AFOLP (folp(0)= 1.150)
# # Abs   Z=29 Rmt= 1.220 Rnm= 1.296 K  shell
# # Pot 1 Z=56 Rmt= 1.946 Rnm= 2.002
# # Pot 2 Z=39 Rmt= 1.629 Rnm= 1.700
# # Pot 3 Z=29 Rmt= 1.220 Rnm= 1.296
# # Pot 4 Z= 8 Rmt= 1.057 Rnm= 1.110
# # Gam_ch=1.729E+00 H-L exch Vi= 0.000E+00 Vr= 0.000E+00
# # Mu=-8.165E+00eV kf=2.023E+00 Vint=-1.744E+01eV Rs_int= 1.793
# FMS rfms= 9.0000
# # PATH  Rmax=-1.000,  Keep_limit= 0.00, Heap_limit 0.00  Pwcrit= 2.50%
#  S02=0.950  Temp=   0.00  Debye_temp=   0.00  Global_sig2= 0.00000
#  Energy zero shift, vr, vi    0.00000E+00   0.00000E+00
#  Curved wave amplitude ratio filter   4.000%
#     file         sig2 tot  cw amp ratio   deg  nlegs   reff  inp sig2
#     0/   0 paths used
#  xsedge+ 50, used to normalize mu           2.4407E-04
#  -----------------------------------------------------------------------
#  omega    e    k    mu    mu0     chi     @#
    8984.963    -11.975  -1.000  4.08893E-02  5.84354E-02 -1.75461E-02
    8985.262    -11.677  -0.960  4.31076E-02  6.28035E-02 -1.96959E-02
    8985.548    -11.390  -0.920  4.55083E-02  6.76669E-02 -2.21586E-02
    8985.823    -11.116  -0.880  4.81142E-02  7.30993E-02 -2.49851E-02
    8986.085    -10.854  -0.840  5.09518E-02  7.91865E-02 -2.82347E-02
    8986.335    -10.604  -0.800  5.40513E-02  8.60280E-02 -3.19767E-02
    8986.572    -10.366  -0.760  5.74476E-02  9.37380E-02 -3.62905E-02
    8986.798    -10.141  -0.720  6.11798E-02  1.02446E-01 -4.12661E-02
    8987.011     -9.927  -0.680  6.52908E-02  1.12294E-01 -4.70030E-02
    8987.213     -9.726  -0.640  6.98256E-02  1.23432E-01 -5.36069E-02
    8987.402     -9.537  -0.600  7.48274E-02  1.36010E-01 -6.11823E-02
    8987.578     -9.360  -0.560  8.03313E-02  1.50152E-01 -6.98207E-02
    8987.743     -9.196  -0.520  8.63547E-02  1.65935E-01 -7.95806E-02
    8987.895     -9.043  -0.480  9.28830E-02  1.83344E-01 -9.04610E-02
    8988.035     -8.903  -0.440  9.98548E-02  2.02225E-01 -1.02370E-01
    8988.163     -8.775  -0.400  1.07148E-01  2.22248E-01 -1.15099E-01
    8988.279     -8.659  -0.360  1.14580E-01  2.42892E-01 -1.28312E-01
    8988.383     -8.556  -0.320  1.21917E-01  2.63482E-01 -1.41565E-01
    8988.474     -8.464  -0.280  1.28907E-01  2.83266E-01 -1.54359E-01
    8988.554     -8.385  -0.240  1.35316E-01  3.01526E-01 -1.66209E-01
    8988.621     -8.318  -0.200  1.40953E-01  3.17657E-01 -1.76704E-01
    8988.676     -8.263  -0.160  1.45681E-01  3.31222E-01 -1.85541E-01
    8988.718     -8.220  -0.120  1.49414E-01  3.41940E-01 -1.92526E-01
    8988.749     -8.190  -0.080  1.52102E-01  3.49659E-01 -1.97556E-01
    8988.773     -8.165   0.000  1.54258E-01  3.55857E-01 -2.01599E-01
    8988.828     -8.111   0.120  1.59182E-01  3.69837E-01 -2.10656E-01
    8988.871     -8.068   0.160  1.63008E-01  3.80686E-01 -2.17678E-01
    8988.925     -8.013   0.200  1.67904E-01  3.94530E-01 -2.26626E-01
    8988.993     -7.946   0.240  1.73847E-01  4.11174E-01 -2.37327E-01
    8989.072     -7.867   0.280  1.80775E-01  4.30251E-01 -2.49476E-01
    8989.163     -7.775   0.320  1.88606E-01  4.51262E-01 -2.62656E-01
    8989.267     -7.672   0.360  1.97284E-01  4.73583E-01 -2.76298E-01
    8989.383     -7.556   0.400  2.06695E-01  4.96512E-01 -2.89817E-01
    8989.511     -7.428   0.440  2.16729E-01  5.19487E-01 -3.02758E-01
    8989.651     -7.288   0.480  2.27065E-01  5.41979E-01 -3.14914E-01
    8989.803     -7.135   0.520  2.37275E-01  5.63691E-01 -3.26416E-01
    8989.968     -6.971   0.560  2.46844E-01  5.84484E-01 -3.37640E-01
    8990.145     -6.794   0.600  2.55568E-01  6.04321E-01 -3.48753E-01
    8990.334     -6.605   0.640  2.63777E-01  6.23246E-01 -3.59469E-01
    8990.535     -6.404   0.680  2.72334E-01  6.41345E-01 -3.69011E-01
    8990.748     -6.190   0.720  2.82511E-01  6.58721E-01 -3.76210E-01
    8990.974     -5.965   0.760  2.95990E-01  6.75494E-01 -3.79504E-01
    8991.211     -5.727   0.800  3.14743E-01  6.91714E-01 -3.76971E-01
    8991.461     -5.477   0.840  3.40402E-01  7.07477E-01 -3.67075E-01
    8991.724     -5.215   0.880  3.73072E-01  7.22844E-01 -3.49771E-01
    8991.998     -4.941   0.920  4.10218E-01  7.37858E-01 -3.27640E-01
    8992.284     -4.654   0.960  4.45683E-01  7.52554E-01 -3.06872E-01
    8992.583     -4.356   1.000  4.70515E-01  7.66909E-01 -2.96394E-01
    8992.894     -4.045   1.040  4.78489E-01  7.80993E-01 -3.02505E-01
    8993.217     -3.722   1.080  4.72672E-01  7.94749E-01 -3.22077E-01
    8993.552     -3.386   1.120  4.64186E-01  8.08191E-01 -3.44005E-01
    8993.900     -3.039   1.160  4.63639E-01  8.21329E-01 -3.57690E-01
    8994.259     -2.679   1.200  4.76358E-01  8.34109E-01 -3.57751E-01
    8994.631     -2.307   1.240  5.02240E-01  8.46533E-01 -3.44293E-01
    8995.015     -1.923   1.280  5.37151E-01  8.58580E-01 -3.21429E-01
    8995.412     -1.527   1.320  5.76393E-01  8.70228E-01 -2.93835E-01
    8995.820     -1.119   1.360  6.19439E-01  8.81458E-01 -2.62019E-01
    8996.241     -0.698   1.400  6.73464E-01  8.92264E-01 -2.18800E-01
    8996.673     -0.265   1.440  7.48152E-01  9.02602E-01 -1.54450E-01
    8997.118      0.180   1.480  8.45693E-01  9.12491E-01 -6.67989E-02
    8997.576      0.637   1.520  9.66137E-01  9.21911E-01  4.42263E-02
    8998.045      1.106   1.560  1.11164E+00  9.30837E-01  1.80806E-01
    8998.527      1.588   1.600  1.26565E+00  9.39290E-01  3.26360E-01
    8999.020      2.082   1.640  1.37450E+00  9.47228E-01  4.27273E-01
    8999.526      2.588   1.680  1.43166E+00  9.54677E-01  4.76987E-01
    9000.045      3.106   1.720  1.52449E+00  9.61636E-01  5.62851E-01
    9000.575      3.636   1.760  1.65756E+00  9.68088E-01  6.89471E-01
    9001.117      4.179   1.800  1.70991E+00  9.74078E-01  7.35829E-01
    9001.672      4.734   1.840  1.63141E+00  9.79573E-01  6.51832E-01
    9002.239      5.301   1.880  1.49330E+00  9.84599E-01  5.08701E-01
    9002.818      5.880   1.920  1.36910E+00  9.89182E-01  3.79921E-01
    9003.410      6.471   1.960  1.27648E+00  9.93310E-01  2.83166E-01
    9004.013      7.074   2.000  1.20143E+00  9.97011E-01  2.04419E-01
    9004.629      7.690   2.040  1.14610E+00  1.00032E+00  1.45781E-01
    9005.257      8.318   2.080  1.12317E+00  1.00322E+00  1.19953E-01
    9005.897      8.958   2.120  1.12700E+00  1.00576E+00  1.21244E-01
    9006.549      9.610   2.160  1.13489E+00  1.00794E+00  1.26952E-01
    9007.213     10.275   2.200  1.12007E+00  1.00978E+00  1.10289E-01
    9007.890     10.951   2.240  1.07553E+00  1.01131E+00  6.42187E-02
    9008.579     11.640   2.280  1.02514E+00  1.01255E+00  1.25909E-02
    9009.280     12.341   2.320  9.94575E-01  1.01353E+00 -1.89551E-02
    9009.993     13.055   2.360  9.89739E-01  1.01423E+00 -2.44943E-02
    9010.719     13.780   2.400  1.00235E+00  1.01471E+00 -1.23640E-02
    9011.456     14.518   2.440  1.02446E+00  1.01498E+00  9.48057E-03
    9012.206     15.267   2.480  1.05003E+00  1.01505E+00  3.49783E-02
    9012.968     16.029   2.520  1.07255E+00  1.01494E+00  5.76060E-02
    9013.742     16.804   2.560  1.08489E+00  1.01469E+00  7.01989E-02
    9014.529     17.590   2.600  1.08214E+00  1.01429E+00  6.78508E-02
    9015.327     18.389   2.640  1.06526E+00  1.01376E+00  5.14990E-02
    9016.138     19.199   2.680  1.03928E+00  1.01313E+00  2.61504E-02
    9016.961     20.022   2.720  1.01064E+00  1.01239E+00 -1.74897E-03
    9017.796     20.857   2.760  9.83971E-01  1.01159E+00 -2.76221E-02
    9018.643     21.705   2.800  9.61152E-01  1.01072E+00 -4.95654E-02
    9019.503     22.564   2.840  9.42448E-01  1.00979E+00 -6.73468E-02
    9020.375     23.436   2.880  9.26738E-01  1.00883E+00 -8.20910E-02
    9021.259     24.320   2.920  9.12209E-01  1.00783E+00 -9.56184E-02
    9022.155     25.216   2.960  8.97924E-01  1.00684E+00 -1.08915E-01
    9023.063     26.124   3.000  8.84244E-01  1.00582E+00 -1.21579E-01
    9023.983     27.045   3.040  8.72549E-01  1.00481E+00 -1.32258E-01
    9024.916     27.978   3.080  8.64189E-01  1.00379E+00 -1.39604E-01
    9025.861     28.922   3.120  8.60181E-01  1.00281E+00 -1.42627E-01
    9026.818     29.879   3.160  8.60373E-01  1.00186E+00 -1.41485E-01
    9027.787     30.849   3.200  8.63994E-01  1.00094E+00 -1.36948E-01
    9028.769     31.830   3.240  8.69858E-01  1.00005E+00 -1.30187E-01
    9029.762     32.824   3.280  8.76742E-01  9.99209E-01 -1.22467E-01
    9030.768     33.830   3.320  8.83865E-01  9.98415E-01 -1.14550E-01
    9031.786     34.848   3.360  8.91149E-01  9.97667E-01 -1.06518E-01
    9032.817     35.878   3.400  8.99229E-01  9.96966E-01 -9.77365E-02
    9033.859     36.920   3.440  9.08741E-01  9.96355E-01 -8.76142E-02
    9034.914     37.975   3.480  9.20375E-01  9.95774E-01 -7.53989E-02
    9035.980     39.042   3.520  9.34693E-01  9.95264E-01 -6.05717E-02
    9037.059     40.121   3.560  9.51790E-01  9.94829E-01 -4.30393E-02
    9038.150     41.212   3.600  9.71308E-01  9.94467E-01 -2.31594E-02
    9039.254     42.315   3.640  9.92238E-01  9.94157E-01 -1.91916E-03
    9040.369     43.431   3.680  1.01306E+00  9.93921E-01  1.91434E-02
    9041.497     44.559   3.720  1.03184E+00  9.93739E-01  3.81054E-02
    9042.637     45.699   3.760  1.04697E+00  9.93651E-01  5.33221E-02
    9043.789     46.851   3.800  1.05711E+00  9.93595E-01  6.35134E-02
    9044.954     48.015   3.840  1.06140E+00  9.93633E-01  6.77711E-02
    9046.130     49.192   3.880  1.05983E+00  9.93722E-01  6.61041E-02
    9047.319     50.380   3.920  1.05340E+00  9.93883E-01  5.95174E-02
    9048.520     51.581   3.960  1.04399E+00  9.94092E-01  4.98993E-02
    9049.733     52.794   4.000  1.03384E+00  9.94350E-01  3.94933E-02
    9050.958     54.020   4.040  1.02493E+00  9.94677E-01  3.02521E-02
    9052.196     55.257   4.080  1.01850E+00  9.95073E-01  2.34290E-02
    9053.445     56.507   4.120  1.01511E+00  9.95491E-01  1.96196E-02
    9054.707     57.769   4.160  1.01487E+00  9.95974E-01  1.88975E-02
    9055.981     59.043   4.200  1.01712E+00  9.96497E-01  2.06200E-02
    9057.267     60.329   4.240  1.02077E+00  9.97039E-01  2.37338E-02
    9058.566     61.627   4.280  1.02511E+00  9.97640E-01  2.74666E-02
    9059.877     62.938   4.320  1.02986E+00  9.98279E-01  3.15797E-02
    9061.199     64.261   4.360  1.03483E+00  9.98931E-01  3.59042E-02
    9062.534     65.596   4.400  1.03972E+00  9.99613E-01  4.01034E-02
    9063.882     66.943   4.440  1.04437E+00  1.00031E+00  4.40636E-02
    9065.241     68.302   4.480  1.04914E+00  1.00103E+00  4.81160E-02
    9066.613     69.674   4.520  1.05467E+00  1.00175E+00  5.29202E-02
    9067.996     71.058   4.560  1.06143E+00  1.00248E+00  5.89560E-02
    9069.392     72.454   4.600  1.06908E+00  1.00321E+00  6.58683E-02
    9070.801     73.862   4.640  1.07620E+00  1.00396E+00  7.22356E-02
    9072.221     75.282   4.680  1.08060E+00  1.00469E+00  7.59092E-02
    9073.653     76.715   4.720  1.08026E+00  1.00543E+00  7.48255E-02
    9075.098     78.160   4.760  1.07400E+00  1.00613E+00  6.78644E-02
    9076.555     79.617   4.800  1.06211E+00  1.00684E+00  5.52726E-02
    9078.024     81.086   4.840  1.04592E+00  1.00752E+00  3.83952E-02
    9079.506     82.567   4.880  1.02734E+00  1.00819E+00  1.91481E-02
    9080.999     84.061   4.920  1.00842E+00  1.00882E+00 -3.96326E-04
    9082.505     85.566   4.960  9.90989E-01  1.00942E+00 -1.84270E-02
    9084.023     87.084   5.000  9.76377E-01  1.00997E+00 -3.35970E-02
    9085.553     88.614   5.040  9.65482E-01  1.01051E+00 -4.50323E-02
    9087.095     90.156   5.080  9.58777E-01  1.01099E+00 -5.22157E-02
    9088.650     91.711   5.120  9.56352E-01  1.01145E+00 -5.51013E-02
    9090.216     93.278   5.160  9.57568E-01  1.01187E+00 -5.43037E-02
    9091.795     94.856   5.200  9.61140E-01  1.01223E+00 -5.10845E-02
    9093.386     96.448   5.240  9.65533E-01  1.01256E+00 -4.70226E-02
    9094.989     98.051   5.280  9.69467E-01  1.01282E+00 -4.33533E-02
    9096.605     99.666   5.320  9.72484E-01  1.01304E+00 -4.05553E-02
    9098.232    101.294   5.360  9.74552E-01  1.01321E+00 -3.86608E-02
    9099.872    102.934   5.400  9.75973E-01  1.01334E+00 -3.73669E-02
    9101.524    104.586   5.440  9.77087E-01  1.01340E+00 -3.63125E-02
    9103.188    106.250   5.480  9.78269E-01  1.01341E+00 -3.51423E-02
    9104.865    107.926   5.520  9.79761E-01  1.01338E+00 -3.36158E-02
    9106.553    109.615   5.560  9.81554E-01  1.01328E+00 -3.17209E-02
    9108.254    111.316   5.600  9.83639E-01  1.01315E+00 -2.95120E-02
    9109.967    113.029   5.640  9.86086E-01  1.01296E+00 -2.68738E-02
    9111.692    114.754   5.680  9.89142E-01  1.01272E+00 -2.35814E-02
    9113.430    116.491   5.720  9.92703E-01  1.01242E+00 -1.97160E-02
    9115.179    118.241   5.760  9.96192E-01  1.01210E+00 -1.59057E-02
    9116.941    120.002   5.800  9.98530E-01  1.01174E+00 -1.32064E-02
    9118.715    121.776   5.840  9.98782E-01  1.01131E+00 -1.25300E-02
    9120.501    123.562   5.880  9.96811E-01  1.01087E+00 -1.40621E-02
    9122.299    125.361   5.920  9.93302E-01  1.01038E+00 -1.70738E-02
    9124.110    127.171   5.960  9.89783E-01  1.00987E+00 -2.00859E-02
    9125.933    128.994   6.000  9.88002E-01  1.00927E+00 -2.12684E-02
