# # comment:                                                     FEFF 9.9.1  
# # Source:
# # Structure
# # Reduced
# # space
# # abc:
# # angles:
# # sites:
# # POT  SCF 100  7.0000   0, screened core-hole, AFOLP (folp(0)= 1.150)
# # Abs   Z=29 Rmt= 1.147 Rnm= 1.238 K  shell
# # Pot 1 Z= 3 Rmt= 1.248 Rnm= 1.298
# # Pot 2 Z=29 Rmt= 1.147 Rnm= 1.239
# # Pot 3 Z=28 Rmt= 1.257 Rnm= 1.350
# # Pot 4 Z= 8 Rmt= 1.025 Rnm= 1.083
# # Gam_ch=1.729E+00 H-L exch Vi= 0.000E+00 Vr= 0.000E+00
# # Mu=-1.050E+01eV kf=2.190E+00 Vint=-1.858E+01eV Rs_int= 1.656
# FMS rfms= 9.0000
# # PATH  Rmax=-1.000,  Keep_limit= 0.00, Heap_limit 0.00  Pwcrit= 2.50%
#  S02=0.950  Temp=   0.00  Debye_temp=   0.00  Global_sig2= 0.00000
#  Energy zero shift, vr, vi    0.00000E+00   0.00000E+00
#  Curved wave amplitude ratio filter   4.000%
#     file         sig2 tot  cw amp ratio   deg  nlegs   reff  inp sig2
#     0/   0 paths used
#  xsedge+ 50, used to normalize mu           2.4578E-04
#  -----------------------------------------------------------------------
#  omega    e    k    mu    mu0     chi     @#
    8985.208    -14.314  -1.000  3.11559E-02  5.33269E-02 -2.21710E-02
    8985.507    -14.015  -0.960  3.24558E-02  5.71487E-02 -2.46929E-02
    8985.793    -13.729  -0.920  3.38258E-02  6.13896E-02 -2.75638E-02
    8986.068    -13.454  -0.880  3.52719E-02  6.61107E-02 -3.08388E-02
    8986.330    -13.192  -0.840  3.68009E-02  7.13830E-02 -3.45821E-02
    8986.580    -12.942  -0.800  3.84207E-02  7.72886E-02 -3.88679E-02
    8986.817    -12.704  -0.760  4.01402E-02  8.39217E-02 -4.37815E-02
    8987.043    -12.479  -0.720  4.19696E-02  9.13888E-02 -4.94192E-02
    8987.256    -12.265  -0.680  4.39198E-02  9.98068E-02 -5.58870E-02
    8987.457    -12.064  -0.640  4.60021E-02  1.09299E-01 -6.32969E-02
    8987.646    -11.875  -0.600  4.82270E-02  1.19986E-01 -7.17593E-02
    8987.823    -11.699  -0.560  5.06023E-02  1.31972E-01 -8.13693E-02
    8987.988    -11.534  -0.520  5.31299E-02  1.45316E-01 -9.21858E-02
    8988.140    -11.382  -0.480  5.58017E-02  1.60004E-01 -1.04202E-01
    8988.280    -11.241  -0.440  5.85946E-02  1.75907E-01 -1.17312E-01
    8988.408    -11.113  -0.400  6.14669E-02  1.92751E-01 -1.31284E-01
    8988.524    -10.998  -0.360  6.43573E-02  2.10103E-01 -1.45746E-01
    8988.628    -10.894  -0.320  6.71888E-02  2.27404E-01 -1.60215E-01
    8988.719    -10.802  -0.280  6.98781E-02  2.44029E-01 -1.74151E-01
    8988.799    -10.723  -0.240  7.23460E-02  2.59380E-01 -1.87034E-01
    8988.866    -10.656  -0.200  7.45262E-02  2.72952E-01 -1.98425E-01
    8988.920    -10.601  -0.160  7.63691E-02  2.84374E-01 -2.08005E-01
    8988.963    -10.559  -0.120  7.78400E-02  2.93408E-01 -2.15568E-01
    8988.994    -10.528  -0.080  7.89157E-02  2.99920E-01 -2.21004E-01
    8989.018    -10.504   0.000  7.98109E-02  3.05155E-01 -2.25344E-01
    8989.073    -10.449   0.120  8.18516E-02  3.16966E-01 -2.35114E-01
    8989.116    -10.406   0.160  8.33879E-02  3.26142E-01 -2.42754E-01
    8989.170    -10.351   0.200  8.53228E-02  3.37868E-01 -2.52545E-01
    8989.237    -10.284   0.240  8.76847E-02  3.52014E-01 -2.64329E-01
    8989.317    -10.205   0.280  9.04187E-02  3.68273E-01 -2.77854E-01
    8989.408    -10.114   0.320  9.34842E-02  3.86271E-01 -2.92787E-01
    8989.512    -10.010   0.360  9.68214E-02  4.05517E-01 -3.08696E-01
    8989.628     -9.894   0.400  1.00303E-01  4.25446E-01 -3.25142E-01
    8989.756     -9.766   0.440  1.03806E-01  4.45596E-01 -3.41791E-01
    8989.896     -9.626   0.480  1.07114E-01  4.65578E-01 -3.58465E-01
    8990.048     -9.474   0.520  1.10067E-01  4.85135E-01 -3.75067E-01
    8990.213     -9.309   0.560  1.12658E-01  5.04176E-01 -3.91518E-01
    8990.390     -9.132   0.600  1.15058E-01  5.22650E-01 -4.07593E-01
    8990.579     -8.943   0.640  1.17801E-01  5.40610E-01 -4.22808E-01
    8990.780     -8.742   0.680  1.21474E-01  5.58119E-01 -4.36645E-01
    8990.993     -8.529   0.720  1.26736E-01  5.75254E-01 -4.48518E-01
    8991.219     -8.303   0.760  1.34092E-01  5.92092E-01 -4.58000E-01
    8991.456     -8.065   0.800  1.43959E-01  6.08696E-01 -4.64738E-01
    8991.706     -7.815   0.840  1.56472E-01  6.25142E-01 -4.68670E-01
    8991.968     -7.553   0.880  1.71220E-01  6.41448E-01 -4.70228E-01
    8992.243     -7.279   0.920  1.87738E-01  6.57643E-01 -4.69905E-01
    8992.529     -6.992   0.960  2.07068E-01  6.73741E-01 -4.66673E-01
    8992.828     -6.694   1.000  2.33010E-01  6.89748E-01 -4.56739E-01
    8993.139     -6.383   1.040  2.70951E-01  7.05621E-01 -4.34670E-01
    8993.462     -6.060   1.080  3.26180E-01  7.21390E-01 -3.95210E-01
    8993.797     -5.725   1.120  4.01132E-01  7.37018E-01 -3.35886E-01
    8994.145     -5.377   1.160  4.88961E-01  7.52485E-01 -2.63524E-01
    8994.504     -5.017   1.200  5.68885E-01  7.67725E-01 -1.98840E-01
    8994.876     -4.646   1.240  6.23854E-01  7.82750E-01 -1.58896E-01
    8995.260     -4.261   1.280  6.57145E-01  7.97513E-01 -1.40367E-01
    8995.657     -3.865   1.320  6.71865E-01  8.11960E-01 -1.40095E-01
    8996.065     -3.457   1.360  6.67774E-01  8.26080E-01 -1.58306E-01
    8996.486     -3.036   1.400  6.57229E-01  8.39820E-01 -1.82591E-01
    8996.918     -2.603   1.440  6.54526E-01  8.53169E-01 -1.98643E-01
    8997.363     -2.158   1.480  6.60310E-01  8.66095E-01 -2.05784E-01
    8997.821     -1.701   1.520  6.65691E-01  8.78546E-01 -2.12855E-01
    8998.290     -1.232   1.560  6.67232E-01  8.90511E-01 -2.23280E-01
    8998.772     -0.750   1.600  6.69869E-01  9.01985E-01 -2.32116E-01
    8999.265     -0.256   1.640  6.78396E-01  9.12939E-01 -2.34543E-01
    8999.771      0.250   1.680  6.98001E-01  9.23346E-01 -2.25345E-01
    9000.289      0.768   1.720  7.33698E-01  9.33202E-01 -1.99503E-01
    9000.820      1.298   1.760  7.90967E-01  9.42523E-01 -1.51556E-01
    9001.362      1.841   1.800  8.76571E-01  9.51250E-01 -7.46784E-02
    9001.917      2.395   1.840  9.88220E-01  9.59441E-01  2.87789E-02
    9002.484      2.962   1.880  1.11204E+00  9.67059E-01  1.44986E-01
    9003.063      3.541   1.920  1.23388E+00  9.74107E-01  2.59771E-01
    9003.654      4.133   1.960  1.34900E+00  9.80629E-01  3.68371E-01
    9004.258      4.736   2.000  1.46252E+00  9.86590E-01  4.75932E-01
    9004.874      5.352   2.040  1.58113E+00  9.92038E-01  5.89092E-01
    9005.502      5.980   2.080  1.68562E+00  9.96960E-01  6.88658E-01
    9006.142      6.620   2.120  1.72600E+00  1.00140E+00  7.24599E-01
    9006.794      7.272   2.160  1.66290E+00  1.00534E+00  6.57557E-01
    9007.458      7.937   2.200  1.51502E+00  1.00884E+00  5.06184E-01
    9008.135      8.613   2.240  1.34578E+00  1.01189E+00  3.33887E-01
    9008.824      9.302   2.280  1.20044E+00  1.01453E+00  1.85914E-01
    9009.525     10.003   2.320  1.08973E+00  1.01678E+00  7.29465E-02
    9010.238     10.716   2.360  1.01130E+00  1.01864E+00 -7.33944E-03
    9010.964     11.442   2.400  9.59589E-01  1.02016E+00 -6.05709E-02
    9011.701     12.179   2.440  9.26753E-01  1.02135E+00 -9.45936E-02
    9012.451     12.929   2.480  9.08419E-01  1.02221E+00 -1.13794E-01
    9013.213     13.691   2.520  9.07210E-01  1.02279E+00 -1.15582E-01
    9013.987     14.465   2.560  9.30131E-01  1.02314E+00 -9.30067E-02
    9014.773     15.252   2.600  9.81271E-01  1.02322E+00 -4.19457E-02
    9015.572     16.050   2.640  1.03919E+00  1.02308E+00  1.61066E-02
    9016.383     16.861   2.680  1.08811E+00  1.02274E+00  6.53722E-02
    9017.206     17.684   2.720  1.12654E+00  1.02223E+00  1.04313E-01
    9018.041     18.519   2.760  1.15438E+00  1.02153E+00  1.32848E-01
    9018.888     19.367   2.800  1.17016E+00  1.02072E+00  1.49447E-01
    9019.748     20.226   2.840  1.17177E+00  1.01976E+00  1.52014E-01
    9020.620     21.098   2.880  1.16096E+00  1.01870E+00  1.42258E-01
    9021.503     21.982   2.920  1.14083E+00  1.01754E+00  1.23295E-01
    9022.400     22.878   2.960  1.11569E+00  1.01631E+00  9.93736E-02
    9023.308     23.786   3.000  1.08783E+00  1.01501E+00  7.28147E-02
    9024.228     24.707   3.040  1.05731E+00  1.01367E+00  4.36432E-02
    9025.161     25.639   3.080  1.02429E+00  1.01228E+00  1.20070E-02
    9026.106     26.584   3.120  9.90676E-01  1.01086E+00 -2.01818E-02
    9027.063     27.541   3.160  9.58970E-01  1.00943E+00 -5.04561E-02
    9028.032     28.510   3.200  9.31082E-01  1.00799E+00 -7.69106E-02
    9029.014     29.492   3.240  9.08177E-01  1.00658E+00 -9.84040E-02
    9030.007     30.486   3.280  8.90207E-01  1.00515E+00 -1.14946E-01
    9031.013     31.491   3.320  8.76723E-01  1.00376E+00 -1.27032E-01
    9032.031     32.509   3.360  8.67123E-01  1.00239E+00 -1.35268E-01
    9033.061     33.540   3.400  8.60623E-01  1.00107E+00 -1.40442E-01
    9034.104     34.582   3.440  8.56428E-01  9.99780E-01 -1.43353E-01
    9035.158     35.637   3.480  8.54004E-01  9.98537E-01 -1.44533E-01
    9036.225     36.703   3.520  8.53038E-01  9.97340E-01 -1.44302E-01
    9037.304     37.782   3.560  8.53242E-01  9.96212E-01 -1.42970E-01
    9038.395     38.874   3.600  8.54552E-01  9.95155E-01 -1.40602E-01
    9039.499     39.977   3.640  8.56922E-01  9.94148E-01 -1.37226E-01
    9040.614     41.093   3.680  8.60259E-01  9.93193E-01 -1.32934E-01
    9041.742     42.220   3.720  8.64505E-01  9.92336E-01 -1.27831E-01
    9042.882     43.360   3.760  8.69842E-01  9.91532E-01 -1.21690E-01
    9044.034     44.512   3.800  8.76918E-01  9.90804E-01 -1.13886E-01
    9045.198     45.677   3.840  8.86595E-01  9.90155E-01 -1.03560E-01
    9046.375     46.853   3.880  8.99577E-01  9.89583E-01 -9.00065E-02
    9047.564     48.042   3.920  9.16133E-01  9.89068E-01 -7.29343E-02
    9048.765     49.243   3.960  9.36074E-01  9.88651E-01 -5.25771E-02
    9049.978     50.456   4.000  9.58509E-01  9.88292E-01 -2.97823E-02
    9051.203     51.681   4.040  9.82232E-01  9.88031E-01 -5.79988E-03
    9052.441     52.919   4.080  1.00566E+00  9.87827E-01  1.78285E-02
    9053.690     54.168   4.120  1.02723E+00  9.87698E-01  3.95359E-02
    9054.952     55.430   4.160  1.04571E+00  9.87623E-01  5.80853E-02
    9056.226     56.704   4.200  1.06039E+00  9.87646E-01  7.27408E-02
    9057.512     57.991   4.240  1.07092E+00  9.87721E-01  8.31998E-02
    9058.811     59.289   4.280  1.07741E+00  9.87869E-01  8.95380E-02
    9060.121     60.600   4.320  1.08016E+00  9.88067E-01  9.20895E-02
    9061.444     61.923   4.360  1.07970E+00  9.88334E-01  9.13672E-02
    9062.779     63.258   4.400  1.07663E+00  9.88649E-01  8.79767E-02
    9064.126     64.605   4.440  1.07161E+00  9.89010E-01  8.25949E-02
    9065.486     65.964   4.480  1.06520E+00  9.89438E-01  7.57618E-02
    9066.857     67.336   4.520  1.05773E+00  9.89908E-01  6.78207E-02
    9068.241     68.720   4.560  1.04926E+00  9.90419E-01  5.88438E-02
    9069.637     70.116   4.600  1.03970E+00  9.90969E-01  4.87335E-02
    9071.045     71.524   4.640  1.02914E+00  9.91536E-01  3.76077E-02
    9072.466     72.944   4.680  1.01847E+00  9.92159E-01  2.63120E-02
    9073.898     74.377   4.720  1.00903E+00  9.92795E-01  1.62318E-02
    9075.343     75.821   4.760  1.00228E+00  9.93464E-01  8.81375E-03
    9076.800     77.278   4.800  9.99233E-01  9.94163E-01  5.06975E-03
    9078.269     78.747   4.840  1.00018E+00  9.94847E-01  5.32913E-03
    9079.750     80.229   4.880  1.00485E+00  9.95556E-01  9.29406E-03
    9081.244     81.722   4.920  1.01261E+00  9.96269E-01  1.63402E-02
    9082.750     83.228   4.960  1.02252E+00  9.97006E-01  2.55097E-02
    9084.268     84.746   5.000  1.03345E+00  9.97719E-01  3.57270E-02
    9085.798     86.276   5.040  1.04436E+00  9.98430E-01  4.59291E-02
    9087.340     87.818   5.080  1.05429E+00  9.99135E-01  5.51600E-02
    9088.894     89.373   5.120  1.06251E+00  9.99833E-01  6.26748E-02
    9090.461     90.939   5.160  1.06833E+00  1.00050E+00  6.78351E-02
    9092.040     92.518   5.200  1.07108E+00  1.00113E+00  6.99448E-02
    9093.631     94.109   5.240  1.07009E+00  1.00176E+00  6.83319E-02
    9095.234     95.712   5.280  1.06499E+00  1.00237E+00  6.26252E-02
    9096.850     97.328   5.320  1.05599E+00  1.00292E+00  5.30691E-02
    9098.477     98.956   5.360  1.04404E+00  1.00346E+00  4.05872E-02
    9100.117    100.595   5.400  1.03042E+00  1.00395E+00  2.64678E-02
    9101.769    102.247   5.440  1.01622E+00  1.00441E+00  1.18079E-02
    9103.433    103.912   5.480  1.00212E+00  1.00482E+00 -2.70175E-03
    9105.110    105.588   5.520  9.88596E-01  1.00517E+00 -1.65746E-02
    9106.798    107.277   5.560  9.76081E-01  1.00550E+00 -2.94163E-02
    9108.499    108.977   5.600  9.64632E-01  1.00576E+00 -4.11261E-02
    9110.212    110.690   5.640  9.53990E-01  1.00597E+00 -5.19830E-02
    9111.937    112.415   5.680  9.43791E-01  1.00614E+00 -6.23530E-02
    9113.675    114.153   5.720  9.33933E-01  1.00627E+00 -7.23365E-02
    9115.424    115.902   5.760  9.24798E-01  1.00633E+00 -8.15294E-02
    9117.186    117.664   5.800  9.17030E-01  1.00634E+00 -8.93092E-02
    9118.960    119.438   5.840  9.11124E-01  1.00631E+00 -9.51807E-02
    9120.746    121.224   5.880  9.07197E-01  1.00620E+00 -9.90047E-02
    9122.544    123.022   5.920  9.05177E-01  1.00605E+00 -1.00877E-01
    9124.355    124.833   5.960  9.05122E-01  1.00586E+00 -1.00733E-01
    9126.177    126.656   6.000  9.07934E-01  1.00554E+00 -9.76111E-02
