# # comment:                                                     FEFF 9.9.1  
# # Source:
# # Structure
# # Reduced
# # space
# # abc:
# # angles:
# # sites:
# # POT  SCF 100  7.0000   0, screened core-hole, AFOLP (folp(0)= 1.150)
# # Abs   Z=29 Rmt= 1.231 Rnm= 1.297 K  shell
# # Pot 1 Z=30 Rmt= 1.278 Rnm= 1.423
# # Pot 2 Z=29 Rmt= 1.228 Rnm= 1.295
# # Pot 3 Z= 8 Rmt= 1.041 Rnm= 1.116
# # Gam_ch=1.729E+00 H-L exch Vi= 0.000E+00 Vr= 0.000E+00
# # Mu=-8.720E+00eV kf=2.138E+00 Vint=-1.572E+01eV Rs_int= 1.696
# FMS rfms= 9.0000
# # PATH  Rmax=-1.000,  Keep_limit= 0.00, Heap_limit 0.00  Pwcrit= 2.50%
#  S02=0.950  Temp=   0.00  Debye_temp=   0.00  Global_sig2= 0.00000
#  Energy zero shift, vr, vi    0.00000E+00   0.00000E+00
#  Curved wave amplitude ratio filter   4.000%
#     file         sig2 tot  cw amp ratio   deg  nlegs   reff  inp sig2
#     0/   0 paths used
#  xsedge+ 50, used to normalize mu           2.4476E-04
#  -----------------------------------------------------------------------
#  omega    e    k    mu    mu0     chi     @#
    8983.856    -12.530  -1.000  2.77917E-02  5.12507E-02 -2.34590E-02
    8984.154    -12.231  -0.960  2.88021E-02  5.48499E-02 -2.60478E-02
    8984.441    -11.945  -0.920  2.98564E-02  5.88363E-02 -2.89799E-02
    8984.715    -11.671  -0.880  3.09581E-02  6.32657E-02 -3.23076E-02
    8984.977    -11.409  -0.840  3.21113E-02  6.82026E-02 -3.60912E-02
    8985.227    -11.159  -0.800  3.33209E-02  7.37217E-02 -4.04008E-02
    8985.465    -10.921  -0.760  3.45924E-02  7.99085E-02 -4.53161E-02
    8985.690    -10.695  -0.720  3.59324E-02  8.68594E-02 -5.09270E-02
    8985.904    -10.482  -0.680  3.73480E-02  9.46801E-02 -5.73322E-02
    8986.105    -10.281  -0.640  3.88466E-02  1.03482E-01 -6.46356E-02
    8986.294    -10.092  -0.600  4.04354E-02  1.13375E-01 -7.29391E-02
    8986.471     -9.915  -0.560  4.21194E-02  1.24449E-01 -8.23301E-02
    8986.635     -9.750  -0.520  4.38995E-02  1.36761E-01 -9.28615E-02
    8986.788     -9.598  -0.480  4.57693E-02  1.50294E-01 -1.04525E-01
    8986.928     -9.458  -0.440  4.77115E-02  1.64931E-01 -1.17220E-01
    8987.056     -9.330  -0.400  4.96951E-02  1.80422E-01 -1.30726E-01
    8987.172     -9.214  -0.360  5.16754E-02  1.96372E-01 -1.44696E-01
    8987.275     -9.110  -0.320  5.35971E-02  2.12272E-01 -1.58674E-01
    8987.367     -9.019  -0.280  5.54026E-02  2.27553E-01 -1.72150E-01
    8987.446     -8.940  -0.240  5.70400E-02  2.41668E-01 -1.84628E-01
    8987.513     -8.873  -0.200  5.84694E-02  2.54154E-01 -1.95685E-01
    8987.568     -8.818  -0.160  5.96650E-02  2.64670E-01 -2.05005E-01
    8987.611     -8.775  -0.120  6.06116E-02  2.72992E-01 -2.12381E-01
    8987.641     -8.745  -0.080  6.13013E-02  2.78994E-01 -2.17693E-01
    8987.666     -8.720   0.000  6.18806E-02  2.83821E-01 -2.21941E-01
    8987.720     -8.665   0.120  6.32447E-02  2.94724E-01 -2.31479E-01
    8987.763     -8.623   0.160  6.42424E-02  3.03213E-01 -2.38970E-01
    8987.818     -8.568   0.200  6.54412E-02  3.14065E-01 -2.48624E-01
    8987.885     -8.501   0.240  6.68728E-02  3.27177E-01 -2.60304E-01
    8987.964     -8.422   0.280  6.84614E-02  3.42298E-01 -2.73837E-01
    8988.056     -8.330   0.320  7.01942E-02  3.59086E-01 -2.88892E-01
    8988.159     -8.226   0.360  7.20133E-02  3.77091E-01 -3.05078E-01
    8988.275     -8.111   0.400  7.39107E-02  3.95872E-01 -3.21961E-01
    8988.403     -7.983   0.440  7.59312E-02  4.14986E-01 -3.39055E-01
    8988.543     -7.842   0.480  7.80922E-02  4.34106E-01 -3.56014E-01
    8988.696     -7.690   0.520  8.04598E-02  4.53003E-01 -3.72543E-01
    8988.860     -7.525   0.560  8.31011E-02  4.71559E-01 -3.88458E-01
    8989.037     -7.349   0.600  8.61289E-02  4.89763E-01 -4.03634E-01
    8989.226     -7.160   0.640  8.97039E-02  5.07660E-01 -4.17956E-01
    8989.427     -6.958   0.680  9.39250E-02  5.25261E-01 -4.31336E-01
    8989.641     -6.745   0.720  9.90381E-02  5.42689E-01 -4.43651E-01
    8989.866     -6.520   0.760  1.05196E-01  5.59943E-01 -4.54747E-01
    8990.104     -6.282   0.800  1.12653E-01  5.77115E-01 -4.64462E-01
    8990.354     -6.032   0.840  1.21477E-01  5.94225E-01 -4.72748E-01
    8990.616     -5.770   0.880  1.31520E-01  6.11318E-01 -4.79799E-01
    8990.890     -5.495   0.920  1.42639E-01  6.28371E-01 -4.85732E-01
    8991.177     -5.209   0.960  1.55047E-01  6.45388E-01 -4.90341E-01
    8991.476     -4.910   1.000  1.69032E-01  6.62384E-01 -4.93351E-01
    8991.786     -4.599   1.040  1.83927E-01  6.79306E-01 -4.95378E-01
    8992.110     -4.276   1.080  1.98732E-01  6.96135E-01 -4.97402E-01
    8992.445     -3.941   1.120  2.13795E-01  7.12846E-01 -4.99051E-01
    8992.792     -3.594   1.160  2.29766E-01  7.29393E-01 -4.99626E-01
    8993.152     -3.234   1.200  2.46853E-01  7.45741E-01 -4.98888E-01
    8993.524     -2.862   1.240  2.67679E-01  7.61838E-01 -4.94160E-01
    8993.908     -2.478   1.280  2.95043E-01  7.77648E-01 -4.82605E-01
    8994.304     -2.082   1.320  3.25327E-01  7.93133E-01 -4.67806E-01
    8994.713     -1.673   1.360  3.53226E-01  8.08239E-01 -4.55013E-01
    8995.133     -1.253   1.400  3.82437E-01  8.22927E-01 -4.40490E-01
    8995.566     -0.820   1.440  4.21361E-01  8.37183E-01 -4.15822E-01
    8996.011     -0.375   1.480  4.76133E-01  8.50953E-01 -3.74820E-01
    8996.468      0.082   1.520  5.47085E-01  8.64201E-01 -3.17116E-01
    8996.938      0.552   1.560  6.24390E-01  8.76896E-01 -2.52506E-01
    8997.419      1.033   1.600  6.99251E-01  8.89029E-01 -1.89779E-01
    8997.913      1.527   1.640  7.72234E-01  9.00593E-01 -1.28359E-01
    8998.419      2.033   1.680  8.41660E-01  9.11560E-01 -6.98996E-02
    8998.937      2.551   1.720  9.13324E-01  9.21907E-01 -8.58318E-03
    8999.467      3.082   1.760  1.00214E+00  9.31631E-01  7.05125E-02
    9000.010      3.624   1.800  1.11451E+00  9.40752E-01  1.73762E-01
    9000.565      4.179   1.840  1.24745E+00  9.49251E-01  2.98201E-01
    9001.132      4.746   1.880  1.39965E+00  9.57153E-01  4.42496E-01
    9001.711      5.325   1.920  1.58093E+00  9.64444E-01  6.16490E-01
    9002.302      5.916   1.960  1.78782E+00  9.71147E-01  8.16674E-01
    9002.906      6.520   2.000  1.97774E+00  9.77271E-01  1.00047E+00
    9003.521      7.135   2.040  2.07840E+00  9.82824E-01  1.09558E+00
    9004.149      7.763   2.080  2.03550E+00  9.87860E-01  1.04764E+00
    9004.789      8.403   2.120  1.84056E+00  9.92367E-01  8.48195E-01
    9005.441      9.056   2.160  1.56138E+00  9.96378E-01  5.65005E-01
    9006.106      9.720   2.200  1.32727E+00  9.99926E-01  3.27349E-01
    9006.783     10.397   2.240  1.18426E+00  1.00302E+00  1.81241E-01
    9007.471     11.086   2.280  1.09660E+00  1.00570E+00  9.09046E-02
    9008.172     11.787   2.320  1.02921E+00  1.00797E+00  2.12448E-02
    9008.886     12.500   2.360  9.74724E-01  1.00986E+00 -3.51383E-02
    9009.611     13.225   2.400  9.35311E-01  1.01142E+00 -7.61085E-02
    9010.349     13.963   2.440  9.05233E-01  1.01265E+00 -1.07418E-01
    9011.099     14.713   2.480  8.83591E-01  1.01359E+00 -1.29997E-01
    9011.861     15.475   2.520  8.90293E-01  1.01424E+00 -1.23950E-01
    9012.635     16.249   2.560  9.44538E-01  1.01465E+00 -7.01110E-02
    9013.421     17.035   2.600  1.00829E+00  1.01484E+00 -6.54416E-03
    9014.220     17.834   2.640  1.05158E+00  1.01482E+00  3.67634E-02
    9015.030     18.645   2.680  1.07202E+00  1.01461E+00  5.74092E-02
    9015.853     19.468   2.720  1.07401E+00  1.01425E+00  5.97592E-02
    9016.689     20.303   2.760  1.06002E+00  1.01374E+00  4.62813E-02
    9017.536     21.150   2.800  1.03352E+00  1.01310E+00  2.04211E-02
    9018.395     22.010   2.840  1.00045E+00  1.01235E+00 -1.18932E-02
    9019.267     22.881   2.880  9.65867E-01  1.01153E+00 -4.56585E-02
    9020.151     23.765   2.920  9.32772E-01  1.01061E+00 -7.78334E-02
    9021.047     24.661   2.960  9.03214E-01  1.00966E+00 -1.06441E-01
    9021.955     25.570   3.000  8.77729E-01  1.00864E+00 -1.30910E-01
    9022.876     26.490   3.040  8.56094E-01  1.00758E+00 -1.51491E-01
    9023.809     27.423   3.080  8.38156E-01  1.00652E+00 -1.68362E-01
    9024.753     28.368   3.120  8.23146E-01  1.00545E+00 -1.82302E-01
    9025.711     29.325   3.160  8.10583E-01  1.00438E+00 -1.93792E-01
    9026.680     30.294   3.200  8.00713E-01  1.00331E+00 -2.02594E-01
    9027.661     31.275   3.240  7.94230E-01  1.00227E+00 -2.08036E-01
    9028.655     32.269   3.280  7.91743E-01  1.00124E+00 -2.09495E-01
    9029.661     33.275   3.320  7.93778E-01  1.00024E+00 -2.06466E-01
    9030.679     34.293   3.360  8.00534E-01  9.99289E-01 -1.98755E-01
    9031.709     35.323   3.400  8.11134E-01  9.98377E-01 -1.87243E-01
    9032.751     36.366   3.440  8.24579E-01  9.97531E-01 -1.72952E-01
    9033.806     37.420   3.480  8.40127E-01  9.96731E-01 -1.56604E-01
    9034.873     38.487   3.520  8.57441E-01  9.95978E-01 -1.38538E-01
    9035.952     39.566   3.560  8.76553E-01  9.95296E-01 -1.18743E-01
    9037.043     40.657   3.600  8.97777E-01  9.94665E-01 -9.68876E-02
    9038.146     41.761   3.640  9.21240E-01  9.94108E-01 -7.28681E-02
    9039.262     42.876   3.680  9.46572E-01  9.93626E-01 -4.70539E-02
    9040.390     44.004   3.720  9.73044E-01  9.93219E-01 -2.01752E-02
    9041.530     45.144   3.760  9.99640E-01  9.92865E-01  6.77450E-03
    9042.682     46.296   3.800  1.02495E+00  9.92586E-01  3.23649E-02
    9043.846     47.460   3.840  1.04748E+00  9.92382E-01  5.50934E-02
    9045.023     48.637   3.880  1.06628E+00  9.92231E-01  7.40444E-02
    9046.211     49.826   3.920  1.08154E+00  9.92154E-01  8.93836E-02
    9047.412     51.026   3.960  1.09461E+00  9.92151E-01  1.02457E-01
    9048.625     52.240   4.000  1.10748E+00  9.92200E-01  1.15284E-01
    9049.851     53.465   4.040  1.12169E+00  9.92323E-01  1.29369E-01
    9051.088     54.702   4.080  1.13720E+00  9.92516E-01  1.44687E-01
    9052.338     55.952   4.120  1.15224E+00  9.92759E-01  1.59485E-01
    9053.600     57.214   4.160  1.16394E+00  9.93049E-01  1.70887E-01
    9054.874     58.488   4.200  1.16930E+00  9.93406E-01  1.75896E-01
    9056.160     59.774   4.240  1.16644E+00  9.93807E-01  1.72629E-01
    9057.458     61.073   4.280  1.15541E+00  9.94251E-01  1.61160E-01
    9058.769     62.383   4.320  1.13799E+00  9.94736E-01  1.43253E-01
    9060.092     63.706   4.360  1.11691E+00  9.95261E-01  1.21648E-01
    9061.427     65.041   4.400  1.09481E+00  9.95825E-01  9.89821E-02
    9062.774     66.388   4.440  1.07338E+00  9.96425E-01  7.69532E-02
    9064.133     67.748   4.480  1.05318E+00  9.97061E-01  5.61184E-02
    9065.505     69.119   4.520  1.03410E+00  9.97707E-01  3.63938E-02
    9066.889     70.503   4.560  1.01606E+00  9.98382E-01  1.76826E-02
    9068.285     71.899   4.600  9.99351E-01  9.99064E-01  2.86703E-04
    9069.693     73.307   4.640  9.84630E-01  9.99751E-01 -1.51210E-02
    9071.113     74.728   4.680  9.72566E-01  1.00046E+00 -2.78974E-02
    9072.546     76.160   4.720  9.63453E-01  1.00118E+00 -3.77239E-02
    9073.991     77.605   4.760  9.57366E-01  1.00187E+00 -4.45011E-02
    9075.448     79.062   4.800  9.54330E-01  1.00258E+00 -4.82476E-02
    9076.917     80.531   4.840  9.54093E-01  1.00328E+00 -4.91914E-02
    9078.398     82.012   4.880  9.56128E-01  1.00396E+00 -4.78333E-02
    9079.892     83.506   4.920  9.59711E-01  1.00461E+00 -4.48974E-02
    9081.397     85.011   4.960  9.64119E-01  1.00527E+00 -4.11492E-02
    9082.915     86.529   5.000  9.68483E-01  1.00590E+00 -3.74138E-02
    9084.445     88.059   5.040  9.71858E-01  1.00649E+00 -3.46305E-02
    9085.988     89.602   5.080  9.73451E-01  1.00704E+00 -3.35915E-02
    9087.542     91.156   5.120  9.73070E-01  1.00758E+00 -3.45100E-02
    9089.109     92.723   5.160  9.71446E-01  1.00806E+00 -3.66106E-02
    9090.688     94.302   5.200  9.70271E-01  1.00852E+00 -3.82448E-02
    9092.279     95.893   5.240  9.71181E-01  1.00893E+00 -3.77519E-02
    9093.882     97.496   5.280  9.74932E-01  1.00929E+00 -3.43535E-02
    9095.497     99.111   5.320  9.81049E-01  1.00962E+00 -2.85677E-02
    9097.125    100.739   5.360  9.88292E-01  1.00988E+00 -2.15930E-02
    9098.765    102.379   5.400  9.95483E-01  1.01013E+00 -1.46467E-02
    9100.417    104.031   5.440  1.00177E+00  1.01031E+00 -8.54116E-03
    9102.081    105.695   5.480  1.00641E+00  1.01044E+00 -4.03451E-03
    9103.757    107.372   5.520  1.00832E+00  1.01050E+00 -2.18535E-03
    9105.446    109.060   5.560  1.00648E+00  1.01054E+00 -4.06856E-03
    9107.147    110.761   5.600  1.00063E+00  1.01052E+00 -9.88996E-03
    9108.860    112.474   5.640  9.91444E-01  1.01044E+00 -1.90006E-02
    9110.585    114.199   5.680  9.79509E-01  1.01030E+00 -3.07943E-02
    9112.322    115.936   5.720  9.65060E-01  1.01014E+00 -4.50803E-02
    9114.072    117.686   5.760  9.48644E-01  1.00991E+00 -6.12685E-02
    9115.833    119.448   5.800  9.32187E-01  1.00964E+00 -7.74541E-02
    9117.607    121.222   5.840  9.18644E-01  1.00933E+00 -9.06832E-02
    9119.394    123.008   5.880  9.10678E-01  1.00895E+00 -9.82725E-02
    9121.192    124.806   5.920  9.09718E-01  1.00856E+00 -9.88420E-02
    9123.002    126.617   5.960  9.15988E-01  1.00813E+00 -9.21455E-02
    9124.825    128.439   6.000  9.30181E-01  1.00761E+00 -7.74274E-02
