# # comment:                                                     FEFF 9.9.1  
# # Source:
# # Structure
# # Reduced
# # space
# # abc:
# # angles:
# # sites:
# # POT  SCF 100  7.0000   0, screened core-hole, AFOLP (folp(0)= 1.150)
# # Abs   Z=29 Rmt= 1.299 Rnm= 1.367 K  shell
# # Pot 1 Z= 3 Rmt= 1.304 Rnm= 1.363
# # Pot 2 Z=29 Rmt= 1.292 Rnm= 1.359
# # Pot 3 Z=15 Rmt= 0.937 Rnm= 1.154
# # Pot 4 Z= 8 Rmt= 0.900 Rnm= 1.048
# # Gam_ch=1.729E+00 H-L exch Vi= 0.000E+00 Vr= 0.000E+00
# # Mu=-6.850E+00eV kf=2.437E+00 Vint=-1.699E+01eV Rs_int= 1.488
# FMS rfms= 9.0000
# # PATH  Rmax=-1.000,  Keep_limit= 0.00, Heap_limit 0.00  Pwcrit= 2.50%
#  S02=0.950  Temp=   0.00  Debye_temp=   0.00  Global_sig2= 0.00000
#  Energy zero shift, vr, vi    0.00000E+00   0.00000E+00
#  Curved wave amplitude ratio filter   4.000%
#     file         sig2 tot  cw amp ratio   deg  nlegs   reff  inp sig2
#     0/   0 paths used
#  xsedge+ 50, used to normalize mu           2.4817E-04
#  -----------------------------------------------------------------------
#  omega    e    k    mu    mu0     chi     @#
    8983.379    -10.660  -1.000  4.27784E-02  5.28514E-02 -1.00729E-02
    8983.678    -10.361  -0.960  4.51124E-02  5.66915E-02 -1.15791E-02
    8983.965    -10.074  -0.920  4.76067E-02  6.09607E-02 -1.33540E-02
    8984.239     -9.800  -0.880  5.02725E-02  6.57224E-02 -1.54499E-02
    8984.501     -9.538  -0.840  5.31214E-02  7.10507E-02 -1.79293E-02
    8984.751     -9.288  -0.800  5.61650E-02  7.70314E-02 -2.08663E-02
    8984.989     -9.050  -0.760  5.94147E-02  8.37629E-02 -2.43482E-02
    8985.214     -8.825  -0.720  6.28811E-02  9.13567E-02 -2.84757E-02
    8985.428     -8.611  -0.680  6.65732E-02  9.99356E-02 -3.33624E-02
    8985.629     -8.410  -0.640  7.04977E-02  1.09629E-01 -3.91315E-02
    8985.818     -8.221  -0.600  7.46571E-02  1.20565E-01 -4.59080E-02
    8985.995     -8.045  -0.560  7.90474E-02  1.32852E-01 -5.38048E-02
    8986.159     -7.880  -0.520  8.36556E-02  1.46555E-01 -6.28998E-02
    8986.312     -7.728  -0.480  8.84555E-02  1.61661E-01 -7.32056E-02
    8986.452     -7.587  -0.440  9.34041E-02  1.78036E-01 -8.46322E-02
    8986.580     -7.459  -0.400  9.84379E-02  1.95395E-01 -9.69570E-02
    8986.696     -7.343  -0.360  1.03472E-01  2.13287E-01 -1.09815E-01
    8986.799     -7.240  -0.320  1.08403E-01  2.31127E-01 -1.22724E-01
    8986.891     -7.148  -0.280  1.13115E-01  2.48267E-01 -1.35153E-01
    8986.970     -7.069  -0.240  1.17488E-01  2.64084E-01 -1.46596E-01
    8987.037     -7.002  -0.200  1.21409E-01  2.78057E-01 -1.56648E-01
    8987.092     -6.947  -0.160  1.24775E-01  2.89807E-01 -1.65032E-01
    8987.135     -6.905  -0.120  1.27498E-01  2.99091E-01 -1.71593E-01
    8987.165     -6.874  -0.080  1.29509E-01  3.05777E-01 -1.76269E-01
    8987.189     -6.850   0.000  1.31186E-01  3.11148E-01 -1.79962E-01
    8987.244     -6.795   0.120  1.35045E-01  3.23246E-01 -1.88201E-01
    8987.287     -6.752   0.160  1.38050E-01  3.32656E-01 -1.94606E-01
    8987.342     -6.697   0.200  1.41993E-01  3.44648E-01 -2.02655E-01
    8987.409     -6.630   0.240  1.46975E-01  3.59072E-01 -2.12097E-01
    8987.488     -6.551   0.280  1.53052E-01  3.75588E-01 -2.22536E-01
    8987.580     -6.460   0.320  1.60438E-01  3.93802E-01 -2.33364E-01
    8987.683     -6.356   0.360  1.69295E-01  4.13156E-01 -2.43860E-01
    8987.799     -6.240   0.400  1.79927E-01  4.33058E-01 -2.53132E-01
    8987.927     -6.112   0.440  1.92770E-01  4.53007E-01 -2.60237E-01
    8988.067     -5.972   0.480  2.08386E-01  4.72561E-01 -2.64175E-01
    8988.220     -5.819   0.520  2.27573E-01  4.91486E-01 -2.63914E-01
    8988.384     -5.655   0.560  2.51312E-01  5.09644E-01 -2.58332E-01
    8988.561     -5.478   0.600  2.80755E-01  5.27026E-01 -2.46271E-01
    8988.750     -5.289   0.640  3.17042E-01  5.43672E-01 -2.26629E-01
    8988.951     -5.088   0.680  3.61142E-01  5.59658E-01 -1.98516E-01
    8989.164     -4.875   0.720  4.13139E-01  5.75118E-01 -1.61978E-01
    8989.390     -4.649   0.760  4.71225E-01  5.90120E-01 -1.18894E-01
    8989.628     -4.411   0.800  5.31694E-01  6.04766E-01 -7.30720E-02
    8989.878     -4.161   0.840  5.90622E-01  6.19125E-01 -2.85030E-02
    8990.140     -3.899   0.880  6.44795E-01  6.33271E-01  1.15242E-02
    8990.414     -3.625   0.920  6.90054E-01  6.47225E-01  4.28291E-02
    8990.701     -3.338   0.960  7.22160E-01  6.61039E-01  6.11214E-02
    8990.999     -3.040   1.000  7.40195E-01  6.74732E-01  6.54631E-02
    8991.310     -2.729   1.040  7.46243E-01  6.88313E-01  5.79301E-02
    8991.633     -2.406   1.080  7.41919E-01  7.01785E-01  4.01342E-02
    8991.969     -2.070   1.120  7.30323E-01  7.15165E-01  1.51584E-02
    8992.316     -1.723   1.160  7.20730E-01  7.28442E-01 -7.71155E-03
    8992.676     -1.363   1.200  7.23206E-01  7.41582E-01 -1.83762E-02
    8993.048     -0.991   1.240  7.37465E-01  7.54588E-01 -1.71237E-02
    8993.432     -0.607   1.280  7.52501E-01  7.67441E-01 -1.49401E-02
    8993.828     -0.211   1.320  7.62511E-01  7.80138E-01 -1.76271E-02
    8994.236      0.197   1.360  7.75863E-01  7.92614E-01 -1.67518E-02
    8994.657      0.618   1.400  8.01869E-01  8.04884E-01 -3.01494E-03
    8995.090      1.051   1.440  8.42813E-01  8.16921E-01  2.58926E-02
    8995.535      1.496   1.480  8.93980E-01  8.28697E-01  6.52823E-02
    8995.992      1.953   1.520  9.42121E-01  8.40186E-01  1.01935E-01
    8996.461      2.422   1.560  9.71554E-01  8.51381E-01  1.20173E-01
    8996.943      2.904   1.600  9.75642E-01  8.62252E-01  1.13390E-01
    8997.437      3.398   1.640  9.65398E-01  8.72774E-01  9.26249E-02
    8997.943      3.904   1.680  9.66153E-01  8.82940E-01  8.32131E-02
    8998.461      4.422   1.720  9.80613E-01  8.92723E-01  8.78903E-02
    8998.991      4.952   1.760  9.87974E-01  9.02139E-01  8.58354E-02
    8999.534      5.495   1.800  9.90128E-01  9.11144E-01  7.89836E-02
    9000.088      6.049   1.840  1.00550E+00  9.19755E-01  8.57497E-02
    9000.655      6.616   1.880  1.03718E+00  9.27946E-01  1.09232E-01
    9001.235      7.195   1.920  1.06659E+00  9.35719E-01  1.30867E-01
    9001.826      7.787   1.960  1.07977E+00  9.43070E-01  1.36704E-01
    9002.429      8.390   2.000  1.08390E+00  9.49979E-01  1.33919E-01
    9003.045      9.006   2.040  1.09090E+00  9.56489E-01  1.34416E-01
    9003.673      9.634   2.080  1.10554E+00  9.62562E-01  1.42976E-01
    9004.313     10.274   2.120  1.12635E+00  9.68218E-01  1.58129E-01
    9004.965     10.926   2.160  1.14148E+00  9.73462E-01  1.68014E-01
    9005.630     11.591   2.200  1.13925E+00  9.78318E-01  1.60936E-01
    9006.306     12.267   2.240  1.12732E+00  9.82770E-01  1.44554E-01
    9006.995     12.956   2.280  1.12604E+00  9.86823E-01  1.39219E-01
    9007.696     13.657   2.320  1.14365E+00  9.90503E-01  1.53147E-01
    9008.409     14.370   2.360  1.16433E+00  9.93839E-01  1.70494E-01
    9009.135     15.096   2.400  1.17717E+00  9.96814E-01  1.80357E-01
    9009.873     15.833   2.440  1.18736E+00  9.99456E-01  1.87901E-01
    9010.622     16.583   2.480  1.19102E+00  1.00175E+00  1.89264E-01
    9011.384     17.345   2.520  1.17235E+00  1.00377E+00  1.68583E-01
    9012.159     18.119   2.560  1.12483E+00  1.00548E+00  1.19351E-01
    9012.945     18.906   2.600  1.05992E+00  1.00691E+00  5.30105E-02
    9013.743     19.704   2.640  9.91955E-01  1.00810E+00 -1.61449E-02
    9014.554     20.515   2.680  9.34337E-01  1.00903E+00 -7.46896E-02
    9015.377     21.338   2.720  8.97842E-01  1.00971E+00 -1.11873E-01
    9016.212     22.173   2.760  8.84211E-01  1.01019E+00 -1.25982E-01
    9017.060     23.021   2.800  8.83895E-01  1.01049E+00 -1.26594E-01
    9017.919     23.880   2.840  8.88084E-01  1.01059E+00 -1.22506E-01
    9018.791     24.752   2.880  8.90834E-01  1.01050E+00 -1.19669E-01
    9019.675     25.636   2.920  8.93187E-01  1.01028E+00 -1.17091E-01
    9020.571     26.532   2.960  8.95398E-01  1.00992E+00 -1.14523E-01
    9021.479     27.440   3.000  8.95940E-01  1.00944E+00 -1.13499E-01
    9022.400     28.361   3.040  8.94159E-01  1.00882E+00 -1.14659E-01
    9023.332     29.293   3.080  8.91271E-01  1.00812E+00 -1.16853E-01
    9024.277     30.238   3.120  8.89139E-01  1.00733E+00 -1.18188E-01
    9025.234     31.195   3.160  8.89174E-01  1.00647E+00 -1.17296E-01
    9026.204     32.165   3.200  8.91845E-01  1.00554E+00 -1.13692E-01
    9027.185     33.146   3.240  8.97218E-01  1.00454E+00 -1.07318E-01
    9028.179     34.140   3.280  9.05347E-01  1.00351E+00 -9.81664E-02
    9029.185     35.145   3.320  9.15598E-01  1.00245E+00 -8.68527E-02
    9030.203     36.163   3.360  9.27378E-01  1.00136E+00 -7.39777E-02
    9031.233     37.194   3.400  9.39784E-01  1.00025E+00 -6.04682E-02
    9032.275     38.236   3.440  9.51939E-01  9.99144E-01 -4.72044E-02
    9033.330     39.291   3.480  9.63334E-01  9.98034E-01 -3.46993E-02
    9034.397     40.358   3.520  9.73783E-01  9.96924E-01 -2.31413E-02
    9035.476     41.437   3.560  9.83015E-01  9.95821E-01 -1.28056E-02
    9036.567     42.528   3.600  9.90666E-01  9.94748E-01 -4.08200E-03
    9037.670     43.631   3.640  9.96570E-01  9.93707E-01  2.86296E-03
    9038.786     44.747   3.680  1.00093E+00  9.92680E-01  8.25137E-03
    9039.913     45.874   3.720  1.00460E+00  9.91711E-01  1.28915E-02
    9041.053     47.014   3.760  1.00869E+00  9.90761E-01  1.79303E-02
    9042.206     48.166   3.800  1.01415E+00  9.89870E-01  2.42787E-02
    9043.370     49.331   3.840  1.02114E+00  9.89000E-01  3.21365E-02
    9044.546     50.507   3.880  1.02920E+00  9.88195E-01  4.10035E-02
    9045.735     51.696   3.920  1.03742E+00  9.87436E-01  4.99810E-02
    9046.936     52.897   3.960  1.04491E+00  9.86744E-01  5.81629E-02
    9048.149     54.110   4.000  1.05112E+00  9.86097E-01  6.50189E-02
    9049.374     55.335   4.040  1.05601E+00  9.85498E-01  7.05134E-02
    9050.612     56.573   4.080  1.05974E+00  9.84966E-01  7.47779E-02
    9051.862     57.822   4.120  1.06226E+00  9.84483E-01  7.77782E-02
    9053.123     59.084   4.160  1.06325E+00  9.84069E-01  7.91822E-02
    9054.398     60.358   4.200  1.06209E+00  9.83703E-01  7.83867E-02
    9055.684     61.645   4.240  1.05823E+00  9.83407E-01  7.48219E-02
    9056.982     62.943   4.280  1.05146E+00  9.83158E-01  6.82973E-02
    9058.293     64.254   4.320  1.04218E+00  9.82955E-01  5.92205E-02
    9059.616     65.577   4.360  1.03127E+00  9.82822E-01  4.84507E-02
    9060.951     66.912   4.400  1.01979E+00  9.82756E-01  3.70293E-02
    9062.298     68.259   4.440  1.00854E+00  9.82714E-01  2.58266E-02
    9063.657     69.618   4.480  9.98066E-01  9.82737E-01  1.53291E-02
    9065.029     70.990   4.520  9.88537E-01  9.82806E-01  5.73140E-03
    9066.413     72.374   4.560  9.80022E-01  9.82938E-01 -2.91583E-03
    9067.809     73.770   4.600  9.72441E-01  9.83089E-01 -1.06487E-02
    9069.217     75.178   4.640  9.65818E-01  9.83280E-01 -1.74627E-02
    9070.637     76.598   4.680  9.60330E-01  9.83531E-01 -2.32019E-02
    9072.070     78.031   4.720  9.56207E-01  9.83799E-01 -2.75923E-02
    9073.514     79.475   4.760  9.53718E-01  9.84104E-01 -3.03859E-02
    9074.971     80.932   4.800  9.52894E-01  9.84444E-01 -3.15494E-02
    9076.441     82.401   4.840  9.53476E-01  9.84817E-01 -3.13412E-02
    9077.922     83.883   4.880  9.55032E-01  9.85202E-01 -3.01701E-02
    9079.415     85.376   4.920  9.57152E-01  9.85616E-01 -2.84638E-02
    9080.921     86.882   4.960  9.59481E-01  9.86036E-01 -2.65551E-02
    9082.439     88.400   5.000  9.61916E-01  9.86462E-01 -2.45454E-02
    9083.969     89.930   5.040  9.64598E-01  9.86912E-01 -2.23148E-02
    9085.511     91.472   5.080  9.67725E-01  9.87365E-01 -1.96400E-02
    9087.066     93.027   5.120  9.71358E-01  9.87795E-01 -1.64369E-02
    9088.633     94.593   5.160  9.75291E-01  9.88248E-01 -1.29564E-02
    9090.211     96.172   5.200  9.78978E-01  9.88701E-01 -9.72227E-03
    9091.802     97.763   5.240  9.81879E-01  9.89149E-01 -7.27053E-03
    9093.406     99.367   5.280  9.83668E-01  9.89570E-01 -5.90178E-03
    9095.021    100.982   5.320  9.84283E-01  9.89984E-01 -5.70095E-03
    9096.649    102.610   5.360  9.83663E-01  9.90391E-01 -6.72814E-03
    9098.289    104.249   5.400  9.81645E-01  9.90767E-01 -9.12248E-03
    9099.941    105.901   5.440  9.78208E-01  9.91133E-01 -1.29245E-02
    9101.605    107.566   5.480  9.73644E-01  9.91464E-01 -1.78191E-02
    9103.281    109.242   5.520  9.68760E-01  9.91757E-01 -2.29964E-02
    9104.970    110.931   5.560  9.64738E-01  9.92015E-01 -2.72768E-02
    9106.670    112.631   5.600  9.62678E-01  9.92260E-01 -2.95817E-02
    9108.383    114.344   5.640  9.63046E-01  9.92468E-01 -2.94229E-02
    9110.109    116.070   5.680  9.65596E-01  9.92638E-01 -2.70423E-02
    9111.846    117.807   5.720  9.69613E-01  9.92771E-01 -2.31586E-02
    9113.596    119.556   5.760  9.74323E-01  9.92888E-01 -1.85652E-02
    9115.357    121.318   5.800  9.79089E-01  9.92941E-01 -1.38522E-02
    9117.131    123.092   5.840  9.83667E-01  9.92952E-01 -9.28457E-03
    9118.917    124.878   5.880  9.88068E-01  9.92923E-01 -4.85559E-03
    9120.716    126.677   5.920  9.92426E-01  9.92854E-01 -4.27988E-04
    9122.526    128.487   5.960  9.96795E-01  9.92742E-01  4.05309E-03
    9124.349    130.310   6.000  1.00124E+00  9.92564E-01  8.67597E-03
