# # comment:                                                     FEFF 9.9.1  
# # Source:
# # Structure
# # Reduced
# # space
# # abc:
# # angles:
# # sites:
# # POT  SCF 100  7.0000   0, screened core-hole, AFOLP (folp(0)= 1.150)
# # Abs   Z=29 Rmt= 1.126 Rnm= 1.257 K  shell
# # Pot 1 Z=11 Rmt= 1.516 Rnm= 1.577
# # Pot 2 Z=29 Rmt= 1.130 Rnm= 1.262
# # Pot 3 Z= 8 Rmt= 1.036 Rnm= 1.121
# # Gam_ch=1.729E+00 H-L exch Vi= 0.000E+00 Vr= 0.000E+00
# # Mu=-7.564E+00eV kf=2.052E+00 Vint=-1.465E+01eV Rs_int= 1.767
# FMS rfms= 9.0000
# # PATH  Rmax=-1.000,  Keep_limit= 0.00, Heap_limit 0.00  Pwcrit= 2.50%
#  S02=0.950  Temp=   0.00  Debye_temp=   0.00  Global_sig2= 0.00000
#  Energy zero shift, vr, vi    0.00000E+00   0.00000E+00
#  Curved wave amplitude ratio filter   4.000%
#     file         sig2 tot  cw amp ratio   deg  nlegs   reff  inp sig2
#     0/   0 paths used
#  xsedge+ 50, used to normalize mu           2.4127E-04
#  -----------------------------------------------------------------------
#  omega    e    k    mu    mu0     chi     @#
    8984.032    -11.374  -1.000  3.51964E-02  5.90502E-02 -2.38538E-02
    8984.331    -11.075  -0.960  3.68751E-02  6.33656E-02 -2.64905E-02
    8984.618    -10.788  -0.920  3.86630E-02  6.81564E-02 -2.94934E-02
    8984.892    -10.514  -0.880  4.05695E-02  7.34917E-02 -3.29221E-02
    8985.154    -10.252  -0.840  4.26045E-02  7.94515E-02 -3.68470E-02
    8985.404    -10.002  -0.800  4.47788E-02  8.61286E-02 -4.13498E-02
    8985.642     -9.764  -0.760  4.71036E-02  9.36292E-02 -4.65256E-02
    8985.867     -9.539  -0.720  4.95908E-02  1.02073E-01 -5.24821E-02
    8986.081     -9.325  -0.680  5.22522E-02  1.11591E-01 -5.93392E-02
    8986.282     -9.124  -0.640  5.50984E-02  1.22323E-01 -6.72248E-02
    8986.471     -8.935  -0.600  5.81379E-02  1.34404E-01 -7.62662E-02
    8986.648     -8.758  -0.560  6.13748E-02  1.47949E-01 -8.65746E-02
    8986.812     -8.594  -0.520  6.48052E-02  1.63027E-01 -9.82217E-02
    8986.965     -8.441  -0.480  6.84134E-02  1.79620E-01 -1.11206E-01
    8987.105     -8.301  -0.440  7.21671E-02  1.97583E-01 -1.25416E-01
    8987.233     -8.173  -0.400  7.60136E-02  2.16607E-01 -1.40593E-01
    8987.349     -8.057  -0.360  7.98792E-02  2.36206E-01 -1.56327E-01
    8987.452     -7.954  -0.320  8.36730E-02  2.55750E-01 -1.72077E-01
    8987.544     -7.862  -0.280  8.72951E-02  2.74537E-01 -1.87242E-01
    8987.623     -7.783  -0.240  9.06470E-02  2.91890E-01 -2.01243E-01
    8987.690     -7.716  -0.200  9.36400E-02  3.07239E-01 -2.13599E-01
    8987.745     -7.661  -0.160  9.62000E-02  3.20164E-01 -2.23964E-01
    8987.788     -7.619  -0.120  9.82675E-02  3.30391E-01 -2.32123E-01
    8987.818     -7.588  -0.080  9.97962E-02  3.37765E-01 -2.37969E-01
    8987.842     -7.564   0.000  1.01084E-01  3.43694E-01 -2.42610E-01
    8987.897     -7.509   0.120  1.03975E-01  3.57074E-01 -2.53099E-01
    8987.940     -7.466   0.160  1.06176E-01  3.67477E-01 -2.61301E-01
    8987.995     -7.411   0.200  1.09074E-01  3.80814E-01 -2.71740E-01
    8988.062     -7.344   0.240  1.12681E-01  3.96886E-01 -2.84205E-01
    8988.141     -7.265   0.280  1.17035E-01  4.15403E-01 -2.98368E-01
    8988.233     -7.174   0.320  1.22247E-01  4.35916E-01 -3.13669E-01
    8988.336     -7.070   0.360  1.28440E-01  4.57906E-01 -3.29466E-01
    8988.452     -6.954   0.400  1.35810E-01  4.80775E-01 -3.44964E-01
    8988.580     -6.826   0.440  1.44568E-01  5.03972E-01 -3.59405E-01
    8988.720     -6.686   0.480  1.55011E-01  5.27087E-01 -3.72076E-01
    8988.873     -6.533   0.520  1.67390E-01  5.49812E-01 -3.82423E-01
    8989.037     -6.369   0.560  1.81827E-01  5.72023E-01 -3.90196E-01
    8989.214     -6.192   0.600  1.98296E-01  5.93680E-01 -3.95384E-01
    8989.403     -6.003   0.640  2.16658E-01  6.14791E-01 -3.98133E-01
    8989.604     -5.802   0.680  2.37047E-01  6.35421E-01 -3.98374E-01
    8989.818     -5.589   0.720  2.59950E-01  6.55647E-01 -3.95697E-01
    8990.043     -5.363   0.760  2.85800E-01  6.75542E-01 -3.89743E-01
    8990.281     -5.125   0.800  3.14026E-01  6.95147E-01 -3.81122E-01
    8990.531     -4.875   0.840  3.42824E-01  7.14470E-01 -3.71646E-01
    8990.793     -4.613   0.880  3.70565E-01  7.33566E-01 -3.63001E-01
    8991.067     -4.339   0.920  3.97050E-01  7.52431E-01 -3.55381E-01
    8991.354     -4.052   0.960  4.21095E-01  7.71032E-01 -3.49937E-01
    8991.652     -3.754   1.000  4.37720E-01  7.89384E-01 -3.51664E-01
    8991.963     -3.443   1.040  4.43483E-01  8.07411E-01 -3.63928E-01
    8992.286     -3.120   1.080  4.44431E-01  8.25093E-01 -3.80662E-01
    8992.622     -2.784   1.120  4.50158E-01  8.42403E-01 -3.92244E-01
    8992.969     -2.437   1.160  4.62930E-01  8.59269E-01 -3.96339E-01
    8993.329     -2.077   1.200  4.79410E-01  8.75638E-01 -3.96229E-01
    8993.701     -1.705   1.240  4.98041E-01  8.91496E-01 -3.93455E-01
    8994.085     -1.321   1.280  5.18124E-01  9.06787E-01 -3.88663E-01
    8994.481     -0.925   1.320  5.33962E-01  9.21434E-01 -3.87472E-01
    8994.889     -0.517   1.360  5.39098E-01  9.35444E-01 -3.96346E-01
    8995.310     -0.096   1.400  5.35251E-01  9.48763E-01 -4.13511E-01
    8995.743      0.337   1.440  5.30198E-01  9.61338E-01 -4.31140E-01
    8996.188      0.782   1.480  5.32756E-01  9.73184E-01 -4.40428E-01
    8996.645      1.239   1.520  5.48852E-01  9.84274E-01 -4.35423E-01
    8997.114      1.708   1.560  5.77994E-01  9.94582E-01 -4.16588E-01
    8997.596      2.190   1.600  6.17767E-01  1.00411E+00 -3.86342E-01
    8998.090      2.684   1.640  6.71863E-01  1.01286E+00 -3.40993E-01
    8998.596      3.190   1.680  7.45009E-01  1.02081E+00 -2.75796E-01
    8999.114      3.708   1.720  8.31115E-01  1.02801E+00 -1.96892E-01
    8999.644      4.238   1.760  9.15432E-01  1.03447E+00 -1.19038E-01
    9000.187      4.781   1.800  9.89011E-01  1.04018E+00 -5.11708E-02
    9000.742      5.335   1.840  1.05745E+00  1.04518E+00  1.22771E-02
    9001.308      5.902   1.880  1.13213E+00  1.04949E+00  8.26444E-02
    9001.888      6.481   1.920  1.21797E+00  1.05316E+00  1.64817E-01
    9002.479      7.073   1.960  1.31191E+00  1.05619E+00  2.55721E-01
    9003.082      7.676   2.000  1.40713E+00  1.05864E+00  3.48495E-01
    9003.698      8.292   2.040  1.49589E+00  1.06053E+00  4.35359E-01
    9004.326      8.920   2.080  1.56775E+00  1.06188E+00  5.05869E-01
    9004.966      9.560   2.120  1.60850E+00  1.06276E+00  5.45741E-01
    9005.618     10.212   2.160  1.60639E+00  1.06318E+00  5.43215E-01
    9006.283     10.877   2.200  1.56586E+00  1.06320E+00  5.02659E-01
    9006.959     11.553   2.240  1.50512E+00  1.06282E+00  4.42300E-01
    9007.648     12.242   2.280  1.44055E+00  1.06209E+00  3.78455E-01
    9008.349     12.943   2.320  1.38520E+00  1.06106E+00  3.24136E-01
    9009.063     13.656   2.360  1.34736E+00  1.05975E+00  2.87615E-01
    9009.788     14.382   2.400  1.32263E+00  1.05818E+00  2.64456E-01
    9010.526     15.119   2.440  1.30200E+00  1.05639E+00  2.45607E-01
    9011.275     15.869   2.480  1.27419E+00  1.05440E+00  2.19789E-01
    9012.037     16.631   2.520  1.23809E+00  1.05227E+00  1.85828E-01
    9012.812     17.405   2.560  1.19813E+00  1.04998E+00  1.48154E-01
    9013.598     18.192   2.600  1.15941E+00  1.04759E+00  1.11821E-01
    9014.397     18.990   2.640  1.12489E+00  1.04509E+00  7.97998E-02
    9015.207     19.801   2.680  1.09582E+00  1.04253E+00  5.32865E-02
    9016.030     20.624   2.720  1.07240E+00  1.03993E+00  3.24669E-02
    9016.865     21.459   2.760  1.05398E+00  1.03729E+00  1.66920E-02
    9017.713     22.307   2.800  1.03957E+00  1.03464E+00  4.92308E-03
    9018.572     23.166   2.840  1.02783E+00  1.03202E+00 -4.18991E-03
    9019.444     24.038   2.880  1.01725E+00  1.02938E+00 -1.21314E-02
    9020.328     24.922   2.920  1.00668E+00  1.02679E+00 -2.01167E-02
    9021.224     25.818   2.960  9.95619E-01  1.02423E+00 -2.86118E-02
    9022.132     26.726   3.000  9.84094E-01  1.02173E+00 -3.76405E-02
    9023.053     27.647   3.040  9.71963E-01  1.01929E+00 -4.73269E-02
    9023.985     28.579   3.080  9.59142E-01  1.01694E+00 -5.78030E-02
    9024.930     29.524   3.120  9.45677E-01  1.01466E+00 -6.89833E-02
    9025.887     30.481   3.160  9.31853E-01  1.01248E+00 -8.06315E-02
    9026.857     31.451   3.200  9.18247E-01  1.01040E+00 -9.21495E-02
    9027.838     32.432   3.240  9.05781E-01  1.00842E+00 -1.02640E-01
    9028.832     33.426   3.280  8.95024E-01  1.00654E+00 -1.11517E-01
    9029.838     34.432   3.320  8.86180E-01  1.00478E+00 -1.18599E-01
    9030.856     35.450   3.360  8.79179E-01  1.00314E+00 -1.23958E-01
    9031.886     36.480   3.400  8.73566E-01  1.00161E+00 -1.28047E-01
    9032.928     37.522   3.440  8.68846E-01  1.00019E+00 -1.31345E-01
    9033.983     38.577   3.480  8.64900E-01  9.98914E-01 -1.34014E-01
    9035.050     39.644   3.520  8.62056E-01  9.97762E-01 -1.35706E-01
    9036.129     40.723   3.560  8.60763E-01  9.96735E-01 -1.35972E-01
    9037.220     41.814   3.600  8.61704E-01  9.95832E-01 -1.34128E-01
    9038.323     42.917   3.640  8.65330E-01  9.95053E-01 -1.29724E-01
    9039.439     44.033   3.680  8.71540E-01  9.94400E-01 -1.22859E-01
    9040.567     45.160   3.720  8.79732E-01  9.93870E-01 -1.14138E-01
    9041.706     46.300   3.760  8.89354E-01  9.93486E-01 -1.04132E-01
    9042.859     47.453   3.800  8.99848E-01  9.93204E-01 -9.33561E-02
    9044.023     48.617   3.840  9.10877E-01  9.93042E-01 -8.21656E-02
    9045.199     49.793   3.880  9.22402E-01  9.93001E-01 -7.05985E-02
    9046.388     50.982   3.920  9.34633E-01  9.93079E-01 -5.84455E-02
    9047.589     52.183   3.960  9.47702E-01  9.93253E-01 -4.55517E-02
    9048.802     53.396   4.000  9.61513E-01  9.93565E-01 -3.20529E-02
    9050.027     54.621   4.040  9.75483E-01  9.93949E-01 -1.84654E-02
    9051.265     55.859   4.080  9.88856E-01  9.94445E-01 -5.58883E-03
    9052.515     57.109   4.120  1.00100E+00  9.95052E-01  5.94853E-03
    9053.777     58.370   4.160  1.01190E+00  9.95747E-01  1.61518E-02
    9055.051     59.644   4.200  1.02206E+00  9.96525E-01  2.55350E-02
    9056.337     60.931   4.240  1.03208E+00  9.97384E-01  3.46993E-02
    9057.635     62.229   4.280  1.04226E+00  9.98301E-01  4.39635E-02
    9058.946     63.540   4.320  1.05251E+00  9.99315E-01  5.31976E-02
    9060.269     64.863   4.360  1.06228E+00  1.00038E+00  6.18948E-02
    9061.604     66.198   4.400  1.07095E+00  1.00150E+00  6.94512E-02
    9062.951     67.545   4.440  1.07813E+00  1.00268E+00  7.54504E-02
    9064.310     68.904   4.480  1.08361E+00  1.00391E+00  7.96952E-02
    9065.682     70.276   4.520  1.08739E+00  1.00519E+00  8.22056E-02
    9067.066     71.660   4.560  1.08969E+00  1.00650E+00  8.31883E-02
    9068.462     73.056   4.600  1.09076E+00  1.00784E+00  8.29217E-02
    9069.870     74.464   4.640  1.09081E+00  1.00920E+00  8.16072E-02
    9071.290     75.884   4.680  1.08991E+00  1.01058E+00  7.93229E-02
    9072.723     77.317   4.720  1.08803E+00  1.01195E+00  7.60786E-02
    9074.168     78.761   4.760  1.08534E+00  1.01333E+00  7.20101E-02
    9075.624     80.218   4.800  1.08214E+00  1.01472E+00  6.74193E-02
    9077.094     81.688   4.840  1.07865E+00  1.01611E+00  6.25394E-02
    9078.575     83.169   4.880  1.07485E+00  1.01746E+00  5.73900E-02
    9080.068     84.662   4.920  1.07069E+00  1.01880E+00  5.18943E-02
    9081.574     86.168   4.960  1.06605E+00  1.02011E+00  4.59413E-02
    9083.092     87.686   5.000  1.06092E+00  1.02137E+00  3.95460E-02
    9084.622     89.216   5.040  1.05554E+00  1.02259E+00  3.29417E-02
    9086.164     90.758   5.080  1.05026E+00  1.02377E+00  2.64864E-02
    9087.719     92.313   5.120  1.04537E+00  1.02491E+00  2.04652E-02
    9089.286     93.879   5.160  1.04087E+00  1.02597E+00  1.48974E-02
    9090.864     95.458   5.200  1.03659E+00  1.02701E+00  9.58542E-03
    9092.455     97.049   5.240  1.03234E+00  1.02795E+00  4.39173E-03
    9094.059     98.653   5.280  1.02828E+00  1.02883E+00 -5.48672E-04
    9095.674    100.268   5.320  1.02475E+00  1.02963E+00 -4.88575E-03
    9097.302    101.896   5.360  1.02205E+00  1.03036E+00 -8.30586E-03
    9098.942    103.535   5.400  1.02025E+00  1.03100E+00 -1.07457E-02
    9100.594    105.187   5.440  1.01911E+00  1.03158E+00 -1.24725E-02
    9102.258    106.852   5.480  1.01811E+00  1.03206E+00 -1.39486E-02
    9103.934    108.528   5.520  1.01689E+00  1.03245E+00 -1.55591E-02
    9105.623    110.217   5.560  1.01529E+00  1.03279E+00 -1.74933E-02
    9107.324    111.917   5.600  1.01322E+00  1.03301E+00 -1.97905E-02
    9109.037    113.630   5.640  1.01065E+00  1.03312E+00 -2.24757E-02
    9110.762    115.356   5.680  1.00762E+00  1.03317E+00 -2.55505E-02
    9112.499    117.093   5.720  1.00412E+00  1.03314E+00 -2.90254E-02
    9114.249    118.842   5.760  1.00017E+00  1.03301E+00 -3.28390E-02
    9116.010    120.604   5.800  9.95972E-01  1.03281E+00 -3.68358E-02
    9117.784    122.378   5.840  9.91860E-01  1.03250E+00 -4.06444E-02
    9119.570    124.164   5.880  9.88428E-01  1.03212E+00 -4.36931E-02
    9121.369    125.963   5.920  9.86237E-01  1.03168E+00 -4.54446E-02
    9123.179    127.773   5.960  9.85472E-01  1.03113E+00 -4.56581E-02
    9125.002    129.596   6.000  9.85977E-01  1.03046E+00 -4.44812E-02
