# # comment:                                                     FEFF 9.9.1  
# # Source:
# # Structure
# # Reduced
# # space
# # abc:
# # angles:
# # sites:
# # POT  SCF 100  7.0000   0, screened core-hole, AFOLP (folp(0)= 1.150)
# # Abs   Z=29 Rmt= 1.166 Rnm= 1.280 K  shell
# # Pot 1 Z=38 Rmt= 1.843 Rnm= 1.897
# # Pot 2 Z=39 Rmt= 1.619 Rnm= 1.696
# # Pot 3 Z=29 Rmt= 1.166 Rnm= 1.280
# # Pot 4 Z= 8 Rmt= 1.080 Rnm= 1.129
# # Gam_ch=1.729E+00 H-L exch Vi= 0.000E+00 Vr= 0.000E+00
# # Mu=-8.371E+00eV kf=2.021E+00 Vint=-1.712E+01eV Rs_int= 1.795
# FMS rfms= 9.0000
# # PATH  Rmax=-1.000,  Keep_limit= 0.00, Heap_limit 0.00  Pwcrit= 2.50%
#  S02=0.950  Temp=   0.00  Debye_temp=   0.00  Global_sig2= 0.00000
#  Energy zero shift, vr, vi    0.00000E+00   0.00000E+00
#  Curved wave amplitude ratio filter   4.000%
#     file         sig2 tot  cw amp ratio   deg  nlegs   reff  inp sig2
#     0/   0 paths used
#  xsedge+ 50, used to normalize mu           2.4467E-04
#  -----------------------------------------------------------------------
#  omega    e    k    mu    mu0     chi     @#
    8984.620    -12.181  -1.000  3.85123E-02  5.70467E-02 -1.85343E-02
    8984.919    -11.882  -0.960  4.06947E-02  6.12441E-02 -2.05494E-02
    8985.205    -11.596  -0.920  4.30912E-02  6.59111E-02 -2.28199E-02
    8985.480    -11.322  -0.880  4.57353E-02  7.11168E-02 -2.53815E-02
    8985.742    -11.059  -0.840  4.86673E-02  7.69418E-02 -2.82746E-02
    8985.992    -10.809  -0.800  5.19344E-02  8.34794E-02 -3.15450E-02
    8986.230    -10.572  -0.760  5.55924E-02  9.08367E-02 -3.52444E-02
    8986.455    -10.346  -0.720  5.97055E-02  9.91348E-02 -3.94293E-02
    8986.668    -10.133  -0.680  6.43460E-02  1.08507E-01 -4.41608E-02
    8986.870     -9.932  -0.640  6.95922E-02  1.19093E-01 -4.95012E-02
    8987.059     -9.743  -0.600  7.55229E-02  1.31033E-01 -5.55098E-02
    8987.235     -9.566  -0.560  8.22085E-02  1.44443E-01 -6.22342E-02
    8987.400     -9.401  -0.520  8.96960E-02  1.59393E-01 -6.96974E-02
    8987.552     -9.249  -0.480  9.79882E-02  1.75869E-01 -7.78813E-02
    8987.693     -9.109  -0.440  1.07020E-01  1.93726E-01 -8.67065E-02
    8987.821     -8.981  -0.400  1.16635E-01  2.12653E-01 -9.60172E-02
    8987.936     -8.865  -0.360  1.26583E-01  2.32160E-01 -1.05577E-01
    8988.040     -8.761  -0.320  1.36530E-01  2.51613E-01 -1.15084E-01
    8988.132     -8.670  -0.280  1.46099E-01  2.70307E-01 -1.24208E-01
    8988.211     -8.591  -0.240  1.54927E-01  2.87563E-01 -1.32636E-01
    8988.278     -8.523  -0.200  1.62712E-01  3.02813E-01 -1.40101E-01
    8988.333     -8.469  -0.160  1.69237E-01  3.15642E-01 -1.46405E-01
    8988.375     -8.426  -0.120  1.74367E-01  3.25783E-01 -1.51416E-01
    8988.406     -8.395  -0.080  1.78036E-01  3.33089E-01 -1.55053E-01
    8988.430     -8.371   0.000  1.80931E-01  3.38959E-01 -1.58027E-01
    8988.485     -8.316   0.120  1.87479E-01  3.52208E-01 -1.64729E-01
    8988.528     -8.274   0.160  1.92530E-01  3.62476E-01 -1.69947E-01
    8988.583     -8.219   0.200  1.98895E-01  3.75613E-01 -1.76718E-01
    8988.650     -8.152   0.240  2.06330E-01  3.91421E-01 -1.85091E-01
    8988.729     -8.072   0.280  2.14397E-01  4.09564E-01 -1.95167E-01
    8988.820     -7.981   0.320  2.22468E-01  4.29583E-01 -2.07115E-01
    8988.924     -7.877   0.360  2.29670E-01  4.50906E-01 -2.21236E-01
    8989.040     -7.761   0.400  2.34932E-01  4.72923E-01 -2.37991E-01
    8989.168     -7.633   0.440  2.37198E-01  4.95037E-01 -2.57839E-01
    8989.308     -7.493   0.480  2.35912E-01  5.16837E-01 -2.80925E-01
    8989.460     -7.341   0.520  2.31296E-01  5.38029E-01 -3.06733E-01
    8989.625     -7.176   0.560  2.24468E-01  5.58444E-01 -3.33975E-01
    8989.802     -6.999   0.600  2.17062E-01  5.78087E-01 -3.61025E-01
    8989.991     -6.810   0.640  2.10550E-01  5.96999E-01 -3.86448E-01
    8990.192     -6.609   0.680  2.05937E-01  6.15235E-01 -4.09298E-01
    8990.405     -6.396   0.720  2.03784E-01  6.32908E-01 -4.29124E-01
    8990.631     -6.170   0.760  2.04331E-01  6.50089E-01 -4.45758E-01
    8990.869     -5.933   0.800  2.07829E-01  6.66877E-01 -4.59047E-01
    8991.119     -5.683   0.840  2.14631E-01  6.83339E-01 -4.68708E-01
    8991.381     -5.421   0.880  2.25093E-01  6.99506E-01 -4.74413E-01
    8991.655     -5.146   0.920  2.39591E-01  7.15436E-01 -4.75845E-01
    8991.942     -4.860   0.960  2.58257E-01  7.31112E-01 -4.72855E-01
    8992.240     -4.561   1.000  2.81059E-01  7.46568E-01 -4.65509E-01
    8992.551     -4.250   1.040  3.07916E-01  7.61806E-01 -4.53890E-01
    8992.874     -3.927   1.080  3.38568E-01  7.76782E-01 -4.38214E-01
    8993.209     -3.592   1.120  3.73818E-01  7.91527E-01 -4.17709E-01
    8993.557     -3.244   1.160  4.17456E-01  8.06003E-01 -3.88547E-01
    8993.917     -2.885   1.200  4.74494E-01  8.20150E-01 -3.45656E-01
    8994.288     -2.513   1.240  5.44130E-01  8.34006E-01 -2.89876E-01
    8994.673     -2.129   1.280  6.15149E-01  8.47485E-01 -2.32337E-01
    8995.069     -1.733   1.320  6.78493E-01  8.60601E-01 -1.82108E-01
    8995.477     -1.324   1.360  7.45918E-01  8.73306E-01 -1.27388E-01
    8995.898     -0.903   1.400  8.16977E-01  8.85572E-01 -6.85944E-02
    8996.331     -0.471   1.440  8.49088E-01  8.97392E-01 -4.83045E-02
    8996.776     -0.026   1.480  8.24182E-01  9.08718E-01 -8.45359E-02
    8997.233      0.432   1.520  7.79896E-01  9.19564E-01 -1.39668E-01
    8997.702      0.901   1.560  7.46838E-01  9.29884E-01 -1.83047E-01
    8998.184      1.383   1.600  7.42678E-01  9.39675E-01 -1.96997E-01
    8998.678      1.876   1.640  7.76984E-01  9.48933E-01 -1.71949E-01
    8999.184      2.382   1.680  8.48572E-01  9.57634E-01 -1.09062E-01
    8999.702      2.900   1.720  9.56594E-01  9.65801E-01 -9.20717E-03
    9000.232      3.431   1.760  1.08889E+00  9.73394E-01  1.15500E-01
    9000.775      3.973   1.800  1.21184E+00  9.80455E-01  2.31381E-01
    9001.329      4.528   1.840  1.30622E+00  9.86967E-01  3.19255E-01
    9001.896      5.095   1.880  1.38294E+00  9.92937E-01  3.90003E-01
    9002.475      5.674   1.920  1.43947E+00  9.98390E-01  4.41077E-01
    9003.067      6.265   1.960  1.44062E+00  1.00333E+00  4.37292E-01
    9003.670      6.869   2.000  1.38465E+00  1.00777E+00  3.76876E-01
    9004.286      7.485   2.040  1.31441E+00  1.01172E+00  3.02695E-01
    9004.914      8.112   2.080  1.26390E+00  1.01520E+00  2.48692E-01
    9005.554      8.753   2.120  1.24846E+00  1.01826E+00  2.30205E-01
    9006.206      9.405   2.160  1.26754E+00  1.02086E+00  2.46676E-01
    9006.871     10.069   2.200  1.29984E+00  1.02308E+00  2.76756E-01
    9007.547     10.746   2.240  1.31252E+00  1.02490E+00  2.87618E-01
    9008.236     11.435   2.280  1.29231E+00  1.02637E+00  2.65941E-01
    9008.937     12.136   2.320  1.25382E+00  1.02751E+00  2.26312E-01
    9009.650     12.849   2.360  1.21486E+00  1.02834E+00  1.86527E-01
    9010.376     13.574   2.400  1.18487E+00  1.02885E+00  1.56021E-01
    9011.113     14.312   2.440  1.16800E+00  1.02911E+00  1.38889E-01
    9011.863     15.062   2.480  1.16171E+00  1.02909E+00  1.32614E-01
    9012.625     15.824   2.520  1.15724E+00  1.02888E+00  1.28362E-01
    9013.399     16.598   2.560  1.14346E+00  1.02844E+00  1.15020E-01
    9014.186     17.384   2.600  1.11536E+00  1.02782E+00  8.75386E-02
    9014.984     18.183   2.640  1.07556E+00  1.02703E+00  4.85289E-02
    9015.795     18.994   2.680  1.03108E+00  1.02611E+00  4.97395E-03
    9016.618     19.817   2.720  9.89707E-01  1.02504E+00 -3.53306E-02
    9017.453     20.652   2.760  9.55954E-01  1.02387E+00 -6.79129E-02
    9018.301     21.499   2.800  9.30971E-01  1.02258E+00 -9.16130E-02
    9019.160     22.359   2.840  9.15214E-01  1.02124E+00 -1.06025E-01
    9020.032     23.230   2.880  9.08716E-01  1.01982E+00 -1.11104E-01
    9020.916     24.114   2.920  9.11058E-01  1.01835E+00 -1.07294E-01
    9021.812     25.011   2.960  9.20810E-01  1.01684E+00 -9.60325E-02
    9022.720     25.919   3.000  9.35394E-01  1.01530E+00 -7.99036E-02
    9023.641     26.839   3.040  9.51296E-01  1.01374E+00 -6.24470E-02
    9024.573     27.772   3.080  9.64881E-01  1.01219E+00 -4.73046E-02
    9025.518     28.717   3.120  9.73396E-01  1.01063E+00 -3.72362E-02
    9026.475     29.674   3.160  9.75657E-01  1.00911E+00 -3.34507E-02
    9027.444     30.643   3.200  9.71806E-01  1.00761E+00 -3.58088E-02
    9028.426     31.625   3.240  9.63094E-01  1.00614E+00 -4.30418E-02
    9029.420     32.618   3.280  9.50956E-01  1.00470E+00 -5.37399E-02
    9030.425     33.624   3.320  9.37128E-01  1.00332E+00 -6.61900E-02
    9031.443     34.642   3.360  9.23083E-01  1.00197E+00 -7.88826E-02
    9032.474     35.672   3.400  9.09702E-01  1.00070E+00 -9.09996E-02
    9033.516     36.715   3.440  8.97011E-01  9.99469E-01 -1.02458E-01
    9034.571     37.769   3.480  8.85571E-01  9.98330E-01 -1.12759E-01
    9035.637     38.836   3.520  8.76580E-01  9.97246E-01 -1.20666E-01
    9036.716     39.915   3.560  8.71222E-01  9.96237E-01 -1.25015E-01
    9037.808     41.006   3.600  8.70013E-01  9.95307E-01 -1.25294E-01
    9038.911     42.110   3.640  8.72902E-01  9.94456E-01 -1.21554E-01
    9040.027     43.225   3.680  8.79625E-01  9.93683E-01 -1.14058E-01
    9041.154     44.353   3.720  8.89553E-01  9.92970E-01 -1.03417E-01
    9042.294     45.493   3.760  9.01927E-01  9.92359E-01 -9.04315E-02
    9043.446     46.645   3.800  9.15442E-01  9.91830E-01 -7.63881E-02
    9044.611     47.809   3.840  9.28548E-01  9.91383E-01 -6.28350E-02
    9045.787     48.986   3.880  9.40228E-01  9.91016E-01 -5.07877E-02
    9046.976     50.175   3.920  9.50760E-01  9.90731E-01 -3.99713E-02
    9048.177     51.376   3.960  9.61393E-01  9.90527E-01 -2.91342E-02
    9049.390     52.589   4.000  9.73447E-01  9.90403E-01 -1.69559E-02
    9050.615     53.814   4.040  9.87587E-01  9.90358E-01 -2.77156E-03
    9051.853     55.051   4.080  1.00403E+00  9.90393E-01  1.36390E-02
    9053.102     56.301   4.120  1.02283E+00  9.90505E-01  3.23238E-02
    9054.364     57.563   4.160  1.04384E+00  9.90672E-01  5.31655E-02
    9055.638     58.837   4.200  1.06633E+00  9.90935E-01  7.53923E-02
    9056.925     60.123   4.240  1.08819E+00  9.91229E-01  9.69648E-02
    9058.223     61.422   4.280  1.10647E+00  9.91616E-01  1.14856E-01
    9059.534     62.732   4.320  1.11825E+00  9.92053E-01  1.26195E-01
    9060.857     64.055   4.360  1.12202E+00  9.92536E-01  1.29486E-01
    9062.192     65.390   4.400  1.11811E+00  9.93064E-01  1.25049E-01
    9063.539     66.737   4.440  1.10806E+00  9.93659E-01  1.14401E-01
    9064.898     68.097   4.480  1.09365E+00  9.94296E-01  9.93527E-02
    9066.270     69.468   4.520  1.07651E+00  9.94975E-01  8.15325E-02
    9067.654     70.852   4.560  1.05839E+00  9.95690E-01  6.27043E-02
    9069.049     72.248   4.600  1.04123E+00  9.96420E-01  4.48054E-02
    9070.458     73.656   4.640  1.02687E+00  9.97206E-01  2.96620E-02
    9071.878     75.077   4.680  1.01652E+00  9.97980E-01  1.85377E-02
    9073.311     76.509   4.720  1.01061E+00  9.98805E-01  1.18067E-02
    9074.755     77.954   4.760  1.00837E+00  9.99614E-01  8.75461E-03
    9076.212     79.411   4.800  1.00832E+00  1.00045E+00  7.86631E-03
    9077.681     80.880   4.840  1.00891E+00  1.00129E+00  7.61532E-03
    9079.163     82.361   4.880  1.00952E+00  1.00215E+00  7.36510E-03
    9080.656     83.855   4.920  1.01061E+00  1.00299E+00  7.62463E-03
    9082.162     85.361   4.960  1.01331E+00  1.00380E+00  9.51560E-03
    9083.680     86.879   5.000  1.01848E+00  1.00462E+00  1.38596E-02
    9085.210     88.409   5.040  1.02592E+00  1.00541E+00  2.05020E-02
    9086.752     89.951   5.080  1.03421E+00  1.00617E+00  2.80398E-02
    9088.307     91.505   5.120  1.04101E+00  1.00693E+00  3.40860E-02
    9089.873     93.072   5.160  1.04389E+00  1.00766E+00  3.62314E-02
    9091.452     94.651   5.200  1.04161E+00  1.00834E+00  3.32705E-02
    9093.043     96.242   5.240  1.03463E+00  1.00900E+00  2.56346E-02
    9094.646     97.845   5.280  1.02436E+00  1.00960E+00  1.47609E-02
    9096.262     99.461   5.320  1.01211E+00  1.01017E+00  1.93403E-03
    9097.890    101.088   5.360  9.98465E-01  1.01068E+00 -1.22198E-02
    9099.529    102.728   5.400  9.83819E-01  1.01117E+00 -2.73555E-02
    9101.181    104.380   5.440  9.68686E-01  1.01160E+00 -4.29096E-02
    9102.846    106.044   5.480  9.53977E-01  1.01195E+00 -5.79699E-02
    9104.522    107.721   5.520  9.40974E-01  1.01227E+00 -7.12985E-02
    9106.211    109.409   5.560  9.31005E-01  1.01253E+00 -8.15235E-02
    9107.911    111.110   5.600  9.25470E-01  1.01271E+00 -8.72425E-02
    9109.624    112.823   5.640  9.25459E-01  1.01285E+00 -8.73886E-02
    9111.349    114.548   5.680  9.31118E-01  1.01293E+00 -8.18166E-02
    9113.087    116.286   5.720  9.41249E-01  1.01295E+00 -7.17017E-02
    9114.836    118.035   5.760  9.53693E-01  1.01292E+00 -5.92254E-02
    9116.598    119.797   5.800  9.66087E-01  1.01281E+00 -4.67276E-02
    9118.372    121.571   5.840  9.76834E-01  1.01266E+00 -3.58280E-02
    9120.158    123.357   5.880  9.85433E-01  1.01244E+00 -2.70056E-02
    9121.956    125.155   5.920  9.92010E-01  1.01217E+00 -2.01605E-02
    9123.767    126.966   5.960  9.96824E-01  1.01185E+00 -1.50286E-02
    9125.590    128.788   6.000  9.99990E-01  1.01142E+00 -1.14256E-02
