# # comment:                                                     FEFF 9.9.1  
# # Source:
# # Structure
# # Reduced
# # space
# # abc:
# # angles:
# # sites:
# # POT  SCF 100  7.0000   0, screened core-hole, AFOLP (folp(0)= 1.150)
# # Abs   Z=29 Rmt= 1.185 Rnm= 1.290 K  shell
# # Pot 1 Z=29 Rmt= 1.256 Rnm= 1.343
# # Pot 2 Z=52 Rmt= 1.293 Rnm= 1.444
# # Pot 3 Z= 8 Rmt= 0.971 Rnm= 1.095
# # Gam_ch=1.729E+00 H-L exch Vi= 0.000E+00 Vr= 0.000E+00
# # Mu=-6.650E+00eV kf=2.194E+00 Vint=-1.444E+01eV Rs_int= 1.653
# FMS rfms= 9.0000
# # PATH  Rmax=-1.000,  Keep_limit= 0.00, Heap_limit 0.00  Pwcrit= 2.50%
#  S02=0.950  Temp=   0.00  Debye_temp=   0.00  Global_sig2= 0.00000
#  Energy zero shift, vr, vi    0.00000E+00   0.00000E+00
#  Curved wave amplitude ratio filter   4.000%
#     file         sig2 tot  cw amp ratio   deg  nlegs   reff  inp sig2
#     0/   0 paths used
#  xsedge+ 50, used to normalize mu           2.4265E-04
#  -----------------------------------------------------------------------
#  omega    e    k    mu    mu0     chi     @#
    8983.423    -10.460  -1.000  3.40084E-02  5.71613E-02 -2.31529E-02
    8983.722    -10.161  -0.960  3.55104E-02  6.13570E-02 -2.58465E-02
    8984.008     -9.875  -0.920  3.70992E-02  6.60196E-02 -2.89204E-02
    8984.282     -9.601  -0.880  3.87822E-02  7.12176E-02 -3.24354E-02
    8984.545     -9.338  -0.840  4.05678E-02  7.70305E-02 -3.64627E-02
    8984.795     -9.089  -0.800  4.24659E-02  8.35506E-02 -4.10847E-02
    8985.032     -8.851  -0.760  4.44872E-02  9.08834E-02 -4.63962E-02
    8985.258     -8.625  -0.720  4.66439E-02  9.91483E-02 -5.25044E-02
    8985.471     -8.412  -0.680  4.89489E-02  1.08477E-01 -5.95277E-02
    8985.672     -8.211  -0.640  5.14155E-02  1.19007E-01 -6.75911E-02
    8985.861     -8.022  -0.600  5.40557E-02  1.30874E-01 -7.68185E-02
    8986.038     -7.845  -0.560  5.68784E-02  1.44195E-01 -8.73168E-02
    8986.203     -7.680  -0.520  5.98853E-02  1.59038E-01 -9.91528E-02
    8986.355     -7.528  -0.480  6.30660E-02  1.75387E-01 -1.12321E-01
    8986.495     -7.388  -0.440  6.63930E-02  1.93099E-01 -1.26706E-01
    8986.623     -7.260  -0.400  6.98162E-02  2.11866E-01 -1.42050E-01
    8986.739     -7.144  -0.360  7.32624E-02  2.31207E-01 -1.57945E-01
    8986.843     -7.040  -0.320  7.66393E-02  2.50494E-01 -1.73855E-01
    8986.934     -6.949  -0.280  7.98463E-02  2.69031E-01 -1.89185E-01
    8987.013     -6.870  -0.240  8.27875E-02  2.86148E-01 -2.03360E-01
    8987.081     -6.803  -0.200  8.53823E-02  3.01280E-01 -2.15897E-01
    8987.135     -6.748  -0.160  8.75710E-02  3.14014E-01 -2.26443E-01
    8987.178     -6.705  -0.120  8.93137E-02  3.24084E-01 -2.34770E-01
    8987.209     -6.675  -0.080  9.05853E-02  3.31341E-01 -2.40756E-01
    8987.233     -6.650   0.000  9.16410E-02  3.37173E-01 -2.45532E-01
    8987.288     -6.595   0.120  9.39852E-02  3.50332E-01 -2.56347E-01
    8987.330     -6.553   0.160  9.57729E-02  3.60576E-01 -2.64803E-01
    8987.385     -6.498   0.200  9.80123E-02  3.73647E-01 -2.75634E-01
    8987.452     -6.431   0.240  1.00697E-01  3.89375E-01 -2.88679E-01
    8987.532     -6.351   0.280  1.03816E-01  4.07483E-01 -3.03667E-01
    8987.623     -6.260   0.320  1.07309E-01  4.27505E-01 -3.20197E-01
    8987.727     -6.156   0.360  1.11130E-01  4.48870E-01 -3.37740E-01
    8987.843     -6.041   0.400  1.15305E-01  4.71008E-01 -3.55702E-01
    8987.971     -5.913   0.440  1.19816E-01  4.93316E-01 -3.73501E-01
    8988.111     -5.772   0.480  1.24751E-01  5.15397E-01 -3.90646E-01
    8988.263     -5.620   0.520  1.30218E-01  5.36982E-01 -4.06764E-01
    8988.428     -5.455   0.560  1.36267E-01  5.57883E-01 -4.21616E-01
    8988.605     -5.279   0.600  1.42931E-01  5.78104E-01 -4.35173E-01
    8988.793     -5.090   0.640  1.50115E-01  5.97637E-01 -4.47522E-01
    8988.995     -4.888   0.680  1.57919E-01  6.16593E-01 -4.58674E-01
    8989.208     -4.675   0.720  1.66647E-01  6.35057E-01 -4.68410E-01
    8989.434     -4.449   0.760  1.76936E-01  6.53047E-01 -4.76111E-01
    8989.671     -4.212   0.800  1.89892E-01  6.70696E-01 -4.80804E-01
    8989.921     -3.962   0.840  2.06595E-01  6.88001E-01 -4.81406E-01
    8990.183     -3.700   0.880  2.28152E-01  7.05024E-01 -4.76873E-01
    8990.458     -3.425   0.920  2.55089E-01  7.21795E-01 -4.66706E-01
    8990.744     -3.139   0.960  2.87049E-01  7.38288E-01 -4.51239E-01
    8991.043     -2.840   1.000  3.22755E-01  7.54530E-01 -4.31775E-01
    8991.354     -2.529   1.040  3.60591E-01  7.70496E-01 -4.09905E-01
    8991.677     -2.206   1.080  3.99494E-01  7.86154E-01 -3.86660E-01
    8992.012     -1.871   1.120  4.39144E-01  8.01490E-01 -3.62346E-01
    8992.360     -1.523   1.160  4.81368E-01  8.16459E-01 -3.35091E-01
    8992.719     -1.164   1.200  5.30159E-01  8.31060E-01 -3.00901E-01
    8993.091     -0.792   1.240  5.86286E-01  8.45223E-01 -2.58937E-01
    8993.475     -0.408   1.280  6.44004E-01  8.58962E-01 -2.14958E-01
    8993.871     -0.012   1.320  6.94922E-01  8.72187E-01 -1.77265E-01
    8994.280      0.397   1.360  7.34109E-01  8.84930E-01 -1.50821E-01
    8994.700      0.817   1.400  7.57054E-01  8.97122E-01 -1.40068E-01
    8995.133      1.250   1.440  7.57774E-01  9.08776E-01 -1.51002E-01
    8995.578      1.695   1.480  7.38934E-01  9.19826E-01 -1.80892E-01
    8996.036      2.152   1.520  7.20202E-01  9.30308E-01 -2.10106E-01
    8996.505      2.622   1.560  7.26526E-01  9.40157E-01 -2.13631E-01
    8996.986      3.103   1.600  7.67668E-01  9.49412E-01 -1.81744E-01
    8997.480      3.597   1.640  8.34882E-01  9.58054E-01 -1.23171E-01
    8997.986      4.103   1.680  9.12064E-01  9.66064E-01 -5.39994E-02
    8998.504      4.621   1.720  9.89147E-01  9.73467E-01  1.56802E-02
    8999.035      5.152   1.760  1.07197E+00  9.80289E-01  9.16833E-02
    8999.577      5.694   1.800  1.17121E+00  9.86496E-01  1.84712E-01
    9000.132      6.249   1.840  1.28330E+00  9.92137E-01  2.91161E-01
    9000.699      6.816   1.880  1.39607E+00  9.97220E-01  3.98849E-01
    9001.278      7.395   1.920  1.49465E+00  1.00176E+00  4.92891E-01
    9001.869      7.986   1.960  1.55746E+00  1.00576E+00  5.51699E-01
    9002.473      8.590   2.000  1.56790E+00  1.00928E+00  5.58624E-01
    9003.089      9.206   2.040  1.53131E+00  1.01233E+00  5.18985E-01
    9003.716      9.833   2.080  1.47070E+00  1.01492E+00  4.55781E-01
    9004.357     10.473   2.120  1.39935E+00  1.01709E+00  3.82261E-01
    9005.009     11.126   2.160  1.32315E+00  1.01885E+00  3.04302E-01
    9005.673     11.790   2.200  1.25554E+00  1.02026E+00  2.35287E-01
    9006.350     12.467   2.240  1.20735E+00  1.02132E+00  1.86023E-01
    9007.039     13.156   2.280  1.17479E+00  1.02206E+00  1.52729E-01
    9007.740     13.857   2.320  1.14916E+00  1.02253E+00  1.26629E-01
    9008.453     14.570   2.360  1.13059E+00  1.02272E+00  1.07872E-01
    9009.178     15.295   2.400  1.11914E+00  1.02266E+00  9.64720E-02
    9009.916     16.033   2.440  1.10563E+00  1.02239E+00  8.32420E-02
    9010.666     16.783   2.480  1.08420E+00  1.02194E+00  6.22614E-02
    9011.428     17.545   2.520  1.06187E+00  1.02129E+00  4.05827E-02
    9012.202     18.319   2.560  1.05022E+00  1.02053E+00  2.96883E-02
    9012.988     19.105   2.600  1.04691E+00  1.01962E+00  2.72974E-02
    9013.787     19.904   2.640  1.03660E+00  1.01859E+00  1.80144E-02
    9014.598     20.715   2.680  1.01712E+00  1.01749E+00 -3.74307E-04
    9015.421     21.538   2.720  9.97128E-01  1.01629E+00 -1.91622E-02
    9016.256     22.373   2.760  9.82365E-01  1.01506E+00 -3.26968E-02
    9017.103     23.220   2.800  9.74209E-01  1.01377E+00 -3.95611E-02
    9017.963     24.080   2.840  9.72012E-01  1.01246E+00 -4.04497E-02
    9018.834     24.951   2.880  9.73582E-01  1.01115E+00 -3.75631E-02
    9019.718     25.835   2.920  9.76172E-01  1.00983E+00 -3.36540E-02
    9020.614     26.731   2.960  9.77783E-01  1.00849E+00 -3.07070E-02
    9021.523     27.640   3.000  9.77237E-01  1.00720E+00 -2.99671E-02
    9022.443     28.560   3.040  9.74291E-01  1.00593E+00 -3.16378E-02
    9023.376     29.493   3.080  9.69059E-01  1.00469E+00 -3.56327E-02
    9024.321     30.438   3.120  9.61694E-01  1.00350E+00 -4.18043E-02
    9025.278     31.395   3.160  9.52572E-01  1.00237E+00 -4.97997E-02
    9026.247     32.364   3.200  9.42257E-01  1.00129E+00 -5.90365E-02
    9027.229     33.346   3.240  9.31821E-01  1.00029E+00 -6.84662E-02
    9028.222     34.339   3.280  9.22158E-01  9.99335E-01 -7.71774E-02
    9029.228     35.345   3.320  9.13915E-01  9.98460E-01 -8.45449E-02
    9030.246     36.363   3.360  9.07436E-01  9.97685E-01 -9.02493E-02
    9031.276     37.393   3.400  9.02765E-01  9.96970E-01 -9.42048E-02
    9032.319     38.436   3.440  8.99799E-01  9.96334E-01 -9.65345E-02
    9033.373     39.490   3.480  8.98454E-01  9.95779E-01 -9.73254E-02
    9034.440     40.557   3.520  8.98863E-01  9.95308E-01 -9.64453E-02
    9035.519     41.636   3.560  9.01049E-01  9.94942E-01 -9.38934E-02
    9036.610     42.727   3.600  9.05136E-01  9.94638E-01 -8.95027E-02
    9037.714     43.831   3.640  9.11300E-01  9.94439E-01 -8.31395E-02
    9038.829     44.946   3.680  9.19393E-01  9.94324E-01 -7.49308E-02
    9039.957     46.074   3.720  9.28851E-01  9.94290E-01 -6.54391E-02
    9041.097     47.214   3.760  9.38823E-01  9.94315E-01 -5.54918E-02
    9042.249     48.366   3.800  9.48421E-01  9.94444E-01 -4.60224E-02
    9043.413     49.530   3.840  9.56967E-01  9.94654E-01 -3.76875E-02
    9044.590     50.707   3.880  9.64444E-01  9.94946E-01 -3.05015E-02
    9045.779     51.896   3.920  9.71325E-01  9.95313E-01 -2.39877E-02
    9046.980     53.097   3.960  9.78090E-01  9.95733E-01 -1.76437E-02
    9048.193     54.310   4.000  9.85003E-01  9.96229E-01 -1.12267E-02
    9049.418     55.535   4.040  9.91952E-01  9.96777E-01 -4.82536E-03
    9050.655     56.772   4.080  9.98641E-01  9.97417E-01  1.22392E-03
    9051.905     58.022   4.120  1.00468E+00  9.98085E-01  6.59007E-03
    9053.167     59.284   4.160  1.00999E+00  9.98820E-01  1.11715E-02
    9054.441     60.558   4.200  1.01477E+00  9.99598E-01  1.51708E-02
    9055.727     61.844   4.240  1.01937E+00  1.00042E+00  1.89510E-02
    9057.026     63.143   4.280  1.02421E+00  1.00127E+00  2.29347E-02
    9058.336     64.453   4.320  1.02962E+00  1.00215E+00  2.74793E-02
    9059.659     65.776   4.360  1.03588E+00  1.00307E+00  3.28033E-02
    9060.994     67.111   4.400  1.04302E+00  1.00401E+00  3.90043E-02
    9062.341     68.458   4.440  1.05101E+00  1.00496E+00  4.60448E-02
    9063.701     69.818   4.480  1.05962E+00  1.00594E+00  5.36820E-02
    9065.072     71.189   4.520  1.06841E+00  1.00692E+00  6.14941E-02
    9066.456     72.573   4.560  1.07704E+00  1.00792E+00  6.91204E-02
    9067.852     73.969   4.600  1.08501E+00  1.00890E+00  7.61121E-02
    9069.260     75.377   4.640  1.09178E+00  1.00987E+00  8.19076E-02
    9070.681     76.798   4.680  1.09673E+00  1.01084E+00  8.58911E-02
    9072.113     78.230   4.720  1.09929E+00  1.01178E+00  8.75110E-02
    9073.558     79.675   4.760  1.09916E+00  1.01271E+00  8.64488E-02
    9075.015     81.132   4.800  1.09641E+00  1.01360E+00  8.28161E-02
    9076.484     82.601   4.840  1.09157E+00  1.01445E+00  7.71187E-02
    9077.965     84.082   4.880  1.08541E+00  1.01529E+00  7.01148E-02
    9079.459     85.576   4.920  1.07868E+00  1.01609E+00  6.25870E-02
    9080.965     87.082   4.960  1.07191E+00  1.01685E+00  5.50594E-02
    9082.483     88.599   5.000  1.06516E+00  1.01754E+00  4.76198E-02
    9084.013     90.130   5.040  1.05814E+00  1.01821E+00  3.99315E-02
    9085.555     91.672   5.080  1.05026E+00  1.01881E+00  3.14542E-02
    9087.109     93.226   5.120  1.04118E+00  1.01936E+00  2.18173E-02
    9088.676     94.793   5.160  1.03088E+00  1.01986E+00  1.10135E-02
    9090.255     96.372   5.200  1.01971E+00  1.02029E+00 -5.79297E-04
    9091.846     97.963   5.240  1.00824E+00  1.02065E+00 -1.24112E-02
    9093.449     99.566   5.280  9.97013E-01  1.02095E+00 -2.39402E-02
    9095.065    101.182   5.320  9.86465E-01  1.02121E+00 -3.47440E-02
    9096.692    102.809   5.360  9.76858E-01  1.02139E+00 -4.45326E-02
    9098.332    104.449   5.400  9.68425E-01  1.02152E+00 -5.30948E-02
    9099.984    106.101   5.440  9.61325E-01  1.02157E+00 -6.02493E-02
    9101.648    107.765   5.480  9.55680E-01  1.02155E+00 -6.58719E-02
    9103.325    109.442   5.520  9.51544E-01  1.02148E+00 -6.99344E-02
    9105.013    111.130   5.560  9.48812E-01  1.02133E+00 -7.25210E-02
    9106.714    112.831   5.600  9.47424E-01  1.02114E+00 -7.37138E-02
    9108.427    114.544   5.640  9.47349E-01  1.02089E+00 -7.35442E-02
    9110.152    116.269   5.680  9.48636E-01  1.02058E+00 -7.19410E-02
    9111.890    118.006   5.720  9.51426E-01  1.02019E+00 -6.87659E-02
    9113.639    119.756   5.760  9.55925E-01  1.01978E+00 -6.38578E-02
    9115.401    121.518   5.800  9.62127E-01  1.01931E+00 -5.71807E-02
    9117.175    123.292   5.840  9.69894E-01  1.01879E+00 -4.88947E-02
    9118.961    125.078   5.880  9.78802E-01  1.01821E+00 -3.94048E-02
    9120.759    126.876   5.920  9.88224E-01  1.01762E+00 -2.93918E-02
    9122.570    128.687   5.960  9.97232E-01  1.01699E+00 -1.97587E-02
    9124.392    130.509   6.000  1.00497E+00  1.01627E+00 -1.12949E-02
