# # comment:                                                     FEFF 9.9.1  
# # Source:
# # Structure
# # Reduced
# # space
# # abc:
# # angles:
# # sites:
# # POT  SCF 100  7.0000   0, screened core-hole, AFOLP (folp(0)= 1.150)
# # Abs   Z=29 Rmt= 1.161 Rnm= 1.295 K  shell
# # Pot 1 Z=29 Rmt= 1.154 Rnm= 1.288
# # Pot 2 Z=17 Rmt= 1.372 Rnm= 1.512
# # Pot 3 Z= 8 Rmt= 0.994 Rnm= 1.108
# # Gam_ch=1.729E+00 H-L exch Vi= 0.000E+00 Vr= 0.000E+00
# # Mu=-6.007E+00eV kf=1.983E+00 Vint=-1.303E+01eV Rs_int= 1.829
# FMS rfms= 9.0000
# # PATH  Rmax=-1.000,  Keep_limit= 0.00, Heap_limit 0.00  Pwcrit= 2.50%
#  S02=0.950  Temp=   0.00  Debye_temp=   0.00  Global_sig2= 0.00000
#  Energy zero shift, vr, vi    0.00000E+00   0.00000E+00
#  Curved wave amplitude ratio filter   4.000%
#     file         sig2 tot  cw amp ratio   deg  nlegs   reff  inp sig2
#     0/   0 paths used
#  xsedge+ 50, used to normalize mu           2.3964E-04
#  -----------------------------------------------------------------------
#  omega    e    k    mu    mu0     chi     @#
    8983.437     -9.817  -1.000  4.04706E-02  6.01770E-02 -1.97064E-02
    8983.735     -9.518  -0.960  4.27007E-02  6.45984E-02 -2.18978E-02
    8984.022     -9.232  -0.920  4.51126E-02  6.95084E-02 -2.43958E-02
    8984.296     -8.957  -0.880  4.77265E-02  7.49781E-02 -2.72516E-02
    8984.558     -8.695  -0.840  5.05644E-02  8.10898E-02 -3.05254E-02
    8984.808     -8.445  -0.800  5.36510E-02  8.79391E-02 -3.42881E-02
    8985.046     -8.208  -0.760  5.70131E-02  9.56350E-02 -3.86219E-02
    8985.271     -7.982  -0.720  6.06793E-02  1.04301E-01 -4.36216E-02
    8985.485     -7.769  -0.680  6.46794E-02  1.14072E-01 -4.93927E-02
    8985.686     -7.568  -0.640  6.90425E-02  1.25091E-01 -5.60489E-02
    8985.875     -7.379  -0.600  7.37943E-02  1.37498E-01 -6.37040E-02
    8986.052     -7.202  -0.560  7.89533E-02  1.51411E-01 -7.24582E-02
    8986.216     -7.037  -0.520  8.45246E-02  1.66901E-01 -8.23764E-02
    8986.369     -6.885  -0.480  9.04918E-02  1.83949E-01 -9.34576E-02
    8986.509     -6.745  -0.440  9.68082E-02  2.02408E-01 -1.05600E-01
    8986.637     -6.617  -0.400  1.03389E-01  2.21958E-01 -1.18569E-01
    8986.753     -6.501  -0.360  1.10109E-01  2.42101E-01 -1.31992E-01
    8986.856     -6.397  -0.320  1.16805E-01  2.62188E-01 -1.45383E-01
    8986.948     -6.306  -0.280  1.23290E-01  2.81498E-01 -1.58208E-01
    8987.027     -6.226  -0.240  1.29370E-01  2.99334E-01 -1.69965E-01
    8987.094     -6.159  -0.200  1.34858E-01  3.15111E-01 -1.80253E-01
    8987.149     -6.104  -0.160  1.39592E-01  3.28397E-01 -1.88805E-01
    8987.192     -6.062  -0.120  1.43433E-01  3.38909E-01 -1.95476E-01
    8987.222     -6.031  -0.080  1.46273E-01  3.46490E-01 -2.00217E-01
    8987.247     -6.007   0.000  1.48644E-01  3.52586E-01 -2.03942E-01
    8987.301     -5.952   0.120  1.54110E-01  3.66332E-01 -2.12223E-01
    8987.344     -5.909   0.160  1.58401E-01  3.77049E-01 -2.18649E-01
    8987.399     -5.855   0.200  1.64042E-01  3.90749E-01 -2.26708E-01
    8987.466     -5.787   0.240  1.71108E-01  4.07249E-01 -2.36142E-01
    8987.545     -5.708   0.280  1.79810E-01  4.26293E-01 -2.46483E-01
    8987.637     -5.617   0.320  1.90223E-01  4.47377E-01 -2.57154E-01
    8987.740     -5.513   0.360  2.02564E-01  4.69969E-01 -2.67405E-01
    8987.856     -5.397   0.400  2.16976E-01  4.93474E-01 -2.76498E-01
    8987.984     -5.269   0.440  2.33498E-01  5.17305E-01 -2.83807E-01
    8988.124     -5.129   0.480  2.52066E-01  5.41017E-01 -2.88951E-01
    8988.277     -4.977   0.520  2.72448E-01  5.64359E-01 -2.91910E-01
    8988.441     -4.812   0.560  2.94138E-01  5.87138E-01 -2.93000E-01
    8988.618     -4.635   0.600  3.16557E-01  6.09333E-01 -2.92776E-01
    8988.807     -4.446   0.640  3.38936E-01  6.30952E-01 -2.92015E-01
    8989.008     -4.245   0.680  3.60317E-01  6.52061E-01 -2.91744E-01
    8989.222     -4.032   0.720  3.79466E-01  6.72738E-01 -2.93272E-01
    8989.447     -3.806   0.760  3.95278E-01  6.93036E-01 -2.97758E-01
    8989.685     -3.569   0.800  4.07623E-01  7.12998E-01 -3.05375E-01
    8989.935     -3.319   0.840  4.17689E-01  7.32672E-01 -3.14983E-01
    8990.197     -3.057   0.880  4.26857E-01  7.52071E-01 -3.25214E-01
    8990.471     -2.782   0.920  4.35201E-01  7.71172E-01 -3.35971E-01
    8990.758     -2.496   0.960  4.41643E-01  7.89980E-01 -3.48336E-01
    8991.057     -2.197   1.000  4.45299E-01  8.08470E-01 -3.63171E-01
    8991.367     -1.886   1.040  4.46572E-01  8.26606E-01 -3.80034E-01
    8991.691     -1.563   1.080  4.47250E-01  8.44346E-01 -3.97096E-01
    8992.026     -1.228   1.120  4.50193E-01  8.61643E-01 -4.11450E-01
    8992.373     -0.880   1.160  4.59044E-01  8.78466E-01 -4.19422E-01
    8992.733     -0.521   1.200  4.76523E-01  8.94739E-01 -4.18216E-01
    8993.105     -0.149   1.240  5.03195E-01  9.10408E-01 -4.07213E-01
    8993.489      0.235   1.280  5.38471E-01  9.25457E-01 -3.86986E-01
    8993.885      0.632   1.320  5.81080E-01  9.39852E-01 -3.58772E-01
    8994.293      1.040   1.360  6.27962E-01  9.53518E-01 -3.25556E-01
    8994.714      1.461   1.400  6.72746E-01  9.66446E-01 -2.93700E-01
    8995.147      1.893   1.440  7.06759E-01  9.78604E-01 -2.71845E-01
    8995.592      2.338   1.480  7.25891E-01  9.89963E-01 -2.64072E-01
    8996.049      2.796   1.520  7.36665E-01  1.00054E+00 -2.63878E-01
    8996.519      3.265   1.560  7.52657E-01  1.01030E+00 -2.57645E-01
    8997.000      3.747   1.600  7.85473E-01  1.01924E+00 -2.33766E-01
    8997.494      4.240   1.640  8.38748E-01  1.02738E+00 -1.88631E-01
    8998.000      4.746   1.680  9.07823E-01  1.03471E+00 -1.26886E-01
    8998.518      5.265   1.720  9.83409E-01  1.04126E+00 -5.78481E-02
    8999.048      5.795   1.760  1.05537E+00  1.04704E+00  8.33854E-03
    8999.591      6.337   1.800  1.11639E+00  1.05208E+00  6.43147E-02
    9000.146      6.892   1.840  1.16666E+00  1.05640E+00  1.10266E-01
    9000.713      7.459   1.880  1.21496E+00  1.06003E+00  1.54925E-01
    9001.292      8.038   1.920  1.27026E+00  1.06302E+00  2.07239E-01
    9001.883      8.629   1.960  1.33036E+00  1.06540E+00  2.64955E-01
    9002.486      9.233   2.000  1.38404E+00  1.06717E+00  3.16873E-01
    9003.102      9.849   2.040  1.42308E+00  1.06842E+00  3.54668E-01
    9003.730     10.477   2.080  1.44294E+00  1.06917E+00  3.73771E-01
    9004.370     11.117   2.120  1.43989E+00  1.06943E+00  3.70455E-01
    9005.022     11.769   2.160  1.41797E+00  1.06927E+00  3.48700E-01
    9005.687     12.433   2.200  1.38891E+00  1.06869E+00  3.20220E-01
    9006.364     13.110   2.240  1.36424E+00  1.06779E+00  2.96450E-01
    9007.052     13.799   2.280  1.34962E+00  1.06653E+00  2.83087E-01
    9007.753     14.500   2.320  1.33813E+00  1.06500E+00  2.73134E-01
    9008.467     15.213   2.360  1.31792E+00  1.06321E+00  2.54703E-01
    9009.192     15.939   2.400  1.28566E+00  1.06121E+00  2.24448E-01
    9009.930     16.676   2.440  1.25013E+00  1.05900E+00  1.91131E-01
    9010.679     17.426   2.480  1.21859E+00  1.05662E+00  1.61969E-01
    9011.441     18.188   2.520  1.19050E+00  1.05413E+00  1.36364E-01
    9012.216     18.962   2.560  1.16477E+00  1.05150E+00  1.13268E-01
    9013.002     19.749   2.600  1.14036E+00  1.04881E+00  9.15516E-02
    9013.801     20.547   2.640  1.11663E+00  1.04603E+00  7.05987E-02
    9014.611     21.358   2.680  1.09335E+00  1.04321E+00  5.01394E-02
    9015.434     22.181   2.720  1.07095E+00  1.04036E+00  3.05899E-02
    9016.269     23.016   2.760  1.05007E+00  1.03752E+00  1.25541E-02
    9017.117     23.863   2.800  1.03100E+00  1.03468E+00 -3.67893E-03
    9017.976     24.723   2.840  1.01413E+00  1.03186E+00 -1.77292E-02
    9018.848     25.595   2.880  9.99690E-01  1.02909E+00 -2.94039E-02
    9019.732     26.478   2.920  9.87410E-01  1.02636E+00 -3.89452E-02
    9020.628     27.375   2.960  9.77054E-01  1.02371E+00 -4.66553E-02
    9021.536     28.283   3.000  9.68043E-01  1.02112E+00 -5.30770E-02
    9022.457     29.203   3.040  9.59918E-01  1.01861E+00 -5.86952E-02
    9023.390     30.136   3.080  9.52515E-01  1.01622E+00 -6.37022E-02
    9024.334     31.081   3.120  9.45886E-01  1.01391E+00 -6.80283E-02
    9025.292     32.038   3.160  9.40093E-01  1.01172E+00 -7.16307E-02
    9026.261     33.007   3.200  9.34905E-01  1.00963E+00 -7.47251E-02
    9027.242     33.989   3.240  9.30069E-01  1.00766E+00 -7.75887E-02
    9028.236     34.982   3.280  9.24892E-01  1.00583E+00 -8.09377E-02
    9029.242     35.988   3.320  9.18675E-01  1.00411E+00 -8.54311E-02
    9030.260     37.006   3.360  9.11143E-01  1.00253E+00 -9.13896E-02
    9031.290     38.036   3.400  9.02426E-01  1.00109E+00 -9.86608E-02
    9032.332     39.079   3.440  8.93122E-01  9.99770E-01 -1.06648E-01
    9033.387     40.133   3.480  8.84137E-01  9.98583E-01 -1.14445E-01
    9034.454     41.200   3.520  8.76533E-01  9.97547E-01 -1.21015E-01
    9035.533     42.279   3.560  8.71016E-01  9.96643E-01 -1.25626E-01
    9036.624     43.370   3.600  8.68172E-01  9.95891E-01 -1.27719E-01
    9037.727     44.474   3.640  8.68395E-01  9.95249E-01 -1.26854E-01
    9038.843     45.589   3.680  8.72027E-01  9.94779E-01 -1.22751E-01
    9039.971     46.717   3.720  8.79073E-01  9.94415E-01 -1.15342E-01
    9041.111     47.857   3.760  8.89396E-01  9.94180E-01 -1.04784E-01
    9042.263     49.009   3.800  9.02618E-01  9.94095E-01 -9.14765E-02
    9043.427     50.174   3.840  9.18023E-01  9.94136E-01 -7.61126E-02
    9044.604     51.350   3.880  9.34832E-01  9.94301E-01 -5.94688E-02
    9045.792     52.539   3.920  9.52376E-01  9.94567E-01 -4.21904E-02
    9046.993     53.740   3.960  9.70314E-01  9.94977E-01 -2.46628E-02
    9048.206     54.953   4.000  9.88447E-01  9.95507E-01 -7.05987E-03
    9049.432     56.178   4.040  1.00675E+00  9.96132E-01  1.06149E-02
    9050.669     57.416   4.080  1.02515E+00  9.96849E-01  2.83037E-02
    9051.919     58.665   4.120  1.04333E+00  9.97680E-01  4.56479E-02
    9053.181     59.927   4.160  1.06060E+00  9.98622E-01  6.19747E-02
    9054.455     61.201   4.200  1.07592E+00  9.99631E-01  7.62941E-02
    9055.741     62.487   4.240  1.08817E+00  1.00074E+00  8.74235E-02
    9057.039     63.786   4.280  1.09627E+00  1.00194E+00  9.43352E-02
    9058.350     65.096   4.320  1.09975E+00  1.00319E+00  9.65587E-02
    9059.673     66.419   4.360  1.09891E+00  1.00452E+00  9.43949E-02
    9061.008     67.754   4.400  1.09480E+00  1.00591E+00  8.88906E-02
    9062.355     69.102   4.440  1.08888E+00  1.00733E+00  8.15449E-02
    9063.714     70.461   4.480  1.08256E+00  1.00882E+00  7.37359E-02
    9065.086     71.833   4.520  1.07674E+00  1.01035E+00  6.63846E-02
    9066.470     73.216   4.560  1.07188E+00  1.01192E+00  5.99593E-02
    9067.866     74.612   4.600  1.06810E+00  1.01350E+00  5.45984E-02
    9069.274     76.020   4.640  1.06540E+00  1.01511E+00  5.02916E-02
    9070.694     77.441   4.680  1.06372E+00  1.01672E+00  4.69936E-02
    9072.127     78.873   4.720  1.06294E+00  1.01836E+00  4.45745E-02
    9073.572     80.318   4.760  1.06269E+00  1.01998E+00  4.27056E-02
    9075.029     81.775   4.800  1.06247E+00  1.02159E+00  4.08756E-02
    9076.498     83.244   4.840  1.06176E+00  1.02320E+00  3.85662E-02
    9077.979     84.726   4.880  1.06026E+00  1.02477E+00  3.54924E-02
    9079.473     86.219   4.920  1.05808E+00  1.02630E+00  3.17836E-02
    9080.978     87.725   4.960  1.05561E+00  1.02782E+00  2.77975E-02
    9082.496     89.243   5.000  1.05309E+00  1.02929E+00  2.38044E-02
    9084.026     90.773   5.040  1.05048E+00  1.03070E+00  1.97886E-02
    9085.569     92.315   5.080  1.04750E+00  1.03205E+00  1.54498E-02
    9087.123     93.869   5.120  1.04382E+00  1.03336E+00  1.04650E-02
    9088.690     95.436   5.160  1.03924E+00  1.03459E+00  4.65249E-03
    9090.269     97.015   5.200  1.03373E+00  1.03574E+00 -2.01106E-03
    9091.860     98.606   5.240  1.02737E+00  1.03684E+00 -9.46467E-03
    9093.463    100.209   5.280  1.02029E+00  1.03782E+00 -1.75384E-02
    9095.078    101.825   5.320  1.01290E+00  1.03875E+00 -2.58568E-02
    9096.706    103.452   5.360  1.00574E+00  1.03957E+00 -3.38370E-02
    9098.346    105.092   5.400  9.99565E-01  1.04033E+00 -4.07625E-02
    9099.998    106.744   5.440  9.95042E-01  1.04097E+00 -4.59285E-02
    9101.662    108.408   5.480  9.92728E-01  1.04150E+00 -4.87745E-02
    9103.338    110.085   5.520  9.92942E-01  1.04197E+00 -4.90238E-02
    9105.027    111.773   5.560  9.95569E-01  1.04232E+00 -4.67470E-02
    9106.728    113.474   5.600  1.00023E+00  1.04255E+00 -4.23214E-02
    9108.441    115.187   5.640  1.00629E+00  1.04270E+00 -3.64044E-02
    9110.166    116.912   5.680  1.01287E+00  1.04275E+00 -2.98839E-02
    9111.903    118.650   5.720  1.01885E+00  1.04272E+00 -2.38680E-02
    9113.653    120.399   5.760  1.02311E+00  1.04258E+00 -1.94659E-02
    9115.414    122.161   5.800  1.02490E+00  1.04232E+00 -1.74185E-02
    9117.188    123.935   5.840  1.02424E+00  1.04200E+00 -1.77641E-02
    9118.974    125.721   5.880  1.02181E+00  1.04157E+00 -1.97640E-02
    9120.773    127.519   5.920  1.01890E+00  1.04106E+00 -2.21600E-02
    9122.583    129.330   5.960  1.01672E+00  1.04046E+00 -2.37341E-02
    9124.406    131.152   6.000  1.01585E+00  1.03966E+00 -2.38156E-02
