# # comment:                                                     FEFF 9.9.1  
# # Source:
# # Structure
# # Reduced
# # space
# # abc:
# # angles:107.580080
# # sites:
# # POT  SCF 100  7.0000   0, screened core-hole, AFOLP (folp(0)= 1.150)
# # Abs   Z=29 Rmt= 1.134 Rnm= 1.261 K  shell
# # Pot 1 Z=56 Rmt= 1.911 Rnm= 1.973
# # Pot 2 Z=38 Rmt= 1.793 Rnm= 1.856
# # Pot 3 Z=29 Rmt= 1.130 Rnm= 1.258
# # Pot 4 Z= 8 Rmt= 1.060 Rnm= 1.119
# # Gam_ch=1.729E+00 H-L exch Vi= 0.000E+00 Vr= 0.000E+00
# # Mu=-9.039E+00eV kf=2.022E+00 Vint=-1.617E+01eV Rs_int= 1.793
# FMS rfms= 9.0000
# # PATH  Rmax=-1.000,  Keep_limit= 0.00, Heap_limit 0.00  Pwcrit= 2.50%
#  S02=0.950  Temp=   0.00  Debye_temp=   0.00  Global_sig2= 0.00000
#  Energy zero shift, vr, vi    0.00000E+00   0.00000E+00
#  Curved wave amplitude ratio filter   4.000%
#     file         sig2 tot  cw amp ratio   deg  nlegs   reff  inp sig2
#     0/   0 paths used
#  xsedge+ 50, used to normalize mu           2.4414E-04
#  -----------------------------------------------------------------------
#  omega    e    k    mu    mu0     chi     @#
    8984.397    -12.849  -1.000  2.90027E-02  5.26253E-02 -2.36226E-02
    8984.696    -12.550  -0.960  3.01885E-02  5.63431E-02 -2.61546E-02
    8984.982    -12.264  -0.920  3.14457E-02  6.04623E-02 -2.90165E-02
    8985.257    -11.989  -0.880  3.27824E-02  6.50406E-02 -3.22582E-02
    8985.519    -11.727  -0.840  3.42077E-02  7.01451E-02 -3.59374E-02
    8985.769    -11.477  -0.800  3.57326E-02  7.58534E-02 -4.01208E-02
    8986.006    -11.239  -0.760  3.73696E-02  8.22542E-02 -4.48846E-02
    8986.232    -11.014  -0.720  3.91332E-02  8.94476E-02 -5.03145E-02
    8986.445    -10.800  -0.680  4.10391E-02  9.75436E-02 -5.65045E-02
    8986.647    -10.599  -0.640  4.31041E-02  1.06658E-01 -6.35537E-02
    8986.836    -10.410  -0.600  4.53442E-02  1.16903E-01 -7.15593E-02
    8987.012    -10.234  -0.560  4.77718E-02  1.28377E-01 -8.06047E-02
    8987.177    -10.069  -0.520  5.03917E-02  1.41133E-01 -9.07416E-02
    8987.329     -9.917  -0.480  5.31947E-02  1.55159E-01 -1.01964E-01
    8987.469     -9.776  -0.440  5.61511E-02  1.70330E-01 -1.14179E-01
    8987.598     -9.648  -0.400  5.92054E-02  1.86387E-01 -1.27182E-01
    8987.713     -9.533  -0.360  6.22768E-02  2.02923E-01 -1.40646E-01
    8987.817     -9.429  -0.320  6.52665E-02  2.19407E-01 -1.54140E-01
    8987.908     -9.337  -0.280  6.80731E-02  2.35250E-01 -1.67176E-01
    8987.988     -9.258  -0.240  7.06085E-02  2.49883E-01 -1.79274E-01
    8988.055     -9.191  -0.200  7.28082E-02  2.62827E-01 -1.90019E-01
    8988.110     -9.136  -0.160  7.46315E-02  2.73729E-01 -1.99097E-01
    8988.152     -9.094  -0.120  7.60547E-02  2.82357E-01 -2.06302E-01
    8988.183     -9.063  -0.080  7.70672E-02  2.88579E-01 -2.11512E-01
    8988.207     -9.039   0.000  7.78754E-02  2.93585E-01 -2.15709E-01
    8988.262     -8.984   0.120  8.01619E-02  3.04871E-01 -2.24709E-01
    8988.305     -8.941   0.160  8.17959E-02  3.13661E-01 -2.31865E-01
    8988.359     -8.886   0.200  8.38371E-02  3.24911E-01 -2.41074E-01
    8988.427     -8.819   0.240  8.62488E-02  3.38491E-01 -2.52242E-01
    8988.506     -8.740   0.280  8.89558E-02  3.54162E-01 -2.65206E-01
    8988.597     -8.649   0.320  9.19119E-02  3.71525E-01 -2.79613E-01
    8988.701     -8.545   0.360  9.51271E-02  3.90173E-01 -2.95046E-01
    8988.817     -8.429   0.400  9.86012E-02  4.09607E-01 -3.11006E-01
    8988.945     -8.301   0.440  1.02313E-01  4.29365E-01 -3.27053E-01
    8989.085     -8.161   0.480  1.06248E-01  4.49108E-01 -3.42860E-01
    8989.237     -8.009   0.520  1.10273E-01  4.68597E-01 -3.58323E-01
    8989.402     -7.844   0.560  1.14191E-01  4.87730E-01 -3.73539E-01
    8989.579     -7.667   0.600  1.17799E-01  5.06498E-01 -3.88699E-01
    8989.768     -7.478   0.640  1.20921E-01  5.24883E-01 -4.03962E-01
    8989.969     -7.277   0.680  1.23761E-01  5.42982E-01 -4.19221E-01
    8990.182     -7.064   0.720  1.26733E-01  5.60861E-01 -4.34129E-01
    8990.408     -6.838   0.760  1.30521E-01  5.78584E-01 -4.48062E-01
    8990.645     -6.600   0.800  1.35842E-01  5.96183E-01 -4.60341E-01
    8990.895     -6.350   0.840  1.43350E-01  6.13701E-01 -4.70351E-01
    8991.158     -6.088   0.880  1.53617E-01  6.31165E-01 -4.77549E-01
    8991.432     -5.814   0.920  1.66827E-01  6.48595E-01 -4.81768E-01
    8991.718     -5.527   0.960  1.82651E-01  6.65974E-01 -4.83323E-01
    8992.017     -5.229   1.000  2.00089E-01  6.83299E-01 -4.83210E-01
    8992.328     -4.918   1.040  2.17995E-01  7.00558E-01 -4.82562E-01
    8992.651     -4.595   1.080  2.36156E-01  7.17711E-01 -4.81555E-01
    8992.986     -4.259   1.120  2.56250E-01  7.34693E-01 -4.78443E-01
    8993.334     -3.912   1.160  2.81181E-01  7.51517E-01 -4.70336E-01
    8993.693     -3.552   1.200  3.12419E-01  7.68109E-01 -4.55690E-01
    8994.065     -3.180   1.240  3.48289E-01  7.84435E-01 -4.36146E-01
    8994.449     -2.796   1.280  3.85278E-01  8.00460E-01 -4.15182E-01
    8994.846     -2.400   1.320  4.21317E-01  8.16103E-01 -3.94786E-01
    8995.254     -1.992   1.360  4.55533E-01  8.31371E-01 -3.75838E-01
    8995.675     -1.571   1.400  4.85510E-01  8.46164E-01 -3.60654E-01
    8996.107     -1.138   1.440  5.10750E-01  8.60508E-01 -3.49758E-01
    8996.552     -0.693   1.480  5.34913E-01  8.74305E-01 -3.39392E-01
    8997.010     -0.236   1.520  5.64971E-01  8.87584E-01 -3.22614E-01
    8997.479      0.233   1.560  6.06785E-01  9.00272E-01 -2.93486E-01
    8997.961      0.715   1.600  6.60537E-01  9.12357E-01 -2.51820E-01
    8998.454      1.209   1.640  7.24860E-01  9.23834E-01 -1.98973E-01
    8998.960      1.715   1.680  7.94134E-01  9.34655E-01 -1.40521E-01
    8999.479      2.233   1.720  8.56667E-01  9.44857E-01 -8.81901E-02
    9000.009      2.763   1.760  9.16623E-01  9.54397E-01 -3.77737E-02
    9000.551      3.306   1.800  9.91611E-01  9.63296E-01  2.83154E-02
    9001.106      3.860   1.840  1.08718E+00  9.71537E-01  1.15641E-01
    9001.673      4.427   1.880  1.18299E+00  9.79142E-01  2.03852E-01
    9002.252      5.006   1.920  1.24646E+00  9.86118E-01  2.60337E-01
    9002.844      5.598   1.960  1.26582E+00  9.92474E-01  2.73341E-01
    9003.447      6.201   2.000  1.25148E+00  9.98235E-01  2.53243E-01
    9004.063      6.817   2.040  1.22135E+00  1.00339E+00  2.17961E-01
    9004.691      7.445   2.080  1.19257E+00  1.00800E+00  1.84572E-01
    9005.331      8.085   2.120  1.17312E+00  1.01206E+00  1.61059E-01
    9005.983      8.737   2.160  1.16854E+00  1.01562E+00  1.52919E-01
    9006.647      9.402   2.200  1.18419E+00  1.01868E+00  1.65508E-01
    9007.324     10.078   2.240  1.21901E+00  1.02126E+00  1.97753E-01
    9008.013     10.767   2.280  1.26562E+00  1.02341E+00  2.42214E-01
    9008.714     11.468   2.320  1.31399E+00  1.02515E+00  2.88845E-01
    9009.427     12.181   2.360  1.35435E+00  1.02650E+00  3.27845E-01
    9010.153     12.907   2.400  1.38083E+00  1.02750E+00  3.53336E-01
    9010.890     13.644   2.440  1.38090E+00  1.02816E+00  3.52747E-01
    9011.640     14.394   2.480  1.35368E+00  1.02852E+00  3.25157E-01
    9012.402     15.156   2.520  1.31278E+00  1.02860E+00  2.84184E-01
    9013.176     15.930   2.560  1.26496E+00  1.02842E+00  2.36539E-01
    9013.963     16.717   2.600  1.21509E+00  1.02801E+00  1.87082E-01
    9014.761     17.515   2.640  1.16790E+00  1.02741E+00  1.40491E-01
    9015.572     18.326   2.680  1.12615E+00  1.02661E+00  9.95359E-02
    9016.395     19.149   2.720  1.09145E+00  1.02565E+00  6.58032E-02
    9017.230     19.984   2.760  1.06370E+00  1.02455E+00  3.91405E-02
    9018.077     20.832   2.800  1.04192E+00  1.02334E+00  1.85817E-02
    9018.937     21.691   2.840  1.02548E+00  1.02203E+00  3.45078E-03
    9019.809     22.563   2.880  1.01379E+00  1.02061E+00 -6.81743E-03
    9020.693     23.447   2.920  1.00601E+00  1.01914E+00 -1.31304E-02
    9021.589     24.343   2.960  1.00076E+00  1.01762E+00 -1.68538E-02
    9022.497     25.251   3.000  9.96080E-01  1.01606E+00 -1.99756E-02
    9023.417     26.172   3.040  9.89858E-01  1.01446E+00 -2.46027E-02
    9024.350     27.104   3.080  9.80747E-01  1.01286E+00 -3.21115E-02
    9025.295     28.049   3.120  9.68755E-01  1.01126E+00 -4.25000E-02
    9026.252     29.006   3.160  9.54811E-01  1.00968E+00 -5.48670E-02
    9027.221     29.976   3.200  9.40162E-01  1.00811E+00 -6.79476E-02
    9028.203     30.957   3.240  9.26018E-01  1.00658E+00 -8.05574E-02
    9029.196     31.951   3.280  9.12811E-01  1.00506E+00 -9.22463E-02
    9030.202     32.956   3.320  9.00698E-01  1.00360E+00 -1.02906E-01
    9031.220     33.974   3.360  8.89789E-01  1.00222E+00 -1.12429E-01
    9032.251     35.005   3.400  8.80159E-01  1.00086E+00 -1.20701E-01
    9033.293     36.047   3.440  8.71956E-01  9.99594E-01 -1.27639E-01
    9034.348     37.102   3.480  8.65372E-01  9.98382E-01 -1.33010E-01
    9035.414     38.168   3.520  8.60696E-01  9.97224E-01 -1.36529E-01
    9036.493     39.247   3.560  8.58031E-01  9.96168E-01 -1.38137E-01
    9037.584     40.339   3.600  8.57421E-01  9.95193E-01 -1.37772E-01
    9038.688     41.442   3.640  8.58980E-01  9.94299E-01 -1.35319E-01
    9039.803     42.558   3.680  8.62880E-01  9.93487E-01 -1.30608E-01
    9040.931     43.685   3.720  8.69086E-01  9.92759E-01 -1.23673E-01
    9042.071     44.825   3.760  8.77579E-01  9.92114E-01 -1.14536E-01
    9043.223     45.977   3.800  8.88153E-01  9.91576E-01 -1.03423E-01
    9044.388     47.142   3.840  9.00299E-01  9.91100E-01 -9.08013E-02
    9045.564     48.318   3.880  9.13505E-01  9.90729E-01 -7.72243E-02
    9046.753     49.507   3.920  9.27355E-01  9.90441E-01 -6.30861E-02
    9047.954     50.708   3.960  9.41633E-01  9.90238E-01 -4.86049E-02
    9049.167     51.921   4.000  9.56249E-01  9.90119E-01 -3.38698E-02
    9050.392     53.146   4.040  9.71228E-01  9.90104E-01 -1.88763E-02
    9051.630     54.384   4.080  9.86412E-01  9.90148E-01 -3.73595E-03
    9052.879     55.633   4.120  1.00141E+00  9.90273E-01  1.11346E-02
    9054.141     56.895   4.160  1.01562E+00  9.90498E-01  2.51224E-02
    9055.415     58.169   4.200  1.02827E+00  9.90779E-01  3.74948E-02
    9056.701     59.456   4.240  1.03865E+00  9.91114E-01  4.75327E-02
    9058.000     60.754   4.280  1.04636E+00  9.91546E-01  5.48119E-02
    9059.311     62.065   4.320  1.05136E+00  9.92032E-01  5.93285E-02
    9060.633     63.388   4.360  1.05399E+00  9.92589E-01  6.14007E-02
    9061.968     64.723   4.400  1.05471E+00  9.93193E-01  6.15143E-02
    9063.316     66.070   4.440  1.05419E+00  9.93843E-01  6.03451E-02
    9064.675     67.429   4.480  1.05313E+00  9.94559E-01  5.85750E-02
    9066.047     68.801   4.520  1.05213E+00  9.95317E-01  5.68079E-02
    9067.430     70.185   4.560  1.05155E+00  9.96094E-01  5.54596E-02
    9068.826     71.581   4.600  1.05161E+00  9.96931E-01  5.46766E-02
    9070.235     72.989   4.640  1.05215E+00  9.97781E-01  5.43730E-02
    9071.655     74.409   4.680  1.05309E+00  9.98666E-01  5.44282E-02
    9073.087     75.842   4.720  1.05439E+00  9.99582E-01  5.48072E-02
    9074.532     77.286   4.760  1.05615E+00  1.00051E+00  5.56452E-02
    9075.989     78.743   4.800  1.05861E+00  1.00143E+00  5.71744E-02
    9077.458     80.212   4.840  1.06181E+00  1.00239E+00  5.94258E-02
    9078.940     81.694   4.880  1.06525E+00  1.00332E+00  6.19314E-02
    9080.433     83.187   4.920  1.06801E+00  1.00427E+00  6.37376E-02
    9081.939     84.693   4.960  1.06894E+00  1.00519E+00  6.37519E-02
    9083.457     86.211   5.000  1.06742E+00  1.00611E+00  6.13154E-02
    9084.987     87.741   5.040  1.06353E+00  1.00700E+00  5.65315E-02
    9086.529     89.283   5.080  1.05796E+00  1.00787E+00  5.00839E-02
    9088.084     90.838   5.120  1.05156E+00  1.00874E+00  4.28188E-02
    9089.650     92.404   5.160  1.04490E+00  1.00954E+00  3.53546E-02
    9091.229     93.983   5.200  1.03823E+00  1.01033E+00  2.78971E-02
    9092.820     95.574   5.240  1.03144E+00  1.01108E+00  2.03634E-02
    9094.423     97.178   5.280  1.02437E+00  1.01176E+00  1.26082E-02
    9096.039     98.793   5.320  1.01699E+00  1.01242E+00  4.56645E-03
    9097.666    100.421   5.360  1.00931E+00  1.01304E+00 -3.73139E-03
    9099.306    102.060   5.400  1.00146E+00  1.01359E+00 -1.21362E-02
    9100.958    103.712   5.440  9.93740E-01  1.01409E+00 -2.03550E-02
    9102.622    105.377   5.480  9.86565E-01  1.01452E+00 -2.79600E-02
    9104.299    107.053   5.520  9.80501E-01  1.01491E+00 -3.44050E-02
    9105.987    108.742   5.560  9.76029E-01  1.01524E+00 -3.92094E-02
    9107.688    110.442   5.600  9.73284E-01  1.01550E+00 -4.22129E-02
    9109.401    112.155   5.640  9.71888E-01  1.01568E+00 -4.37918E-02
    9111.126    113.880   5.680  9.71038E-01  1.01581E+00 -4.47744E-02
    9112.864    115.618   5.720  9.69902E-01  1.01587E+00 -4.59695E-02
    9114.613    117.367   5.760  9.68149E-01  1.01588E+00 -4.77310E-02
    9116.375    119.129   5.800  9.65978E-01  1.01582E+00 -4.98381E-02
    9118.149    120.903   5.840  9.64042E-01  1.01570E+00 -5.16607E-02
    9119.935    122.689   5.880  9.62966E-01  1.01552E+00 -5.25498E-02
    9121.733    124.487   5.920  9.63111E-01  1.01526E+00 -5.21446E-02
    9123.544    126.298   5.960  9.64464E-01  1.01494E+00 -5.04735E-02
    9125.367    128.121   6.000  9.67084E-01  1.01450E+00 -4.74118E-02
