# # comment:                                                     FEFF 9.9.1  
# # Source:
# # Structure
# # Reduced
# # space
# # abc:
# # angles:
# # sites:
# # POT  SCF 100  7.0000   0, screened core-hole, AFOLP (folp(0)= 1.150)
# # Abs   Z=29 Rmt= 1.300 Rnm= 1.396 K  shell
# # Pot 1 Z= 3 Rmt= 1.284 Rnm= 1.343
# # Pot 2 Z=29 Rmt= 1.366 Rnm= 1.425
# # Pot 3 Z=15 Rmt= 0.945 Rnm= 1.155
# # Pot 4 Z= 8 Rmt= 0.929 Rnm= 1.031
# # Gam_ch=1.729E+00 H-L exch Vi= 0.000E+00 Vr= 0.000E+00
# # Mu=-5.941E+00eV kf=2.390E+00 Vint=-1.696E+01eV Rs_int= 1.517
# FMS rfms= 9.0000
# # PATH  Rmax=-1.000,  Keep_limit= 0.00, Heap_limit 0.00  Pwcrit= 2.50%
#  S02=0.950  Temp=   0.00  Debye_temp=   0.00  Global_sig2= 0.00000
#  Energy zero shift, vr, vi    0.00000E+00   0.00000E+00
#  Curved wave amplitude ratio filter   4.000%
#     file         sig2 tot  cw amp ratio   deg  nlegs   reff  inp sig2
#     0/   0 paths used
#  xsedge+ 50, used to normalize mu           2.4828E-04
#  -----------------------------------------------------------------------
#  omega    e    k    mu    mu0     chi     @#
    8983.472     -9.751  -1.000  5.28154E-02  5.51750E-02 -2.35961E-03
    8983.771     -9.452  -0.960  5.65698E-02  5.92463E-02 -2.67649E-03
    8984.057     -9.166  -0.920  6.07451E-02  6.37775E-02 -3.03248E-03
    8984.331     -8.892  -0.880  6.54063E-02  6.88374E-02 -3.43113E-03
    8984.594     -8.629  -0.840  7.06299E-02  7.45058E-02 -3.87595E-03
    8984.844     -8.380  -0.800  7.65052E-02  8.08754E-02 -4.37021E-03
    8985.081     -8.142  -0.760  8.31360E-02  8.80528E-02 -4.91682E-03
    8985.307     -7.916  -0.720  9.06405E-02  9.61585E-02 -5.51801E-03
    8985.520     -7.703  -0.680  9.91503E-02  1.05325E-01 -6.17513E-03
    8985.721     -7.502  -0.640  1.08806E-01  1.15694E-01 -6.88829E-03
    8985.910     -7.313  -0.600  1.19747E-01  1.27403E-01 -7.65614E-03
    8986.087     -7.136  -0.560  1.32094E-01  1.40570E-01 -8.47562E-03
    8986.252     -6.971  -0.520  1.45924E-01  1.55266E-01 -9.34195E-03
    8986.404     -6.819  -0.480  1.61229E-01  1.71478E-01 -1.02487E-02
    8986.544     -6.679  -0.440  1.77873E-01  1.89061E-01 -1.11883E-02
    8986.672     -6.551  -0.400  1.95557E-01  2.07709E-01 -1.21519E-02
    8986.788     -6.435  -0.360  2.13804E-01  2.26934E-01 -1.31296E-02
    8986.892     -6.331  -0.320  2.31996E-01  2.46106E-01 -1.41096E-02
    8986.983     -6.240  -0.280  2.49448E-01  2.64525E-01 -1.50765E-02
    8987.062     -6.161  -0.240  2.65509E-01  2.81519E-01 -1.60101E-02
    8987.130     -6.094  -0.200  2.79645E-01  2.96528E-01 -1.68835E-02
    8987.184     -6.039  -0.160  2.91481E-01  3.09145E-01 -1.76642E-02
    8987.227     -5.996  -0.120  3.00795E-01  3.19111E-01 -1.83165E-02
    8987.258     -5.966  -0.080  3.07477E-01  3.26286E-01 -1.88096E-02
    8987.282     -5.941   0.000  3.12810E-01  3.32048E-01 -1.92385E-02
    8987.337     -5.886   0.120  3.24496E-01  3.45033E-01 -2.05364E-02
    8987.379     -5.844   0.160  3.33617E-01  3.55116E-01 -2.14988E-02
    8987.434     -5.789   0.200  3.45179E-01  3.67952E-01 -2.27733E-02
    8987.501     -5.722   0.240  3.58994E-01  3.83390E-01 -2.43956E-02
    8987.581     -5.642   0.280  3.74651E-01  4.01059E-01 -2.64081E-02
    8987.672     -5.551   0.320  3.91649E-01  4.20503E-01 -2.88537E-02
    8987.776     -5.447   0.360  4.09314E-01  4.41110E-01 -3.17962E-02
    8987.892     -5.332   0.400  4.26939E-01  4.62254E-01 -3.53142E-02
    8988.020     -5.204   0.440  4.43741E-01  4.83344E-01 -3.96025E-02
    8988.160     -5.063   0.480  4.58857E-01  5.03962E-01 -4.51046E-02
    8988.312     -4.911   0.520  4.71225E-01  5.23807E-01 -5.25820E-02
    8988.477     -4.746   0.560  4.79740E-01  5.42733E-01 -6.29928E-02
    8988.654     -4.570   0.600  4.83798E-01  5.60748E-01 -7.69503E-02
    8988.842     -4.381   0.640  4.83762E-01  5.77858E-01 -9.40960E-02
    8989.044     -4.179   0.680  4.81289E-01  5.94211E-01 -1.12921E-01
    8989.257     -3.966   0.720  4.78655E-01  6.09908E-01 -1.31252E-01
    8989.483     -3.741   0.760  4.78170E-01  6.25031E-01 -1.46861E-01
    8989.720     -3.503   0.800  4.82034E-01  6.39693E-01 -1.57659E-01
    8989.970     -3.253   0.840  4.92042E-01  6.53971E-01 -1.61929E-01
    8990.232     -2.991   0.880  5.08764E-01  6.67969E-01 -1.59205E-01
    8990.507     -2.716   0.920  5.30405E-01  6.81697E-01 -1.51292E-01
    8990.793     -2.430   0.960  5.53437E-01  6.95233E-01 -1.41795E-01
    8991.092     -2.131   1.000  5.74847E-01  7.08580E-01 -1.33733E-01
    8991.403     -1.820   1.040  5.95164E-01  7.21774E-01 -1.26610E-01
    8991.726     -1.497   1.080  6.18554E-01  7.34802E-01 -1.16248E-01
    8992.061     -1.162   1.120  6.48828E-01  7.47705E-01 -9.88765E-02
    8992.409     -0.814   1.160  6.85264E-01  7.60456E-01 -7.51925E-02
    8992.768     -0.455   1.200  7.24586E-01  7.73045E-01 -4.84592E-02
    8993.140     -0.083   1.240  7.64214E-01  7.85478E-01 -2.12641E-02
    8993.524      0.301   1.280  8.02227E-01  7.97717E-01  4.51012E-03
    8993.920      0.697   1.320  8.40733E-01  8.09761E-01  3.09716E-02
    8994.329      1.106   1.360  8.85042E-01  8.21590E-01  6.34517E-02
    8994.749      1.526   1.400  9.36545E-01  8.33199E-01  1.03346E-01
    8995.182      1.959   1.440  9.90657E-01  8.44544E-01  1.46114E-01
    8995.627      2.404   1.480  1.04209E+00  8.55619E-01  1.86468E-01
    8996.084      2.861   1.520  1.09536E+00  8.66398E-01  2.28960E-01
    8996.554      3.331   1.560  1.15156E+00  8.76877E-01  2.74687E-01
    8997.035      3.812   1.600  1.19262E+00  8.87028E-01  3.05588E-01
    8997.529      4.306   1.640  1.20768E+00  8.96825E-01  3.10851E-01
    8998.035      4.812   1.680  1.20476E+00  9.06264E-01  2.98495E-01
    8998.553      5.330   1.720  1.19178E+00  9.15340E-01  2.76441E-01
    8999.084      5.861   1.760  1.16999E+00  9.24029E-01  2.45958E-01
    8999.626      6.403   1.800  1.13800E+00  9.32328E-01  2.05673E-01
    9000.181      6.958   1.840  1.09740E+00  9.40234E-01  1.57162E-01
    9000.748      7.525   1.880  1.05453E+00  9.47723E-01  1.06807E-01
    9001.327      8.104   1.920  1.02296E+00  9.54816E-01  6.81455E-02
    9001.918      8.695   1.960  1.01420E+00  9.61471E-01  5.27294E-02
    9002.522      9.299   2.000  1.02590E+00  9.67729E-01  5.81756E-02
    9003.138      9.914   2.040  1.04191E+00  9.73551E-01  6.83623E-02
    9003.765     10.542   2.080  1.04684E+00  9.78979E-01  6.78642E-02
    9004.406     11.182   2.120  1.04084E+00  9.83997E-01  5.68441E-02
    9005.058     11.835   2.160  1.03181E+00  9.88628E-01  4.31848E-02
    9005.722     12.499   2.200  1.02116E+00  9.92836E-01  2.83230E-02
    9006.399     13.176   2.240  1.00704E+00  9.96687E-01  1.03566E-02
    9007.088     13.865   2.280  9.92277E-01  1.00016E+00 -7.88820E-03
    9007.789     14.566   2.320  9.85139E-01  1.00325E+00 -1.81156E-02
    9008.502     15.279   2.360  9.88212E-01  1.00603E+00 -1.78136E-02
    9009.227     16.004   2.400  9.94805E-01  1.00844E+00 -1.36374E-02
    9009.965     16.742   2.440  9.99085E-01  1.01053E+00 -1.14449E-02
    9010.715     17.492   2.480  9.99356E-01  1.01230E+00 -1.29433E-02
    9011.477     18.254   2.520  9.94973E-01  1.01380E+00 -1.88245E-02
    9012.251     19.028   2.560  9.87572E-01  1.01499E+00 -2.74178E-02
    9013.037     19.814   2.600  9.81898E-01  1.01593E+00 -3.40290E-02
    9013.836     20.613   2.640  9.81693E-01  1.01662E+00 -3.49238E-02
    9014.647     21.424   2.680  9.85923E-01  1.01709E+00 -3.11629E-02
    9015.470     22.247   2.720  9.91992E-01  1.01732E+00 -2.53324E-02
    9016.305     23.082   2.760  1.00033E+00  1.01736E+00 -1.70228E-02
    9017.152     23.929   2.800  1.00939E+00  1.01719E+00 -7.80559E-03
    9018.012     24.789   2.840  1.01260E+00  1.01688E+00 -4.28221E-03
    9018.883     25.660   2.880  1.00908E+00  1.01638E+00 -7.30740E-03
    9019.767     26.544   2.920  1.00249E+00  1.01575E+00 -1.32621E-02
    9020.663     27.440   2.960  9.95837E-01  1.01500E+00 -1.91616E-02
    9021.572     28.349   3.000  9.89889E-01  1.01412E+00 -2.42353E-02
    9022.492     29.269   3.040  9.84317E-01  1.01316E+00 -2.88390E-02
    9023.425     30.202   3.080  9.78666E-01  1.01208E+00 -3.34155E-02
    9024.370     31.147   3.120  9.72901E-01  1.01095E+00 -3.80457E-02
    9025.327     32.104   3.160  9.67086E-01  1.00974E+00 -4.26521E-02
    9026.296     33.073   3.200  9.61315E-01  1.00848E+00 -4.71671E-02
    9027.278     34.055   3.240  9.55934E-01  1.00718E+00 -5.12491E-02
    9028.271     35.048   3.280  9.51655E-01  1.00584E+00 -5.41898E-02
    9029.277     36.054   3.320  9.49374E-01  1.00447E+00 -5.50991E-02
    9030.295     37.072   3.360  9.49909E-01  1.00312E+00 -5.32069E-02
    9031.325     38.102   3.400  9.53548E-01  1.00173E+00 -4.81849E-02
    9032.368     39.145   3.440  9.60068E-01  1.00035E+00 -4.02825E-02
    9033.422     40.199   3.480  9.68583E-01  9.98993E-01 -3.04097E-02
    9034.489     41.266   3.520  9.77812E-01  9.97643E-01 -1.98309E-02
    9035.568     42.345   3.560  9.86317E-01  9.96324E-01 -1.00075E-02
    9036.659     43.436   3.600  9.92902E-01  9.95019E-01 -2.11725E-03
    9037.763     44.540   3.640  9.97145E-01  9.93771E-01  3.37409E-03
    9038.878     45.655   3.680  9.99297E-01  9.92542E-01  6.75521E-03
    9040.006     46.783   3.720  1.00020E+00  9.91376E-01  8.82133E-03
    9041.146     47.923   3.760  1.00074E+00  9.90253E-01  1.04897E-02
    9042.298     49.075   3.800  1.00156E+00  9.89176E-01  1.23838E-02
    9043.462     50.239   3.840  1.00277E+00  9.88167E-01  1.46058E-02
    9044.639     51.416   3.880  1.00406E+00  9.87206E-01  1.68530E-02
    9045.828     52.605   3.920  1.00500E+00  9.86316E-01  1.86885E-02
    9047.029     53.805   3.960  1.00525E+00  9.85476E-01  1.97772E-02
    9048.242     55.019   4.000  1.00475E+00  9.84709E-01  2.00402E-02
    9049.467     56.244   4.040  1.00369E+00  9.84015E-01  1.96715E-02
    9050.704     57.481   4.080  1.00235E+00  9.83372E-01  1.89805E-02
    9051.954     58.731   4.120  1.00107E+00  9.82803E-01  1.82662E-02
    9053.216     59.993   4.160  1.00011E+00  9.82311E-01  1.77954E-02
    9054.490     61.267   4.200  9.99747E-01  9.81892E-01  1.78543E-02
    9055.776     62.553   4.240  1.00022E+00  9.81526E-01  1.86966E-02
    9057.075     63.852   4.280  1.00165E+00  9.81232E-01  2.04201E-02
    9058.385     65.162   4.320  1.00385E+00  9.81012E-01  2.28390E-02
    9059.708     66.485   4.360  1.00628E+00  9.80844E-01  2.54328E-02
    9061.043     67.820   4.400  1.00817E+00  9.80745E-01  2.74266E-02
    9062.390     69.167   4.440  1.00870E+00  9.80696E-01  2.79991E-02
    9063.750     70.527   4.480  1.00727E+00  9.80717E-01  2.65511E-02
    9065.121     71.898   4.520  1.00368E+00  9.80785E-01  2.28934E-02
    9066.505     73.282   4.560  9.98266E-01  9.80920E-01  1.73461E-02
    9067.901     74.678   4.600  9.91731E-01  9.81079E-01  1.06520E-02
    9069.309     76.086   4.640  9.85104E-01  9.81325E-01  3.77926E-03
    9070.730     77.507   4.680  9.79273E-01  9.81591E-01 -2.31790E-03
    9072.162     78.939   4.720  9.74993E-01  9.81898E-01 -6.90453E-03
    9073.607     80.384   4.760  9.72598E-01  9.82245E-01 -9.64658E-03
    9075.064     81.841   4.800  9.72005E-01  9.82652E-01 -1.06476E-02
    9076.533     83.310   4.840  9.72754E-01  9.83074E-01 -1.03202E-02
    9078.014     84.791   4.880  9.74408E-01  9.83529E-01 -9.12168E-03
    9079.508     86.285   4.920  9.76682E-01  9.83995E-01 -7.31323E-03
    9081.014     87.791   4.960  9.79580E-01  9.84491E-01 -4.91024E-03
    9082.532     89.308   5.000  9.83189E-01  9.84995E-01 -1.80527E-03
    9084.062     90.839   5.040  9.87546E-01  9.85526E-01  2.01959E-03
    9085.604     92.381   5.080  9.92348E-01  9.86062E-01  6.28535E-03
    9087.158     93.935   5.120  9.96970E-01  9.86600E-01  1.03700E-02
    9088.725     95.502   5.160  1.00064E+00  9.87138E-01  1.34999E-02
    9090.304     97.081   5.200  1.00277E+00  9.87674E-01  1.50928E-02
    9091.895     98.672   5.240  1.00319E+00  9.88209E-01  1.49782E-02
    9093.498    100.275   5.280  1.00202E+00  9.88741E-01  1.32781E-02
    9095.114    101.891   5.320  9.99340E-01  9.89266E-01  1.00737E-02
    9096.741    103.518   5.360  9.95038E-01  9.89760E-01  5.27797E-03
    9098.381    105.158   5.400  9.89166E-01  9.90221E-01 -1.05520E-03
    9100.033    106.810   5.440  9.82312E-01  9.90670E-01 -8.35759E-03
    9101.697    108.474   5.480  9.75600E-01  9.91087E-01 -1.54870E-02
    9103.374    110.151   5.520  9.70319E-01  9.91492E-01 -2.11729E-02
    9105.062    111.839   5.560  9.67234E-01  9.91860E-01 -2.46261E-02
    9106.763    113.540   5.600  9.66290E-01  9.92190E-01 -2.58997E-02
    9108.476    115.253   5.640  9.66741E-01  9.92480E-01 -2.57385E-02
    9110.201    116.978   5.680  9.67611E-01  9.92729E-01 -2.51177E-02
    9111.938    118.715   5.720  9.68166E-01  9.92937E-01 -2.47719E-02
    9113.688    120.465   5.760  9.68172E-01  9.93103E-01 -2.49315E-02
    9115.450    122.227   5.800  9.67890E-01  9.93204E-01 -2.53137E-02
    9117.224    124.001   5.840  9.67915E-01  9.93286E-01 -2.53709E-02
    9119.010    125.787   5.880  9.68640E-01  9.93303E-01 -2.46636E-02
    9120.808    127.585   5.920  9.70204E-01  9.93302E-01 -2.30982E-02
    9122.619    129.396   5.960  9.72444E-01  9.93228E-01 -2.07833E-02
    9124.441    131.218   6.000  9.75395E-01  9.93079E-01 -1.76840E-02
