# # comment:                                                     FEFF 9.9.1  
# # Source:
# # Structure
# # Reduced
# # space
# # abc:
# # angles:
# # sites:
# # POT  SCF 100  7.0000   0, screened core-hole, AFOLP (folp(0)= 1.150)
# # Abs   Z=29 Rmt= 1.291 Rnm= 1.355 K  shell
# # Pot 1 Z= 3 Rmt= 1.265 Rnm= 1.334
# # Pot 2 Z=29 Rmt= 1.291 Rnm= 1.355
# # Pot 3 Z=15 Rmt= 0.934 Rnm= 1.150
# # Pot 4 Z= 8 Rmt= 0.858 Rnm= 1.034
# # Gam_ch=1.729E+00 H-L exch Vi= 0.000E+00 Vr= 0.000E+00
# # Mu=-6.093E+00eV kf=2.557E+00 Vint=-1.777E+01eV Rs_int= 1.418
# FMS rfms= 9.0000
# # PATH  Rmax=-1.000,  Keep_limit= 0.00, Heap_limit 0.00  Pwcrit= 2.50%
#  S02=0.950  Temp=   0.00  Debye_temp=   0.00  Global_sig2= 0.00000
#  Energy zero shift, vr, vi    0.00000E+00   0.00000E+00
#  Curved wave amplitude ratio filter   4.000%
#     file         sig2 tot  cw amp ratio   deg  nlegs   reff  inp sig2
#     0/   0 paths used
#  xsedge+ 50, used to normalize mu           2.4970E-04
#  -----------------------------------------------------------------------
#  omega    e    k    mu    mu0     chi     @#
    8983.295     -9.903  -1.000  4.16387E-02  5.26967E-02 -1.10580E-02
    8983.594     -9.604  -0.960  4.38259E-02  5.65436E-02 -1.27177E-02
    8983.880     -9.317  -0.920  4.61655E-02  6.08233E-02 -1.46578E-02
    8984.155     -9.043  -0.880  4.86713E-02  6.56003E-02 -1.69291E-02
    8984.417     -8.781  -0.840  5.13587E-02  7.09498E-02 -1.95911E-02
    8984.667     -8.531  -0.800  5.42447E-02  7.69588E-02 -2.27141E-02
    8984.904     -8.293  -0.760  5.73482E-02  8.37278E-02 -2.63795E-02
    8985.130     -8.068  -0.720  6.06893E-02  9.13699E-02 -3.06807E-02
    8985.343     -7.854  -0.680  6.42888E-02  1.00010E-01 -3.57217E-02
    8985.544     -7.653  -0.640  6.81675E-02  1.09782E-01 -4.16140E-02
    8985.733     -7.464  -0.600  7.23439E-02  1.20813E-01 -4.84693E-02
    8985.910     -7.287  -0.560  7.68304E-02  1.33217E-01 -5.63865E-02
    8986.075     -7.123  -0.520  8.16290E-02  1.47059E-01 -6.54305E-02
    8986.227     -6.970  -0.480  8.67239E-02  1.62327E-01 -7.56035E-02
    8986.367     -6.830  -0.440  9.20740E-02  1.78886E-01 -8.68122E-02
    8986.495     -6.702  -0.400  9.76060E-02  1.96445E-01 -9.88391E-02
    8986.611     -6.586  -0.360  1.03212E-01  2.14547E-01 -1.11335E-01
    8986.715     -6.483  -0.320  1.08752E-01  2.32597E-01 -1.23845E-01
    8986.806     -6.391  -0.280  1.14070E-01  2.49937E-01 -1.35867E-01
    8986.886     -6.312  -0.240  1.19007E-01  2.65935E-01 -1.46928E-01
    8986.953     -6.245  -0.200  1.23416E-01  2.80062E-01 -1.56646E-01
    8987.007     -6.190  -0.160  1.27177E-01  2.91937E-01 -1.64760E-01
    8987.050     -6.147  -0.120  1.30197E-01  3.01317E-01 -1.71120E-01
    8987.081     -6.117  -0.080  1.32410E-01  3.08070E-01 -1.75660E-01
    8987.105     -6.093   0.000  1.34236E-01  3.13492E-01 -1.79256E-01
    8987.160     -6.038   0.120  1.38284E-01  3.25701E-01 -1.87417E-01
    8987.203     -5.995   0.160  1.41474E-01  3.35195E-01 -1.93722E-01
    8987.257     -5.940   0.200  1.45581E-01  3.47281E-01 -2.01700E-01
    8987.324     -5.873   0.240  1.50647E-01  3.61795E-01 -2.11148E-01
    8987.404     -5.794   0.280  1.56681E-01  3.78407E-01 -2.21725E-01
    8987.495     -5.702   0.320  1.63649E-01  3.96685E-01 -2.33036E-01
    8987.599     -5.599   0.360  1.71557E-01  4.16071E-01 -2.44514E-01
    8987.715     -5.483   0.400  1.80302E-01  4.35933E-01 -2.55631E-01
    8987.843     -5.355   0.440  1.89888E-01  4.55754E-01 -2.65866E-01
    8987.983     -5.215   0.480  2.00319E-01  4.75120E-01 -2.74801E-01
    8988.135     -5.062   0.520  2.11696E-01  4.93747E-01 -2.82051E-01
    8988.300     -4.898   0.560  2.24199E-01  5.11515E-01 -2.87316E-01
    8988.477     -4.721   0.600  2.38133E-01  5.28419E-01 -2.90286E-01
    8988.666     -4.532   0.640  2.53826E-01  5.44501E-01 -2.90675E-01
    8988.867     -4.331   0.680  2.71629E-01  5.59863E-01 -2.88234E-01
    8989.080     -4.117   0.720  2.91807E-01  5.74604E-01 -2.82797E-01
    8989.306     -3.892   0.760  3.14658E-01  5.88840E-01 -2.74182E-01
    8989.543     -3.654   0.800  3.40670E-01  6.02659E-01 -2.61989E-01
    8989.793     -3.404   0.840  3.70654E-01  6.16179E-01 -2.45525E-01
    8990.055     -3.142   0.880  4.05666E-01  6.29439E-01 -2.23773E-01
    8990.330     -2.868   0.920  4.46974E-01  6.42488E-01 -1.95514E-01
    8990.616     -2.581   0.960  4.95288E-01  6.55403E-01 -1.60114E-01
    8990.915     -2.283   1.000  5.49109E-01  6.68209E-01 -1.19100E-01
    8991.226     -1.972   1.040  6.04271E-01  6.80901E-01 -7.66301E-02
    8991.549     -1.649   1.080  6.55635E-01  6.93508E-01 -3.78731E-02
    8991.884     -1.313   1.120  7.00795E-01  7.06050E-01 -5.25467E-03
    8992.232     -0.966   1.160  7.41920E-01  7.18523E-01  2.33968E-02
    8992.591     -0.606   1.200  7.82560E-01  7.30918E-01  5.16418E-02
    8992.963     -0.234   1.240  8.24407E-01  7.43241E-01  8.11660E-02
    8993.347      0.150   1.280  8.67363E-01  7.55456E-01  1.11907E-01
    8993.744      0.546   1.320  9.10620E-01  7.67545E-01  1.43075E-01
    8994.152      0.954   1.360  9.49524E-01  7.79546E-01  1.69978E-01
    8994.573      1.375   1.400  9.79535E-01  7.91375E-01  1.88160E-01
    8995.005      1.808   1.440  1.00792E+00  8.03068E-01  2.04848E-01
    8995.450      2.253   1.480  1.04313E+00  8.14559E-01  2.28574E-01
    8995.908      2.710   1.520  1.07906E+00  8.25863E-01  2.53194E-01
    8996.377      3.179   1.560  1.10212E+00  8.36952E-01  2.65164E-01
    8996.859      3.661   1.600  1.10579E+00  8.47781E-01  2.58011E-01
    8997.352      4.155   1.640  1.10301E+00  8.58381E-01  2.44630E-01
    8997.858      4.661   1.680  1.11580E+00  8.68685E-01  2.47118E-01
    8998.376      5.179   1.720  1.15018E+00  8.78706E-01  2.71475E-01
    8998.907      5.709   1.760  1.19743E+00  8.88398E-01  3.09035E-01
    8999.449      6.252   1.800  1.24949E+00  8.97794E-01  3.51694E-01
    9000.004      6.807   1.840  1.29626E+00  9.06828E-01  3.89427E-01
    9000.571      7.373   1.880  1.33136E+00  9.15516E-01  4.15839E-01
    9001.150      7.953   1.920  1.35414E+00  9.23832E-01  4.30311E-01
    9001.741      8.544   1.960  1.34985E+00  9.31794E-01  4.18055E-01
    9002.345      9.147   2.000  1.30554E+00  9.39357E-01  3.66182E-01
    9002.961      9.763   2.040  1.23414E+00  9.46539E-01  2.87605E-01
    9003.589     10.391   2.080  1.16213E+00  9.53339E-01  2.08787E-01
    9004.229     11.031   2.120  1.10304E+00  9.59736E-01  1.43307E-01
    9004.881     11.683   2.160  1.05350E+00  9.65728E-01  8.77693E-02
    9005.545     12.348   2.200  1.00994E+00  9.71338E-01  3.85977E-02
    9006.222     13.024   2.240  9.75864E-01  9.76569E-01 -7.04530E-04
    9006.911     13.713   2.280  9.52872E-01  9.81380E-01 -2.85074E-02
    9007.612     14.414   2.320  9.38807E-01  9.85834E-01 -4.70269E-02
    9008.325     15.128   2.360  9.33211E-01  9.89895E-01 -5.66849E-02
    9009.051     15.853   2.400  9.37728E-01  9.93588E-01 -5.58601E-02
    9009.788     16.591   2.440  9.52358E-01  9.96938E-01 -4.45793E-02
    9010.538     17.340   2.480  9.74139E-01  9.99908E-01 -2.57689E-02
    9011.300     18.102   2.520  9.98829E-01  1.00256E+00 -3.73534E-03
    9012.074     18.877   2.560  1.02178E+00  1.00487E+00  1.69091E-02
    9012.861     19.663   2.600  1.03679E+00  1.00688E+00  2.99124E-02
    9013.659     20.462   2.640  1.03738E+00  1.00857E+00  2.88047E-02
    9014.470     21.272   2.680  1.02303E+00  1.00998E+00  1.30532E-02
    9015.293     22.095   2.720  9.99015E-01  1.01110E+00 -1.20887E-02
    9016.128     22.930   2.760  9.69691E-01  1.01195E+00 -4.22617E-02
    9016.975     23.778   2.800  9.36230E-01  1.01258E+00 -7.63467E-02
    9017.835     24.637   2.840  8.99916E-01  1.01296E+00 -1.13048E-01
    9018.707     25.509   2.880  8.65445E-01  1.01314E+00 -1.47695E-01
    9019.590     26.393   2.920  8.35640E-01  1.01309E+00 -1.77451E-01
    9020.487     27.289   2.960  8.20794E-01  1.01287E+00 -1.92074E-01
    9021.395     28.197   3.000  8.17551E-01  1.01248E+00 -1.94924E-01
    9022.315     29.118   3.040  8.23726E-01  1.01192E+00 -1.88196E-01
    9023.248     30.051   3.080  8.36813E-01  1.01121E+00 -1.74400E-01
    9024.193     30.995   3.120  8.54425E-01  1.01038E+00 -1.55952E-01
    9025.150     31.952   3.160  8.74898E-01  1.00942E+00 -1.34524E-01
    9026.119     32.922   3.200  8.96361E-01  1.00837E+00 -1.12013E-01
    9027.101     33.903   3.240  9.17549E-01  1.00724E+00 -8.96904E-02
    9028.094     34.897   3.280  9.37421E-01  1.00600E+00 -6.85817E-02
    9029.100     35.903   3.320  9.55277E-01  1.00471E+00 -4.94359E-02
    9030.118     36.921   3.360  9.70834E-01  1.00337E+00 -3.25407E-02
    9031.148     37.951   3.400  9.84305E-01  1.00199E+00 -1.76877E-02
    9032.191     38.993   3.440  9.96252E-01  1.00057E+00 -4.32049E-03
    9033.245     40.048   3.480  1.00729E+00  9.99119E-01  8.17148E-03
    9034.312     41.115   3.520  1.01763E+00  9.97656E-01  1.99710E-02
    9035.391     42.194   3.560  1.02693E+00  9.96191E-01  3.07413E-02
    9036.482     43.285   3.600  1.03469E+00  9.94724E-01  3.99669E-02
    9037.586     44.388   3.640  1.04053E+00  9.93262E-01  4.72684E-02
    9038.701     45.504   3.680  1.04438E+00  9.91829E-01  5.25486E-02
    9039.829     46.632   3.720  1.04641E+00  9.90430E-01  5.59792E-02
    9040.969     47.772   3.760  1.04701E+00  9.89045E-01  5.79603E-02
    9042.121     48.924   3.800  1.04657E+00  9.87718E-01  5.88505E-02
    9043.286     50.088   3.840  1.04530E+00  9.86410E-01  5.88874E-02
    9044.462     51.264   3.880  1.04346E+00  9.85166E-01  5.82906E-02
    9045.651     52.453   3.920  1.04121E+00  9.83967E-01  5.72410E-02
    9046.852     53.654   3.960  1.03867E+00  9.82814E-01  5.58532E-02
    9048.065     54.867   4.000  1.03591E+00  9.81731E-01  5.41836E-02
    9049.290     56.093   4.040  1.03298E+00  9.80719E-01  5.22604E-02
    9050.528     57.330   4.080  1.02974E+00  9.79761E-01  4.99822E-02
    9051.777     58.580   4.120  1.02606E+00  9.78874E-01  4.71852E-02
    9053.039     59.842   4.160  1.02183E+00  9.78063E-01  4.37670E-02
    9054.313     61.116   4.200  1.01710E+00  9.77327E-01  3.97685E-02
    9055.599     62.402   4.240  1.01201E+00  9.76646E-01  3.53679E-02
    9056.898     63.700   4.280  1.00685E+00  9.76040E-01  3.08151E-02
    9058.208     65.011   4.320  1.00183E+00  9.75530E-01  2.62960E-02
    9059.531     66.334   4.360  9.96876E-01  9.75054E-01  2.18218E-02
    9060.866     67.669   4.400  9.92006E-01  9.74675E-01  1.73301E-02
    9062.214     69.016   4.440  9.87165E-01  9.74373E-01  1.27921E-02
    9063.573     70.375   4.480  9.82402E-01  9.74124E-01  8.27747E-03
    9064.945     71.747   4.520  9.77914E-01  9.73949E-01  3.96460E-03
    9066.328     73.131   4.560  9.73881E-01  9.73849E-01  3.20984E-05
    9067.724     74.527   4.600  9.70385E-01  9.73822E-01 -3.43775E-03
    9069.132     75.935   4.640  9.67382E-01  9.73844E-01 -6.46272E-03
    9070.553     77.355   4.680  9.64803E-01  9.73915E-01 -9.11129E-03
    9071.985     78.788   4.720  9.62590E-01  9.74055E-01 -1.14654E-02
    9073.430     80.233   4.760  9.60694E-01  9.74266E-01 -1.35715E-02
    9074.887     81.690   4.800  9.59052E-01  9.74521E-01 -1.54695E-02
    9076.356     83.159   4.840  9.57602E-01  9.74819E-01 -1.72168E-02
    9077.838     84.640   4.880  9.56244E-01  9.75158E-01 -1.89140E-02
    9079.331     86.133   4.920  9.54846E-01  9.75538E-01 -2.06919E-02
    9080.837     87.639   4.960  9.53294E-01  9.75958E-01 -2.26637E-02
    9082.355     89.157   5.000  9.51600E-01  9.76435E-01 -2.48347E-02
    9083.885     90.687   5.040  9.49830E-01  9.76906E-01 -2.70758E-02
    9085.427     92.229   5.080  9.48305E-01  9.77430E-01 -2.91256E-02
    9086.981     93.784   5.120  9.47355E-01  9.77967E-01 -3.06119E-02
    9088.548     95.351   5.160  9.47361E-01  9.78532E-01 -3.11715E-02
    9090.127     96.929   5.200  9.48577E-01  9.79103E-01 -3.05262E-02
    9091.718     98.520   5.240  9.51069E-01  9.79676E-01 -2.86073E-02
    9093.321    100.124   5.280  9.54662E-01  9.80249E-01 -2.55869E-02
    9094.937    101.739   5.320  9.58999E-01  9.80822E-01 -2.18233E-02
    9096.564    103.367   5.360  9.63679E-01  9.81394E-01 -1.77157E-02
    9098.204    105.007   5.400  9.68390E-01  9.81963E-01 -1.35739E-02
    9099.856    106.659   5.440  9.72948E-01  9.82527E-01 -9.57916E-03
    9101.520    108.323   5.480  9.77218E-01  9.83061E-01 -5.84342E-03
    9103.197    109.999   5.520  9.81122E-01  9.83586E-01 -2.46419E-03
    9104.885    111.688   5.560  9.84540E-01  9.84079E-01  4.60747E-04
    9106.586    113.389   5.600  9.87445E-01  9.84560E-01  2.88409E-03
    9108.299    115.102   5.640  9.89860E-01  9.85007E-01  4.85387E-03
    9110.024    116.827   5.680  9.91883E-01  9.85413E-01  6.47014E-03
    9111.762    118.564   5.720  9.93589E-01  9.85780E-01  7.80874E-03
    9113.511    120.314   5.760  9.95030E-01  9.86108E-01  8.92296E-03
    9115.273    122.075   5.800  9.96269E-01  9.86391E-01  9.87784E-03
    9117.047    123.849   5.840  9.97361E-01  9.86609E-01  1.07516E-02
    9118.833    125.635   5.880  9.98403E-01  9.86808E-01  1.15951E-02
    9120.631    127.434   5.920  9.99321E-01  9.86939E-01  1.23812E-02
    9122.442    129.244   5.960  9.99963E-01  9.87044E-01  1.29186E-02
    9124.264    131.067   6.000  9.99824E-01  9.87053E-01  1.27706E-02
