# # comment:                                                     FEFF 9.9.1  
# # Source:
# # Structure
# # Reduced
# # space
# # abc:
# # angles:117.086759
# # sites:
# # POT  SCF 100  7.0000   0, screened core-hole, AFOLP (folp(0)= 1.150)
# # Abs   Z=29 Rmt= 1.259 Rnm= 1.316 K  shell
# # Pot 1 Z=23 Rmt= 1.185 Rnm= 1.348
# # Pot 2 Z=29 Rmt= 1.262 Rnm= 1.344
# # Pot 3 Z= 8 Rmt= 1.041 Rnm= 1.100
# # Gam_ch=1.729E+00 H-L exch Vi= 0.000E+00 Vr= 0.000E+00
# # Mu=-9.849E+00eV kf=2.223E+00 Vint=-1.821E+01eV Rs_int= 1.632
# FMS rfms= 9.0000
# # PATH  Rmax=-1.000,  Keep_limit= 0.00, Heap_limit 0.00  Pwcrit= 2.50%
#  S02=0.950  Temp=   0.00  Debye_temp=   0.00  Global_sig2= 0.00000
#  Energy zero shift, vr, vi    0.00000E+00   0.00000E+00
#  Curved wave amplitude ratio filter   4.000%
#     file         sig2 tot  cw amp ratio   deg  nlegs   reff  inp sig2
#     0/   0 paths used
#  xsedge+ 50, used to normalize mu           2.4751E-04
#  -----------------------------------------------------------------------
#  omega    e    k    mu    mu0     chi     @#
    8984.751    -13.659  -1.000  3.21518E-02  4.95771E-02 -1.74253E-02
    8985.050    -13.360  -0.960  3.36204E-02  5.30679E-02 -1.94475E-02
    8985.336    -13.073  -0.920  3.51940E-02  5.69385E-02 -2.17446E-02
    8985.610    -12.799  -0.880  3.68867E-02  6.12442E-02 -2.43575E-02
    8985.873    -12.537  -0.840  3.87154E-02  6.60492E-02 -2.73338E-02
    8986.122    -12.287  -0.800  4.07003E-02  7.14280E-02 -3.07277E-02
    8986.360    -12.049  -0.760  4.28654E-02  7.74659E-02 -3.46005E-02
    8986.586    -11.824  -0.720  4.52385E-02  8.42591E-02 -3.90206E-02
    8986.799    -11.610  -0.680  4.78512E-02  9.19137E-02 -4.40625E-02
    8987.000    -11.409  -0.640  5.07376E-02  1.00541E-01 -4.98036E-02
    8987.189    -11.220  -0.600  5.39315E-02  1.10251E-01 -5.63198E-02
    8987.366    -11.044  -0.560  5.74615E-02  1.21137E-01 -6.36756E-02
    8987.531    -10.879  -0.520  6.13421E-02  1.33254E-01 -7.19115E-02
    8987.683    -10.727  -0.480  6.55623E-02  1.46587E-01 -8.10250E-02
    8987.823    -10.586  -0.440  7.00721E-02  1.61021E-01 -9.09491E-02
    8987.951    -10.458  -0.400  7.47733E-02  1.76306E-01 -1.01533E-01
    8988.067    -10.342  -0.360  7.95195E-02  1.92050E-01 -1.12531E-01
    8988.171    -10.239  -0.320  8.41328E-02  2.07746E-01 -1.23613E-01
    8988.262    -10.147  -0.280  8.84334E-02  2.22827E-01 -1.34393E-01
    8988.341    -10.068  -0.240  9.22712E-02  2.36749E-01 -1.44478E-01
    8988.408    -10.001  -0.200  9.55463E-02  2.49057E-01 -1.53511E-01
    8988.463     -9.946  -0.160  9.82117E-02  2.59415E-01 -1.61203E-01
    8988.506     -9.904  -0.120  1.00261E-01  2.67605E-01 -1.67345E-01
    8988.536     -9.873  -0.080  1.01707E-01  2.73508E-01 -1.71801E-01
    8988.561     -9.849   0.000  1.02854E-01  2.78252E-01 -1.75398E-01
    8988.616     -9.794   0.120  1.05300E-01  2.88959E-01 -1.83658E-01
    8988.658     -9.751   0.160  1.07113E-01  2.97277E-01 -1.90163E-01
    8988.713     -9.696   0.200  1.09358E-01  3.07924E-01 -1.98566E-01
    8988.780     -9.629   0.240  1.11884E-01  3.20723E-01 -2.08839E-01
    8988.860     -9.550   0.280  1.14623E-01  3.35471E-01 -2.20849E-01
    8988.951     -9.459   0.320  1.17393E-01  3.51769E-01 -2.34376E-01
    8989.055     -9.355   0.360  1.20078E-01  3.69189E-01 -2.49110E-01
    8989.170     -9.239   0.400  1.22586E-01  3.87252E-01 -2.64666E-01
    8989.298     -9.111   0.440  1.24821E-01  4.05484E-01 -2.80663E-01
    8989.439     -8.971   0.480  1.26890E-01  4.23569E-01 -2.96678E-01
    8989.591     -8.818   0.520  1.28953E-01  4.41291E-01 -3.12338E-01
    8989.756     -8.654   0.560  1.31284E-01  4.58512E-01 -3.27228E-01
    8989.932     -8.477   0.600  1.34242E-01  4.75245E-01 -3.41002E-01
    8990.121     -8.288   0.640  1.38103E-01  4.91520E-01 -3.53417E-01
    8990.323     -8.087   0.680  1.42972E-01  5.07416E-01 -3.64444E-01
    8990.536     -7.874   0.720  1.48691E-01  5.22984E-01 -3.74293E-01
    8990.761     -7.648   0.760  1.55168E-01  5.38335E-01 -3.83167E-01
    8990.999     -7.410   0.800  1.62223E-01  5.53510E-01 -3.91287E-01
    8991.249     -7.160   0.840  1.69576E-01  5.68560E-01 -3.98984E-01
    8991.511     -6.898   0.880  1.76849E-01  5.83563E-01 -4.06715E-01
    8991.786     -6.624   0.920  1.84012E-01  5.98505E-01 -4.14494E-01
    8992.072     -6.337   0.960  1.92487E-01  6.13445E-01 -4.20958E-01
    8992.371     -6.039   1.000  2.04456E-01  6.28368E-01 -4.23912E-01
    8992.682     -5.728   1.040  2.21435E-01  6.43272E-01 -4.21837E-01
    8993.005     -5.405   1.080  2.43661E-01  6.58153E-01 -4.14492E-01
    8993.340     -5.069   1.120  2.70988E-01  6.73014E-01 -4.02026E-01
    8993.688     -4.722   1.160  3.03610E-01  6.87798E-01 -3.84187E-01
    8994.047     -4.362   1.200  3.43486E-01  7.02523E-01 -3.59037E-01
    8994.419     -3.990   1.240  3.94975E-01  7.17126E-01 -3.22151E-01
    8994.803     -3.606   1.280  4.60407E-01  7.31618E-01 -2.71211E-01
    8995.199     -3.210   1.320  5.35200E-01  7.45929E-01 -2.10729E-01
    8995.608     -2.802   1.360  6.12754E-01  7.60071E-01 -1.47317E-01
    8996.028     -2.381   1.400  6.91709E-01  7.73971E-01 -8.22615E-02
    8996.461     -1.948   1.440  7.72532E-01  7.87617E-01 -1.50848E-02
    8996.906     -1.503   1.480  8.45399E-01  8.00999E-01  4.44005E-02
    8997.363     -1.046   1.520  8.86204E-01  8.14064E-01  7.21402E-02
    8997.833     -0.577   1.560  8.82076E-01  8.26781E-01  5.52951E-02
    8998.314     -0.095   1.600  8.54676E-01  8.39138E-01  1.55380E-02
    8998.808      0.399   1.640  8.37809E-01  8.51106E-01 -1.32968E-02
    8999.314      0.905   1.680  8.45382E-01  8.62675E-01 -1.72933E-02
    8999.832      1.423   1.720  8.79908E-01  8.73817E-01  6.09020E-03
    9000.363      1.953   1.760  9.49920E-01  8.84504E-01  6.54156E-02
    9000.905      2.496   1.800  1.06786E+00  8.94731E-01  1.73127E-01
    9001.460      3.050   1.840  1.23833E+00  9.04494E-01  3.33839E-01
    9002.027      3.617   1.880  1.45521E+00  9.13767E-01  5.41447E-01
    9002.606      4.196   1.920  1.67887E+00  9.22570E-01  7.56296E-01
    9003.197      4.788   1.960  1.80218E+00  9.30883E-01  8.71300E-01
    9003.801      5.391   2.000  1.77580E+00  9.38724E-01  8.37074E-01
    9004.416      6.007   2.040  1.68310E+00  9.46054E-01  7.37049E-01
    9005.044      6.635   2.080  1.59688E+00  9.52918E-01  6.43959E-01
    9005.684      7.275   2.120  1.51800E+00  9.59317E-01  5.58681E-01
    9006.337      7.927   2.160  1.42393E+00  9.65235E-01  4.58695E-01
    9007.001      8.592   2.200  1.30844E+00  9.70679E-01  3.37764E-01
    9007.678      9.268   2.240  1.18400E+00  9.75694E-01  2.08309E-01
    9008.367      9.957   2.280  1.06434E+00  9.80287E-01  8.40525E-02
    9009.068     10.658   2.320  9.70085E-01  9.84445E-01 -1.43607E-02
    9009.781     11.371   2.360  9.13550E-01  9.88196E-01 -7.46460E-02
    9010.506     12.097   2.400  8.88851E-01  9.91569E-01 -1.02718E-01
    9011.244     12.834   2.440  8.79157E-01  9.94570E-01 -1.15413E-01
    9011.994     13.584   2.480  8.64810E-01  9.97211E-01 -1.32401E-01
    9012.756     14.346   2.520  8.43331E-01  9.99519E-01 -1.56187E-01
    9013.530     15.120   2.560  8.30292E-01  1.00150E+00 -1.71210E-01
    9014.316     15.907   2.600  8.41803E-01  1.00317E+00 -1.61367E-01
    9015.115     16.705   2.640  8.87523E-01  1.00458E+00 -1.17053E-01
    9015.926     17.516   2.680  9.32009E-01  1.00570E+00 -7.36955E-02
    9016.749     18.339   2.720  9.47690E-01  1.00661E+00 -5.89189E-02
    9017.584     19.174   2.760  9.38410E-01  1.00726E+00 -6.88455E-02
    9018.431     20.022   2.800  9.20364E-01  1.00771E+00 -8.73488E-02
    9019.291     20.881   2.840  9.04287E-01  1.00797E+00 -1.03684E-01
    9020.162     21.753   2.880  8.92707E-01  1.00804E+00 -1.15332E-01
    9021.046     22.637   2.920  8.84249E-01  1.00796E+00 -1.23714E-01
    9021.942     23.533   2.960  8.77180E-01  1.00773E+00 -1.30552E-01
    9022.851     24.441   3.000  8.69808E-01  1.00737E+00 -1.37566E-01
    9023.771     25.362   3.040  8.61156E-01  1.00690E+00 -1.45740E-01
    9024.704     26.294   3.080  8.51347E-01  1.00630E+00 -1.54956E-01
    9025.649     27.239   3.120  8.41424E-01  1.00565E+00 -1.64222E-01
    9026.606     28.196   3.160  8.32931E-01  1.00491E+00 -1.71979E-01
    9027.575     29.166   3.200  8.27520E-01  1.00410E+00 -1.76578E-01
    9028.557     30.147   3.240  8.26350E-01  1.00322E+00 -1.76867E-01
    9029.550     31.141   3.280  8.29775E-01  1.00231E+00 -1.72540E-01
    9030.556     32.146   3.320  8.37820E-01  1.00138E+00 -1.63556E-01
    9031.574     33.164   3.360  8.50292E-01  1.00043E+00 -1.50134E-01
    9032.604     34.195   3.400  8.66445E-01  9.99446E-01 -1.33001E-01
    9033.647     35.237   3.440  8.85287E-01  9.98462E-01 -1.13175E-01
    9034.701     36.292   3.480  9.06162E-01  9.97501E-01 -9.13388E-02
    9035.768     37.359   3.520  9.28627E-01  9.96521E-01 -6.78937E-02
    9036.847     38.438   3.560  9.52775E-01  9.95568E-01 -4.27932E-02
    9037.938     39.529   3.600  9.79006E-01  9.94646E-01 -1.56401E-02
    9039.042     40.632   3.640  1.00731E+00  9.93736E-01  1.35722E-02
    9040.157     41.748   3.680  1.03669E+00  9.92860E-01  4.38317E-02
    9041.285     42.875   3.720  1.06537E+00  9.92021E-01  7.33470E-02
    9042.425     44.015   3.760  1.09146E+00  9.91222E-01  1.00241E-01
    9043.577     45.167   3.800  1.11364E+00  9.90464E-01  1.23173E-01
    9044.741     46.332   3.840  1.13155E+00  9.89748E-01  1.41806E-01
    9045.918     47.508   3.880  1.14587E+00  9.89096E-01  1.56777E-01
    9047.107     48.697   3.920  1.15732E+00  9.88468E-01  1.68853E-01
    9048.307     49.898   3.960  1.16622E+00  9.87928E-01  1.78289E-01
    9049.521     51.111   4.000  1.17234E+00  9.87413E-01  1.84927E-01
    9050.746     52.336   4.040  1.17505E+00  9.86964E-01  1.88088E-01
    9051.983     53.574   4.080  1.17304E+00  9.86563E-01  1.86473E-01
    9053.233     54.823   4.120  1.16454E+00  9.86230E-01  1.78312E-01
    9054.495     56.085   4.160  1.14799E+00  9.85943E-01  1.62050E-01
    9055.769     57.359   4.200  1.12305E+00  9.85702E-01  1.37344E-01
    9057.055     58.646   4.240  1.09153E+00  9.85529E-01  1.05999E-01
    9058.354     59.944   4.280  1.05703E+00  9.85404E-01  7.16290E-02
    9059.664     61.255   4.320  1.02366E+00  9.85345E-01  3.83107E-02
    9060.987     62.578   4.360  9.94458E-01  9.85308E-01  9.15004E-03
    9062.322     63.913   4.400  9.71113E-01  9.85337E-01 -1.42244E-02
    9063.669     65.260   4.440  9.53987E-01  9.85433E-01 -3.14463E-02
    9065.029     66.619   4.480  9.42592E-01  9.85551E-01 -4.29591E-02
    9066.400     67.991   4.520  9.36059E-01  9.85729E-01 -4.96699E-02
    9067.784     69.375   4.560  9.33045E-01  9.85926E-01 -5.28811E-02
    9069.180     70.771   4.600  9.32063E-01  9.86182E-01 -5.41191E-02
    9070.588     72.179   4.640  9.31686E-01  9.86455E-01 -5.47684E-02
    9072.009     73.599   4.680  9.30883E-01  9.86763E-01 -5.58803E-02
    9073.441     75.032   4.720  9.28961E-01  9.87106E-01 -5.81451E-02
    9074.886     76.476   4.760  9.25652E-01  9.87484E-01 -6.18320E-02
    9076.343     77.933   4.800  9.21193E-01  9.87870E-01 -6.66772E-02
    9077.812     79.402   4.840  9.16492E-01  9.88266E-01 -7.17735E-02
    9079.293     80.884   4.880  9.13102E-01  9.88712E-01 -7.56101E-02
    9080.787     82.377   4.920  9.12533E-01  9.89144E-01 -7.66108E-02
    9082.293     83.883   4.960  9.16020E-01  9.89601E-01 -7.35808E-02
    9083.810     85.401   5.000  9.23992E-01  9.90061E-01 -6.60692E-02
    9085.341     86.931   5.040  9.35954E-01  9.90522E-01 -5.45675E-02
    9086.883     88.473   5.080  9.50643E-01  9.90982E-01 -4.03387E-02
    9088.437     90.028   5.120  9.66308E-01  9.91440E-01 -2.51319E-02
    9090.004     91.594   5.160  9.81335E-01  9.91894E-01 -1.05596E-02
    9091.583     93.173   5.200  9.94733E-01  9.92323E-01  2.41000E-03
    9093.174     94.764   5.240  1.00624E+00  9.92767E-01  1.34706E-02
    9094.777     96.368   5.280  1.01578E+00  9.93182E-01  2.26015E-02
    9096.393     97.983   5.320  1.02320E+00  9.93565E-01  2.96341E-02
    9098.020     99.611   5.360  1.02808E+00  9.93937E-01  3.41438E-02
    9099.660    101.250   5.400  1.02973E+00  9.94277E-01  3.54561E-02
    9101.312    102.902   5.440  1.02732E+00  9.94605E-01  3.27165E-02
    9102.976    104.567   5.480  1.02004E+00  9.94900E-01  2.51420E-02
    9104.653    106.243   5.520  1.00757E+00  9.95181E-01  1.23902E-02
    9106.341    107.932   5.560  9.90256E-01  9.95401E-01 -5.14530E-03
    9108.042    109.632   5.600  9.69451E-01  9.95604E-01 -2.61529E-02
    9109.755    111.345   5.640  9.47398E-01  9.95746E-01 -4.83486E-02
    9111.480    113.071   5.680  9.27087E-01  9.95873E-01 -6.87853E-02
    9113.217    114.808   5.720  9.11291E-01  9.95961E-01 -8.46704E-02
    9114.967    116.557   5.760  9.01940E-01  9.96011E-01 -9.40710E-02
    9116.729    118.319   5.800  8.99940E-01  9.96020E-01 -9.60805E-02
    9118.503    120.093   5.840  9.05524E-01  9.95989E-01 -9.04649E-02
    9120.289    121.879   5.880  9.18469E-01  9.95919E-01 -7.74498E-02
    9122.087    123.678   5.920  9.37975E-01  9.95808E-01 -5.78335E-02
    9123.898    125.488   5.960  9.62448E-01  9.95628E-01 -3.31809E-02
    9125.720    127.311   6.000  9.90543E-01  9.95409E-01 -4.86633E-03
