# # comment:                                                     FEFF 9.9.1  
# # Source:
# # Structure
# # Reduced
# # space
# # abc:
# # angles:
# # sites:
# # POT  SCF 100  7.0000   0, screened core-hole, AFOLP (folp(0)= 1.150)
# # Abs   Z=29 Rmt= 1.212 Rnm= 1.325 K  shell
# # Pot 1 Z=56 Rmt= 2.016 Rnm= 2.056
# # Pot 2 Z=29 Rmt= 1.216 Rnm= 1.333
# # Pot 3 Z=44 Rmt= 1.317 Rnm= 1.405
# # Pot 4 Z= 8 Rmt= 1.027 Rnm= 1.087
# # Gam_ch=1.729E+00 H-L exch Vi= 0.000E+00 Vr= 0.000E+00
# # Mu=-7.820E+00eV kf=2.249E+00 Vint=-1.702E+01eV Rs_int= 1.613
# FMS rfms= 9.0000
# # PATH  Rmax=-1.000,  Keep_limit= 0.00, Heap_limit 0.00  Pwcrit= 2.50%
#  S02=0.950  Temp=   0.00  Debye_temp=   0.00  Global_sig2= 0.00000
#  Energy zero shift, vr, vi    0.00000E+00   0.00000E+00
#  Curved wave amplitude ratio filter   4.000%
#     file         sig2 tot  cw amp ratio   deg  nlegs   reff  inp sig2
#     0/   0 paths used
#  xsedge+ 50, used to normalize mu           2.4715E-04
#  -----------------------------------------------------------------------
#  omega    e    k    mu    mu0     chi     @#
    8984.155    -11.630  -1.000  3.57019E-02  5.14298E-02 -1.57279E-02
    8984.454    -11.331  -0.960  3.74654E-02  5.51257E-02 -1.76604E-02
    8984.740    -11.044  -0.920  3.93480E-02  5.92308E-02 -1.98828E-02
    8985.014    -10.770  -0.880  4.13601E-02  6.38052E-02 -2.24451E-02
    8985.277    -10.508  -0.840  4.35130E-02  6.89190E-02 -2.54060E-02
    8985.527    -10.258  -0.800  4.58188E-02  7.46534E-02 -2.88346E-02
    8985.764    -10.020  -0.760  4.82903E-02  8.11014E-02 -3.28111E-02
    8985.990     -9.795  -0.720  5.09409E-02  8.83686E-02 -3.74276E-02
    8986.203     -9.581  -0.680  5.37838E-02  9.65706E-02 -4.27868E-02
    8986.404     -9.380  -0.640  5.68309E-02  1.05830E-01 -4.89991E-02
    8986.593     -9.191  -0.600  6.00918E-02  1.16267E-01 -5.61752E-02
    8986.770     -9.014  -0.560  6.35707E-02  1.27984E-01 -6.44133E-02
    8986.935     -8.850  -0.520  6.72637E-02  1.41042E-01 -7.37784E-02
    8987.087     -8.697  -0.480  7.11535E-02  1.55428E-01 -8.42741E-02
    8987.227     -8.557  -0.440  7.52048E-02  1.71014E-01 -9.58092E-02
    8987.355     -8.429  -0.400  7.93608E-02  1.87530E-01 -1.08170E-01
    8987.471     -8.313  -0.360  8.35414E-02  2.04550E-01 -1.21009E-01
    8987.575     -8.210  -0.320  8.76485E-02  2.21520E-01 -1.33871E-01
    8987.666     -8.118  -0.280  9.15738E-02  2.37825E-01 -1.46251E-01
    8987.745     -8.039  -0.240  9.52101E-02  2.52874E-01 -1.57664E-01
    8987.813     -7.972  -0.200  9.84600E-02  2.66172E-01 -1.67712E-01
    8987.867     -7.917  -0.160  1.01240E-01  2.77357E-01 -1.76117E-01
    8987.910     -7.874  -0.120  1.03481E-01  2.86198E-01 -1.82717E-01
    8987.941     -7.844  -0.080  1.05129E-01  2.92566E-01 -1.87437E-01
    8987.965     -7.820   0.000  1.06501E-01  2.97681E-01 -1.91180E-01
    8988.020     -7.765   0.120  1.09780E-01  3.09234E-01 -1.99454E-01
    8988.062     -7.722   0.160  1.12281E-01  3.18190E-01 -2.05910E-01
    8988.117     -7.667   0.200  1.15571E-01  3.29640E-01 -2.14069E-01
    8988.184     -7.600   0.240  1.19680E-01  3.43408E-01 -2.23728E-01
    8988.264     -7.521   0.280  1.24690E-01  3.59218E-01 -2.34528E-01
    8988.355     -7.429   0.320  1.30755E-01  3.76666E-01 -2.45911E-01
    8988.459     -7.326   0.360  1.38056E-01  3.95251E-01 -2.57194E-01
    8988.575     -7.210   0.400  1.46874E-01  4.14421E-01 -2.67547E-01
    8988.703     -7.082   0.440  1.57598E-01  4.33671E-01 -2.76073E-01
    8988.843     -6.942   0.480  1.70802E-01  4.52665E-01 -2.81862E-01
    8988.995     -6.789   0.520  1.87063E-01  4.71124E-01 -2.84061E-01
    8989.160     -6.625   0.560  2.06880E-01  4.88941E-01 -2.82061E-01
    8989.337     -6.448   0.600  2.30188E-01  5.06083E-01 -2.75895E-01
    8989.525     -6.259   0.640  2.55830E-01  5.22587E-01 -2.66757E-01
    8989.727     -6.058   0.680  2.81357E-01  5.38561E-01 -2.57204E-01
    8989.940     -5.844   0.720  3.03947E-01  5.54088E-01 -2.50140E-01
    8990.166     -5.619   0.760  3.21908E-01  5.69229E-01 -2.47321E-01
    8990.403     -5.381   0.800  3.34870E-01  5.84096E-01 -2.49227E-01
    8990.653     -5.131   0.840  3.42551E-01  5.98729E-01 -2.56178E-01
    8990.915     -4.869   0.880  3.45171E-01  6.13196E-01 -2.68025E-01
    8991.190     -4.595   0.920  3.44508E-01  6.27512E-01 -2.83004E-01
    8991.476     -4.308   0.960  3.44020E-01  6.41719E-01 -2.97699E-01
    8991.775     -4.010   1.000  3.47511E-01  6.55830E-01 -3.08318E-01
    8992.086     -3.699   1.040  3.57228E-01  6.69872E-01 -3.12643E-01
    8992.409     -3.376   1.080  3.71809E-01  6.83802E-01 -3.11993E-01
    8992.744     -3.040   1.120  3.88628E-01  6.97652E-01 -3.09024E-01
    8993.092     -2.693   1.160  4.08880E-01  7.11388E-01 -3.02508E-01
    8993.451     -2.333   1.200  4.36074E-01  7.25013E-01 -2.88939E-01
    8993.823     -1.961   1.240  4.71720E-01  7.38466E-01 -2.66746E-01
    8994.207     -1.577   1.280  5.15512E-01  7.51764E-01 -2.36251E-01
    8994.603     -1.181   1.320  5.64676E-01  7.64882E-01 -2.00206E-01
    8995.012     -0.773   1.360  6.13750E-01  7.77775E-01 -1.64025E-01
    8995.432     -0.352   1.400  6.66931E-01  7.90455E-01 -1.23524E-01
    8995.865      0.081   1.440  7.35311E-01  8.02852E-01 -6.75412E-02
    8996.310      0.526   1.480  8.18385E-01  8.14959E-01  3.42647E-03
    8996.768      0.983   1.520  9.06427E-01  8.26768E-01  7.96586E-02
    8997.237      1.452   1.560  9.57703E-01  8.38251E-01  1.19452E-01
    8997.718      1.934   1.600  9.44196E-01  8.49399E-01  9.47963E-02
    8998.212      2.428   1.640  9.21469E-01  8.60147E-01  6.13227E-02
    8998.718      2.934   1.680  9.54106E-01  8.70547E-01  8.35595E-02
    8999.236      3.452   1.720  1.05925E+00  8.80534E-01  1.78714E-01
    8999.767      3.982   1.760  1.22799E+00  8.90103E-01  3.37884E-01
    9000.309      4.525   1.800  1.41062E+00  8.99270E-01  5.11346E-01
    9000.864      5.080   1.840  1.52184E+00  9.08013E-01  6.13823E-01
    9001.431      5.646   1.880  1.51537E+00  9.16310E-01  5.99056E-01
    9002.010      6.226   1.920  1.40310E+00  9.24180E-01  4.78920E-01
    9002.601      6.817   1.960  1.24053E+00  9.31624E-01  3.08908E-01
    9003.205      7.420   2.000  1.10123E+00  9.38623E-01  1.62608E-01
    9003.821      8.036   2.040  1.01951E+00  9.45199E-01  7.43111E-02
    9004.448      8.664   2.080  9.82900E-01  9.51355E-01  3.15445E-02
    9005.089      9.304   2.120  9.63686E-01  9.57096E-01  6.59060E-03
    9005.741      9.956   2.160  9.45529E-01  9.62424E-01 -1.68942E-02
    9006.405     10.621   2.200  9.27948E-01  9.67344E-01 -3.93956E-02
    9007.082     11.297   2.240  9.13328E-01  9.71863E-01 -5.85345E-02
    9007.771     11.986   2.280  9.04964E-01  9.76027E-01 -7.10627E-02
    9008.472     12.687   2.320  9.01511E-01  9.79803E-01 -7.82924E-02
    9009.185     13.401   2.360  8.98191E-01  9.83238E-01 -8.50474E-02
    9009.910     14.126   2.400  9.03774E-01  9.86340E-01 -8.25662E-02
    9010.648     14.864   2.440  9.33129E-01  9.89117E-01 -5.59883E-02
    9011.398     15.613   2.480  9.89296E-01  9.91597E-01 -2.30032E-03
    9012.160     16.375   2.520  1.06179E+00  9.93786E-01  6.80041E-02
    9012.934     17.150   2.560  1.13828E+00  9.95673E-01  1.42603E-01
    9013.720     17.936   2.600  1.21252E+00  9.97327E-01  2.15188E-01
    9014.519     18.735   2.640  1.26313E+00  9.98714E-01  2.64421E-01
    9015.330     19.545   2.680  1.25377E+00  9.99905E-01  2.53862E-01
    9016.153     20.368   2.720  1.20377E+00  1.00084E+00  2.02930E-01
    9016.988     21.203   2.760  1.14624E+00  1.00160E+00  1.44637E-01
    9017.835     22.051   2.800  1.09591E+00  1.00219E+00  9.37234E-02
    9018.695     22.910   2.840  1.05122E+00  1.00261E+00  4.86107E-02
    9019.566     23.782   2.880  1.00833E+00  1.00284E+00  5.48181E-03
    9020.450     24.666   2.920  9.67083E-01  1.00297E+00 -3.58876E-02
    9021.346     25.562   2.960  9.30384E-01  1.00295E+00 -7.25659E-02
    9022.255     26.470   3.000  8.99688E-01  1.00283E+00 -1.03144E-01
    9023.175     27.391   3.040  8.74358E-01  1.00260E+00 -1.28242E-01
    9024.108     28.324   3.080  8.53692E-01  1.00228E+00 -1.48590E-01
    9025.053     29.268   3.120  8.38082E-01  1.00188E+00 -1.63800E-01
    9026.010     30.225   3.160  8.28175E-01  1.00143E+00 -1.73254E-01
    9026.979     31.195   3.200  8.24642E-01  1.00090E+00 -1.76261E-01
    9027.961     32.176   3.240  8.27635E-01  1.00033E+00 -1.72698E-01
    9028.954     33.170   3.280  8.36650E-01  9.99722E-01 -1.63072E-01
    9029.960     34.176   3.320  8.50864E-01  9.99096E-01 -1.48232E-01
    9030.978     35.194   3.360  8.69413E-01  9.98435E-01 -1.29022E-01
    9032.008     36.224   3.400  8.91995E-01  9.97746E-01 -1.05750E-01
    9033.051     37.266   3.440  9.18679E-01  9.97072E-01 -7.83933E-02
    9034.105     38.321   3.480  9.49405E-01  9.96376E-01 -4.69718E-02
    9035.172     39.388   3.520  9.82625E-01  9.95702E-01 -1.30771E-02
    9036.251     40.467   3.560  1.01461E+00  9.95032E-01  1.95764E-02
    9037.342     41.558   3.600  1.04054E+00  9.94367E-01  4.61752E-02
    9038.446     42.661   3.640  1.05660E+00  9.93732E-01  6.28683E-02
    9039.561     43.777   3.680  1.06177E+00  9.93108E-01  6.86591E-02
    9040.689     44.905   3.720  1.05804E+00  9.92537E-01  6.55029E-02
    9041.829     46.045   3.760  1.04872E+00  9.91980E-01  5.67396E-02
    9042.981     47.197   3.800  1.03685E+00  9.91438E-01  4.54086E-02
    9044.145     48.361   3.840  1.02474E+00  9.90953E-01  3.37884E-02
    9045.322     49.537   3.880  1.01392E+00  9.90506E-01  2.34125E-02
    9046.511     50.726   3.920  1.00470E+00  9.90078E-01  1.46171E-02
    9047.712     51.927   3.960  9.96231E-01  9.89711E-01  6.52017E-03
    9048.925     53.140   4.000  9.87083E-01  9.89383E-01 -2.30052E-03
    9050.150     54.366   4.040  9.76127E-01  9.89096E-01 -1.29684E-02
    9051.387     55.603   4.080  9.63035E-01  9.88826E-01 -2.57915E-02
    9052.637     56.853   4.120  9.48700E-01  9.88619E-01 -3.99182E-02
    9053.899     58.115   4.160  9.34909E-01  9.88454E-01 -5.35446E-02
    9055.173     59.389   4.200  9.23795E-01  9.88330E-01 -6.45358E-02
    9056.459     60.675   4.240  9.17259E-01  9.88268E-01 -7.10096E-02
    9057.758     61.973   4.280  9.16643E-01  9.88224E-01 -7.15817E-02
    9059.068     63.284   4.320  9.22809E-01  9.88218E-01 -6.54096E-02
    9060.391     64.607   4.360  9.36236E-01  9.88251E-01 -5.20149E-02
    9061.726     65.942   4.400  9.56757E-01  9.88321E-01 -3.15647E-02
    9063.073     67.289   4.440  9.83187E-01  9.88430E-01 -5.24323E-03
    9064.433     68.648   4.480  1.01317E+00  9.88574E-01  2.45942E-02
    9065.804     70.020   4.520  1.04354E+00  9.88733E-01  5.48061E-02
    9067.188     71.404   4.560  1.07142E+00  9.88948E-01  8.24671E-02
    9068.584     72.800   4.600  1.09451E+00  9.89174E-01  1.05333E-01
    9069.992     74.208   4.640  1.11108E+00  9.89410E-01  1.21675E-01
    9071.413     75.628   4.680  1.11997E+00  9.89677E-01  1.30297E-01
    9072.845     77.061   4.720  1.12057E+00  9.89977E-01  1.30592E-01
    9074.290     78.506   4.760  1.11295E+00  9.90285E-01  1.22669E-01
    9075.747     79.963   4.800  1.09815E+00  9.90622E-01  1.07530E-01
    9077.216     81.432   4.840  1.07786E+00  9.90963E-01  8.68948E-02
    9078.697     82.913   4.880  1.05437E+00  9.91306E-01  6.30618E-02
    9080.191     84.406   4.920  1.03023E+00  9.91651E-01  3.85821E-02
    9081.697     85.912   4.960  1.00774E+00  9.91997E-01  1.57423E-02
    9083.215     87.430   5.000  9.88627E-01  9.92367E-01 -3.73998E-03
    9084.745     88.960   5.040  9.73912E-01  9.92716E-01 -1.88035E-02
    9086.287     90.502   5.080  9.64044E-01  9.93083E-01 -2.90396E-02
    9087.841     92.057   5.120  9.58743E-01  9.93425E-01 -3.46821E-02
    9089.408     93.624   5.160  9.57253E-01  9.93763E-01 -3.65100E-02
    9090.987     95.202   5.200  9.58530E-01  9.94094E-01 -3.55641E-02
    9092.578     96.793   5.240  9.61391E-01  9.94396E-01 -3.30052E-02
    9094.181     98.397   5.280  9.64687E-01  9.94691E-01 -3.00038E-02
    9095.797    100.012   5.320  9.67544E-01  9.94979E-01 -2.74344E-02
    9097.424    101.640   5.360  9.69333E-01  9.95236E-01 -2.59031E-02
    9099.064    103.280   5.400  9.70159E-01  9.95483E-01 -2.53247E-02
    9100.716    104.932   5.440  9.70606E-01  9.95696E-01 -2.50896E-02
    9102.380    106.596   5.480  9.71381E-01  9.95873E-01 -2.44919E-02
    9104.057    108.272   5.520  9.73046E-01  9.96039E-01 -2.29936E-02
    9105.745    109.961   5.560  9.75768E-01  9.96172E-01 -2.04046E-02
    9107.446    111.662   5.600  9.79293E-01  9.96291E-01 -1.69978E-02
    9109.159    113.375   5.640  9.83004E-01  9.96350E-01 -1.33457E-02
    9110.884    115.100   5.680  9.85994E-01  9.96395E-01 -1.04006E-02
    9112.621    116.837   5.720  9.87259E-01  9.96403E-01 -9.14473E-03
    9114.371    118.587   5.760  9.86280E-01  9.96377E-01 -1.00972E-02
    9116.133    120.348   5.800  9.83297E-01  9.96339E-01 -1.30416E-02
    9117.907    122.122   5.840  9.79104E-01  9.96265E-01 -1.71605E-02
    9119.693    123.908   5.880  9.74688E-01  9.96155E-01 -2.14669E-02
    9121.491    125.707   5.920  9.70742E-01  9.96007E-01 -2.52657E-02
    9123.302    127.517   5.960  9.67496E-01  9.95822E-01 -2.83253E-02
    9125.124    129.340   6.000  9.64735E-01  9.95578E-01 -3.08437E-02
