# # comment:                                                     FEFF 9.9.1  
# # Source:
# # Structure
# # Reduced
# # space
# # abc:
# # angles:
# # sites:
# # POT  SCF 100  7.0000   0, screened core-hole, AFOLP (folp(0)= 1.150)
# # Abs   Z=29 Rmt= 1.114 Rnm= 1.280 K  shell
# # Pot 1 Z=29 Rmt= 1.114 Rnm= 1.280
# # Pot 2 Z= 6 Rmt= 0.727 Rnm= 0.976
# # Pot 3 Z= 8 Rmt= 0.958 Rnm= 1.177
# # Gam_ch=1.729E+00 H-L exch Vi= 0.000E+00 Vr= 0.000E+00
# # Mu=-8.954E+00eV kf=2.336E+00 Vint=-1.576E+01eV Rs_int= 1.552
# FMS rfms= 9.0000
# # PATH  Rmax=-1.000,  Keep_limit= 0.00, Heap_limit 0.00  Pwcrit= 2.50%
#  S02=0.950  Temp=   0.00  Debye_temp=   0.00  Global_sig2= 0.00000
#  Energy zero shift, vr, vi    0.00000E+00   0.00000E+00
#  Curved wave amplitude ratio filter   4.000%
#     file         sig2 tot  cw amp ratio   deg  nlegs   reff  inp sig2
#     0/   0 paths used
#  xsedge+ 50, used to normalize mu           2.4750E-04
#  -----------------------------------------------------------------------
#  omega    e    k    mu    mu0     chi     @#
    8983.281    -12.764  -1.000  3.05545E-02  4.86791E-02 -1.81246E-02
    8983.580    -12.465  -0.960  3.19476E-02  5.20036E-02 -2.00559E-02
    8983.867    -12.179  -0.920  3.34411E-02  5.56781E-02 -2.22370E-02
    8984.141    -11.905  -0.880  3.50476E-02  5.97523E-02 -2.47047E-02
    8984.403    -11.642  -0.840  3.67819E-02  6.42839E-02 -2.75020E-02
    8984.653    -11.392  -0.800  3.86617E-02  6.93395E-02 -3.06778E-02
    8984.891    -11.155  -0.760  4.07074E-02  7.49952E-02 -3.42879E-02
    8985.116    -10.929  -0.720  4.29424E-02  8.13369E-02 -3.83946E-02
    8985.330    -10.716  -0.680  4.53929E-02  8.84587E-02 -4.30658E-02
    8985.531    -10.515  -0.640  4.80869E-02  9.64595E-02 -4.83726E-02
    8985.720    -10.326  -0.600  5.10519E-02  1.05436E-01 -5.43842E-02
    8985.897    -10.149  -0.560  5.43108E-02  1.15470E-01 -6.11592E-02
    8986.061     -9.984  -0.520  5.78757E-02  1.26609E-01 -6.87331E-02
    8986.214     -9.832  -0.480  6.17384E-02  1.38838E-01 -7.70995E-02
    8986.354     -9.692  -0.440  6.58608E-02  1.52051E-01 -8.61905E-02
    8986.482     -9.564  -0.400  7.01661E-02  1.66024E-01 -9.58579E-02
    8986.598     -9.448  -0.360  7.45374E-02  1.80404E-01 -1.05866E-01
    8986.701     -9.344  -0.320  7.88277E-02  1.94734E-01 -1.15906E-01
    8986.793     -9.253  -0.280  8.28805E-02  2.08506E-01 -1.25625E-01
    8986.872     -9.174  -0.240  8.65548E-02  2.21228E-01 -1.34673E-01
    8986.939     -9.106  -0.200  8.97439E-02  2.32485E-01 -1.42741E-01
    8986.994     -9.052  -0.160  9.23815E-02  2.41969E-01 -1.49587E-01
    8987.037     -9.009  -0.120  9.44348E-02  2.49478E-01 -1.55043E-01
    8987.067     -8.978  -0.080  9.58934E-02  2.54895E-01 -1.59002E-01
    8987.091     -8.954   0.000  9.70454E-02  2.59255E-01 -1.62210E-01
    8987.146     -8.899   0.120  9.98184E-02  2.69085E-01 -1.69266E-01
    8987.189     -8.857   0.160  1.01898E-01  2.76762E-01 -1.74864E-01
    8987.244     -8.802   0.200  1.04465E-01  2.86571E-01 -1.82106E-01
    8987.311     -8.735   0.240  1.07443E-01  2.98447E-01 -1.91003E-01
    8987.390     -8.655   0.280  1.10668E-01  3.12148E-01 -2.01480E-01
    8987.482     -8.564   0.320  1.13992E-01  3.27396E-01 -2.13405E-01
    8987.585     -8.460   0.360  1.17228E-01  3.43795E-01 -2.26567E-01
    8987.701     -8.344   0.400  1.20269E-01  3.60960E-01 -2.40691E-01
    8987.829     -8.216   0.440  1.23062E-01  3.78500E-01 -2.55439E-01
    8987.969     -8.076   0.480  1.25649E-01  3.96131E-01 -2.70482E-01
    8988.122     -7.924   0.520  1.28236E-01  4.13648E-01 -2.85412E-01
    8988.286     -7.759   0.560  1.31171E-01  4.30991E-01 -2.99820E-01
    8988.463     -7.582   0.600  1.34785E-01  4.48112E-01 -3.13327E-01
    8988.652     -7.393   0.640  1.39475E-01  4.65052E-01 -3.25577E-01
    8988.853     -7.192   0.680  1.45573E-01  4.81879E-01 -3.36307E-01
    8989.067     -6.979   0.720  1.53282E-01  4.98649E-01 -3.45366E-01
    8989.292     -6.753   0.760  1.62583E-01  5.15434E-01 -3.52850E-01
    8989.530     -6.516   0.800  1.73208E-01  5.32239E-01 -3.59031E-01
    8989.780     -6.266   0.840  1.85022E-01  5.49140E-01 -3.64117E-01
    8990.042     -6.004   0.880  1.98101E-01  5.66139E-01 -3.68038E-01
    8990.316     -5.729   0.920  2.12879E-01  5.83270E-01 -3.70392E-01
    8990.603     -5.443   0.960  2.29913E-01  6.00516E-01 -3.70603E-01
    8990.901     -5.144   1.000  2.49315E-01  6.17870E-01 -3.68555E-01
    8991.212     -4.833   1.040  2.70156E-01  6.35299E-01 -3.65143E-01
    8991.535     -4.510   1.080  2.91085E-01  6.52803E-01 -3.61718E-01
    8991.871     -4.175   1.120  3.11785E-01  6.70338E-01 -3.58553E-01
    8992.218     -3.827   1.160  3.34258E-01  6.87874E-01 -3.53616E-01
    8992.578     -3.468   1.200  3.61858E-01  7.05357E-01 -3.43499E-01
    8992.950     -3.096   1.240  3.97288E-01  7.22732E-01 -3.25445E-01
    8993.334     -2.712   1.280  4.41287E-01  7.39982E-01 -2.98694E-01
    8993.730     -2.316   1.320  4.91787E-01  7.57045E-01 -2.65258E-01
    8994.138     -1.907   1.360  5.43042E-01  7.73863E-01 -2.30821E-01
    8994.559     -1.486   1.400  5.89320E-01  7.90414E-01 -2.01095E-01
    8994.992     -1.054   1.440  6.30324E-01  8.06617E-01 -1.76294E-01
    8995.437     -0.609   1.480  6.68152E-01  8.22433E-01 -1.54281E-01
    8995.894     -0.151   1.520  6.99500E-01  8.37842E-01 -1.38342E-01
    8996.363      0.318   1.560  7.19865E-01  8.52805E-01 -1.32940E-01
    8996.845      0.799   1.600  7.34677E-01  8.67244E-01 -1.32567E-01
    8997.339      1.293   1.640  7.53612E-01  8.81166E-01 -1.27554E-01
    8997.845      1.799   1.680  7.76078E-01  8.94537E-01 -1.18460E-01
    8998.363      2.317   1.720  7.96046E-01  9.07324E-01 -1.11278E-01
    8998.893      2.848   1.760  8.15677E-01  9.19497E-01 -1.03819E-01
    8999.436      3.390   1.800  8.42157E-01  9.31047E-01 -8.88905E-02
    8999.991      3.945   1.840  8.76352E-01  9.41950E-01 -6.55982E-02
    9000.557      4.512   1.880  9.12444E-01  9.52220E-01 -3.97768E-02
    9001.137      5.091   1.920  9.45939E-01  9.61838E-01 -1.58984E-02
    9001.728      5.682   1.960  9.77903E-01  9.70802E-01  7.10076E-03
    9002.331      6.286   2.000  1.01523E+00  9.79114E-01  3.61150E-02
    9002.947      6.902   2.040  1.05924E+00  9.86798E-01  7.24438E-02
    9003.575      7.529   2.080  1.10320E+00  9.93838E-01  1.09363E-01
    9004.215      8.170   2.120  1.14367E+00  1.00026E+00  1.43406E-01
    9004.867      8.822   2.160  1.18224E+00  1.00607E+00  1.76164E-01
    9005.532      9.486   2.200  1.21496E+00  1.01128E+00  2.03675E-01
    9006.208     10.163   2.240  1.23294E+00  1.01594E+00  2.17000E-01
    9006.897     10.852   2.280  1.23392E+00  1.02004E+00  2.13871E-01
    9007.598     11.553   2.320  1.22445E+00  1.02361E+00  2.00835E-01
    9008.312     12.266   2.360  1.21410E+00  1.02667E+00  1.87429E-01
    9009.037     12.991   2.400  1.21041E+00  1.02925E+00  1.81155E-01
    9009.775     13.729   2.440  1.21513E+00  1.03139E+00  1.83741E-01
    9010.524     14.479   2.480  1.22779E+00  1.03309E+00  1.94696E-01
    9011.286     15.241   2.520  1.24549E+00  1.03440E+00  2.11089E-01
    9012.061     16.015   2.560  1.25834E+00  1.03532E+00  2.23022E-01
    9012.847     16.801   2.600  1.25615E+00  1.03588E+00  2.20264E-01
    9013.645     17.600   2.640  1.24106E+00  1.03614E+00  2.04921E-01
    9014.456     18.411   2.680  1.22000E+00  1.03608E+00  1.83928E-01
    9015.279     19.234   2.720  1.19833E+00  1.03573E+00  1.62603E-01
    9016.114     20.069   2.760  1.17483E+00  1.03514E+00  1.39688E-01
    9016.962     20.916   2.800  1.14969E+00  1.03431E+00  1.15382E-01
    9017.821     21.776   2.840  1.12207E+00  1.03329E+00  8.87820E-02
    9018.693     22.647   2.880  1.09425E+00  1.03205E+00  6.21972E-02
    9019.577     23.531   2.920  1.06813E+00  1.03068E+00  3.74567E-02
    9020.473     24.427   2.960  1.04444E+00  1.02914E+00  1.53028E-02
    9021.381     25.336   3.000  1.02333E+00  1.02748E+00 -4.14933E-03
    9022.302     26.256   3.040  1.00459E+00  1.02571E+00 -2.11162E-02
    9023.234     27.189   3.080  9.87749E-01  1.02386E+00 -3.61158E-02
    9024.179     28.134   3.120  9.72331E-01  1.02192E+00 -4.95900E-02
    9025.136     29.091   3.160  9.58340E-01  1.01993E+00 -6.15854E-02
    9026.106     30.060   3.200  9.45759E-01  1.01786E+00 -7.21058E-02
    9027.087     31.042   3.240  9.34762E-01  1.01579E+00 -8.10242E-02
    9028.081     32.035   3.280  9.25578E-01  1.01370E+00 -8.81215E-02
    9029.087     33.041   3.320  9.18233E-01  1.01159E+00 -9.33543E-02
    9030.105     34.059   3.360  9.12390E-01  1.00949E+00 -9.71045E-02
    9031.135     35.089   3.400  9.07723E-01  1.00741E+00 -9.96850E-02
    9032.177     36.132   3.440  9.04120E-01  1.00533E+00 -1.01212E-01
    9033.232     37.186   3.480  9.01646E-01  1.00329E+00 -1.01643E-01
    9034.299     38.253   3.520  9.00546E-01  1.00131E+00 -1.00759E-01
    9035.378     39.332   3.560  9.01002E-01  9.99345E-01 -9.83424E-02
    9036.469     40.423   3.600  9.03286E-01  9.97450E-01 -9.41634E-02
    9037.572     41.527   3.640  9.07234E-01  9.95603E-01 -8.83691E-02
    9038.688     42.642   3.680  9.12678E-01  9.93828E-01 -8.11500E-02
    9039.816     43.770   3.720  9.19309E-01  9.92107E-01 -7.27975E-02
    9040.955     44.910   3.760  9.26727E-01  9.90482E-01 -6.37558E-02
    9042.108     46.062   3.800  9.34365E-01  9.88918E-01 -5.45525E-02
    9043.272     47.226   3.840  9.41806E-01  9.87455E-01 -4.56489E-02
    9044.448     48.403   3.880  9.48688E-01  9.86072E-01 -3.73843E-02
    9045.637     49.592   3.920  9.54798E-01  9.84750E-01 -2.99525E-02
    9046.838     50.793   3.960  9.60131E-01  9.83533E-01 -2.34022E-02
    9048.051     52.006   4.000  9.64703E-01  9.82401E-01 -1.76988E-02
    9049.276     53.231   4.040  9.68535E-01  9.81376E-01 -1.28416E-02
    9050.514     54.468   4.080  9.71631E-01  9.80437E-01 -8.80638E-03
    9051.764     55.718   4.120  9.74129E-01  9.79582E-01 -5.45245E-03
    9053.025     56.980   4.160  9.76338E-01  9.78812E-01 -2.47433E-03
    9054.300     58.254   4.200  9.78730E-01  9.78150E-01  5.79932E-04
    9055.586     59.540   4.240  9.81762E-01  9.77571E-01  4.19106E-03
    9056.884     60.839   4.280  9.85733E-01  9.77076E-01  8.65702E-03
    9058.195     62.149   4.320  9.90634E-01  9.76666E-01  1.39673E-02
    9059.518     63.472   4.360  9.96241E-01  9.76362E-01  1.98794E-02
    9060.853     64.807   4.400  1.00212E+00  9.76141E-01  2.59835E-02
    9062.200     66.154   4.440  1.00779E+00  9.76000E-01  3.17907E-02
    9063.559     67.514   4.480  1.01276E+00  9.75918E-01  3.68448E-02
    9064.931     68.885   4.520  1.01673E+00  9.75937E-01  4.07963E-02
    9066.315     70.269   4.560  1.01947E+00  9.76035E-01  4.34383E-02
    9067.711     71.665   4.600  1.02096E+00  9.76211E-01  4.47456E-02
    9069.119     73.073   4.640  1.02136E+00  9.76438E-01  4.49219E-02
    9070.539     74.494   4.680  1.02102E+00  9.76739E-01  4.42849E-02
    9071.972     75.926   4.720  1.02027E+00  9.77092E-01  4.31775E-02
    9073.417     77.371   4.760  1.01942E+00  9.77538E-01  4.18871E-02
    9074.873     78.828   4.800  1.01854E+00  9.78009E-01  4.05312E-02
    9076.343     80.297   4.840  1.01758E+00  9.78546E-01  3.90358E-02
    9077.824     81.778   4.880  1.01633E+00  9.79126E-01  3.72062E-02
    9079.317     83.272   4.920  1.01455E+00  9.79748E-01  3.48016E-02
    9080.823     84.778   4.960  1.01211E+00  9.80408E-01  3.17015E-02
    9082.341     86.296   5.000  1.00907E+00  9.81105E-01  2.79616E-02
    9083.871     87.826   5.040  1.00562E+00  9.81815E-01  2.38049E-02
    9085.413     89.368   5.080  1.00214E+00  9.82558E-01  1.95814E-02
    9086.968     90.922   5.120  9.98989E-01  9.83336E-01  1.56530E-02
    9088.535     92.489   5.160  9.96444E-01  9.84142E-01  1.23015E-02
    9090.113     94.068   5.200  9.94540E-01  9.84932E-01  9.60816E-03
    9091.704     95.659   5.240  9.93172E-01  9.85746E-01  7.42597E-03
    9093.308     97.262   5.280  9.92017E-01  9.86560E-01  5.45775E-03
    9094.923     98.878   5.320  9.90740E-01  9.87351E-01  3.38945E-03
    9096.551    100.505   5.360  9.89189E-01  9.88162E-01  1.02665E-03
    9098.191    102.145   5.400  9.87292E-01  9.88970E-01 -1.67733E-03
    9099.843    103.797   5.440  9.85087E-01  9.89747E-01 -4.65977E-03
    9101.507    105.461   5.480  9.82684E-01  9.90491E-01 -7.80782E-03
    9103.183    107.138   5.520  9.80219E-01  9.91226E-01 -1.10073E-02
    9104.872    108.826   5.560  9.77778E-01  9.91949E-01 -1.41706E-02
    9106.573    110.527   5.600  9.75379E-01  9.92613E-01 -1.72340E-02
    9108.285    112.240   5.640  9.73125E-01  9.93262E-01 -2.01376E-02
    9110.011    113.965   5.680  9.71044E-01  9.93873E-01 -2.28289E-02
    9111.748    115.703   5.720  9.69189E-01  9.94443E-01 -2.52539E-02
    9113.498    117.452   5.760  9.67604E-01  9.94969E-01 -2.73644E-02
    9115.259    119.214   5.800  9.66323E-01  9.95428E-01 -2.91048E-02
    9117.033    120.988   5.840  9.65453E-01  9.95866E-01 -3.04129E-02
    9118.819    122.774   5.880  9.65011E-01  9.96234E-01 -3.12226E-02
    9120.618    124.572   5.920  9.65097E-01  9.96549E-01 -3.14516E-02
    9122.428    126.383   5.960  9.65776E-01  9.96779E-01 -3.10026E-02
    9124.251    128.205   6.000  9.67216E-01  9.96927E-01 -2.97111E-02
