# # comment:                                                     FEFF 9.9.1  
# # Source:
# # Structure
# # Reduced
# # space
# # abc:
# # angles:
# # sites:
# # POT  SCF 100  7.0000   0, screened core-hole, AFOLP (folp(0)= 1.150)
# # Abs   Z=29 Rmt= 1.358 Rnm= 1.419 K  shell
# # Pot 1 Z= 3 Rmt= 1.274 Rnm= 1.334
# # Pot 2 Z=29 Rmt= 1.360 Rnm= 1.424
# # Pot 3 Z=15 Rmt= 0.948 Rnm= 1.158
# # Pot 4 Z= 8 Rmt= 0.938 Rnm= 1.036
# # Gam_ch=1.729E+00 H-L exch Vi= 0.000E+00 Vr= 0.000E+00
# # Mu=-5.990E+00eV kf=2.373E+00 Vint=-1.687E+01eV Rs_int= 1.528
# FMS rfms= 9.0000
# # PATH  Rmax=-1.000,  Keep_limit= 0.00, Heap_limit 0.00  Pwcrit= 2.50%
#  S02=0.950  Temp=   0.00  Debye_temp=   0.00  Global_sig2= 0.00000
#  Energy zero shift, vr, vi    0.00000E+00   0.00000E+00
#  Curved wave amplitude ratio filter   4.000%
#     file         sig2 tot  cw amp ratio   deg  nlegs   reff  inp sig2
#     0/   0 paths used
#  xsedge+ 50, used to normalize mu           2.4674E-04
#  -----------------------------------------------------------------------
#  omega    e    k    mu    mu0     chi     @#
    8983.426     -9.800  -1.000  4.98647E-02  5.48591E-02 -4.99445E-03
    8983.724     -9.502  -0.960  5.30548E-02  5.88757E-02 -5.82091E-03
    8984.011     -9.215  -0.920  5.65494E-02  6.33433E-02 -6.79392E-03
    8984.285     -8.941  -0.880  6.03881E-02  6.83287E-02 -7.94060E-03
    8984.547     -8.679  -0.840  6.46169E-02  7.39100E-02 -9.29315E-03
    8984.797     -8.429  -0.800  6.92882E-02  8.01777E-02 -1.08895E-02
    8985.035     -8.191  -0.760  7.44616E-02  8.72356E-02 -1.27740E-02
    8985.261     -7.966  -0.720  8.02037E-02  9.52013E-02 -1.49976E-02
    8985.474     -7.752  -0.680  8.65869E-02  1.04204E-01 -1.76174E-02
    8985.675     -7.551  -0.640  9.36867E-02  1.14382E-01 -2.06949E-02
    8985.864     -7.362  -0.600  1.01576E-01  1.25868E-01 -2.42922E-02
    8986.041     -7.185  -0.560  1.10313E-01  1.38778E-01 -2.84647E-02
    8986.205     -7.021  -0.520  1.19932E-01  1.53181E-01 -3.32494E-02
    8986.358     -6.868  -0.480  1.30414E-01  1.69063E-01 -3.86494E-02
    8986.498     -6.728  -0.440  1.41669E-01  1.86284E-01 -4.46149E-02
    8986.626     -6.600  -0.400  1.53513E-01  2.04541E-01 -5.10279E-02
    8986.742     -6.484  -0.360  1.65665E-01  2.23362E-01 -5.76974E-02
    8986.846     -6.381  -0.320  1.77756E-01  2.42129E-01 -6.43738E-02
    8986.937     -6.289  -0.280  1.89377E-01  2.60160E-01 -7.07821E-02
    8987.016     -6.210  -0.240  2.00132E-01  2.76796E-01 -7.66649E-02
    8987.083     -6.143  -0.200  2.09675E-01  2.91492E-01 -8.18168E-02
    8987.138     -6.088  -0.160  2.17746E-01  3.03847E-01 -8.61010E-02
    8987.181     -6.045  -0.120  2.24163E-01  3.13609E-01 -8.94459E-02
    8987.211     -6.015  -0.080  2.28809E-01  3.20638E-01 -9.18290E-02
    8987.236     -5.990   0.000  2.32553E-01  3.26284E-01 -9.37302E-02
    8987.291     -5.936   0.120  2.40974E-01  3.38996E-01 -9.80224E-02
    8987.333     -5.893   0.160  2.47595E-01  3.48876E-01 -1.01280E-01
    8987.388     -5.838   0.200  2.56174E-01  3.61489E-01 -1.05315E-01
    8987.455     -5.771   0.240  2.66621E-01  3.76612E-01 -1.09991E-01
    8987.534     -5.692   0.280  2.78929E-01  3.93966E-01 -1.15037E-01
    8987.626     -5.600   0.320  2.92915E-01  4.13049E-01 -1.20134E-01
    8987.729     -5.497   0.360  3.08452E-01  4.33330E-01 -1.24877E-01
    8987.845     -5.381   0.400  3.25307E-01  4.54141E-01 -1.28834E-01
    8987.973     -5.253   0.440  3.43352E-01  4.74970E-01 -1.31618E-01
    8988.113     -5.113   0.480  3.62366E-01  4.95369E-01 -1.33003E-01
    8988.266     -4.960   0.520  3.82018E-01  5.15071E-01 -1.33053E-01
    8988.430     -4.796   0.560  4.01718E-01  5.33909E-01 -1.32190E-01
    8988.607     -4.619   0.600  4.20690E-01  5.51894E-01 -1.31205E-01
    8988.796     -4.430   0.640  4.38147E-01  5.69072E-01 -1.30925E-01
    8988.997     -4.229   0.680  4.53806E-01  5.85546E-01 -1.31740E-01
    8989.211     -4.015   0.720  4.68202E-01  6.01435E-01 -1.33233E-01
    8989.436     -3.790   0.760  4.82573E-01  6.16796E-01 -1.34223E-01
    8989.674     -3.552   0.800  4.98628E-01  6.31779E-01 -1.33151E-01
    8989.924     -3.302   0.840  5.18220E-01  6.46437E-01 -1.28217E-01
    8990.186     -3.040   0.880  5.42936E-01  6.60833E-01 -1.17897E-01
    8990.460     -2.766   0.920  5.72522E-01  6.75034E-01 -1.02512E-01
    8990.747     -2.479   0.960  6.03436E-01  6.89094E-01 -8.56573E-02
    8991.046     -2.180   1.000  6.30212E-01  7.02993E-01 -7.27801E-02
    8991.357     -1.870   1.040  6.50563E-01  7.16785E-01 -6.62220E-02
    8991.680     -1.546   1.080  6.69181E-01  7.30477E-01 -6.12964E-02
    8992.015     -1.211   1.120  6.94650E-01  7.44046E-01 -4.93963E-02
    8992.362     -0.864   1.160  7.32174E-01  7.57502E-01 -2.53274E-02
    8992.722     -0.504   1.200  7.79516E-01  7.70813E-01  8.70303E-03
    8993.094     -0.132   1.240  8.28908E-01  7.84003E-01  4.49050E-02
    8993.478      0.252   1.280  8.72999E-01  7.97031E-01  7.59683E-02
    8993.874      0.648   1.320  9.10322E-01  8.09875E-01  1.00447E-01
    8994.283      1.056   1.360  9.43873E-01  8.22510E-01  1.21364E-01
    8994.703      1.477   1.400  9.76898E-01  8.34909E-01  1.41989E-01
    8995.136      1.910   1.440  1.01364E+00  8.47085E-01  1.66554E-01
    8995.581      2.355   1.480  1.05964E+00  8.58971E-01  2.00669E-01
    8996.038      2.812   1.520  1.11634E+00  8.70537E-01  2.45805E-01
    8996.508      3.282   1.560  1.17795E+00  8.81816E-01  2.96129E-01
    8996.989      3.763   1.600  1.23526E+00  8.92719E-01  3.42544E-01
    8997.483      4.257   1.640  1.27991E+00  9.03277E-01  3.76631E-01
    8997.989      4.763   1.680  1.30582E+00  9.13443E-01  3.92377E-01
    8998.507      5.281   1.720  1.31021E+00  9.23208E-01  3.87001E-01
    8999.037      5.811   1.760  1.29133E+00  9.32547E-01  3.58782E-01
    8999.580      6.354   1.800  1.24511E+00  9.41456E-01  3.03651E-01
    9000.135      6.909   1.840  1.17433E+00  9.49928E-01  2.24404E-01
    9000.702      7.476   1.880  1.09697E+00  9.57939E-01  1.39036E-01
    9001.281      8.055   1.920  1.03903E+00  9.65489E-01  7.35387E-02
    9001.872      8.646   1.960  1.01502E+00  9.72595E-01  4.24282E-02
    9002.476      9.249   2.000  1.02200E+00  9.79218E-01  4.27828E-02
    9003.091      9.865   2.040  1.04413E+00  9.85355E-01  5.87760E-02
    9003.719     10.493   2.080  1.06356E+00  9.91051E-01  7.25048E-02
    9004.359     11.133   2.120  1.07287E+00  9.96288E-01  7.65815E-02
    9005.012     11.785   2.160  1.07310E+00  1.00105E+00  7.20505E-02
    9005.676     12.450   2.200  1.06489E+00  1.00538E+00  5.95090E-02
    9006.353     13.127   2.240  1.05115E+00  1.00928E+00  4.18669E-02
    9007.041     13.815   2.280  1.03877E+00  1.01275E+00  2.60221E-02
    9007.743     14.516   2.320  1.03086E+00  1.01580E+00  1.50560E-02
    9008.456     15.230   2.360  1.02534E+00  1.01845E+00  6.89443E-03
    9009.181     15.955   2.400  1.01895E+00  1.02074E+00 -1.78846E-03
    9009.919     16.693   2.440  1.01083E+00  1.02264E+00 -1.18069E-02
    9010.669     17.442   2.480  1.00213E+00  1.02420E+00 -2.20693E-02
    9011.431     18.204   2.520  9.92511E-01  1.02544E+00 -3.29258E-02
    9012.205     18.979   2.560  9.79970E-01  1.02637E+00 -4.63992E-02
    9012.991     19.765   2.600  9.64025E-01  1.02699E+00 -6.29647E-02
    9013.790     20.564   2.640  9.46072E-01  1.02735E+00 -8.12764E-02
    9014.600     21.374   2.680  9.28315E-01  1.02744E+00 -9.91207E-02
    9015.423     22.197   2.720  9.12007E-01  1.02730E+00 -1.15293E-01
    9016.259     23.032   2.760  8.96724E-01  1.02693E+00 -1.30209E-01
    9017.106     23.880   2.800  8.87744E-01  1.02639E+00 -1.38642E-01
    9017.965     24.739   2.840  8.86437E-01  1.02566E+00 -1.39227E-01
    9018.837     25.611   2.880  8.91208E-01  1.02476E+00 -1.33550E-01
    9019.721     26.495   2.920  8.99575E-01  1.02372E+00 -1.24142E-01
    9020.617     27.391   2.960  9.09279E-01  1.02255E+00 -1.13271E-01
    9021.526     28.299   3.000  9.19282E-01  1.02127E+00 -1.01984E-01
    9022.446     29.220   3.040  9.29120E-01  1.01989E+00 -9.07734E-02
    9023.379     30.153   3.080  9.38763E-01  1.01846E+00 -7.96971E-02
    9024.324     31.097   3.120  9.48466E-01  1.01693E+00 -6.84652E-02
    9025.281     32.055   3.160  9.58454E-01  1.01538E+00 -5.69224E-02
    9026.250     33.024   3.200  9.68451E-01  1.01376E+00 -4.53109E-02
    9027.231     34.005   3.240  9.78210E-01  1.01215E+00 -3.39442E-02
    9028.225     34.999   3.280  9.87213E-01  1.01050E+00 -2.32848E-02
    9029.231     36.005   3.320  9.94984E-01  1.00886E+00 -1.38761E-02
    9030.249     37.023   3.360  1.00124E+00  1.00725E+00 -6.00727E-03
    9031.279     38.053   3.400  1.00596E+00  1.00562E+00  3.38569E-04
    9032.321     39.095   3.440  1.00968E+00  1.00405E+00  5.63168E-03
    9033.376     40.150   3.480  1.01327E+00  1.00250E+00  1.07711E-02
    9034.443     41.217   3.520  1.01766E+00  1.00101E+00  1.66529E-02
    9035.522     42.296   3.560  1.02339E+00  9.99561E-01  2.38298E-02
    9036.613     43.387   3.600  1.03063E+00  9.98162E-01  3.24639E-02
    9037.716     44.490   3.640  1.03923E+00  9.96834E-01  4.23911E-02
    9038.832     45.606   3.680  1.04878E+00  9.95581E-01  5.32012E-02
    9039.960     46.734   3.720  1.05858E+00  9.94383E-01  6.42013E-02
    9041.100     47.874   3.760  1.06783E+00  9.93284E-01  7.45471E-02
    9042.252     49.026   3.800  1.07553E+00  9.92244E-01  8.32870E-02
    9043.416     50.190   3.840  1.08081E+00  9.91305E-01  8.95051E-02
    9044.593     51.367   3.880  1.08309E+00  9.90429E-01  9.26629E-02
    9045.781     52.555   3.920  1.08230E+00  9.89658E-01  9.26428E-02
    9046.982     53.756   3.960  1.07865E+00  9.88992E-01  8.96599E-02
    9048.195     54.969   4.000  1.07248E+00  9.88388E-01  8.40965E-02
    9049.421     56.195   4.040  1.06439E+00  9.87868E-01  7.65234E-02
    9050.658     57.432   4.080  1.05490E+00  9.87454E-01  6.74489E-02
    9051.908     58.682   4.120  1.04435E+00  9.87123E-01  5.72241E-02
    9053.170     59.944   4.160  1.03288E+00  9.86878E-01  4.60024E-02
    9054.444     61.218   4.200  1.02058E+00  9.86734E-01  3.38434E-02
    9055.730     62.504   4.240  1.00743E+00  9.86652E-01  2.07799E-02
    9057.028     63.802   4.280  9.93692E-01  9.86650E-01  7.04238E-03
    9058.339     65.113   4.320  9.79879E-01  9.86748E-01 -6.86913E-03
    9059.662     66.436   4.360  9.66638E-01  9.86904E-01 -2.02659E-02
    9060.997     67.771   4.400  9.54766E-01  9.87135E-01 -3.23691E-02
    9062.344     69.118   4.440  9.44978E-01  9.87441E-01 -4.24622E-02
    9063.704     70.477   4.480  9.37774E-01  9.87797E-01 -5.00229E-02
    9065.075     71.849   4.520  9.33520E-01  9.88224E-01 -5.47047E-02
    9066.459     73.233   4.560  9.32344E-01  9.88699E-01 -5.63549E-02
    9067.855     74.629   4.600  9.34147E-01  9.89240E-01 -5.50929E-02
    9069.263     76.037   4.640  9.38452E-01  9.89802E-01 -5.13506E-02
    9070.683     77.457   4.680  9.44710E-01  9.90427E-01 -4.57167E-02
    9072.116     78.890   4.720  9.52146E-01  9.91091E-01 -3.89451E-02
    9073.561     80.335   4.760  9.60060E-01  9.91768E-01 -3.17079E-02
    9075.018     81.792   4.800  9.67965E-01  9.92478E-01 -2.45131E-02
    9076.487     83.261   4.840  9.75501E-01  9.93219E-01 -1.77178E-02
    9077.968     84.742   4.880  9.82364E-01  9.93966E-01 -1.16025E-02
    9079.462     86.236   4.920  9.88273E-01  9.94716E-01 -6.44218E-03
    9080.967     87.741   4.960  9.92994E-01  9.95465E-01 -2.47025E-03
    9082.485     89.259   5.000  9.96485E-01  9.96212E-01  2.72532E-04
    9084.015     90.789   5.040  9.98804E-01  9.96955E-01  1.84833E-03
    9085.558     92.332   5.080  9.99965E-01  9.97671E-01  2.29385E-03
    9087.112     93.886   5.120  9.99968E-01  9.98400E-01  1.56781E-03
    9088.679     95.453   5.160  9.98766E-01  9.99074E-01 -3.07420E-04
    9090.258     97.032   5.200  9.96628E-01  9.99734E-01 -3.10536E-03
    9091.849     98.623   5.240  9.93903E-01  1.00035E+00 -6.45155E-03
    9093.452    100.226   5.280  9.90857E-01  1.00094E+00 -1.00803E-02
    9095.067    101.841   5.320  9.87542E-01  1.00148E+00 -1.39363E-02
    9096.695    103.469   5.360  9.83905E-01  1.00198E+00 -1.80712E-02
    9098.335    105.109   5.400  9.80040E-01  1.00243E+00 -2.23899E-02
    9099.987    106.761   5.440  9.76339E-01  1.00281E+00 -2.64742E-02
    9101.651    108.425   5.480  9.73555E-01  1.00315E+00 -2.95947E-02
    9103.327    110.101   5.520  9.72486E-01  1.00344E+00 -3.09541E-02
    9105.016    111.790   5.560  9.73664E-01  1.00366E+00 -2.99934E-02
    9106.717    113.491   5.600  9.77298E-01  1.00382E+00 -2.65245E-02
    9108.430    115.204   5.640  9.83172E-01  1.00389E+00 -2.07216E-02
    9110.155    116.929   5.680  9.90908E-01  1.00394E+00 -1.30268E-02
    9111.892    118.666   5.720  9.99832E-01  1.00390E+00 -4.07191E-03
    9113.642    120.416   5.760  1.00927E+00  1.00380E+00  5.47191E-03
    9115.404    122.177   5.800  1.01873E+00  1.00362E+00  1.51102E-02
    9117.177    123.951   5.840  1.02799E+00  1.00339E+00  2.46005E-02
    9118.964    125.737   5.880  1.03684E+00  1.00309E+00  3.37456E-02
    9120.762    127.536   5.920  1.04487E+00  1.00274E+00  4.21232E-02
    9122.572    129.346   5.960  1.05133E+00  1.00233E+00  4.90045E-02
    9124.395    131.169   6.000  1.05546E+00  1.00182E+00  5.36385E-02
