# # comment:                                                     FEFF 9.9.1  
# # Source:
# # Structure
# # Reduced
# # space
# # abc:
# # angles:
# # sites:
# # POT  SCF 100  7.0000   0, screened core-hole, AFOLP (folp(0)= 1.150)
# # Abs   Z=29 Rmt= 1.296 Rnm= 1.363 K  shell
# # Pot 1 Z=29 Rmt= 1.296 Rnm= 1.363
# # Pot 2 Z=28 Rmt= 1.185 Rnm= 1.300
# # Pot 3 Z= 8 Rmt= 1.041 Rnm= 1.098
# # Gam_ch=1.729E+00 H-L exch Vi= 0.000E+00 Vr= 0.000E+00
# # Mu=-7.715E+00eV kf=2.164E+00 Vint=-1.637E+01eV Rs_int= 1.676
# FMS rfms= 9.0000
# # PATH  Rmax=-1.000,  Keep_limit= 0.00, Heap_limit 0.00  Pwcrit= 2.50%
#  S02=0.950  Temp=   0.00  Debye_temp=   0.00  Global_sig2= 0.00000
#  Energy zero shift, vr, vi    0.00000E+00   0.00000E+00
#  Curved wave amplitude ratio filter   4.000%
#     file         sig2 tot  cw amp ratio   deg  nlegs   reff  inp sig2
#     0/   0 paths used
#  xsedge+ 50, used to normalize mu           2.4571E-04
#  -----------------------------------------------------------------------
#  omega    e    k    mu    mu0     chi     @#
    8984.011    -11.525  -1.000  4.06763E-02  5.50201E-02 -1.43438E-02
    8984.309    -11.227  -0.960  4.28944E-02  5.90424E-02 -1.61480E-02
    8984.596    -10.940  -0.920  4.52929E-02  6.35134E-02 -1.82205E-02
    8984.870    -10.666  -0.880  4.78934E-02  6.84991E-02 -2.06057E-02
    8985.132    -10.404  -0.840  5.07206E-02  7.40765E-02 -2.33559E-02
    8985.382    -10.154  -0.800  5.38030E-02  8.03348E-02 -2.65318E-02
    8985.620     -9.916  -0.760  5.71726E-02  8.73761E-02 -3.02035E-02
    8985.846     -9.690  -0.720  6.08651E-02  9.53160E-02 -3.44509E-02
    8986.059     -9.477  -0.680  6.49195E-02  1.04282E-01 -3.93623E-02
    8986.260     -9.276  -0.640  6.93757E-02  1.14408E-01 -4.50319E-02
    8986.449     -9.087  -0.600  7.42722E-02  1.25825E-01 -5.15532E-02
    8986.626     -8.910  -0.560  7.96405E-02  1.38648E-01 -5.90072E-02
    8986.790     -8.746  -0.520  8.54967E-02  1.52941E-01 -6.74447E-02
    8986.943     -8.593  -0.480  9.18307E-02  1.68692E-01 -7.68609E-02
    8987.083     -8.453  -0.440  9.85934E-02  1.85760E-01 -8.71668E-02
    8987.211     -8.325  -0.400  1.05685E-01  2.03850E-01 -9.81647E-02
    8987.327     -8.209  -0.360  1.12952E-01  2.22494E-01 -1.09542E-01
    8987.431     -8.106  -0.320  1.20192E-01  2.41086E-01 -1.20894E-01
    8987.522     -8.014  -0.280  1.27175E-01  2.58951E-01 -1.31777E-01
    8987.601     -7.935  -0.240  1.33671E-01  2.75443E-01 -1.41772E-01
    8987.668     -7.868  -0.200  1.39474E-01  2.90018E-01 -1.50544E-01
    8987.723     -7.813  -0.160  1.44417E-01  3.02279E-01 -1.57861E-01
    8987.766     -7.770  -0.120  1.48377E-01  3.11972E-01 -1.63595E-01
    8987.796     -7.740  -0.080  1.51266E-01  3.18956E-01 -1.67690E-01
    8987.821     -7.715   0.000  1.53629E-01  3.24568E-01 -1.70939E-01
    8987.876     -7.660   0.120  1.58986E-01  3.37211E-01 -1.78225E-01
    8987.918     -7.618   0.160  1.63186E-01  3.47051E-01 -1.83865E-01
    8987.973     -7.563   0.200  1.68609E-01  3.59605E-01 -1.90996E-01
    8988.040     -7.496   0.240  1.75253E-01  3.74705E-01 -1.99452E-01
    8988.119     -7.417   0.280  1.83094E-01  3.92051E-01 -2.08957E-01
    8988.211     -7.325   0.320  1.92045E-01  4.11204E-01 -2.19159E-01
    8988.314     -7.222   0.360  2.01924E-01  4.31599E-01 -2.29675E-01
    8988.430     -7.106   0.400  2.12469E-01  4.52633E-01 -2.40163E-01
    8988.558     -6.978   0.440  2.23302E-01  4.73816E-01 -2.50514E-01
    8988.699     -6.838   0.480  2.33770E-01  4.94676E-01 -2.60906E-01
    8988.851     -6.685   0.520  2.43121E-01  5.14952E-01 -2.71831E-01
    8989.016     -6.521   0.560  2.50658E-01  5.34520E-01 -2.83862E-01
    8989.192     -6.344   0.600  2.56188E-01  5.53349E-01 -2.97161E-01
    8989.381     -6.155   0.640  2.60538E-01  5.71473E-01 -3.10936E-01
    8989.582     -5.954   0.680  2.65512E-01  5.88988E-01 -3.23477E-01
    8989.796     -5.740   0.720  2.73148E-01  6.05960E-01 -3.32812E-01
    8990.021     -5.515   0.760  2.84924E-01  6.22494E-01 -3.37570E-01
    8990.259     -5.277   0.800  3.01105E-01  6.38647E-01 -3.37542E-01
    8990.509     -5.027   0.840  3.20983E-01  6.54482E-01 -3.33499E-01
    8990.771     -4.765   0.880  3.44506E-01  6.70067E-01 -3.25562E-01
    8991.045     -4.491   0.920  3.73731E-01  6.85438E-01 -3.11706E-01
    8991.332     -4.204   0.960  4.12230E-01  7.00576E-01 -2.88346E-01
    8991.631     -3.905   1.000  4.62939E-01  7.15536E-01 -2.52597E-01
    8991.942     -3.594   1.040  5.25040E-01  7.30278E-01 -2.05238E-01
    8992.265     -3.271   1.080  5.90812E-01  7.44820E-01 -1.54007E-01
    8992.600     -2.936   1.120  6.47693E-01  7.59150E-01 -1.11457E-01
    8992.947     -2.589   1.160  6.83356E-01  7.73212E-01 -8.98566E-02
    8993.307     -2.229   1.200  6.84131E-01  7.87028E-01 -1.02897E-01
    8993.679     -1.857   1.240  6.47136E-01  8.00555E-01 -1.53419E-01
    8994.063     -1.473   1.280  5.98044E-01  8.13770E-01 -2.15725E-01
    8994.459     -1.077   1.320  5.72099E-01  8.26665E-01 -2.54567E-01
    8994.868     -0.668   1.360  5.84659E-01  8.39176E-01 -2.54517E-01
    8995.288     -0.248   1.400  6.32304E-01  8.51313E-01 -2.19009E-01
    8995.721      0.185   1.440  7.01556E-01  8.63030E-01 -1.61475E-01
    8996.166      0.630   1.480  7.76584E-01  8.74320E-01 -9.77360E-02
    8996.623      1.087   1.520  8.52632E-01  8.85158E-01 -3.25258E-02
    8997.093      1.557   1.560  9.36087E-01  8.95539E-01  4.05478E-02
    8997.574      2.038   1.600  1.02238E+00  9.05437E-01  1.16948E-01
    8998.068      2.532   1.640  1.08904E+00  9.14850E-01  1.74195E-01
    8998.574      3.038   1.680  1.13057E+00  9.23754E-01  2.06813E-01
    8999.092      3.556   1.720  1.17066E+00  9.32171E-01  2.38493E-01
    8999.623      4.086   1.760  1.23690E+00  9.40081E-01  2.96818E-01
    9000.165      4.629   1.800  1.34607E+00  9.47486E-01  3.98585E-01
    9000.720      5.184   1.840  1.49959E+00  9.54409E-01  5.45179E-01
    9001.287      5.751   1.880  1.67938E+00  9.60834E-01  7.18545E-01
    9001.866      6.330   1.920  1.83674E+00  9.66785E-01  8.69958E-01
    9002.457      6.921   1.960  1.88472E+00  9.72249E-01  9.12467E-01
    9003.061      7.525   2.000  1.77883E+00  9.77274E-01  8.01551E-01
    9003.676      8.140   2.040  1.59365E+00  9.81826E-01  6.11821E-01
    9004.304      8.768   2.080  1.40647E+00  9.85973E-01  4.20500E-01
    9004.944      9.408   2.120  1.22384E+00  9.89706E-01  2.34134E-01
    9005.597     10.060   2.160  1.06294E+00  9.93032E-01  6.99038E-02
    9006.261     10.725   2.200  9.49948E-01  9.95983E-01 -4.60343E-02
    9006.938     11.402   2.240  8.76817E-01  9.98567E-01 -1.21750E-01
    9007.627     12.090   2.280  8.24929E-01  1.00084E+00 -1.75907E-01
    9008.328     12.791   2.320  7.90880E-01  1.00276E+00 -2.11877E-01
    9009.041     13.505   2.360  7.75954E-01  1.00441E+00 -2.28452E-01
    9009.766     14.230   2.400  7.77207E-01  1.00577E+00 -2.28562E-01
    9010.504     14.968   2.440  7.89438E-01  1.00686E+00 -2.17420E-01
    9011.254     15.718   2.480  8.06892E-01  1.00772E+00 -2.00831E-01
    9012.016     16.480   2.520  8.28692E-01  1.00837E+00 -1.79682E-01
    9012.790     17.254   2.560  8.64270E-01  1.00882E+00 -1.44551E-01
    9013.576     18.040   2.600  9.16761E-01  1.00907E+00 -9.23091E-02
    9014.375     18.839   2.640  9.63824E-01  1.00915E+00 -4.53289E-02
    9015.186     19.649   2.680  9.99983E-01  1.00910E+00 -9.11631E-03
    9016.008     20.472   2.720  1.02284E+00  1.00892E+00  1.39260E-02
    9016.844     21.308   2.760  1.03151E+00  1.00861E+00  2.29007E-02
    9017.691     22.155   2.800  1.02659E+00  1.00820E+00  1.83909E-02
    9018.551     23.014   2.840  1.01119E+00  1.00771E+00  3.47463E-03
    9019.422     23.886   2.880  9.90480E-01  1.00713E+00 -1.66464E-02
    9020.306     24.770   2.920  9.68004E-01  1.00649E+00 -3.84842E-02
    9021.202     25.666   2.960  9.45662E-01  1.00580E+00 -6.01423E-02
    9022.111     26.574   3.000  9.24530E-01  1.00508E+00 -8.05473E-02
    9023.031     27.495   3.040  9.05968E-01  1.00434E+00 -9.83689E-02
    9023.964     28.428   3.080  8.91545E-01  1.00356E+00 -1.12018E-01
    9024.909     29.373   3.120  8.81818E-01  1.00276E+00 -1.20944E-01
    9025.866     30.330   3.160  8.76075E-01  1.00198E+00 -1.25904E-01
    9026.835     31.299   3.200  8.73513E-01  1.00120E+00 -1.27684E-01
    9027.816     32.280   3.240  8.73629E-01  1.00042E+00 -1.26793E-01
    9028.810     33.274   3.280  8.76185E-01  9.99676E-01 -1.23491E-01
    9029.816     34.280   3.320  8.81333E-01  9.98961E-01 -1.17628E-01
    9030.834     35.298   3.360  8.89332E-01  9.98259E-01 -1.08926E-01
    9031.864     36.328   3.400  9.00123E-01  9.97592E-01 -9.74690E-02
    9032.907     37.370   3.440  9.13123E-01  9.96963E-01 -8.38397E-02
    9033.961     38.425   3.480  9.27579E-01  9.96375E-01 -6.87957E-02
    9035.028     39.492   3.520  9.42713E-01  9.95828E-01 -5.31145E-02
    9036.107     40.571   3.560  9.58139E-01  9.95344E-01 -3.72048E-02
    9037.198     41.662   3.600  9.74015E-01  9.94883E-01 -2.08673E-02
    9038.301     42.765   3.640  9.90981E-01  9.94487E-01 -3.50534E-03
    9039.417     43.881   3.680  1.00954E+00  9.94136E-01  1.54071E-02
    9040.545     45.009   3.720  1.02969E+00  9.93851E-01  3.58427E-02
    9041.685     46.149   3.760  1.05050E+00  9.93591E-01  5.69056E-02
    9042.837     47.301   3.800  1.07027E+00  9.93420E-01  7.68450E-02
    9044.001     48.465   3.840  1.08723E+00  9.93272E-01  9.39567E-02
    9045.178     49.642   3.880  1.10063E+00  9.93191E-01  1.07442E-01
    9046.366     50.830   3.920  1.11071E+00  9.93154E-01  1.17554E-01
    9047.567     52.031   3.960  1.11847E+00  9.93161E-01  1.25310E-01
    9048.780     53.244   4.000  1.12498E+00  9.93233E-01  1.31750E-01
    9050.006     54.470   4.040  1.13058E+00  9.93327E-01  1.37257E-01
    9051.243     55.707   4.080  1.13488E+00  9.93483E-01  1.41399E-01
    9052.493     56.957   4.120  1.13663E+00  9.93680E-01  1.42949E-01
    9053.755     58.219   4.160  1.13435E+00  9.93917E-01  1.40433E-01
    9055.029     59.493   4.200  1.12669E+00  9.94171E-01  1.32522E-01
    9056.315     60.779   4.240  1.11322E+00  9.94484E-01  1.18738E-01
    9057.614     62.077   4.280  1.09466E+00  9.94833E-01  9.98253E-02
    9058.924     63.388   4.320  1.07267E+00  9.95196E-01  7.74737E-02
    9060.247     64.711   4.360  1.04934E+00  9.95590E-01  5.37495E-02
    9061.582     66.046   4.400  1.02664E+00  9.95994E-01  3.06420E-02
    9062.929     67.393   4.440  1.00608E+00  9.96427E-01  9.65227E-03
    9064.289     68.753   4.480  9.88386E-01  9.96869E-01 -8.48290E-03
    9065.660     70.124   4.520  9.73385E-01  9.97338E-01 -2.39525E-02
    9067.044     71.508   4.560  9.59941E-01  9.97813E-01 -3.78718E-02
    9068.440     72.904   4.600  9.46575E-01  9.98291E-01 -5.17159E-02
    9069.848     74.312   4.640  9.32460E-01  9.98792E-01 -6.63319E-02
    9071.268     75.732   4.680  9.17947E-01  9.99272E-01 -8.13246E-02
    9072.701     77.165   4.720  9.04643E-01  9.99772E-01 -9.51292E-02
    9074.146     78.610   4.760  8.94598E-01  1.00025E+00 -1.05648E-01
    9075.603     80.067   4.800  8.89657E-01  1.00072E+00 -1.11059E-01
    9077.072     81.536   4.840  8.90661E-01  1.00118E+00 -1.10518E-01
    9078.553     83.017   4.880  8.97128E-01  1.00161E+00 -1.04483E-01
    9080.047     84.511   4.920  9.07392E-01  1.00204E+00 -9.46457E-02
    9081.552     86.016   4.960  9.19311E-01  1.00245E+00 -8.31437E-02
    9083.070     87.534   5.000  9.31343E-01  1.00284E+00 -7.14950E-02
    9084.600     89.064   5.040  9.43085E-01  1.00319E+00 -6.01015E-02
    9086.143     90.607   5.080  9.55148E-01  1.00352E+00 -4.83743E-02
    9087.697     92.161   5.120  9.68455E-01  1.00382E+00 -3.53670E-02
    9089.264     93.728   5.160  9.83563E-01  1.00409E+00 -2.05231E-02
    9090.843     95.307   5.200  1.00018E+00  1.00434E+00 -4.15887E-03
    9092.434     96.898   5.240  1.01714E+00  1.00455E+00  1.25893E-02
    9094.037     98.501   5.280  1.03311E+00  1.00472E+00  2.83872E-02
    9095.652    100.116   5.320  1.04685E+00  1.00486E+00  4.19907E-02
    9097.280    101.744   5.360  1.05727E+00  1.00495E+00  5.23218E-02
    9098.920    103.384   5.400  1.06387E+00  1.00500E+00  5.88703E-02
    9100.572    105.036   5.440  1.06721E+00  1.00502E+00  6.21903E-02
    9102.236    106.700   5.480  1.06852E+00  1.00499E+00  6.35332E-02
    9103.912    108.376   5.520  1.06870E+00  1.00495E+00  6.37484E-02
    9105.601    110.065   5.560  1.06730E+00  1.00484E+00  6.24559E-02
    9107.302    111.766   5.600  1.06299E+00  1.00472E+00  5.82679E-02
    9109.015    113.479   5.640  1.05441E+00  1.00454E+00  4.98781E-02
    9110.740    115.204   5.680  1.04121E+00  1.00433E+00  3.68777E-02
    9112.477    116.941   5.720  1.02395E+00  1.00409E+00  1.98513E-02
    9114.227    118.691   5.760  1.00393E+00  1.00379E+00  1.31316E-04
    9115.989    120.452   5.800  9.82868E-01  1.00348E+00 -2.06117E-02
    9117.762    122.226   5.840  9.62140E-01  1.00316E+00 -4.10153E-02
    9119.549    124.013   5.880  9.42590E-01  1.00278E+00 -6.01853E-02
    9121.347    125.811   5.920  9.25461E-01  1.00239E+00 -7.69250E-02
    9123.157    127.621   5.960  9.13140E-01  1.00197E+00 -8.88273E-02
    9124.980    129.444   6.000  9.09455E-01  1.00149E+00 -9.20386E-02
