# # comment:                                                     FEFF 9.9.1  
# # Source:
# # Structure
# # Reduced
# # space
# # abc:
# # angles:
# # sites:
# # POT  SCF 100  7.0000   0, screened core-hole, AFOLP (folp(0)= 1.150)
# # Abs   Z=29 Rmt= 1.220 Rnm= 1.342 K  shell
# # Pot 1 Z=29 Rmt= 1.265 Rnm= 1.361
# # Pot 2 Z= 1 Rmt= 0.696 Rnm= 0.839
# # Pot 3 Z=17 Rmt= 1.123 Rnm= 1.406
# # Pot 4 Z= 8 Rmt= 1.016 Rnm= 1.142
# # Gam_ch=1.729E+00 H-L exch Vi= 0.000E+00 Vr= 0.000E+00
# # Mu=-5.830E+00eV kf=2.040E+00 Vint=-1.355E+01eV Rs_int= 1.778
# FMS rfms= 9.0000
# # PATH  Rmax=-1.000,  Keep_limit= 0.00, Heap_limit 0.00  Pwcrit= 2.50%
#  S02=0.950  Temp=   0.00  Debye_temp=   0.00  Global_sig2= 0.00000
#  Energy zero shift, vr, vi    0.00000E+00   0.00000E+00
#  Curved wave amplitude ratio filter   4.000%
#     file         sig2 tot  cw amp ratio   deg  nlegs   reff  inp sig2
#     0/   0 paths used
#  xsedge+ 50, used to normalize mu           2.4186E-04
#  -----------------------------------------------------------------------
#  omega    e    k    mu    mu0     chi     @#
    8983.333     -9.640  -1.000  4.19413E-02  5.96502E-02 -1.77089E-02
    8983.632     -9.342  -0.960  4.41685E-02  6.40824E-02 -1.99139E-02
    8983.918     -9.055  -0.920  4.65537E-02  6.90113E-02 -2.24576E-02
    8984.193     -8.781  -0.880  4.91107E-02  7.45099E-02 -2.53992E-02
    8984.455     -8.519  -0.840  5.18543E-02  8.06633E-02 -2.88089E-02
    8984.705     -8.269  -0.800  5.48009E-02  8.75697E-02 -3.27688E-02
    8984.942     -8.031  -0.760  5.79675E-02  9.53420E-02 -3.73745E-02
    8985.168     -7.805  -0.720  6.13721E-02  1.04107E-01 -4.27353E-02
    8985.381     -7.592  -0.680  6.50330E-02  1.14006E-01 -4.89733E-02
    8985.583     -7.391  -0.640  6.89671E-02  1.25186E-01 -5.62194E-02
    8985.772     -7.202  -0.600  7.31882E-02  1.37793E-01 -6.46047E-02
    8985.948     -7.025  -0.560  7.77035E-02  1.51949E-01 -7.42458E-02
    8986.113     -6.861  -0.520  8.25088E-02  1.67729E-01 -8.52206E-02
    8986.265     -6.708  -0.480  8.75815E-02  1.85116E-01 -9.75347E-02
    8986.406     -6.568  -0.440  9.28739E-02  2.03958E-01 -1.11084E-01
    8986.534     -6.440  -0.400  9.83067E-02  2.23927E-01 -1.25620E-01
    8986.649     -6.324  -0.360  1.03768E-01  2.44509E-01 -1.40741E-01
    8986.753     -6.220  -0.320  1.09121E-01  2.65036E-01 -1.55915E-01
    8986.844     -6.129  -0.280  1.14215E-01  2.84766E-01 -1.70551E-01
    8986.924     -6.050  -0.240  1.18907E-01  3.02984E-01 -1.84078E-01
    8986.991     -5.983  -0.200  1.23069E-01  3.19090E-01 -1.96021E-01
    8987.046     -5.928  -0.160  1.26601E-01  3.32644E-01 -2.06043E-01
    8987.088     -5.885  -0.120  1.29425E-01  3.43361E-01 -2.13936E-01
    8987.119     -5.855  -0.080  1.31486E-01  3.51085E-01 -2.19599E-01
    8987.143     -5.830   0.000  1.33176E-01  3.57292E-01 -2.24117E-01
    8987.198     -5.775   0.120  1.37106E-01  3.71297E-01 -2.34191E-01
    8987.241     -5.733   0.160  1.40129E-01  3.82179E-01 -2.42050E-01
    8987.296     -5.678   0.200  1.44068E-01  3.96087E-01 -2.52018E-01
    8987.363     -5.611   0.240  1.48928E-01  4.12820E-01 -2.63893E-01
    8987.442     -5.532   0.280  1.54786E-01  4.32079E-01 -2.77293E-01
    8987.533     -5.440   0.320  1.61680E-01  4.53349E-01 -2.91669E-01
    8987.637     -5.337   0.360  1.69731E-01  4.76059E-01 -3.06327E-01
    8987.753     -5.221   0.400  1.79070E-01  4.99537E-01 -3.20467E-01
    8987.881     -5.093   0.440  1.89954E-01  5.23206E-01 -3.33252E-01
    8988.021     -4.952   0.480  2.02766E-01  5.46617E-01 -3.43851E-01
    8988.173     -4.800   0.520  2.18014E-01  5.69420E-01 -3.51406E-01
    8988.338     -4.635   0.560  2.36472E-01  5.91499E-01 -3.55027E-01
    8988.515     -4.459   0.600  2.59117E-01  6.12793E-01 -3.53676E-01
    8988.704     -4.270   0.640  2.87003E-01  6.33336E-01 -3.46333E-01
    8988.905     -4.069   0.680  3.20884E-01  6.53203E-01 -3.32319E-01
    8989.118     -3.855   0.720  3.60446E-01  6.72482E-01 -3.12036E-01
    8989.344     -3.630   0.760  4.03579E-01  6.91240E-01 -2.87660E-01
    8989.582     -3.392   0.800  4.46753E-01  7.09529E-01 -2.62776E-01
    8989.831     -3.142   0.840  4.87461E-01  7.27411E-01 -2.39950E-01
    8990.094     -2.880   0.880  5.26383E-01  7.44932E-01 -2.18549E-01
    8990.368     -2.606   0.920  5.67004E-01  7.62100E-01 -1.95096E-01
    8990.654     -2.319   0.960  6.12597E-01  7.78913E-01 -1.66316E-01
    8990.953     -2.020   1.000  6.61222E-01  7.95377E-01 -1.34155E-01
    8991.264     -1.709   1.040  7.03022E-01  8.11446E-01 -1.08425E-01
    8991.587     -1.386   1.080  7.27096E-01  8.27153E-01 -1.00057E-01
    8991.922     -1.051   1.120  7.30150E-01  8.42419E-01 -1.12269E-01
    8992.270     -0.704   1.160  7.13550E-01  8.57223E-01 -1.43673E-01
    8992.630     -0.344   1.200  6.81799E-01  8.71561E-01 -1.89761E-01
    8993.001      0.028   1.240  6.43648E-01  8.85366E-01 -2.41719E-01
    8993.385      0.412   1.280  6.07407E-01  8.98635E-01 -2.91227E-01
    8993.782      0.808   1.320  5.80504E-01  9.11338E-01 -3.30834E-01
    8994.190      1.217   1.360  5.68657E-01  9.23429E-01 -3.54772E-01
    8994.611      1.637   1.400  5.74129E-01  9.34902E-01 -3.60773E-01
    8995.044      2.070   1.440  5.98486E-01  9.45731E-01 -3.47245E-01
    8995.489      2.515   1.480  6.42795E-01  9.55913E-01 -3.13118E-01
    8995.946      2.972   1.520  7.06204E-01  9.65429E-01 -2.59225E-01
    8996.415      3.442   1.560  7.87021E-01  9.74278E-01 -1.87257E-01
    8996.897      3.923   1.600  8.83194E-01  9.82462E-01 -9.92685E-02
    8997.390      4.417   1.640  9.88428E-01  9.89965E-01 -1.53706E-03
    8997.896      4.923   1.680  1.09342E+00  9.96814E-01  9.66045E-02
    8998.415      5.441   1.720  1.19155E+00  1.00304E+00  1.88512E-01
    8998.945      5.972   1.760  1.27660E+00  1.00862E+00  2.67973E-01
    8999.487      6.514   1.800  1.34822E+00  1.01360E+00  3.34619E-01
    9000.042      7.069   1.840  1.42049E+00  1.01799E+00  4.02508E-01
    9000.609      7.636   1.880  1.50549E+00  1.02179E+00  4.83702E-01
    9001.188      8.215   1.920  1.58411E+00  1.02507E+00  5.59043E-01
    9001.780      8.806   1.960  1.60671E+00  1.02783E+00  5.78884E-01
    9002.383      9.410   2.000  1.55058E+00  1.03012E+00  5.20460E-01
    9002.999     10.025   2.040  1.45433E+00  1.03194E+00  4.22391E-01
    9003.627     10.653   2.080  1.36750E+00  1.03334E+00  3.34158E-01
    9004.267     11.293   2.120  1.30692E+00  1.03433E+00  2.72588E-01
    9004.919     11.946   2.160  1.26456E+00  1.03497E+00  2.29587E-01
    9005.583     12.610   2.200  1.22438E+00  1.03527E+00  1.89107E-01
    9006.260     13.287   2.240  1.17870E+00  1.03527E+00  1.43432E-01
    9006.949     13.976   2.280  1.13308E+00  1.03498E+00  9.81072E-02
    9007.650     14.677   2.320  1.09702E+00  1.03443E+00  6.25851E-02
    9008.363     15.390   2.360  1.07571E+00  1.03369E+00  4.20188E-02
    9009.089     16.115   2.400  1.06754E+00  1.03272E+00  3.48157E-02
    9009.826     16.853   2.440  1.06545E+00  1.03158E+00  3.38690E-02
    9010.576     17.603   2.480  1.06187E+00  1.03030E+00  3.15675E-02
    9011.338     18.365   2.520  1.05533E+00  1.02889E+00  2.64386E-02
    9012.112     19.139   2.560  1.04799E+00  1.02737E+00  2.06276E-02
    9012.899     19.925   2.600  1.04142E+00  1.02577E+00  1.56468E-02
    9013.697     20.724   2.640  1.03615E+00  1.02410E+00  1.20471E-02
    9014.508     21.535   2.680  1.03141E+00  1.02237E+00  9.03838E-03
    9015.331     22.357   2.720  1.02570E+00  1.02064E+00  5.06454E-03
    9016.166     23.193   2.760  1.01718E+00  1.01885E+00 -1.66990E-03
    9017.013     24.040   2.800  1.00481E+00  1.01708E+00 -1.22768E-02
    9017.873     24.900   2.840  9.88816E-01  1.01532E+00 -2.65055E-02
    9018.745     25.771   2.880  9.70299E-01  1.01359E+00 -4.32918E-02
    9019.629     26.655   2.920  9.50685E-01  1.01190E+00 -6.12097E-02
    9020.525     27.551   2.960  9.31841E-01  1.01024E+00 -7.83994E-02
    9021.433     28.460   3.000  9.15269E-01  1.00863E+00 -9.33624E-02
    9022.353     29.380   3.040  9.01957E-01  1.00707E+00 -1.05114E-01
    9023.286     30.313   3.080  8.92598E-01  1.00561E+00 -1.13009E-01
    9024.231     31.258   3.120  8.86629E-01  1.00420E+00 -1.17571E-01
    9025.188     32.215   3.160  8.83001E-01  1.00287E+00 -1.19872E-01
    9026.157     33.184   3.200  8.80773E-01  1.00165E+00 -1.20878E-01
    9027.139     34.165   3.240  8.79421E-01  1.00049E+00 -1.21072E-01
    9028.132     35.159   3.280  8.79017E-01  9.99443E-01 -1.20427E-01
    9029.138     36.165   3.320  8.79990E-01  9.98482E-01 -1.18492E-01
    9030.156     37.183   3.360  8.82907E-01  9.97632E-01 -1.14725E-01
    9031.187     38.213   3.400  8.87671E-01  9.96873E-01 -1.09202E-01
    9032.229     39.256   3.440  8.93947E-01  9.96227E-01 -1.02281E-01
    9033.284     40.310   3.480  9.01239E-01  9.95674E-01 -9.44343E-02
    9034.350     41.377   3.520  9.09100E-01  9.95233E-01 -8.61329E-02
    9035.429     42.456   3.560  9.17136E-01  9.94905E-01 -7.77685E-02
    9036.521     43.547   3.600  9.25199E-01  9.94649E-01 -6.94494E-02
    9037.624     44.650   3.640  9.33381E-01  9.94525E-01 -6.11440E-02
    9038.739     45.766   3.680  9.41675E-01  9.94491E-01 -5.28155E-02
    9039.867     46.894   3.720  9.50188E-01  9.94546E-01 -4.43582E-02
    9041.007     48.034   3.760  9.59129E-01  9.94688E-01 -3.55588E-02
    9042.159     49.186   3.800  9.68775E-01  9.94938E-01 -2.61624E-02
    9043.324     50.350   3.840  9.79440E-01  9.95273E-01 -1.58334E-02
    9044.500     51.527   3.880  9.91498E-01  9.95692E-01 -4.19433E-03
    9045.689     52.715   3.920  1.00505E+00  9.96193E-01  8.85896E-03
    9046.890     53.916   3.960  1.01984E+00  9.96774E-01  2.30709E-02
    9048.103     55.129   4.000  1.03536E+00  9.97431E-01  3.79302E-02
    9049.328     56.355   4.040  1.05095E+00  9.98143E-01  5.28057E-02
    9050.566     57.592   4.080  1.06590E+00  9.98929E-01  6.69718E-02
    9051.815     58.842   4.120  1.07959E+00  9.99787E-01  7.98014E-02
    9053.077     60.104   4.160  1.09154E+00  1.00069E+00  9.08453E-02
    9054.351     61.378   4.200  1.10141E+00  1.00164E+00  9.97650E-02
    9055.638     62.664   4.240  1.10893E+00  1.00263E+00  1.06303E-01
    9056.936     63.963   4.280  1.11382E+00  1.00366E+00  1.10157E-01
    9058.247     65.273   4.320  1.11557E+00  1.00473E+00  1.10844E-01
    9059.569     66.596   4.360  1.11374E+00  1.00583E+00  1.07911E-01
    9060.904     67.931   4.400  1.10828E+00  1.00694E+00  1.01338E-01
    9062.252     69.278   4.440  1.09980E+00  1.00805E+00  9.17458E-02
    9063.611     70.638   4.480  1.08939E+00  1.00920E+00  8.01979E-02
    9064.983     72.009   4.520  1.07820E+00  1.01034E+00  6.78620E-02
    9066.366     73.393   4.560  1.06723E+00  1.01148E+00  5.57405E-02
    9067.762     74.789   4.600  1.05720E+00  1.01262E+00  4.45725E-02
    9069.171     76.197   4.640  1.04856E+00  1.01373E+00  3.48255E-02
    9070.591     77.618   4.680  1.04151E+00  1.01483E+00  2.66819E-02
    9072.023     79.050   4.720  1.03589E+00  1.01590E+00  1.99968E-02
    9073.468     80.495   4.760  1.03133E+00  1.01695E+00  1.43822E-02
    9074.925     81.952   4.800  1.02727E+00  1.01796E+00  9.30465E-03
    9076.394     83.421   4.840  1.02311E+00  1.01894E+00  4.17057E-03
    9077.876     84.902   4.880  1.01833E+00  1.01987E+00 -1.53860E-03
    9079.369     86.396   4.920  1.01255E+00  1.02075E+00 -8.20640E-03
    9080.875     87.901   4.960  1.00556E+00  1.02157E+00 -1.60031E-02
    9082.393     89.419   5.000  9.97573E-01  1.02233E+00 -2.47593E-02
    9083.923     90.949   5.040  9.89161E-01  1.02305E+00 -3.38881E-02
    9085.465     92.492   5.080  9.81289E-01  1.02369E+00 -4.24040E-02
    9087.020     94.046   5.120  9.75014E-01  1.02428E+00 -4.92692E-02
    9088.586     95.613   5.160  9.71007E-01  1.02480E+00 -5.37909E-02
    9090.165     97.192   5.200  9.69469E-01  1.02523E+00 -5.57662E-02
    9091.756     98.783   5.240  9.70289E-01  1.02562E+00 -5.53292E-02
    9093.359    100.386   5.280  9.73266E-01  1.02592E+00 -5.26590E-02
    9094.975    102.001   5.320  9.78164E-01  1.02618E+00 -4.80109E-02
    9096.602    103.629   5.360  9.84508E-01  1.02632E+00 -4.18156E-02
    9098.242    105.269   5.400  9.91508E-01  1.02642E+00 -3.49079E-02
    9099.894    106.921   5.440  9.98033E-01  1.02643E+00 -2.83969E-02
    9101.558    108.585   5.480  1.00297E+00  1.02636E+00 -2.33948E-02
    9103.235    110.261   5.520  1.00552E+00  1.02624E+00 -2.07232E-02
    9104.923    111.950   5.560  1.00527E+00  1.02602E+00 -2.07517E-02
    9106.624    113.651   5.600  1.00248E+00  1.02577E+00 -2.32920E-02
    9108.337    115.364   5.640  9.97807E-01  1.02543E+00 -2.76185E-02
    9110.062    117.089   5.680  9.92416E-01  1.02503E+00 -3.26102E-02
    9111.800    118.826   5.720  9.87620E-01  1.02458E+00 -3.69589E-02
    9113.549    120.576   5.760  9.84658E-01  1.02406E+00 -3.94030E-02
    9115.311    122.338   5.800  9.84477E-01  1.02350E+00 -3.90199E-02
    9117.085    124.111   5.840  9.87426E-01  1.02286E+00 -3.54382E-02
    9118.871    125.898   5.880  9.93231E-01  1.02219E+00 -2.89612E-02
    9120.669    127.696   5.920  1.00099E+00  1.02149E+00 -2.04932E-02
    9122.480    129.506   5.960  1.00953E+00  1.02077E+00 -1.12435E-02
    9124.303    131.329   6.000  1.01792E+00  1.01997E+00 -2.05051E-03
