# # comment:                                                     FEFF 9.9.1  
# # Source:
# # Structure
# # Reduced
# # space
# # abc:
# # angles:
# # sites:
# # POT  SCF 100  7.0000   0, screened core-hole, AFOLP (folp(0)= 1.150)
# # Abs   Z=29 Rmt= 1.151 Rnm= 1.335 K  shell
# # Pot 1 Z=29 Rmt= 1.121 Rnm= 1.362
# # Pot 2 Z= 1 Rmt= 0.865 Rnm= 0.989
# # Pot 3 Z=16 Rmt= 0.924 Rnm= 1.233
# # Pot 4 Z= 8 Rmt= 0.990 Rnm= 1.184
# # Gam_ch=1.729E+00 H-L exch Vi= 0.000E+00 Vr= 0.000E+00
# # Mu=-7.079E+00eV kf=1.965E+00 Vint=-1.130E+01eV Rs_int= 1.845
# FMS rfms= 9.0000
# # PATH  Rmax=-1.000,  Keep_limit= 0.00, Heap_limit 0.00  Pwcrit= 2.50%
#  S02=0.950  Temp=   0.00  Debye_temp=   0.00  Global_sig2= 0.00000
#  Energy zero shift, vr, vi    0.00000E+00   0.00000E+00
#  Curved wave amplitude ratio filter   4.000%
#     file         sig2 tot  cw amp ratio   deg  nlegs   reff  inp sig2
#     0/   0 paths used
#  xsedge+ 50, used to normalize mu           2.3789E-04
#  -----------------------------------------------------------------------
#  omega    e    k    mu    mu0     chi     @#
    8983.227    -10.889  -1.000  3.50255E-02  5.57914E-02 -2.07659E-02
    8983.526    -10.591  -0.960  3.65381E-02  5.95816E-02 -2.30434E-02
    8983.812    -10.304  -0.920  3.81284E-02  6.37541E-02 -2.56256E-02
    8984.087    -10.030  -0.880  3.98010E-02  6.83604E-02 -2.85594E-02
    8984.349     -9.768  -0.840  4.15608E-02  7.34596E-02 -3.18988E-02
    8984.599     -9.518  -0.800  4.34131E-02  7.91196E-02 -3.57065E-02
    8984.836     -9.280  -0.760  4.53636E-02  8.54174E-02 -4.00538E-02
    8985.062     -9.054  -0.720  4.74181E-02  9.24392E-02 -4.50211E-02
    8985.275     -8.841  -0.680  4.95823E-02  1.00279E-01 -5.06965E-02
    8985.476     -8.640  -0.640  5.18614E-02  1.09034E-01 -5.71724E-02
    8985.665     -8.451  -0.600  5.42590E-02  1.18799E-01 -6.45396E-02
    8985.842     -8.274  -0.560  5.67763E-02  1.29652E-01 -7.28753E-02
    8986.007     -8.110  -0.520  5.94096E-02  1.41636E-01 -8.22261E-02
    8986.159     -7.957  -0.480  6.21481E-02  1.54732E-01 -9.25835E-02
    8986.299     -7.817  -0.440  6.49707E-02  1.68827E-01 -1.03856E-01
    8986.427     -7.689  -0.400  6.78440E-02  1.83691E-01 -1.15847E-01
    8986.543     -7.573  -0.360  7.07202E-02  1.98965E-01 -1.28245E-01
    8986.647     -7.470  -0.320  7.35396E-02  2.14182E-01 -1.40642E-01
    8986.738     -7.378  -0.280  7.62342E-02  2.28821E-01 -1.52587E-01
    8986.818     -7.299  -0.240  7.87344E-02  2.42372E-01 -1.63638E-01
    8986.885     -7.232  -0.200  8.09747E-02  2.54398E-01 -1.73423E-01
    8986.939     -7.177  -0.160  8.28988E-02  2.64562E-01 -1.81663E-01
    8986.982     -7.134  -0.120  8.44612E-02  2.72636E-01 -1.88175E-01
    8987.013     -7.104  -0.080  8.56262E-02  2.78480E-01 -1.92853E-01
    8987.037     -7.079   0.000  8.66301E-02  2.83197E-01 -1.96567E-01
    8987.092     -7.025   0.120  8.88216E-02  2.93864E-01 -2.05042E-01
    8987.135     -6.982   0.160  9.04715E-02  3.02226E-01 -2.11755E-01
    8987.189     -6.927   0.200  9.25672E-02  3.12990E-01 -2.20423E-01
    8987.256     -6.860   0.240  9.51162E-02  3.26087E-01 -2.30971E-01
    8987.336     -6.781   0.280  9.81181E-02  3.41393E-01 -2.43275E-01
    8987.427     -6.689   0.320  1.01585E-01  3.58671E-01 -2.57086E-01
    8987.531     -6.586   0.360  1.05468E-01  3.77611E-01 -2.72143E-01
    8987.647     -6.470   0.400  1.09740E-01  3.97849E-01 -2.88109E-01
    8987.775     -6.342   0.440  1.14435E-01  4.19091E-01 -3.04656E-01
    8987.915     -6.202   0.480  1.19601E-01  4.41069E-01 -3.21468E-01
    8988.067     -6.049   0.520  1.25475E-01  4.63644E-01 -3.38169E-01
    8988.232     -5.885   0.560  1.32260E-01  4.86675E-01 -3.54415E-01
    8988.409     -5.708   0.600  1.40251E-01  5.10147E-01 -3.69896E-01
    8988.598     -5.519   0.640  1.49508E-01  5.34084E-01 -3.84576E-01
    8988.799     -5.318   0.680  1.59842E-01  5.58462E-01 -3.98620E-01
    8989.012     -5.104   0.720  1.71235E-01  5.83301E-01 -4.12066E-01
    8989.238     -4.879   0.760  1.84205E-01  6.08594E-01 -4.24389E-01
    8989.475     -4.641   0.800  1.99806E-01  6.34317E-01 -4.34511E-01
    8989.725     -4.391   0.840  2.19176E-01  6.60393E-01 -4.41217E-01
    8989.987     -4.129   0.880  2.43726E-01  6.86773E-01 -4.43047E-01
    8990.262     -3.855   0.920  2.75330E-01  7.13372E-01 -4.38041E-01
    8990.548     -3.568   0.960  3.16076E-01  7.40067E-01 -4.23991E-01
    8990.847     -3.269   1.000  3.66670E-01  7.66732E-01 -4.00061E-01
    8991.158     -2.959   1.040  4.24482E-01  7.93228E-01 -3.68746E-01
    8991.481     -2.635   1.080  4.84080E-01  8.19457E-01 -3.35377E-01
    8991.816     -2.300   1.120  5.40282E-01  8.45248E-01 -3.04966E-01
    8992.164     -1.953   1.160  5.90476E-01  8.70434E-01 -2.79959E-01
    8992.523     -1.593   1.200  6.31839E-01  8.94908E-01 -2.63068E-01
    8992.895     -1.221   1.240  6.58285E-01  9.18544E-01 -2.60259E-01
    8993.279     -0.837   1.280  6.68047E-01  9.41183E-01 -2.73137E-01
    8993.676     -0.441   1.320  6.70027E-01  9.62730E-01 -2.92703E-01
    8994.084     -0.032   1.360  6.73761E-01  9.83116E-01 -3.09356E-01
    8994.505      0.388   1.400  6.83324E-01  1.00220E+00 -3.18876E-01
    8994.937      0.821   1.440  7.03532E-01  1.01997E+00 -3.16439E-01
    8995.382      1.266   1.480  7.39035E-01  1.03634E+00 -2.97309E-01
    8995.840      1.723   1.520  7.91223E-01  1.05133E+00 -2.60106E-01
    8996.309      2.193   1.560  8.57380E-01  1.06487E+00 -2.07495E-01
    8996.791      2.674   1.600  9.33039E-01  1.07699E+00 -1.43947E-01
    8997.284      3.168   1.640  1.01826E+00  1.08771E+00 -6.94565E-02
    8997.790      3.674   1.680  1.11279E+00  1.09705E+00  1.57355E-02
    8998.308      4.192   1.720  1.19919E+00  1.10504E+00  9.41470E-02
    8998.839      4.722   1.760  1.24688E+00  1.11178E+00  1.35097E-01
    8999.381      5.265   1.800  1.24673E+00  1.11727E+00  1.29458E-01
    8999.936      5.820   1.840  1.21839E+00  1.12160E+00  9.67865E-02
    9000.503      6.387   1.880  1.18797E+00  1.12487E+00  6.30985E-02
    9001.082      6.966   1.920  1.17723E+00  1.12712E+00  5.01081E-02
    9001.673      7.557   1.960  1.20217E+00  1.12841E+00  7.37635E-02
    9002.277      8.161   2.000  1.25808E+00  1.12887E+00  1.29214E-01
    9002.893      8.776   2.040  1.31847E+00  1.12851E+00  1.89954E-01
    9003.521      9.404   2.080  1.36109E+00  1.12746E+00  2.33627E-01
    9004.161     10.044   2.120  1.38009E+00  1.12578E+00  2.54313E-01
    9004.813     10.696   2.160  1.38449E+00  1.12353E+00  2.60953E-01
    9005.477     11.361   2.200  1.38470E+00  1.12078E+00  2.63915E-01
    9006.154     12.038   2.240  1.38366E+00  1.11758E+00  2.66077E-01
    9006.843     12.726   2.280  1.37677E+00  1.11402E+00  2.62747E-01
    9007.544     13.427   2.320  1.35233E+00  1.11013E+00  2.42200E-01
    9008.257     14.141   2.360  1.30416E+00  1.10598E+00  1.98176E-01
    9008.983     14.866   2.400  1.24921E+00  1.10161E+00  1.47598E-01
    9009.720     15.604   2.440  1.20707E+00  1.09705E+00  1.10016E-01
    9010.470     16.354   2.480  1.17412E+00  1.09239E+00  8.17352E-02
    9011.232     17.116   2.520  1.14691E+00  1.08763E+00  5.92825E-02
    9012.006     17.890   2.560  1.12377E+00  1.08280E+00  4.09756E-02
    9012.792     18.676   2.600  1.10401E+00  1.07793E+00  2.60822E-02
    9013.591     19.475   2.640  1.08737E+00  1.07309E+00  1.42837E-02
    9014.402     20.285   2.680  1.07363E+00  1.06828E+00  5.35228E-03
    9015.225     21.108   2.720  1.06238E+00  1.06352E+00 -1.14048E-03
    9016.060     21.944   2.760  1.05337E+00  1.05881E+00 -5.43823E-03
    9016.907     22.791   2.800  1.04612E+00  1.05421E+00 -8.08390E-03
    9017.767     23.650   2.840  1.03968E+00  1.04971E+00 -1.00299E-02
    9018.639     24.522   2.880  1.03293E+00  1.04536E+00 -1.24216E-02
    9019.522     25.406   2.920  1.02507E+00  1.04113E+00 -1.60592E-02
    9020.419     26.302   2.960  1.01587E+00  1.03703E+00 -2.11624E-02
    9021.327     27.210   3.000  1.00574E+00  1.03310E+00 -2.73555E-02
    9022.247     28.131   3.040  9.95516E-01  1.02934E+00 -3.38238E-02
    9023.180     29.064   3.080  9.86066E-01  1.02575E+00 -3.96835E-02
    9024.125     30.009   3.120  9.78099E-01  1.02235E+00 -4.42492E-02
    9025.082     30.966   3.160  9.71989E-01  1.01913E+00 -4.71401E-02
    9026.051     31.935   3.200  9.67714E-01  1.01609E+00 -4.83746E-02
    9027.033     32.916   3.240  9.64777E-01  1.01325E+00 -4.84698E-02
    9028.026     33.910   3.280  9.62471E-01  1.01060E+00 -4.81309E-02
    9029.032     34.916   3.320  9.60147E-01  1.00814E+00 -4.79902E-02
    9030.050     35.934   3.360  9.57447E-01  1.00588E+00 -4.84315E-02
    9031.080     36.964   3.400  9.54320E-01  1.00383E+00 -4.95067E-02
    9032.123     38.006   3.440  9.51064E-01  1.00198E+00 -5.09194E-02
    9033.177     39.061   3.480  9.48179E-01  1.00032E+00 -5.21383E-02
    9034.244     40.128   3.520  9.46110E-01  9.98850E-01 -5.27401E-02
    9035.323     41.207   3.560  9.45200E-01  9.97587E-01 -5.23876E-02
    9036.414     42.298   3.600  9.45664E-01  9.96504E-01 -5.08400E-02
    9037.518     43.401   3.640  9.47613E-01  9.95620E-01 -4.80072E-02
    9038.633     44.517   3.680  9.50925E-01  9.94913E-01 -4.39886E-02
    9039.761     45.645   3.720  9.55466E-01  9.94404E-01 -3.89388E-02
    9040.901     46.785   3.760  9.60997E-01  9.94067E-01 -3.30699E-02
    9042.053     47.937   3.800  9.67242E-01  9.93899E-01 -2.66575E-02
    9043.218     49.101   3.840  9.73940E-01  9.93900E-01 -1.99606E-02
    9044.394     50.278   3.880  9.80855E-01  9.94068E-01 -1.32125E-02
    9045.583     51.466   3.920  9.87734E-01  9.94398E-01 -6.66339E-03
    9046.784     52.667   3.960  9.94343E-01  9.94869E-01 -5.26376E-04
    9047.997     53.880   4.000  1.00058E+00  9.95520E-01  5.05824E-03
    9049.222     55.106   4.040  1.00623E+00  9.96284E-01  9.94702E-03
    9050.460     56.343   4.080  1.01106E+00  9.97201E-01  1.38619E-02
    9051.709     57.593   4.120  1.01463E+00  9.98245E-01  1.63900E-02
    9052.971     58.855   4.160  1.01649E+00  9.99415E-01  1.70701E-02
    9054.245     60.129   4.200  1.01636E+00  1.00071E+00  1.56539E-02
    9055.531     61.415   4.240  1.01447E+00  1.00209E+00  1.23764E-02
    9056.830     62.713   4.280  1.01158E+00  1.00359E+00  7.99412E-03
    9058.140     64.024   4.320  1.00872E+00  1.00518E+00  3.54046E-03
    9059.463     65.347   4.360  1.00685E+00  1.00685E+00  4.06698E-07
    9060.798     66.682   4.400  1.00664E+00  1.00860E+00 -1.95690E-03
    9062.146     68.029   4.440  1.00832E+00  1.01041E+00 -2.08437E-03
    9063.505     69.389   4.480  1.01172E+00  1.01228E+00 -5.59861E-04
    9064.877     70.760   4.520  1.01632E+00  1.01423E+00  2.08781E-03
    9066.260     72.144   4.560  1.02131E+00  1.01620E+00  5.11440E-03
    9067.656     73.540   4.600  1.02595E+00  1.01820E+00  7.74527E-03
    9069.064     74.948   4.640  1.02960E+00  1.02021E+00  9.38314E-03
    9070.485     76.368   4.680  1.03198E+00  1.02225E+00  9.72819E-03
    9071.917     77.801   4.720  1.03310E+00  1.02430E+00  8.80026E-03
    9073.362     79.246   4.760  1.03327E+00  1.02634E+00  6.92249E-03
    9074.819     80.703   4.800  1.03308E+00  1.02838E+00  4.69799E-03
    9076.288     82.172   4.840  1.03331E+00  1.03039E+00  2.92259E-03
    9077.769     83.653   4.880  1.03479E+00  1.03238E+00  2.41109E-03
    9079.263     85.147   4.920  1.03809E+00  1.03431E+00  3.78201E-03
    9080.769     86.652   4.960  1.04350E+00  1.03621E+00  7.28755E-03
    9082.287     88.170   5.000  1.05079E+00  1.03805E+00  1.27477E-02
    9083.817     89.700   5.040  1.05941E+00  1.03983E+00  1.95812E-02
    9085.359     91.243   5.080  1.06840E+00  1.04153E+00  2.68649E-02
    9086.913     92.797   5.120  1.07667E+00  1.04315E+00  3.35164E-02
    9088.480     94.364   5.160  1.08322E+00  1.04469E+00  3.85293E-02
    9090.059     95.943   5.200  1.08738E+00  1.04614E+00  4.12395E-02
    9091.650     97.534   5.240  1.08895E+00  1.04750E+00  4.14479E-02
    9093.253     99.137   5.280  1.08812E+00  1.04874E+00  3.93804E-02
    9094.869    100.752   5.320  1.08540E+00  1.04987E+00  3.55331E-02
    9096.496    102.380   5.360  1.08140E+00  1.05092E+00  3.04788E-02
    9098.136    104.020   5.400  1.07656E+00  1.05183E+00  2.47278E-02
    9099.788    105.672   5.440  1.07130E+00  1.05261E+00  1.86915E-02
    9101.452    107.336   5.480  1.06605E+00  1.05330E+00  1.27542E-02
    9103.129    109.012   5.520  1.06117E+00  1.05386E+00  7.30844E-03
    9104.817    110.701   5.560  1.05697E+00  1.05427E+00  2.69880E-03
    9106.518    112.402   5.600  1.05371E+00  1.05458E+00 -8.68439E-04
    9108.231    114.115   5.640  1.05139E+00  1.05476E+00 -3.37554E-03
    9109.956    115.840   5.680  1.04984E+00  1.05482E+00 -4.98487E-03
    9111.694    117.577   5.720  1.04875E+00  1.05473E+00 -5.98283E-03
    9113.443    119.327   5.760  1.04783E+00  1.05455E+00 -6.71841E-03
    9115.205    121.088   5.800  1.04667E+00  1.05424E+00 -7.56840E-03
    9116.979    122.862   5.840  1.04498E+00  1.05384E+00 -8.85736E-03
    9118.765    124.649   5.880  1.04257E+00  1.05330E+00 -1.07247E-02
    9120.563    126.447   5.920  1.03964E+00  1.05266E+00 -1.30229E-02
    9122.374    128.257   5.960  1.03655E+00  1.05192E+00 -1.53748E-02
    9124.196    130.080   6.000  1.03354E+00  1.05098E+00 -1.74397E-02
