# # comment:                                                     FEFF 9.9.1  
# # Source:
# # Structure
# # Reduced
# # space
# # abc:
# # angles:
# # sites:
# # POT  SCF 100  7.0000   0, screened core-hole, AFOLP (folp(0)= 1.150)
# # Abs   Z=29 Rmt= 1.206 Rnm= 1.297 K  shell
# # Pot 1 Z=56 Rmt= 2.000 Rnm= 2.032
# # Pot 2 Z=59 Rmt= 1.701 Rnm= 1.776
# # Pot 3 Z=29 Rmt= 1.206 Rnm= 1.297
# # Pot 4 Z= 8 Rmt= 1.069 Rnm= 1.121
# # Gam_ch=1.729E+00 H-L exch Vi= 0.000E+00 Vr= 0.000E+00
# # Mu=-8.591E+00eV kf=1.976E+00 Vint=-1.809E+01eV Rs_int= 1.836
# FMS rfms= 9.0000
# # PATH  Rmax=-1.000,  Keep_limit= 0.00, Heap_limit 0.00  Pwcrit= 2.50%
#  S02=0.950  Temp=   0.00  Debye_temp=   0.00  Global_sig2= 0.00000
#  Energy zero shift, vr, vi    0.00000E+00   0.00000E+00
#  Curved wave amplitude ratio filter   4.000%
#     file         sig2 tot  cw amp ratio   deg  nlegs   reff  inp sig2
#     0/   0 paths used
#  xsedge+ 50, used to normalize mu           2.4600E-04
#  -----------------------------------------------------------------------
#  omega    e    k    mu    mu0     chi     @#
    8985.132    -12.401  -1.000  4.19617E-02  5.45103E-02 -1.25487E-02
    8985.431    -12.102  -0.960  4.46545E-02  5.85055E-02 -1.38509E-02
    8985.717    -11.815  -0.920  4.76504E-02  6.29486E-02 -1.52982E-02
    8985.991    -11.541  -0.880  5.10011E-02  6.79061E-02 -1.69050E-02
    8986.253    -11.279  -0.840  5.47686E-02  7.34552E-02 -1.86867E-02
    8986.503    -11.029  -0.800  5.90272E-02  7.96855E-02 -2.06584E-02
    8986.741    -10.791  -0.760  6.38648E-02  8.66999E-02 -2.28351E-02
    8986.967    -10.566  -0.720  6.93839E-02  9.46146E-02 -2.52307E-02
    8987.180    -10.352  -0.680  7.57010E-02  1.03558E-01 -2.78567E-02
    8987.381    -10.151  -0.640  8.29431E-02  1.13665E-01 -3.07215E-02
    8987.570     -9.962  -0.600  9.12390E-02  1.25068E-01 -3.38291E-02
    8987.747     -9.785  -0.560  1.00704E-01  1.37882E-01 -3.71783E-02
    8987.912     -9.621  -0.520  1.11412E-01  1.52174E-01 -4.07623E-02
    8988.064     -9.468  -0.480  1.23362E-01  1.67930E-01 -4.45685E-02
    8988.204     -9.328  -0.440  1.36432E-01  1.85012E-01 -4.85795E-02
    8988.332     -9.200  -0.400  1.50348E-01  2.03120E-01 -5.27719E-02
    8988.448     -9.084  -0.360  1.64672E-01  2.21786E-01 -5.71137E-02
    8988.552     -8.981  -0.320  1.78843E-01  2.40400E-01 -6.15566E-02
    8988.643     -8.889  -0.280  1.92258E-01  2.58284E-01 -6.60262E-02
    8988.722     -8.810  -0.240  2.04376E-01  2.74790E-01 -7.04138E-02
    8988.789     -8.743  -0.200  2.14798E-01  2.89372E-01 -7.45740E-02
    8988.844     -8.688  -0.160  2.23303E-01  3.01635E-01 -7.83322E-02
    8988.887     -8.645  -0.120  2.29825E-01  3.11326E-01 -8.15010E-02
    8988.917     -8.615  -0.080  2.34397E-01  3.18306E-01 -8.39089E-02
    8988.942     -8.591   0.000  2.37958E-01  3.23913E-01 -8.59551E-02
    8988.997     -8.536   0.120  2.45337E-01  3.36558E-01 -9.12206E-02
    8989.039     -8.493   0.160  2.50885E-01  3.46361E-01 -9.54753E-02
    8989.094     -8.438   0.200  2.57576E-01  3.58902E-01 -1.01325E-01
    8989.161     -8.371   0.240  2.64888E-01  3.73963E-01 -1.09075E-01
    8989.241     -8.292   0.280  2.72115E-01  3.91236E-01 -1.19121E-01
    8989.332     -8.200   0.320  2.78388E-01  4.10270E-01 -1.31882E-01
    8989.436     -8.097   0.360  2.82770E-01  4.30486E-01 -1.47716E-01
    8989.551     -7.981   0.400  2.84579E-01  4.51332E-01 -1.66753E-01
    8989.679     -7.853   0.440  2.83521E-01  4.72206E-01 -1.88685E-01
    8989.820     -7.713   0.480  2.80019E-01  4.92687E-01 -2.12668E-01
    8989.972     -7.560   0.520  2.75169E-01  5.12531E-01 -2.37362E-01
    8990.137     -7.396   0.560  2.70372E-01  5.31575E-01 -2.61203E-01
    8990.313     -7.219   0.600  2.66963E-01  5.49806E-01 -2.82843E-01
    8990.502     -7.030   0.640  2.65873E-01  5.67285E-01 -3.01412E-01
    8990.704     -6.829   0.680  2.67467E-01  5.84070E-01 -3.16603E-01
    8990.917     -6.616   0.720  2.71692E-01  6.00253E-01 -3.28561E-01
    8991.142     -6.390   0.760  2.78436E-01  6.15965E-01 -3.37529E-01
    8991.380     -6.152   0.800  2.87634E-01  6.31269E-01 -3.43635E-01
    8991.630     -5.902   0.840  2.99273E-01  6.46252E-01 -3.46979E-01
    8991.892     -5.640   0.880  3.13236E-01  6.60951E-01 -3.47715E-01
    8992.167     -5.366   0.920  3.29502E-01  6.75405E-01 -3.45903E-01
    8992.453     -5.079   0.960  3.48364E-01  6.89664E-01 -3.41300E-01
    8992.752     -4.781   1.000  3.70075E-01  7.03744E-01 -3.33668E-01
    8993.063     -4.470   1.040  3.93899E-01  7.17654E-01 -3.23755E-01
    8993.386     -4.147   1.080  4.17643E-01  7.31374E-01 -3.13731E-01
    8993.721     -3.811   1.120  4.37828E-01  7.44898E-01 -3.07070E-01
    8994.069     -3.464   1.160  4.49137E-01  7.58257E-01 -3.09120E-01
    8994.428     -3.104   1.200  4.49446E-01  7.71393E-01 -3.21947E-01
    8994.800     -2.732   1.240  4.47050E-01  7.84289E-01 -3.37239E-01
    8995.184     -2.348   1.280  4.53277E-01  7.96962E-01 -3.43685E-01
    8995.580     -1.952   1.320  4.71082E-01  8.09351E-01 -3.38269E-01
    8995.989     -1.544   1.360  4.97323E-01  8.21471E-01 -3.24148E-01
    8996.409     -1.123   1.400  5.34801E-01  8.33276E-01 -2.98475E-01
    8996.842     -0.690   1.440  5.87854E-01  8.44739E-01 -2.56886E-01
    8997.287     -0.245   1.480  6.54930E-01  8.55877E-01 -2.00947E-01
    8997.744      0.212   1.520  7.38401E-01  8.66622E-01 -1.28221E-01
    8998.214      0.681   1.560  8.38447E-01  8.77010E-01 -3.85630E-02
    8998.695      1.163   1.600  9.51939E-01  8.86975E-01  6.49640E-02
    8999.189      1.657   1.640  1.08171E+00  8.96532E-01  1.85177E-01
    8999.695      2.163   1.680  1.21189E+00  9.05679E-01  3.06207E-01
    9000.213      2.681   1.720  1.30898E+00  9.14394E-01  3.94590E-01
    9000.744      3.211   1.760  1.40070E+00  9.22673E-01  4.78024E-01
    9001.286      3.754   1.800  1.52220E+00  9.30496E-01  5.91707E-01
    9001.841      4.308   1.840  1.61469E+00  9.37884E-01  6.76810E-01
    9002.408      4.875   1.880  1.59855E+00  9.44840E-01  6.53714E-01
    9002.987      5.455   1.920  1.49263E+00  9.51344E-01  5.41286E-01
    9003.578      6.046   1.960  1.36475E+00  9.57419E-01  4.07327E-01
    9004.182      6.649   2.000  1.24733E+00  9.63071E-01  2.84254E-01
    9004.797      7.265   2.040  1.14265E+00  9.68304E-01  1.74342E-01
    9005.425      7.893   2.080  1.06487E+00  9.73122E-01  9.17483E-02
    9006.065      8.533   2.120  1.02740E+00  9.77553E-01  4.98473E-02
    9006.718      9.185   2.160  1.01875E+00  9.81582E-01  3.71649E-02
    9007.382      9.850   2.200  1.02035E+00  9.85258E-01  3.50884E-02
    9008.059     10.526   2.240  1.02217E+00  9.88547E-01  3.36268E-02
    9008.748     11.215   2.280  1.02362E+00  9.91518E-01  3.21061E-02
    9009.449     11.916   2.320  1.02819E+00  9.94159E-01  3.40282E-02
    9010.162     12.629   2.360  1.03934E+00  9.96478E-01  4.28626E-02
    9010.887     13.355   2.400  1.05953E+00  9.98503E-01  6.10243E-02
    9011.625     14.093   2.440  1.07668E+00  1.00024E+00  7.64395E-02
    9012.375     14.842   2.480  1.08662E+00  1.00173E+00  8.48897E-02
    9013.137     15.604   2.520  1.09258E+00  1.00299E+00  8.95978E-02
    9013.911     16.379   2.560  1.09543E+00  1.00399E+00  9.14485E-02
    9014.697     17.165   2.600  1.09315E+00  1.00480E+00  8.83552E-02
    9015.496     17.963   2.640  1.08355E+00  1.00540E+00  7.81474E-02
    9016.307     18.774   2.680  1.06698E+00  1.00582E+00  6.11601E-02
    9017.130     19.597   2.720  1.04666E+00  1.00609E+00  4.05770E-02
    9017.965     20.432   2.760  1.02579E+00  1.00620E+00  1.95888E-02
    9018.812     21.280   2.800  1.00539E+00  1.00618E+00 -7.82182E-04
    9019.672     22.139   2.840  9.85326E-01  1.00601E+00 -2.06856E-02
    9020.543     23.011   2.880  9.65059E-01  1.00577E+00 -4.07131E-02
    9021.427     23.895   2.920  9.44337E-01  1.00542E+00 -6.10847E-02
    9022.323     24.791   2.960  9.23950E-01  1.00499E+00 -8.10363E-02
    9023.232     25.699   3.000  9.05080E-01  1.00447E+00 -9.93944E-02
    9024.152     26.620   3.040  8.88642E-01  1.00391E+00 -1.15269E-01
    9025.085     27.552   3.080  8.75193E-01  1.00330E+00 -1.28108E-01
    9026.030     28.497   3.120  8.64890E-01  1.00265E+00 -1.37759E-01
    9026.987     29.454   3.160  8.57339E-01  1.00196E+00 -1.44622E-01
    9027.956     30.424   3.200  8.52044E-01  1.00126E+00 -1.49215E-01
    9028.937     31.405   3.240  8.48761E-01  1.00053E+00 -1.51768E-01
    9029.931     32.399   3.280  8.47476E-01  9.99795E-01 -1.52319E-01
    9030.937     33.405   3.320  8.48417E-01  9.99080E-01 -1.50663E-01
    9031.955     34.423   3.360  8.51857E-01  9.98347E-01 -1.46490E-01
    9032.985     35.453   3.400  8.58090E-01  9.97642E-01 -1.39551E-01
    9034.028     36.495   3.440  8.67019E-01  9.96965E-01 -1.29946E-01
    9035.082     37.550   3.480  8.78626E-01  9.96299E-01 -1.17673E-01
    9036.149     38.617   3.520  8.93053E-01  9.95665E-01 -1.02611E-01
    9037.228     39.696   3.560  9.10451E-01  9.95045E-01 -8.45938E-02
    9038.319     40.787   3.600  9.30953E-01  9.94485E-01 -6.35318E-02
    9039.423     41.890   3.640  9.54312E-01  9.93962E-01 -3.96506E-02
    9040.538     43.006   3.680  9.79497E-01  9.93458E-01 -1.39613E-02
    9041.666     44.133   3.720  1.00471E+00  9.93014E-01  1.16918E-02
    9042.806     45.273   3.760  1.02772E+00  9.92591E-01  3.51239E-02
    9043.958     46.426   3.800  1.04637E+00  9.92233E-01  5.41332E-02
    9045.122     47.590   3.840  1.05892E+00  9.91938E-01  6.69817E-02
    9046.299     48.766   3.880  1.06460E+00  9.91665E-01  7.29304E-02
    9047.488     49.955   3.920  1.06374E+00  9.91435E-01  7.23004E-02
    9048.688     51.156   3.960  1.05747E+00  9.91269E-01  6.62000E-02
    9049.902     52.369   4.000  1.04759E+00  9.91148E-01  5.64397E-02
    9051.127     53.594   4.040  1.03626E+00  9.91071E-01  4.51939E-02
    9052.364     54.832   4.080  1.02550E+00  9.91056E-01  3.44390E-02
    9053.614     56.082   4.120  1.01677E+00  9.91063E-01  2.57065E-02
    9054.876     57.343   4.160  1.01109E+00  9.91133E-01  1.99547E-02
    9056.150     58.618   4.200  1.00877E+00  9.91222E-01  1.75469E-02
    9057.436     59.904   4.240  1.00973E+00  9.91371E-01  1.83604E-02
    9058.735     61.202   4.280  1.01348E+00  9.91561E-01  2.19184E-02
    9060.045     62.513   4.320  1.01938E+00  9.91768E-01  2.76124E-02
    9061.368     63.836   4.360  1.02681E+00  9.92032E-01  3.47797E-02
    9062.703     65.171   4.400  1.03518E+00  9.92311E-01  4.28713E-02
    9064.050     66.518   4.440  1.04421E+00  9.92626E-01  5.15886E-02
    9065.410     67.877   4.480  1.05382E+00  9.92974E-01  6.08436E-02
    9066.781     69.249   4.520  1.06390E+00  9.93332E-01  7.05703E-02
    9068.165     70.633   4.560  1.07416E+00  9.93723E-01  8.04325E-02
    9069.561     72.029   4.600  1.08353E+00  9.94144E-01  8.93817E-02
    9070.969     73.437   4.640  1.09012E+00  9.94550E-01  9.55719E-02
    9072.390     74.857   4.680  1.09192E+00  9.95005E-01  9.69107E-02
    9073.822     76.290   4.720  1.08742E+00  9.95442E-01  9.19794E-02
    9075.267     77.734   4.760  1.07665E+00  9.95902E-01  8.07458E-02
    9076.724     79.191   4.800  1.06092E+00  9.96343E-01  6.45810E-02
    9078.193     80.661   4.840  1.04238E+00  9.96806E-01  4.55770E-02
    9079.674     82.142   4.880  1.02305E+00  9.97268E-01  2.57802E-02
    9081.168     83.635   4.920  1.00441E+00  9.97726E-01  6.68193E-03
    9082.674     85.141   4.960  9.87277E-01  9.98158E-01 -1.08807E-02
    9084.191     86.659   5.000  9.72113E-01  9.98584E-01 -2.64714E-02
    9085.721     88.189   5.040  9.59182E-01  9.99006E-01 -3.98243E-02
    9087.264     89.731   5.080  9.48801E-01  9.99421E-01 -5.06194E-02
    9088.818     91.286   5.120  9.41323E-01  9.99804E-01 -5.84817E-02
    9090.385     92.853   5.160  9.36980E-01  1.00018E+00 -6.31980E-02
    9091.964     94.431   5.200  9.35663E-01  1.00052E+00 -6.48547E-02
    9093.555     96.022   5.240  9.36960E-01  1.00082E+00 -6.38625E-02
    9095.158     97.626   5.280  9.40360E-01  1.00111E+00 -6.07545E-02
    9096.773     99.241   5.320  9.45292E-01  1.00137E+00 -5.60808E-02
    9098.401    100.869   5.360  9.50928E-01  1.00162E+00 -5.06888E-02
    9100.041    102.509   5.400  9.56337E-01  1.00180E+00 -4.54638E-02
    9101.693    104.161   5.440  9.60954E-01  1.00197E+00 -4.10153E-02
    9103.357    105.825   5.480  9.64463E-01  1.00210E+00 -3.76368E-02
    9105.034    107.501   5.520  9.66823E-01  1.00219E+00 -3.53684E-02
    9106.722    109.190   5.560  9.68168E-01  1.00225E+00 -3.40780E-02
    9108.423    110.890   5.600  9.68798E-01  1.00228E+00 -3.34860E-02
    9110.136    112.603   5.640  9.69271E-01  1.00226E+00 -3.29900E-02
    9111.861    114.329   5.680  9.70325E-01  1.00222E+00 -3.18951E-02
    9113.598    116.066   5.720  9.72561E-01  1.00212E+00 -2.95574E-02
    9115.348    117.816   5.760  9.76539E-01  1.00200E+00 -2.54624E-02
    9117.110    119.577   5.800  9.82488E-01  1.00185E+00 -1.93582E-02
    9118.884    121.351   5.840  9.90091E-01  1.00165E+00 -1.15606E-02
    9120.670    123.137   5.880  9.98141E-01  1.00140E+00 -3.25611E-03
    9122.468    124.936   5.920  1.00476E+00  1.00116E+00  3.60625E-03
    9124.279    126.746   5.960  1.00792E+00  1.00086E+00  7.06391E-03
    9126.101    128.569   6.000  1.00654E+00  1.00049E+00  6.04313E-03
