# # comment:                                                     FEFF 9.9.1  
# # Source:
# # Structure
# # Reduced
# # space
# # abc:
# # angles:117.991051
# # sites:
# # POT  SCF 100  7.0000   0, screened core-hole, AFOLP (folp(0)= 1.150)
# # Abs   Z=29 Rmt= 1.268 Rnm= 1.333 K  shell
# # Pot 1 Z=38 Rmt= 1.803 Rnm= 1.856
# # Pot 2 Z=29 Rmt= 1.268 Rnm= 1.333
# # Pot 3 Z=76 Rmt= 1.251 Rnm= 1.388
# # Pot 4 Z= 8 Rmt= 1.026 Rnm= 1.081
# # Gam_ch=1.729E+00 H-L exch Vi= 0.000E+00 Vr= 0.000E+00
# # Mu=-8.138E+00eV kf=2.148E+00 Vint=-1.730E+01eV Rs_int= 1.688
# FMS rfms= 9.0000
# # PATH  Rmax=-1.000,  Keep_limit= 0.00, Heap_limit 0.00  Pwcrit= 2.50%
#  S02=0.950  Temp=   0.00  Debye_temp=   0.00  Global_sig2= 0.00000
#  Energy zero shift, vr, vi    0.00000E+00   0.00000E+00
#  Curved wave amplitude ratio filter   4.000%
#     file         sig2 tot  cw amp ratio   deg  nlegs   reff  inp sig2
#     0/   0 paths used
#  xsedge+ 50, used to normalize mu           2.4646E-04
#  -----------------------------------------------------------------------
#  omega    e    k    mu    mu0     chi     @#
    8984.384    -11.948  -1.000  3.62799E-02  5.31121E-02 -1.68322E-02
    8984.682    -11.650  -0.960  3.79464E-02  5.69660E-02 -1.90196E-02
    8984.969    -11.363  -0.920  3.97072E-02  6.12489E-02 -2.15417E-02
    8985.243    -11.089  -0.880  4.15692E-02  6.60241E-02 -2.44549E-02
    8985.505    -10.827  -0.840  4.35399E-02  7.13651E-02 -2.78252E-02
    8985.755    -10.577  -0.800  4.56283E-02  7.73574E-02 -3.17291E-02
    8985.993    -10.339  -0.760  4.78439E-02  8.40989E-02 -3.62550E-02
    8986.218    -10.114  -0.720  5.01974E-02  9.17002E-02 -4.15028E-02
    8986.432     -9.900  -0.680  5.27002E-02  1.00283E-01 -4.75832E-02
    8986.633     -9.699  -0.640  5.53637E-02  1.09977E-01 -5.46134E-02
    8986.822     -9.510  -0.600  5.81977E-02  1.20908E-01 -6.27101E-02
    8986.999     -9.333  -0.560  6.12077E-02  1.33183E-01 -7.19756E-02
    8987.163     -9.169  -0.520  6.43908E-02  1.46868E-01 -8.24772E-02
    8987.316     -9.016  -0.480  6.77298E-02  1.61948E-01 -9.42179E-02
    8987.456     -8.876  -0.440  7.11866E-02  1.78290E-01 -1.07103E-01
    8987.584     -8.748  -0.400  7.46977E-02  1.95610E-01 -1.20912E-01
    8987.700     -8.632  -0.360  7.81749E-02  2.13460E-01 -1.35285E-01
    8987.803     -8.529  -0.320  8.15143E-02  2.31259E-01 -1.49745E-01
    8987.895     -8.437  -0.280  8.46119E-02  2.48362E-01 -1.63750E-01
    8987.974     -8.358  -0.240  8.73801E-02  2.64147E-01 -1.76767E-01
    8988.041     -8.291  -0.200  8.97584E-02  2.78095E-01 -1.88337E-01
    8988.096     -8.236  -0.160  9.17139E-02  2.89828E-01 -1.98114E-01
    8988.139     -8.193  -0.120  9.32332E-02  2.99101E-01 -2.05868E-01
    8988.169     -8.163  -0.080  9.43129E-02  3.05782E-01 -2.11469E-01
    8988.193     -8.138   0.000  9.51656E-02  3.11150E-01 -2.15985E-01
    8988.248     -8.084   0.120  9.71630E-02  3.23241E-01 -2.26078E-01
    8988.291     -8.041   0.160  9.86741E-02  3.32637E-01 -2.33963E-01
    8988.346     -7.986   0.200  1.00601E-01  3.44654E-01 -2.44053E-01
    8988.413     -7.919   0.240  1.02875E-01  3.59089E-01 -2.56214E-01
    8988.492     -7.840   0.280  1.05466E-01  3.75650E-01 -2.70184E-01
    8988.584     -7.748   0.320  1.08393E-01  3.93933E-01 -2.85540E-01
    8988.687     -7.645   0.360  1.11614E-01  4.13370E-01 -3.01755E-01
    8988.803     -7.529   0.400  1.15268E-01  4.33441E-01 -3.18173E-01
    8988.931     -7.401   0.440  1.19422E-01  4.53575E-01 -3.34153E-01
    8989.071     -7.261   0.480  1.24305E-01  4.73414E-01 -3.49109E-01
    8989.224     -7.108   0.520  1.30130E-01  4.92668E-01 -3.62538E-01
    8989.388     -6.944   0.560  1.37258E-01  5.11220E-01 -3.73963E-01
    8989.565     -6.767   0.600  1.46057E-01  5.29039E-01 -3.82982E-01
    8989.754     -6.578   0.640  1.57129E-01  5.46184E-01 -3.89055E-01
    8989.955     -6.377   0.680  1.71268E-01  5.62726E-01 -3.91457E-01
    8990.169     -6.163   0.720  1.89622E-01  5.78749E-01 -3.89127E-01
    8990.394     -5.938   0.760  2.13840E-01  5.94363E-01 -3.80523E-01
    8990.632     -5.700   0.800  2.46155E-01  6.09641E-01 -3.63486E-01
    8990.882     -5.450   0.840  2.88939E-01  6.24647E-01 -3.35707E-01
    8991.144     -5.188   0.880  3.43092E-01  6.39431E-01 -2.96338E-01
    8991.418     -4.914   0.920  4.04668E-01  6.54027E-01 -2.49360E-01
    8991.705     -4.627   0.960  4.62494E-01  6.68463E-01 -2.05970E-01
    8992.003     -4.328   1.000  5.02793E-01  6.82754E-01 -1.79960E-01
    8992.314     -4.018   1.040  5.18274E-01  6.96903E-01 -1.78629E-01
    8992.637     -3.694   1.080  5.13471E-01  7.10930E-01 -1.97458E-01
    8992.973     -3.359   1.120  5.02783E-01  7.24805E-01 -2.22022E-01
    8993.320     -3.012   1.160  4.98232E-01  7.38516E-01 -2.40284E-01
    8993.680     -2.652   1.200  5.00050E-01  7.52046E-01 -2.51996E-01
    8994.052     -2.280   1.240  5.04786E-01  7.65393E-01 -2.60607E-01
    8994.436     -1.896   1.280  5.17386E-01  7.78516E-01 -2.61130E-01
    8994.832     -1.500   1.320  5.49305E-01  7.91390E-01 -2.42084E-01
    8995.240     -1.091   1.360  6.12909E-01  8.04008E-01 -1.91099E-01
    8995.661     -0.671   1.400  7.20806E-01  8.16323E-01 -9.55171E-02
    8996.094     -0.238   1.440  8.83403E-01  8.28328E-01  5.50743E-02
    8996.539      0.207   1.480  1.08934E+00  8.39998E-01  2.49341E-01
    8996.996      0.664   1.520  1.26316E+00  8.51321E-01  4.11836E-01
    8997.465      1.134   1.560  1.31804E+00  8.62252E-01  4.55788E-01
    8997.947      1.615   1.600  1.29801E+00  8.72807E-01  4.25202E-01
    8998.441      2.109   1.640  1.29686E+00  8.82938E-01  4.13923E-01
    8998.947      2.615   1.680  1.33776E+00  8.92662E-01  4.45095E-01
    8999.465      3.133   1.720  1.36324E+00  9.01953E-01  4.61284E-01
    8999.995      3.663   1.760  1.31909E+00  9.10811E-01  4.08280E-01
    9000.538      4.206   1.800  1.25612E+00  9.19213E-01  3.36907E-01
    9001.093      4.761   1.840  1.23073E+00  9.27177E-01  3.03550E-01
    9001.659      5.328   1.880  1.24133E+00  9.34686E-01  3.06639E-01
    9002.239      5.907   1.920  1.25903E+00  9.41759E-01  3.17268E-01
    9002.830      6.498   1.960  1.25809E+00  9.48380E-01  3.09713E-01
    9003.433      7.102   2.000  1.23835E+00  9.54551E-01  2.83800E-01
    9004.049      7.717   2.040  1.21304E+00  9.60296E-01  2.52746E-01
    9004.677      8.345   2.080  1.18126E+00  9.65621E-01  2.15639E-01
    9005.317      8.985   2.120  1.13346E+00  9.70531E-01  1.62927E-01
    9005.969      9.637   2.160  1.06950E+00  9.75033E-01  9.44714E-02
    9006.634     10.302   2.200  1.00382E+00  9.79153E-01  2.46624E-02
    9007.310     10.979   2.240  9.54544E-01  9.82899E-01 -2.83544E-02
    9007.999     11.667   2.280  9.31658E-01  9.86278E-01 -5.46193E-02
    9008.700     12.368   2.320  9.35271E-01  9.89318E-01 -5.40474E-02
    9009.414     13.082   2.360  9.57755E-01  9.92028E-01 -3.42732E-02
    9010.139     13.807   2.400  9.85993E-01  9.94416E-01 -8.42276E-03
    9010.877     14.545   2.440  1.00882E+00  9.96510E-01  1.23132E-02
    9011.626     15.295   2.480  1.02958E+00  9.98319E-01  3.12657E-02
    9012.388     16.057   2.520  1.04838E+00  9.99873E-01  4.85090E-02
    9013.163     16.831   2.560  1.04490E+00  1.00118E+00  4.37198E-02
    9013.949     17.617   2.600  1.01700E+00  1.00227E+00  1.47254E-02
    9014.748     18.416   2.640  9.83573E-01  1.00313E+00 -1.95558E-02
    9015.558     19.226   2.680  9.54176E-01  1.00381E+00 -4.96298E-02
    9016.381     20.049   2.720  9.31442E-01  1.00429E+00 -7.28465E-02
    9017.216     20.885   2.760  9.14500E-01  1.00461E+00 -9.01058E-02
    9018.064     21.732   2.800  9.01186E-01  1.00478E+00 -1.03598E-01
    9018.923     22.591   2.840  8.90294E-01  1.00481E+00 -1.14518E-01
    9019.795     23.463   2.880  8.82556E-01  1.00472E+00 -1.22160E-01
    9020.679     24.347   2.920  8.79778E-01  1.00452E+00 -1.24747E-01
    9021.575     25.243   2.960  8.83562E-01  1.00424E+00 -1.20682E-01
    9022.483     26.151   3.000  8.93676E-01  1.00386E+00 -1.10183E-01
    9023.404     27.072   3.040  9.07081E-01  1.00342E+00 -9.63361E-02
    9024.337     28.005   3.080  9.19876E-01  1.00292E+00 -8.30461E-02
    9025.281     28.950   3.120  9.29722E-01  1.00236E+00 -7.26381E-02
    9026.238     29.907   3.160  9.35643E-01  1.00176E+00 -6.61125E-02
    9027.208     30.876   3.200  9.38249E-01  1.00113E+00 -6.28854E-02
    9028.189     31.857   3.240  9.39124E-01  1.00048E+00 -6.13557E-02
    9029.183     32.851   3.280  9.39821E-01  9.99794E-01 -5.99728E-02
    9030.189     33.857   3.320  9.41896E-01  9.99124E-01 -5.72281E-02
    9031.207     34.875   3.360  9.46328E-01  9.98433E-01 -5.21050E-02
    9032.237     35.905   3.400  9.53506E-01  9.97764E-01 -4.42583E-02
    9033.279     36.947   3.440  9.62787E-01  9.97100E-01 -3.43133E-02
    9034.334     38.002   3.480  9.73365E-01  9.96465E-01 -2.30998E-02
    9035.401     39.069   3.520  9.84448E-01  9.95837E-01 -1.13885E-02
    9036.480     40.148   3.560  9.95267E-01  9.95219E-01  4.75378E-05
    9037.571     41.239   3.600  1.00492E+00  9.94656E-01  1.02645E-02
    9038.674     42.342   3.640  1.01198E+00  9.94110E-01  1.78734E-02
    9039.790     43.458   3.680  1.01505E+00  9.93601E-01  2.14444E-02
    9040.918     44.586   3.720  1.01368E+00  9.93152E-01  2.05263E-02
    9042.058     45.726   3.760  1.00910E+00  9.92720E-01  1.63835E-02
    9043.210     46.878   3.800  1.00361E+00  9.92327E-01  1.12810E-02
    9044.374     48.042   3.840  9.99364E-01  9.91976E-01  7.38814E-03
    9045.551     49.219   3.880  9.97904E-01  9.91689E-01  6.21519E-03
    9046.739     50.407   3.920  9.99625E-01  9.91442E-01  8.18337E-03
    9047.940     51.608   3.960  1.00386E+00  9.91215E-01  1.26452E-02
    9049.153     52.821   4.000  1.00938E+00  9.91051E-01  1.83324E-02
    9050.379     54.047   4.040  1.01503E+00  9.90930E-01  2.40957E-02
    9051.616     55.284   4.080  1.02044E+00  9.90852E-01  2.95883E-02
    9052.866     56.534   4.120  1.02608E+00  9.90835E-01  3.52453E-02
    9054.128     57.796   4.160  1.03265E+00  9.90838E-01  4.18173E-02
    9055.402     59.070   4.200  1.04046E+00  9.90879E-01  4.95769E-02
    9056.688     60.356   4.240  1.04878E+00  9.90959E-01  5.78191E-02
    9057.986     61.654   4.280  1.05618E+00  9.91102E-01  6.50787E-02
    9059.297     62.965   4.320  1.06121E+00  9.91260E-01  6.99455E-02
    9060.620     64.288   4.360  1.06323E+00  9.91455E-01  7.17717E-02
    9061.955     65.623   4.400  1.06248E+00  9.91687E-01  7.07950E-02
    9063.302     66.970   4.440  1.05963E+00  9.91953E-01  6.76775E-02
    9064.661     68.329   4.480  1.05495E+00  9.92230E-01  6.27179E-02
    9066.033     69.701   4.520  1.04808E+00  9.92539E-01  5.55416E-02
    9067.417     71.085   4.560  1.03860E+00  9.92858E-01  4.57421E-02
    9068.813     72.481   4.600  1.02704E+00  9.93207E-01  3.38345E-02
    9070.221     73.889   4.640  1.01487E+00  9.93587E-01  2.12836E-02
    9071.641     75.309   4.680  1.00372E+00  9.93972E-01  9.74924E-03
    9073.074     76.742   4.720  9.94552E-01  9.94361E-01  1.90750E-04
    9074.519     78.187   4.760  9.87567E-01  9.94753E-01 -7.18545E-03
    9075.976     79.644   4.800  9.82615E-01  9.95146E-01 -1.25312E-02
    9077.445     81.113   4.840  9.79303E-01  9.95563E-01 -1.62597E-02
    9078.926     82.594   4.880  9.76797E-01  9.95980E-01 -1.91828E-02
    9080.419     84.088   4.920  9.73984E-01  9.96371E-01 -2.23876E-02
    9081.925     85.593   4.960  9.70046E-01  9.96761E-01 -2.67147E-02
    9083.443     87.111   5.000  9.64934E-01  9.97166E-01 -3.22321E-02
    9084.973     88.641   5.040  9.59474E-01  9.97523E-01 -3.80492E-02
    9086.515     90.184   5.080  9.55109E-01  9.97894E-01 -4.27853E-02
    9088.070     91.738   5.120  9.52916E-01  9.98236E-01 -4.53199E-02
    9089.637     93.305   5.160  9.53278E-01  9.98570E-01 -4.52922E-02
    9091.215     94.884   5.200  9.55870E-01  9.98873E-01 -4.30026E-02
    9092.807     96.475   5.240  9.60068E-01  9.99164E-01 -3.90961E-02
    9094.410     98.078   5.280  9.65210E-01  9.99422E-01 -3.42123E-02
    9096.025     99.693   5.320  9.70766E-01  9.99667E-01 -2.89012E-02
    9097.653    101.321   5.360  9.76139E-01  9.99854E-01 -2.37151E-02
    9099.293    102.961   5.400  9.80873E-01  1.00003E+00 -1.91541E-02
    9100.945    104.613   5.440  9.84696E-01  1.00019E+00 -1.54910E-02
    9102.609    106.277   5.480  9.87499E-01  1.00029E+00 -1.27895E-02
    9104.285    107.953   5.520  9.89243E-01  1.00037E+00 -1.11308E-02
    9105.974    109.642   5.560  9.89693E-01  1.00042E+00 -1.07300E-02
    9107.675    111.343   5.600  9.88655E-01  1.00043E+00 -1.17770E-02
    9109.388    113.056   5.640  9.86240E-01  1.00041E+00 -1.41654E-02
    9111.113    114.781   5.680  9.83090E-01  1.00036E+00 -1.72723E-02
    9112.850    116.518   5.720  9.80279E-01  1.00026E+00 -1.99794E-02
    9114.600    118.268   5.760  9.79014E-01  1.00014E+00 -2.11237E-02
    9116.361    120.029   5.800  9.79812E-01  9.99957E-01 -2.01448E-02
    9118.135    121.803   5.840  9.82464E-01  9.99763E-01 -1.72992E-02
    9119.921    123.590   5.880  9.86196E-01  9.99536E-01 -1.33404E-02
    9121.720    125.388   5.920  9.89993E-01  9.99300E-01 -9.30639E-03
    9123.530    127.198   5.960  9.93255E-01  9.99002E-01 -5.74686E-03
    9125.353    129.021   6.000  9.95450E-01  9.98643E-01 -3.19319E-03
