# # comment:                                                     FEFF 9.9.1  
# # Source:
# # Structure
# # Reduced
# # space
# # abc:
# # angles:
# # sites:
# # POT  SCF 100  7.0000   0, screened core-hole, AFOLP (folp(0)= 1.150)
# # Abs   Z=29 Rmt= 1.281 Rnm= 1.340 K  shell
# # Pot 1 Z= 4 Rmt= 0.959 Rnm= 1.108
# # Pot 2 Z=29 Rmt= 1.300 Rnm= 1.363
# # Pot 3 Z=14 Rmt= 1.015 Rnm= 1.220
# # Pot 4 Z= 8 Rmt= 0.921 Rnm= 1.057
# # Gam_ch=1.729E+00 H-L exch Vi= 0.000E+00 Vr= 0.000E+00
# # Mu=-8.151E+00eV kf=2.359E+00 Vint=-1.786E+01eV Rs_int= 1.538
# FMS rfms= 9.0000
# # PATH  Rmax=-1.000,  Keep_limit= 0.00, Heap_limit 0.00  Pwcrit= 2.50%
#  S02=0.950  Temp=   0.00  Debye_temp=   0.00  Global_sig2= 0.00000
#  Energy zero shift, vr, vi    0.00000E+00   0.00000E+00
#  Curved wave amplitude ratio filter   4.000%
#     file         sig2 tot  cw amp ratio   deg  nlegs   reff  inp sig2
#     0/   0 paths used
#  xsedge+ 50, used to normalize mu           2.5078E-04
#  -----------------------------------------------------------------------
#  omega    e    k    mu    mu0     chi     @#
    8983.472    -11.960  -1.000  3.05493E-02  4.53928E-02 -1.48435E-02
    8983.771    -11.662  -0.960  3.18355E-02  4.85299E-02 -1.66944E-02
    8984.057    -11.375  -0.920  3.31879E-02  5.20069E-02 -1.88190E-02
    8984.331    -11.101  -0.880  3.46111E-02  5.58735E-02 -2.12624E-02
    8984.594    -10.839  -0.840  3.61100E-02  6.01876E-02 -2.40776E-02
    8984.844    -10.589  -0.800  3.76898E-02  6.50160E-02 -2.73262E-02
    8985.081    -10.351  -0.760  3.93564E-02  7.04357E-02 -3.10793E-02
    8985.307    -10.126  -0.720  4.11157E-02  7.65335E-02 -3.54178E-02
    8985.520     -9.912  -0.680  4.29738E-02  8.34049E-02 -4.04312E-02
    8985.721     -9.711  -0.640  4.49364E-02  9.11510E-02 -4.62146E-02
    8985.910     -9.522  -0.600  4.70079E-02  9.98706E-02 -5.28627E-02
    8986.087     -9.345  -0.560  4.91901E-02  1.09648E-01 -6.04579E-02
    8986.252     -9.181  -0.520  5.14805E-02  1.20533E-01 -6.90529E-02
    8986.404     -9.028  -0.480  5.38690E-02  1.32515E-01 -7.86456E-02
    8986.544     -8.888  -0.440  5.63356E-02  1.45487E-01 -8.91509E-02
    8986.672     -8.760  -0.400  5.88478E-02  1.59224E-01 -1.00377E-01
    8986.788     -8.644  -0.360  6.13596E-02  1.73375E-01 -1.12015E-01
    8986.892     -8.541  -0.320  6.38143E-02  1.87479E-01 -1.23665E-01
    8986.983     -8.449  -0.280  6.61491E-02  2.01029E-01 -1.34880E-01
    8987.062     -8.370  -0.240  6.83024E-02  2.13533E-01 -1.45231E-01
    8987.130     -8.303  -0.200  7.02185E-02  2.24583E-01 -1.54365E-01
    8987.184     -8.248  -0.160  7.18515E-02  2.33878E-01 -1.62026E-01
    8987.227     -8.205  -0.120  7.31653E-02  2.41225E-01 -1.68060E-01
    8987.258     -8.175  -0.080  7.41324E-02  2.46519E-01 -1.72386E-01
    8987.282     -8.151   0.000  7.49417E-02  2.50772E-01 -1.75830E-01
    8987.337     -8.096   0.120  7.67616E-02  2.60361E-01 -1.83599E-01
    8987.379     -8.053   0.160  7.81691E-02  2.67815E-01 -1.89646E-01
    8987.434     -7.998   0.200  7.99873E-02  2.77333E-01 -1.97346E-01
    8987.501     -7.931   0.240  8.22526E-02  2.88805E-01 -2.06552E-01
    8987.581     -7.852   0.280  8.49475E-02  3.01963E-01 -2.17016E-01
    8987.672     -7.760   0.320  8.81025E-02  3.16475E-01 -2.28373E-01
    8987.776     -7.657   0.360  9.18207E-02  3.31970E-01 -2.40149E-01
    8987.892     -7.541   0.400  9.61132E-02  3.47968E-01 -2.51855E-01
    8988.020     -7.413   0.440  1.01099E-01  3.64088E-01 -2.62989E-01
    8988.160     -7.273   0.480  1.06853E-01  3.80003E-01 -2.73150E-01
    8988.312     -7.120   0.520  1.13448E-01  3.95518E-01 -2.82071E-01
    8988.477     -6.956   0.560  1.20920E-01  4.10568E-01 -2.89648E-01
    8988.654     -6.779   0.600  1.29124E-01  4.25106E-01 -2.95982E-01
    8988.842     -6.590   0.640  1.37940E-01  4.39181E-01 -3.01241E-01
    8989.044     -6.389   0.680  1.47320E-01  4.52873E-01 -3.05553E-01
    8989.257     -6.175   0.720  1.57406E-01  4.66290E-01 -3.08884E-01
    8989.483     -5.950   0.760  1.68390E-01  4.79480E-01 -3.11090E-01
    8989.720     -5.712   0.800  1.80350E-01  4.92523E-01 -3.12174E-01
    8989.970     -5.462   0.840  1.93032E-01  5.05491E-01 -3.12460E-01
    8990.232     -5.200   0.880  2.05858E-01  5.18425E-01 -3.12568E-01
    8990.507     -4.926   0.920  2.18811E-01  5.31375E-01 -3.12564E-01
    8990.793     -4.639   0.960  2.33361E-01  5.44382E-01 -3.11021E-01
    8991.092     -4.341   1.000  2.52046E-01  5.57438E-01 -3.05391E-01
    8991.403     -4.030   1.040  2.76772E-01  5.70567E-01 -2.93794E-01
    8991.726     -3.707   1.080  3.07531E-01  5.83810E-01 -2.76279E-01
    8992.061     -3.371   1.120  3.42071E-01  5.97120E-01 -2.55049E-01
    8992.409     -3.024   1.160  3.76558E-01  6.10505E-01 -2.33947E-01
    8992.768     -2.664   1.200  4.08427E-01  6.23991E-01 -2.15564E-01
    8993.140     -2.292   1.240  4.39103E-01  6.37539E-01 -1.98436E-01
    8993.524     -1.908   1.280  4.72395E-01  6.51107E-01 -1.78712E-01
    8993.920     -1.512   1.320  5.10975E-01  6.64733E-01 -1.53758E-01
    8994.329     -1.104   1.360  5.56118E-01  6.78354E-01 -1.22236E-01
    8994.749     -0.683   1.400  6.08381E-01  6.91981E-01 -8.35997E-02
    8995.182     -0.250   1.440  6.65694E-01  7.05564E-01 -3.98697E-02
    8995.627      0.195   1.480  7.26035E-01  7.19076E-01  6.95838E-03
    8996.084      0.652   1.520  7.91741E-01  7.32528E-01  5.92126E-02
    8996.554      1.121   1.560  8.61804E-01  7.45847E-01  1.15957E-01
    8997.035      1.603   1.600  9.32190E-01  7.59041E-01  1.73149E-01
    8997.529      2.097   1.640  1.00298E+00  7.72061E-01  2.30924E-01
    8998.035      2.603   1.680  1.07110E+00  7.84895E-01  2.86206E-01
    8998.553      3.121   1.720  1.13106E+00  7.97512E-01  3.33544E-01
    8999.084      3.651   1.760  1.18051E+00  8.09899E-01  3.70608E-01
    8999.626      4.194   1.800  1.21166E+00  8.22024E-01  3.89634E-01
    9000.181      4.749   1.840  1.22283E+00  8.33839E-01  3.88993E-01
    9000.748      5.315   1.880  1.22460E+00  8.45373E-01  3.79229E-01
    9001.327      5.895   1.920  1.22612E+00  8.56556E-01  3.69564E-01
    9001.918      6.486   1.960  1.23290E+00  8.67397E-01  3.65508E-01
    9002.522      7.089   2.000  1.24202E+00  8.77870E-01  3.64148E-01
    9003.138      7.705   2.040  1.23085E+00  8.87946E-01  3.42905E-01
    9003.765      8.333   2.080  1.18258E+00  8.97639E-01  2.84944E-01
    9004.406      8.973   2.120  1.11839E+00  9.06902E-01  2.11485E-01
    9005.058      9.625   2.160  1.06770E+00  9.15773E-01  1.51924E-01
    9005.722     10.290   2.200  1.03536E+00  9.24186E-01  1.11169E-01
    9006.399     10.966   2.240  1.01609E+00  9.32178E-01  8.39137E-02
    9007.088     11.655   2.280  1.01058E+00  9.39728E-01  7.08564E-02
    9007.789     12.356   2.320  1.02057E+00  9.46834E-01  7.37392E-02
    9008.502     13.070   2.360  1.04434E+00  9.53496E-01  9.08411E-02
    9009.227     13.795   2.400  1.07567E+00  9.59735E-01  1.15932E-01
    9009.965     14.533   2.440  1.10067E+00  9.65511E-01  1.35163E-01
    9010.715     15.282   2.480  1.10561E+00  9.70848E-01  1.34765E-01
    9011.477     16.044   2.520  1.08647E+00  9.75768E-01  1.10701E-01
    9012.251     16.819   2.560  1.04620E+00  9.80256E-01  6.59484E-02
    9013.037     17.605   2.600  9.91592E-01  9.84336E-01  7.25580E-03
    9013.836     18.404   2.640  9.31794E-01  9.88014E-01 -5.62191E-02
    9014.647     19.214   2.680  8.77052E-01  9.91315E-01 -1.14263E-01
    9015.470     20.037   2.720  8.37438E-01  9.94226E-01 -1.56788E-01
    9016.305     20.872   2.760  8.23716E-01  9.96773E-01 -1.73056E-01
    9017.152     21.720   2.800  8.27510E-01  9.98962E-01 -1.71452E-01
    9018.012     22.579   2.840  8.34531E-01  1.00082E+00 -1.66292E-01
    9018.883     23.451   2.880  8.40706E-01  1.00236E+00 -1.61656E-01
    9019.767     24.335   2.920  8.45485E-01  1.00359E+00 -1.58102E-01
    9020.663     25.231   2.960  8.49544E-01  1.00453E+00 -1.54984E-01
    9021.572     26.139   3.000  8.53685E-01  1.00521E+00 -1.51528E-01
    9022.492     27.060   3.040  8.58382E-01  1.00563E+00 -1.47250E-01
    9023.425     27.993   3.080  8.63913E-01  1.00583E+00 -1.41919E-01
    9024.370     28.937   3.120  8.70330E-01  1.00580E+00 -1.35470E-01
    9025.327     29.894   3.160  8.77425E-01  1.00556E+00 -1.28140E-01
    9026.296     30.864   3.200  8.85004E-01  1.00514E+00 -1.20132E-01
    9027.278     31.845   3.240  8.93171E-01  1.00456E+00 -1.11390E-01
    9028.271     32.839   3.280  9.02111E-01  1.00381E+00 -1.01697E-01
    9029.277     33.845   3.320  9.11876E-01  1.00293E+00 -9.10491E-02
    9030.295     34.863   3.360  9.22644E-01  1.00192E+00 -7.92748E-02
    9031.325     35.893   3.400  9.34579E-01  1.00080E+00 -6.62193E-02
    9032.368     36.935   3.440  9.47659E-01  9.99613E-01 -5.19540E-02
    9033.422     37.990   3.480  9.61761E-01  9.98325E-01 -3.65643E-02
    9034.489     39.057   3.520  9.76874E-01  9.96962E-01 -2.00883E-02
    9035.568     40.136   3.560  9.92851E-01  9.95572E-01 -2.72041E-03
    9036.659     41.227   3.600  1.00927E+00  9.94118E-01  1.51500E-02
    9037.763     42.330   3.640  1.02559E+00  9.92628E-01  3.29662E-02
    9038.878     43.446   3.680  1.04098E+00  9.91128E-01  4.98542E-02
    9040.006     44.574   3.720  1.05433E+00  9.89624E-01  6.47053E-02
    9041.146     45.714   3.760  1.06469E+00  9.88121E-01  7.65666E-02
    9042.298     46.866   3.800  1.07149E+00  9.86642E-01  8.48457E-02
    9043.462     48.030   3.840  1.07458E+00  9.85170E-01  8.94085E-02
    9044.639     49.207   3.880  1.07438E+00  9.83710E-01  9.06696E-02
    9045.828     50.395   3.920  1.07164E+00  9.82285E-01  8.93543E-02
    9047.029     51.596   3.960  1.06720E+00  9.80922E-01  8.62791E-02
    9048.242     52.809   4.000  1.06176E+00  9.79601E-01  8.21565E-02
    9049.467     54.035   4.040  1.05584E+00  9.78325E-01  7.75155E-02
    9050.704     55.272   4.080  1.04963E+00  9.77095E-01  7.25384E-02
    9051.954     56.522   4.120  1.04311E+00  9.75936E-01  6.71732E-02
    9053.216     57.784   4.160  1.03620E+00  9.74848E-01  6.13563E-02
    9054.490     59.058   4.200  1.02893E+00  9.73814E-01  5.51134E-02
    9055.776     60.344   4.240  1.02149E+00  9.72877E-01  4.86138E-02
    9057.075     61.642   4.280  1.01415E+00  9.71995E-01  4.21541E-02
    9058.385     62.953   4.320  1.00723E+00  9.71189E-01  3.60409E-02
    9059.708     64.276   4.360  1.00084E+00  9.70461E-01  3.03816E-02
    9061.043     65.611   4.400  9.94925E-01  9.69813E-01  2.51120E-02
    9062.390     66.958   4.440  9.89285E-01  9.69245E-01  2.00398E-02
    9063.750     68.317   4.480  9.83669E-01  9.68777E-01  1.48920E-02
    9065.121     69.689   4.520  9.77848E-01  9.68368E-01  9.48080E-03
    9066.505     71.073   4.560  9.71853E-01  9.68034E-01  3.81832E-03
    9067.901     72.469   4.600  9.65893E-01  9.67780E-01 -1.88675E-03
    9069.309     73.877   4.640  9.60278E-01  9.67603E-01 -7.32515E-03
    9070.730     75.297   4.680  9.55277E-01  9.67504E-01 -1.22271E-02
    9072.162     76.730   4.720  9.50947E-01  9.67483E-01 -1.65358E-02
    9073.607     78.175   4.760  9.47127E-01  9.67536E-01 -2.04088E-02
    9075.064     79.632   4.800  9.43518E-01  9.67641E-01 -2.41223E-02
    9076.533     81.101   4.840  9.39913E-01  9.67819E-01 -2.79060E-02
    9078.014     82.582   4.880  9.36287E-01  9.68068E-01 -3.17811E-02
    9079.508     84.075   4.920  9.32816E-01  9.68364E-01 -3.55483E-02
    9081.014     85.581   4.960  9.29843E-01  9.68706E-01 -3.88625E-02
    9082.532     87.099   5.000  9.27816E-01  9.69115E-01 -4.12984E-02
    9084.062     88.629   5.040  9.27064E-01  9.69567E-01 -4.25031E-02
    9085.604     90.171   5.080  9.27729E-01  9.70060E-01 -4.23308E-02
    9087.158     91.726   5.120  9.29683E-01  9.70592E-01 -4.09092E-02
    9088.725     93.293   5.160  9.32528E-01  9.71161E-01 -3.86332E-02
    9090.304     94.871   5.200  9.35806E-01  9.71766E-01 -3.59598E-02
    9091.895     96.463   5.240  9.39154E-01  9.72381E-01 -3.32269E-02
    9093.498     98.066   5.280  9.42534E-01  9.73024E-01 -3.04908E-02
    9095.114     99.681   5.320  9.46118E-01  9.73675E-01 -2.75569E-02
    9096.741    101.309   5.360  9.50151E-01  9.74330E-01 -2.41787E-02
    9098.381    102.949   5.400  9.54702E-01  9.75010E-01 -2.03073E-02
    9100.033    104.601   5.440  9.59505E-01  9.75690E-01 -1.61843E-02
    9101.697    106.265   5.480  9.64156E-01  9.76343E-01 -1.21870E-02
    9103.374    107.941   5.520  9.68410E-01  9.76991E-01 -8.58109E-03
    9105.062    109.630   5.560  9.72203E-01  9.77632E-01 -5.42951E-03
    9106.763    111.331   5.600  9.75504E-01  9.78244E-01 -2.73929E-03
    9108.476    113.044   5.640  9.78232E-01  9.78844E-01 -6.12269E-04
    9110.201    114.769   5.680  9.80186E-01  9.79412E-01  7.74259E-04
    9111.938    116.506   5.720  9.81275E-01  9.79965E-01  1.30993E-03
    9113.688    118.256   5.760  9.81578E-01  9.80456E-01  1.12143E-03
    9115.450    120.017   5.800  9.81528E-01  9.80907E-01  6.21222E-04
    9117.224    121.791   5.840  9.81720E-01  9.81338E-01  3.82767E-04
    9119.010    123.577   5.880  9.82618E-01  9.81703E-01  9.14633E-04
    9120.808    125.376   5.920  9.84535E-01  9.82021E-01  2.51387E-03
    9122.619    127.186   5.960  9.87513E-01  9.82284E-01  5.22914E-03
    9124.441    129.009   6.000  9.91430E-01  9.82448E-01  8.98153E-03
