# # comment:                                                     FEFF 9.9.1  
# # Source:
# # Structure
# # Reduced
# # space
# # abc:
# # angles:
# # sites:
# # POT  SCF 100  7.0000   0, screened core-hole, AFOLP (folp(0)= 1.150)
# # Abs   Z=29 Rmt= 1.244 Rnm= 1.332 K  shell
# # Pot 1 Z= 3 Rmt= 1.286 Rnm= 1.379
# # Pot 2 Z=29 Rmt= 1.244 Rnm= 1.332
# # Pot 3 Z=14 Rmt= 1.002 Rnm= 1.216
# # Pot 4 Z= 8 Rmt= 0.931 Rnm= 1.075
# # Gam_ch=1.729E+00 H-L exch Vi= 0.000E+00 Vr= 0.000E+00
# # Mu=-8.226E+00eV kf=2.318E+00 Vint=-1.735E+01eV Rs_int= 1.564
# FMS rfms= 9.0000
# # PATH  Rmax=-1.000,  Keep_limit= 0.00, Heap_limit 0.00  Pwcrit= 2.50%
#  S02=0.950  Temp=   0.00  Debye_temp=   0.00  Global_sig2= 0.00000
#  Energy zero shift, vr, vi    0.00000E+00   0.00000E+00
#  Curved wave amplitude ratio filter   4.000%
#     file         sig2 tot  cw amp ratio   deg  nlegs   reff  inp sig2
#     0/   0 paths used
#  xsedge+ 50, used to normalize mu           2.4795E-04
#  -----------------------------------------------------------------------
#  omega    e    k    mu    mu0     chi     @#
    8983.739    -12.036  -1.000  3.74916E-02  5.18215E-02 -1.43299E-02
    8984.037    -11.737  -0.960  3.94606E-02  5.55387E-02 -1.60781E-02
    8984.324    -11.451  -0.920  4.15803E-02  5.96663E-02 -1.80860E-02
    8984.598    -11.177  -0.880  4.38673E-02  6.42645E-02 -2.03972E-02
    8984.860    -10.915  -0.840  4.63404E-02  6.94034E-02 -2.30630E-02
    8985.110    -10.665  -0.800  4.90208E-02  7.51643E-02 -2.61435E-02
    8985.348    -10.427  -0.760  5.19323E-02  8.16403E-02 -2.97080E-02
    8985.573    -10.201  -0.720  5.51011E-02  8.89369E-02 -3.38358E-02
    8985.787     -9.988  -0.680  5.85552E-02  9.71699E-02 -3.86147E-02
    8985.988     -9.787  -0.640  6.23232E-02  1.06462E-01 -4.41386E-02
    8986.177     -9.598  -0.600  6.64317E-02  1.16933E-01 -5.05009E-02
    8986.354     -9.421  -0.560  7.09018E-02  1.28685E-01 -5.77832E-02
    8986.518     -9.256  -0.520  7.57421E-02  1.41779E-01 -6.60374E-02
    8986.671     -9.104  -0.480  8.09412E-02  1.56202E-01 -7.52611E-02
    8986.811     -8.964  -0.440  8.64578E-02  1.71827E-01 -8.53692E-02
    8986.939     -8.836  -0.400  9.22121E-02  1.88382E-01 -9.61697E-02
    8987.055     -8.720  -0.360  9.80829E-02  2.05440E-01 -1.07357E-01
    8987.158     -8.616  -0.320  1.03913E-01  2.22448E-01 -1.18535E-01
    8987.250     -8.525  -0.280  1.09523E-01  2.38789E-01 -1.29266E-01
    8987.329     -8.446  -0.240  1.14735E-01  2.53872E-01 -1.39138E-01
    8987.396     -8.379  -0.200  1.19386E-01  2.67202E-01 -1.47816E-01
    8987.451     -8.324  -0.160  1.23347E-01  2.78415E-01 -1.55068E-01
    8987.494     -8.281  -0.120  1.26522E-01  2.87279E-01 -1.60757E-01
    8987.524     -8.251  -0.080  1.28843E-01  2.93665E-01 -1.64821E-01
    8987.549     -8.226   0.000  1.30755E-01  2.98795E-01 -1.68041E-01
    8987.603     -8.171   0.120  1.35003E-01  3.10364E-01 -1.75361E-01
    8987.646     -8.129   0.160  1.38308E-01  3.19357E-01 -1.81049E-01
    8987.701     -8.074   0.200  1.42576E-01  3.30842E-01 -1.88267E-01
    8987.768     -8.007   0.240  1.47801E-01  3.44647E-01 -1.96846E-01
    8987.847     -7.928   0.280  1.53948E-01  3.60517E-01 -2.06569E-01
    8987.939     -7.836   0.320  1.60954E-01  3.78029E-01 -2.17075E-01
    8988.042     -7.732   0.360  1.68741E-01  3.96705E-01 -2.27964E-01
    8988.158     -7.617   0.400  1.77150E-01  4.15974E-01 -2.38824E-01
    8988.286     -7.489   0.440  1.86101E-01  4.35371E-01 -2.49270E-01
    8988.426     -7.348   0.480  1.95505E-01  4.54502E-01 -2.58997E-01
    8988.579     -7.196   0.520  2.05417E-01  4.73111E-01 -2.67694E-01
    8988.743     -7.031   0.560  2.16053E-01  4.91106E-01 -2.75053E-01
    8988.920     -6.855   0.600  2.27726E-01  5.08462E-01 -2.80736E-01
    8989.109     -6.666   0.640  2.40787E-01  5.25211E-01 -2.84424E-01
    8989.310     -6.464   0.680  2.55411E-01  5.41441E-01 -2.86030E-01
    8989.524     -6.251   0.720  2.71495E-01  5.57236E-01 -2.85741E-01
    8989.749     -6.026   0.760  2.88711E-01  5.72678E-01 -2.83967E-01
    8989.987     -5.788   0.800  3.06851E-01  5.87856E-01 -2.81005E-01
    8990.237     -5.538   0.840  3.25976E-01  6.02832E-01 -2.76856E-01
    8990.499     -5.276   0.880  3.46479E-01  6.17652E-01 -2.71173E-01
    8990.773     -5.001   0.920  3.69016E-01  6.32350E-01 -2.63334E-01
    8991.060     -4.715   0.960  3.94637E-01  6.46948E-01 -2.52312E-01
    8991.359     -4.416   1.000  4.24391E-01  6.61481E-01 -2.37090E-01
    8991.669     -4.105   1.040  4.58775E-01  6.75931E-01 -2.17157E-01
    8991.993     -3.782   1.080  4.97353E-01  6.90317E-01 -1.92964E-01
    8992.328     -3.447   1.120  5.38029E-01  7.04608E-01 -1.66580E-01
    8992.675     -3.099   1.160  5.78035E-01  7.18811E-01 -1.40777E-01
    8993.035     -2.740   1.200  6.15959E-01  7.32888E-01 -1.16929E-01
    8993.407     -2.368   1.240  6.51342E-01  7.46836E-01 -9.54931E-02
    8993.791     -1.984   1.280  6.81780E-01  7.60610E-01 -7.88294E-02
    8994.187     -1.588   1.320  7.03622E-01  7.74205E-01 -7.05831E-02
    8994.596     -1.179   1.360  7.16548E-01  7.87594E-01 -7.10463E-02
    8995.016     -0.759   1.400  7.23938E-01  8.00727E-01 -7.67895E-02
    8995.449     -0.326   1.440  7.27569E-01  8.13575E-01 -8.60060E-02
    8995.894      0.119   1.480  7.27497E-01  8.26149E-01 -9.86514E-02
    8996.351      0.576   1.520  7.26143E-01  8.38397E-01 -1.12253E-01
    8996.821      1.046   1.560  7.27999E-01  8.50311E-01 -1.22312E-01
    8997.302      1.527   1.600  7.40896E-01  8.61843E-01 -1.20947E-01
    8997.796      2.021   1.640  7.75064E-01  8.72983E-01 -9.79192E-02
    8998.302      2.527   1.680  8.33292E-01  8.83724E-01 -5.04320E-02
    8998.820      3.045   1.720  9.09712E-01  8.94060E-01  1.56527E-02
    8999.350      3.576   1.760  9.95613E-01  9.03944E-01  9.16687E-02
    8999.893      4.118   1.800  1.07694E+00  9.13373E-01  1.63564E-01
    9000.448      4.673   1.840  1.13631E+00  9.22342E-01  2.13971E-01
    9001.015      5.240   1.880  1.17066E+00  9.30869E-01  2.39792E-01
    9001.594      5.819   1.920  1.19730E+00  9.38912E-01  2.58387E-01
    9002.185      6.410   1.960  1.23378E+00  9.46492E-01  2.87290E-01
    9002.789      7.014   2.000  1.28118E+00  9.53589E-01  3.27588E-01
    9003.404      7.629   2.040  1.32417E+00  9.60246E-01  3.63922E-01
    9004.032      8.257   2.080  1.34475E+00  9.66424E-01  3.78328E-01
    9004.672      8.897   2.120  1.33595E+00  9.72148E-01  3.63800E-01
    9005.324      9.550   2.160  1.30599E+00  9.77423E-01  3.28564E-01
    9005.989     10.214   2.200  1.26935E+00  9.82273E-01  2.87072E-01
    9006.666     10.891   2.240  1.23133E+00  9.86685E-01  2.44644E-01
    9007.354     11.580   2.280  1.18991E+00  9.90686E-01  1.99223E-01
    9008.055     12.281   2.320  1.14745E+00  9.94303E-01  1.53148E-01
    9008.769     12.994   2.360  1.11060E+00  9.97523E-01  1.13079E-01
    9009.494     13.719   2.400  1.08177E+00  1.00037E+00  8.13978E-02
    9010.232     14.457   2.440  1.05900E+00  1.00289E+00  5.61130E-02
    9010.982     15.207   2.480  1.04040E+00  1.00504E+00  3.53513E-02
    9011.744     15.969   2.520  1.02477E+00  1.00690E+00  1.78675E-02
    9012.518     16.743   2.560  1.01137E+00  1.00844E+00  2.93003E-03
    9013.304     17.529   2.600  1.00043E+00  1.00970E+00 -9.26448E-03
    9014.103     18.328   2.640  9.92446E-01  1.01070E+00 -1.82537E-02
    9014.913     19.139   2.680  9.84849E-01  1.01146E+00 -2.66058E-02
    9015.736     19.962   2.720  9.75321E-01  1.01197E+00 -3.66519E-02
    9016.572     20.797   2.760  9.63990E-01  1.01228E+00 -4.82900E-02
    9017.419     21.644   2.800  9.51522E-01  1.01241E+00 -6.08846E-02
    9018.278     22.504   2.840  9.38963E-01  1.01232E+00 -7.33565E-02
    9019.150     23.375   2.880  9.27917E-01  1.01209E+00 -8.41726E-02
    9020.034     24.259   2.920  9.19602E-01  1.01170E+00 -9.21006E-02
    9020.930     25.155   2.960  9.14958E-01  1.01119E+00 -9.62306E-02
    9021.838     26.064   3.000  9.14312E-01  1.01057E+00 -9.62620E-02
    9022.759     26.984   3.040  9.16909E-01  1.00982E+00 -9.29137E-02
    9023.692     27.917   3.080  9.21607E-01  1.00900E+00 -8.73981E-02
    9024.636     28.862   3.120  9.27151E-01  1.00809E+00 -8.09351E-02
    9025.594     29.819   3.160  9.32237E-01  1.00711E+00 -7.48749E-02
    9026.563     30.788   3.200  9.35965E-01  1.00609E+00 -7.01241E-02
    9027.544     31.769   3.240  9.38005E-01  1.00500E+00 -6.69963E-02
    9028.538     32.763   3.280  9.38527E-01  1.00390E+00 -6.53699E-02
    9029.544     33.769   3.320  9.37924E-01  1.00276E+00 -6.48343E-02
    9030.562     34.787   3.360  9.36786E-01  1.00161E+00 -6.48256E-02
    9031.592     35.817   3.400  9.35811E-01  1.00046E+00 -6.46499E-02
    9032.634     36.860   3.440  9.35443E-01  9.99309E-01 -6.38664E-02
    9033.689     37.914   3.480  9.36154E-01  9.98161E-01 -6.20068E-02
    9034.756     38.981   3.520  9.38377E-01  9.97017E-01 -5.86397E-02
    9035.835     40.060   3.560  9.42434E-01  9.95903E-01 -5.34688E-02
    9036.926     41.151   3.600  9.48448E-01  9.94825E-01 -4.63779E-02
    9038.029     42.255   3.640  9.56381E-01  9.93784E-01 -3.74035E-02
    9039.145     43.370   3.680  9.65935E-01  9.92779E-01 -2.68447E-02
    9040.273     44.498   3.720  9.76456E-01  9.91792E-01 -1.53359E-02
    9041.413     45.638   3.760  9.87229E-01  9.90867E-01 -3.63779E-03
    9042.565     46.790   3.800  9.97445E-01  9.89986E-01  7.45928E-03
    9043.729     47.954   3.840  1.00630E+00  9.89150E-01  1.71552E-02
    9044.906     49.131   3.880  1.01329E+00  9.88380E-01  2.49118E-02
    9046.094     50.320   3.920  1.01819E+00  9.87659E-01  3.05305E-02
    9047.295     51.520   3.960  1.02118E+00  9.87006E-01  3.41765E-02
    9048.508     52.734   4.000  1.02272E+00  9.86399E-01  3.63211E-02
    9049.734     53.959   4.040  1.02343E+00  9.85841E-01  3.75906E-02
    9050.971     55.196   4.080  1.02384E+00  9.85354E-01  3.84903E-02
    9052.221     56.446   4.120  1.02421E+00  9.84939E-01  3.92712E-02
    9053.483     57.708   4.160  1.02457E+00  9.84573E-01  3.99940E-02
    9054.757     58.982   4.200  1.02484E+00  9.84275E-01  4.05620E-02
    9056.043     60.268   4.240  1.02485E+00  9.84025E-01  4.08239E-02
    9057.341     61.567   4.280  1.02450E+00  9.83823E-01  4.06799E-02
    9058.652     62.877   4.320  1.02383E+00  9.83689E-01  4.01367E-02
    9059.975     64.200   4.360  1.02283E+00  9.83602E-01  3.92305E-02
    9061.310     65.535   4.400  1.02156E+00  9.83583E-01  3.79790E-02
    9062.657     66.882   4.440  1.02000E+00  9.83608E-01  3.63956E-02
    9064.016     68.242   4.480  1.01815E+00  9.83679E-01  3.44712E-02
    9065.388     69.613   4.520  1.01608E+00  9.83814E-01  3.22634E-02
    9066.772     70.997   4.560  1.01388E+00  9.83968E-01  2.99067E-02
    9068.168     72.393   4.600  1.01170E+00  9.84185E-01  2.75179E-02
    9069.576     73.801   4.640  1.00955E+00  9.84420E-01  2.51330E-02
    9070.996     75.222   4.680  1.00744E+00  9.84713E-01  2.27229E-02
    9072.429     76.654   4.720  1.00528E+00  9.85022E-01  2.02552E-02
    9073.874     78.099   4.760  1.00311E+00  9.85365E-01  1.77459E-02
    9075.331     79.556   4.800  1.00100E+00  9.85742E-01  1.52530E-02
    9076.800     81.025   4.840  9.98910E-01  9.86130E-01  1.27808E-02
    9078.281     82.506   4.880  9.96756E-01  9.86550E-01  1.02065E-02
    9079.775     84.000   4.920  9.94305E-01  9.86998E-01  7.30734E-03
    9081.280     85.505   4.960  9.91296E-01  9.87430E-01  3.86599E-03
    9082.798     87.023   5.000  9.87688E-01  9.87889E-01 -2.00958E-04
    9084.328     88.553   5.040  9.83572E-01  9.88373E-01 -4.80087E-03
    9085.871     90.096   5.080  9.79128E-01  9.88836E-01 -9.70838E-03
    9087.425     91.650   5.120  9.74665E-01  9.89296E-01 -1.46307E-02
    9088.992     93.217   5.160  9.70452E-01  9.89754E-01 -1.93011E-02
    9090.571     94.796   5.200  9.66699E-01  9.90209E-01 -2.35092E-02
    9092.162     96.387   5.240  9.63532E-01  9.90659E-01 -2.71271E-02
    9093.765     97.990   5.280  9.61024E-01  9.91080E-01 -3.00563E-02
    9095.380     99.605   5.320  9.59319E-01  9.91494E-01 -3.21744E-02
    9097.008    101.233   5.360  9.58596E-01  9.91900E-01 -3.33037E-02
    9098.648    102.873   5.400  9.59017E-01  9.92273E-01 -3.32561E-02
    9100.300    104.525   5.440  9.60689E-01  9.92612E-01 -3.19221E-02
    9101.964    106.189   5.480  9.63553E-01  9.92937E-01 -2.93844E-02
    9103.640    107.866   5.520  9.67255E-01  9.93227E-01 -2.59716E-02
    9105.329    109.554   5.560  9.71236E-01  9.93480E-01 -2.22434E-02
    9107.030    111.255   5.600  9.74844E-01  9.93696E-01 -1.88519E-02
    9108.743    112.968   5.640  9.77554E-01  9.93896E-01 -1.63413E-02
    9110.468    114.693   5.680  9.79094E-01  9.94035E-01 -1.49410E-02
    9112.205    116.430   5.720  9.79660E-01  9.94158E-01 -1.44977E-02
    9113.955    118.180   5.760  9.79686E-01  9.94241E-01 -1.45551E-02
    9115.716    119.942   5.800  9.79717E-01  9.94261E-01 -1.45436E-02
    9117.490    121.716   5.840  9.80298E-01  9.94262E-01 -1.39640E-02
    9119.276    123.502   5.880  9.81670E-01  9.94201E-01 -1.25308E-02
    9121.075    125.300   5.920  9.83870E-01  9.94123E-01 -1.02532E-02
    9122.885    127.111   5.960  9.86569E-01  9.93978E-01 -7.40956E-03
    9124.708    128.933   6.000  9.89449E-01  9.93793E-01 -4.34410E-03
