# # comment:                                                     FEFF 9.9.1  
# # Source:
# # Structure
# # Reduced
# # space
# # abc:
# # angles:
# # sites:
# # POT  SCF 100  7.0000   0, screened core-hole, AFOLP (folp(0)= 1.150)
# # Abs   Z=29 Rmt= 1.145 Rnm= 1.237 K  shell
# # Pot 1 Z= 3 Rmt= 1.254 Rnm= 1.300
# # Pot 2 Z=29 Rmt= 1.145 Rnm= 1.237
# # Pot 3 Z=28 Rmt= 1.228 Rnm= 1.334
# # Pot 4 Z= 8 Rmt= 1.030 Rnm= 1.086
# # Gam_ch=1.729E+00 H-L exch Vi= 0.000E+00 Vr= 0.000E+00
# # Mu=-1.090E+01eV kf=2.156E+00 Vint=-1.878E+01eV Rs_int= 1.682
# FMS rfms= 9.0000
# # PATH  Rmax=-1.000,  Keep_limit= 0.00, Heap_limit 0.00  Pwcrit= 2.50%
#  S02=0.950  Temp=   0.00  Debye_temp=   0.00  Global_sig2= 0.00000
#  Energy zero shift, vr, vi    0.00000E+00   0.00000E+00
#  Curved wave amplitude ratio filter   4.000%
#     file         sig2 tot  cw amp ratio   deg  nlegs   reff  inp sig2
#     0/   0 paths used
#  xsedge+ 50, used to normalize mu           2.4708E-04
#  -----------------------------------------------------------------------
#  omega    e    k    mu    mu0     chi     @#
    8985.268    -14.706  -1.000  2.88429E-02  5.16132E-02 -2.27703E-02
    8985.567    -14.408  -0.960  2.99387E-02  5.52671E-02 -2.53285E-02
    8985.853    -14.121  -0.920  3.10822E-02  5.93183E-02 -2.82361E-02
    8986.127    -13.847  -0.880  3.22766E-02  6.38241E-02 -3.15476E-02
    8986.390    -13.585  -0.840  3.35254E-02  6.88517E-02 -3.53264E-02
    8986.639    -13.335  -0.800  3.48327E-02  7.44784E-02 -3.96458E-02
    8986.877    -13.097  -0.760  3.62033E-02  8.07931E-02 -4.45898E-02
    8987.103    -12.872  -0.720  3.76427E-02  8.78958E-02 -5.02531E-02
    8987.316    -12.658  -0.680  3.91568E-02  9.58966E-02 -5.67398E-02
    8987.517    -12.457  -0.640  4.07517E-02  1.04912E-01 -6.41600E-02
    8987.706    -12.268  -0.600  4.24330E-02  1.15055E-01 -7.26216E-02
    8987.883    -12.091  -0.560  4.42042E-02  1.26422E-01 -8.22178E-02
    8988.048    -11.927  -0.520  4.60649E-02  1.39071E-01 -9.30058E-02
    8988.200    -11.774  -0.480  4.80076E-02  1.52986E-01 -1.04979E-01
    8988.340    -11.634  -0.440  5.00144E-02  1.68047E-01 -1.18033E-01
    8988.468    -11.506  -0.400  5.20546E-02  1.83994E-01 -1.31939E-01
    8988.584    -11.390  -0.360  5.40843E-02  2.00418E-01 -1.46334E-01
    8988.688    -11.287  -0.320  5.60505E-02  2.16792E-01 -1.60741E-01
    8988.779    -11.195  -0.280  5.78975E-02  2.32526E-01 -1.74629E-01
    8988.858    -11.116  -0.240  5.95751E-02  2.47055E-01 -1.87480E-01
    8988.925    -11.049  -0.200  6.10440E-02  2.59901E-01 -1.98857E-01
    8988.980    -10.994  -0.160  6.22777E-02  2.70715E-01 -2.08437E-01
    8989.023    -10.951  -0.120  6.32598E-02  2.79268E-01 -2.16009E-01
    8989.053    -10.921  -0.080  6.39809E-02  2.85435E-01 -2.21454E-01
    8989.078    -10.896   0.000  6.45966E-02  2.90391E-01 -2.25795E-01
    8989.133    -10.842   0.120  6.59914E-02  3.01576E-01 -2.35584E-01
    8989.175    -10.799   0.160  6.70008E-02  3.10285E-01 -2.43284E-01
    8989.230    -10.744   0.200  6.82694E-02  3.21416E-01 -2.53147E-01
    8989.297    -10.677   0.240  6.97527E-02  3.34813E-01 -2.65060E-01
    8989.377    -10.598   0.280  7.14584E-02  3.50267E-01 -2.78809E-01
    8989.468    -10.506   0.320  7.33386E-02  3.67350E-01 -2.94011E-01
    8989.572    -10.403   0.360  7.54029E-02  3.85663E-01 -3.10260E-01
    8989.687    -10.287   0.400  7.75914E-02  4.04654E-01 -3.27063E-01
    8989.815    -10.159   0.440  7.98835E-02  4.23877E-01 -3.43993E-01
    8989.956    -10.019   0.480  8.22592E-02  4.43002E-01 -3.60743E-01
    8990.108     -9.866   0.520  8.46716E-02  4.61790E-01 -3.77119E-01
    8990.273     -9.702   0.560  8.71100E-02  4.80119E-01 -3.93009E-01
    8990.449     -9.525   0.600  8.96708E-02  4.97979E-01 -4.08308E-01
    8990.638     -9.336   0.640  9.24784E-02  5.15398E-01 -4.22920E-01
    8990.840     -9.135   0.680  9.57882E-02  5.32458E-01 -4.36669E-01
    8991.053     -8.921   0.720  9.97577E-02  5.49208E-01 -4.49450E-01
    8991.279     -8.696   0.760  1.04637E-01  5.65740E-01 -4.61102E-01
    8991.516     -8.458   0.800  1.10639E-01  5.82113E-01 -4.71474E-01
    8991.766     -8.208   0.840  1.18035E-01  5.98376E-01 -4.80341E-01
    8992.028     -7.946   0.880  1.27274E-01  6.14545E-01 -4.87271E-01
    8992.303     -7.672   0.920  1.38984E-01  6.30686E-01 -4.91701E-01
    8992.589     -7.385   0.960  1.54172E-01  6.46790E-01 -4.92617E-01
    8992.888     -7.087   1.000  1.74349E-01  6.62841E-01 -4.88492E-01
    8993.199     -6.776   1.040  2.01983E-01  6.78834E-01 -4.76851E-01
    8993.522     -6.453   1.080  2.40849E-01  6.94758E-01 -4.53908E-01
    8993.857     -6.117   1.120  2.96082E-01  7.10615E-01 -4.14533E-01
    8994.205     -5.770   1.160  3.72197E-01  7.26343E-01 -3.54146E-01
    8994.564     -5.410   1.200  4.66748E-01  7.41915E-01 -2.75168E-01
    8994.936     -5.038   1.240  5.61609E-01  7.57325E-01 -1.95716E-01
    8995.320     -4.654   1.280  6.28701E-01  7.72501E-01 -1.43799E-01
    8995.716     -4.258   1.320  6.54850E-01  7.87428E-01 -1.32578E-01
    8996.125     -3.850   1.360  6.54952E-01  8.02077E-01 -1.47124E-01
    8996.545     -3.429   1.400  6.49409E-01  8.16391E-01 -1.66982E-01
    8996.978     -2.996   1.440  6.42315E-01  8.30357E-01 -1.88043E-01
    8997.423     -2.551   1.480  6.32629E-01  8.43902E-01 -2.11273E-01
    8997.880     -2.094   1.520  6.27235E-01  8.57053E-01 -2.29818E-01
    8998.350     -1.625   1.560  6.33758E-01  8.69739E-01 -2.35982E-01
    8998.831     -1.143   1.600  6.51065E-01  8.81948E-01 -2.30883E-01
    8999.325     -0.649   1.640  6.74040E-01  8.93672E-01 -2.19632E-01
    8999.831     -0.143   1.680  7.01337E-01  9.04861E-01 -2.03524E-01
    9000.349      0.375   1.720  7.47257E-01  9.15529E-01 -1.68272E-01
    9000.880      0.905   1.760  8.14952E-01  9.25653E-01 -1.10701E-01
    9001.422      1.448   1.800  8.95244E-01  9.35207E-01 -3.99629E-02
    9001.977      2.003   1.840  9.92625E-01  9.44210E-01  4.84151E-02
    9002.544      2.570   1.880  1.11651E+00  9.52664E-01  1.63842E-01
    9003.123      3.149   1.920  1.25610E+00  9.60547E-01  2.95549E-01
    9003.714      3.740   1.960  1.37330E+00  9.67884E-01  4.05415E-01
    9004.318      4.343   2.000  1.43491E+00  9.74656E-01  4.60255E-01
    9004.933      4.959   2.040  1.45671E+00  9.80910E-01  4.75803E-01
    9005.561      5.587   2.080  1.48916E+00  9.86612E-01  5.02546E-01
    9006.201      6.227   2.120  1.55589E+00  9.91810E-01  5.64081E-01
    9006.854      6.879   2.160  1.60125E+00  9.96511E-01  6.04744E-01
    9007.518      7.544   2.200  1.53394E+00  1.00072E+00  5.33214E-01
    9008.195      8.220   2.240  1.37846E+00  1.00448E+00  3.73984E-01
    9008.884      8.909   2.280  1.22625E+00  1.00778E+00  2.18467E-01
    9009.585      9.610   2.320  1.11114E+00  1.01065E+00  1.00491E-01
    9010.298     10.324   2.360  1.02731E+00  1.01313E+00  1.41783E-02
    9011.023     11.049   2.400  9.64900E-01  1.01522E+00 -5.03165E-02
    9011.761     11.787   2.440  9.20149E-01  1.01696E+00 -9.68086E-02
    9012.511     12.536   2.480  8.93229E-01  1.01834E+00 -1.25115E-01
    9013.273     13.298   2.520  8.86706E-01  1.01943E+00 -1.32723E-01
    9014.047     14.073   2.560  9.08882E-01  1.02020E+00 -1.11320E-01
    9014.833     14.859   2.600  9.58714E-01  1.02071E+00 -6.20010E-02
    9015.632     15.658   2.640  1.01562E+00  1.02098E+00 -5.36427E-03
    9016.443     16.468   2.680  1.07144E+00  1.02101E+00  5.04359E-02
    9017.266     17.291   2.720  1.11893E+00  1.02082E+00  9.81048E-02
    9018.101     18.126   2.760  1.15380E+00  1.02044E+00  1.33360E-01
    9018.948     18.974   2.800  1.17417E+00  1.01989E+00  1.54278E-01
    9019.808     19.833   2.840  1.18022E+00  1.01920E+00  1.61021E-01
    9020.679     20.705   2.880  1.17509E+00  1.01836E+00  1.56728E-01
    9021.563     21.589   2.920  1.16132E+00  1.01740E+00  1.43922E-01
    9022.459     22.485   2.960  1.14125E+00  1.01632E+00  1.24927E-01
    9023.368     23.393   3.000  1.11668E+00  1.01518E+00  1.01502E-01
    9024.288     24.314   3.040  1.08791E+00  1.01395E+00  7.39589E-02
    9025.221     25.247   3.080  1.05486E+00  1.01266E+00  4.22062E-02
    9026.166     26.191   3.120  1.01849E+00  1.01131E+00  7.17404E-03
    9027.123     27.148   3.160  9.80667E-01  1.00993E+00 -2.92664E-02
    9028.092     28.118   3.200  9.44178E-01  1.00854E+00 -6.43606E-02
    9029.074     29.099   3.240  9.12017E-01  1.00711E+00 -9.50967E-02
    9030.067     30.093   3.280  8.86135E-01  1.00569E+00 -1.19551E-01
    9031.073     31.099   3.320  8.67251E-01  1.00426E+00 -1.37005E-01
    9032.091     32.117   3.360  8.55191E-01  1.00285E+00 -1.47664E-01
    9033.121     33.147   3.400  8.49087E-01  1.00146E+00 -1.52376E-01
    9034.164     34.189   3.440  8.47337E-01  1.00010E+00 -1.52766E-01
    9035.218     35.244   3.480  8.48518E-01  9.98781E-01 -1.50263E-01
    9036.285     36.311   3.520  8.51768E-01  9.97498E-01 -1.45730E-01
    9037.364     37.390   3.560  8.56599E-01  9.96256E-01 -1.39657E-01
    9038.455     38.481   3.600  8.62617E-01  9.95057E-01 -1.32440E-01
    9039.559     39.584   3.640  8.69365E-01  9.93925E-01 -1.24561E-01
    9040.674     40.700   3.680  8.76420E-01  9.92841E-01 -1.16421E-01
    9041.802     41.828   3.720  8.83494E-01  9.91805E-01 -1.08311E-01
    9042.942     42.968   3.760  8.90632E-01  9.90841E-01 -1.00209E-01
    9044.094     44.120   3.800  8.97891E-01  9.89951E-01 -9.20600E-02
    9045.258     45.284   3.840  9.05430E-01  9.89136E-01 -8.37058E-02
    9046.435     46.461   3.880  9.13595E-01  9.88372E-01 -7.47774E-02
    9047.624     47.649   3.920  9.23056E-01  9.87684E-01 -6.46278E-02
    9048.825     48.850   3.960  9.34408E-01  9.87070E-01 -5.26625E-02
    9050.038     50.063   4.000  9.47817E-01  9.86509E-01 -3.86914E-02
    9051.263     51.289   4.040  9.62975E-01  9.86023E-01 -2.30478E-02
    9052.500     52.526   4.080  9.79173E-01  9.85613E-01 -6.43986E-03
    9053.750     53.776   4.120  9.95564E-01  9.85281E-01  1.02836E-02
    9055.012     55.038   4.160  1.01126E+00  9.85023E-01  2.62347E-02
    9056.286     56.312   4.200  1.02517E+00  9.84817E-01  4.03547E-02
    9057.572     57.598   4.240  1.03602E+00  9.84683E-01  5.13375E-02
    9058.871     58.896   4.280  1.04272E+00  9.84599E-01  5.81257E-02
    9060.181     60.207   4.320  1.04512E+00  9.84589E-01  6.05309E-02
    9061.504     61.530   4.360  1.04411E+00  9.84650E-01  5.94573E-02
    9062.839     62.865   4.400  1.04128E+00  9.84758E-01  5.65210E-02
    9064.186     64.212   4.440  1.03844E+00  9.84914E-01  5.35273E-02
    9065.546     65.571   4.480  1.03680E+00  9.85136E-01  5.16664E-02
    9066.917     66.943   4.520  1.03663E+00  9.85404E-01  5.12218E-02
    9068.301     68.327   4.560  1.03742E+00  9.85716E-01  5.17086E-02
    9069.697     69.723   4.600  1.03843E+00  9.86089E-01  5.23414E-02
    9071.105     71.131   4.640  1.03901E+00  9.86480E-01  5.25260E-02
    9072.526     72.551   4.680  1.03909E+00  9.86909E-01  5.21814E-02
    9073.958     73.984   4.720  1.03896E+00  9.87375E-01  5.15846E-02
    9075.403     75.429   4.760  1.03902E+00  9.87875E-01  5.11477E-02
    9076.860     76.886   4.800  1.03980E+00  9.88386E-01  5.14185E-02
    9078.329     78.355   4.840  1.04196E+00  9.88926E-01  5.30353E-02
    9079.810     79.836   4.880  1.04576E+00  9.89476E-01  5.62850E-02
    9081.304     81.330   4.920  1.05079E+00  9.90055E-01  6.07345E-02
    9082.810     82.835   4.960  1.05583E+00  9.90638E-01  6.51907E-02
    9084.327     84.353   5.000  1.05946E+00  9.91225E-01  6.82317E-02
    9085.858     85.883   5.040  1.06085E+00  9.91834E-01  6.90140E-02
    9087.400     87.425   5.080  1.05996E+00  9.92420E-01  6.75368E-02
    9088.954     88.980   5.120  1.05727E+00  9.93003E-01  6.42674E-02
    9090.521     90.547   5.160  1.05302E+00  9.93582E-01  5.94342E-02
    9092.100     92.125   5.200  1.04678E+00  9.94157E-01  5.26212E-02
    9093.691     93.717   5.240  1.03780E+00  9.94702E-01  4.30974E-02
    9095.294     95.320   5.280  1.02575E+00  9.95239E-01  3.05058E-02
    9096.910     96.935   5.320  1.01125E+00  9.95768E-01  1.54810E-02
    9098.537     98.563   5.360  9.95898E-01  9.96261E-01 -3.62693E-04
    9100.177    100.203   5.400  9.81586E-01  9.96719E-01 -1.51328E-02
    9101.829    101.855   5.440  9.69526E-01  9.97140E-01 -2.76135E-02
    9103.493    103.519   5.480  9.59811E-01  9.97544E-01 -3.77336E-02
    9105.170    105.195   5.520  9.51754E-01  9.97889E-01 -4.61356E-02
    9106.858    106.884   5.560  9.44825E-01  9.98217E-01 -5.33921E-02
    9108.559    108.585   5.600  9.38929E-01  9.98506E-01 -5.95767E-02
    9110.272    110.298   5.640  9.34276E-01  9.98753E-01 -6.44776E-02
    9111.997    112.023   5.680  9.30999E-01  9.98936E-01 -6.79368E-02
    9113.734    113.760   5.720  9.28997E-01  9.99101E-01 -7.01030E-02
    9115.484    115.510   5.760  9.28028E-01  9.99223E-01 -7.11950E-02
    9117.246    117.271   5.800  9.28052E-01  9.99279E-01 -7.12273E-02
    9119.020    119.045   5.840  9.29307E-01  9.99292E-01 -6.99847E-02
    9120.806    120.831   5.880  9.31859E-01  9.99262E-01 -6.74028E-02
    9122.604    122.630   5.920  9.35339E-01  9.99190E-01 -6.38511E-02
    9124.415    124.440   5.960  9.39135E-01  9.99071E-01 -5.99357E-02
    9126.237    126.263   6.000  9.43088E-01  9.98848E-01 -5.57594E-02
