# # comment:                                                     FEFF 9.9.1  
# # Source:
# # Structure
# # Reduced
# # space
# # abc:
# # angles:
# # sites:
# # POT  SCF 100  7.0000   0, screened core-hole, AFOLP (folp(0)= 1.150)
# # Abs   Z=29 Rmt= 1.288 Rnm= 1.353 K  shell
# # Pot 1 Z= 3 Rmt= 1.319 Rnm= 1.382
# # Pot 2 Z=29 Rmt= 1.302 Rnm= 1.363
# # Pot 3 Z=15 Rmt= 0.939 Rnm= 1.156
# # Pot 4 Z= 8 Rmt= 0.912 Rnm= 1.044
# # Gam_ch=1.729E+00 H-L exch Vi= 0.000E+00 Vr= 0.000E+00
# # Mu=-6.611E+00eV kf=2.459E+00 Vint=-1.760E+01eV Rs_int= 1.475
# FMS rfms= 9.0000
# # PATH  Rmax=-1.000,  Keep_limit= 0.00, Heap_limit 0.00  Pwcrit= 2.50%
#  S02=0.950  Temp=   0.00  Debye_temp=   0.00  Global_sig2= 0.00000
#  Energy zero shift, vr, vi    0.00000E+00   0.00000E+00
#  Curved wave amplitude ratio filter   4.000%
#     file         sig2 tot  cw amp ratio   deg  nlegs   reff  inp sig2
#     0/   0 paths used
#  xsedge+ 50, used to normalize mu           2.4907E-04
#  -----------------------------------------------------------------------
#  omega    e    k    mu    mu0     chi     @#
    8983.480    -10.421  -1.000  4.07234E-02  5.20082E-02 -1.12847E-02
    8983.779    -10.122  -0.960  4.28825E-02  5.57820E-02 -1.28995E-02
    8984.065     -9.836  -0.920  4.51944E-02  5.99783E-02 -1.47839E-02
    8984.340     -9.562  -0.880  4.76727E-02  6.46596E-02 -1.69869E-02
    8984.602     -9.299  -0.840  5.03323E-02  6.98992E-02 -1.95669E-02
    8984.852     -9.050  -0.800  5.31892E-02  7.57817E-02 -2.25925E-02
    8985.089     -8.812  -0.760  5.62605E-02  8.24046E-02 -2.61441E-02
    8985.315     -8.586  -0.720  5.95643E-02  8.98780E-02 -3.03138E-02
    8985.528     -8.373  -0.680  6.31185E-02  9.83234E-02 -3.52049E-02
    8985.730     -8.172  -0.640  6.69404E-02  1.07869E-01 -4.09286E-02
    8985.918     -7.983  -0.600  7.10441E-02  1.18641E-01 -4.75971E-02
    8986.095     -7.806  -0.560  7.54379E-02  1.30748E-01 -5.53099E-02
    8986.260     -7.641  -0.520  8.01198E-02  1.44254E-01 -6.41337E-02
    8986.412     -7.489  -0.480  8.50722E-02  1.59145E-01 -7.40727E-02
    8986.552     -7.349  -0.440  9.02550E-02  1.75291E-01 -8.50358E-02
    8986.680     -7.221  -0.400  9.56004E-02  1.92408E-01 -9.68079E-02
    8986.796     -7.105  -0.360  1.01011E-01  2.10053E-01 -1.09042E-01
    8986.900     -7.001  -0.320  1.06361E-01  2.27646E-01 -1.21286E-01
    8986.991     -6.910  -0.280  1.11508E-01  2.44548E-01 -1.33040E-01
    8987.071     -6.831  -0.240  1.16305E-01  2.60143E-01 -1.43838E-01
    8987.138     -6.764  -0.200  1.20613E-01  2.73916E-01 -1.53304E-01
    8987.193     -6.709  -0.160  1.24310E-01  2.85496E-01 -1.61186E-01
    8987.235     -6.666  -0.120  1.27297E-01  2.94643E-01 -1.67346E-01
    8987.266     -6.636  -0.080  1.29499E-01  3.01229E-01 -1.71730E-01
    8987.290     -6.611   0.000  1.31331E-01  3.06518E-01 -1.75187E-01
    8987.345     -6.556   0.120  1.35476E-01  3.18441E-01 -1.82965E-01
    8987.388     -6.514   0.160  1.38734E-01  3.27710E-01 -1.88975E-01
    8987.442     -6.459   0.200  1.42956E-01  3.39500E-01 -1.96544E-01
    8987.510     -6.392   0.240  1.48262E-01  3.53680E-01 -2.05418E-01
    8987.589     -6.312   0.280  1.54710E-01  3.69929E-01 -2.15219E-01
    8987.680     -6.221   0.320  1.62402E-01  3.87813E-01 -2.25411E-01
    8987.784     -6.117   0.360  1.71427E-01  4.06795E-01 -2.35369E-01
    8987.900     -6.002   0.400  1.81938E-01  4.26283E-01 -2.44346E-01
    8988.028     -5.874   0.440  1.94094E-01  4.45778E-01 -2.51685E-01
    8988.168     -5.733   0.480  2.08074E-01  4.64862E-01 -2.56788E-01
    8988.320     -5.581   0.520  2.23979E-01  4.83260E-01 -2.59281E-01
    8988.485     -5.416   0.560  2.41883E-01  5.00877E-01 -2.58993E-01
    8988.662     -5.240   0.600  2.61615E-01  5.17685E-01 -2.56070E-01
    8988.851     -5.051   0.640  2.82828E-01  5.33724E-01 -2.50896E-01
    8989.052     -4.849   0.680  3.05149E-01  5.49113E-01 -2.43965E-01
    8989.265     -4.636   0.720  3.28257E-01  5.63926E-01 -2.35669E-01
    8989.491     -4.410   0.760  3.52213E-01  5.78293E-01 -2.26079E-01
    8989.728     -4.173   0.800  3.77299E-01  5.92279E-01 -2.14980E-01
    8989.978     -3.923   0.840  4.04227E-01  6.05996E-01 -2.01768E-01
    8990.241     -3.661   0.880  4.33932E-01  6.19480E-01 -1.85548E-01
    8990.515     -3.386   0.920  4.66606E-01  6.32796E-01 -1.66189E-01
    8990.801     -3.100   0.960  5.00191E-01  6.45976E-01 -1.45785E-01
    8991.100     -2.801   1.000  5.31688E-01  6.59064E-01 -1.27376E-01
    8991.411     -2.490   1.040  5.61127E-01  6.72071E-01 -1.10944E-01
    8991.734     -2.167   1.080  5.92480E-01  6.85003E-01 -9.25230E-02
    8992.069     -1.832   1.120  6.29584E-01  6.97859E-01 -6.82750E-02
    8992.417     -1.484   1.160  6.71252E-01  7.10653E-01 -3.94016E-02
    8992.776     -1.125   1.200  7.10765E-01  7.23373E-01 -1.26076E-02
    8993.148     -0.753   1.240  7.42091E-01  7.36003E-01  6.08810E-03
    8993.532     -0.369   1.280  7.64474E-01  7.48546E-01  1.59287E-02
    8993.929      0.027   1.320  7.80938E-01  7.60962E-01  1.99758E-02
    8994.337      0.436   1.360  7.98050E-01  7.73248E-01  2.48020E-02
    8994.758      0.856   1.400  8.24539E-01  7.85400E-01  3.91387E-02
    8995.190      1.289   1.440  8.65595E-01  7.97352E-01  6.82438E-02
    8995.635      1.734   1.480  9.18184E-01  8.09136E-01  1.09049E-01
    8996.093      2.191   1.520  9.70343E-01  8.20687E-01  1.49657E-01
    8996.562      2.661   1.560  1.01432E+00  8.32017E-01  1.82306E-01
    8997.044      3.142   1.600  1.05476E+00  8.43078E-01  2.11684E-01
    8997.537      3.636   1.640  1.10158E+00  8.53863E-01  2.47716E-01
    8998.043      4.142   1.680  1.15891E+00  8.64364E-01  2.94545E-01
    8998.562      4.660   1.720  1.21806E+00  8.74554E-01  3.43506E-01
    8999.092      5.191   1.760  1.25702E+00  8.84406E-01  3.72611E-01
    8999.634      5.733   1.800  1.26397E+00  8.93935E-01  3.70039E-01
    9000.189      6.288   1.840  1.25364E+00  9.03095E-01  3.50544E-01
    9000.756      6.855   1.880  1.24122E+00  9.11880E-01  3.29344E-01
    9001.335      7.434   1.920  1.22067E+00  9.20286E-01  3.00380E-01
    9001.927      8.025   1.960  1.18505E+00  9.28329E-01  2.56725E-01
    9002.530      8.629   2.000  1.14298E+00  9.35948E-01  2.07031E-01
    9003.146      9.245   2.040  1.10551E+00  9.43182E-01  1.62329E-01
    9003.774      9.872   2.080  1.07548E+00  9.50028E-01  1.25450E-01
    9004.414     10.512   2.120  1.05309E+00  9.56467E-01  9.66235E-02
    9005.066     11.165   2.160  1.03786E+00  9.62497E-01  7.53607E-02
    9005.730     11.829   2.200  1.03001E+00  9.68122E-01  6.18900E-02
    9006.407     12.506   2.240  1.02959E+00  9.73343E-01  5.62500E-02
    9007.096     13.195   2.280  1.03390E+00  9.78182E-01  5.57209E-02
    9007.797     13.896   2.320  1.03959E+00  9.82645E-01  5.69486E-02
    9008.510     14.609   2.360  1.04546E+00  9.86715E-01  5.87492E-02
    9009.236     15.334   2.400  1.05070E+00  9.90436E-01  6.02611E-02
    9009.973     16.072   2.440  1.05520E+00  9.93774E-01  6.14220E-02
    9010.723     16.822   2.480  1.05662E+00  9.96774E-01  5.98430E-02
    9011.485     17.584   2.520  1.05117E+00  9.99441E-01  5.17299E-02
    9012.259     18.358   2.560  1.03963E+00  1.00178E+00  3.78514E-02
    9013.046     19.144   2.600  1.02712E+00  1.00381E+00  2.33188E-02
    9013.844     19.943   2.640  1.01813E+00  1.00554E+00  1.25871E-02
    9014.655     20.754   2.680  1.00996E+00  1.00698E+00  2.97295E-03
    9015.478     21.577   2.720  9.94456E-01  1.00815E+00 -1.36964E-02
    9016.313     22.412   2.760  9.68049E-01  1.00907E+00 -4.10222E-02
    9017.160     23.259   2.800  9.33964E-01  1.00975E+00 -7.57843E-02
    9018.020     24.119   2.840  8.97541E-01  1.01021E+00 -1.12672E-01
    9018.892     24.990   2.880  8.70872E-01  1.01047E+00 -1.39598E-01
    9019.776     25.874   2.920  8.57660E-01  1.01053E+00 -1.52868E-01
    9020.672     26.770   2.960  8.54407E-01  1.01039E+00 -1.55985E-01
    9021.580     27.679   3.000  8.57571E-01  1.01011E+00 -1.52541E-01
    9022.500     28.599   3.040  8.64230E-01  1.00965E+00 -1.45425E-01
    9023.433     29.532   3.080  8.72166E-01  1.00909E+00 -1.36920E-01
    9024.378     30.477   3.120  8.80391E-01  1.00837E+00 -1.27984E-01
    9025.335     31.434   3.160  8.88893E-01  1.00757E+00 -1.18673E-01
    9026.304     32.403   3.200  8.97895E-01  1.00665E+00 -1.08752E-01
    9027.286     33.385   3.240  9.07704E-01  1.00564E+00 -9.79396E-02
    9028.279     34.378   3.280  9.18554E-01  1.00458E+00 -8.60307E-02
    9029.285     35.384   3.320  9.30157E-01  1.00345E+00 -7.32954E-02
    9030.303     36.402   3.360  9.42269E-01  1.00227E+00 -6.00042E-02
    9031.333     37.432   3.400  9.54471E-01  1.00105E+00 -4.65824E-02
    9032.376     38.475   3.440  9.66199E-01  9.99796E-01 -3.35972E-02
    9033.431     39.529   3.480  9.77122E-01  9.98526E-01 -2.14042E-02
    9034.497     40.596   3.520  9.87142E-01  9.97229E-01 -1.00861E-02
    9035.576     41.675   3.560  9.96317E-01  9.95929E-01  3.88036E-04
    9036.667     42.766   3.600  1.00466E+00  9.94652E-01  1.00106E-02
    9037.771     43.870   3.640  1.01212E+00  9.93380E-01  1.87427E-02
    9038.886     44.985   3.680  1.01853E+00  9.92116E-01  2.64131E-02
    9040.014     46.113   3.720  1.02370E+00  9.90903E-01  3.27943E-02
    9041.154     47.253   3.760  1.02749E+00  9.89685E-01  3.78042E-02
    9042.306     48.405   3.800  1.02999E+00  9.88525E-01  4.14649E-02
    9043.471     49.569   3.840  1.03121E+00  9.87405E-01  4.38020E-02
    9044.647     50.746   3.880  1.03129E+00  9.86326E-01  4.49642E-02
    9045.836     51.935   3.920  1.03057E+00  9.85313E-01  4.52586E-02
    9047.037     53.136   3.960  1.02942E+00  9.84324E-01  4.50968E-02
    9048.250     54.349   4.000  1.02827E+00  9.83425E-01  4.48495E-02
    9049.475     55.574   4.040  1.02735E+00  9.82552E-01  4.48019E-02
    9050.713     56.811   4.080  1.02678E+00  9.81748E-01  4.50341E-02
    9051.962     58.061   4.120  1.02650E+00  9.81018E-01  4.54846E-02
    9053.224     59.323   4.160  1.02640E+00  9.80361E-01  4.60430E-02
    9054.498     60.597   4.200  1.02634E+00  9.79755E-01  4.65851E-02
    9055.784     61.883   4.240  1.02611E+00  9.79219E-01  4.68925E-02
    9057.083     63.182   4.280  1.02542E+00  9.78736E-01  4.66851E-02
    9058.394     64.492   4.320  1.02407E+00  9.78326E-01  4.57395E-02
    9059.716     65.815   4.360  1.02188E+00  9.77988E-01  4.38928E-02
    9061.051     67.150   4.400  1.01885E+00  9.77703E-01  4.11450E-02
    9062.399     68.497   4.440  1.01521E+00  9.77512E-01  3.77001E-02
    9063.758     69.857   4.480  1.01122E+00  9.77349E-01  3.38753E-02
    9065.130     71.228   4.520  1.00724E+00  9.77256E-01  2.99791E-02
    9066.513     72.612   4.560  1.00341E+00  9.77237E-01  2.61711E-02
    9067.909     74.008   4.600  9.99648E-01  9.77286E-01  2.23621E-02
    9069.318     75.416   4.640  9.95609E-01  9.77361E-01  1.82485E-02
    9070.738     76.837   4.680  9.91009E-01  9.77503E-01  1.35059E-02
    9072.170     78.269   4.720  9.85677E-01  9.77711E-01  7.96544E-03
    9073.615     79.714   4.760  9.79657E-01  9.77942E-01  1.71463E-03
    9075.072     81.171   4.800  9.73333E-01  9.78236E-01 -4.90300E-03
    9076.541     82.640   4.840  9.67117E-01  9.78569E-01 -1.14524E-02
    9078.023     84.121   4.880  9.61420E-01  9.78920E-01 -1.74994E-02
    9079.516     85.615   4.920  9.56641E-01  9.79328E-01 -2.26865E-02
    9081.022     87.121   4.960  9.52900E-01  9.79750E-01 -2.68503E-02
    9082.540     88.638   5.000  9.50124E-01  9.80208E-01 -3.00842E-02
    9084.070     90.169   5.040  9.47970E-01  9.80698E-01 -3.27287E-02
    9085.612     91.711   5.080  9.46011E-01  9.81197E-01 -3.51862E-02
    9087.167     93.265   5.120  9.44062E-01  9.81722E-01 -3.76603E-02
    9088.733     94.832   5.160  9.42206E-01  9.82231E-01 -4.00241E-02
    9090.312     96.411   5.200  9.40920E-01  9.82766E-01 -4.18455E-02
    9091.903     98.002   5.240  9.40709E-01  9.83325E-01 -4.26162E-02
    9093.506     99.605   5.280  9.41895E-01  9.83862E-01 -4.19665E-02
    9095.122    101.221   5.320  9.44583E-01  9.84395E-01 -3.98113E-02
    9096.749    102.848   5.360  9.48541E-01  9.84923E-01 -3.63816E-02
    9098.389    104.488   5.400  9.53308E-01  9.85422E-01 -3.21145E-02
    9100.041    106.140   5.440  9.58391E-01  9.85914E-01 -2.75237E-02
    9101.705    107.804   5.480  9.63343E-01  9.86399E-01 -2.30563E-02
    9103.382    109.481   5.520  9.67882E-01  9.86854E-01 -1.89720E-02
    9105.070    111.169   5.560  9.72025E-01  9.87297E-01 -1.52724E-02
    9106.771    112.870   5.600  9.75896E-01  9.87703E-01 -1.18073E-02
    9108.484    114.583   5.640  9.79621E-01  9.88072E-01 -8.45096E-03
    9110.209    116.308   5.680  9.83247E-01  9.88403E-01 -5.15555E-03
    9111.947    118.045   5.720  9.86768E-01  9.88693E-01 -1.92491E-03
    9113.696    119.795   5.760  9.90131E-01  9.88943E-01  1.18805E-03
    9115.458    121.557   5.800  9.93203E-01  9.89151E-01  4.05159E-03
    9117.232    123.331   5.840  9.95816E-01  9.89320E-01  6.49646E-03
    9119.018    125.117   5.880  9.97867E-01  9.89447E-01  8.41960E-03
    9120.816    126.915   5.920  9.99409E-01  9.89532E-01  9.87762E-03
    9122.627    128.726   5.960  1.00061E+00  9.89567E-01  1.10408E-02
    9124.449    130.548   6.000  1.00157E+00  9.89504E-01  1.20655E-02
