# # comment:                                                     FEFF 9.9.1  
# # Source:
# # Structure
# # Reduced
# # space
# # abc:
# # angles:
# # sites:
# # POT  SCF 100  7.0000   0, screened core-hole, AFOLP (folp(0)= 1.150)
# # Abs   Z=29 Rmt= 1.189 Rnm= 1.284 K  shell
# # Pot 1 Z=11 Rmt= 1.546 Rnm= 1.611
# # Pot 2 Z=29 Rmt= 1.189 Rnm= 1.284
# # Pot 3 Z=15 Rmt= 0.938 Rnm= 1.157
# # Pot 4 Z= 8 Rmt= 0.884 Rnm= 1.045
# # Gam_ch=1.729E+00 H-L exch Vi= 0.000E+00 Vr= 0.000E+00
# # Mu=-6.226E+00eV kf=2.509E+00 Vint=-1.731E+01eV Rs_int= 1.446
# FMS rfms= 9.0000
# # PATH  Rmax=-1.000,  Keep_limit= 0.00, Heap_limit 0.00  Pwcrit= 2.50%
#  S02=0.950  Temp=   0.00  Debye_temp=   0.00  Global_sig2= 0.00000
#  Energy zero shift, vr, vi    0.00000E+00   0.00000E+00
#  Curved wave amplitude ratio filter   4.000%
#     file         sig2 tot  cw amp ratio   deg  nlegs   reff  inp sig2
#     0/   0 paths used
#  xsedge+ 50, used to normalize mu           2.4834E-04
#  -----------------------------------------------------------------------
#  omega    e    k    mu    mu0     chi     @#
    8983.398    -10.036  -1.000  3.88978E-02  5.27114E-02 -1.38136E-02
    8983.697     -9.737  -0.960  4.10102E-02  5.65718E-02 -1.55616E-02
    8983.984     -9.450  -0.920  4.32839E-02  6.08674E-02 -1.75835E-02
    8984.258     -9.176  -0.880  4.57349E-02  6.56631E-02 -1.99281E-02
    8984.520     -8.914  -0.840  4.83811E-02  7.10344E-02 -2.26533E-02
    8984.770     -8.664  -0.800  5.12420E-02  7.70692E-02 -2.58272E-02
    8985.008     -8.426  -0.760  5.43391E-02  8.38681E-02 -2.95290E-02
    8985.233     -8.201  -0.720  5.76952E-02  9.15453E-02 -3.38501E-02
    8985.447     -7.987  -0.680  6.13341E-02  1.00227E-01 -3.88924E-02
    8985.648     -7.786  -0.640  6.52792E-02  1.10045E-01 -4.47656E-02
    8985.837     -7.597  -0.600  6.95509E-02  1.21131E-01 -5.15800E-02
    8986.014     -7.420  -0.560  7.41634E-02  1.33597E-01 -5.94334E-02
    8986.178     -7.256  -0.520  7.91189E-02  1.47510E-01 -6.83909E-02
    8986.331     -7.103  -0.480  8.44004E-02  1.62856E-01 -7.84560E-02
    8986.471     -6.963  -0.440  8.99633E-02  1.79501E-01 -8.95380E-02
    8986.599     -6.835  -0.400  9.57286E-02  1.97152E-01 -1.01424E-01
    8986.715     -6.719  -0.360  1.01580E-01  2.15350E-01 -1.13770E-01
    8986.818     -6.616  -0.320  1.07369E-01  2.33496E-01 -1.26127E-01
    8986.910     -6.524  -0.280  1.12929E-01  2.50930E-01 -1.38000E-01
    8986.989     -6.445  -0.240  1.18093E-01  2.67014E-01 -1.48921E-01
    8987.056     -6.378  -0.200  1.22707E-01  2.81218E-01 -1.58511E-01
    8987.111     -6.323  -0.160  1.26646E-01  2.93158E-01 -1.66512E-01
    8987.154     -6.281  -0.120  1.29812E-01  3.02590E-01 -1.72778E-01
    8987.184     -6.250  -0.080  1.32132E-01  3.09380E-01 -1.77248E-01
    8987.208     -6.226   0.000  1.34045E-01  3.14832E-01 -1.80787E-01
    8987.263     -6.171   0.120  1.38344E-01  3.27119E-01 -1.88774E-01
    8987.306     -6.128   0.160  1.41730E-01  3.36664E-01 -1.94934E-01
    8987.361     -6.073   0.200  1.46095E-01  3.48811E-01 -2.02715E-01
    8987.428     -6.006   0.240  1.51533E-01  3.63417E-01 -2.11884E-01
    8987.507     -5.927   0.280  1.58076E-01  3.80150E-01 -2.22074E-01
    8987.599     -5.835   0.320  1.65737E-01  3.98536E-01 -2.32799E-01
    8987.702     -5.732   0.360  1.74549E-01  4.18016E-01 -2.43467E-01
    8987.818     -5.616   0.400  1.84601E-01  4.38017E-01 -2.53416E-01
    8987.946     -5.488   0.440  1.95971E-01  4.57980E-01 -2.62009E-01
    8988.086     -5.348   0.480  2.08750E-01  4.77467E-01 -2.68716E-01
    8988.239     -5.195   0.520  2.23149E-01  4.96213E-01 -2.73064E-01
    8988.403     -5.031   0.560  2.39427E-01  5.14097E-01 -2.74670E-01
    8988.580     -4.854   0.600  2.57929E-01  5.31113E-01 -2.73184E-01
    8988.769     -4.665   0.640  2.78999E-01  5.47300E-01 -2.68301E-01
    8988.970     -4.464   0.680  3.02705E-01  5.62743E-01 -2.60038E-01
    8989.184     -4.251   0.720  3.28589E-01  5.77577E-01 -2.48987E-01
    8989.409     -4.025   0.760  3.55653E-01  5.91856E-01 -2.36204E-01
    8989.647     -3.787   0.800  3.83228E-01  6.05730E-01 -2.22502E-01
    8989.897     -3.537   0.840  4.11723E-01  6.19252E-01 -2.07529E-01
    8990.159     -3.275   0.880  4.42539E-01  6.32482E-01 -1.89943E-01
    8990.433     -3.001   0.920  4.76866E-01  6.45508E-01 -1.68642E-01
    8990.720     -2.714   0.960  5.14478E-01  6.58345E-01 -1.43867E-01
    8991.018     -2.416   1.000  5.54211E-01  6.71034E-01 -1.16823E-01
    8991.329     -2.105   1.040  5.93922E-01  6.83572E-01 -8.96503E-02
    8991.652     -1.782   1.080  6.29329E-01  6.96006E-01 -6.66769E-02
    8991.988     -1.446   1.120  6.54805E-01  7.08315E-01 -5.35097E-02
    8992.335     -1.099   1.160  6.67547E-01  7.20515E-01 -5.29682E-02
    8992.695     -0.739   1.200  6.70390E-01  7.32596E-01 -6.22061E-02
    8993.067     -0.367   1.240  6.69590E-01  7.44542E-01 -7.49526E-02
    8993.451      0.017   1.280  6.70212E-01  7.56360E-01 -8.61477E-02
    8993.847      0.413   1.320  6.73673E-01  7.68008E-01 -9.43356E-02
    8994.255      0.821   1.360  6.76814E-01  7.79508E-01 -1.02694E-01
    8994.676      1.242   1.400  6.73894E-01  7.90815E-01 -1.16921E-01
    8995.109      1.675   1.440  6.64207E-01  8.01927E-01 -1.37720E-01
    8995.554      2.120   1.480  6.56369E-01  8.12818E-01 -1.56450E-01
    8996.011      2.577   1.520  6.60862E-01  8.23486E-01 -1.62623E-01
    8996.480      3.046   1.560  6.83636E-01  8.33904E-01 -1.50268E-01
    8996.962      3.528   1.600  7.23402E-01  8.44047E-01 -1.20644E-01
    8997.456      4.022   1.640  7.70874E-01  8.53909E-01 -8.30346E-02
    8997.962      4.528   1.680  8.17914E-01  8.63487E-01 -4.55729E-02
    8998.480      5.046   1.720  8.62044E-01  8.72755E-01 -1.07115E-02
    8999.010      5.576   1.760  9.02087E-01  8.81709E-01  2.03776E-02
    8999.553      6.119   1.800  9.37194E-01  8.90326E-01  4.68681E-02
    9000.108      6.673   1.840  9.69659E-01  8.98602E-01  7.10571E-02
    9000.674      7.240   1.880  1.00490E+00  9.06556E-01  9.83471E-02
    9001.254      7.819   1.920  1.04135E+00  9.14144E-01  1.27203E-01
    9001.845      8.411   1.960  1.07331E+00  9.21387E-01  1.51924E-01
    9002.448      9.014   2.000  1.10097E+00  9.28263E-01  1.72709E-01
    9003.064      9.630   2.040  1.12820E+00  9.34792E-01  1.93405E-01
    9003.692     10.258   2.080  1.15425E+00  9.40956E-01  2.13298E-01
    9004.332     10.898   2.120  1.17371E+00  9.46776E-01  2.26938E-01
    9004.984     11.550   2.160  1.18555E+00  9.52255E-01  2.33291E-01
    9005.649     12.215   2.200  1.19348E+00  9.57373E-01  2.36108E-01
    9006.325     12.891   2.240  1.19732E+00  9.62154E-01  2.35163E-01
    9007.014     13.580   2.280  1.19478E+00  9.66583E-01  2.28195E-01
    9007.715     14.281   2.320  1.18575E+00  9.70702E-01  2.15046E-01
    9008.429     14.994   2.360  1.17146E+00  9.74497E-01  1.96964E-01
    9009.154     15.720   2.400  1.15655E+00  9.77973E-01  1.78575E-01
    9009.892     16.457   2.440  1.15100E+00  9.81174E-01  1.69828E-01
    9010.641     17.207   2.480  1.16514E+00  9.84067E-01  1.81073E-01
    9011.403     17.969   2.520  1.19774E+00  9.86675E-01  2.11068E-01
    9012.178     18.743   2.560  1.23183E+00  9.89025E-01  2.42806E-01
    9012.964     19.530   2.600  1.25159E+00  9.91105E-01  2.60490E-01
    9013.763     20.328   2.640  1.24850E+00  9.92961E-01  2.55535E-01
    9014.573     21.139   2.680  1.21639E+00  9.94579E-01  2.21809E-01
    9015.396     21.962   2.720  1.15941E+00  9.95985E-01  1.63430E-01
    9016.231     22.797   2.760  1.09374E+00  9.97184E-01  9.65574E-02
    9017.079     23.645   2.800  1.03583E+00  9.98182E-01  3.76520E-02
    9017.938     24.504   2.840  9.92868E-01  9.98987E-01 -6.11832E-03
    9018.810     25.376   2.880  9.64120E-01  9.99644E-01 -3.55242E-02
    9019.694     26.260   2.920  9.51393E-01  1.00012E+00 -4.87275E-02
    9020.590     27.156   2.960  9.46603E-01  1.00046E+00 -5.38576E-02
    9021.498     28.064   3.000  9.43220E-01  1.00067E+00 -5.74525E-02
    9022.419     28.985   3.040  9.38537E-01  1.00076E+00 -6.22248E-02
    9023.351     29.917   3.080  9.32160E-01  1.00073E+00 -6.85724E-02
    9024.296     30.862   3.120  9.24793E-01  1.00061E+00 -7.58162E-02
    9025.253     31.819   3.160  9.17102E-01  1.00038E+00 -8.32752E-02
    9026.223     32.789   3.200  9.09274E-01  1.00006E+00 -9.07886E-02
    9027.204     33.770   3.240  9.01260E-01  9.99691E-01 -9.84313E-02
    9028.198     34.764   3.280  8.93270E-01  9.99247E-01 -1.05977E-01
    9029.204     35.770   3.320  8.85290E-01  9.98754E-01 -1.13465E-01
    9030.222     36.788   3.360  8.77575E-01  9.98218E-01 -1.20643E-01
    9031.252     37.818   3.400  8.70732E-01  9.97639E-01 -1.26907E-01
    9032.294     38.860   3.440  8.65447E-01  9.97022E-01 -1.31575E-01
    9033.349     39.915   3.480  8.62141E-01  9.96371E-01 -1.34230E-01
    9034.416     40.982   3.520  8.60943E-01  9.95711E-01 -1.34768E-01
    9035.495     42.061   3.560  8.61871E-01  9.95045E-01 -1.33174E-01
    9036.586     43.152   3.600  8.64538E-01  9.94375E-01 -1.29837E-01
    9037.689     44.255   3.640  8.68796E-01  9.93704E-01 -1.24908E-01
    9038.805     45.371   3.680  8.74579E-01  9.93035E-01 -1.18456E-01
    9039.933     46.498   3.720  8.81772E-01  9.92369E-01 -1.10597E-01
    9041.072     47.638   3.760  8.90220E-01  9.91728E-01 -1.01509E-01
    9042.225     48.791   3.800  8.99731E-01  9.91096E-01 -9.13651E-02
    9043.389     49.955   3.840  9.10193E-01  9.90494E-01 -8.03013E-02
    9044.565     51.131   3.880  9.21503E-01  9.89902E-01 -6.83991E-02
    9045.754     52.320   3.920  9.33911E-01  9.89341E-01 -5.54303E-02
    9046.955     53.521   3.960  9.47645E-01  9.88815E-01 -4.11702E-02
    9048.168     54.734   4.000  9.62643E-01  9.88304E-01 -2.56611E-02
    9049.393     55.959   4.040  9.78559E-01  9.87850E-01 -9.29031E-03
    9050.631     57.197   4.080  9.94729E-01  9.87410E-01  7.31955E-03
    9051.881     58.447   4.120  1.01047E+00  9.87008E-01  2.34661E-02
    9053.142     59.708   4.160  1.02537E+00  9.86644E-01  3.87251E-02
    9054.417     60.982   4.200  1.03936E+00  9.86319E-01  5.30372E-02
    9055.703     62.269   4.240  1.05244E+00  9.86056E-01  6.63804E-02
    9057.001     63.567   4.280  1.06430E+00  9.85810E-01  7.84910E-02
    9058.312     64.878   4.320  1.07448E+00  9.85600E-01  8.88795E-02
    9059.635     66.201   4.360  1.08227E+00  9.85429E-01  9.68377E-02
    9060.970     67.536   4.400  1.08694E+00  9.85296E-01  1.01645E-01
    9062.317     68.883   4.440  1.08810E+00  9.85199E-01  1.02896E-01
    9063.676     70.242   4.480  1.08565E+00  9.85119E-01  1.00531E-01
    9065.048     71.614   4.520  1.07997E+00  9.85099E-01  9.48753E-02
    9066.432     72.998   4.560  1.07180E+00  9.85115E-01  8.66826E-02
    9067.828     74.394   4.600  1.06207E+00  9.85145E-01  7.69229E-02
    9069.236     75.802   4.640  1.05172E+00  9.85211E-01  6.65137E-02
    9070.656     77.222   4.680  1.04153E+00  9.85311E-01  5.62196E-02
    9072.089     78.655   4.720  1.03205E+00  9.85446E-01  4.66065E-02
    9073.534     80.099   4.760  1.02364E+00  9.85591E-01  3.80444E-02
    9074.990     81.556   4.800  1.01653E+00  9.85768E-01  3.07663E-02
    9076.460     83.026   4.840  1.01085E+00  9.85956E-01  2.48984E-02
    9077.941     84.507   4.880  1.00664E+00  9.86174E-01  2.04649E-02
    9079.434     86.000   4.920  1.00387E+00  9.86422E-01  1.74513E-02
    9080.940     87.506   4.960  1.00245E+00  9.86677E-01  1.57718E-02
    9082.458     89.024   5.000  1.00214E+00  9.86936E-01  1.52030E-02
    9083.988     90.554   5.040  1.00250E+00  9.87198E-01  1.53057E-02
    9085.530     92.096   5.080  1.00290E+00  9.87484E-01  1.54148E-02
    9087.085     93.651   5.120  1.00257E+00  9.87750E-01  1.48153E-02
    9088.652     95.217   5.160  1.00100E+00  9.88039E-01  1.29616E-02
    9090.230     96.796   5.200  9.97950E-01  9.88329E-01  9.62058E-03
    9091.821     98.387   5.240  9.93454E-01  9.88617E-01  4.83705E-03
    9093.425     99.991   5.280  9.87713E-01  9.88882E-01 -1.16845E-03
    9095.040    101.606   5.320  9.81133E-01  9.89163E-01 -8.02921E-03
    9096.668    103.234   5.360  9.74133E-01  9.89418E-01 -1.52853E-02
    9098.308    104.873   5.400  9.67203E-01  9.89669E-01 -2.24661E-02
    9099.960    106.526   5.440  9.60766E-01  9.89914E-01 -2.91476E-02
    9101.624    108.190   5.480  9.55208E-01  9.90129E-01 -3.49210E-02
    9103.300    109.866   5.520  9.50918E-01  9.90337E-01 -3.94191E-02
    9104.989    111.555   5.560  9.48098E-01  9.90536E-01 -4.24374E-02
    9106.690    113.255   5.600  9.46674E-01  9.90680E-01 -4.40056E-02
    9108.403    114.968   5.640  9.46444E-01  9.90836E-01 -4.43925E-02
    9110.128    116.694   5.680  9.46964E-01  9.90961E-01 -4.39969E-02
    9111.865    118.431   5.720  9.47806E-01  9.91049E-01 -4.32426E-02
    9113.615    120.180   5.760  9.48617E-01  9.91102E-01 -4.24854E-02
    9115.376    121.942   5.800  9.49129E-01  9.91145E-01 -4.20157E-02
    9117.150    123.716   5.840  9.49166E-01  9.91153E-01 -4.19868E-02
    9118.936    125.502   5.880  9.48811E-01  9.91125E-01 -4.23139E-02
    9120.735    127.301   5.920  9.48463E-01  9.91086E-01 -4.26222E-02
    9122.545    129.111   5.960  9.48683E-01  9.90983E-01 -4.22996E-02
    9124.368    130.934   6.000  9.50336E-01  9.90850E-01 -4.05141E-02
