# # comment:                                                     FEFF 9.9.1  
# # Source:
# # Structure
# # Reduced
# # space
# # abc:
# # angles:101.434398
# # sites:
# # POT  SCF 100  7.0000   0, screened core-hole, AFOLP (folp(0)= 1.150)
# # Abs   Z=29 Rmt= 1.305 Rnm= 1.372 K  shell
# # Pot 1 Z=27 Rmt= 1.357 Rnm= 1.463
# # Pot 2 Z=29 Rmt= 1.305 Rnm= 1.372
# # Pot 3 Z=15 Rmt= 0.933 Rnm= 1.151
# # Pot 4 Z= 8 Rmt= 0.896 Rnm= 1.044
# # Gam_ch=1.729E+00 H-L exch Vi= 0.000E+00 Vr= 0.000E+00
# # Mu=-7.963E+00eV kf=2.466E+00 Vint=-1.783E+01eV Rs_int= 1.471
# FMS rfms= 9.0000
# # PATH  Rmax=-1.000,  Keep_limit= 0.00, Heap_limit 0.00  Pwcrit= 2.50%
#  S02=0.950  Temp=   0.00  Debye_temp=   0.00  Global_sig2= 0.00000
#  Energy zero shift, vr, vi    0.00000E+00   0.00000E+00
#  Curved wave amplitude ratio filter   4.000%
#     file         sig2 tot  cw amp ratio   deg  nlegs   reff  inp sig2
#     0/   0 paths used
#  xsedge+ 50, used to normalize mu           2.4834E-04
#  -----------------------------------------------------------------------
#  omega    e    k    mu    mu0     chi     @#
    8983.496    -11.773  -1.000  3.57501E-02  4.65853E-02 -1.08352E-02
    8983.795    -11.475  -0.960  3.75382E-02  4.97948E-02 -1.22566E-02
    8984.082    -11.188  -0.920  3.94481E-02  5.33504E-02 -1.39022E-02
    8984.356    -10.914  -0.880  4.14906E-02  5.73025E-02 -1.58118E-02
    8984.618    -10.652  -0.840  4.36775E-02  6.17097E-02 -1.80323E-02
    8984.868    -10.402  -0.800  4.60214E-02  6.66401E-02 -2.06187E-02
    8985.106    -10.164  -0.760  4.85361E-02  7.21715E-02 -2.36353E-02
    8985.331     -9.938  -0.720  5.12359E-02  7.83919E-02 -2.71560E-02
    8985.545     -9.725  -0.680  5.41351E-02  8.53983E-02 -3.12632E-02
    8985.746     -9.524  -0.640  5.72475E-02  9.32929E-02 -3.60454E-02
    8985.935     -9.335  -0.600  6.05843E-02  1.02176E-01 -4.15916E-02
    8986.112     -9.158  -0.560  6.41525E-02  1.12133E-01 -4.79801E-02
    8986.276     -8.994  -0.520  6.79515E-02  1.23213E-01 -5.52619E-02
    8986.429     -8.841  -0.480  7.19690E-02  1.35406E-01 -6.34370E-02
    8986.569     -8.701  -0.440  7.61764E-02  1.48604E-01 -7.24272E-02
    8986.697     -8.573  -0.400  8.05244E-02  1.62578E-01 -8.20532E-02
    8986.813     -8.457  -0.360  8.49405E-02  1.76969E-01 -9.20289E-02
    8986.916     -8.354  -0.320  8.93298E-02  1.91313E-01 -1.01984E-01
    8987.008     -8.262  -0.280  9.35804E-02  2.05093E-01 -1.11512E-01
    8987.087     -8.183  -0.240  9.75713E-02  2.17810E-01 -1.20239E-01
    8987.154     -8.116  -0.200  1.01183E-01  2.29049E-01 -1.27866E-01
    8987.209     -8.061  -0.160  1.04305E-01  2.38503E-01 -1.34199E-01
    8987.252     -8.018  -0.120  1.06843E-01  2.45978E-01 -1.39135E-01
    8987.282     -7.988  -0.080  1.08723E-01  2.51364E-01 -1.42640E-01
    8987.306     -7.963   0.000  1.10297E-01  2.55692E-01 -1.45395E-01
    8987.361     -7.908   0.120  1.13848E-01  2.65455E-01 -1.51607E-01
    8987.404     -7.866   0.160  1.16640E-01  2.73034E-01 -1.56394E-01
    8987.459     -7.811   0.200  1.20296E-01  2.82728E-01 -1.62431E-01
    8987.526     -7.744   0.240  1.24876E-01  2.94385E-01 -1.69509E-01
    8987.605     -7.665   0.280  1.30432E-01  3.07796E-01 -1.77365E-01
    8987.697     -7.573   0.320  1.36978E-01  3.22606E-01 -1.85629E-01
    8987.800     -7.470   0.360  1.44493E-01  3.38399E-01 -1.93906E-01
    8987.916     -7.354   0.400  1.52916E-01  3.54750E-01 -2.01834E-01
    8988.044     -7.226   0.440  1.62150E-01  3.71237E-01 -2.09087E-01
    8988.184     -7.086   0.480  1.72127E-01  3.87529E-01 -2.15403E-01
    8988.337     -6.933   0.520  1.82997E-01  4.03449E-01 -2.20453E-01
    8988.501     -6.769   0.560  1.95008E-01  4.18911E-01 -2.23903E-01
    8988.678     -6.592   0.600  2.08611E-01  4.33910E-01 -2.25299E-01
    8988.867     -6.403   0.640  2.24224E-01  4.48476E-01 -2.24252E-01
    8989.068     -6.202   0.680  2.42056E-01  4.62671E-01 -2.20615E-01
    8989.281     -5.988   0.720  2.61870E-01  4.76625E-01 -2.14755E-01
    8989.507     -5.763   0.760  2.82686E-01  4.90386E-01 -2.07700E-01
    8989.745     -5.525   0.800  3.03144E-01  5.04036E-01 -2.00892E-01
    8989.995     -5.275   0.840  3.22575E-01  5.17631E-01 -1.95056E-01
    8990.257     -5.013   0.880  3.42396E-01  5.31252E-01 -1.88856E-01
    8990.531     -4.739   0.920  3.65613E-01  5.44929E-01 -1.79316E-01
    8990.818     -4.452   0.960  3.94040E-01  5.58682E-01 -1.64642E-01
    8991.116     -4.153   1.000  4.26140E-01  5.72545E-01 -1.46405E-01
    8991.427     -3.842   1.040  4.57587E-01  5.86545E-01 -1.28958E-01
    8991.750     -3.519   1.080  4.83521E-01  6.00656E-01 -1.17135E-01
    8992.086     -3.184   1.120  5.02325E-01  6.14895E-01 -1.12570E-01
    8992.433     -2.837   1.160  5.20287E-01  6.29248E-01 -1.08961E-01
    8992.793     -2.477   1.200  5.47145E-01  6.43720E-01 -9.65745E-02
    8993.165     -2.105   1.240  5.85072E-01  6.58289E-01 -7.32173E-02
    8993.549     -1.721   1.280  6.28238E-01  6.72935E-01 -4.46969E-02
    8993.945     -1.325   1.320  6.70299E-01  6.87630E-01 -1.73307E-02
    8994.353     -0.916   1.360  7.05793E-01  7.02347E-01  3.44563E-03
    8994.774     -0.496   1.400  7.29392E-01  7.17078E-01  1.23140E-02
    8995.207     -0.063   1.440  7.41391E-01  7.31789E-01  9.60221E-03
    8995.652      0.382   1.480  7.51238E-01  7.46428E-01  4.81016E-03
    8996.109      0.839   1.520  7.74392E-01  7.60962E-01  1.34296E-02
    8996.578      1.309   1.560  8.21119E-01  7.75396E-01  4.57229E-02
    8997.060      1.790   1.600  8.86829E-01  7.89654E-01  9.71753E-02
    8997.554      2.284   1.640  9.49697E-01  8.03722E-01  1.45975E-01
    8998.060      2.790   1.680  9.86616E-01  8.17564E-01  1.69052E-01
    8998.578      3.308   1.720  9.96471E-01  8.31163E-01  1.65308E-01
    8999.108      3.838   1.760  9.99564E-01  8.44444E-01  1.55120E-01
    8999.651      4.381   1.800  1.00535E+00  8.57391E-01  1.47963E-01
    9000.205      4.936   1.840  1.01120E+00  8.69989E-01  1.41214E-01
    9000.772      5.503   1.880  1.01757E+00  8.82205E-01  1.35366E-01
    9001.352      6.082   1.920  1.02311E+00  8.94006E-01  1.29106E-01
    9001.943      6.673   1.960  1.03306E+00  9.05361E-01  1.27698E-01
    9002.546      7.277   2.000  1.05349E+00  9.16256E-01  1.37238E-01
    9003.162      7.892   2.040  1.08045E+00  9.26661E-01  1.53794E-01
    9003.790      8.520   2.080  1.11099E+00  9.36569E-01  1.74424E-01
    9004.430      9.160   2.120  1.14520E+00  9.45953E-01  1.99243E-01
    9005.082      9.812   2.160  1.17561E+00  9.54825E-01  2.20780E-01
    9005.747     10.477   2.200  1.18496E+00  9.63142E-01  2.21820E-01
    9006.423     11.154   2.240  1.17101E+00  9.70899E-01  2.00108E-01
    9007.112     11.842   2.280  1.14968E+00  9.78117E-01  1.71564E-01
    9007.813     12.543   2.320  1.12749E+00  9.84795E-01  1.42698E-01
    9008.526     13.257   2.360  1.10436E+00  9.90914E-01  1.13445E-01
    9009.252     13.982   2.400  1.08390E+00  9.96499E-01  8.73992E-02
    9009.990     14.720   2.440  1.07003E+00  1.00155E+00  6.84818E-02
    9010.739     15.470   2.480  1.06235E+00  1.00605E+00  5.63006E-02
    9011.501     16.232   2.520  1.05862E+00  1.01008E+00  4.85379E-02
    9012.276     17.006   2.560  1.05826E+00  1.01357E+00  4.46972E-02
    9013.062     17.792   2.600  1.06138E+00  1.01659E+00  4.47880E-02
    9013.860     18.591   2.640  1.06551E+00  1.01916E+00  4.63517E-02
    9014.671     19.401   2.680  1.06469E+00  1.02126E+00  4.34296E-02
    9015.494     20.224   2.720  1.05802E+00  1.02297E+00  3.50508E-02
    9016.329     21.060   2.760  1.04798E+00  1.02425E+00  2.37261E-02
    9017.177     21.907   2.800  1.03081E+00  1.02516E+00  5.65011E-03
    9018.036     22.766   2.840  1.00359E+00  1.02571E+00 -2.21171E-02
    9018.908     23.638   2.880  9.69281E-01  1.02590E+00 -5.66215E-02
    9019.792     24.522   2.920  9.34716E-01  1.02582E+00 -9.11056E-02
    9020.688     25.418   2.960  9.05615E-01  1.02544E+00 -1.19820E-01
    9021.596     26.326   3.000  8.85416E-01  1.02480E+00 -1.39382E-01
    9022.517     27.247   3.040  8.73240E-01  1.02392E+00 -1.50679E-01
    9023.449     28.180   3.080  8.67428E-01  1.02283E+00 -1.55404E-01
    9024.394     29.125   3.120  8.66827E-01  1.02155E+00 -1.54719E-01
    9025.351     30.082   3.160  8.70321E-01  1.02009E+00 -1.49773E-01
    9026.321     31.051   3.200  8.76731E-01  1.01849E+00 -1.41757E-01
    9027.302     32.032   3.240  8.85086E-01  1.01678E+00 -1.31693E-01
    9028.296     33.026   3.280  8.94733E-01  1.01496E+00 -1.20223E-01
    9029.302     34.032   3.320  9.05074E-01  1.01305E+00 -1.07974E-01
    9030.320     35.050   3.360  9.16013E-01  1.01107E+00 -9.50534E-02
    9031.350     36.080   3.400  9.27642E-01  1.00904E+00 -8.13979E-02
    9032.392     37.122   3.440  9.39947E-01  1.00700E+00 -6.70498E-02
    9033.447     38.177   3.480  9.52841E-01  1.00493E+00 -5.20848E-02
    9034.514     39.244   3.520  9.66007E-01  1.00285E+00 -3.68464E-02
    9035.593     40.323   3.560  9.78693E-01  1.00081E+00 -2.21129E-02
    9036.684     41.414   3.600  9.89871E-01  9.98771E-01 -8.89976E-03
    9037.787     42.517   3.640  9.98904E-01  9.96773E-01  2.13086E-03
    9038.903     43.633   3.680  1.00558E+00  9.94841E-01  1.07360E-02
    9040.030     44.761   3.720  1.01007E+00  9.92956E-01  1.71113E-02
    9041.170     45.901   3.760  1.01291E+00  9.91125E-01  2.17901E-02
    9042.323     47.053   3.800  1.01475E+00  9.89392E-01  2.53606E-02
    9043.487     48.217   3.840  1.01595E+00  9.87743E-01  2.82035E-02
    9044.663     49.394   3.880  1.01677E+00  9.86180E-01  3.05854E-02
    9045.852     50.582   3.920  1.01746E+00  9.84725E-01  3.27350E-02
    9047.053     51.783   3.960  1.01829E+00  9.83361E-01  3.49267E-02
    9048.266     52.996   4.000  1.01966E+00  9.82110E-01  3.75525E-02
    9049.491     54.222   4.040  1.02205E+00  9.80976E-01  4.10780E-02
    9050.729     55.459   4.080  1.02568E+00  9.79958E-01  4.57223E-02
    9051.979     56.709   4.120  1.03028E+00  9.79034E-01  5.12498E-02
    9053.240     57.971   4.160  1.03534E+00  9.78229E-01  5.71129E-02
    9054.515     59.245   4.200  1.04015E+00  9.77564E-01  6.25849E-02
    9055.801     60.531   4.240  1.04396E+00  9.76997E-01  6.69630E-02
    9057.099     61.829   4.280  1.04630E+00  9.76548E-01  6.97478E-02
    9058.410     63.140   4.320  1.04695E+00  9.76217E-01  7.07366E-02
    9059.733     64.463   4.360  1.04592E+00  9.76004E-01  6.99189E-02
    9061.068     65.798   4.400  1.04332E+00  9.75907E-01  6.74173E-02
    9062.415     67.145   4.440  1.03938E+00  9.75926E-01  6.34495E-02
    9063.774     68.505   4.480  1.03426E+00  9.76035E-01  5.82247E-02
    9065.146     69.876   4.520  1.02822E+00  9.76232E-01  5.19833E-02
    9066.530     71.260   4.560  1.02150E+00  9.76540E-01  4.49598E-02
    9067.926     72.656   4.600  1.01421E+00  9.76955E-01  3.72508E-02
    9069.334     74.064   4.640  1.00627E+00  9.77434E-01  2.88334E-02
    9070.754     75.484   4.680  9.97734E-01  9.78014E-01  1.97195E-02
    9072.187     76.917   4.720  9.88744E-01  9.78673E-01  1.00706E-02
    9073.631     78.362   4.760  9.79654E-01  9.79386E-01  2.68011E-04
    9075.088     79.819   4.800  9.70991E-01  9.80171E-01 -9.17971E-03
    9076.558     81.288   4.840  9.63171E-01  9.81003E-01 -1.78320E-02
    9078.039     82.769   4.880  9.56499E-01  9.81902E-01 -2.54033E-02
    9079.532     84.263   4.920  9.51035E-01  9.82842E-01 -3.18066E-02
    9081.038     85.768   4.960  9.46679E-01  9.83798E-01 -3.71195E-02
    9082.556     87.286   5.000  9.43375E-01  9.84810E-01 -4.14347E-02
    9084.086     88.816   5.040  9.40981E-01  9.85807E-01 -4.48267E-02
    9085.628     90.359   5.080  9.39566E-01  9.86833E-01 -4.72667E-02
    9087.183     91.913   5.120  9.39191E-01  9.87884E-01 -4.86929E-02
    9088.750     93.480   5.160  9.39751E-01  9.88912E-01 -4.91609E-02
    9090.328     95.059   5.200  9.41075E-01  9.89932E-01 -4.88577E-02
    9091.919     96.650   5.240  9.42880E-01  9.90922E-01 -4.80418E-02
    9093.523     98.253   5.280  9.45171E-01  9.91901E-01 -4.67306E-02
    9095.138     99.868   5.320  9.48100E-01  9.92843E-01 -4.47434E-02
    9096.766    101.496   5.360  9.51832E-01  9.93746E-01 -4.19138E-02
    9098.406    103.136   5.400  9.56278E-01  9.94606E-01 -3.83284E-02
    9100.058    104.788   5.440  9.61125E-01  9.95421E-01 -3.42956E-02
    9101.722    106.452   5.480  9.65960E-01  9.96166E-01 -3.02059E-02
    9103.398    108.128   5.520  9.70438E-01  9.96859E-01 -2.64215E-02
    9105.087    109.817   5.560  9.74220E-01  9.97478E-01 -2.32574E-02
    9106.787    111.518   5.600  9.77126E-01  9.98019E-01 -2.08925E-02
    9108.500    113.231   5.640  9.79225E-01  9.98479E-01 -1.92548E-02
    9110.226    114.956   5.680  9.80884E-01  9.98863E-01 -1.79788E-02
    9111.963    116.693   5.720  9.82713E-01  9.99189E-01 -1.64761E-02
    9113.713    118.443   5.760  9.85327E-01  9.99411E-01 -1.40838E-02
    9115.474    120.205   5.800  9.89233E-01  9.99549E-01 -1.03152E-02
    9117.248    121.978   5.840  9.94485E-01  9.99604E-01 -5.11882E-03
    9119.034    123.765   5.880  1.00061E+00  9.99553E-01  1.06014E-03
    9120.833    125.563   5.920  1.00695E+00  9.99442E-01  7.50532E-03
    9122.643    127.373   5.960  1.01276E+00  9.99214E-01  1.35502E-02
    9124.466    129.196   6.000  1.01785E+00  9.98843E-01  1.90096E-02
