# # comment:                                                     FEFF 9.9.1  
# # Source:
# # Structure
# # Reduced
# # space
# # abc:
# # angles:
# # sites:
# # POT  SCF 100  7.0000   0, screened core-hole, AFOLP (folp(0)= 1.150)
# # Abs   Z=29 Rmt= 1.196 Rnm= 1.307 K  shell
# # Pot 1 Z=20 Rmt= 1.570 Rnm= 1.646
# # Pot 2 Z=29 Rmt= 1.196 Rnm= 1.307
# # Pot 3 Z= 8 Rmt= 1.031 Rnm= 1.111
# # Gam_ch=1.729E+00 H-L exch Vi= 0.000E+00 Vr= 0.000E+00
# # Mu=-8.321E+00eV kf=2.134E+00 Vint=-1.593E+01eV Rs_int= 1.700
# FMS rfms= 9.0000
# # PATH  Rmax=-1.000,  Keep_limit= 0.00, Heap_limit 0.00  Pwcrit= 2.50%
#  S02=0.950  Temp=   0.00  Debye_temp=   0.00  Global_sig2= 0.00000
#  Energy zero shift, vr, vi    0.00000E+00   0.00000E+00
#  Curved wave amplitude ratio filter   4.000%
#     file         sig2 tot  cw amp ratio   deg  nlegs   reff  inp sig2
#     0/   0 paths used
#  xsedge+ 50, used to normalize mu           2.4516E-04
#  -----------------------------------------------------------------------
#  omega    e    k    mu    mu0     chi     @#
    8984.022    -12.131  -1.000  3.65139E-02  5.40415E-02 -1.75277E-02
    8984.320    -11.832  -0.960  3.84708E-02  5.79224E-02 -1.94516E-02
    8984.607    -11.546  -0.920  4.05959E-02  6.22284E-02 -2.16325E-02
    8984.881    -11.271  -0.880  4.29113E-02  6.70213E-02 -2.41100E-02
    8985.143    -11.009  -0.840  4.54429E-02  7.23730E-02 -2.69301E-02
    8985.393    -10.759  -0.800  4.82204E-02  7.83664E-02 -3.01461E-02
    8985.631    -10.522  -0.760  5.12778E-02  8.50969E-02 -3.38191E-02
    8985.856    -10.296  -0.720  5.46538E-02  9.26718E-02 -3.80181E-02
    8986.070    -10.083  -0.680  5.83903E-02  1.01209E-01 -4.28191E-02
    8986.271     -9.882  -0.640  6.25316E-02  1.10834E-01 -4.83023E-02
    8986.460     -9.693  -0.600  6.71212E-02  1.21667E-01 -5.45463E-02
    8986.637     -9.516  -0.560  7.21958E-02  1.33814E-01 -6.16180E-02
    8986.801     -9.351  -0.520  7.77772E-02  1.47334E-01 -6.95568E-02
    8986.954     -9.199  -0.480  8.38606E-02  1.62213E-01 -7.83521E-02
    8987.094     -9.059  -0.440  9.04012E-02  1.78320E-01 -8.79189E-02
    8987.222     -8.931  -0.400  9.73016E-02  1.95378E-01 -9.80764E-02
    8987.338     -8.815  -0.360  1.04408E-01  2.12950E-01 -1.08543E-01
    8987.441     -8.711  -0.320  1.11514E-01  2.30471E-01 -1.18957E-01
    8987.533     -8.620  -0.280  1.18386E-01  2.47309E-01 -1.28923E-01
    8987.612     -8.540  -0.240  1.24788E-01  2.62858E-01 -1.38070E-01
    8987.679     -8.473  -0.200  1.30508E-01  2.76608E-01 -1.46099E-01
    8987.734     -8.418  -0.160  1.35378E-01  2.88182E-01 -1.52804E-01
    8987.777     -8.376  -0.120  1.39275E-01  2.97339E-01 -1.58063E-01
    8987.807     -8.345  -0.080  1.42121E-01  3.03940E-01 -1.61819E-01
    8987.832     -8.321   0.000  1.44461E-01  3.09247E-01 -1.64786E-01
    8987.886     -8.266   0.120  1.49669E-01  3.21213E-01 -1.71544E-01
    8987.929     -8.223   0.160  1.53730E-01  3.30538E-01 -1.76808E-01
    8987.984     -8.169   0.200  1.58921E-01  3.42449E-01 -1.83529E-01
    8988.051     -8.101   0.240  1.65203E-01  3.56801E-01 -1.91598E-01
    8988.130     -8.022   0.280  1.72469E-01  3.73327E-01 -2.00858E-01
    8988.222     -7.931   0.320  1.80512E-01  3.91614E-01 -2.11102E-01
    8988.325     -7.827   0.360  1.89068E-01  4.11213E-01 -2.22145E-01
    8988.441     -7.711   0.400  1.97643E-01  4.31537E-01 -2.33894E-01
    8988.569     -7.583   0.440  2.05731E-01  4.52104E-01 -2.46373E-01
    8988.709     -7.443   0.480  2.12774E-01  4.72564E-01 -2.59790E-01
    8988.862     -7.291   0.520  2.18221E-01  4.92637E-01 -2.74417E-01
    8989.026     -7.126   0.560  2.21697E-01  5.12213E-01 -2.90516E-01
    8989.203     -6.949   0.600  2.23171E-01  5.31259E-01 -3.08087E-01
    8989.392     -6.760   0.640  2.23302E-01  5.49802E-01 -3.26500E-01
    8989.593     -6.559   0.680  2.23560E-01  5.67908E-01 -3.44348E-01
    8989.807     -6.346   0.720  2.25970E-01  5.85669E-01 -3.59699E-01
    8990.032     -6.120   0.760  2.32528E-01  6.03138E-01 -3.70610E-01
    8990.270     -5.883   0.800  2.44920E-01  6.20397E-01 -3.75477E-01
    8990.520     -5.633   0.840  2.64575E-01  6.37456E-01 -3.72881E-01
    8990.782     -5.370   0.880  2.92701E-01  6.54372E-01 -3.61671E-01
    8991.056     -5.096   0.920  3.29501E-01  6.71168E-01 -3.41667E-01
    8991.343     -4.810   0.960  3.72266E-01  6.87836E-01 -3.15569E-01
    8991.642     -4.511   1.000  4.13809E-01  7.04357E-01 -2.90548E-01
    8991.952     -4.200   1.040  4.44781E-01  7.20745E-01 -2.75964E-01
    8992.276     -3.877   1.080  4.58283E-01  7.36966E-01 -2.78683E-01
    8992.611     -3.542   1.120  4.54327E-01  7.52980E-01 -2.98653E-01
    8992.958     -3.194   1.160  4.45362E-01  7.68784E-01 -3.23422E-01
    8993.318     -2.835   1.200  4.48049E-01  7.84310E-01 -3.36261E-01
    8993.690     -2.463   1.240  4.67982E-01  7.99527E-01 -3.31546E-01
    8994.074     -2.079   1.280  4.99100E-01  8.14405E-01 -3.15305E-01
    8994.470     -1.682   1.320  5.36345E-01  8.28931E-01 -2.92587E-01
    8994.879     -1.274   1.360  5.76507E-01  8.43031E-01 -2.66524E-01
    8995.299     -0.853   1.400  6.06881E-01  8.56673E-01 -2.49791E-01
    8995.732     -0.421   1.440  6.10498E-01  8.69865E-01 -2.59368E-01
    8996.177      0.024   1.480  5.91679E-01  8.82536E-01 -2.90857E-01
    8996.634      0.482   1.520  5.76143E-01  8.94675E-01 -3.18532E-01
    8997.104      0.951   1.560  5.81174E-01  9.06254E-01 -3.25080E-01
    8997.585      1.433   1.600  6.12927E-01  9.17287E-01 -3.04360E-01
    8998.079      1.926   1.640  6.71204E-01  9.27707E-01 -2.56502E-01
    8998.585      2.432   1.680  7.52586E-01  9.37552E-01 -1.84966E-01
    8999.103      2.951   1.720  8.51614E-01  9.46800E-01 -9.51860E-02
    8999.633      3.481   1.760  9.58661E-01  9.55431E-01  3.22998E-03
    9000.176      4.023   1.800  1.07689E+00  9.63488E-01  1.13405E-01
    9000.731      4.578   1.840  1.21017E+00  9.70931E-01  2.39238E-01
    9001.298      5.145   1.880  1.32936E+00  9.77789E-01  3.51568E-01
    9001.877      5.724   1.920  1.40667E+00  9.84066E-01  4.22603E-01
    9002.468      6.315   1.960  1.46223E+00  9.89790E-01  4.72440E-01
    9003.072      6.919   2.000  1.50124E+00  9.94969E-01  5.06275E-01
    9003.687      7.535   2.040  1.52316E+00  9.99615E-01  5.23547E-01
    9004.315      8.163   2.080  1.51344E+00  1.00374E+00  5.09706E-01
    9004.955      8.803   2.120  1.43030E+00  1.00739E+00  4.22915E-01
    9005.607      9.455   2.160  1.32185E+00  1.01058E+00  3.11271E-01
    9006.272     10.119   2.200  1.24547E+00  1.01334E+00  2.32136E-01
    9006.949     10.796   2.240  1.19420E+00  1.01566E+00  1.78540E-01
    9007.637     11.485   2.280  1.14879E+00  1.01761E+00  1.31177E-01
    9008.338     12.186   2.320  1.11046E+00  1.01918E+00  9.12803E-02
    9009.052     12.899   2.360  1.09109E+00  1.02042E+00  7.06681E-02
    9009.777     13.625   2.400  1.09915E+00  1.02133E+00  7.78140E-02
    9010.515     14.362   2.440  1.13533E+00  1.02195E+00  1.13371E-01
    9011.265     15.112   2.480  1.18741E+00  1.02232E+00  1.65094E-01
    9012.027     15.874   2.520  1.23659E+00  1.02243E+00  2.14160E-01
    9012.801     16.648   2.560  1.24569E+00  1.02231E+00  2.23377E-01
    9013.587     17.435   2.600  1.21273E+00  1.02201E+00  1.90727E-01
    9014.386     18.233   2.640  1.15849E+00  1.02151E+00  1.36979E-01
    9015.196     19.044   2.680  1.09873E+00  1.02085E+00  7.78862E-02
    9016.019     19.867   2.720  1.04453E+00  1.02005E+00  2.44750E-02
    9016.855     20.702   2.760  1.00100E+00  1.01915E+00 -1.81515E-02
    9017.702     21.549   2.800  9.68469E-01  1.01812E+00 -4.96518E-02
    9018.561     22.409   2.840  9.46199E-01  1.01702E+00 -7.08233E-02
    9019.433     23.281   2.880  9.32298E-01  1.01585E+00 -8.35479E-02
    9020.317     24.165   2.920  9.24243E-01  1.01460E+00 -9.03552E-02
    9021.213     25.061   2.960  9.19343E-01  1.01333E+00 -9.39835E-02
    9022.121     25.969   3.000  9.14887E-01  1.01202E+00 -9.71325E-02
    9023.042     26.889   3.040  9.09293E-01  1.01068E+00 -1.01388E-01
    9023.975     27.822   3.080  9.02704E-01  1.00936E+00 -1.06654E-01
    9024.919     28.767   3.120  8.96167E-01  1.00801E+00 -1.11847E-01
    9025.877     29.724   3.160  8.90550E-01  1.00669E+00 -1.16145E-01
    9026.846     30.693   3.200  8.86077E-01  1.00538E+00 -1.19307E-01
    9027.827     31.675   3.240  8.82808E-01  1.00411E+00 -1.21299E-01
    9028.821     32.668   3.280  8.80600E-01  1.00287E+00 -1.22268E-01
    9029.827     33.674   3.320  8.79398E-01  1.00167E+00 -1.22273E-01
    9030.845     34.692   3.360  8.79251E-01  1.00054E+00 -1.21286E-01
    9031.875     35.722   3.400  8.80163E-01  9.99428E-01 -1.19264E-01
    9032.917     36.765   3.440  8.82218E-01  9.98387E-01 -1.16169E-01
    9033.972     37.819   3.480  8.85743E-01  9.97417E-01 -1.11674E-01
    9035.039     38.886   3.520  8.91125E-01  9.96499E-01 -1.05374E-01
    9036.118     39.965   3.560  8.98547E-01  9.95654E-01 -9.71074E-02
    9037.209     41.056   3.600  9.07997E-01  9.94884E-01 -8.68863E-02
    9038.312     42.160   3.640  9.19140E-01  9.94167E-01 -7.50275E-02
    9039.428     43.275   3.680  9.31355E-01  9.93528E-01 -6.21724E-02
    9040.556     44.403   3.720  9.43656E-01  9.92965E-01 -4.93094E-02
    9041.696     45.543   3.760  9.55171E-01  9.92479E-01 -3.73082E-02
    9042.848     46.695   3.800  9.65271E-01  9.92069E-01 -2.67979E-02
    9044.012     47.860   3.840  9.73762E-01  9.91714E-01 -1.79525E-02
    9045.189     49.036   3.880  9.80965E-01  9.91436E-01 -1.04717E-02
    9046.377     50.225   3.920  9.87373E-01  9.91235E-01 -3.86206E-03
    9047.578     51.426   3.960  9.93315E-01  9.91110E-01  2.20508E-03
    9048.791     52.639   4.000  9.98839E-01  9.91060E-01  7.77919E-03
    9050.017     53.864   4.040  1.00389E+00  9.91063E-01  1.28282E-02
    9051.254     55.102   4.080  1.00866E+00  9.91138E-01  1.75235E-02
    9052.504     56.351   4.120  1.01363E+00  9.91262E-01  2.23679E-02
    9053.766     57.613   4.160  1.01950E+00  9.91458E-01  2.80384E-02
    9055.040     58.887   4.200  1.02643E+00  9.91701E-01  3.47306E-02
    9056.326     60.173   4.240  1.03389E+00  9.92013E-01  4.18787E-02
    9057.624     61.472   4.280  1.04089E+00  9.92370E-01  4.85156E-02
    9058.935     62.783   4.320  1.04683E+00  9.92768E-01  5.40609E-02
    9060.258     64.105   4.360  1.05206E+00  9.93208E-01  5.88491E-02
    9061.593     65.440   4.400  1.05757E+00  9.93688E-01  6.38805E-02
    9062.940     66.788   4.440  1.06435E+00  9.94205E-01  7.01423E-02
    9064.299     68.147   4.480  1.07245E+00  9.94757E-01  7.76980E-02
    9065.671     69.519   4.520  1.08105E+00  9.95322E-01  8.57316E-02
    9067.055     70.902   4.560  1.08903E+00  9.95920E-01  9.31152E-02
    9068.451     72.298   4.600  1.09546E+00  9.96549E-01  9.89071E-02
    9069.859     73.706   4.640  1.09974E+00  9.97183E-01  1.02559E-01
    9071.279     75.127   4.680  1.10154E+00  9.97822E-01  1.03715E-01
    9072.712     76.559   4.720  1.10033E+00  9.98464E-01  1.01870E-01
    9074.157     78.004   4.760  1.09555E+00  9.99130E-01  9.64154E-02
    9075.614     79.461   4.800  1.08667E+00  9.99796E-01  8.68748E-02
    9077.083     80.930   4.840  1.07355E+00  1.00044E+00  7.31130E-02
    9078.564     82.412   4.880  1.05664E+00  1.00107E+00  5.55745E-02
    9080.058     83.905   4.920  1.03713E+00  1.00170E+00  3.54293E-02
    9081.563     85.411   4.960  1.01680E+00  1.00232E+00  1.44811E-02
    9083.081     86.929   5.000  9.97651E-01  1.00292E+00 -5.26390E-03
    9084.611     88.459   5.040  9.81253E-01  1.00350E+00 -2.22429E-02
    9086.154     90.001   5.080  9.68275E-01  1.00404E+00 -3.57677E-02
    9087.708     91.556   5.120  9.58492E-01  1.00455E+00 -4.60606E-02
    9089.275     93.122   5.160  9.51162E-01  1.00505E+00 -5.38845E-02
    9090.854     94.701   5.200  9.45613E-01  1.00548E+00 -5.98679E-02
    9092.445     96.292   5.240  9.41785E-01  1.00590E+00 -6.41123E-02
    9094.048     97.895   5.280  9.40049E-01  1.00628E+00 -6.62270E-02
    9095.663     99.511   5.320  9.40913E-01  1.00661E+00 -6.57007E-02
    9097.291    101.138   5.360  9.44647E-01  1.00691E+00 -6.22613E-02
    9098.931    102.778   5.400  9.50911E-01  1.00716E+00 -5.62488E-02
    9100.583    104.430   5.440  9.58638E-01  1.00735E+00 -4.87075E-02
    9102.247    106.094   5.480  9.66341E-01  1.00751E+00 -4.11677E-02
    9103.923    107.771   5.520  9.72449E-01  1.00761E+00 -3.51570E-02
    9105.612    109.459   5.560  9.76017E-01  1.00766E+00 -3.16425E-02
    9107.313    111.160   5.600  9.77001E-01  1.00767E+00 -3.06690E-02
    9109.026    112.873   5.640  9.76060E-01  1.00764E+00 -3.15779E-02
    9110.751    114.598   5.680  9.74091E-01  1.00756E+00 -3.34723E-02
    9112.488    116.336   5.720  9.71951E-01  1.00745E+00 -3.54938E-02
    9114.238    118.085   5.760  9.70538E-01  1.00726E+00 -3.67220E-02
    9115.999    119.847   5.800  9.70748E-01  1.00703E+00 -3.62829E-02
    9117.773    121.621   5.840  9.73331E-01  1.00676E+00 -3.34329E-02
    9119.559    123.407   5.880  9.78976E-01  1.00648E+00 -2.75074E-02
    9121.358    125.205   5.920  9.88119E-01  1.00614E+00 -1.80213E-02
    9123.168    127.016   5.960  1.00057E+00  1.00576E+00 -5.18678E-03
    9124.991    128.838   6.000  1.01496E+00  1.00531E+00  9.65653E-03
