# # comment:                                                     FEFF 9.9.1  
# # Source:
# # Structure
# # Reduced
# # space
# # abc:
# # angles:
# # sites:
# # POT  SCF 100  7.0000   0, screened core-hole, AFOLP (folp(0)= 1.150)
# # Abs   Z=29 Rmt= 1.237 Rnm= 1.322 K  shell
# # Pot 1 Z=38 Rmt= 1.836 Rnm= 1.900
# # Pot 2 Z=29 Rmt= 1.237 Rnm= 1.322
# # Pot 3 Z=14 Rmt= 1.003 Rnm= 1.214
# # Pot 4 Z= 8 Rmt= 0.963 Rnm= 1.076
# # Gam_ch=1.729E+00 H-L exch Vi= 0.000E+00 Vr= 0.000E+00
# # Mu=-8.108E+00eV kf=2.238E+00 Vint=-1.755E+01eV Rs_int= 1.620
# FMS rfms= 9.0000
# # PATH  Rmax=-1.000,  Keep_limit= 0.00, Heap_limit 0.00  Pwcrit= 2.50%
#  S02=0.950  Temp=   0.00  Debye_temp=   0.00  Global_sig2= 0.00000
#  Energy zero shift, vr, vi    0.00000E+00   0.00000E+00
#  Curved wave amplitude ratio filter   4.000%
#     file         sig2 tot  cw amp ratio   deg  nlegs   reff  inp sig2
#     0/   0 paths used
#  xsedge+ 50, used to normalize mu           2.4904E-04
#  -----------------------------------------------------------------------
#  omega    e    k    mu    mu0     chi     @#
    8983.720    -11.918  -1.000  3.27667E-02  4.95698E-02 -1.68032E-02
    8984.018    -11.619  -0.960  3.42708E-02  5.30957E-02 -1.88250E-02
    8984.305    -11.333  -0.920  3.58645E-02  5.70099E-02 -2.11454E-02
    8984.579    -11.058  -0.880  3.75545E-02  6.13693E-02 -2.38149E-02
    8984.841    -10.796  -0.840  3.93476E-02  6.62405E-02 -2.68929E-02
    8985.091    -10.546  -0.800  4.12513E-02  7.17004E-02 -3.04491E-02
    8985.329    -10.309  -0.760  4.32733E-02  7.78373E-02 -3.45640E-02
    8985.554    -10.083  -0.720  4.54211E-02  8.47509E-02 -3.93297E-02
    8985.768     -9.870  -0.680  4.77022E-02  9.25511E-02 -4.48489E-02
    8985.969     -9.669  -0.640  5.01229E-02  1.01354E-01 -5.12312E-02
    8986.158     -9.480  -0.600  5.26875E-02  1.11274E-01 -5.85860E-02
    8986.335     -9.303  -0.560  5.53969E-02  1.22407E-01 -6.70099E-02
    8986.499     -9.138  -0.520  5.82462E-02  1.34811E-01 -7.65653E-02
    8986.652     -8.986  -0.480  6.12222E-02  1.48474E-01 -8.72521E-02
    8986.792     -8.846  -0.440  6.43004E-02  1.63276E-01 -9.89752E-02
    8986.920     -8.718  -0.400  6.74423E-02  1.78958E-01 -1.11515E-01
    8987.036     -8.602  -0.360  7.05944E-02  1.95116E-01 -1.24522E-01
    8987.139     -8.498  -0.320  7.36900E-02  2.11226E-01 -1.37536E-01
    8987.231     -8.407  -0.280  7.66540E-02  2.26704E-01 -1.50050E-01
    8987.310     -8.327  -0.240  7.94091E-02  2.40990E-01 -1.61580E-01
    8987.377     -8.260  -0.200  8.18820E-02  2.53613E-01 -1.71731E-01
    8987.432     -8.206  -0.160  8.40073E-02  2.64230E-01 -1.80223E-01
    8987.475     -8.163  -0.120  8.57303E-02  2.72623E-01 -1.86893E-01
    8987.505     -8.132  -0.080  8.70076E-02  2.78669E-01 -1.91661E-01
    8987.530     -8.108   0.000  8.80866E-02  2.83526E-01 -1.95440E-01
    8987.584     -8.053   0.120  9.05345E-02  2.94470E-01 -2.03936E-01
    8987.627     -8.010   0.160  9.24321E-02  3.02990E-01 -2.10557E-01
    8987.682     -7.956   0.200  9.48866E-02  3.13852E-01 -2.18965E-01
    8987.749     -7.889   0.240  9.79548E-02  3.26908E-01 -2.28954E-01
    8987.828     -7.809   0.280  1.01698E-01  3.41917E-01 -2.40219E-01
    8987.920     -7.718   0.320  1.06200E-01  3.58494E-01 -2.52294E-01
    8988.023     -7.614   0.360  1.11523E-01  3.76125E-01 -2.64602E-01
    8988.139     -7.498   0.400  1.17826E-01  3.94326E-01 -2.76500E-01
    8988.267     -7.370   0.440  1.25302E-01  4.12616E-01 -2.87314E-01
    8988.407     -7.230   0.480  1.34249E-01  4.30658E-01 -2.96409E-01
    8988.560     -7.078   0.520  1.44998E-01  4.48188E-01 -3.03190E-01
    8988.724     -6.913   0.560  1.58068E-01  4.65142E-01 -3.07074E-01
    8988.901     -6.736   0.600  1.73913E-01  4.81453E-01 -3.07540E-01
    8989.090     -6.547   0.640  1.92946E-01  4.97195E-01 -3.04249E-01
    8989.291     -6.346   0.680  2.14908E-01  5.12432E-01 -2.97525E-01
    8989.505     -6.133   0.720  2.38060E-01  5.27245E-01 -2.89185E-01
    8989.730     -5.907   0.760  2.58528E-01  5.41751E-01 -2.83223E-01
    8989.968     -5.670   0.800  2.71576E-01  5.56019E-01 -2.84443E-01
    8990.218     -5.420   0.840  2.75649E-01  5.70087E-01 -2.94438E-01
    8990.480     -5.158   0.880  2.74845E-01  5.84021E-01 -3.09177E-01
    8990.754     -4.883   0.920  2.75938E-01  5.97877E-01 -3.21938E-01
    8991.041     -4.597   0.960  2.83950E-01  6.11675E-01 -3.27725E-01
    8991.340     -4.298   1.000  3.00750E-01  6.25409E-01 -3.24659E-01
    8991.650     -3.987   1.040  3.25495E-01  6.39125E-01 -3.13630E-01
    8991.973     -3.664   1.080  3.55253E-01  6.52803E-01 -2.97550E-01
    8992.309     -3.329   1.120  3.87204E-01  6.66434E-01 -2.79230E-01
    8992.656     -2.981   1.160  4.22267E-01  6.80025E-01 -2.57758E-01
    8993.016     -2.622   1.200  4.65472E-01  6.93560E-01 -2.28088E-01
    8993.388     -2.250   1.240  5.21166E-01  7.07020E-01 -1.85854E-01
    8993.772     -1.866   1.280  5.90314E-01  7.20383E-01 -1.30069E-01
    8994.168     -1.469   1.320  6.68336E-01  7.33625E-01 -6.52884E-02
    8994.576     -1.061   1.360  7.40619E-01  7.46717E-01 -6.09808E-03
    8994.997     -0.640   1.400  7.87248E-01  7.59654E-01  2.75939E-02
    8995.430     -0.208   1.440  7.99511E-01  7.72387E-01  2.71235E-02
    8995.875      0.237   1.480  7.87064E-01  7.84928E-01  2.13644E-03
    8996.332      0.695   1.520  7.62067E-01  7.97208E-01 -3.51404E-02
    8996.802      1.164   1.560  7.35104E-01  8.09258E-01 -7.41537E-02
    8997.283      1.646   1.600  7.18083E-01  8.20987E-01 -1.02905E-01
    8997.777      2.139   1.640  7.15213E-01  8.32430E-01 -1.17217E-01
    8998.283      2.645   1.680  7.23227E-01  8.43557E-01 -1.20330E-01
    8998.801      3.163   1.720  7.43867E-01  8.54340E-01 -1.10473E-01
    8999.331      3.694   1.760  7.82412E-01  8.64753E-01 -8.23406E-02
    8999.874      4.236   1.800  8.43162E-01  8.74810E-01 -3.16473E-02
    9000.429      4.791   1.840  9.28499E-01  8.84484E-01  4.40147E-02
    9000.996      5.358   1.880  1.02914E+00  8.93753E-01  1.35384E-01
    9001.575      5.937   1.920  1.12523E+00  9.02611E-01  2.22614E-01
    9002.166      6.528   1.960  1.20672E+00  9.11077E-01  2.95641E-01
    9002.769      7.132   2.000  1.27608E+00  9.19110E-01  3.56968E-01
    9003.385      7.748   2.040  1.32945E+00  9.26748E-01  4.02706E-01
    9004.013      8.376   2.080  1.35844E+00  9.33951E-01  4.24486E-01
    9004.653      9.016   2.120  1.36314E+00  9.40761E-01  4.22380E-01
    9005.305      9.668   2.160  1.34376E+00  9.47139E-01  3.96618E-01
    9005.970     10.332   2.200  1.29649E+00  9.53108E-01  3.43383E-01
    9006.647     11.009   2.240  1.22924E+00  9.58670E-01  2.70574E-01
    9007.335     11.698   2.280  1.16094E+00  9.63850E-01  1.97092E-01
    9008.036     12.399   2.320  1.10879E+00  9.68633E-01  1.40154E-01
    9008.750     13.112   2.360  1.07953E+00  9.73043E-01  1.06492E-01
    9009.475     13.837   2.400  1.06901E+00  9.77086E-01  9.19218E-02
    9010.213     14.575   2.440  1.06675E+00  9.80767E-01  8.59832E-02
    9010.962     15.325   2.480  1.05839E+00  9.84114E-01  7.42767E-02
    9011.724     16.087   2.520  1.04336E+00  9.87113E-01  5.62444E-02
    9012.499     16.861   2.560  1.04215E+00  9.89811E-01  5.23399E-02
    9013.285     17.647   2.600  1.06235E+00  9.92214E-01  7.01380E-02
    9014.084     18.446   2.640  1.07803E+00  9.94312E-01  8.37232E-02
    9014.894     19.257   2.680  1.07288E+00  9.96151E-01  7.67317E-02
    9015.717     20.080   2.720  1.06124E+00  9.97719E-01  6.35173E-02
    9016.552     20.915   2.760  1.04869E+00  9.99063E-01  4.96316E-02
    9017.400     21.762   2.800  1.03334E+00  1.00017E+00  3.31722E-02
    9018.259     22.622   2.840  1.01359E+00  1.00105E+00  1.25483E-02
    9019.131     23.494   2.880  9.90547E-01  1.00174E+00 -1.11934E-02
    9020.015     24.377   2.920  9.66218E-01  1.00224E+00 -3.60224E-02
    9020.911     25.274   2.960  9.42165E-01  1.00257E+00 -6.04071E-02
    9021.819     26.182   3.000  9.19798E-01  1.00274E+00 -8.29440E-02
    9022.740     27.102   3.040  8.99800E-01  1.00276E+00 -1.02956E-01
    9023.673     28.035   3.080  8.82315E-01  1.00265E+00 -1.20330E-01
    9024.617     28.980   3.120  8.67509E-01  1.00243E+00 -1.34923E-01
    9025.575     29.937   3.160  8.55182E-01  1.00208E+00 -1.46901E-01
    9026.544     30.906   3.200  8.45475E-01  1.00167E+00 -1.56191E-01
    9027.525     31.888   3.240  8.38682E-01  1.00114E+00 -1.62461E-01
    9028.519     32.881   3.280  8.35225E-01  1.00054E+00 -1.65316E-01
    9029.525     33.887   3.320  8.35093E-01  9.99887E-01 -1.64794E-01
    9030.543     34.905   3.360  8.38253E-01  9.99185E-01 -1.60932E-01
    9031.573     35.935   3.400  8.44789E-01  9.98419E-01 -1.53630E-01
    9032.615     36.978   3.440  8.54654E-01  9.97634E-01 -1.42980E-01
    9033.670     38.032   3.480  8.67821E-01  9.96813E-01 -1.28993E-01
    9034.737     39.099   3.520  8.84233E-01  9.95981E-01 -1.11749E-01
    9035.816     40.178   3.560  9.03451E-01  9.95121E-01 -9.16706E-02
    9036.907     41.269   3.600  9.24443E-01  9.94256E-01 -6.98121E-02
    9038.010     42.373   3.640  9.45698E-01  9.93388E-01 -4.76903E-02
    9039.126     43.488   3.680  9.65534E-01  9.92522E-01 -2.69886E-02
    9040.254     44.616   3.720  9.82531E-01  9.91682E-01 -9.15131E-03
    9041.394     45.756   3.760  9.95871E-01  9.90848E-01  5.02254E-03
    9042.546     46.908   3.800  1.00545E+00  9.90024E-01  1.54235E-02
    9043.710     48.072   3.840  1.01165E+00  9.89252E-01  2.23951E-02
    9044.887     49.249   3.880  1.01521E+00  9.88492E-01  2.67198E-02
    9046.075     50.438   3.920  1.01714E+00  9.87745E-01  2.93952E-02
    9047.276     51.639   3.960  1.01842E+00  9.87055E-01  3.13608E-02
    9048.489     52.852   4.000  1.01982E+00  9.86382E-01  3.34409E-02
    9049.715     54.077   4.040  1.02216E+00  9.85769E-01  3.63942E-02
    9050.952     55.315   4.080  1.02595E+00  9.85174E-01  4.07731E-02
    9052.202     56.564   4.120  1.03135E+00  9.84641E-01  4.67078E-02
    9053.464     57.826   4.160  1.03801E+00  9.84148E-01  5.38659E-02
    9054.738     59.100   4.200  1.04517E+00  9.83673E-01  6.14927E-02
    9056.024     60.386   4.240  1.05187E+00  9.83262E-01  6.86099E-02
    9057.322     61.685   4.280  1.05713E+00  9.82895E-01  7.42334E-02
    9058.633     62.995   4.320  1.06026E+00  9.82591E-01  7.76710E-02
    9059.956     64.318   4.360  1.06099E+00  9.82308E-01  7.86858E-02
    9061.291     65.653   4.400  1.05961E+00  9.82085E-01  7.75234E-02
    9062.638     67.000   4.440  1.05661E+00  9.81884E-01  7.47276E-02
    9063.997     68.360   4.480  1.05259E+00  9.81744E-01  7.08409E-02
    9065.369     69.731   4.520  1.04790E+00  9.81645E-01  6.62575E-02
    9066.753     71.115   4.560  1.04288E+00  9.81585E-01  6.12986E-02
    9068.149     72.511   4.600  1.03776E+00  9.81542E-01  5.62149E-02
    9069.557     73.919   4.640  1.03262E+00  9.81560E-01  5.10648E-02
    9070.977     75.340   4.680  1.02720E+00  9.81618E-01  4.55783E-02
    9072.410     76.772   4.720  1.02092E+00  9.81711E-01  3.92067E-02
    9073.855     78.217   4.760  1.01314E+00  9.81818E-01  3.13208E-02
    9075.312     79.674   4.800  1.00363E+00  9.81961E-01  2.16687E-02
    9076.781     81.143   4.840  9.92767E-01  9.82138E-01  1.06286E-02
    9078.262     82.624   4.880  9.81463E-01  9.82349E-01 -8.85888E-04
    9079.756     84.118   4.920  9.70828E-01  9.82570E-01 -1.17428E-02
    9081.261     85.624   4.960  9.61873E-01  9.82822E-01 -2.09487E-02
    9082.779     87.142   5.000  9.55282E-01  9.83081E-01 -2.77994E-02
    9084.309     88.672   5.040  9.51434E-01  9.83367E-01 -3.19331E-02
    9085.852     90.214   5.080  9.50290E-01  9.83639E-01 -3.33487E-02
    9087.406     91.768   5.120  9.51577E-01  9.83957E-01 -3.23806E-02
    9088.973     93.335   5.160  9.54542E-01  9.84258E-01 -2.97155E-02
    9090.552     94.914   5.200  9.58431E-01  9.84582E-01 -2.61501E-02
    9092.143     96.505   5.240  9.62480E-01  9.84884E-01 -2.24044E-02
    9093.746     98.108   5.280  9.66210E-01  9.85207E-01 -1.89966E-02
    9095.361     99.724   5.320  9.69176E-01  9.85507E-01 -1.63307E-02
    9096.989    101.351   5.360  9.71004E-01  9.85826E-01 -1.48225E-02
    9098.629    102.991   5.400  9.71248E-01  9.86119E-01 -1.48712E-02
    9100.281    104.643   5.440  9.69696E-01  9.86406E-01 -1.67101E-02
    9101.945    106.307   5.480  9.66399E-01  9.86665E-01 -2.02668E-02
    9103.621    107.984   5.520  9.61732E-01  9.86939E-01 -2.52071E-02
    9105.310    109.672   5.560  9.56017E-01  9.87161E-01 -3.11437E-02
    9107.011    111.373   5.600  9.49695E-01  9.87395E-01 -3.77006E-02
    9108.724    113.086   5.640  9.43196E-01  9.87576E-01 -4.43794E-02
    9110.449    114.811   5.680  9.37289E-01  9.87768E-01 -5.04793E-02
    9112.186    116.549   5.720  9.32700E-01  9.87905E-01 -5.52045E-02
    9113.936    118.298   5.760  9.30170E-01  9.88028E-01 -5.78580E-02
    9115.697    120.060   5.800  9.30157E-01  9.88118E-01 -5.79606E-02
    9117.471    121.834   5.840  9.32865E-01  9.88195E-01 -5.53303E-02
    9119.257    123.620   5.880  9.38044E-01  9.88213E-01 -5.01687E-02
    9121.056    125.418   5.920  9.45036E-01  9.88217E-01 -4.31807E-02
    9122.866    127.229   5.960  9.53295E-01  9.88184E-01 -3.48888E-02
    9124.689    129.051   6.000  9.62548E-01  9.88124E-01 -2.55762E-02
