# # comment:                                                     FEFF 9.9.1  
# # Source:
# # Structure
# # Reduced
# # space
# # abc:
# # angles:
# # sites:
# # POT  SCF 100  7.0000   0, screened core-hole, AFOLP (folp(0)= 1.150)
# # Abs   Z=29 Rmt= 1.141 Rnm= 1.243 K  shell
# # Pot 1 Z= 3 Rmt= 1.230 Rnm= 1.282
# # Pot 2 Z=29 Rmt= 1.141 Rnm= 1.243
# # Pot 3 Z=28 Rmt= 1.262 Rnm= 1.360
# # Pot 4 Z= 8 Rmt= 1.035 Rnm= 1.096
# # Gam_ch=1.729E+00 H-L exch Vi= 0.000E+00 Vr= 0.000E+00
# # Mu=-1.091E+01eV kf=2.174E+00 Vint=-1.811E+01eV Rs_int= 1.668
# FMS rfms= 9.0000
# # PATH  Rmax=-1.000,  Keep_limit= 0.00, Heap_limit 0.00  Pwcrit= 2.50%
#  S02=0.950  Temp=   0.00  Debye_temp=   0.00  Global_sig2= 0.00000
#  Energy zero shift, vr, vi    0.00000E+00   0.00000E+00
#  Curved wave amplitude ratio filter   4.000%
#     file         sig2 tot  cw amp ratio   deg  nlegs   reff  inp sig2
#     0/   0 paths used
#  xsedge+ 50, used to normalize mu           2.4562E-04
#  -----------------------------------------------------------------------
#  omega    e    k    mu    mu0     chi     @#
    8984.988    -14.721  -1.000  2.97193E-02  5.24348E-02 -2.27155E-02
    8985.286    -14.422  -0.960  3.09355E-02  5.61337E-02 -2.51982E-02
    8985.573    -14.136  -0.920  3.22214E-02  6.02316E-02 -2.80103E-02
    8985.847    -13.861  -0.880  3.35841E-02  6.47859E-02 -3.12018E-02
    8986.109    -13.599  -0.840  3.50321E-02  6.98633E-02 -3.48312E-02
    8986.359    -13.349  -0.800  3.65753E-02  7.55408E-02 -3.89655E-02
    8986.597    -13.111  -0.760  3.82250E-02  8.19068E-02 -4.36817E-02
    8986.822    -12.886  -0.720  3.99941E-02  8.90606E-02 -4.90664E-02
    8987.036    -12.673  -0.680  4.18968E-02  9.71116E-02 -5.52148E-02
    8987.237    -12.471  -0.640  4.39480E-02  1.06175E-01 -6.22268E-02
    8987.426    -12.282  -0.600  4.61621E-02  1.16363E-01 -7.02007E-02
    8987.603    -12.106  -0.560  4.85507E-02  1.27771E-01 -7.92204E-02
    8987.767    -11.941  -0.520  5.11194E-02  1.40455E-01 -8.93359E-02
    8987.920    -11.789  -0.480  5.38631E-02  1.54401E-01 -1.00537E-01
    8988.060    -11.648  -0.440  5.67606E-02  1.69485E-01 -1.12725E-01
    8988.188    -11.520  -0.400  5.97702E-02  1.85450E-01 -1.25680E-01
    8988.304    -11.405  -0.360  6.28277E-02  2.01891E-01 -1.39063E-01
    8988.407    -11.301  -0.320  6.58508E-02  2.18279E-01 -1.52428E-01
    8988.499    -11.210  -0.280  6.87475E-02  2.34030E-01 -1.65282E-01
    8988.578    -11.130  -0.240  7.14277E-02  2.48578E-01 -1.77150E-01
    8988.645    -11.063  -0.200  7.38132E-02  2.61446E-01 -1.87633E-01
    8988.700    -11.008  -0.160  7.58429E-02  2.72283E-01 -1.96440E-01
    8988.743    -10.966  -0.120  7.74735E-02  2.80859E-01 -2.03386E-01
    8988.773    -10.935  -0.080  7.86765E-02  2.87044E-01 -2.08368E-01
    8988.798    -10.911   0.000  7.97013E-02  2.92019E-01 -2.12318E-01
    8988.852    -10.856   0.120  8.19688E-02  3.03248E-01 -2.21279E-01
    8988.895    -10.813   0.160  8.36702E-02  3.11992E-01 -2.28322E-01
    8988.950    -10.758   0.200  8.58120E-02  3.23164E-01 -2.37352E-01
    8989.017    -10.691   0.240  8.84204E-02  3.36674E-01 -2.48253E-01
    8989.096    -10.612   0.280  9.13998E-02  3.52221E-01 -2.60821E-01
    8989.188    -10.521   0.320  9.47295E-02  3.69492E-01 -2.74763E-01
    8989.291    -10.417   0.360  9.83347E-02  3.88020E-01 -2.89685E-01
    8989.407    -10.301   0.400  1.02069E-01  4.07327E-01 -3.05258E-01
    8989.535    -10.173   0.440  1.05704E-01  4.26955E-01 -3.21251E-01
    8989.675    -10.033   0.480  1.08952E-01  4.46565E-01 -3.37613E-01
    8989.828     -9.881   0.520  1.11480E-01  4.65942E-01 -3.54462E-01
    8989.992     -9.716   0.560  1.13014E-01  4.84944E-01 -3.71930E-01
    8990.169     -9.539   0.600  1.13647E-01  5.03560E-01 -3.89913E-01
    8990.358     -9.350   0.640  1.13754E-01  5.21836E-01 -4.08082E-01
    8990.559     -9.149   0.680  1.13985E-01  5.39829E-01 -4.25844E-01
    8990.773     -8.936   0.720  1.15054E-01  5.57584E-01 -4.42529E-01
    8990.998     -8.710   0.760  1.17606E-01  5.75184E-01 -4.57578E-01
    8991.236     -8.472   0.800  1.22192E-01  5.92685E-01 -4.70492E-01
    8991.486     -8.222   0.840  1.29215E-01  6.10108E-01 -4.80893E-01
    8991.748     -7.960   0.880  1.39169E-01  6.27504E-01 -4.88335E-01
    8992.022     -7.686   0.920  1.52382E-01  6.44850E-01 -4.92469E-01
    8992.309     -7.400   0.960  1.68625E-01  6.62193E-01 -4.93568E-01
    8992.608     -7.101   1.000  1.86460E-01  6.79468E-01 -4.93008E-01
    8992.918     -6.790   1.040  2.04445E-01  6.96706E-01 -4.92261E-01
    8993.242     -6.467   1.080  2.24295E-01  7.13846E-01 -4.89551E-01
    8993.577     -6.132   1.120  2.52083E-01  7.30846E-01 -4.78763E-01
    8993.924     -5.784   1.160  2.94933E-01  7.47697E-01 -4.52764E-01
    8994.284     -5.424   1.200  3.56692E-01  7.64347E-01 -4.07655E-01
    8994.656     -5.053   1.240  4.31576E-01  7.80743E-01 -3.49166E-01
    8995.040     -4.669   1.280  5.04394E-01  7.96848E-01 -2.92453E-01
    8995.436     -4.272   1.320  5.69618E-01  8.12625E-01 -2.43007E-01
    8995.845     -3.864   1.360  6.30620E-01  8.28017E-01 -1.97397E-01
    8996.265     -3.443   1.400  6.76689E-01  8.42986E-01 -1.66297E-01
    8996.698     -3.010   1.440  6.97204E-01  8.57477E-01 -1.60273E-01
    8997.143     -2.565   1.480  7.03360E-01  8.71493E-01 -1.68133E-01
    8997.600     -2.108   1.520  7.08374E-01  8.84980E-01 -1.76606E-01
    8998.070     -1.639   1.560  7.12189E-01  8.97886E-01 -1.85696E-01
    8998.551     -1.157   1.600  7.16282E-01  9.10219E-01 -1.93937E-01
    8999.045     -0.663   1.640  7.26073E-01  9.21951E-01 -1.95877E-01
    8999.551     -0.158   1.680  7.37951E-01  9.33054E-01 -1.95103E-01
    9000.069      0.361   1.720  7.45780E-01  9.43504E-01 -1.97724E-01
    9000.599      0.891   1.760  7.64507E-01  9.53338E-01 -1.88831E-01
    9001.142      1.434   1.800  8.15424E-01  9.62515E-01 -1.47091E-01
    9001.697      1.988   1.840  8.93686E-01  9.71055E-01 -7.73687E-02
    9002.264      2.555   1.880  9.86698E-01  9.78942E-01  7.75572E-03
    9002.843      3.134   1.920  1.09338E+00  9.86200E-01  1.07177E-01
    9003.434      3.726   1.960  1.21783E+00  9.92813E-01  2.25015E-01
    9004.038      4.329   2.000  1.35717E+00  9.98834E-01  3.58337E-01
    9004.653      4.945   2.040  1.50670E+00  1.00427E+00  5.02433E-01
    9005.281      5.573   2.080  1.65140E+00  1.00913E+00  6.42271E-01
    9005.921      6.213   2.120  1.74779E+00  1.01344E+00  7.34347E-01
    9006.573      6.865   2.160  1.75384E+00  1.01723E+00  7.36620E-01
    9007.238      7.530   2.200  1.66398E+00  1.02049E+00  6.43492E-01
    9007.915      8.206   2.240  1.51578E+00  1.02328E+00  4.92501E-01
    9008.603      8.895   2.280  1.36504E+00  1.02562E+00  3.39418E-01
    9009.304      9.596   2.320  1.23902E+00  1.02752E+00  2.11509E-01
    9010.018     10.309   2.360  1.13934E+00  1.02903E+00  1.10308E-01
    9010.743     11.035   2.400  1.06202E+00  1.03017E+00  3.18512E-02
    9011.481     11.772   2.440  1.00396E+00  1.03095E+00 -2.69912E-02
    9012.231     12.522   2.480  9.61865E-01  1.03142E+00 -6.95581E-02
    9012.993     13.284   2.520  9.32230E-01  1.03158E+00 -9.93537E-02
    9013.767     14.058   2.560  9.19653E-01  1.03149E+00 -1.11833E-01
    9014.553     14.845   2.600  9.37859E-01  1.03114E+00 -9.32807E-02
    9015.352     15.643   2.640  9.67547E-01  1.03056E+00 -6.30115E-02
    9016.162     16.454   2.680  1.00024E+00  1.02979E+00 -2.95569E-02
    9016.985     17.277   2.720  1.03223E+00  1.02884E+00  3.38966E-03
    9017.821     18.112   2.760  1.06170E+00  1.02772E+00  3.39877E-02
    9018.668     18.959   2.800  1.08663E+00  1.02647E+00  6.01650E-02
    9019.527     19.819   2.840  1.10494E+00  1.02512E+00  7.98178E-02
    9020.399     20.691   2.880  1.11568E+00  1.02366E+00  9.20228E-02
    9021.283     21.575   2.920  1.11854E+00  1.02211E+00  9.64244E-02
    9022.179     22.471   2.960  1.11356E+00  1.02049E+00  9.30728E-02
    9023.087     23.379   3.000  1.10110E+00  1.01884E+00  8.22513E-02
    9024.008     24.300   3.040  1.08144E+00  1.01714E+00  6.43079E-02
    9024.941     25.232   3.080  1.05615E+00  1.01542E+00  4.07291E-02
    9025.885     26.177   3.120  1.02801E+00  1.01369E+00  1.43214E-02
    9026.843     27.134   3.160  9.99449E-01  1.01194E+00 -1.24901E-02
    9027.812     28.103   3.200  9.72509E-01  1.01021E+00 -3.77058E-02
    9028.793     29.085   3.240  9.48710E-01  1.00852E+00 -5.98100E-02
    9029.787     30.079   3.280  9.28726E-01  1.00684E+00 -7.81130E-02
    9030.793     31.084   3.320  9.12711E-01  1.00520E+00 -9.24852E-02
    9031.811     32.102   3.360  9.00447E-01  1.00362E+00 -1.03169E-01
    9032.841     33.133   3.400  8.91096E-01  1.00208E+00 -1.10985E-01
    9033.883     34.175   3.440  8.83827E-01  1.00059E+00 -1.16766E-01
    9034.938     35.230   3.480  8.78107E-01  9.99154E-01 -1.21047E-01
    9036.005     36.296   3.520  8.73794E-01  9.97811E-01 -1.24018E-01
    9037.084     37.375   3.560  8.70759E-01  9.96523E-01 -1.25764E-01
    9038.175     38.467   3.600  8.69174E-01  9.95312E-01 -1.26137E-01
    9039.278     39.570   3.640  8.69145E-01  9.94180E-01 -1.25035E-01
    9040.394     40.686   3.680  8.70653E-01  9.93128E-01 -1.22476E-01
    9041.522     41.813   3.720  8.73607E-01  9.92158E-01 -1.18551E-01
    9042.662     42.953   3.760  8.77984E-01  9.91270E-01 -1.13285E-01
    9043.814     44.105   3.800  8.83860E-01  9.90486E-01 -1.06626E-01
    9044.978     45.270   3.840  8.91415E-01  9.89763E-01 -9.83477E-02
    9046.155     46.446   3.880  9.01165E-01  9.89143E-01 -8.79787E-02
    9047.343     47.635   3.920  9.13562E-01  9.88587E-01 -7.50246E-02
    9048.544     48.836   3.960  9.28804E-01  9.88132E-01 -5.93277E-02
    9049.757     50.049   4.000  9.46457E-01  9.87760E-01 -4.13031E-02
    9050.983     51.274   4.040  9.65672E-01  9.87472E-01 -2.17995E-02
    9052.220     52.512   4.080  9.85287E-01  9.87264E-01 -1.97712E-03
    9053.470     53.761   4.120  1.00404E+00  9.87137E-01  1.69005E-02
    9054.732     55.023   4.160  1.02077E+00  9.87090E-01  3.36838E-02
    9056.006     56.297   4.200  1.03464E+00  9.87122E-01  4.75205E-02
    9057.292     57.584   4.240  1.04519E+00  9.87232E-01  5.79578E-02
    9058.590     58.882   4.280  1.05241E+00  9.87417E-01  6.49926E-02
    9059.901     60.193   4.320  1.05657E+00  9.87655E-01  6.89163E-02
    9061.224     61.515   4.360  1.05802E+00  9.87966E-01  7.00530E-02
    9062.559     62.850   4.400  1.05700E+00  9.88327E-01  6.86753E-02
    9063.906     64.198   4.440  1.05388E+00  9.88756E-01  6.51234E-02
    9065.265     65.557   4.480  1.04919E+00  9.89234E-01  5.99584E-02
    9066.637     66.929   4.520  1.04382E+00  9.89779E-01  5.40446E-02
    9068.021     68.312   4.560  1.03862E+00  9.90344E-01  4.82745E-02
    9069.417     69.708   4.600  1.03420E+00  9.90972E-01  4.32335E-02
    9070.825     71.117   4.640  1.03078E+00  9.91638E-01  3.91401E-02
    9072.245     72.537   4.680  1.02841E+00  9.92318E-01  3.60874E-02
    9073.678     73.970   4.720  1.02703E+00  9.93034E-01  3.39959E-02
    9075.123     75.414   4.760  1.02640E+00  9.93782E-01  3.26191E-02
    9076.580     76.871   4.800  1.02624E+00  9.94540E-01  3.17017E-02
    9078.049     78.340   4.840  1.02655E+00  9.95326E-01  3.12256E-02
    9079.530     79.822   4.880  1.02757E+00  9.96117E-01  3.14543E-02
    9081.024     81.315   4.920  1.02972E+00  9.96909E-01  3.28126E-02
    9082.529     82.821   4.960  1.03304E+00  9.97701E-01  3.53430E-02
    9084.047     84.339   5.000  1.03726E+00  9.98491E-01  3.87664E-02
    9085.577     85.869   5.040  1.04201E+00  9.99276E-01  4.27295E-02
    9087.120     87.411   5.080  1.04700E+00  1.00003E+00  4.69631E-02
    9088.674     88.966   5.120  1.05194E+00  1.00078E+00  5.11588E-02
    9090.241     90.532   5.160  1.05620E+00  1.00152E+00  5.46790E-02
    9091.820     92.111   5.200  1.05875E+00  1.00223E+00  5.65178E-02
    9093.411     93.702   5.240  1.05848E+00  1.00293E+00  5.55515E-02
    9095.014     95.305   5.280  1.05448E+00  1.00356E+00  5.09205E-02
    9096.629     96.921   5.320  1.04663E+00  1.00418E+00  4.24491E-02
    9098.257     98.549   5.360  1.03579E+00  1.00476E+00  3.10337E-02
    9099.897    100.188   5.400  1.02383E+00  1.00530E+00  1.85287E-02
    9101.549    101.840   5.440  1.01266E+00  1.00580E+00  6.86055E-03
    9103.213    103.505   5.480  1.00336E+00  1.00623E+00 -2.86754E-03
    9104.889    105.181   5.520  9.96000E-01  1.00663E+00 -1.06324E-02
    9106.578    106.870   5.560  9.89856E-01  1.00697E+00 -1.71162E-02
    9108.279    108.570   5.600  9.84182E-01  1.00726E+00 -2.30812E-02
    9109.992    110.283   5.640  9.78464E-01  1.00748E+00 -2.90210E-02
    9111.717    112.008   5.680  9.72371E-01  1.00766E+00 -3.52884E-02
    9113.454    113.746   5.720  9.65428E-01  1.00779E+00 -4.23593E-02
    9115.204    115.495   5.760  9.57238E-01  1.00785E+00 -5.06075E-02
    9116.965    117.257   5.800  9.47825E-01  1.00786E+00 -6.00310E-02
    9118.739    119.031   5.840  9.37519E-01  1.00782E+00 -7.03020E-02
    9120.525    120.817   5.880  9.26716E-01  1.00771E+00 -8.09984E-02
    9122.324    122.615   5.920  9.16079E-01  1.00754E+00 -9.14564E-02
    9124.134    124.426   5.960  9.06911E-01  1.00733E+00 -1.00418E-01
    9125.957    126.249   6.000  9.01197E-01  1.00698E+00 -1.05782E-01
