# # comment:                                                     FEFF 9.9.1  
# # Source:
# # Structure
# # Reduced
# # space
# # abc:
# # angles:111.408630
# # sites:
# # POT  SCF 100  7.0000   0, screened core-hole, AFOLP (folp(0)= 1.150)
# # Abs   Z=29 Rmt= 1.156 Rnm= 1.309 K  shell
# # Pot 1 Z=29 Rmt= 1.156 Rnm= 1.309
# # Pot 2 Z=14 Rmt= 0.928 Rnm= 1.215
# # Pot 3 Z= 8 Rmt= 1.077 Rnm= 1.248
# # Gam_ch=1.729E+00 H-L exch Vi= 0.000E+00 Vr= 0.000E+00
# # Mu=-8.129E+00eV kf=2.027E+00 Vint=-1.284E+01eV Rs_int= 1.789
# FMS rfms= 9.0000
# # PATH  Rmax=-1.000,  Keep_limit= 0.00, Heap_limit 0.00  Pwcrit= 2.50%
#  S02=0.950  Temp=   0.00  Debye_temp=   0.00  Global_sig2= 0.00000
#  Energy zero shift, vr, vi    0.00000E+00   0.00000E+00
#  Curved wave amplitude ratio filter   4.000%
#     file         sig2 tot  cw amp ratio   deg  nlegs   reff  inp sig2
#     0/   0 paths used
#  xsedge+ 50, used to normalize mu           2.3976E-04
#  -----------------------------------------------------------------------
#  omega    e    k    mu    mu0     chi     @#
    8983.404    -11.939  -1.000  2.82990E-02  5.20301E-02 -2.37311E-02
    8983.703    -11.640  -0.960  2.93619E-02  5.55348E-02 -2.61730E-02
    8983.989    -11.354  -0.920  3.04839E-02  5.93952E-02 -2.89114E-02
    8984.263    -11.079  -0.880  3.16725E-02  6.36597E-02 -3.19872E-02
    8984.526    -10.817  -0.840  3.29370E-02  6.83841E-02 -3.54471E-02
    8984.775    -10.567  -0.800  3.42884E-02  7.36327E-02 -3.93443E-02
    8985.013    -10.330  -0.760  3.57399E-02  7.94786E-02 -4.37386E-02
    8985.239    -10.104  -0.720  3.73073E-02  8.60036E-02 -4.86963E-02
    8985.452     -9.891  -0.680  3.90084E-02  9.32972E-02 -5.42888E-02
    8985.653     -9.690  -0.640  4.08625E-02  1.01453E-01 -6.05902E-02
    8985.842     -9.501  -0.600  4.28890E-02  1.10560E-01 -6.76714E-02
    8986.019     -9.324  -0.560  4.51041E-02  1.20696E-01 -7.55917E-02
    8986.184     -9.159  -0.520  4.75164E-02  1.31901E-01 -8.43846E-02
    8986.336     -9.007  -0.480  5.01194E-02  1.44159E-01 -9.40395E-02
    8986.476     -8.867  -0.440  5.28841E-02  1.57364E-01 -1.04480E-01
    8986.604     -8.739  -0.400  5.57532E-02  1.71298E-01 -1.15544E-01
    8986.720     -8.623  -0.360  5.86413E-02  1.85620E-01 -1.26978E-01
    8986.824     -8.519  -0.320  6.14435E-02  1.99888E-01 -1.38445E-01
    8986.915     -8.428  -0.280  6.40536E-02  2.13610E-01 -1.49556E-01
    8986.994     -8.348  -0.240  6.63830E-02  2.26304E-01 -1.59921E-01
    8987.061     -8.281  -0.200  6.83730E-02  2.37559E-01 -1.69186E-01
    8987.116     -8.226  -0.160  6.99961E-02  2.47064E-01 -1.77068E-01
    8987.159     -8.184  -0.120  7.12481E-02  2.54607E-01 -1.83359E-01
    8987.189     -8.153  -0.080  7.21385E-02  2.60061E-01 -1.87923E-01
    8987.214     -8.129   0.000  7.28755E-02  2.64460E-01 -1.91584E-01
    8987.269     -8.074   0.120  7.48104E-02  2.74405E-01 -1.99594E-01
    8987.311     -8.031   0.160  7.61189E-02  2.82184E-01 -2.06065E-01
    8987.366     -7.977   0.200  7.76600E-02  2.92188E-01 -2.14528E-01
    8987.433     -7.909   0.240  7.93343E-02  3.04344E-01 -2.25009E-01
    8987.513     -7.830   0.280  8.10230E-02  3.18496E-01 -2.37473E-01
    8987.604     -7.739   0.320  8.26127E-02  3.34416E-01 -2.51804E-01
    8987.708     -7.635   0.360  8.39650E-02  3.51779E-01 -2.67814E-01
    8987.823     -7.519   0.400  8.50157E-02  3.70222E-01 -2.85207E-01
    8987.951     -7.391   0.440  8.57634E-02  3.89472E-01 -3.03709E-01
    8988.092     -7.251   0.480  8.62629E-02  4.09240E-01 -3.22977E-01
    8988.244     -7.099   0.520  8.66323E-02  4.29369E-01 -3.42737E-01
    8988.409     -6.934   0.560  8.71010E-02  4.49765E-01 -3.62664E-01
    8988.585     -6.757   0.600  8.78632E-02  4.70436E-01 -3.82573E-01
    8988.774     -6.568   0.640  8.89858E-02  4.91348E-01 -4.02362E-01
    8988.976     -6.367   0.680  9.05130E-02  5.12549E-01 -4.22036E-01
    8989.189     -6.154   0.720  9.23986E-02  5.34070E-01 -4.41672E-01
    8989.415     -5.928   0.760  9.46298E-02  5.55914E-01 -4.61285E-01
    8989.652     -5.691   0.800  9.73110E-02  5.78096E-01 -4.80785E-01
    8989.902     -5.441   0.840  1.00646E-01  6.00576E-01 -4.99931E-01
    8990.164     -5.178   0.880  1.05053E-01  6.23344E-01 -5.18291E-01
    8990.439     -4.904   0.920  1.10933E-01  6.46335E-01 -5.35402E-01
    8990.725     -4.618   0.960  1.18694E-01  6.69472E-01 -5.50779E-01
    8991.024     -4.319   1.000  1.28797E-01  6.92715E-01 -5.63918E-01
    8991.335     -4.008   1.040  1.41561E-01  7.15950E-01 -5.74389E-01
    8991.658     -3.685   1.080  1.57359E-01  7.39098E-01 -5.81740E-01
    8991.993     -3.350   1.120  1.76467E-01  7.62058E-01 -5.85591E-01
    8992.341     -3.002   1.160  1.98866E-01  7.84723E-01 -5.85857E-01
    8992.700     -2.643   1.200  2.24359E-01  8.06984E-01 -5.82625E-01
    8993.072     -2.271   1.240  2.53590E-01  8.28735E-01 -5.75145E-01
    8993.456     -1.887   1.280  2.88976E-01  8.49888E-01 -5.60912E-01
    8993.852     -1.490   1.320  3.33404E-01  8.70359E-01 -5.36954E-01
    8994.261     -1.082   1.360  3.85508E-01  8.90046E-01 -5.04538E-01
    8994.681     -0.661   1.400  4.38320E-01  9.08892E-01 -4.70572E-01
    8995.114     -0.229   1.440  4.87777E-01  9.26802E-01 -4.39026E-01
    8995.559      0.216   1.480  5.35727E-01  9.43731E-01 -4.08004E-01
    8996.016      0.674   1.520  5.87765E-01  9.59634E-01 -3.71869E-01
    8996.486      1.143   1.560  6.46338E-01  9.74497E-01 -3.28158E-01
    8996.967      1.625   1.600  7.05571E-01  9.88246E-01 -2.82674E-01
    8997.461      2.118   1.640  7.64211E-01  1.00092E+00 -2.36706E-01
    8997.967      2.624   1.680  8.29313E-01  1.01249E+00 -1.83178E-01
    8998.485      3.143   1.720  9.08540E-01  1.02297E+00 -1.14431E-01
    8999.016      3.673   1.760  1.00020E+00  1.03239E+00 -3.21889E-02
    8999.558      4.215   1.800  1.10151E+00  1.04075E+00  6.07580E-02
    9000.113      4.770   1.840  1.22307E+00  1.04808E+00  1.74985E-01
    9000.680      5.337   1.880  1.36668E+00  1.05446E+00  3.12225E-01
    9001.259      5.916   1.920  1.50586E+00  1.05988E+00  4.45979E-01
    9001.850      6.507   1.960  1.59771E+00  1.06442E+00  5.33287E-01
    9002.454      7.111   2.000  1.62127E+00  1.06810E+00  5.53172E-01
    9003.070      7.727   2.040  1.60142E+00  1.07102E+00  5.30401E-01
    9003.697      8.355   2.080  1.56495E+00  1.07317E+00  4.91774E-01
    9004.337      8.995   2.120  1.51039E+00  1.07465E+00  4.35739E-01
    9004.990      9.647   2.160  1.44374E+00  1.07552E+00  3.68221E-01
    9005.654     10.311   2.200  1.38240E+00  1.07581E+00  3.06589E-01
    9006.331     10.988   2.240  1.34288E+00  1.07556E+00  2.67316E-01
    9007.020     11.677   2.280  1.32743E+00  1.07484E+00  2.52582E-01
    9007.721     12.378   2.320  1.33034E+00  1.07371E+00  2.56633E-01
    9008.434     13.091   2.360  1.33734E+00  1.07219E+00  2.65148E-01
    9009.159     13.817   2.400  1.32284E+00  1.07034E+00  2.52504E-01
    9009.897     14.554   2.440  1.27910E+00  1.06822E+00  2.10881E-01
    9010.647     15.304   2.480  1.23639E+00  1.06582E+00  1.70565E-01
    9011.409     16.066   2.520  1.20916E+00  1.06322E+00  1.45945E-01
    9012.183     16.840   2.560  1.18780E+00  1.06046E+00  1.27336E-01
    9012.969     17.627   2.600  1.16612E+00  1.05755E+00  1.08573E-01
    9013.768     18.425   2.640  1.14272E+00  1.05451E+00  8.82015E-02
    9014.579     19.236   2.680  1.11833E+00  1.05140E+00  6.69348E-02
    9015.402     20.059   2.720  1.09408E+00  1.04823E+00  4.58483E-02
    9016.237     20.894   2.760  1.07042E+00  1.04504E+00  2.53803E-02
    9017.084     21.741   2.800  1.04737E+00  1.04183E+00  5.53711E-03
    9017.944     22.601   2.840  1.02496E+00  1.03862E+00 -1.36540E-02
    9018.815     23.473   2.880  1.00336E+00  1.03544E+00 -3.20834E-02
    9019.699     24.357   2.920  9.82554E-01  1.03231E+00 -4.97553E-02
    9020.595     25.253   2.960  9.62640E-01  1.02925E+00 -6.66075E-02
    9021.504     26.161   3.000  9.43482E-01  1.02626E+00 -8.27805E-02
    9022.424     27.081   3.040  9.24683E-01  1.02334E+00 -9.86577E-02
    9023.357     28.014   3.080  9.06047E-01  1.02053E+00 -1.14483E-01
    9024.302     28.959   3.120  8.87775E-01  1.01783E+00 -1.30058E-01
    9025.259     29.916   3.160  8.70626E-01  1.01523E+00 -1.44609E-01
    9026.228     30.885   3.200  8.55270E-01  1.01276E+00 -1.57491E-01
    9027.210     31.867   3.240  8.42328E-01  1.01043E+00 -1.68106E-01
    9028.203     32.860   3.280  8.32350E-01  1.00824E+00 -1.75887E-01
    9029.209     33.866   3.320  8.25684E-01  1.00617E+00 -1.80486E-01
    9030.227     34.884   3.360  8.22417E-01  1.00424E+00 -1.81819E-01
    9031.257     35.914   3.400  8.22655E-01  1.00246E+00 -1.79805E-01
    9032.300     36.957   3.440  8.26456E-01  1.00084E+00 -1.74386E-01
    9033.354     38.011   3.480  8.33553E-01  9.99384E-01 -1.65831E-01
    9034.421     39.078   3.520  8.43646E-01  9.98063E-01 -1.54417E-01
    9035.500     40.157   3.560  8.56550E-01  9.96900E-01 -1.40350E-01
    9036.591     41.248   3.600  8.71943E-01  9.95876E-01 -1.23933E-01
    9037.695     42.352   3.640  8.89370E-01  9.95010E-01 -1.05640E-01
    9038.810     43.467   3.680  9.08386E-01  9.94304E-01 -8.59180E-02
    9039.938     44.595   3.720  9.28445E-01  9.93758E-01 -6.53126E-02
    9041.078     45.735   3.760  9.48861E-01  9.93346E-01 -4.44854E-02
    9042.230     46.887   3.800  9.68986E-01  9.93070E-01 -2.40840E-02
    9043.394     48.052   3.840  9.88388E-01  9.92970E-01 -4.58190E-03
    9044.571     49.228   3.880  1.00668E+00  9.92981E-01  1.37007E-02
    9045.760     50.417   3.920  1.02371E+00  9.93144E-01  3.05692E-02
    9046.961     51.618   3.960  1.03949E+00  9.93435E-01  4.60523E-02
    9048.174     52.831   4.000  1.05419E+00  9.93851E-01  6.03399E-02
    9049.399     54.056   4.040  1.06799E+00  9.94392E-01  7.36015E-02
    9050.636     55.294   4.080  1.08086E+00  9.95055E-01  8.58059E-02
    9051.886     56.543   4.120  1.09235E+00  9.95838E-01  9.65090E-02
    9053.148     57.805   4.160  1.10162E+00  9.96717E-01  1.04907E-01
    9054.422     59.079   4.200  1.10781E+00  9.97711E-01  1.10099E-01
    9055.708     60.365   4.240  1.11046E+00  9.98816E-01  1.11641E-01
    9057.007     61.664   4.280  1.10933E+00  9.99987E-01  1.09340E-01
    9058.317     62.975   4.320  1.10458E+00  1.00126E+00  1.03316E-01
    9059.640     64.297   4.360  1.09679E+00  1.00259E+00  9.41934E-02
    9060.975     65.632   4.400  1.08711E+00  1.00400E+00  8.31032E-02
    9062.322     66.980   4.440  1.07697E+00  1.00549E+00  7.14865E-02
    9063.682     68.339   4.480  1.06781E+00  1.00702E+00  6.07861E-02
    9065.053     69.711   4.520  1.06079E+00  1.00860E+00  5.21947E-02
    9066.437     71.094   4.560  1.05657E+00  1.01022E+00  4.63519E-02
    9067.833     72.490   4.600  1.05523E+00  1.01190E+00  4.33305E-02
    9069.241     73.898   4.640  1.05619E+00  1.01357E+00  4.26277E-02
    9070.662     75.319   4.680  1.05852E+00  1.01529E+00  4.32310E-02
    9072.094     76.751   4.720  1.06082E+00  1.01699E+00  4.38242E-02
    9073.539     78.196   4.760  1.06183E+00  1.01872E+00  4.31159E-02
    9074.996     79.653   4.800  1.06051E+00  1.02042E+00  4.00887E-02
    9076.465     81.122   4.840  1.05642E+00  1.02212E+00  3.43084E-02
    9077.946     82.604   4.880  1.04994E+00  1.02380E+00  2.61360E-02
    9079.440     84.097   4.920  1.04205E+00  1.02546E+00  1.65875E-02
    9080.946     85.603   4.960  1.03398E+00  1.02709E+00  6.88682E-03
    9082.463     87.121   5.000  1.02654E+00  1.02867E+00 -2.12436E-03
    9083.994     88.651   5.040  1.02006E+00  1.03019E+00 -1.01320E-02
    9085.536     90.193   5.080  1.01450E+00  1.03167E+00 -1.71726E-02
    9087.090     91.748   5.120  1.00965E+00  1.03307E+00 -2.34222E-02
    9088.657     93.314   5.160  1.00533E+00  1.03442E+00 -2.90874E-02
    9090.236     94.893   5.200  1.00118E+00  1.03569E+00 -3.45136E-02
    9091.827     96.484   5.240  9.96839E-01  1.03688E+00 -4.00425E-02
    9093.430     98.087   5.280  9.92086E-01  1.03799E+00 -4.58999E-02
    9095.046     99.703   5.320  9.86948E-01  1.03901E+00 -5.20573E-02
    9096.673    101.330   5.360  9.81748E-01  1.03994E+00 -5.81880E-02
    9098.313    102.970   5.400  9.77101E-01  1.04075E+00 -6.36531E-02
    9099.965    104.622   5.440  9.73843E-01  1.04148E+00 -6.76386E-02
    9101.629    106.286   5.480  9.72736E-01  1.04212E+00 -6.93823E-02
    9103.306    107.963   5.520  9.74148E-01  1.04264E+00 -6.84891E-02
    9104.994    109.651   5.560  9.77936E-01  1.04304E+00 -6.51026E-02
    9106.695    111.352   5.600  9.83477E-01  1.04335E+00 -5.98688E-02
    9108.408    113.065   5.640  9.89901E-01  1.04354E+00 -5.36362E-02
    9110.133    114.790   5.680  9.96423E-01  1.04364E+00 -4.72130E-02
    9111.870    116.528   5.720  1.00243E+00  1.04362E+00 -4.11918E-02
    9113.620    118.277   5.760  1.00758E+00  1.04351E+00 -3.59289E-02
    9115.382    120.039   5.800  1.01175E+00  1.04329E+00 -3.15361E-02
    9117.156    121.813   5.840  1.01514E+00  1.04298E+00 -2.78413E-02
    9118.942    123.599   5.880  1.01821E+00  1.04255E+00 -2.43463E-02
    9120.740    125.397   5.920  1.02161E+00  1.04204E+00 -2.04302E-02
    9122.551    127.208   5.960  1.02565E+00  1.04144E+00 -1.57904E-02
    9124.373    129.030   6.000  1.03009E+00  1.04063E+00 -1.05383E-02
