# # comment:                                                     FEFF 9.9.1  
# # Source:
# # Structure
# # Reduced
# # space
# # abc:
# # angles:
# # sites:
# # POT  SCF 100  7.0000   0, screened core-hole, AFOLP (folp(0)= 1.150)
# # Abs   Z=29 Rmt= 1.169 Rnm= 1.253 K  shell
# # Pot 1 Z=57 Rmt= 1.767 Rnm= 1.841
# # Pot 2 Z=29 Rmt= 1.169 Rnm= 1.253
# # Pot 3 Z= 8 Rmt= 1.039 Rnm= 1.087
# # Gam_ch=1.729E+00 H-L exch Vi= 0.000E+00 Vr= 0.000E+00
# # Mu=-7.883E+00eV kf=2.093E+00 Vint=-1.897E+01eV Rs_int= 1.733
# FMS rfms= 9.0000
# # PATH  Rmax=-1.000,  Keep_limit= 0.00, Heap_limit 0.00  Pwcrit= 2.50%
#  S02=0.950  Temp=   0.00  Debye_temp=   0.00  Global_sig2= 0.00000
#  Energy zero shift, vr, vi    0.00000E+00   0.00000E+00
#  Curved wave amplitude ratio filter   4.000%
#     file         sig2 tot  cw amp ratio   deg  nlegs   reff  inp sig2
#     0/   0 paths used
#  xsedge+ 50, used to normalize mu           2.4508E-04
#  -----------------------------------------------------------------------
#  omega    e    k    mu    mu0     chi     @#
    8985.336    -11.693  -1.000  4.07997E-02  5.82684E-02 -1.74688E-02
    8985.635    -11.395  -0.960  4.29541E-02  6.26555E-02 -1.97014E-02
    8985.921    -11.108  -0.920  4.52727E-02  6.75450E-02 -2.22723E-02
    8986.195    -10.834  -0.880  4.77743E-02  7.30125E-02 -2.52382E-02
    8986.458    -10.572  -0.840  5.04800E-02  7.91457E-02 -2.86656E-02
    8986.707    -10.322  -0.800  5.34146E-02  8.60467E-02 -3.26321E-02
    8986.945    -10.084  -0.760  5.66058E-02  9.38330E-02 -3.72272E-02
    8987.171     -9.858  -0.720  6.00848E-02  1.02637E-01 -4.25523E-02
    8987.384     -9.645  -0.680  6.38857E-02  1.12606E-01 -4.87201E-02
    8987.585     -9.444  -0.640  6.80435E-02  1.23894E-01 -5.58503E-02
    8987.774     -9.255  -0.600  7.25916E-02  1.36654E-01 -6.40622E-02
    8987.951     -9.078  -0.560  7.75559E-02  1.51017E-01 -7.34608E-02
    8988.116     -8.914  -0.520  8.29467E-02  1.67061E-01 -8.41147E-02
    8988.268     -8.761  -0.480  8.87464E-02  1.84773E-01 -9.60265E-02
    8988.408     -8.621  -0.440  9.48969E-02  2.03995E-01 -1.09098E-01
    8988.536     -8.493  -0.400  1.01289E-01  2.24389E-01 -1.23100E-01
    8988.652     -8.377  -0.360  1.07761E-01  2.45421E-01 -1.37661E-01
    8988.756     -8.274  -0.320  1.14111E-01  2.66399E-01 -1.52288E-01
    8988.847     -8.182  -0.280  1.20127E-01  2.86553E-01 -1.66426E-01
    8988.926     -8.103  -0.240  1.25612E-01  3.05146E-01 -1.79534E-01
    8988.993     -8.036  -0.200  1.30413E-01  3.21565E-01 -1.91151E-01
    8989.048     -7.981  -0.160  1.34423E-01  3.35363E-01 -2.00940E-01
    8989.091     -7.938  -0.120  1.37577E-01  3.46259E-01 -2.08682E-01
    8989.122     -7.908  -0.080  1.39838E-01  3.54102E-01 -2.14264E-01
    8989.146     -7.883   0.000  1.41635E-01  3.60397E-01 -2.18761E-01
    8989.201     -7.829   0.120  1.45853E-01  3.74597E-01 -2.28744E-01
    8989.243     -7.786   0.160  1.49088E-01  3.85588E-01 -2.36500E-01
    8989.298     -7.731   0.200  1.53258E-01  3.99623E-01 -2.46365E-01
    8989.365     -7.664   0.240  1.58299E-01  4.16445E-01 -2.58147E-01
    8989.445     -7.585   0.280  1.64214E-01  4.35709E-01 -2.71495E-01
    8989.536     -7.493   0.320  1.70978E-01  4.56882E-01 -2.85904E-01
    8989.640     -7.390   0.360  1.78558E-01  4.79266E-01 -3.00708E-01
    8989.755     -7.274   0.400  1.86990E-01  5.02186E-01 -3.15196E-01
    8989.884     -7.146   0.440  1.96271E-01  5.24969E-01 -3.28698E-01
    8990.024     -7.006   0.480  2.06418E-01  5.47166E-01 -3.40748E-01
    8990.176     -6.853   0.520  2.17218E-01  5.68426E-01 -3.51207E-01
    8990.341     -6.689   0.560  2.28476E-01  5.88584E-01 -3.60108E-01
    8990.517     -6.512   0.600  2.40334E-01  6.07649E-01 -3.67315E-01
    8990.706     -6.323   0.640  2.53374E-01  6.25649E-01 -3.72276E-01
    8990.908     -6.122   0.680  2.68831E-01  6.42702E-01 -3.73871E-01
    8991.121     -5.908   0.720  2.88093E-01  6.58923E-01 -3.70831E-01
    8991.347     -5.683   0.760  3.11696E-01  6.74424E-01 -3.62728E-01
    8991.584     -5.445   0.800  3.37818E-01  6.89327E-01 -3.51510E-01
    8991.834     -5.195   0.840  3.61341E-01  7.03721E-01 -3.42380E-01
    8992.096     -4.933   0.880  3.76305E-01  7.17657E-01 -3.41351E-01
    8992.371     -4.659   0.920  3.81414E-01  7.31233E-01 -3.49819E-01
    8992.657     -4.372   0.960  3.81778E-01  7.44470E-01 -3.62692E-01
    8992.956     -4.073   1.000  3.84574E-01  7.57419E-01 -3.72845E-01
    8993.267     -3.763   1.040  3.95060E-01  7.70078E-01 -3.75018E-01
    8993.590     -3.439   1.080  4.16814E-01  7.82480E-01 -3.65666E-01
    8993.925     -3.104   1.120  4.53116E-01  7.94626E-01 -3.41510E-01
    8994.273     -2.757   1.160  5.07584E-01  8.06493E-01 -2.98909E-01
    8994.632     -2.397   1.200  5.84208E-01  8.18135E-01 -2.33927E-01
    8995.004     -2.025   1.240  6.86769E-01  8.29480E-01 -1.42712E-01
    8995.388     -1.641   1.280  8.18242E-01  8.40554E-01 -2.23122E-02
    8995.784     -1.245   1.320  9.77869E-01  8.51339E-01  1.26531E-01
    8996.193     -0.836   1.360  1.14513E+00  8.61816E-01  2.83313E-01
    8996.613     -0.416   1.400  1.24863E+00  8.71984E-01  3.76644E-01
    8997.046      0.017   1.440  1.21661E+00  8.81825E-01  3.34784E-01
    8997.491      0.462   1.480  1.09507E+00  8.91315E-01  2.03756E-01
    8997.948      0.919   1.520  9.77969E-01  9.00452E-01  7.75166E-02
    8998.418      1.389   1.560  9.06392E-01  9.09236E-01 -2.84395E-03
    8998.899      1.870   1.600  8.93960E-01  9.17645E-01 -2.36851E-02
    8999.393      2.364   1.640  9.51801E-01  9.25656E-01  2.61454E-02
    8999.899      2.870   1.680  1.08253E+00  9.33290E-01  1.49238E-01
    9000.417      3.388   1.720  1.26064E+00  9.40526E-01  3.20117E-01
    9000.948      3.918   1.760  1.40504E+00  9.47384E-01  4.57653E-01
    9001.490      4.461   1.800  1.42204E+00  9.53826E-01  4.68217E-01
    9002.045      5.016   1.840  1.32538E+00  9.59895E-01  3.65489E-01
    9002.612      5.583   1.880  1.20240E+00  9.65550E-01  2.36853E-01
    9003.191      6.162   1.920  1.10391E+00  9.70816E-01  1.33093E-01
    9003.782      6.753   1.960  1.04607E+00  9.75717E-01  7.03518E-02
    9004.386      7.357   2.000  1.03550E+00  9.80217E-01  5.52835E-02
    9005.002      7.972   2.040  1.06850E+00  9.84362E-01  8.41416E-02
    9005.629      8.600   2.080  1.12067E+00  9.88157E-01  1.32512E-01
    9006.269      9.240   2.120  1.18144E+00  9.91589E-01  1.89849E-01
    9006.922      9.892   2.160  1.23673E+00  9.94703E-01  2.42029E-01
    9007.586     10.557   2.200  1.26030E+00  9.97486E-01  2.62810E-01
    9008.263     11.234   2.240  1.23839E+00  9.99944E-01  2.38450E-01
    9008.952     11.922   2.280  1.18362E+00  1.00213E+00  1.81491E-01
    9009.653     12.623   2.320  1.12110E+00  1.00400E+00  1.17100E-01
    9010.366     13.337   2.360  1.07004E+00  1.00563E+00  6.44031E-02
    9011.091     14.062   2.400  1.04126E+00  1.00699E+00  3.42749E-02
    9011.829     14.800   2.440  1.03766E+00  1.00812E+00  2.95422E-02
    9012.579     15.550   2.480  1.05514E+00  1.00902E+00  4.61205E-02
    9013.341     16.312   2.520  1.08075E+00  1.00970E+00  7.10447E-02
    9014.115     17.086   2.560  1.09319E+00  1.01020E+00  8.29860E-02
    9014.901     17.872   2.600  1.09427E+00  1.01051E+00  8.37572E-02
    9015.700     18.671   2.640  1.09074E+00  1.01068E+00  8.00625E-02
    9016.511     19.481   2.680  1.08549E+00  1.01068E+00  7.48163E-02
    9017.334     20.304   2.720  1.07823E+00  1.01055E+00  6.76864E-02
    9018.169     21.140   2.760  1.06829E+00  1.01027E+00  5.80189E-02
    9019.016     21.987   2.800  1.05530E+00  1.00990E+00  4.53995E-02
    9019.876     22.846   2.840  1.03923E+00  1.00943E+00  2.98040E-02
    9020.747     23.718   2.880  1.02022E+00  1.00888E+00  1.13429E-02
    9021.631     24.602   2.920  9.98687E-01  1.00825E+00 -9.56035E-03
    9022.527     25.498   2.960  9.75765E-01  1.00756E+00 -3.17967E-02
    9023.436     26.406   3.000  9.53661E-01  1.00681E+00 -5.31466E-02
    9024.356     27.327   3.040  9.34666E-01  1.00603E+00 -7.13636E-02
    9025.289     28.260   3.080  9.19564E-01  1.00519E+00 -8.56280E-02
    9026.234     29.205   3.120  9.08171E-01  1.00434E+00 -9.61697E-02
    9027.191     30.162   3.160  8.99689E-01  1.00348E+00 -1.03792E-01
    9028.160     31.131   3.200  8.93442E-01  1.00262E+00 -1.09177E-01
    9029.142     32.112   3.240  8.89260E-01  1.00175E+00 -1.12494E-01
    9030.135     33.106   3.280  8.87005E-01  1.00089E+00 -1.13885E-01
    9031.141     34.112   3.320  8.86437E-01  1.00003E+00 -1.13594E-01
    9032.159     35.130   3.360  8.87091E-01  9.99202E-01 -1.12111E-01
    9033.189     36.160   3.400  8.88466E-01  9.98405E-01 -1.09939E-01
    9034.232     37.202   3.440  8.89979E-01  9.97620E-01 -1.07642E-01
    9035.286     38.257   3.480  8.91317E-01  9.96873E-01 -1.05556E-01
    9036.353     39.324   3.520  8.92518E-01  9.96185E-01 -1.03666E-01
    9037.432     40.403   3.560  8.93790E-01  9.95516E-01 -1.01726E-01
    9038.523     41.494   3.600  8.95584E-01  9.94889E-01 -9.93050E-02
    9039.627     42.597   3.640  8.98625E-01  9.94325E-01 -9.57005E-02
    9040.742     43.713   3.680  9.03552E-01  9.93807E-01 -9.02552E-02
    9041.870     44.841   3.720  9.10761E-01  9.93334E-01 -8.25734E-02
    9043.010     45.981   3.760  9.20349E-01  9.92928E-01 -7.25787E-02
    9044.162     47.133   3.800  9.32177E-01  9.92569E-01 -6.03924E-02
    9045.326     48.297   3.840  9.45763E-01  9.92257E-01 -4.64937E-02
    9046.503     49.474   3.880  9.60312E-01  9.92014E-01 -3.17016E-02
    9047.692     50.662   3.920  9.75033E-01  9.91819E-01 -1.67861E-02
    9048.893     51.863   3.960  9.89218E-01  9.91694E-01 -2.47630E-03
    9050.106     53.076   4.000  1.00218E+00  9.91617E-01  1.05653E-02
    9051.331     54.302   4.040  1.01330E+00  9.91610E-01  2.16889E-02
    9052.568     55.539   4.080  1.02202E+00  9.91649E-01  3.03697E-02
    9053.818     56.789   4.120  1.02811E+00  9.91734E-01  3.63777E-02
    9055.080     58.051   4.160  1.03183E+00  9.91887E-01  3.99421E-02
    9056.354     59.325   4.200  1.03378E+00  9.92085E-01  4.16922E-02
    9057.640     60.611   4.240  1.03471E+00  9.92326E-01  4.23871E-02
    9058.939     61.909   4.280  1.03540E+00  9.92612E-01  4.27933E-02
    9060.249     63.220   4.320  1.03668E+00  9.92961E-01  4.37146E-02
    9061.572     64.543   4.360  1.03919E+00  9.93352E-01  4.58372E-02
    9062.907     65.878   4.400  1.04320E+00  9.93761E-01  4.94382E-02
    9064.254     67.225   4.440  1.04867E+00  9.94229E-01  5.44377E-02
    9065.614     68.585   4.480  1.05525E+00  9.94713E-01  6.05352E-02
    9066.985     69.956   4.520  1.06259E+00  9.95233E-01  6.73538E-02
    9068.369     71.340   4.560  1.07031E+00  9.95788E-01  7.45259E-02
    9069.765     72.736   4.600  1.07806E+00  9.96377E-01  8.16869E-02
    9071.173     74.144   4.640  1.08529E+00  9.96977E-01  8.83092E-02
    9072.594     75.564   4.680  1.09123E+00  9.97605E-01  9.36247E-02
    9074.026     76.997   4.720  1.09492E+00  9.98241E-01  9.66837E-02
    9075.471     78.442   4.760  1.09526E+00  9.98880E-01  9.63772E-02
    9076.928     79.899   4.800  1.09140E+00  9.99543E-01  9.18559E-02
    9078.397     81.368   4.840  1.08312E+00  1.00019E+00  8.29295E-02
    9079.878     82.849   4.880  1.07100E+00  1.00085E+00  7.01485E-02
    9081.372     84.343   4.920  1.05607E+00  1.00149E+00  5.45823E-02
    9082.878     85.848   4.960  1.03953E+00  1.00215E+00  3.73795E-02
    9084.395     87.366   5.000  1.02239E+00  1.00279E+00  1.96061E-02
    9085.926     88.896   5.040  1.00577E+00  1.00341E+00  2.35435E-03
    9087.468     90.439   5.080  9.90811E-01  1.00403E+00 -1.32226E-02
    9089.022     91.993   5.120  9.78732E-01  1.00462E+00 -2.58892E-02
    9090.589     93.560   5.160  9.70500E-01  1.00517E+00 -3.46733E-02
    9092.168     95.139   5.200  9.66565E-01  1.00571E+00 -3.91500E-02
    9093.759     96.730   5.240  9.66520E-01  1.00622E+00 -3.97001E-02
    9095.362     98.333   5.280  9.69366E-01  1.00671E+00 -3.73448E-02
    9096.978     99.948   5.320  9.73815E-01  1.00714E+00 -3.33266E-02
    9098.605    101.576   5.360  9.78752E-01  1.00755E+00 -2.88017E-02
    9100.245    103.216   5.400  9.83117E-01  1.00790E+00 -2.47876E-02
    9101.897    104.868   5.440  9.86004E-01  1.00824E+00 -2.22312E-02
    9103.561    106.532   5.480  9.86702E-01  1.00853E+00 -2.18228E-02
    9105.238    108.208   5.520  9.84956E-01  1.00875E+00 -2.37950E-02
    9106.926    109.897   5.560  9.81011E-01  1.00896E+00 -2.79437E-02
    9108.627    111.598   5.600  9.75069E-01  1.00909E+00 -3.40237E-02
    9110.340    113.311   5.640  9.67346E-01  1.00919E+00 -4.18403E-02
    9112.065    115.036   5.680  9.58233E-01  1.00924E+00 -5.10039E-02
    9113.802    116.773   5.720  9.48584E-01  1.00925E+00 -6.06614E-02
    9115.552    118.523   5.760  9.39795E-01  1.00921E+00 -6.94141E-02
    9117.314    120.284   5.800  9.33523E-01  1.00910E+00 -7.55816E-02
    9119.088    122.058   5.840  9.31262E-01  1.00896E+00 -7.76935E-02
    9120.874    123.845   5.880  9.33769E-01  1.00876E+00 -7.49954E-02
    9122.672    125.643   5.920  9.40534E-01  1.00851E+00 -6.79714E-02
    9124.483    127.453   5.960  9.50338E-01  1.00823E+00 -5.78878E-02
    9126.305    129.276   6.000  9.61602E-01  1.00784E+00 -4.62403E-02
