# # comment:                                                     FEFF 9.9.1  
# # Source:
# # Structure
# # Reduced
# # space
# # abc:
# # angles:
# # sites:
# # POT  SCF 100  7.0000   0, screened core-hole, AFOLP (folp(0)= 1.150)
# # Abs   Z=29 Rmt= 1.217 Rnm= 1.283 K  shell
# # Pot 1 Z=56 Rmt= 1.923 Rnm= 1.971
# # Pot 2 Z=38 Rmt= 1.829 Rnm= 1.875
# # Pot 3 Z=29 Rmt= 1.217 Rnm= 1.283
# # Pot 4 Z= 8 Rmt= 1.094 Rnm= 1.138
# # Gam_ch=1.729E+00 H-L exch Vi= 0.000E+00 Vr= 0.000E+00
# # Mu=-1.076E+01eV kf=1.952E+00 Vint=-1.728E+01eV Rs_int= 1.858
# FMS rfms= 9.0000
# # PATH  Rmax=-1.000,  Keep_limit= 0.00, Heap_limit 0.00  Pwcrit= 2.50%
#  S02=0.950  Temp=   0.00  Debye_temp=   0.00  Global_sig2= 0.00000
#  Energy zero shift, vr, vi    0.00000E+00   0.00000E+00
#  Curved wave amplitude ratio filter   4.000%
#     file         sig2 tot  cw amp ratio   deg  nlegs   reff  inp sig2
#     0/   0 paths used
#  xsedge+ 50, used to normalize mu           2.4472E-04
#  -----------------------------------------------------------------------
#  omega    e    k    mu    mu0     chi     @#
    8985.034    -14.567  -1.000  3.02340E-02  5.07382E-02 -2.05042E-02
    8985.333    -14.268  -0.960  3.16739E-02  5.42646E-02 -2.25907E-02
    8985.619    -13.982  -0.920  3.32420E-02  5.81662E-02 -2.49242E-02
    8985.893    -13.707  -0.880  3.49588E-02  6.24963E-02 -2.75376E-02
    8986.156    -13.445  -0.840  3.68487E-02  6.73172E-02 -3.04684E-02
    8986.405    -13.195  -0.800  3.89409E-02  7.27003E-02 -3.37594E-02
    8986.643    -12.958  -0.760  4.12690E-02  7.87275E-02 -3.74585E-02
    8986.869    -12.732  -0.720  4.38721E-02  8.54911E-02 -4.16190E-02
    8987.082    -12.519  -0.680  4.67938E-02  9.30922E-02 -4.62984E-02
    8987.283    -12.317  -0.640  5.00813E-02  1.01637E-01 -5.15559E-02
    8987.472    -12.128  -0.600  5.37821E-02  1.11230E-01 -5.74480E-02
    8987.649    -11.952  -0.560  5.79392E-02  1.21959E-01 -6.40195E-02
    8987.814    -11.787  -0.520  6.25830E-02  1.33874E-01 -7.12909E-02
    8987.966    -11.635  -0.480  6.77202E-02  1.46961E-01 -7.92407E-02
    8988.106    -11.494  -0.440  7.33208E-02  1.61106E-01 -8.77851E-02
    8988.234    -11.366  -0.400  7.93056E-02  1.76068E-01 -9.67620E-02
    8988.350    -11.251  -0.360  8.55408E-02  1.91469E-01 -1.05928E-01
    8988.454    -11.147  -0.320  9.18420E-02  2.06820E-01 -1.14978E-01
    8988.545    -11.056  -0.280  9.79916E-02  2.21575E-01 -1.23584E-01
    8988.624    -10.976  -0.240  1.03765E-01  2.35207E-01 -1.31442E-01
    8988.691    -10.909  -0.200  1.08957E-01  2.47271E-01 -1.38314E-01
    8988.746    -10.854  -0.160  1.13398E-01  2.57435E-01 -1.44037E-01
    8988.789    -10.812  -0.120  1.16967E-01  2.65483E-01 -1.48516E-01
    8988.819    -10.781  -0.080  1.19584E-01  2.71290E-01 -1.51706E-01
    8988.844    -10.757   0.000  1.21763E-01  2.75963E-01 -1.54199E-01
    8988.899    -10.702   0.120  1.26615E-01  2.86520E-01 -1.59904E-01
    8988.941    -10.659   0.160  1.30318E-01  2.94741E-01 -1.64423E-01
    8988.996    -10.604   0.200  1.35026E-01  3.05262E-01 -1.70236E-01
    8989.063    -10.537   0.240  1.40662E-01  3.17988E-01 -1.77327E-01
    8989.143    -10.458   0.280  1.47020E-01  3.32687E-01 -1.85668E-01
    8989.234    -10.367   0.320  1.53691E-01  3.49020E-01 -1.95330E-01
    8989.338    -10.263   0.360  1.60126E-01  3.66625E-01 -2.06498E-01
    8989.453    -10.147   0.400  1.65409E-01  3.85027E-01 -2.19618E-01
    8989.581    -10.019   0.440  1.68413E-01  4.03831E-01 -2.35418E-01
    8989.722     -9.879   0.480  1.68090E-01  4.22728E-01 -2.54638E-01
    8989.874     -9.727   0.520  1.63931E-01  4.41502E-01 -2.77571E-01
    8990.039     -9.562   0.560  1.56370E-01  4.60061E-01 -3.03691E-01
    8990.215     -9.385   0.600  1.46783E-01  4.78374E-01 -3.31591E-01
    8990.404     -9.196   0.640  1.36846E-01  4.96462E-01 -3.59616E-01
    8990.606     -8.995   0.680  1.27925E-01  5.14371E-01 -3.86447E-01
    8990.819     -8.782   0.720  1.20826E-01  5.32179E-01 -4.11353E-01
    8991.044     -8.556   0.760  1.15747E-01  5.49937E-01 -4.34190E-01
    8991.282     -8.318   0.800  1.12617E-01  5.67650E-01 -4.55033E-01
    8991.532     -8.069   0.840  1.11291E-01  5.85392E-01 -4.74101E-01
    8991.794     -7.806   0.880  1.11563E-01  6.03163E-01 -4.91599E-01
    8992.069     -7.532   0.920  1.13331E-01  6.20951E-01 -5.07620E-01
    8992.355     -7.246   0.960  1.16596E-01  6.38778E-01 -5.22182E-01
    8992.654     -6.947   1.000  1.21408E-01  6.56570E-01 -5.35162E-01
    8992.965     -6.636   1.040  1.28060E-01  6.74352E-01 -5.46292E-01
    8993.288     -6.313   1.080  1.37015E-01  6.92058E-01 -5.55043E-01
    8993.623     -5.978   1.120  1.49067E-01  7.09660E-01 -5.60592E-01
    8993.971     -5.630   1.160  1.65401E-01  7.27103E-01 -5.61702E-01
    8994.330     -5.271   1.200  1.87361E-01  7.44332E-01 -5.56972E-01
    8994.702     -4.899   1.240  2.15147E-01  7.61309E-01 -5.46162E-01
    8995.086     -4.515   1.280  2.45494E-01  7.77993E-01 -5.32499E-01
    8995.482     -4.118   1.320  2.72980E-01  7.94304E-01 -5.21324E-01
    8995.891     -3.710   1.360  2.97322E-01  8.10222E-01 -5.12900E-01
    8996.311     -3.289   1.400  3.25014E-01  8.25710E-01 -5.00696E-01
    8996.744     -2.856   1.440  3.62367E-01  8.40685E-01 -4.78318E-01
    8997.189     -2.411   1.480  4.11196E-01  8.55131E-01 -4.43935E-01
    8997.646     -1.954   1.520  4.67788E-01  8.69034E-01 -4.01246E-01
    8998.116     -1.485   1.560  5.21968E-01  8.82320E-01 -3.60352E-01
    8998.597     -1.003   1.600  5.70302E-01  8.94999E-01 -3.24697E-01
    8999.091     -0.510   1.640  6.32247E-01  9.07060E-01 -2.74814E-01
    8999.597     -0.004   1.680  7.32316E-01  9.18437E-01 -1.86122E-01
    9000.115      0.515   1.720  8.75107E-01  9.29167E-01 -5.40603E-02
    9000.646      1.045   1.760  1.04775E+00  9.39206E-01  1.08548E-01
    9001.188      1.587   1.800  1.26233E+00  9.48595E-01  3.13735E-01
    9001.743      2.142   1.840  1.55566E+00  9.57316E-01  5.98341E-01
    9002.310      2.709   1.880  1.87750E+00  9.65354E-01  9.12143E-01
    9002.889      3.288   1.920  2.06877E+00  9.72775E-01  1.09600E+00
    9003.480      3.880   1.960  2.05851E+00  9.79525E-01  1.07899E+00
    9004.084      4.483   2.000  1.91514E+00  9.85676E-01  9.29465E-01
    9004.699      5.099   2.040  1.70673E+00  9.91216E-01  7.15518E-01
    9005.327      5.727   2.080  1.49094E+00  9.96198E-01  4.94746E-01
    9005.967      6.367   2.120  1.31614E+00  1.00061E+00  3.15530E-01
    9006.620      7.019   2.160  1.19601E+00  1.00450E+00  1.91511E-01
    9007.284      7.683   2.200  1.11875E+00  1.00790E+00  1.10850E-01
    9007.961      8.360   2.240  1.07571E+00  1.01081E+00  6.49016E-02
    9008.650      9.049   2.280  1.06326E+00  1.01327E+00  4.99823E-02
    9009.351      9.750   2.320  1.06496E+00  1.01533E+00  4.96342E-02
    9010.064     10.463   2.360  1.06380E+00  1.01700E+00  4.67995E-02
    9010.789     11.189   2.400  1.06011E+00  1.01831E+00  4.18014E-02
    9011.527     11.926   2.440  1.05488E+00  1.01927E+00  3.56181E-02
    9012.277     12.676   2.480  1.05472E+00  1.01994E+00  3.47793E-02
    9013.039     13.438   2.520  1.06359E+00  1.02032E+00  4.32771E-02
    9013.813     14.212   2.560  1.07944E+00  1.02046E+00  5.89812E-02
    9014.599     14.999   2.600  1.09513E+00  1.02036E+00  7.47771E-02
    9015.398     15.797   2.640  1.10230E+00  1.02005E+00  8.22438E-02
    9016.209     16.608   2.680  1.09590E+00  1.01955E+00  7.63512E-02
    9017.032     17.431   2.720  1.07658E+00  1.01891E+00  5.76682E-02
    9017.867     18.266   2.760  1.04896E+00  1.01811E+00  3.08478E-02
    9018.714     19.113   2.800  1.01773E+00  1.01721E+00  5.17750E-04
    9019.574     19.973   2.840  9.86082E-01  1.01620E+00 -3.01150E-02
    9020.445     20.845   2.880  9.56164E-01  1.01508E+00 -5.89140E-02
    9021.329     21.729   2.920  9.29602E-01  1.01392E+00 -8.43213E-02
    9022.225     22.625   2.960  9.07459E-01  1.01270E+00 -1.05241E-01
    9023.134     23.533   3.000  8.89505E-01  1.01144E+00 -1.21931E-01
    9024.054     24.453   3.040  8.74389E-01  1.01016E+00 -1.35769E-01
    9024.987     25.386   3.080  8.60599E-01  1.00885E+00 -1.48256E-01
    9025.932     26.331   3.120  8.47445E-01  1.00757E+00 -1.60122E-01
    9026.889     27.288   3.160  8.35236E-01  1.00626E+00 -1.71026E-01
    9027.858     28.257   3.200  8.24763E-01  1.00499E+00 -1.80224E-01
    9028.840     29.239   3.240  8.16644E-01  1.00374E+00 -1.87101E-01
    9029.833     30.232   3.280  8.10435E-01  1.00254E+00 -1.92105E-01
    9030.839     31.238   3.320  8.05843E-01  1.00138E+00 -1.95532E-01
    9031.857     32.256   3.360  8.03341E-01  1.00025E+00 -1.96912E-01
    9032.887     33.287   3.400  8.03912E-01  9.99177E-01 -1.95265E-01
    9033.930     34.329   3.440  8.08639E-01  9.98170E-01 -1.89530E-01
    9034.984     35.384   3.480  8.18407E-01  9.97211E-01 -1.78805E-01
    9036.051     36.450   3.520  8.33737E-01  9.96328E-01 -1.62590E-01
    9037.130     37.529   3.560  8.54159E-01  9.95518E-01 -1.41359E-01
    9038.221     38.621   3.600  8.78655E-01  9.94764E-01 -1.16109E-01
    9039.325     39.724   3.640  9.06098E-01  9.94087E-01 -8.79896E-02
    9040.440     40.839   3.680  9.35492E-01  9.93510E-01 -5.80175E-02
    9041.568     41.967   3.720  9.66240E-01  9.92989E-01 -2.67491E-02
    9042.708     43.107   3.760  9.98109E-01  9.92545E-01  5.56377E-03
    9043.860     44.259   3.800  1.03016E+00  9.92158E-01  3.79991E-02
    9045.024     45.424   3.840  1.06037E+00  9.91871E-01  6.85025E-02
    9046.201     46.600   3.880  1.08587E+00  9.91663E-01  9.42031E-02
    9047.390     47.789   3.920  1.10405E+00  9.91512E-01  1.12538E-01
    9048.590     48.990   3.960  1.11376E+00  9.91458E-01  1.22299E-01
    9049.804     50.203   4.000  1.11600E+00  9.91459E-01  1.24539E-01
    9051.029     51.428   4.040  1.11300E+00  9.91513E-01  1.21487E-01
    9052.266     52.666   4.080  1.10711E+00  9.91662E-01  1.15450E-01
    9053.516     53.915   4.120  1.10013E+00  9.91862E-01  1.08272E-01
    9054.778     55.177   4.160  1.09352E+00  9.92111E-01  1.01408E-01
    9056.052     56.451   4.200  1.08814E+00  9.92429E-01  9.57110E-02
    9057.338     57.737   4.240  1.08423E+00  9.92796E-01  9.14328E-02
    9058.637     59.036   4.280  1.08191E+00  9.93230E-01  8.86775E-02
    9059.947     60.347   4.320  1.08102E+00  9.93706E-01  8.73130E-02
    9061.270     61.669   4.360  1.08079E+00  9.94201E-01  8.65934E-02
    9062.605     63.004   4.400  1.08004E+00  9.94759E-01  8.52817E-02
    9063.952     64.352   4.440  1.07772E+00  9.95355E-01  8.23604E-02
    9065.312     65.711   4.480  1.07375E+00  9.95965E-01  7.77884E-02
    9066.683     67.083   4.520  1.06928E+00  9.96631E-01  7.26473E-02
    9068.067     68.466   4.560  1.06577E+00  9.97286E-01  6.84873E-02
    9069.463     69.862   4.600  1.06403E+00  9.97992E-01  6.60382E-02
    9070.871     71.271   4.640  1.06310E+00  9.98681E-01  6.44178E-02
    9072.292     72.691   4.680  1.06052E+00  9.99397E-01  6.11272E-02
    9073.724     74.123   4.720  1.05318E+00  1.00012E+00  5.30631E-02
    9075.169     75.568   4.760  1.03910E+00  1.00083E+00  3.82699E-02
    9076.626     77.025   4.800  1.01886E+00  1.00155E+00  1.73073E-02
    9078.095     78.494   4.840  9.95599E-01  1.00226E+00 -6.66592E-03
    9079.576     79.976   4.880  9.73871E-01  1.00297E+00 -2.91026E-02
    9081.070     81.469   4.920  9.57674E-01  1.00365E+00 -4.59785E-02
    9082.576     82.975   4.960  9.49113E-01  1.00432E+00 -5.52088E-02
    9084.093     84.493   5.000  9.48082E-01  1.00496E+00 -5.68763E-02
    9085.624     86.023   5.040  9.52778E-01  1.00558E+00 -5.28034E-02
    9087.166     87.565   5.080  9.60550E-01  1.00617E+00 -4.56202E-02
    9088.720     89.120   5.120  9.68428E-01  1.00672E+00 -3.82924E-02
    9090.287     90.686   5.160  9.73627E-01  1.00723E+00 -3.36043E-02
    9091.866     92.265   5.200  9.74274E-01  1.00773E+00 -3.34515E-02
    9093.457     93.856   5.240  9.69886E-01  1.00816E+00 -3.82721E-02
    9095.060     95.459   5.280  9.61534E-01  1.00857E+00 -4.70346E-02
    9096.676     97.075   5.320  9.51150E-01  1.00891E+00 -5.77638E-02
    9098.303     98.702   5.360  9.41009E-01  1.00921E+00 -6.82057E-02
    9099.943    100.342   5.400  9.32848E-01  1.00947E+00 -7.66231E-02
    9101.595    101.994   5.440  9.27477E-01  1.00968E+00 -8.22057E-02
    9103.259    103.658   5.480  9.25035E-01  1.00983E+00 -8.47925E-02
    9104.936    105.335   5.520  9.25834E-01  1.00995E+00 -8.41155E-02
    9106.624    107.023   5.560  9.30148E-01  1.01000E+00 -7.98559E-02
    9108.325    108.724   5.600  9.37803E-01  1.01001E+00 -7.22067E-02
    9110.038    110.437   5.640  9.47863E-01  1.00995E+00 -6.20835E-02
    9111.763    112.162   5.680  9.58967E-01  1.00984E+00 -5.08709E-02
    9113.500    113.900   5.720  9.69345E-01  1.00969E+00 -4.03410E-02
    9115.250    115.649   5.760  9.77628E-01  1.00949E+00 -3.18641E-02
    9117.012    117.411   5.800  9.83506E-01  1.00926E+00 -2.57498E-02
    9118.786    119.185   5.840  9.88234E-01  1.00895E+00 -2.07198E-02
    9120.572    120.971   5.880  9.93844E-01  1.00864E+00 -1.47916E-02
    9122.370    122.769   5.920  1.00152E+00  1.00825E+00 -6.73709E-03
    9124.181    124.580   5.960  1.01108E+00  1.00783E+00  3.24438E-03
    9126.003    126.403   6.000  1.02221E+00  1.00734E+00  1.48703E-02
