# # comment:                                                     FEFF 9.9.1  
# # Source:
# # Structure
# # Reduced
# # space
# # abc:
# # angles:
# # sites:
# # POT  SCF 100  7.0000   0, screened core-hole, AFOLP (folp(0)= 1.150)
# # Abs   Z=29 Rmt= 1.367 Rnm= 1.405 K  shell
# # Pot 1 Z=29 Rmt= 1.375 Rnm= 1.412
# # Pot 2 Z= 8 Rmt= 0.919 Rnm= 1.057
# # Gam_ch=1.729E+00 H-L exch Vi= 0.000E+00 Vr= 0.000E+00
# # Mu=-7.815E+00eV kf=1.945E+00 Vint=-1.615E+01eV Rs_int= 1.865
# FMS rfms= 9.0000
# # PATH  Rmax=-1.000,  Keep_limit= 0.00, Heap_limit 0.00  Pwcrit= 2.50%
#  S02=0.950  Temp=   0.00  Debye_temp=   0.00  Global_sig2= 0.00000
#  Energy zero shift, vr, vi    0.00000E+00   0.00000E+00
#  Curved wave amplitude ratio filter   4.000%
#     file         sig2 tot  cw amp ratio   deg  nlegs   reff  inp sig2
#     0/   0 paths used
#  xsedge+ 50, used to normalize mu           2.4517E-04
#  -----------------------------------------------------------------------
#  omega    e    k    mu    mu0     chi     @#
    8984.590    -11.625  -1.000  5.00215E-02  5.91556E-02 -9.13404E-03
    8984.889    -11.326  -0.960  5.35197E-02  6.36254E-02 -1.01057E-02
    8985.176    -11.040  -0.920  5.74033E-02  6.86053E-02 -1.12021E-02
    8985.450    -10.765  -0.880  6.17296E-02  7.41713E-02 -1.24418E-02
    8985.712    -10.503  -0.840  6.65657E-02  8.04120E-02 -1.38463E-02
    8985.962    -10.253  -0.800  7.19894E-02  8.74300E-02 -1.54406E-02
    8986.200    -10.015  -0.760  7.80899E-02  9.53430E-02 -1.72531E-02
    8986.425     -9.790  -0.720  8.49683E-02  1.04285E-01 -1.93162E-02
    8986.639     -9.577  -0.680  9.27358E-02  1.14401E-01 -2.16654E-02
    8986.840     -9.375  -0.640  1.01510E-01  1.25848E-01 -2.43383E-02
    8987.029     -9.186  -0.600  1.11407E-01  1.38778E-01 -2.73718E-02
    8987.205     -9.010  -0.560  1.22525E-01  1.53322E-01 -3.07972E-02
    8987.370     -8.845  -0.520  1.34924E-01  1.69557E-01 -3.46330E-02
    8987.522     -8.693  -0.480  1.48595E-01  1.87469E-01 -3.88738E-02
    8987.663     -8.552  -0.440  1.63420E-01  2.06899E-01 -4.34787E-02
    8987.791     -8.424  -0.400  1.79146E-01  2.27507E-01 -4.83612E-02
    8987.907     -8.309  -0.360  1.95372E-01  2.48758E-01 -5.33865E-02
    8988.010     -8.205  -0.320  2.11576E-01  2.69957E-01 -5.83812E-02
    8988.102     -8.114  -0.280  2.27173E-01  2.90329E-01 -6.31558E-02
    8988.181     -8.034  -0.240  2.41601E-01  3.09133E-01 -6.75326E-02
    8988.248     -7.967  -0.200  2.54380E-01  3.25749E-01 -7.13684E-02
    8988.303     -7.912  -0.160  2.65156E-01  3.39721E-01 -7.45655E-02
    8988.345     -7.870  -0.120  2.73696E-01  3.50764E-01 -7.70681E-02
    8988.376     -7.839  -0.080  2.79863E-01  3.58716E-01 -7.88528E-02
    8988.400     -7.815   0.000  2.84838E-01  3.65103E-01 -8.02649E-02
    8988.455     -7.760   0.120  2.96012E-01  3.79492E-01 -8.34803E-02
    8988.498     -7.717   0.160  3.04712E-01  3.90674E-01 -8.59620E-02
    8988.553     -7.662   0.200  3.15856E-01  4.04956E-01 -8.91000E-02
    8988.620     -7.595   0.240  3.29274E-01  4.22096E-01 -9.28221E-02
    8988.699     -7.516   0.280  3.44761E-01  4.41764E-01 -9.70031E-02
    8988.790     -7.425   0.320  3.61957E-01  4.63448E-01 -1.01490E-01
    8988.894     -7.321   0.360  3.80371E-01  4.86470E-01 -1.06099E-01
    8989.010     -7.205   0.400  3.99467E-01  5.10132E-01 -1.10665E-01
    8989.138     -7.077   0.440  4.18758E-01  5.33834E-01 -1.15076E-01
    8989.278     -6.937   0.480  4.37729E-01  5.57055E-01 -1.19326E-01
    8989.431     -6.785   0.520  4.55954E-01  5.79486E-01 -1.23533E-01
    8989.595     -6.620   0.560  4.72958E-01  6.00920E-01 -1.27962E-01
    8989.772     -6.443   0.600  4.88344E-01  6.21357E-01 -1.33013E-01
    8989.961     -6.254   0.640  5.01611E-01  6.40815E-01 -1.39204E-01
    8990.162     -6.053   0.680  5.12224E-01  6.59379E-01 -1.47155E-01
    8990.375     -5.840   0.720  5.19666E-01  6.77148E-01 -1.57482E-01
    8990.601     -5.614   0.760  5.23536E-01  6.94200E-01 -1.70664E-01
    8990.839     -5.376   0.800  5.23815E-01  7.10621E-01 -1.86806E-01
    8991.089     -5.126   0.840  5.21058E-01  7.26466E-01 -2.05409E-01
    8991.351     -4.864   0.880  5.16580E-01  7.41811E-01 -2.25231E-01
    8991.625     -4.590   0.920  5.12255E-01  7.56657E-01 -2.44402E-01
    8991.912     -4.304   0.960  5.10396E-01  7.71073E-01 -2.60677E-01
    8992.210     -4.005   1.000  5.13209E-01  7.85018E-01 -2.71809E-01
    8992.521     -3.694   1.040  5.22582E-01  7.98521E-01 -2.75939E-01
    8992.844     -3.371   1.080  5.39529E-01  8.11581E-01 -2.72053E-01
    8993.180     -3.036   1.120  5.63818E-01  8.24175E-01 -2.60357E-01
    8993.527     -2.688   1.160  5.94216E-01  8.36314E-01 -2.42098E-01
    8993.887     -2.328   1.200  6.29131E-01  8.47963E-01 -2.18832E-01
    8994.259     -1.957   1.240  6.66705E-01  8.59129E-01 -1.92424E-01
    8994.643     -1.573   1.280  7.03304E-01  8.69796E-01 -1.66493E-01
    8995.039     -1.176   1.320  7.33426E-01  8.79946E-01 -1.46520E-01
    8995.447     -0.768   1.360  7.53579E-01  8.89562E-01 -1.35984E-01
    8995.868     -0.347   1.400  7.66213E-01  8.98668E-01 -1.32455E-01
    8996.301      0.086   1.440  7.78050E-01  9.07229E-01 -1.29179E-01
    8996.746      0.531   1.480  7.95594E-01  9.15267E-01 -1.19673E-01
    8997.203      0.988   1.520  8.22949E-01  9.22789E-01 -9.98395E-02
    8997.672      1.457   1.560  8.62749E-01  9.29780E-01 -6.70315E-02
    8998.154      1.939   1.600  9.16999E-01  9.36268E-01 -1.92685E-02
    8998.648      2.433   1.640  9.85479E-01  9.42241E-01  4.32373E-02
    8999.154      2.938   1.680  1.06217E+00  9.47728E-01  1.14447E-01
    8999.672      3.457   1.720  1.13254E+00  9.52759E-01  1.79778E-01
    9000.202      3.987   1.760  1.17858E+00  9.57325E-01  2.21258E-01
    9000.745      4.530   1.800  1.19347E+00  9.61457E-01  2.32011E-01
    9001.299      5.084   1.840  1.18603E+00  9.65166E-01  2.20866E-01
    9001.866      5.651   1.880  1.16697E+00  9.68505E-01  1.98460E-01
    9002.445      6.230   1.920  1.13989E+00  9.71447E-01  1.68444E-01
    9003.037      6.822   1.960  1.10658E+00  9.74063E-01  1.32520E-01
    9003.640      7.425   2.000  1.07129E+00  9.76347E-01  9.49455E-02
    9004.256      8.041   2.040  1.03935E+00  9.78330E-01  6.10192E-02
    9004.884      8.669   2.080  1.01559E+00  9.80026E-01  3.55609E-02
    9005.524      9.309   2.120  1.00570E+00  9.81487E-01  2.42154E-02
    9006.176      9.961   2.160  1.01604E+00  9.82705E-01  3.33361E-02
    9006.841     10.626   2.200  1.04679E+00  9.83711E-01  6.30816E-02
    9007.517     11.302   2.240  1.08314E+00  9.84538E-01  9.86060E-02
    9008.206     11.991   2.280  1.10218E+00  9.85194E-01  1.16983E-01
    9008.907     12.692   2.320  1.10213E+00  9.85691E-01  1.16437E-01
    9009.620     13.405   2.360  1.09385E+00  9.86078E-01  1.07774E-01
    9010.346     14.131   2.400  1.08107E+00  9.86325E-01  9.47408E-02
    9011.083     14.868   2.440  1.06551E+00  9.86503E-01  7.90070E-02
    9011.833     15.618   2.480  1.04394E+00  9.86598E-01  5.73443E-02
    9012.595     16.380   2.520  1.01614E+00  9.86637E-01  2.95075E-02
    9013.369     17.154   2.560  9.85698E-01  9.86606E-01 -9.08392E-04
    9014.156     17.941   2.600  9.57850E-01  9.86534E-01 -2.86846E-02
    9014.954     18.739   2.640  9.36809E-01  9.86448E-01 -4.96390E-02
    9015.765     19.550   2.680  9.23450E-01  9.86354E-01 -6.29045E-02
    9016.588     20.373   2.720  9.17171E-01  9.86256E-01 -6.90844E-02
    9017.423     21.208   2.760  9.16740E-01  9.86157E-01 -6.94177E-02
    9018.271     22.055   2.800  9.20332E-01  9.86062E-01 -6.57303E-02
    9019.130     22.915   2.840  9.26221E-01  9.85995E-01 -5.97741E-02
    9020.002     23.787   2.880  9.33387E-01  9.85939E-01 -5.25524E-02
    9020.886     24.671   2.920  9.41012E-01  9.85939E-01 -4.49272E-02
    9021.782     25.567   2.960  9.49185E-01  9.85955E-01 -3.67700E-02
    9022.690     26.475   3.000  9.58327E-01  9.86009E-01 -2.76819E-02
    9023.611     27.396   3.040  9.68898E-01  9.86125E-01 -1.72269E-02
    9024.543     28.328   3.080  9.80903E-01  9.86261E-01 -5.35780E-03
    9025.488     29.273   3.120  9.94032E-01  9.86462E-01  7.56971E-03
    9026.445     30.230   3.160  1.00759E+00  9.86707E-01  2.08846E-02
    9027.415     31.199   3.200  1.02050E+00  9.87017E-01  3.34818E-02
    9028.396     32.181   3.240  1.03143E+00  9.87349E-01  4.40813E-02
    9029.390     33.175   3.280  1.03956E+00  9.87746E-01  5.18177E-02
    9030.395     34.180   3.320  1.04430E+00  9.88188E-01  5.61148E-02
    9031.413     35.198   3.360  1.04532E+00  9.88693E-01  5.66307E-02
    9032.444     36.229   3.400  1.04235E+00  9.89221E-01  5.31335E-02
    9033.486     37.271   3.440  1.03526E+00  9.89811E-01  4.54493E-02
    9034.541     38.326   3.480  1.02427E+00  9.90441E-01  3.38291E-02
    9035.608     39.392   3.520  1.01013E+00  9.91089E-01  1.90406E-02
    9036.687     40.471   3.560  9.94056E-01  9.91797E-01  2.25979E-03
    9037.778     41.563   3.600  9.77267E-01  9.92540E-01 -1.52727E-02
    9038.881     42.666   3.640  9.61028E-01  9.93296E-01 -3.22684E-02
    9039.997     43.782   3.680  9.46309E-01  9.94084E-01 -4.77751E-02
    9041.124     44.909   3.720  9.33875E-01  9.94882E-01 -6.10076E-02
    9042.264     46.049   3.760  9.24458E-01  9.95710E-01 -7.12517E-02
    9043.416     47.201   3.800  9.18688E-01  9.96565E-01 -7.78767E-02
    9044.581     48.366   3.840  9.16802E-01  9.97402E-01 -8.06007E-02
    9045.757     49.542   3.880  9.18418E-01  9.98263E-01 -7.98453E-02
    9046.946     50.731   3.920  9.22633E-01  9.99125E-01 -7.64919E-02
    9048.147     51.932   3.960  9.28513E-01  9.99983E-01 -7.14709E-02
    9049.360     53.145   4.000  9.35481E-01  1.00084E+00 -6.53568E-02
    9050.585     54.370   4.040  9.43372E-01  1.00166E+00 -5.82920E-02
    9051.823     55.608   4.080  9.52228E-01  1.00248E+00 -5.02547E-02
    9053.072     56.857   4.120  9.62043E-01  1.00329E+00 -4.12477E-02
    9054.334     58.119   4.160  9.72446E-01  1.00406E+00 -3.16175E-02
    9055.608     59.393   4.200  9.82646E-01  1.00480E+00 -2.21571E-02
    9056.895     60.680   4.240  9.91592E-01  1.00553E+00 -1.39358E-02
    9058.193     61.978   4.280  9.98506E-01  1.00621E+00 -7.70757E-03
    9059.504     63.289   4.320  1.00359E+00  1.00686E+00 -3.26379E-03
    9060.827     64.611   4.360  1.00804E+00  1.00746E+00  5.74214E-04
    9062.162     65.946   4.400  1.01312E+00  1.00802E+00  5.09715E-03
    9063.509     67.294   4.440  1.01936E+00  1.00851E+00  1.08510E-02
    9064.868     68.653   4.480  1.02653E+00  1.00899E+00  1.75493E-02
    9066.240     70.025   4.520  1.03412E+00  1.00941E+00  2.47087E-02
    9067.624     71.408   4.560  1.04202E+00  1.00977E+00  3.22492E-02
    9069.020     72.804   4.600  1.05056E+00  1.01008E+00  4.04811E-02
    9070.428     74.213   4.640  1.06003E+00  1.01035E+00  4.96837E-02
    9071.848     75.633   4.680  1.07040E+00  1.01054E+00  5.98642E-02
    9073.281     77.066   4.720  1.08157E+00  1.01069E+00  7.08853E-02
    9074.725     78.510   4.760  1.09348E+00  1.01079E+00  8.26904E-02
    9076.182     79.967   4.800  1.10632E+00  1.01084E+00  9.54778E-02
    9077.651     81.436   4.840  1.12020E+00  1.01082E+00  1.09377E-01
    9079.133     82.918   4.880  1.13401E+00  1.01076E+00  1.23252E-01
    9080.626     84.411   4.920  1.14420E+00  1.01065E+00  1.33550E-01
    9082.132     85.917   4.960  1.14575E+00  1.01047E+00  1.35276E-01
    9083.650     87.435   5.000  1.13499E+00  1.01027E+00  1.24717E-01
    9085.180     88.965   5.040  1.11176E+00  1.01000E+00  1.01756E-01
    9086.722     90.507   5.080  1.07980E+00  1.00970E+00  7.01070E-02
    9088.277     92.062   5.120  1.04478E+00  1.00937E+00  3.54088E-02
    9089.843     93.628   5.160  1.01154E+00  1.00898E+00  2.55940E-03
    9091.422     95.207   5.200  9.82736E-01  1.00857E+00 -2.58374E-02
    9093.013     96.798   5.240  9.58612E-01  1.00810E+00 -4.94921E-02
    9094.617     98.401   5.280  9.37934E-01  1.00762E+00 -6.96861E-02
    9096.232    100.017   5.320  9.18732E-01  1.00710E+00 -8.83702E-02
    9097.860    101.645   5.360  8.99468E-01  1.00657E+00 -1.07104E-01
    9099.499    103.284   5.400  8.80042E-01  1.00601E+00 -1.25970E-01
    9101.151    104.936   5.440  8.62368E-01  1.00544E+00 -1.43072E-01
    9102.816    106.601   5.480  8.49272E-01  1.00484E+00 -1.55569E-01
    9104.492    108.277   5.520  8.42554E-01  1.00423E+00 -1.61680E-01
    9106.181    109.966   5.560  8.42332E-01  1.00362E+00 -1.61292E-01
    9107.881    111.666   5.600  8.48451E-01  1.00301E+00 -1.54560E-01
    9109.594    113.379   5.640  8.60860E-01  1.00237E+00 -1.41515E-01
    9111.320    115.104   5.680  8.78341E-01  1.00176E+00 -1.23420E-01
    9113.057    116.842   5.720  8.98470E-01  1.00115E+00 -1.02681E-01
    9114.806    118.591   5.760  9.20007E-01  1.00054E+00 -8.05353E-02
    9116.568    120.353   5.800  9.43649E-01  9.99938E-01 -5.62896E-02
    9118.342    122.127   5.840  9.69818E-01  9.99339E-01 -2.95212E-02
    9120.128    123.913   5.880  9.97276E-01  9.98748E-01 -1.47190E-03
    9121.927    125.711   5.920  1.02352E+00  9.98196E-01  2.53236E-02
    9123.737    127.522   5.960  1.04461E+00  9.97669E-01  4.69445E-02
    9125.560    129.345   6.000  1.05711E+00  9.97192E-01  5.99201E-02
