# # comment:                                                     FEFF 9.9.1  
# # Source:
# # Structure
# # Reduced
# # space
# # abc:
# # angles:106.676285
# # sites:
# # POT  SCF 100  7.0000   0, screened core-hole, AFOLP (folp(0)= 1.150)
# # Abs   Z=29 Rmt= 1.186 Rnm= 1.332 K  shell
# # Pot 1 Z=23 Rmt= 1.152 Rnm= 1.324
# # Pot 2 Z=29 Rmt= 1.186 Rnm= 1.334
# # Pot 3 Z= 8 Rmt= 0.887 Rnm= 1.072
# # Gam_ch=1.729E+00 H-L exch Vi= 0.000E+00 Vr= 0.000E+00
# # Mu=-9.439E+00eV kf=2.326E+00 Vint=-1.817E+01eV Rs_int= 1.559
# FMS rfms= 9.0000
# # PATH  Rmax=-1.000,  Keep_limit= 0.00, Heap_limit 0.00  Pwcrit= 2.50%
#  S02=0.950  Temp=   0.00  Debye_temp=   0.00  Global_sig2= 0.00000
#  Energy zero shift, vr, vi    0.00000E+00   0.00000E+00
#  Curved wave amplitude ratio filter   4.000%
#     file         sig2 tot  cw amp ratio   deg  nlegs   reff  inp sig2
#     0/   0 paths used
#  xsedge+ 50, used to normalize mu           2.5128E-04
#  -----------------------------------------------------------------------
#  omega    e    k    mu    mu0     chi     @#
    8983.807    -13.249  -1.000  3.77598E-02  4.75157E-02 -9.75588E-03
    8984.105    -12.950  -0.960  3.99784E-02  5.08228E-02 -1.08445E-02
    8984.392    -12.664  -0.920  4.24097E-02  5.44878E-02 -1.20782E-02
    8984.666    -12.389  -0.880  4.50843E-02  5.85627E-02 -1.34784E-02
    8984.928    -12.127  -0.840  4.80381E-02  6.31081E-02 -1.50700E-02
    8985.178    -11.877  -0.800  5.13131E-02  6.81939E-02 -1.68808E-02
    8985.416    -11.639  -0.760  5.49578E-02  7.39006E-02 -1.89428E-02
    8985.642    -11.414  -0.720  5.90277E-02  8.03189E-02 -2.12911E-02
    8985.855    -11.200  -0.680  6.35846E-02  8.75485E-02 -2.39639E-02
    8986.056    -10.999  -0.640  6.86942E-02  9.56947E-02 -2.70005E-02
    8986.245    -10.810  -0.600  7.44217E-02  1.04861E-01 -3.04391E-02
    8986.422    -10.634  -0.560  8.08231E-02  1.15134E-01 -3.43113E-02
    8986.586    -10.469  -0.520  8.79317E-02  1.26567E-01 -3.86356E-02
    8986.739    -10.317  -0.480  9.57396E-02  1.39147E-01 -4.34071E-02
    8986.879    -10.176  -0.440  1.04176E-01  1.52763E-01 -4.85867E-02
    8987.007    -10.048  -0.400  1.13088E-01  1.67179E-01 -5.40915E-02
    8987.123     -9.933  -0.360  1.22236E-01  1.82028E-01 -5.97920E-02
    8987.226     -9.829  -0.320  1.31310E-01  1.96829E-01 -6.55185E-02
    8987.318     -9.737  -0.280  1.39970E-01  2.11049E-01 -7.10791E-02
    8987.397     -9.658  -0.240  1.47895E-01  2.24176E-01 -7.62814E-02
    8987.464     -9.591  -0.200  1.54828E-01  2.35780E-01 -8.09518E-02
    8987.519     -9.536  -0.160  1.60598E-01  2.45544E-01 -8.49464E-02
    8987.562     -9.494  -0.120  1.65113E-01  2.53266E-01 -8.81530E-02
    8987.592     -9.463  -0.080  1.68340E-01  2.58831E-01 -9.04912E-02
    8987.617     -9.439   0.000  1.70919E-01  2.63306E-01 -9.23863E-02
    8987.671     -9.384   0.120  1.76523E-01  2.73398E-01 -9.68758E-02
    8987.714     -9.341   0.160  1.80796E-01  2.81232E-01 -1.00436E-01
    8987.769     -9.286   0.200  1.86164E-01  2.91260E-01 -1.05096E-01
    8987.836     -9.219   0.240  1.92443E-01  3.03335E-01 -1.10892E-01
    8987.915     -9.140   0.280  1.99377E-01  3.17222E-01 -1.17845E-01
    8988.007     -9.049   0.320  2.06647E-01  3.32563E-01 -1.25916E-01
    8988.110     -8.945   0.360  2.13998E-01  3.48975E-01 -1.34977E-01
    8988.226     -8.829   0.400  2.21154E-01  3.65965E-01 -1.44811E-01
    8988.354     -8.701   0.440  2.28094E-01  3.83122E-01 -1.55029E-01
    8988.494     -8.561   0.480  2.35012E-01  4.00150E-01 -1.65138E-01
    8988.647     -8.409   0.520  2.42176E-01  4.16805E-01 -1.74630E-01
    8988.811     -8.244   0.560  2.49930E-01  4.33017E-01 -1.83087E-01
    8988.988     -8.067   0.600  2.58462E-01  4.48759E-01 -1.90296E-01
    8989.177     -7.878   0.640  2.67886E-01  4.64081E-01 -1.96195E-01
    8989.378     -7.677   0.680  2.78353E-01  4.79041E-01 -2.00689E-01
    8989.592     -7.464   0.720  2.90244E-01  4.93727E-01 -2.03483E-01
    8989.817     -7.238   0.760  3.03613E-01  5.08207E-01 -2.04594E-01
    8990.055     -7.000   0.800  3.17530E-01  5.22560E-01 -2.05030E-01
    8990.305     -6.750   0.840  3.30432E-01  5.36836E-01 -2.06404E-01
    8990.567     -6.488   0.880  3.41679E-01  5.51093E-01 -2.09415E-01
    8990.841     -6.214   0.920  3.52337E-01  5.65338E-01 -2.13002E-01
    8991.128     -5.927   0.960  3.64687E-01  5.79609E-01 -2.14922E-01
    8991.427     -5.629   1.000  3.80748E-01  5.93935E-01 -2.13187E-01
    8991.737     -5.318   1.040  4.00301E-01  6.08296E-01 -2.07995E-01
    8992.061     -4.995   1.080  4.21035E-01  6.22707E-01 -2.01672E-01
    8992.396     -4.659   1.120  4.41648E-01  6.37156E-01 -1.95507E-01
    8992.743     -4.312   1.160  4.62778E-01  6.51608E-01 -1.88830E-01
    8993.103     -3.952   1.200  4.85520E-01  6.66084E-01 -1.80564E-01
    8993.475     -3.581   1.240  5.11999E-01  6.80520E-01 -1.68521E-01
    8993.859     -3.196   1.280  5.46995E-01  6.94932E-01 -1.47937E-01
    8994.255     -2.800   1.320  5.95583E-01  7.09252E-01 -1.13669E-01
    8994.664     -2.392   1.360  6.55368E-01  7.23491E-01 -6.81229E-02
    8995.084     -1.971   1.400  7.13826E-01  7.37598E-01 -2.37721E-02
    8995.517     -1.538   1.440  7.59218E-01  7.51543E-01  7.67535E-03
    8995.962     -1.093   1.480  7.88170E-01  7.65315E-01  2.28549E-02
    8996.419     -0.636   1.520  8.00270E-01  7.78882E-01  2.13878E-02
    8996.889     -0.167   1.560  7.96705E-01  7.92190E-01  4.51560E-03
    8997.370      0.315   1.600  7.88497E-01  8.05229E-01 -1.67318E-02
    8997.864      0.809   1.640  7.94277E-01  8.17966E-01 -2.36889E-02
    8998.370      1.315   1.680  8.20688E-01  8.30390E-01 -9.70237E-03
    8998.888      1.833   1.720  8.59369E-01  8.42451E-01  1.69178E-02
    8999.418      2.363   1.760  8.93363E-01  8.54160E-01  3.92030E-02
    8999.961      2.906   1.800  9.10255E-01  8.65468E-01  4.47865E-02
    9000.516      3.460   1.840  9.15253E-01  8.76386E-01  3.88668E-02
    9001.083      4.027   1.880  9.26550E-01  8.86888E-01  3.96618E-02
    9001.662      4.606   1.920  9.56475E-01  8.96928E-01  5.95470E-02
    9002.253      5.198   1.960  1.00572E+00  9.06541E-01  9.91757E-02
    9002.857      5.801   2.000  1.06180E+00  9.15702E-01  1.46097E-01
    9003.472      6.417   2.040  1.10247E+00  9.24411E-01  1.78055E-01
    9004.100      7.045   2.080  1.10921E+00  9.32643E-01  1.76568E-01
    9004.740      7.685   2.120  1.08300E+00  9.40399E-01  1.42598E-01
    9005.392      8.337   2.160  1.04286E+00  9.47701E-01  9.51553E-02
    9006.057      9.002   2.200  1.00613E+00  9.54547E-01  5.15823E-02
    9006.734      9.678   2.240  9.86998E-01  9.60921E-01  2.60771E-02
    9007.422     10.367   2.280  9.95747E-01  9.66847E-01  2.89002E-02
    9008.123     11.068   2.320  1.02955E+00  9.72327E-01  5.72220E-02
    9008.837     11.781   2.360  1.07108E+00  9.77366E-01  9.37091E-02
    9009.562     12.507   2.400  1.09953E+00  9.81970E-01  1.17564E-01
    9010.300     13.244   2.440  1.10307E+00  9.86164E-01  1.16905E-01
    9011.050     13.994   2.480  1.08815E+00  9.89954E-01  9.81979E-02
    9011.812     14.756   2.520  1.07457E+00  9.93348E-01  8.12208E-02
    9012.586     15.530   2.560  1.07806E+00  9.96373E-01  8.16847E-02
    9013.372     16.317   2.600  1.10221E+00  9.99039E-01  1.03170E-01
    9014.171     17.115   2.640  1.12803E+00  1.00137E+00  1.26655E-01
    9014.981     17.926   2.680  1.13185E+00  1.00336E+00  1.28494E-01
    9015.804     18.749   2.720  1.10984E+00  1.00502E+00  1.04817E-01
    9016.640     19.584   2.760  1.07785E+00  1.00640E+00  7.14491E-02
    9017.487     20.432   2.800  1.05050E+00  1.00752E+00  4.29835E-02
    9018.346     21.291   2.840  1.02886E+00  1.00835E+00  2.05133E-02
    9019.218     22.163   2.880  1.01188E+00  1.00895E+00  2.92955E-03
    9020.102     23.047   2.920  9.97834E-01  1.00932E+00 -1.14823E-02
    9020.998     23.943   2.960  9.85835E-01  1.00946E+00 -2.36206E-02
    9021.906     24.851   3.000  9.75472E-01  1.00942E+00 -3.39435E-02
    9022.827     25.772   3.040  9.66381E-01  1.00918E+00 -4.28031E-02
    9023.760     26.704   3.080  9.58603E-01  1.00879E+00 -5.01858E-02
    9024.705     27.649   3.120  9.52329E-01  1.00826E+00 -5.59274E-02
    9025.662     28.606   3.160  9.47723E-01  1.00757E+00 -5.98519E-02
    9026.631     29.575   3.200  9.44942E-01  1.00675E+00 -6.18071E-02
    9027.612     30.557   3.240  9.44034E-01  1.00585E+00 -6.18153E-02
    9028.606     31.551   3.280  9.44647E-01  1.00484E+00 -6.01930E-02
    9029.612     32.556   3.320  9.46486E-01  1.00373E+00 -5.72411E-02
    9030.630     33.574   3.360  9.49398E-01  1.00256E+00 -5.31580E-02
    9031.660     34.605   3.400  9.53086E-01  1.00133E+00 -4.82480E-02
    9032.702     35.647   3.440  9.57166E-01  1.00005E+00 -4.28801E-02
    9033.757     36.702   3.480  9.61276E-01  9.98717E-01 -3.74413E-02
    9034.824     37.768   3.520  9.65112E-01  9.97372E-01 -3.22604E-02
    9035.903     38.847   3.560  9.68469E-01  9.95996E-01 -2.75272E-02
    9036.994     39.939   3.600  9.71324E-01  9.94613E-01 -2.32887E-02
    9038.097     41.042   3.640  9.73596E-01  9.93224E-01 -1.96282E-02
    9039.213     42.158   3.680  9.75121E-01  9.91816E-01 -1.66943E-02
    9040.341     43.285   3.720  9.75779E-01  9.90432E-01 -1.46531E-02
    9041.481     44.425   3.760  9.75430E-01  9.89075E-01 -1.36454E-02
    9042.633     45.577   3.800  9.74033E-01  9.87728E-01 -1.36949E-02
    9043.797     46.742   3.840  9.71814E-01  9.86414E-01 -1.46005E-02
    9044.974     47.918   3.880  9.69207E-01  9.85115E-01 -1.59075E-02
    9046.162     49.107   3.920  9.66772E-01  9.83874E-01 -1.71014E-02
    9047.363     50.308   3.960  9.64801E-01  9.82674E-01 -1.78728E-02
    9048.576     51.521   4.000  9.63260E-01  9.81515E-01 -1.82546E-02
    9049.802     52.746   4.040  9.61897E-01  9.80398E-01 -1.85004E-02
    9051.039     53.984   4.080  9.60533E-01  9.79324E-01 -1.87908E-02
    9052.289     55.233   4.120  9.59337E-01  9.78316E-01 -1.89789E-02
    9053.551     56.495   4.160  9.58811E-01  9.77354E-01 -1.85433E-02
    9054.825     57.769   4.200  9.59567E-01  9.76440E-01 -1.68736E-02
    9056.111     59.056   4.240  9.61906E-01  9.75617E-01 -1.37109E-02
    9057.409     60.354   4.280  9.65456E-01  9.74821E-01 -9.36514E-03
    9058.720     61.665   4.320  9.69535E-01  9.74094E-01 -4.55900E-03
    9060.043     62.988   4.360  9.73358E-01  9.73438E-01 -7.99910E-05
    9061.378     64.323   4.400  9.76413E-01  9.72832E-01  3.58074E-03
    9062.725     65.670   4.440  9.78678E-01  9.72299E-01  6.37905E-03
    9064.085     67.029   4.480  9.80434E-01  9.71836E-01  8.59842E-03
    9065.456     68.401   4.520  9.82047E-01  9.71419E-01  1.06279E-02
    9066.840     69.785   4.560  9.83813E-01  9.71051E-01  1.27613E-02
    9068.236     71.181   4.600  9.85859E-01  9.70754E-01  1.51046E-02
    9069.644     72.589   4.640  9.88212E-01  9.70527E-01  1.76856E-02
    9071.064     74.009   4.680  9.90946E-01  9.70346E-01  2.06004E-02
    9072.497     75.442   4.720  9.94192E-01  9.70211E-01  2.39812E-02
    9073.942     76.886   4.760  9.97926E-01  9.70142E-01  2.77837E-02
    9075.399     78.343   4.800  1.00181E+00  9.70117E-01  3.16949E-02
    9076.868     79.812   4.840  1.00533E+00  9.70134E-01  3.51993E-02
    9078.349     81.294   4.880  1.00799E+00  9.70194E-01  3.77955E-02
    9079.843     82.787   4.920  1.00949E+00  9.70318E-01  3.91681E-02
    9081.348     84.293   4.960  1.00963E+00  9.70460E-01  3.91699E-02
    9082.866     85.811   5.000  1.00834E+00  9.70660E-01  3.76847E-02
    9084.396     87.341   5.040  1.00549E+00  9.70877E-01  3.46160E-02
    9085.939     88.883   5.080  1.00116E+00  9.71128E-01  3.00284E-02
    9087.493     90.438   5.120  9.95791E-01  9.71414E-01  2.43771E-02
    9089.060     92.004   5.160  9.90179E-01  9.71712E-01  1.84676E-02
    9090.639     93.583   5.200  9.85198E-01  9.72063E-01  1.31346E-02
    9092.230     95.174   5.240  9.81308E-01  9.72403E-01  8.90514E-03
    9093.833     96.778   5.280  9.78648E-01  9.72771E-01  5.87716E-03
    9095.448     98.393   5.320  9.77006E-01  9.73168E-01  3.83828E-03
    9097.076    100.021   5.360  9.75983E-01  9.73567E-01  2.41620E-03
    9098.716    101.660   5.400  9.75121E-01  9.73945E-01  1.17598E-03
    9100.368    103.312   5.440  9.74103E-01  9.74346E-01 -2.43602E-04
    9102.032    104.977   5.480  9.72788E-01  9.74750E-01 -1.96237E-03
    9103.708    106.653   5.520  9.71326E-01  9.75153E-01 -3.82713E-03
    9105.397    108.342   5.560  9.69946E-01  9.75553E-01 -5.60733E-03
    9107.098    110.042   5.600  9.68715E-01  9.75949E-01 -7.23470E-03
    9108.811    111.755   5.640  9.67420E-01  9.76316E-01 -8.89627E-03
    9110.536    113.480   5.680  9.65802E-01  9.76675E-01 -1.08730E-02
    9112.273    115.218   5.720  9.63749E-01  9.77002E-01 -1.32526E-02
    9114.023    116.967   5.760  9.61552E-01  9.77319E-01 -1.57668E-02
    9115.784    118.729   5.800  9.59680E-01  9.77604E-01 -1.79242E-02
    9117.558    120.503   5.840  9.58551E-01  9.77877E-01 -1.93264E-02
    9119.345    122.289   5.880  9.58224E-01  9.78091E-01 -1.98669E-02
    9121.143    124.087   5.920  9.58629E-01  9.78315E-01 -1.96859E-02
    9122.953    125.898   5.960  9.59504E-01  9.78471E-01 -1.89674E-02
    9124.776    127.721   6.000  9.60773E-01  9.78572E-01 -1.77995E-02
