# # comment:                                                     FEFF 9.9.1  
# # Source:
# # Structure
# # Reduced
# # space
# # abc:
# # angles:
# # sites:
# # POT  SCF 100  7.0000   0, screened core-hole, AFOLP (folp(0)= 1.150)
# # Abs   Z=29 Rmt= 1.173 Rnm= 1.334 K  shell
# # Pot 1 Z=23 Rmt= 1.343 Rnm= 1.436
# # Pot 2 Z=29 Rmt= 1.174 Rnm= 1.334
# # Pot 3 Z=28 Rmt= 1.348 Rnm= 1.417
# # Pot 4 Z= 8 Rmt= 0.987 Rnm= 1.081
# # Gam_ch=1.729E+00 H-L exch Vi= 0.000E+00 Vr= 0.000E+00
# # Mu=-9.727E+00eV kf=2.147E+00 Vint=-1.834E+01eV Rs_int= 1.689
# FMS rfms= 9.0000
# # PATH  Rmax=-1.000,  Keep_limit= 0.00, Heap_limit 0.00  Pwcrit= 2.50%
#  S02=0.950  Temp=   0.00  Debye_temp=   0.00  Global_sig2= 0.00000
#  Energy zero shift, vr, vi    0.00000E+00   0.00000E+00
#  Curved wave amplitude ratio filter   4.000%
#     file         sig2 tot  cw amp ratio   deg  nlegs   reff  inp sig2
#     0/   0 paths used
#  xsedge+ 50, used to normalize mu           2.5007E-04
#  -----------------------------------------------------------------------
#  omega    e    k    mu    mu0     chi     @#
    8984.201    -13.537  -1.000  4.50202E-02  4.98313E-02 -4.81106E-03
    8984.500    -13.238  -0.960  4.82105E-02  5.33470E-02 -5.13645E-03
    8984.786    -12.951  -0.920  5.17715E-02  5.72457E-02 -5.47422E-03
    8985.061    -12.677  -0.880  5.57612E-02  6.15835E-02 -5.82226E-03
    8985.323    -12.415  -0.840  6.02473E-02  6.64251E-02 -6.17785E-03
    8985.573    -12.165  -0.800  6.53082E-02  7.18459E-02 -6.53766E-03
    8985.811    -11.927  -0.760  7.10341E-02  7.79319E-02 -6.89777E-03
    8986.036    -11.702  -0.720  7.75269E-02  8.47806E-02 -7.25372E-03
    8986.249    -11.488  -0.680  8.48984E-02  9.24990E-02 -7.60058E-03
    8986.451    -11.287  -0.640  9.32672E-02  1.01200E-01 -7.93292E-03
    8986.640    -11.098  -0.600  1.02750E-01  1.10995E-01 -8.24463E-03
    8986.816    -10.921  -0.560  1.13449E-01  1.21977E-01 -8.52817E-03
    8986.981    -10.757  -0.520  1.25429E-01  1.34203E-01 -8.77334E-03
    8987.133    -10.604  -0.480  1.38693E-01  1.47658E-01 -8.96525E-03
    8987.274    -10.464  -0.440  1.53143E-01  1.62225E-01 -9.08227E-03
    8987.402    -10.336  -0.400  1.68557E-01  1.77653E-01 -9.09549E-03
    8987.517    -10.220  -0.360  1.84573E-01  1.93544E-01 -8.97174E-03
    8987.621    -10.117  -0.320  2.00705E-01  2.09387E-01 -8.68204E-03
    8987.712    -10.025  -0.280  2.16395E-01  2.24609E-01 -8.21375E-03
    8987.792     -9.946  -0.240  2.31079E-01  2.38661E-01 -7.58186E-03
    8987.859     -9.879  -0.200  2.44249E-01  2.51082E-01 -6.83317E-03
    8987.914     -9.824  -0.160  2.55494E-01  2.61535E-01 -6.04071E-03
    8987.956     -9.782  -0.120  2.64509E-01  2.69800E-01 -5.29123E-03
    8987.987     -9.751  -0.080  2.71085E-01  2.75756E-01 -4.67164E-03
    8988.011     -9.727   0.000  2.76434E-01  2.80543E-01 -4.10985E-03
    8988.066     -9.672   0.120  2.88376E-01  2.91351E-01 -2.97504E-03
    8988.109     -9.629   0.160  2.97858E-01  2.99745E-01 -1.88692E-03
    8988.164     -9.574   0.200  3.10196E-01  3.10467E-01 -2.71554E-04
    8988.231     -9.507   0.240  3.25413E-01  3.23379E-01  2.03423E-03
    8988.310     -9.428   0.280  3.43462E-01  3.38251E-01  5.21036E-03
    8988.401     -9.337   0.320  3.64068E-01  3.54679E-01  9.38836E-03
    8988.505     -9.233   0.360  3.86767E-01  3.72209E-01  1.45578E-02
    8988.621     -9.117   0.400  4.10742E-01  3.90377E-01  2.03651E-02
    8988.749     -8.989   0.440  4.34542E-01  4.08720E-01  2.58220E-02
    8988.889     -8.849   0.480  4.55885E-01  4.26898E-01  2.89871E-02
    8989.041     -8.696   0.520  4.71573E-01  4.44672E-01  2.69015E-02
    8989.206     -8.532   0.560  4.78188E-01  4.61943E-01  1.62452E-02
    8989.383     -8.355   0.600  4.73597E-01  4.78707E-01 -5.10944E-03
    8989.572     -8.166   0.640  4.58566E-01  4.94992E-01 -3.64265E-02
    8989.773     -7.965   0.680  4.37045E-01  5.10860E-01 -7.38146E-02
    8989.986     -7.752   0.720  4.14518E-01  5.26403E-01 -1.11885E-01
    8990.212     -7.526   0.760  3.95489E-01  5.41715E-01 -1.46226E-01
    8990.450     -7.288   0.800  3.81791E-01  5.56841E-01 -1.75049E-01
    8990.699     -7.038   0.840  3.72805E-01  5.71851E-01 -1.99046E-01
    8990.962     -6.776   0.880  3.67247E-01  5.86785E-01 -2.19538E-01
    8991.236     -6.502   0.920  3.64901E-01  6.01671E-01 -2.36771E-01
    8991.522     -6.215   0.960  3.66821E-01  6.16531E-01 -2.49710E-01
    8991.821     -5.917   1.000  3.74429E-01  6.31390E-01 -2.56961E-01
    8992.132     -5.606   1.040  3.87670E-01  6.46230E-01 -2.58560E-01
    8992.455     -5.283   1.080  4.03197E-01  6.61063E-01 -2.57866E-01
    8992.790     -4.947   1.120  4.16020E-01  6.75859E-01 -2.59838E-01
    8993.138     -4.600   1.160  4.24190E-01  6.90600E-01 -2.66410E-01
    8993.498     -4.240   1.200  4.29816E-01  7.05287E-01 -2.75470E-01
    8993.869     -3.868   1.240  4.36176E-01  7.19894E-01 -2.83717E-01
    8994.253     -3.484   1.280  4.45394E-01  7.34355E-01 -2.88961E-01
    8994.650     -3.088   1.320  4.58984E-01  7.48681E-01 -2.89698E-01
    8995.058     -2.680   1.360  4.79889E-01  7.62824E-01 -2.82935E-01
    8995.479     -2.259   1.400  5.13431E-01  7.76753E-01 -2.63322E-01
    8995.912     -1.826   1.440  5.64740E-01  7.90455E-01 -2.25715E-01
    8996.357     -1.381   1.480  6.34948E-01  8.03880E-01 -1.68932E-01
    8996.814     -0.924   1.520  7.20014E-01  8.17015E-01 -9.70013E-02
    8997.283     -0.455   1.560  8.09494E-01  8.29810E-01 -2.03156E-02
    8997.765      0.027   1.600  8.86813E-01  8.42271E-01  4.45419E-02
    8998.259      0.521   1.640  9.40336E-01  8.54353E-01  8.59837E-02
    8998.764      1.027   1.680  9.72771E-01  8.66022E-01  1.06749E-01
    8999.283      1.545   1.720  9.88373E-01  8.77290E-01  1.11083E-01
    8999.813      2.075   1.760  9.82266E-01  8.88111E-01  9.41550E-02
    9000.356      2.618   1.800  9.57011E-01  8.98478E-01  5.85333E-02
    9000.910      3.172   1.840  9.38901E-01  9.08405E-01  3.04961E-02
    9001.477      3.739   1.880  9.50608E-01  9.17829E-01  3.27791E-02
    9002.056      4.318   1.920  9.94220E-01  9.26806E-01  6.74145E-02
    9002.648      4.910   1.960  1.06054E+00  9.35275E-01  1.25264E-01
    9003.251      5.513   2.000  1.13614E+00  9.43255E-01  1.92882E-01
    9003.867      6.129   2.040  1.20773E+00  9.50766E-01  2.56966E-01
    9004.495      6.757   2.080  1.25626E+00  9.57791E-01  2.98466E-01
    9005.135      7.397   2.120  1.26552E+00  9.64312E-01  3.01208E-01
    9005.787      8.049   2.160  1.23751E+00  9.70392E-01  2.67121E-01
    9006.451      8.714   2.200  1.18159E+00  9.75996E-01  2.05592E-01
    9007.128      9.390   2.240  1.11235E+00  9.81128E-01  1.31221E-01
    9007.817     10.079   2.280  1.04745E+00  9.85836E-01  6.16119E-02
    9008.518     10.780   2.320  9.99589E-01  9.90104E-01  9.48479E-03
    9009.231     11.493   2.360  9.71763E-01  9.93961E-01 -2.21977E-02
    9009.957     12.219   2.400  9.56170E-01  9.97393E-01 -4.12235E-02
    9010.694     12.956   2.440  9.37156E-01  1.00047E+00 -6.33147E-02
    9011.444     13.706   2.480  9.07005E-01  1.00316E+00 -9.61548E-02
    9012.206     14.468   2.520  8.82669E-01  1.00549E+00 -1.22821E-01
    9012.980     15.242   2.560  8.94008E-01  1.00749E+00 -1.13481E-01
    9013.767     16.029   2.600  9.37515E-01  1.00917E+00 -7.16516E-02
    9014.565     16.827   2.640  9.90780E-01  1.01055E+00 -1.97723E-02
    9015.376     17.638   2.680  1.04367E+00  1.01166E+00  3.20168E-02
    9016.199     18.461   2.720  1.09073E+00  1.01248E+00  7.82448E-02
    9017.034     19.296   2.760  1.13001E+00  1.01307E+00  1.16938E-01
    9017.881     20.144   2.800  1.16206E+00  1.01343E+00  1.48630E-01
    9018.741     21.003   2.840  1.18675E+00  1.01357E+00  1.73179E-01
    9019.613     21.875   2.880  1.20169E+00  1.01351E+00  1.88185E-01
    9020.497     22.759   2.920  1.20207E+00  1.01328E+00  1.88796E-01
    9021.393     23.655   2.960  1.18410E+00  1.01288E+00  1.71217E-01
    9022.301     24.563   3.000  1.15017E+00  1.01232E+00  1.37847E-01
    9023.222     25.484   3.040  1.10728E+00  1.01164E+00  9.56339E-02
    9024.154     26.416   3.080  1.06270E+00  1.01084E+00  5.18652E-02
    9025.099     27.361   3.120  1.02155E+00  1.00992E+00  1.16306E-02
    9026.056     28.318   3.160  9.86106E-01  1.00891E+00 -2.28034E-02
    9027.025     29.288   3.200  9.56492E-01  1.00782E+00 -5.13289E-02
    9028.007     30.269   3.240  9.32248E-01  1.00666E+00 -7.44074E-02
    9029.001     31.263   3.280  9.12643E-01  1.00544E+00 -9.27975E-02
    9030.006     32.269   3.320  8.96948E-01  1.00418E+00 -1.07233E-01
    9031.024     33.287   3.360  8.84779E-01  1.00288E+00 -1.18104E-01
    9032.055     34.317   3.400  8.76116E-01  1.00155E+00 -1.25434E-01
    9033.097     35.359   3.440  8.70933E-01  1.00021E+00 -1.29274E-01
    9034.152     36.414   3.480  8.69233E-01  9.98859E-01 -1.29626E-01
    9035.218     37.481   3.520  8.71020E-01  9.97507E-01 -1.26487E-01
    9036.297     38.560   3.560  8.76126E-01  9.96137E-01 -1.20011E-01
    9037.389     39.651   3.600  8.84308E-01  9.94811E-01 -1.10503E-01
    9038.492     40.754   3.640  8.95198E-01  9.93471E-01 -9.82738E-02
    9039.608     41.870   3.680  9.08449E-01  9.92163E-01 -8.37141E-02
    9040.735     42.997   3.720  9.23470E-01  9.90890E-01 -6.74195E-02
    9041.875     44.137   3.760  9.39477E-01  9.89652E-01 -5.01745E-02
    9043.027     45.290   3.800  9.55435E-01  9.88453E-01 -3.30174E-02
    9044.192     46.454   3.840  9.70132E-01  9.87292E-01 -1.71607E-02
    9045.368     47.630   3.880  9.82456E-01  9.86173E-01 -3.71702E-03
    9046.557     48.819   3.920  9.91732E-01  9.85095E-01  6.63668E-03
    9047.758     50.020   3.960  9.97791E-01  9.84061E-01  1.37306E-02
    9048.971     51.233   4.000  1.00108E+00  9.83092E-01  1.79877E-02
    9050.196     52.458   4.040  1.00245E+00  9.82171E-01  2.02763E-02
    9051.434     53.696   4.080  1.00292E+00  9.81319E-01  2.16028E-02
    9052.683     54.946   4.120  1.00327E+00  9.80512E-01  2.27561E-02
    9053.945     56.207   4.160  1.00390E+00  9.79753E-01  2.41517E-02
    9055.219     57.481   4.200  1.00483E+00  9.79063E-01  2.57701E-02
    9056.506     58.768   4.240  1.00550E+00  9.78444E-01  2.70511E-02
    9057.804     60.066   4.280  1.00504E+00  9.77873E-01  2.71650E-02
    9059.115     61.377   4.320  1.00290E+00  9.77349E-01  2.55551E-02
    9060.437     62.700   4.360  9.99234E-01  9.76896E-01  2.23380E-02
    9061.772     64.035   4.400  9.94683E-01  9.76512E-01  1.81706E-02
    9063.120     65.382   4.440  9.89793E-01  9.76176E-01  1.36177E-02
    9064.479     66.741   4.480  9.84750E-01  9.75885E-01  8.86571E-03
    9065.851     68.113   4.520  9.79762E-01  9.75660E-01  4.10213E-03
    9067.234     69.497   4.560  9.75444E-01  9.75482E-01 -3.74832E-05
    9068.630     70.893   4.600  9.72772E-01  9.75346E-01 -2.57400E-03
    9070.039     72.301   4.640  9.72639E-01  9.75253E-01 -2.61391E-03
    9071.459     73.721   4.680  9.75542E-01  9.75226E-01  3.16077E-04
    9072.892     75.154   4.720  9.81402E-01  9.75242E-01  6.16033E-03
    9074.336     76.598   4.760  9.89605E-01  9.75298E-01  1.43066E-02
    9075.793     78.055   4.800  9.99102E-01  9.75393E-01  2.37094E-02
    9077.262     79.525   4.840  1.00858E+00  9.75526E-01  3.30504E-02
    9078.744     81.006   4.880  1.01650E+00  9.75673E-01  4.08303E-02
    9080.237     82.499   4.920  1.02154E+00  9.75877E-01  4.56601E-02
    9081.743     84.005   4.960  1.02291E+00  9.76097E-01  4.68141E-02
    9083.261     85.523   5.000  1.02089E+00  9.76350E-01  4.45432E-02
    9084.791     87.053   5.040  1.01658E+00  9.76635E-01  3.99496E-02
    9086.333     88.595   5.080  1.01145E+00  9.76931E-01  3.45206E-02
    9087.888     90.150   5.120  1.00707E+00  9.77255E-01  2.98134E-02
    9089.454     91.716   5.160  1.00471E+00  9.77585E-01  2.71261E-02
    9091.033     93.295   5.200  1.00499E+00  9.77918E-01  2.70766E-02
    9092.624     94.886   5.240  1.00753E+00  9.78255E-01  2.92774E-02
    9094.227     96.490   5.280  1.01089E+00  9.78617E-01  3.22736E-02
    9095.843     98.105   5.320  1.01318E+00  9.78981E-01  3.41967E-02
    9097.470     99.733   5.360  1.01305E+00  9.79344E-01  3.37016E-02
    9099.110    101.372   5.400  1.01018E+00  9.79683E-01  3.05007E-02
    9100.762    103.024   5.440  1.00495E+00  9.80040E-01  2.49090E-02
    9102.427    104.689   5.480  9.97391E-01  9.80371E-01  1.70198E-02
    9104.103    106.365   5.520  9.87318E-01  9.80696E-01  6.62187E-03
    9105.791    108.054   5.560  9.74898E-01  9.81016E-01 -6.11831E-03
    9107.492    109.754   5.600  9.61055E-01  9.81306E-01 -2.02512E-02
    9109.205    111.467   5.640  9.46948E-01  9.81587E-01 -3.46392E-02
    9110.930    113.193   5.680  9.33365E-01  9.81838E-01 -4.84728E-02
    9112.668    114.930   5.720  9.21069E-01  9.82077E-01 -6.10081E-02
    9114.417    116.679   5.760  9.11155E-01  9.82286E-01 -7.11307E-02
    9116.179    118.441   5.800  9.04810E-01  9.82483E-01 -7.76731E-02
    9117.953    120.215   5.840  9.02539E-01  9.82645E-01 -8.01057E-02
    9119.739    122.001   5.880  9.03981E-01  9.82770E-01 -7.87893E-02
    9121.537    123.800   5.920  9.08311E-01  9.82858E-01 -7.45466E-02
    9123.348    125.610   5.960  9.14938E-01  9.82929E-01 -6.79911E-02
    9125.171    127.433   6.000  9.24106E-01  9.82920E-01 -5.88148E-02
