# # comment:                                                     FEFF 9.9.1  
# # Source:
# # Structure
# # Reduced
# # space
# # abc:
# # angles:
# # sites:
# # POT  SCF 100  7.0000   0, screened core-hole, AFOLP (folp(0)= 1.150)
# # Abs   Z=29 Rmt= 1.247 Rnm= 1.333 K  shell
# # Pot 1 Z=26 Rmt= 1.319 Rnm= 1.421
# # Pot 2 Z=29 Rmt= 1.247 Rnm= 1.333
# # Pot 3 Z=33 Rmt= 1.137 Rnm= 1.361
# # Pot 4 Z= 8 Rmt= 0.968 Rnm= 1.082
# # Gam_ch=1.729E+00 H-L exch Vi= 0.000E+00 Vr= 0.000E+00
# # Mu=-7.528E+00eV kf=2.234E+00 Vint=-1.601E+01eV Rs_int= 1.624
# FMS rfms= 9.0000
# # PATH  Rmax=-1.000,  Keep_limit= 0.00, Heap_limit 0.00  Pwcrit= 2.50%
#  S02=0.950  Temp=   0.00  Debye_temp=   0.00  Global_sig2= 0.00000
#  Energy zero shift, vr, vi    0.00000E+00   0.00000E+00
#  Curved wave amplitude ratio filter   4.000%
#     file         sig2 tot  cw amp ratio   deg  nlegs   reff  inp sig2
#     0/   0 paths used
#  xsedge+ 50, used to normalize mu           2.4725E-04
#  -----------------------------------------------------------------------
#  omega    e    k    mu    mu0     chi     @#
    8983.420    -11.338  -1.000  3.47566E-02  5.01010E-02 -1.53444E-02
    8983.719    -11.039  -0.960  3.64749E-02  5.36435E-02 -1.71686E-02
    8984.005    -10.753  -0.920  3.83142E-02  5.75727E-02 -1.92585E-02
    8984.280    -10.478  -0.880  4.02865E-02  6.19448E-02 -2.16583E-02
    8984.542    -10.216  -0.840  4.24052E-02  6.68256E-02 -2.44204E-02
    8984.792     -9.966  -0.800  4.46851E-02  7.22909E-02 -2.76058E-02
    8985.030     -9.728  -0.760  4.71425E-02  7.84276E-02 -3.12851E-02
    8985.255     -9.503  -0.720  4.97952E-02  8.53342E-02 -3.55391E-02
    8985.468     -9.290  -0.680  5.26613E-02  9.31187E-02 -4.04574E-02
    8985.670     -9.088  -0.640  5.57593E-02  1.01895E-01 -4.61359E-02
    8985.859     -8.899  -0.600  5.91052E-02  1.11776E-01 -5.26703E-02
    8986.035     -8.723  -0.560  6.27104E-02  1.22855E-01 -6.01444E-02
    8986.200     -8.558  -0.520  6.65766E-02  1.35189E-01 -6.86126E-02
    8986.352     -8.406  -0.480  7.06908E-02  1.48765E-01 -7.80745E-02
    8986.493     -8.265  -0.440  7.50175E-02  1.63464E-01 -8.84464E-02
    8986.621     -8.137  -0.400  7.94941E-02  1.79031E-01 -9.95366E-02
    8986.736     -8.022  -0.360  8.40286E-02  1.95067E-01 -1.11038E-01
    8986.840     -7.918  -0.320  8.85042E-02  2.11053E-01 -1.22549E-01
    8986.932     -7.826  -0.280  9.27906E-02  2.26414E-01 -1.33624E-01
    8987.011     -7.747  -0.240  9.67589E-02  2.40595E-01 -1.43836E-01
    8987.078     -7.680  -0.200  1.00294E-01  2.53130E-01 -1.52836E-01
    8987.133     -7.625  -0.160  1.03303E-01  2.63678E-01 -1.60375E-01
    8987.175     -7.583  -0.120  1.05714E-01  2.72019E-01 -1.66304E-01
    8987.206     -7.552  -0.080  1.07478E-01  2.78029E-01 -1.70551E-01
    8987.230     -7.528   0.000  1.08931E-01  2.82860E-01 -1.73929E-01
    8987.285     -7.473   0.120  1.12255E-01  2.93763E-01 -1.81508E-01
    8987.328     -7.430   0.160  1.14809E-01  3.02232E-01 -1.87423E-01
    8987.383     -7.375   0.200  1.18122E-01  3.13050E-01 -1.94928E-01
    8987.450     -7.308   0.240  1.22241E-01  3.26098E-01 -2.03857E-01
    8987.529     -7.229   0.280  1.27134E-01  3.41084E-01 -2.13950E-01
    8987.620     -7.138   0.320  1.32862E-01  3.57662E-01 -2.24800E-01
    8987.724     -7.034   0.360  1.39487E-01  3.75372E-01 -2.35885E-01
    8987.840     -6.918   0.400  1.47062E-01  3.93707E-01 -2.46645E-01
    8987.968     -6.790   0.440  1.55721E-01  4.12218E-01 -2.56497E-01
    8988.108     -6.650   0.480  1.65618E-01  4.30562E-01 -2.64943E-01
    8988.260     -6.498   0.520  1.76898E-01  4.48501E-01 -2.71603E-01
    8988.425     -6.333   0.560  1.89675E-01  4.65933E-01 -2.76258E-01
    8988.602     -6.156   0.600  2.04051E-01  4.82829E-01 -2.78778E-01
    8988.791     -5.967   0.640  2.20137E-01  4.99242E-01 -2.79104E-01
    8988.992     -5.766   0.680  2.38083E-01  5.15232E-01 -2.77149E-01
    8989.205     -5.553   0.720  2.57861E-01  5.30892E-01 -2.73031E-01
    8989.431     -5.327   0.760  2.79099E-01  5.46316E-01 -2.67217E-01
    8989.669     -5.089   0.800  3.00950E-01  5.61526E-01 -2.60576E-01
    8989.919     -4.839   0.840  3.22112E-01  5.76615E-01 -2.54502E-01
    8990.181     -4.577   0.880  3.40848E-01  5.91601E-01 -2.50754E-01
    8990.455     -4.303   0.920  3.56124E-01  6.06556E-01 -2.50432E-01
    8990.741     -4.016   0.960  3.68705E-01  6.21454E-01 -2.52749E-01
    8991.040     -3.718   1.000  3.80821E-01  6.36325E-01 -2.55503E-01
    8991.351     -3.407   1.040  3.93884E-01  6.51189E-01 -2.57305E-01
    8991.674     -3.084   1.080  4.07220E-01  6.65996E-01 -2.58776E-01
    8992.009     -2.749   1.120  4.20280E-01  6.80756E-01 -2.60476E-01
    8992.357     -2.401   1.160  4.34331E-01  6.95451E-01 -2.61120E-01
    8992.717     -2.041   1.200  4.50572E-01  7.10060E-01 -2.59487E-01
    8993.088     -1.670   1.240  4.68412E-01  7.24538E-01 -2.56126E-01
    8993.472     -1.285   1.280  4.88451E-01  7.38899E-01 -2.50448E-01
    8993.869     -0.889   1.320  5.13871E-01  7.53073E-01 -2.39202E-01
    8994.277     -0.481   1.360  5.46119E-01  7.67051E-01 -2.20932E-01
    8994.698     -0.060   1.400  5.82043E-01  7.80782E-01 -1.98739E-01
    8995.131      0.373   1.440  6.16622E-01  7.94275E-01 -1.77653E-01
    8995.576      0.818   1.480  6.48032E-01  8.07457E-01 -1.59425E-01
    8996.033      1.275   1.520  6.80630E-01  8.20339E-01 -1.39709E-01
    8996.502      1.744   1.560  7.19552E-01  8.32867E-01 -1.13315E-01
    8996.984      2.226   1.600  7.66809E-01  8.45013E-01 -7.82033E-02
    8997.478      2.720   1.640  8.20724E-01  8.56787E-01 -3.60636E-02
    8997.984      3.226   1.680  8.77975E-01  8.68141E-01  9.83399E-03
    8998.502      3.744   1.720  9.42064E-01  8.79065E-01  6.29988E-02
    8999.032      4.274   1.760  1.02012E+00  8.89555E-01  1.30569E-01
    8999.575      4.817   1.800  1.11056E+00  8.99562E-01  2.10999E-01
    9000.129      5.371   1.840  1.20263E+00  9.09123E-01  2.93510E-01
    9000.696      5.938   1.880  1.28164E+00  9.18196E-01  3.63439E-01
    9001.275      6.517   1.920  1.33697E+00  9.26779E-01  4.10186E-01
    9001.867      7.109   1.960  1.36863E+00  9.34892E-01  4.33743E-01
    9002.470      7.712   2.000  1.37794E+00  9.42512E-01  4.35429E-01
    9003.086      8.328   2.040  1.36483E+00  9.49643E-01  4.15186E-01
    9003.714      8.956   2.080  1.33314E+00  9.56309E-01  3.76827E-01
    9004.354      9.596   2.120  1.28922E+00  9.62492E-01  3.26727E-01
    9005.006     10.248   2.160  1.23992E+00  9.68216E-01  2.71702E-01
    9005.671     10.913   2.200  1.19209E+00  9.73489E-01  2.18598E-01
    9006.347     11.589   2.240  1.15315E+00  9.78314E-01  1.74835E-01
    9007.036     12.278   2.280  1.12990E+00  9.82720E-01  1.47175E-01
    9007.737     12.979   2.320  1.12388E+00  9.86715E-01  1.37164E-01
    9008.450     13.692   2.360  1.12867E+00  9.90306E-01  1.38360E-01
    9009.176     14.418   2.400  1.13012E+00  9.93522E-01  1.36603E-01
    9009.913     15.155   2.440  1.11610E+00  9.96370E-01  1.19732E-01
    9010.663     15.905   2.480  1.08670E+00  9.98880E-01  8.78149E-02
    9011.425     16.667   2.520  1.05113E+00  1.00104E+00  5.00850E-02
    9012.199     17.441   2.560  1.01751E+00  1.00290E+00  1.46074E-02
    9012.986     18.228   2.600  9.89734E-01  1.00447E+00 -1.47384E-02
    9013.784     19.026   2.640  9.71617E-01  1.00574E+00 -3.41226E-02
    9014.595     19.837   2.680  9.63299E-01  1.00677E+00 -4.34748E-02
    9015.418     20.660   2.720  9.59628E-01  1.00757E+00 -4.79383E-02
    9016.253     21.495   2.760  9.56774E-01  1.00812E+00 -5.13505E-02
    9017.100     22.342   2.800  9.52933E-01  1.00848E+00 -5.55431E-02
    9017.960     23.202   2.840  9.47726E-01  1.00865E+00 -6.09266E-02
    9018.832     24.074   2.880  9.41532E-01  1.00866E+00 -6.71299E-02
    9019.716     24.958   2.920  9.35029E-01  1.00851E+00 -7.34819E-02
    9020.612     25.854   2.960  9.29035E-01  1.00821E+00 -7.91724E-02
    9021.520     26.762   3.000  9.23829E-01  1.00780E+00 -8.39698E-02
    9022.441     27.683   3.040  9.19257E-01  1.00725E+00 -8.79941E-02
    9023.373     28.615   3.080  9.15314E-01  1.00663E+00 -9.13209E-02
    9024.318     29.560   3.120  9.11935E-01  1.00591E+00 -9.39790E-02
    9025.275     30.517   3.160  9.09191E-01  1.00514E+00 -9.59454E-02
    9026.244     31.486   3.200  9.07191E-01  1.00429E+00 -9.70972E-02
    9027.226     32.468   3.240  9.06111E-01  1.00339E+00 -9.72828E-02
    9028.220     33.462   3.280  9.05672E-01  1.00248E+00 -9.68077E-02
    9029.225     34.467   3.320  9.05595E-01  1.00151E+00 -9.59130E-02
    9030.243     35.485   3.360  9.05736E-01  1.00053E+00 -9.47895E-02
    9031.274     36.516   3.400  9.06133E-01  9.99538E-01 -9.34052E-02
    9032.316     37.558   3.440  9.06960E-01  9.98549E-01 -9.15890E-02
    9033.371     38.613   3.480  9.08575E-01  9.97561E-01 -8.89862E-02
    9034.437     39.679   3.520  9.11419E-01  9.96599E-01 -8.51801E-02
    9035.516     40.758   3.560  9.15705E-01  9.95644E-01 -7.99388E-02
    9036.608     41.850   3.600  9.21645E-01  9.94700E-01 -7.30549E-02
    9037.711     42.953   3.640  9.29406E-01  9.93789E-01 -6.43834E-02
    9038.827     44.069   3.680  9.38966E-01  9.92936E-01 -5.39695E-02
    9039.954     45.196   3.720  9.49976E-01  9.92100E-01 -4.21235E-02
    9041.094     46.336   3.760  9.62039E-01  9.91303E-01 -2.92647E-02
    9042.246     47.488   3.800  9.74749E-01  9.90549E-01 -1.57997E-02
    9043.411     48.653   3.840  9.87792E-01  9.89860E-01 -2.06715E-03
    9044.587     49.829   3.880  1.00096E+00  9.89215E-01  1.17480E-02
    9045.776     51.018   3.920  1.01412E+00  9.88613E-01  2.55028E-02
    9046.977     52.219   3.960  1.02692E+00  9.88058E-01  3.88644E-02
    9048.190     53.432   4.000  1.03900E+00  9.87572E-01  5.14238E-02
    9049.415     54.657   4.040  1.04988E+00  9.87154E-01  6.27263E-02
    9050.653     55.895   4.080  1.05906E+00  9.86762E-01  7.22975E-02
    9051.902     57.144   4.120  1.06618E+00  9.86460E-01  7.97226E-02
    9053.164     58.406   4.160  1.07095E+00  9.86185E-01  8.47611E-02
    9054.438     59.680   4.200  1.07328E+00  9.85978E-01  8.73068E-02
    9055.725     60.967   4.240  1.07316E+00  9.85841E-01  8.73208E-02
    9057.023     62.265   4.280  1.07063E+00  9.85749E-01  8.48775E-02
    9058.334     63.576   4.320  1.06579E+00  9.85701E-01  8.00928E-02
    9059.656     64.898   4.360  1.05887E+00  9.85700E-01  7.31678E-02
    9060.991     66.234   4.400  1.05023E+00  9.85763E-01  6.44654E-02
    9062.339     67.581   4.440  1.04038E+00  9.85870E-01  5.45140E-02
    9063.698     68.940   4.480  1.02997E+00  9.86019E-01  4.39491E-02
    9065.070     70.312   4.520  1.01969E+00  9.86209E-01  3.34785E-02
    9066.453     71.696   4.560  1.01028E+00  9.86438E-01  2.38466E-02
    9067.849     73.091   4.600  1.00238E+00  9.86706E-01  1.56774E-02
    9069.258     74.500   4.640  9.96432E-01  9.87014E-01  9.41771E-03
    9070.678     75.920   4.680  9.92638E-01  9.87360E-01  5.27847E-03
    9072.111     77.353   4.720  9.90938E-01  9.87739E-01  3.19869E-03
    9073.555     78.797   4.760  9.90995E-01  9.88130E-01  2.86483E-03
    9075.012     80.254   4.800  9.92289E-01  9.88555E-01  3.73404E-03
    9076.481     81.723   4.840  9.94102E-01  9.89011E-01  5.09160E-03
    9077.963     83.205   4.880  9.95683E-01  9.89472E-01  6.21068E-03
    9079.456     84.698   4.920  9.96480E-01  9.89938E-01  6.54211E-03
    9080.962     86.204   4.960  9.96229E-01  9.90408E-01  5.82158E-03
    9082.480     87.722   5.000  9.95009E-01  9.90902E-01  4.10741E-03
    9084.010     89.252   5.040  9.93036E-01  9.91398E-01  1.63846E-03
    9085.552     90.794   5.080  9.90587E-01  9.91871E-01 -1.28369E-03
    9087.107     92.349   5.120  9.88002E-01  9.92364E-01 -4.36240E-03
    9088.673     93.915   5.160  9.85508E-01  9.92856E-01 -7.34769E-03
    9090.252     95.494   5.200  9.83235E-01  9.93320E-01 -1.00845E-02
    9091.843     97.085   5.240  9.81136E-01  9.93774E-01 -1.26378E-02
    9093.446     98.688   5.280  9.78962E-01  9.94198E-01 -1.52356E-02
    9095.062    100.304   5.320  9.76391E-01  9.94616E-01 -1.82252E-02
    9096.690    101.932   5.360  9.73117E-01  9.95024E-01 -2.19065E-02
    9098.329    103.571   5.400  9.69002E-01  9.95398E-01 -2.63953E-02
    9099.981    105.223   5.440  9.64210E-01  9.95738E-01 -3.15282E-02
    9101.646    106.888   5.480  9.59124E-01  9.96065E-01 -3.69405E-02
    9103.322    108.564   5.520  9.54226E-01  9.96355E-01 -4.21292E-02
    9105.011    110.253   5.560  9.50080E-01  9.96607E-01 -4.65267E-02
    9106.711    111.953   5.600  9.47272E-01  9.96819E-01 -4.95472E-02
    9108.424    113.666   5.640  9.46265E-01  9.96993E-01 -5.07271E-02
    9110.149    115.391   5.680  9.47269E-01  9.97128E-01 -4.98591E-02
    9111.887    117.129   5.720  9.50114E-01  9.97246E-01 -4.71326E-02
    9113.636    118.878   5.760  9.54230E-01  9.97302E-01 -4.30719E-02
    9115.398    120.640   5.800  9.58944E-01  9.97317E-01 -3.83725E-02
    9117.172    122.414   5.840  9.63735E-01  9.97316E-01 -3.35807E-02
    9118.958    124.200   5.880  9.68348E-01  9.97251E-01 -2.89022E-02
    9120.756    125.998   5.920  9.72930E-01  9.97144E-01 -2.42139E-02
    9122.567    127.809   5.960  9.77697E-01  9.96993E-01 -1.92961E-02
    9124.390    129.632   6.000  9.82859E-01  9.96776E-01 -1.39164E-02
