# # comment:                                                     FEFF 9.9.1  
# # Source:
# # Structure
# # Reduced
# # space
# # abc:
# # angles:
# # sites:
# # POT  SCF 100  7.0000   0, screened core-hole, AFOLP (folp(0)= 1.150)
# # Abs   Z=29 Rmt= 1.268 Rnm= 1.337 K  shell
# # Pot 1 Z=29 Rmt= 1.268 Rnm= 1.337
# # Pot 2 Z= 1 Rmt= 0.683 Rnm= 0.853
# # Pot 3 Z= 6 Rmt= 0.723 Rnm= 0.958
# # Pot 4 Z= 8 Rmt= 0.816 Rnm= 1.014
# # Gam_ch=1.729E+00 H-L exch Vi= 0.000E+00 Vr= 0.000E+00
# # Mu=-7.797E+00eV kf=2.617E+00 Vint=-1.748E+01eV Rs_int= 1.386
# FMS rfms= 9.0000
# # PATH  Rmax=-1.000,  Keep_limit= 0.00, Heap_limit 0.00  Pwcrit= 2.50%
#  S02=0.950  Temp=   0.00  Debye_temp=   0.00  Global_sig2= 0.00000
#  Energy zero shift, vr, vi    0.00000E+00   0.00000E+00
#  Curved wave amplitude ratio filter   4.000%
#     file         sig2 tot  cw amp ratio   deg  nlegs   reff  inp sig2
#     0/   0 paths used
#  xsedge+ 50, used to normalize mu           2.5027E-04
#  -----------------------------------------------------------------------
#  omega    e    k    mu    mu0     chi     @#
    8983.243    -11.607  -1.000  3.42240E-02  4.80601E-02 -1.38360E-02
    8983.542    -11.308  -0.960  3.60415E-02  5.14365E-02 -1.53950E-02
    8983.829    -11.021  -0.920  3.80168E-02  5.51820E-02 -1.71653E-02
    8984.103    -10.747  -0.880  4.01711E-02  5.93506E-02 -1.91796E-02
    8984.365    -10.485  -0.840  4.25292E-02  6.40053E-02 -2.14761E-02
    8984.615    -10.235  -0.800  4.51200E-02  6.92190E-02 -2.40990E-02
    8984.853     -9.997  -0.760  4.79765E-02  7.50753E-02 -2.70989E-02
    8985.078     -9.772  -0.720  5.11359E-02  8.16689E-02 -3.05330E-02
    8985.292     -9.558  -0.680  5.46396E-02  8.91039E-02 -3.44643E-02
    8985.493     -9.357  -0.640  5.85308E-02  9.74901E-02 -3.89593E-02
    8985.682     -9.168  -0.600  6.28518E-02  1.06935E-01 -4.40836E-02
    8985.859     -8.991  -0.560  6.76381E-02  1.17532E-01 -4.98937E-02
    8986.023     -8.827  -0.520  7.29095E-02  1.29334E-01 -5.64242E-02
    8986.176     -8.674  -0.480  7.86576E-02  1.42329E-01 -6.36711E-02
    8986.316     -8.534  -0.440  8.48316E-02  1.56402E-01 -7.15709E-02
    8986.444     -8.406  -0.400  9.13266E-02  1.71311E-01 -7.99841E-02
    8986.560     -8.290  -0.360  9.79800E-02  1.86669E-01 -8.86894E-02
    8986.663     -8.187  -0.320  1.04583E-01  2.01980E-01 -9.73973E-02
    8986.755     -8.095  -0.280  1.10904E-01  2.16689E-01 -1.05785E-01
    8986.834     -8.016  -0.240  1.16724E-01  2.30264E-01 -1.13540E-01
    8986.901     -7.949  -0.200  1.21860E-01  2.42260E-01 -1.20400E-01
    8986.956     -7.894  -0.160  1.26179E-01  2.52351E-01 -1.26172E-01
    8986.998     -7.851  -0.120  1.29592E-01  2.60327E-01 -1.30734E-01
    8987.029     -7.821  -0.080  1.32052E-01  2.66073E-01 -1.34021E-01
    8987.053     -7.797   0.000  1.34027E-01  2.70690E-01 -1.36663E-01
    8987.108     -7.742   0.120  1.38582E-01  2.81090E-01 -1.42508E-01
    8987.151     -7.699   0.160  1.42115E-01  2.89192E-01 -1.47077E-01
    8987.206     -7.644   0.200  1.46598E-01  2.99514E-01 -1.52917E-01
    8987.273     -7.577   0.240  1.51992E-01  3.11935E-01 -1.59943E-01
    8987.352     -7.498   0.280  1.58199E-01  3.26205E-01 -1.68006E-01
    8987.443     -7.406   0.320  1.65092E-01  3.41963E-01 -1.76871E-01
    8987.547     -7.303   0.360  1.72471E-01  3.58739E-01 -1.86268E-01
    8987.663     -7.187   0.400  1.80182E-01  3.76073E-01 -1.95891E-01
    8987.791     -7.059   0.440  1.88012E-01  3.93510E-01 -2.05498E-01
    8987.931     -6.919   0.480  1.95802E-01  4.10715E-01 -2.14913E-01
    8988.084     -6.766   0.520  2.03375E-01  4.27474E-01 -2.24099E-01
    8988.248     -6.602   0.560  2.10515E-01  4.43671E-01 -2.33156E-01
    8988.425     -6.425   0.600  2.17089E-01  4.59299E-01 -2.42210E-01
    8988.614     -6.236   0.640  2.23117E-01  4.74432E-01 -2.51315E-01
    8988.815     -6.035   0.680  2.28759E-01  4.89093E-01 -2.60334E-01
    8989.028     -5.822   0.720  2.34539E-01  5.03417E-01 -2.68878E-01
    8989.254     -5.596   0.760  2.41109E-01  5.17459E-01 -2.76350E-01
    8989.492     -5.358   0.800  2.49147E-01  5.31305E-01 -2.82158E-01
    8989.742     -5.108   0.840  2.59218E-01  5.45031E-01 -2.85813E-01
    8990.004     -4.846   0.880  2.71702E-01  5.58683E-01 -2.86981E-01
    8990.278     -4.572   0.920  2.86689E-01  5.72312E-01 -2.85623E-01
    8990.565     -4.285   0.960  3.03875E-01  5.85922E-01 -2.82046E-01
    8990.863     -3.987   1.000  3.22491E-01  5.99545E-01 -2.77054E-01
    8991.174     -3.676   1.040  3.41255E-01  6.13207E-01 -2.71952E-01
    8991.497     -3.353   1.080  3.58842E-01  6.26889E-01 -2.68046E-01
    8991.833     -3.017   1.120  3.74780E-01  6.40622E-01 -2.65842E-01
    8992.180     -2.670   1.160  3.89621E-01  6.54374E-01 -2.64753E-01
    8992.540     -2.310   1.200  4.04303E-01  6.68130E-01 -2.63827E-01
    8992.912     -1.938   1.240  4.19609E-01  6.81891E-01 -2.62282E-01
    8993.296     -1.554   1.280  4.36109E-01  6.95636E-01 -2.59526E-01
    8993.692     -1.158   1.320  4.54174E-01  7.09318E-01 -2.55144E-01
    8994.100     -0.750   1.360  4.74298E-01  7.22951E-01 -2.48653E-01
    8994.521     -0.329   1.400  4.97610E-01  7.36490E-01 -2.38880E-01
    8994.954      0.104   1.440  5.26103E-01  7.49923E-01 -2.23820E-01
    8995.399      0.549   1.480  5.61986E-01  7.63202E-01 -2.01216E-01
    8995.856      1.006   1.520  6.06431E-01  7.76316E-01 -1.69885E-01
    8996.325      1.475   1.560  6.58376E-01  7.89233E-01 -1.30857E-01
    8996.807      1.957   1.600  7.15170E-01  8.01924E-01 -8.67538E-02
    8997.301      2.451   1.640  7.75528E-01  8.14376E-01 -3.88485E-02
    8997.807      2.957   1.680  8.41215E-01  8.26560E-01  1.46547E-02
    8998.325      3.475   1.720  9.14018E-01  8.38444E-01  7.55733E-02
    8998.855      4.005   1.760  9.91935E-01  8.50000E-01  1.41936E-01
    8999.398      4.548   1.800  1.06811E+00  8.61236E-01  2.06876E-01
    8999.952      5.102   1.840  1.13035E+00  8.72104E-01  2.58242E-01
    9000.519      5.669   1.880  1.16561E+00  8.82596E-01  2.83013E-01
    9001.098      6.249   1.920  1.17123E+00  8.92684E-01  2.78542E-01
    9001.690      6.840   1.960  1.15966E+00  9.02363E-01  2.57296E-01
    9002.293      7.443   2.000  1.14775E+00  9.11647E-01  2.36101E-01
    9002.909      8.059   2.040  1.14280E+00  9.20491E-01  2.22308E-01
    9003.537      8.687   2.080  1.13953E+00  9.28893E-01  2.10635E-01
    9004.177      9.327   2.120  1.13044E+00  9.36848E-01  1.93588E-01
    9004.829      9.979   2.160  1.11945E+00  9.44355E-01  1.75100E-01
    9005.494     10.644   2.200  1.11842E+00  9.51436E-01  1.66980E-01
    9006.170     11.320   2.240  1.13236E+00  9.58049E-01  1.74315E-01
    9006.859     12.009   2.280  1.15725E+00  9.64216E-01  1.93032E-01
    9007.560     12.710   2.320  1.18556E+00  9.69959E-01  2.15597E-01
    9008.273     13.423   2.360  1.21008E+00  9.75239E-01  2.34844E-01
    9008.999     14.149   2.400  1.22584E+00  9.80103E-01  2.45739E-01
    9009.736     14.887   2.440  1.22939E+00  9.84554E-01  2.44841E-01
    9010.486     15.636   2.480  1.21985E+00  9.88578E-01  2.31272E-01
    9011.248     16.398   2.520  1.19985E+00  9.92220E-01  2.07631E-01
    9012.022     17.172   2.560  1.17393E+00  9.95466E-01  1.78465E-01
    9012.809     17.959   2.600  1.14648E+00  9.98342E-01  1.48142E-01
    9013.607     18.757   2.640  1.12101E+00  1.00084E+00  1.20172E-01
    9014.418     19.568   2.680  1.09942E+00  1.00302E+00  9.63979E-02
    9015.241     20.391   2.720  1.08081E+00  1.00485E+00  7.59601E-02
    9016.076     21.226   2.760  1.06283E+00  1.00637E+00  5.64644E-02
    9016.924     22.074   2.800  1.04343E+00  1.00759E+00  3.58386E-02
    9017.783     22.933   2.840  1.02082E+00  1.00853E+00  1.22911E-02
    9018.655     23.805   2.880  9.93268E-01  1.00922E+00 -1.59566E-02
    9019.539     24.689   2.920  9.62201E-01  1.00967E+00 -4.74689E-02
    9020.435     25.585   2.960  9.32078E-01  1.00986E+00 -7.77813E-02
    9021.343     26.493   3.000  9.09314E-01  1.00986E+00 -1.00546E-01
    9022.264     27.414   3.040  8.92371E-01  1.00966E+00 -1.17290E-01
    9023.196     28.346   3.080  8.77793E-01  1.00927E+00 -1.31477E-01
    9024.141     29.291   3.120  8.65366E-01  1.00871E+00 -1.43348E-01
    9025.098     30.248   3.160  8.55442E-01  1.00800E+00 -1.52561E-01
    9026.068     31.218   3.200  8.48186E-01  1.00718E+00 -1.58999E-01
    9027.049     32.199   3.240  8.43490E-01  1.00622E+00 -1.62735E-01
    9028.043     33.193   3.280  8.41429E-01  1.00517E+00 -1.63743E-01
    9029.049     34.199   3.320  8.41660E-01  1.00401E+00 -1.62353E-01
    9030.067     35.217   3.360  8.43931E-01  1.00279E+00 -1.58862E-01
    9031.097     36.247   3.400  8.48287E-01  1.00150E+00 -1.53214E-01
    9032.139     37.289   3.440  8.54930E-01  1.00016E+00 -1.45232E-01
    9033.194     38.344   3.480  8.64135E-01  9.98781E-01 -1.34646E-01
    9034.261     39.411   3.520  8.76285E-01  9.97361E-01 -1.21076E-01
    9035.340     40.490   3.560  8.91608E-01  9.95911E-01 -1.04303E-01
    9036.431     41.581   3.600  9.09394E-01  9.94476E-01 -8.50823E-02
    9037.534     42.684   3.640  9.28808E-01  9.93019E-01 -6.42104E-02
    9038.650     43.800   3.680  9.48838E-01  9.91584E-01 -4.27463E-02
    9039.777     44.927   3.720  9.68232E-01  9.90157E-01 -2.19251E-02
    9040.917     46.067   3.760  9.85934E-01  9.88761E-01 -2.82671E-03
    9042.070     47.220   3.800  1.00113E+00  9.87378E-01  1.37515E-02
    9043.234     48.384   3.840  1.01323E+00  9.86054E-01  2.71769E-02
    9044.410     49.560   3.880  1.02204E+00  9.84749E-01  3.72933E-02
    9045.599     50.749   3.920  1.02782E+00  9.83506E-01  4.43164E-02
    9046.800     51.950   3.960  1.03096E+00  9.82310E-01  4.86469E-02
    9048.013     53.163   4.000  1.03200E+00  9.81183E-01  5.08135E-02
    9049.238     54.388   4.040  1.03152E+00  9.80104E-01  5.14160E-02
    9050.476     55.626   4.080  1.03007E+00  9.79094E-01  5.09779E-02
    9051.726     56.876   4.120  1.02803E+00  9.78135E-01  4.98937E-02
    9052.987     58.137   4.160  1.02583E+00  9.77250E-01  4.85819E-02
    9054.261     59.412   4.200  1.02381E+00  9.76440E-01  4.73657E-02
    9055.548     60.698   4.240  1.02219E+00  9.75683E-01  4.65068E-02
    9056.846     61.996   4.280  1.02123E+00  9.75023E-01  4.62089E-02
    9058.157     63.307   4.320  1.02102E+00  9.74421E-01  4.66017E-02
    9059.480     64.630   4.360  1.02156E+00  9.73915E-01  4.76482E-02
    9060.815     65.965   4.400  1.02262E+00  9.73465E-01  4.91597E-02
    9062.162     67.312   4.440  1.02396E+00  9.73089E-01  5.08754E-02
    9063.521     68.671   4.480  1.02524E+00  9.72766E-01  5.24767E-02
    9064.893     70.043   4.520  1.02621E+00  9.72540E-01  5.36720E-02
    9066.277     71.427   4.560  1.02662E+00  9.72368E-01  5.42484E-02
    9067.673     72.823   4.600  1.02632E+00  9.72270E-01  5.40521E-02
    9069.081     74.231   4.640  1.02520E+00  9.72246E-01  5.29538E-02
    9070.501     75.651   4.680  1.02313E+00  9.72271E-01  5.08603E-02
    9071.934     77.084   4.720  1.02004E+00  9.72366E-01  4.76761E-02
    9073.378     78.528   4.760  1.01579E+00  9.72510E-01  4.32809E-02
    9074.835     79.985   4.800  1.01031E+00  9.72722E-01  3.75903E-02
    9076.304     81.455   4.840  1.00357E+00  9.72977E-01  3.05901E-02
    9077.786     82.936   4.880  9.95646E-01  9.73276E-01  2.23704E-02
    9079.279     84.429   4.920  9.86800E-01  9.73617E-01  1.31828E-02
    9080.785     85.935   4.960  9.77415E-01  9.74021E-01  3.39464E-03
    9082.303     87.453   5.000  9.67923E-01  9.74440E-01 -6.51701E-03
    9083.833     88.983   5.040  9.58854E-01  9.74896E-01 -1.60416E-02
    9085.375     90.525   5.080  9.50683E-01  9.75387E-01 -2.47048E-02
    9086.930     92.080   5.120  9.43815E-01  9.75911E-01 -3.20960E-02
    9088.496     93.646   5.160  9.38522E-01  9.76443E-01 -3.79210E-02
    9090.075     95.225   5.200  9.34977E-01  9.76982E-01 -4.20048E-02
    9091.666     96.816   5.240  9.33158E-01  9.77546E-01 -4.43884E-02
    9093.270     98.420   5.280  9.32833E-01  9.78114E-01 -4.52817E-02
    9094.885    100.035   5.320  9.33652E-01  9.78681E-01 -4.50288E-02
    9096.513    101.663   5.360  9.35223E-01  9.79225E-01 -4.40023E-02
    9098.152    103.303   5.400  9.37248E-01  9.79789E-01 -4.25409E-02
    9099.804    104.955   5.440  9.39499E-01  9.80348E-01 -4.08498E-02
    9101.469    106.619   5.480  9.41896E-01  9.80880E-01 -3.89843E-02
    9103.145    108.295   5.520  9.44539E-01  9.81404E-01 -3.68643E-02
    9104.834    109.984   5.560  9.47529E-01  9.81892E-01 -3.43631E-02
    9106.534    111.684   5.600  9.50989E-01  9.82346E-01 -3.13579E-02
    9108.247    113.397   5.640  9.54962E-01  9.82788E-01 -2.78263E-02
    9109.973    115.123   5.680  9.59316E-01  9.83194E-01 -2.38776E-02
    9111.710    116.860   5.720  9.63800E-01  9.83562E-01 -1.97611E-02
    9113.459    118.610   5.760  9.68097E-01  9.83889E-01 -1.57915E-02
    9115.221    120.371   5.800  9.71879E-01  9.84175E-01 -1.22967E-02
    9116.995    122.145   5.840  9.74878E-01  9.84422E-01 -9.54365E-03
    9118.781    123.931   5.880  9.76930E-01  9.84626E-01 -7.69568E-03
    9120.580    125.730   5.920  9.77999E-01  9.84784E-01 -6.78485E-03
    9122.390    127.540   5.960  9.78163E-01  9.84865E-01 -6.70154E-03
    9124.213    129.363   6.000  9.77689E-01  9.84871E-01 -7.18269E-03
