# # comment:                                                     FEFF 9.9.1  
# # Source:
# # Structure
# # Reduced
# # space
# # abc:
# # angles:
# # sites:
# # POT  SCF 100  7.0000   0, screened core-hole, AFOLP (folp(0)= 1.150)
# # Abs   Z=29 Rmt= 1.231 Rnm= 1.297 K  shell
# # Pot 1 Z=20 Rmt= 1.622 Rnm= 1.695
# # Pot 2 Z=73 Rmt= 1.300 Rnm= 1.439
# # Pot 3 Z=29 Rmt= 1.231 Rnm= 1.297
# # Pot 4 Z= 8 Rmt= 1.027 Rnm= 1.090
# # Gam_ch=1.729E+00 H-L exch Vi= 0.000E+00 Vr= 0.000E+00
# # Mu=-8.755E+00eV kf=2.124E+00 Vint=-1.898E+01eV Rs_int= 1.707
# FMS rfms= 9.0000
# # PATH  Rmax=-1.000,  Keep_limit= 0.00, Heap_limit 0.00  Pwcrit= 2.50%
#  S02=0.950  Temp=   0.00  Debye_temp=   0.00  Global_sig2= 0.00000
#  Energy zero shift, vr, vi    0.00000E+00   0.00000E+00
#  Curved wave amplitude ratio filter   4.000%
#     file         sig2 tot  cw amp ratio   deg  nlegs   reff  inp sig2
#     0/   0 paths used
#  xsedge+ 50, used to normalize mu           2.4686E-04
#  -----------------------------------------------------------------------
#  omega    e    k    mu    mu0     chi     @#
    8985.447    -12.565  -1.000  3.71014E-02  5.43721E-02 -1.72708E-02
    8985.746    -12.266  -0.960  3.88855E-02  5.83718E-02 -1.94863E-02
    8986.033    -11.980  -0.920  4.07858E-02  6.28222E-02 -2.20364E-02
    8986.307    -11.705  -0.880  4.28135E-02  6.77904E-02 -2.49769E-02
    8986.569    -11.443  -0.840  4.49811E-02  7.33545E-02 -2.83734E-02
    8986.819    -11.193  -0.800  4.73027E-02  7.96051E-02 -3.23024E-02
    8987.057    -10.956  -0.760  4.97941E-02  8.66462E-02 -3.68521E-02
    8987.282    -10.730  -0.720  5.24726E-02  9.45957E-02 -4.21231E-02
    8987.496    -10.517  -0.680  5.53567E-02  1.03583E-01 -4.82265E-02
    8987.697    -10.316  -0.640  5.84648E-02  1.13746E-01 -5.52810E-02
    8987.886    -10.127  -0.600  6.18142E-02  1.25219E-01 -6.34043E-02
    8988.063     -9.950  -0.560  6.54175E-02  1.38117E-01 -7.26991E-02
    8988.227     -9.785  -0.520  6.92788E-02  1.52509E-01 -8.32305E-02
    8988.380     -9.633  -0.480  7.33879E-02  1.68382E-01 -9.49946E-02
    8988.520     -9.493  -0.440  7.77131E-02  1.85596E-01 -1.07883E-01
    8988.648     -9.365  -0.400  8.21961E-02  2.03849E-01 -1.21653E-01
    8988.764     -9.249  -0.360  8.67486E-02  2.22666E-01 -1.35918E-01
    8988.867     -9.145  -0.320  9.12560E-02  2.41432E-01 -1.50176E-01
    8988.959     -9.054  -0.280  9.55874E-02  2.59461E-01 -1.63873E-01
    8989.038     -8.974  -0.240  9.96103E-02  2.76097E-01 -1.76487E-01
    8989.105     -8.907  -0.200  1.03204E-01  2.90792E-01 -1.87589E-01
    8989.160     -8.853  -0.160  1.06268E-01  3.03147E-01 -1.96880E-01
    8989.203     -8.810  -0.120  1.08727E-01  3.12909E-01 -2.04182E-01
    8989.233     -8.779  -0.080  1.10529E-01  3.19937E-01 -2.09409E-01
    8989.257     -8.755   0.000  1.12019E-01  3.25582E-01 -2.13564E-01
    8989.312     -8.700   0.120  1.15349E-01  3.38294E-01 -2.22944E-01
    8989.355     -8.658   0.160  1.17927E-01  3.48178E-01 -2.30251E-01
    8989.410     -8.603   0.200  1.21249E-01  3.60774E-01 -2.39524E-01
    8989.477     -8.536   0.240  1.25338E-01  3.75917E-01 -2.50579E-01
    8989.556     -8.456   0.280  1.30136E-01  3.93247E-01 -2.63111E-01
    8989.648     -8.365   0.320  1.35638E-01  4.12344E-01 -2.76706E-01
    8989.751     -8.261   0.360  1.41791E-01  4.32596E-01 -2.90804E-01
    8989.867     -8.145   0.400  1.48523E-01  4.53414E-01 -3.04891E-01
    8989.995     -8.017   0.440  1.55742E-01  4.74205E-01 -3.18464E-01
    8990.135     -7.877   0.480  1.63433E-01  4.94561E-01 -3.31129E-01
    8990.288     -7.725   0.520  1.71617E-01  5.14213E-01 -3.42596E-01
    8990.452     -7.560   0.560  1.80352E-01  5.32994E-01 -3.52641E-01
    8990.629     -7.383   0.600  1.89925E-01  5.50892E-01 -3.60967E-01
    8990.818     -7.194   0.640  2.00654E-01  5.67951E-01 -3.67296E-01
    8991.019     -6.993   0.680  2.12861E-01  5.84293E-01 -3.71432E-01
    8991.233     -6.780   0.720  2.26607E-01  5.99996E-01 -3.73389E-01
    8991.458     -6.554   0.760  2.41510E-01  6.15173E-01 -3.73663E-01
    8991.696     -6.317   0.800  2.56297E-01  6.29893E-01 -3.73597E-01
    8991.946     -6.067   0.840  2.69556E-01  6.44269E-01 -3.74713E-01
    8992.208     -5.805   0.880  2.81001E-01  6.58338E-01 -3.77337E-01
    8992.482     -5.530   0.920  2.91960E-01  6.72148E-01 -3.80189E-01
    8992.769     -5.244   0.960  3.04771E-01  6.85772E-01 -3.81000E-01
    8993.067     -4.945   1.000  3.21944E-01  6.99190E-01 -3.77246E-01
    8993.378     -4.634   1.040  3.45810E-01  7.12435E-01 -3.66625E-01
    8993.701     -4.311   1.080  3.78943E-01  7.25510E-01 -3.46568E-01
    8994.037     -3.976   1.120  4.24188E-01  7.38435E-01 -3.14246E-01
    8994.384     -3.628   1.160  4.80892E-01  7.51159E-01 -2.70267E-01
    8994.744     -3.269   1.200  5.41294E-01  7.63731E-01 -2.22437E-01
    8995.116     -2.897   1.240  5.95485E-01  7.76096E-01 -1.80612E-01
    8995.500     -2.513   1.280  6.41768E-01  7.88236E-01 -1.46468E-01
    8995.896     -2.117   1.320  6.88223E-01  8.00169E-01 -1.11945E-01
    8996.304     -1.708   1.360  7.43750E-01  8.11852E-01 -6.81021E-02
    8996.725     -1.287   1.400  8.11446E-01  8.23283E-01 -1.18366E-02
    8997.158     -0.855   1.440  8.93596E-01  8.34414E-01  5.91812E-02
    8997.603     -0.410   1.480  9.96821E-01  8.45245E-01  1.51576E-01
    8998.060      0.048   1.520  1.11753E+00  8.55768E-01  2.61759E-01
    8998.529      0.517   1.560  1.23447E+00  8.65958E-01  3.68510E-01
    8999.011      0.999   1.600  1.32579E+00  8.75813E-01  4.49975E-01
    8999.505      1.492   1.640  1.39295E+00  8.85286E-01  5.07666E-01
    9000.011      1.998   1.680  1.44421E+00  8.94414E-01  5.49791E-01
    9000.529      2.516   1.720  1.47250E+00  9.03133E-01  5.69369E-01
    9001.059      3.047   1.760  1.47877E+00  9.11482E-01  5.67286E-01
    9001.602      3.589   1.800  1.46096E+00  9.19418E-01  5.41537E-01
    9002.157      4.144   1.840  1.39592E+00  9.26982E-01  4.68940E-01
    9002.723      4.711   1.880  1.28911E+00  9.34113E-01  3.55000E-01
    9003.303      5.290   1.920  1.19292E+00  9.40872E-01  2.52053E-01
    9003.894      5.881   1.960  1.14023E+00  9.47219E-01  1.93008E-01
    9004.497      6.485   2.000  1.12239E+00  9.53157E-01  1.69236E-01
    9005.113      7.101   2.040  1.11433E+00  9.58711E-01  1.55622E-01
    9005.741      7.728   2.080  1.10233E+00  9.63884E-01  1.38444E-01
    9006.381      8.369   2.120  1.08182E+00  9.68680E-01  1.13136E-01
    9007.033      9.021   2.160  1.05196E+00  9.73104E-01  7.88509E-02
    9007.698      9.685   2.200  1.01826E+00  9.77182E-01  4.10769E-02
    9008.374     10.362   2.240  9.92806E-01  9.80899E-01  1.19070E-02
    9009.063     11.051   2.280  9.87235E-01  9.84280E-01  2.95565E-03
    9009.764     11.752   2.320  1.00718E+00  9.87333E-01  1.98490E-02
    9010.478     12.465   2.360  1.05062E+00  9.90066E-01  6.05590E-02
    9011.203     13.190   2.400  1.10759E+00  9.92525E-01  1.15068E-01
    9011.941     13.928   2.440  1.16349E+00  9.94700E-01  1.68793E-01
    9012.690     14.678   2.480  1.19930E+00  9.96595E-01  2.02705E-01
    9013.452     15.440   2.520  1.19353E+00  9.98240E-01  1.95293E-01
    9014.227     16.214   2.560  1.13400E+00  9.99662E-01  1.34338E-01
    9015.013     17.000   2.600  1.05801E+00  1.00085E+00  5.71606E-02
    9015.812     17.799   2.640  9.85563E-01  1.00182E+00 -1.62604E-02
    9016.622     18.610   2.680  9.24824E-01  1.00260E+00 -7.77745E-02
    9017.445     19.433   2.720  8.78816E-01  1.00320E+00 -1.24384E-01
    9018.280     20.268   2.760  8.47094E-01  1.00364E+00 -1.56542E-01
    9019.128     21.115   2.800  8.27564E-01  1.00391E+00 -1.76348E-01
    9019.987     21.975   2.840  8.18470E-01  1.00406E+00 -1.85587E-01
    9020.859     22.846   2.880  8.16898E-01  1.00407E+00 -1.87175E-01
    9021.743     23.730   2.920  8.20646E-01  1.00397E+00 -1.83325E-01
    9022.639     24.627   2.960  8.27956E-01  1.00375E+00 -1.75798E-01
    9023.547     25.535   3.000  8.37120E-01  1.00347E+00 -1.66351E-01
    9024.468     26.455   3.040  8.46726E-01  1.00308E+00 -1.56358E-01
    9025.400     27.388   3.080  8.56043E-01  1.00264E+00 -1.46598E-01
    9026.345     28.333   3.120  8.65110E-01  1.00213E+00 -1.37017E-01
    9027.302     29.290   3.160  8.74043E-01  1.00159E+00 -1.27545E-01
    9028.272     30.259   3.200  8.83024E-01  1.00099E+00 -1.17963E-01
    9029.253     31.241   3.240  8.92260E-01  1.00037E+00 -1.08108E-01
    9030.247     32.234   3.280  9.01840E-01  9.99716E-01 -9.78759E-02
    9031.253     33.240   3.320  9.11932E-01  9.99053E-01 -8.71210E-02
    9032.271     34.258   3.360  9.22819E-01  9.98363E-01 -7.55444E-02
    9033.301     35.288   3.400  9.35016E-01  9.97690E-01 -6.26742E-02
    9034.343     36.331   3.440  9.48835E-01  9.96997E-01 -4.81628E-02
    9035.398     37.385   3.480  9.64750E-01  9.96329E-01 -3.15788E-02
    9036.465     38.452   3.520  9.82781E-01  9.95665E-01 -1.28839E-02
    9037.544     39.531   3.560  1.00235E+00  9.95030E-01  7.32498E-03
    9038.635     40.622   3.600  1.02218E+00  9.94405E-01  2.77786E-02
    9039.738     41.726   3.640  1.04043E+00  9.93813E-01  4.66151E-02
    9040.854     42.841   3.680  1.05489E+00  9.93256E-01  6.16357E-02
    9041.982     43.969   3.720  1.06387E+00  9.92733E-01  7.11390E-02
    9043.121     45.109   3.760  1.06686E+00  9.92225E-01  7.46329E-02
    9044.274     46.261   3.800  1.06472E+00  9.91755E-01  7.29637E-02
    9045.438     47.425   3.840  1.05915E+00  9.91346E-01  6.78064E-02
    9046.614     48.602   3.880  1.05192E+00  9.90955E-01  6.09676E-02
    9047.803     49.791   3.920  1.04427E+00  9.90624E-01  5.36467E-02
    9049.004     50.992   3.960  1.03679E+00  9.90313E-01  4.64759E-02
    9050.217     52.205   4.000  1.02986E+00  9.90063E-01  3.98023E-02
    9051.442     53.430   4.040  1.02374E+00  9.89832E-01  3.39123E-02
    9052.680     54.667   4.080  1.01878E+00  9.89665E-01  2.91127E-02
    9053.930     55.917   4.120  1.01522E+00  9.89538E-01  2.56835E-02
    9055.192     57.179   4.160  1.01325E+00  9.89452E-01  2.37933E-02
    9056.466     58.453   4.200  1.01261E+00  9.89407E-01  2.32047E-02
    9057.752     59.739   4.240  1.01270E+00  9.89400E-01  2.32964E-02
    9059.050     61.038   4.280  1.01280E+00  9.89433E-01  2.33643E-02
    9060.361     62.348   4.320  1.01239E+00  9.89504E-01  2.28867E-02
    9061.684     63.671   4.360  1.01126E+00  9.89612E-01  2.16507E-02
    9063.019     65.006   4.400  1.00958E+00  9.89735E-01  1.98405E-02
    9064.366     66.353   4.440  1.00803E+00  9.89916E-01  1.81102E-02
    9065.725     67.713   4.480  1.00732E+00  9.90111E-01  1.72122E-02
    9067.097     69.084   4.520  1.00804E+00  9.90339E-01  1.77024E-02
    9068.481     70.468   4.560  1.01040E+00  9.90602E-01  1.98021E-02
    9069.877     71.864   4.600  1.01429E+00  9.90875E-01  2.34187E-02
    9071.285     73.272   4.640  1.01925E+00  9.91179E-01  2.80739E-02
    9072.705     74.693   4.680  1.02430E+00  9.91490E-01  3.28054E-02
    9074.138     76.125   4.720  1.02814E+00  9.91830E-01  3.63137E-02
    9075.583     77.570   4.760  1.02967E+00  9.92177E-01  3.74896E-02
    9077.039     79.027   4.800  1.02838E+00  9.92528E-01  3.58572E-02
    9078.509     80.496   4.840  1.02452E+00  9.92904E-01  3.16129E-02
    9079.990     81.977   4.880  1.01870E+00  9.93283E-01  2.54189E-02
    9081.483     83.471   4.920  1.01175E+00  9.93661E-01  1.80872E-02
    9082.989     84.977   4.960  1.00429E+00  9.94017E-01  1.02752E-02
    9084.507     86.495   5.000  9.96725E-01  9.94393E-01  2.33169E-03
    9086.037     88.025   5.040  9.89066E-01  9.94767E-01 -5.70042E-03
    9087.579     89.567   5.080  9.81254E-01  9.95115E-01 -1.38607E-02
    9089.134     91.121   5.120  9.73463E-01  9.95480E-01 -2.20172E-02
    9090.701     92.688   5.160  9.65982E-01  9.95817E-01 -2.98347E-02
    9092.279     94.267   5.200  9.59276E-01  9.96122E-01 -3.68460E-02
    9093.870     95.858   5.240  9.53730E-01  9.96420E-01 -4.26897E-02
    9095.474     97.461   5.280  9.49497E-01  9.96709E-01 -4.72119E-02
    9097.089     99.077   5.320  9.46527E-01  9.96967E-01 -5.04397E-02
    9098.717    100.704   5.360  9.44712E-01  9.97214E-01 -5.25020E-02
    9100.357    102.344   5.400  9.43905E-01  9.97426E-01 -5.35216E-02
    9102.009    103.996   5.440  9.44163E-01  9.97605E-01 -5.34424E-02
    9103.673    105.660   5.480  9.45794E-01  9.97771E-01 -5.19761E-02
    9105.349    107.337   5.520  9.49167E-01  9.97900E-01 -4.87333E-02
    9107.038    109.025   5.560  9.54559E-01  9.97995E-01 -4.34359E-02
    9108.739    110.726   5.600  9.61982E-01  9.98074E-01 -3.60914E-02
    9110.452    112.439   5.640  9.71019E-01  9.98093E-01 -2.70735E-02
    9112.177    114.164   5.680  9.81011E-01  9.98098E-01 -1.70873E-02
    9113.914    115.902   5.720  9.91030E-01  9.98069E-01 -7.03844E-03
    9115.664    117.651   5.760  1.00020E+00  9.98025E-01  2.17268E-03
    9117.425    119.413   5.800  1.00769E+00  9.97918E-01  9.77082E-03
    9119.199    121.187   5.840  1.01288E+00  9.97775E-01  1.51051E-02
    9120.985    122.973   5.880  1.01535E+00  9.97620E-01  1.77261E-02
    9122.784    124.771   5.920  1.01497E+00  9.97430E-01  1.75425E-02
    9124.594    126.582   5.960  1.01210E+00  9.97205E-01  1.48952E-02
    9126.417    128.404   6.000  1.00733E+00  9.96921E-01  1.04072E-02
