# # comment:                                                     FEFF 9.9.1  
# # Source:
# # Structure
# # Reduced
# # space
# # abc:
# # angles:
# # sites:
# # POT  SCF 100  7.0000   0, screened core-hole, AFOLP (folp(0)= 1.150)
# # Abs   Z=29 Rmt= 1.254 Rnm= 1.327 K  shell
# # Pot 1 Z= 3 Rmt= 1.477 Rnm= 1.557
# # Pot 2 Z=29 Rmt= 1.322 Rnm= 1.380
# # Pot 3 Z=15 Rmt= 0.944 Rnm= 1.156
# # Pot 4 Z= 8 Rmt= 0.869 Rnm= 1.036
# # Gam_ch=1.729E+00 H-L exch Vi= 0.000E+00 Vr= 0.000E+00
# # Mu=-6.242E+00eV kf=2.448E+00 Vint=-1.676E+01eV Rs_int= 1.482
# FMS rfms= 9.0000
# # PATH  Rmax=-1.000,  Keep_limit= 0.00, Heap_limit 0.00  Pwcrit= 2.50%
#  S02=0.950  Temp=   0.00  Debye_temp=   0.00  Global_sig2= 0.00000
#  Energy zero shift, vr, vi    0.00000E+00   0.00000E+00
#  Curved wave amplitude ratio filter   4.000%
#     file         sig2 tot  cw amp ratio   deg  nlegs   reff  inp sig2
#     0/   0 paths used
#  xsedge+ 50, used to normalize mu           2.4736E-04
#  -----------------------------------------------------------------------
#  omega    e    k    mu    mu0     chi     @#
    8983.328    -10.052  -1.000  3.93259E-02  5.44994E-02 -1.51735E-02
    8983.626     -9.753  -0.960  4.13197E-02  5.85120E-02 -1.71923E-02
    8983.913     -9.466  -0.920  4.34464E-02  6.29774E-02 -1.95310E-02
    8984.187     -9.192  -0.880  4.57172E-02  6.79629E-02 -2.22457E-02
    8984.449     -8.930  -0.840  4.81444E-02  7.35471E-02 -2.54027E-02
    8984.699     -8.680  -0.800  5.07414E-02  7.98211E-02 -2.90797E-02
    8984.937     -8.442  -0.760  5.35227E-02  8.68894E-02 -3.33667E-02
    8985.163     -8.217  -0.720  5.65036E-02  9.48706E-02 -3.83670E-02
    8985.376     -8.003  -0.680  5.96996E-02  1.03895E-01 -4.41956E-02
    8985.577     -7.802  -0.640  6.31256E-02  1.14101E-01 -5.09756E-02
    8985.766     -7.613  -0.600  6.67939E-02  1.25624E-01 -5.88302E-02
    8985.943     -7.437  -0.560  7.07120E-02  1.38580E-01 -6.78684E-02
    8986.107     -7.272  -0.520  7.48781E-02  1.53039E-01 -7.81614E-02
    8986.260     -7.120  -0.480  7.92762E-02  1.68987E-01 -8.97112E-02
    8986.400     -6.979  -0.440  8.38697E-02  1.86283E-01 -1.02414E-01
    8986.528     -6.851  -0.400  8.85971E-02  2.04625E-01 -1.16028E-01
    8986.644     -6.735  -0.360  9.33690E-02  2.23533E-01 -1.30164E-01
    8986.748     -6.632  -0.320  9.80727E-02  2.42390E-01 -1.44317E-01
    8986.839     -6.540  -0.280  1.02581E-01  2.60507E-01 -1.57926E-01
    8986.918     -6.461  -0.240  1.06765E-01  2.77223E-01 -1.70457E-01
    8986.985     -6.394  -0.200  1.10507E-01  2.91987E-01 -1.81480E-01
    8987.040     -6.339  -0.160  1.13707E-01  3.04399E-01 -1.90693E-01
    8987.083     -6.297  -0.120  1.16284E-01  3.14205E-01 -1.97921E-01
    8987.113     -6.266  -0.080  1.18180E-01  3.21264E-01 -2.03084E-01
    8987.138     -6.242   0.000  1.19759E-01  3.26933E-01 -2.07174E-01
    8987.193     -6.187   0.120  1.23308E-01  3.39705E-01 -2.16397E-01
    8987.235     -6.144   0.160  1.26078E-01  3.49632E-01 -2.23554E-01
    8987.290     -6.089   0.200  1.29662E-01  3.62285E-01 -2.32623E-01
    8987.357     -6.022   0.240  1.34130E-01  3.77480E-01 -2.43350E-01
    8987.436     -5.943   0.280  1.39488E-01  3.94872E-01 -2.55385E-01
    8987.528     -5.852   0.320  1.45827E-01  4.14037E-01 -2.68210E-01
    8987.631     -5.748   0.360  1.53178E-01  4.34355E-01 -2.81177E-01
    8987.747     -5.632   0.400  1.61610E-01  4.55215E-01 -2.93605E-01
    8987.875     -5.504   0.440  1.71193E-01  4.76058E-01 -3.04865E-01
    8988.016     -5.364   0.480  1.81972E-01  4.96433E-01 -3.14461E-01
    8988.168     -5.211   0.520  1.93891E-01  5.16067E-01 -3.22176E-01
    8988.333     -5.047   0.560  2.06836E-01  5.34834E-01 -3.27998E-01
    8988.509     -4.870   0.600  2.20707E-01  5.52683E-01 -3.31976E-01
    8988.698     -4.681   0.640  2.35897E-01  5.69719E-01 -3.33822E-01
    8988.899     -4.480   0.680  2.53271E-01  5.85984E-01 -3.32713E-01
    8989.113     -4.267   0.720  2.74115E-01  6.01596E-01 -3.27481E-01
    8989.338     -4.041   0.760  2.99351E-01  6.16674E-01 -3.17323E-01
    8989.576     -3.803   0.800  3.29044E-01  6.31307E-01 -3.02263E-01
    8989.826     -3.553   0.840  3.62574E-01  6.45569E-01 -2.82995E-01
    8990.088     -3.291   0.880  3.99071E-01  6.59541E-01 -2.60470E-01
    8990.362     -3.017   0.920  4.37709E-01  6.73270E-01 -2.35562E-01
    8990.649     -2.730   0.960  4.77188E-01  6.86771E-01 -2.09583E-01
    8990.948     -2.432   1.000  5.14427E-01  7.00085E-01 -1.85658E-01
    8991.259     -2.121   1.040  5.44576E-01  7.13248E-01 -1.68672E-01
    8991.582     -1.798   1.080  5.65607E-01  7.26243E-01 -1.60636E-01
    8991.917     -1.462   1.120  5.81526E-01  7.39068E-01 -1.57541E-01
    8992.264     -1.115   1.160  5.98534E-01  7.51737E-01 -1.53203E-01
    8992.624     -0.755   1.200  6.21584E-01  7.64241E-01 -1.42657E-01
    8992.996     -0.383   1.240  6.54450E-01  7.76561E-01 -1.22111E-01
    8993.380      0.001   1.280  7.00202E-01  7.88681E-01 -8.84790E-02
    8993.776      0.397   1.320  7.59322E-01  8.00580E-01 -4.12581E-02
    8994.185      0.805   1.360  8.25890E-01  8.12277E-01  1.36132E-02
    8994.605      1.226   1.400  8.94382E-01  8.23687E-01  7.06952E-02
    8995.038      1.659   1.440  9.69724E-01  8.34866E-01  1.34858E-01
    8995.483      2.104   1.480  1.04992E+00  8.45730E-01  2.04192E-01
    8995.940      2.561   1.520  1.11675E+00  8.56313E-01  2.60437E-01
    8996.410      3.030   1.560  1.16344E+00  8.66549E-01  2.96895E-01
    8996.891      3.512   1.600  1.19729E+00  8.76474E-01  3.20815E-01
    8997.385      4.006   1.640  1.21443E+00  8.86043E-01  3.28385E-01
    8997.891      4.512   1.680  1.20517E+00  8.95253E-01  3.09919E-01
    8998.409      5.030   1.720  1.17301E+00  9.04079E-01  2.68932E-01
    8998.939      5.560   1.760  1.12861E+00  9.12539E-01  2.16076E-01
    8999.482      6.103   1.800  1.08491E+00  9.20608E-01  1.64306E-01
    9000.037      6.657   1.840  1.05685E+00  9.28267E-01  1.28587E-01
    9000.604      7.224   1.880  1.04827E+00  9.35535E-01  1.12737E-01
    9001.183      7.803   1.920  1.04732E+00  9.42412E-01  1.04911E-01
    9001.774      8.395   1.960  1.04134E+00  9.48880E-01  9.24603E-02
    9002.378      8.998   2.000  1.03202E+00  9.54959E-01  7.70628E-02
    9002.993      9.614   2.040  1.03090E+00  9.60632E-01  7.02706E-02
    9003.621     10.242   2.080  1.04267E+00  9.65942E-01  7.67274E-02
    9004.261     10.882   2.120  1.06260E+00  9.70854E-01  9.17431E-02
    9004.914     11.534   2.160  1.08441E+00  9.75391E-01  1.09017E-01
    9005.578     12.199   2.200  1.10711E+00  9.79556E-01  1.27553E-01
    9006.255     12.875   2.240  1.13379E+00  9.83359E-01  1.50433E-01
    9006.944     13.564   2.280  1.16314E+00  9.86843E-01  1.76299E-01
    9007.645     14.265   2.320  1.18200E+00  9.89974E-01  1.92029E-01
    9008.358     14.978   2.360  1.17972E+00  9.92801E-01  1.86916E-01
    9009.083     15.704   2.400  1.16192E+00  9.95308E-01  1.66615E-01
    9009.821     16.441   2.440  1.14023E+00  9.97524E-01  1.42710E-01
    9010.571     17.191   2.480  1.12130E+00  9.99455E-01  1.21840E-01
    9011.333     17.953   2.520  1.10749E+00  1.00113E+00  1.06356E-01
    9012.107     18.727   2.560  1.09898E+00  1.00256E+00  9.64177E-02
    9012.893     19.514   2.600  1.09385E+00  1.00374E+00  9.01053E-02
    9013.692     20.312   2.640  1.08878E+00  1.00471E+00  8.40688E-02
    9014.503     21.123   2.680  1.07910E+00  1.00546E+00  7.36473E-02
    9015.325     21.946   2.720  1.06176E+00  1.00604E+00  5.57242E-02
    9016.161     22.781   2.760  1.04221E+00  1.00641E+00  3.57981E-02
    9017.008     23.629   2.800  1.02500E+00  1.00664E+00  1.83571E-02
    9017.867     24.488   2.840  1.00536E+00  1.00673E+00 -1.37816E-03
    9018.739     25.360   2.880  9.81391E-01  1.00668E+00 -2.52851E-02
    9019.623     26.244   2.920  9.56525E-01  1.00649E+00 -4.99666E-02
    9020.519     27.140   2.960  9.32959E-01  1.00619E+00 -7.32315E-02
    9021.428     28.048   3.000  9.12525E-01  1.00580E+00 -9.32719E-02
    9022.348     28.969   3.040  8.96626E-01  1.00532E+00 -1.08692E-01
    9023.281     29.901   3.080  8.85895E-01  1.00476E+00 -1.18864E-01
    9024.226     30.846   3.120  8.79884E-01  1.00415E+00 -1.24262E-01
    9025.183     31.803   3.160  8.77689E-01  1.00346E+00 -1.25775E-01
    9026.152     32.773   3.200  8.77765E-01  1.00274E+00 -1.24971E-01
    9027.133     33.754   3.240  8.79116E-01  1.00197E+00 -1.22851E-01
    9028.127     34.748   3.280  8.81263E-01  1.00118E+00 -1.19921E-01
    9029.133     35.753   3.320  8.83864E-01  1.00037E+00 -1.16506E-01
    9030.151     36.772   3.360  8.86894E-01  9.99549E-01 -1.12655E-01
    9031.181     37.802   3.400  8.90456E-01  9.98724E-01 -1.08268E-01
    9032.224     38.844   3.440  8.94458E-01  9.97898E-01 -1.03440E-01
    9033.278     39.899   3.480  8.98685E-01  9.97075E-01 -9.83908E-02
    9034.345     40.966   3.520  9.03173E-01  9.96279E-01 -9.31055E-02
    9035.424     42.045   3.560  9.08184E-01  9.95490E-01 -8.73056E-02
    9036.515     43.136   3.600  9.14202E-01  9.94710E-01 -8.05080E-02
    9037.618     44.239   3.640  9.21804E-01  9.93983E-01 -7.21798E-02
    9038.734     45.355   3.680  9.31256E-01  9.93271E-01 -6.20152E-02
    9039.862     46.482   3.720  9.42500E-01  9.92596E-01 -5.00959E-02
    9041.002     47.622   3.760  9.55128E-01  9.91959E-01 -3.68314E-02
    9042.154     48.774   3.800  9.68686E-01  9.91360E-01 -2.26742E-02
    9043.318     49.939   3.840  9.82663E-01  9.90801E-01 -8.13770E-03
    9044.495     51.115   3.880  9.96581E-01  9.90282E-01  6.29887E-03
    9045.683     52.304   3.920  1.01005E+00  9.89807E-01  2.02410E-02
    9046.884     53.505   3.960  1.02272E+00  9.89397E-01  3.33221E-02
    9048.097     54.718   4.000  1.03414E+00  9.89030E-01  4.51109E-02
    9049.323     55.943   4.040  1.04395E+00  9.88705E-01  5.52449E-02
    9050.560     57.181   4.080  1.05189E+00  9.88423E-01  6.34643E-02
    9051.810     58.431   4.120  1.05783E+00  9.88184E-01  6.96490E-02
    9053.072     59.692   4.160  1.06179E+00  9.88011E-01  7.37776E-02
    9054.346     60.966   4.200  1.06382E+00  9.87881E-01  7.59373E-02
    9055.632     62.253   4.240  1.06398E+00  9.87792E-01  7.61848E-02
    9056.931     63.551   4.280  1.06231E+00  9.87745E-01  7.45631E-02
    9058.241     64.862   4.320  1.05902E+00  9.87739E-01  7.12808E-02
    9059.564     66.185   4.360  1.05445E+00  9.87775E-01  6.66760E-02
    9060.899     67.520   4.400  1.04905E+00  9.87872E-01  6.11822E-02
    9062.246     68.867   4.440  1.04327E+00  9.87986E-01  5.52871E-02
    9063.606     70.226   4.480  1.03755E+00  9.88139E-01  4.94082E-02
    9064.977     71.598   4.520  1.03219E+00  9.88351E-01  4.38387E-02
    9066.361     72.982   4.560  1.02739E+00  9.88556E-01  3.88299E-02
    9067.757     74.378   4.600  1.02341E+00  9.88818E-01  3.45944E-02
    9069.165     75.786   4.640  1.02030E+00  9.89114E-01  3.11839E-02
    9070.585     77.206   4.680  1.01790E+00  9.89419E-01  2.84775E-02
    9072.018     78.639   4.720  1.01597E+00  9.89734E-01  2.62360E-02
    9073.463     80.083   4.760  1.01420E+00  9.90079E-01  2.41178E-02
    9074.920     81.540   4.800  1.01229E+00  9.90454E-01  2.18345E-02
    9076.389     83.009   4.840  1.00997E+00  9.90835E-01  1.91395E-02
    9077.870     84.491   4.880  1.00701E+00  9.91219E-01  1.57878E-02
    9079.364     85.984   4.920  1.00323E+00  9.91605E-01  1.16232E-02
    9080.869     87.490   4.960  9.98683E-01  9.92014E-01  6.66915E-03
    9082.387     89.008   5.000  9.93617E-01  9.92402E-01  1.21528E-03
    9083.917     90.538   5.040  9.88528E-01  9.92788E-01 -4.25943E-03
    9085.460     92.080   5.080  9.83868E-01  9.93194E-01 -9.32603E-03
    9087.014     93.635   5.120  9.79794E-01  9.93575E-01 -1.37807E-02
    9088.581     95.201   5.160  9.76169E-01  9.93949E-01 -1.77803E-02
    9090.160     96.780   5.200  9.72530E-01  9.94296E-01 -2.17662E-02
    9091.751     98.371   5.240  9.68388E-01  9.94656E-01 -2.62686E-02
    9093.354     99.975   5.280  9.63343E-01  9.94965E-01 -3.16220E-02
    9094.969    101.590   5.320  9.57554E-01  9.95285E-01 -3.77315E-02
    9096.597    103.218   5.360  9.51511E-01  9.95553E-01 -4.40423E-02
    9098.237    104.857   5.400  9.46174E-01  9.95830E-01 -4.96558E-02
    9099.889    106.509   5.440  9.42372E-01  9.96051E-01 -5.36787E-02
    9101.553    108.174   5.480  9.40720E-01  9.96258E-01 -5.55379E-02
    9103.229    109.850   5.520  9.41323E-01  9.96427E-01 -5.51043E-02
    9104.918    111.539   5.560  9.43969E-01  9.96559E-01 -5.25897E-02
    9106.619    113.239   5.600  9.48204E-01  9.96654E-01 -4.84496E-02
    9108.332    114.952   5.640  9.53372E-01  9.96732E-01 -4.33597E-02
    9110.057    116.678   5.680  9.58638E-01  9.96750E-01 -3.81126E-02
    9111.794    118.415   5.720  9.63347E-01  9.96753E-01 -3.34063E-02
    9113.544    120.164   5.760  9.67150E-01  9.96717E-01 -2.95669E-02
    9115.306    121.926   5.800  9.70246E-01  9.96618E-01 -2.63712E-02
    9117.079    123.700   5.840  9.73325E-01  9.96504E-01 -2.31791E-02
    9118.866    125.486   5.880  9.77071E-01  9.96355E-01 -1.92836E-02
    9120.664    127.285   5.920  9.81883E-01  9.96168E-01 -1.42847E-02
    9122.474    129.095   5.960  9.87733E-01  9.95943E-01 -8.20990E-03
    9124.297    130.918   6.000  9.94401E-01  9.95684E-01 -1.28355E-03
