# # comment:                                                     FEFF 9.9.1  
# # Source:
# # Structure
# # Reduced
# # space
# # abc:
# # angles:
# # sites:
# # POT  SCF 100  7.0000   0, screened core-hole, AFOLP (folp(0)= 1.150)
# # Abs   Z=29 Rmt= 1.173 Rnm= 1.247 K  shell
# # Pot 1 Z= 3 Rmt= 1.301 Rnm= 1.352
# # Pot 2 Z=26 Rmt= 1.324 Rnm= 1.417
# # Pot 3 Z=29 Rmt= 1.174 Rnm= 1.247
# # Pot 4 Z= 8 Rmt= 1.052 Rnm= 1.110
# # Gam_ch=1.729E+00 H-L exch Vi= 0.000E+00 Vr= 0.000E+00
# # Mu=-1.099E+01eV kf=2.113E+00 Vint=-1.741E+01eV Rs_int= 1.716
# FMS rfms= 9.0000
# # PATH  Rmax=-1.000,  Keep_limit= 0.00, Heap_limit 0.00  Pwcrit= 2.50%
#  S02=0.950  Temp=   0.00  Debye_temp=   0.00  Global_sig2= 0.00000
#  Energy zero shift, vr, vi    0.00000E+00   0.00000E+00
#  Curved wave amplitude ratio filter   4.000%
#     file         sig2 tot  cw amp ratio   deg  nlegs   reff  inp sig2
#     0/   0 paths used
#  xsedge+ 50, used to normalize mu           2.4479E-04
#  -----------------------------------------------------------------------
#  omega    e    k    mu    mu0     chi     @#
    8984.958    -14.798  -1.000  2.74865E-02  5.05495E-02 -2.30629E-02
    8985.256    -14.499  -0.960  2.85801E-02  5.40376E-02 -2.54576E-02
    8985.543    -14.212  -0.920  2.97454E-02  5.78943E-02 -2.81489E-02
    8985.817    -13.938  -0.880  3.09930E-02  6.21718E-02 -3.11788E-02
    8986.079    -13.676  -0.840  3.23354E-02  6.69306E-02 -3.45952E-02
    8986.329    -13.426  -0.800  3.37879E-02  7.22407E-02 -3.84527E-02
    8986.567    -13.188  -0.760  3.53689E-02  7.81820E-02 -4.28131E-02
    8986.793    -12.963  -0.720  3.70997E-02  8.48446E-02 -4.77448E-02
    8987.006    -12.749  -0.680  3.90052E-02  9.23271E-02 -5.33220E-02
    8987.207    -12.548  -0.640  4.11120E-02  1.00733E-01 -5.96213E-02
    8987.396    -12.359  -0.600  4.34473E-02  1.10164E-01 -6.67172E-02
    8987.573    -12.182  -0.560  4.60341E-02  1.20706E-01 -7.46721E-02
    8987.737    -12.018  -0.520  4.88849E-02  1.32408E-01 -8.35227E-02
    8987.890    -11.865  -0.480  5.19924E-02  1.45254E-01 -9.32615E-02
    8988.030    -11.725  -0.440  5.53192E-02  1.59133E-01 -1.03814E-01
    8988.158    -11.597  -0.400  5.87891E-02  1.73810E-01 -1.15021E-01
    8988.274    -11.481  -0.360  6.22883E-02  1.88916E-01 -1.26627E-01
    8988.378    -11.378  -0.320  6.56771E-02  2.03970E-01 -1.38293E-01
    8988.469    -11.286  -0.280  6.88146E-02  2.18440E-01 -1.49625E-01
    8988.548    -11.207  -0.240  7.15855E-02  2.31810E-01 -1.60224E-01
    8988.615    -11.140  -0.200  7.39178E-02  2.43642E-01 -1.69724E-01
    8988.670    -11.085  -0.160  7.57856E-02  2.53613E-01 -1.77828E-01
    8988.713    -11.043  -0.120  7.71968E-02  2.61510E-01 -1.84313E-01
    8988.743    -11.012  -0.080  7.81749E-02  2.67208E-01 -1.89033E-01
    8988.768    -10.988   0.000  7.89275E-02  2.71793E-01 -1.92866E-01
    8988.823    -10.933   0.120  8.06094E-02  2.82160E-01 -2.01551E-01
    8988.865    -10.890   0.160  8.18104E-02  2.90221E-01 -2.08410E-01
    8988.920    -10.835   0.200  8.32682E-02  3.00578E-01 -2.17310E-01
    8988.987    -10.768   0.240  8.47997E-02  3.13063E-01 -2.28264E-01
    8989.066    -10.689   0.280  8.63417E-02  3.27533E-01 -2.41191E-01
    8989.158    -10.597   0.320  8.77383E-02  3.43617E-01 -2.55878E-01
    8989.261    -10.494   0.360  8.89442E-02  3.60966E-01 -2.72022E-01
    8989.377    -10.378   0.400  8.99353E-02  3.79121E-01 -2.89185E-01
    8989.505    -10.250   0.440  9.08425E-02  3.97718E-01 -3.06875E-01
    8989.645    -10.110   0.480  9.18639E-02  4.16438E-01 -3.24575E-01
    8989.798     -9.957   0.520  9.31357E-02  4.35093E-01 -3.41957E-01
    8989.962     -9.793   0.560  9.47123E-02  4.53573E-01 -3.58861E-01
    8990.139     -9.616   0.600  9.64488E-02  4.71869E-01 -3.75420E-01
    8990.328     -9.427   0.640  9.80626E-02  4.90001E-01 -3.91938E-01
    8990.529     -9.226   0.680  9.93744E-02  5.07994E-01 -4.08619E-01
    8990.743     -9.013   0.720  1.00661E-01  5.25963E-01 -4.25303E-01
    8990.968     -8.787   0.760  1.02459E-01  5.43900E-01 -4.41440E-01
    8991.206     -8.549   0.800  1.05470E-01  5.61886E-01 -4.56416E-01
    8991.456     -8.299   0.840  1.10238E-01  5.79912E-01 -4.69675E-01
    8991.718     -8.037   0.880  1.17321E-01  5.98040E-01 -4.80719E-01
    8991.992     -7.763   0.920  1.27043E-01  6.16235E-01 -4.89191E-01
    8992.279     -7.476   0.960  1.39202E-01  6.34474E-01 -4.95272E-01
    8992.578     -7.178   1.000  1.52539E-01  6.52788E-01 -5.00249E-01
    8992.889     -6.867   1.040  1.65192E-01  6.71096E-01 -5.05903E-01
    8993.212     -6.544   1.080  1.75956E-01  6.89371E-01 -5.13416E-01
    8993.547     -6.208   1.120  1.84542E-01  7.07564E-01 -5.23022E-01
    8993.894     -5.861   1.160  1.92358E-01  7.25660E-01 -5.33302E-01
    8994.254     -5.501   1.200  2.02759E-01  7.43579E-01 -5.40819E-01
    8994.626     -5.129   1.240  2.19954E-01  7.61260E-01 -5.41306E-01
    8995.010     -4.745   1.280  2.46256E-01  7.78663E-01 -5.32406E-01
    8995.406     -4.349   1.320  2.78306E-01  7.95724E-01 -5.17418E-01
    8995.815     -3.941   1.360  3.08852E-01  8.12421E-01 -5.03569E-01
    8996.235     -3.520   1.400  3.35543E-01  8.28650E-01 -4.93107E-01
    8996.668     -3.087   1.440  3.63985E-01  8.44411E-01 -4.80426E-01
    8997.113     -2.642   1.480  4.00240E-01  8.59645E-01 -4.59405E-01
    8997.570     -2.185   1.520  4.45534E-01  8.74312E-01 -4.28777E-01
    8998.040     -1.716   1.560  4.95125E-01  8.88356E-01 -3.93231E-01
    8998.521     -1.234   1.600  5.44520E-01  9.01764E-01 -3.57244E-01
    8999.015     -0.740   1.640  5.98041E-01  9.14524E-01 -3.16483E-01
    8999.521     -0.234   1.680  6.57444E-01  9.26607E-01 -2.69163E-01
    9000.039      0.284   1.720  7.25091E-01  9.37987E-01 -2.12896E-01
    9000.569      0.814   1.760  8.12846E-01  9.48659E-01 -1.35813E-01
    9001.112      1.357   1.800  9.37376E-01  9.58622E-01 -2.12464E-02
    9001.667      1.911   1.840  1.10057E+00  9.67898E-01  1.32671E-01
    9002.234      2.478   1.880  1.28406E+00  9.76448E-01  3.07608E-01
    9002.813      3.057   1.920  1.47368E+00  9.84296E-01  4.89389E-01
    9003.404      3.649   1.960  1.66587E+00  9.91471E-01  6.74394E-01
    9004.008      4.252   2.000  1.84445E+00  9.97981E-01  8.46466E-01
    9004.623      4.868   2.040  1.96180E+00  1.00383E+00  9.57963E-01
    9005.251      5.496   2.080  1.97539E+00  1.00907E+00  9.66325E-01
    9005.891      6.136   2.120  1.91494E+00  1.01368E+00  9.01259E-01
    9006.544      6.788   2.160  1.81160E+00  1.01773E+00  7.93872E-01
    9007.208      7.453   2.200  1.64328E+00  1.02122E+00  6.22058E-01
    9007.885      8.129   2.240  1.43583E+00  1.02421E+00  4.11620E-01
    9008.573      8.818   2.280  1.25571E+00  1.02669E+00  2.29026E-01
    9009.275      9.519   2.320  1.12308E+00  1.02870E+00  9.43782E-02
    9009.988     10.232   2.360  1.02691E+00  1.03030E+00 -3.38423E-03
    9010.713     10.958   2.400  9.59711E-01  1.03148E+00 -7.17724E-02
    9011.451     11.695   2.440  9.19136E-01  1.03230E+00 -1.13160E-01
    9012.201     12.445   2.480  9.03404E-01  1.03277E+00 -1.29369E-01
    9012.963     13.207   2.520  9.25547E-01  1.03293E+00 -1.07380E-01
    9013.737     13.981   2.560  9.82078E-01  1.03279E+00 -5.07138E-02
    9014.523     14.768   2.600  1.03664E+00  1.03240E+00  4.24057E-03
    9015.322     15.566   2.640  1.07572E+00  1.03177E+00  4.39449E-02
    9016.132     16.377   2.680  1.09788E+00  1.03093E+00  6.69442E-02
    9016.955     17.200   2.720  1.10662E+00  1.02992E+00  7.66976E-02
    9017.791     18.035   2.760  1.10471E+00  1.02874E+00  7.59730E-02
    9018.638     18.883   2.800  1.09409E+00  1.02741E+00  6.66771E-02
    9019.497     19.742   2.840  1.07711E+00  1.02597E+00  5.11360E-02
    9020.369     20.614   2.880  1.05496E+00  1.02443E+00  3.05383E-02
    9021.253     21.498   2.920  1.02887E+00  1.02279E+00  6.08033E-03
    9022.149     22.394   2.960  1.00055E+00  1.02109E+00 -2.05412E-02
    9023.058     23.302   3.000  9.71669E-01  1.01936E+00 -4.76882E-02
    9023.978     24.223   3.040  9.43530E-01  1.01759E+00 -7.40584E-02
    9024.911     25.155   3.080  9.17489E-01  1.01579E+00 -9.82983E-02
    9025.856     26.100   3.120  8.94001E-01  1.01398E+00 -1.19980E-01
    9026.813     27.057   3.160  8.73270E-01  1.01218E+00 -1.38909E-01
    9027.782     28.027   3.200  8.55917E-01  1.01040E+00 -1.54486E-01
    9028.763     29.008   3.240  8.42537E-01  1.00866E+00 -1.66122E-01
    9029.757     30.002   3.280  8.33316E-01  1.00693E+00 -1.73616E-01
    9030.763     31.008   3.320  8.28034E-01  1.00525E+00 -1.77212E-01
    9031.781     32.026   3.360  8.26205E-01  1.00363E+00 -1.77421E-01
    9032.811     33.056   3.400  8.26655E-01  1.00206E+00 -1.75400E-01
    9033.853     34.098   3.440  8.28675E-01  1.00056E+00 -1.71882E-01
    9034.908     35.153   3.480  8.32140E-01  9.99135E-01 -1.66995E-01
    9035.975     36.220   3.520  8.37348E-01  9.97770E-01 -1.60422E-01
    9037.054     37.299   3.560  8.44709E-01  9.96504E-01 -1.51796E-01
    9038.145     38.390   3.600  8.54520E-01  9.95300E-01 -1.40779E-01
    9039.248     39.493   3.640  8.66921E-01  9.94199E-01 -1.27278E-01
    9040.364     40.609   3.680  8.81744E-01  9.93182E-01 -1.11438E-01
    9041.492     41.736   3.720  8.98916E-01  9.92250E-01 -9.33347E-02
    9042.632     42.876   3.760  9.18510E-01  9.91404E-01 -7.28939E-02
    9043.784     44.029   3.800  9.40482E-01  9.90664E-01 -5.01822E-02
    9044.948     45.193   3.840  9.64589E-01  9.90011E-01 -2.54217E-02
    9046.125     46.369   3.880  9.90572E-01  9.89443E-01  1.12946E-03
    9047.313     47.558   3.920  1.01801E+00  9.88961E-01  2.90456E-02
    9048.514     48.759   3.960  1.04621E+00  9.88587E-01  5.76191E-02
    9049.727     49.972   4.000  1.07404E+00  9.88298E-01  8.57368E-02
    9050.953     51.197   4.040  1.09981E+00  9.88095E-01  1.11715E-01
    9052.190     52.435   4.080  1.12127E+00  9.87997E-01  1.33274E-01
    9053.440     53.685   4.120  1.13606E+00  9.87962E-01  1.48098E-01
    9054.702     54.946   4.160  1.14251E+00  9.88028E-01  1.54481E-01
    9055.976     56.220   4.200  1.14003E+00  9.88154E-01  1.51874E-01
    9057.262     57.507   4.240  1.12944E+00  9.88382E-01  1.41062E-01
    9058.560     58.805   4.280  1.11280E+00  9.88667E-01  1.24135E-01
    9059.871     60.116   4.320  1.09293E+00  9.89049E-01  1.03876E-01
    9061.194     61.439   4.360  1.07249E+00  9.89464E-01  8.30293E-02
    9062.529     62.774   4.400  1.05367E+00  9.89972E-01  6.36987E-02
    9063.876     64.121   4.440  1.03745E+00  9.90530E-01  4.69212E-02
    9065.236     65.480   4.480  1.02381E+00  9.91134E-01  3.26758E-02
    9066.607     66.852   4.520  1.01209E+00  9.91804E-01  2.02852E-02
    9067.991     68.236   4.560  1.00149E+00  9.92498E-01  8.98926E-03
    9069.387     69.632   4.600  9.91707E-01  9.93254E-01 -1.54767E-03
    9070.795     71.040   4.640  9.82998E-01  9.94051E-01 -1.10533E-02
    9072.215     72.460   4.680  9.76131E-01  9.94884E-01 -1.87531E-02
    9073.648     73.893   4.720  9.71896E-01  9.95729E-01 -2.38335E-02
    9075.093     75.337   4.760  9.70926E-01  9.96606E-01 -2.56797E-02
    9076.550     76.794   4.800  9.73455E-01  9.97492E-01 -2.40368E-02
    9078.019     78.264   4.840  9.79296E-01  9.98405E-01 -1.91086E-02
    9079.500     79.745   4.880  9.87763E-01  9.99321E-01 -1.15583E-02
    9080.994     81.238   4.920  9.97903E-01  1.00024E+00 -2.33497E-03
    9082.499     82.744   4.960  1.00878E+00  1.00115E+00  7.62592E-03
    9084.017     84.262   5.000  1.01967E+00  1.00204E+00  1.76287E-02
    9085.547     85.792   5.040  1.02997E+00  1.00295E+00  2.70198E-02
    9087.090     87.334   5.080  1.03866E+00  1.00383E+00  3.48358E-02
    9088.644     88.889   5.120  1.04454E+00  1.00469E+00  3.98497E-02
    9090.211     90.455   5.160  1.04668E+00  1.00553E+00  4.11483E-02
    9091.790     92.034   5.200  1.04504E+00  1.00633E+00  3.87155E-02
    9093.381     93.625   5.240  1.04052E+00  1.00711E+00  3.34089E-02
    9094.984     95.229   5.280  1.03430E+00  1.00785E+00  2.64461E-02
    9096.599     96.844   5.320  1.02739E+00  1.00853E+00  1.88547E-02
    9098.227     98.472   5.360  1.02051E+00  1.00919E+00  1.13216E-02
    9099.867    100.111   5.400  1.01396E+00  1.00978E+00  4.17512E-03
    9101.519    101.764   5.440  1.00781E+00  1.01035E+00 -2.54229E-03
    9103.183    103.428   5.480  1.00183E+00  1.01083E+00 -9.00219E-03
    9104.859    105.104   5.520  9.95765E-01  1.01128E+00 -1.55193E-02
    9106.548    106.793   5.560  9.89072E-01  1.01167E+00 -2.25950E-02
    9108.249    108.493   5.600  9.81216E-01  1.01200E+00 -3.07841E-02
    9109.962    110.206   5.640  9.71807E-01  1.01226E+00 -4.04537E-02
    9111.687    111.932   5.680  9.60875E-01  1.01247E+00 -5.15961E-02
    9113.424    113.669   5.720  9.48831E-01  1.01261E+00 -6.37760E-02
    9115.174    115.418   5.760  9.36624E-01  1.01267E+00 -7.60431E-02
    9116.936    117.180   5.800  9.25674E-01  1.01268E+00 -8.70036E-02
    9118.709    118.954   5.840  9.17527E-01  1.01262E+00 -9.50890E-02
    9120.496    120.740   5.880  9.13595E-01  1.01250E+00 -9.89099E-02
    9122.294    122.539   5.920  9.14799E-01  1.01232E+00 -9.75215E-02
    9124.104    124.349   5.960  9.21478E-01  1.01208E+00 -9.06026E-02
    9125.927    126.172   6.000  9.33731E-01  1.01172E+00 -7.79849E-02
