# # comment:                                                     FEFF 9.9.1  
# # Source:
# # Structure
# # Reduced
# # space
# # abc:
# # angles:
# # sites:
# # POT  SCF 100  7.0000   0, screened core-hole, AFOLP (folp(0)= 1.150)
# # Abs   Z=29 Rmt= 1.212 Rnm= 1.305 K  shell
# # Pot 1 Z= 3 Rmt= 1.317 Rnm= 1.373
# # Pot 2 Z=29 Rmt= 1.187 Rnm= 1.292
# # Pot 3 Z= 8 Rmt= 1.049 Rnm= 1.112
# # Gam_ch=1.729E+00 H-L exch Vi= 0.000E+00 Vr= 0.000E+00
# # Mu=-7.420E+00eV kf=2.134E+00 Vint=-1.574E+01eV Rs_int= 1.699
# FMS rfms= 9.0000
# # PATH  Rmax=-1.000,  Keep_limit= 0.00, Heap_limit 0.00  Pwcrit= 2.50%
#  S02=0.950  Temp=   0.00  Debye_temp=   0.00  Global_sig2= 0.00000
#  Energy zero shift, vr, vi    0.00000E+00   0.00000E+00
#  Curved wave amplitude ratio filter   4.000%
#     file         sig2 tot  cw amp ratio   deg  nlegs   reff  inp sig2
#     0/   0 paths used
#  xsedge+ 50, used to normalize mu           2.4402E-04
#  -----------------------------------------------------------------------
#  omega    e    k    mu    mu0     chi     @#
    8983.962    -11.230  -1.000  3.55284E-02  5.65862E-02 -2.10578E-02
    8984.260    -10.932  -0.960  3.71563E-02  6.07432E-02 -2.35869E-02
    8984.547    -10.645  -0.920  3.88874E-02  6.53643E-02 -2.64769E-02
    8984.821    -10.371  -0.880  4.07327E-02  7.05178E-02 -2.97851E-02
    8985.083    -10.109  -0.840  4.27054E-02  7.62833E-02 -3.35779E-02
    8985.333     -9.859  -0.800  4.48206E-02  8.27527E-02 -3.79321E-02
    8985.571     -9.621  -0.760  4.70965E-02  9.00317E-02 -4.29352E-02
    8985.797     -9.396  -0.720  4.95538E-02  9.82395E-02 -4.86858E-02
    8986.010     -9.182  -0.680  5.22158E-02  1.07508E-01 -5.52917E-02
    8986.211     -8.981  -0.640  5.51075E-02  1.17974E-01 -6.28667E-02
    8986.400     -8.792  -0.600  5.82531E-02  1.29776E-01 -7.15226E-02
    8986.577     -8.615  -0.560  6.16720E-02  1.43028E-01 -8.13560E-02
    8986.741     -8.451  -0.520  6.53715E-02  1.57800E-01 -9.24286E-02
    8986.894     -8.298  -0.480  6.93377E-02  1.74077E-01 -1.04739E-01
    8987.034     -8.158  -0.440  7.35243E-02  1.91715E-01 -1.18190E-01
    8987.162     -8.030  -0.400  7.78449E-02  2.10407E-01 -1.32563E-01
    8987.278     -7.914  -0.360  8.21725E-02  2.29673E-01 -1.47501E-01
    8987.382     -7.811  -0.320  8.63537E-02  2.48886E-01 -1.62532E-01
    8987.473     -7.719  -0.280  9.02328E-02  2.67349E-01 -1.77116E-01
    8987.552     -7.640  -0.240  9.36801E-02  2.84394E-01 -1.90714E-01
    8987.619     -7.573  -0.200  9.66098E-02  2.99460E-01 -2.02851E-01
    8987.674     -7.518  -0.160  9.89832E-02  3.12136E-01 -2.13153E-01
    8987.717     -7.475  -0.120  1.00797E-01  3.22157E-01 -2.21360E-01
    8987.747     -7.445  -0.080  1.02066E-01  3.29377E-01 -2.27312E-01
    8987.772     -7.420   0.000  1.03049E-01  3.35178E-01 -2.32129E-01
    8987.827     -7.366   0.120  1.05315E-01  3.48268E-01 -2.42953E-01
    8987.869     -7.323   0.160  1.06963E-01  3.58424E-01 -2.51461E-01
    8987.924     -7.268   0.200  1.08982E-01  3.71411E-01 -2.62429E-01
    8987.991     -7.201   0.240  1.11290E-01  3.87055E-01 -2.75765E-01
    8988.070     -7.122   0.280  1.13697E-01  4.05009E-01 -2.91312E-01
    8988.162     -7.030   0.320  1.16138E-01  4.24843E-01 -3.08705E-01
    8988.265     -6.927   0.360  1.18515E-01  4.45978E-01 -3.27464E-01
    8988.381     -6.811   0.400  1.20803E-01  4.67817E-01 -3.47014E-01
    8988.509     -6.683   0.440  1.23128E-01  4.89813E-01 -3.66685E-01
    8988.650     -6.543   0.480  1.25666E-01  5.11484E-01 -3.85817E-01
    8988.802     -6.390   0.520  1.28763E-01  5.32599E-01 -4.03836E-01
    8988.967     -6.226   0.560  1.32770E-01  5.53013E-01 -4.20242E-01
    8989.143     -6.049   0.600  1.38033E-01  5.72647E-01 -4.34614E-01
    8989.332     -5.860   0.640  1.45044E-01  5.91581E-01 -4.46537E-01
    8989.533     -5.659   0.680  1.54307E-01  6.09887E-01 -4.55580E-01
    8989.747     -5.445   0.720  1.66483E-01  6.27653E-01 -4.61170E-01
    8989.972     -5.220   0.760  1.82350E-01  6.44946E-01 -4.62596E-01
    8990.210     -4.982   0.800  2.02657E-01  6.61840E-01 -4.59184E-01
    8990.460     -4.732   0.840  2.27618E-01  6.78420E-01 -4.50802E-01
    8990.722     -4.470   0.880  2.56344E-01  6.94711E-01 -4.38367E-01
    8990.996     -4.196   0.920  2.86782E-01  7.10728E-01 -4.23946E-01
    8991.283     -3.909   0.960  3.17378E-01  7.26512E-01 -4.09134E-01
    8991.582     -3.610   1.000  3.48593E-01  7.42051E-01 -3.93458E-01
    8991.893     -3.300   1.040  3.81268E-01  7.57349E-01 -3.76081E-01
    8992.216     -2.977   1.080  4.14752E-01  7.72378E-01 -3.57625E-01
    8992.551     -2.641   1.120  4.50344E-01  7.87144E-01 -3.36799E-01
    8992.898     -2.294   1.160  4.92863E-01  8.01610E-01 -3.08747E-01
    8993.258     -1.934   1.200  5.46844E-01  8.15736E-01 -2.68892E-01
    8993.630     -1.562   1.240  6.09113E-01  8.29497E-01 -2.20384E-01
    8994.014     -1.178   1.280  6.69039E-01  8.42907E-01 -1.73868E-01
    8994.410     -0.782   1.320  7.20508E-01  8.55879E-01 -1.35371E-01
    8994.819     -0.374   1.360  7.56304E-01  8.68426E-01 -1.12121E-01
    8995.239      0.047   1.400  7.62824E-01  8.80500E-01 -1.17676E-01
    8995.672      0.480   1.440  7.49766E-01  8.92115E-01 -1.42349E-01
    8996.117      0.925   1.480  7.49773E-01  9.03203E-01 -1.53431E-01
    8996.574      1.382   1.520  7.82627E-01  9.13781E-01 -1.31154E-01
    8997.044      1.851   1.560  8.52281E-01  9.23821E-01 -7.15397E-02
    8997.525      2.333   1.600  9.49161E-01  9.33303E-01  1.58577E-02
    8998.019      2.827   1.640  1.04642E+00  9.42245E-01  1.04177E-01
    8998.525      3.333   1.680  1.12389E+00  9.50627E-01  1.73264E-01
    8999.043      3.851   1.720  1.19117E+00  9.58451E-01  2.32714E-01
    8999.574      4.381   1.760  1.27127E+00  9.65718E-01  3.05549E-01
    9000.116      4.924   1.800  1.38319E+00  9.72455E-01  4.10733E-01
    9000.671      5.479   1.840  1.51944E+00  9.78625E-01  5.40811E-01
    9001.238      6.046   1.880  1.64683E+00  9.84297E-01  6.62528E-01
    9001.817      6.625   1.920  1.72795E+00  9.89435E-01  7.38517E-01
    9002.408      7.216   1.960  1.73163E+00  9.94072E-01  7.37557E-01
    9003.012      7.819   2.000  1.64716E+00  9.98234E-01  6.48930E-01
    9003.627      8.435   2.040  1.50368E+00  1.00193E+00  5.01751E-01
    9004.255      9.063   2.080  1.35150E+00  1.00518E+00  3.46320E-01
    9004.895      9.703   2.120  1.22131E+00  1.00801E+00  2.13298E-01
    9005.548     10.355   2.160  1.11578E+00  1.01044E+00  1.05331E-01
    9006.212     11.020   2.200  1.02765E+00  1.01250E+00  1.51509E-02
    9006.889     11.696   2.240  9.60608E-01  1.01420E+00 -5.35916E-02
    9007.578     12.385   2.280  9.20180E-01  1.01558E+00 -9.54020E-02
    9008.279     13.086   2.320  9.03178E-01  1.01664E+00 -1.13466E-01
    9008.992     13.800   2.360  9.03636E-01  1.01742E+00 -1.13779E-01
    9009.717     14.525   2.400  9.17344E-01  1.01793E+00 -1.00586E-01
    9010.455     15.263   2.440  9.41705E-01  1.01822E+00 -7.65163E-02
    9011.205     16.012   2.480  9.74917E-01  1.01828E+00 -4.33599E-02
    9011.967     16.774   2.520  1.01515E+00  1.01813E+00 -2.97591E-03
    9012.741     17.549   2.560  1.04929E+00  1.01783E+00  3.14619E-02
    9013.527     18.335   2.600  1.06472E+00  1.01734E+00  4.73710E-02
    9014.326     19.134   2.640  1.06793E+00  1.01675E+00  5.11839E-02
    9015.137     19.944   2.680  1.06384E+00  1.01601E+00  4.78319E-02
    9015.960     20.767   2.720  1.05537E+00  1.01517E+00  4.01986E-02
    9016.795     21.602   2.760  1.04479E+00  1.01425E+00  3.05362E-02
    9017.642     22.450   2.800  1.03312E+00  1.01325E+00  1.98661E-02
    9018.502     23.309   2.840  1.02003E+00  1.01220E+00  7.82567E-03
    9019.373     24.181   2.880  1.00492E+00  1.01113E+00 -6.21121E-03
    9020.257     25.065   2.920  9.87530E-01  1.01000E+00 -2.24736E-02
    9021.153     25.961   2.960  9.69060E-01  1.00886E+00 -3.98012E-02
    9022.062     26.869   3.000  9.50837E-01  1.00771E+00 -5.68760E-02
    9022.982     27.790   3.040  9.33584E-01  1.00654E+00 -7.29586E-02
    9023.915     28.723   3.080  9.18037E-01  1.00542E+00 -8.73815E-02
    9024.860     29.667   3.120  9.05002E-01  1.00428E+00 -9.92828E-02
    9025.817     30.624   3.160  8.95150E-01  1.00320E+00 -1.08053E-01
    9026.786     31.594   3.200  8.88961E-01  1.00214E+00 -1.13177E-01
    9027.767     32.575   3.240  8.86725E-01  1.00113E+00 -1.14408E-01
    9028.761     33.569   3.280  8.87969E-01  1.00015E+00 -1.12181E-01
    9029.767     34.575   3.320  8.91889E-01  9.99234E-01 -1.07344E-01
    9030.785     35.593   3.360  8.97273E-01  9.98386E-01 -1.01113E-01
    9031.815     36.623   3.400  9.02774E-01  9.97588E-01 -9.48149E-02
    9032.858     37.665   3.440  9.07424E-01  9.96841E-01 -8.94170E-02
    9033.912     38.720   3.480  9.11330E-01  9.96167E-01 -8.48366E-02
    9034.979     39.787   3.520  9.15351E-01  9.95568E-01 -8.02174E-02
    9036.058     40.866   3.560  9.20529E-01  9.95045E-01 -7.45167E-02
    9037.149     41.957   3.600  9.27654E-01  9.94578E-01 -6.69242E-02
    9038.252     43.060   3.640  9.37041E-01  9.94209E-01 -5.71674E-02
    9039.368     44.176   3.680  9.48390E-01  9.93893E-01 -4.55035E-02
    9040.496     45.304   3.720  9.61042E-01  9.93634E-01 -3.25919E-02
    9041.636     46.444   3.760  9.74456E-01  9.93473E-01 -1.90165E-02
    9042.788     47.596   3.800  9.88053E-01  9.93388E-01 -5.33593E-03
    9043.952     48.760   3.840  1.00116E+00  9.93359E-01  7.79948E-03
    9045.129     49.937   3.880  1.01306E+00  9.93403E-01  1.96525E-02
    9046.317     51.125   3.920  1.02292E+00  9.93500E-01  2.94223E-02
    9047.518     52.326   3.960  1.03013E+00  9.93694E-01  3.64314E-02
    9048.731     53.539   4.000  1.03444E+00  9.93939E-01  4.04977E-02
    9049.957     54.765   4.040  1.03630E+00  9.94232E-01  4.20728E-02
    9051.194     56.002   4.080  1.03664E+00  9.94594E-01  4.20437E-02
    9052.444     57.252   4.120  1.03642E+00  9.95003E-01  4.14147E-02
    9053.706     58.514   4.160  1.03659E+00  9.95457E-01  4.11288E-02
    9054.980     59.788   4.200  1.03768E+00  9.95977E-01  4.17014E-02
    9056.266     61.074   4.240  1.03961E+00  9.96516E-01  4.30979E-02
    9057.565     62.372   4.280  1.04188E+00  9.97117E-01  4.47678E-02
    9058.875     63.683   4.320  1.04367E+00  9.97757E-01  4.59102E-02
    9060.198     65.006   4.360  1.04425E+00  9.98412E-01  4.58352E-02
    9061.533     66.341   4.400  1.04335E+00  9.99101E-01  4.42458E-02
    9062.880     67.688   4.440  1.04125E+00  9.99822E-01  4.14258E-02
    9064.240     69.047   4.480  1.03861E+00  1.00055E+00  3.80603E-02
    9065.611     70.419   4.520  1.03641E+00  1.00131E+00  3.50998E-02
    9066.995     71.803   4.560  1.03565E+00  1.00208E+00  3.35727E-02
    9068.391     73.199   4.600  1.03717E+00  1.00284E+00  3.43235E-02
    9069.799     74.607   4.640  1.04129E+00  1.00361E+00  3.76773E-02
    9071.220     76.027   4.680  1.04770E+00  1.00440E+00  4.33006E-02
    9072.652     77.460   4.720  1.05540E+00  1.00516E+00  5.02368E-02
    9074.097     78.905   4.760  1.06307E+00  1.00590E+00  5.71749E-02
    9075.554     80.362   4.800  1.06941E+00  1.00664E+00  6.27666E-02
    9077.023     81.831   4.840  1.07316E+00  1.00736E+00  6.57959E-02
    9078.504     83.312   4.880  1.07336E+00  1.00805E+00  6.53121E-02
    9079.998     84.806   4.920  1.06944E+00  1.00872E+00  6.07205E-02
    9081.503     86.311   4.960  1.06119E+00  1.00938E+00  5.18097E-02
    9083.021     87.829   5.000  1.04887E+00  1.00999E+00  3.88892E-02
    9084.551     89.359   5.040  1.03351E+00  1.01057E+00  2.29405E-02
    9086.094     90.901   5.080  1.01661E+00  1.01109E+00  5.51589E-03
    9087.648     92.456   5.120  9.99927E-01  1.01159E+00 -1.16639E-02
    9089.215     94.023   5.160  9.84840E-01  1.01205E+00 -2.72096E-02
    9090.794     95.601   5.200  9.72240E-01  1.01244E+00 -4.02026E-02
    9092.385     97.193   5.240  9.62617E-01  1.01279E+00 -5.01729E-02
    9093.988     98.796   5.280  9.56030E-01  1.01312E+00 -5.70870E-02
    9095.603    100.411   5.320  9.52035E-01  1.01338E+00 -6.13408E-02
    9097.231    102.039   5.360  9.50031E-01  1.01356E+00 -6.35340E-02
    9098.871    103.679   5.400  9.49492E-01  1.01373E+00 -6.42375E-02
    9100.523    105.331   5.440  9.50031E-01  1.01383E+00 -6.37952E-02
    9102.187    106.995   5.480  9.51585E-01  1.01387E+00 -6.22884E-02
    9103.863    108.671   5.520  9.54307E-01  1.01385E+00 -5.95445E-02
    9105.552    110.360   5.560  9.58273E-01  1.01378E+00 -5.55097E-02
    9107.253    112.061   5.600  9.63065E-01  1.01367E+00 -5.06033E-02
    9108.966    113.774   5.640  9.67914E-01  1.01351E+00 -4.55944E-02
    9110.691    115.499   5.680  9.72231E-01  1.01328E+00 -4.10503E-02
    9112.428    117.236   5.720  9.75909E-01  1.01301E+00 -3.70990E-02
    9114.178    118.986   5.760  9.79222E-01  1.01269E+00 -3.34701E-02
    9115.940    120.747   5.800  9.82703E-01  1.01234E+00 -2.96328E-02
    9117.714    122.521   5.840  9.86876E-01  1.01194E+00 -2.50619E-02
    9119.500    124.307   5.880  9.91710E-01  1.01148E+00 -1.97694E-02
    9121.298    126.106   5.920  9.96469E-01  1.01101E+00 -1.45404E-02
    9123.108    127.916   5.960  1.00022E+00  1.01051E+00 -1.02911E-02
    9124.931    129.739   6.000  1.00294E+00  1.00994E+00 -6.99942E-03
