# # comment:                                                     FEFF 9.9.1  
# # Source:
# # Structure
# # Reduced
# # space
# # abc:
# # angles:
# # sites:
# # POT  SCF 100  7.0000   0, screened core-hole, AFOLP (folp(0)= 1.150)
# # Abs   Z=29 Rmt= 1.184 Rnm= 1.302 K  shell
# # Pot 1 Z=29 Rmt= 1.184 Rnm= 1.302
# # Pot 2 Z=15 Rmt= 0.907 Rnm= 1.155
# # Pot 3 Z= 8 Rmt= 1.003 Rnm= 1.117
# # Gam_ch=1.729E+00 H-L exch Vi= 0.000E+00 Vr= 0.000E+00
# # Mu=-7.351E+00eV kf=2.272E+00 Vint=-1.513E+01eV Rs_int= 1.596
# FMS rfms= 9.0000
# # PATH  Rmax=-1.000,  Keep_limit= 0.00, Heap_limit 0.00  Pwcrit= 2.50%
#  S02=0.950  Temp=   0.00  Debye_temp=   0.00  Global_sig2= 0.00000
#  Energy zero shift, vr, vi    0.00000E+00   0.00000E+00
#  Curved wave amplitude ratio filter   4.000%
#     file         sig2 tot  cw amp ratio   deg  nlegs   reff  inp sig2
#     0/   0 paths used
#  xsedge+ 50, used to normalize mu           2.4448E-04
#  -----------------------------------------------------------------------
#  omega    e    k    mu    mu0     chi     @#
    8983.442    -11.161  -1.000  3.30492E-02  5.50493E-02 -2.20000E-02
    8983.741    -10.862  -0.960  3.44807E-02  5.90371E-02 -2.45564E-02
    8984.027    -10.576  -0.920  3.59932E-02  6.34649E-02 -2.74717E-02
    8984.302    -10.301  -0.880  3.75938E-02  6.83968E-02 -3.08030E-02
    8984.564    -10.039  -0.840  3.92909E-02  7.39074E-02 -3.46165E-02
    8984.814     -9.789  -0.800  4.10943E-02  8.00832E-02 -3.89889E-02
    8985.051     -9.551  -0.760  4.30152E-02  8.70232E-02 -4.40081E-02
    8985.277     -9.326  -0.720  4.50662E-02  9.48392E-02 -4.97730E-02
    8985.490     -9.113  -0.680  4.72616E-02  1.03654E-01 -5.63926E-02
    8985.691     -8.911  -0.640  4.96158E-02  1.13598E-01 -6.39819E-02
    8985.880     -8.722  -0.600  5.21430E-02  1.24797E-01 -7.26539E-02
    8986.057     -8.546  -0.560  5.48538E-02  1.37360E-01 -8.25063E-02
    8986.222     -8.381  -0.520  5.77514E-02  1.51351E-01 -9.35998E-02
    8986.374     -8.229  -0.480  6.08259E-02  1.66755E-01 -1.05929E-01
    8986.514     -8.088  -0.440  6.40479E-02  1.83436E-01 -1.19388E-01
    8986.642     -7.960  -0.400  6.73632E-02  2.01106E-01 -1.33743E-01
    8986.758     -7.845  -0.360  7.06921E-02  2.19312E-01 -1.48620E-01
    8986.862     -7.741  -0.320  7.39356E-02  2.37466E-01 -1.63531E-01
    8986.953     -7.650  -0.280  7.69887E-02  2.54913E-01 -1.77925E-01
    8987.033     -7.570  -0.240  7.97560E-02  2.71024E-01 -1.91268E-01
    8987.100     -7.503  -0.200  8.21644E-02  2.85268E-01 -2.03104E-01
    8987.154     -7.448  -0.160  8.41673E-02  2.97257E-01 -2.13089E-01
    8987.197     -7.406  -0.120  8.57413E-02  3.06739E-01 -2.20998E-01
    8987.228     -7.375  -0.080  8.68776E-02  3.13574E-01 -2.26696E-01
    8987.252     -7.351   0.000  8.78117E-02  3.19068E-01 -2.31256E-01
    8987.307     -7.296   0.120  8.98469E-02  3.31459E-01 -2.41612E-01
    8987.350     -7.253   0.160  9.13570E-02  3.41092E-01 -2.49735E-01
    8987.404     -7.198   0.200  9.32268E-02  3.53421E-01 -2.60194E-01
    8987.471     -7.131   0.240  9.53831E-02  3.68250E-01 -2.72867E-01
    8987.551     -7.052   0.280  9.77996E-02  3.85339E-01 -2.87540E-01
    8987.642     -6.961   0.320  1.00325E-01  4.04236E-01 -3.03911E-01
    8987.746     -6.857   0.360  1.02879E-01  4.24425E-01 -3.21546E-01
    8987.862     -6.741   0.400  1.05446E-01  4.45356E-01 -3.39910E-01
    8987.990     -6.613   0.440  1.08025E-01  4.66506E-01 -3.58481E-01
    8988.130     -6.473   0.480  1.10726E-01  4.87462E-01 -3.76736E-01
    8988.282     -6.321   0.520  1.13822E-01  5.07997E-01 -3.94175E-01
    8988.447     -6.156   0.560  1.17533E-01  5.27953E-01 -4.10420E-01
    8988.624     -5.979   0.600  1.22187E-01  5.47315E-01 -4.25128E-01
    8988.813     -5.790   0.640  1.28071E-01  5.66095E-01 -4.38024E-01
    8989.014     -5.589   0.680  1.35550E-01  5.84399E-01 -4.48849E-01
    8989.227     -5.376   0.720  1.44904E-01  6.02245E-01 -4.57341E-01
    8989.453     -5.150   0.760  1.56576E-01  6.19771E-01 -4.63195E-01
    8989.690     -4.912   0.800  1.70931E-01  6.37001E-01 -4.66070E-01
    8989.940     -4.663   0.840  1.88518E-01  6.54010E-01 -4.65493E-01
    8990.202     -4.400   0.880  2.10214E-01  6.70797E-01 -4.60583E-01
    8990.477     -4.126   0.920  2.37462E-01  6.87409E-01 -4.49947E-01
    8990.763     -3.840   0.960  2.71760E-01  7.03859E-01 -4.32099E-01
    8991.062     -3.541   1.000  3.13260E-01  7.20111E-01 -4.06852E-01
    8991.373     -3.230   1.040  3.60178E-01  7.36181E-01 -3.76003E-01
    8991.696     -2.907   1.080  4.09396E-01  7.52037E-01 -3.42641E-01
    8992.031     -2.572   1.120  4.56781E-01  7.67661E-01 -3.10880E-01
    8992.379     -2.224   1.160  4.99472E-01  7.83010E-01 -2.83538E-01
    8992.738     -1.864   1.200  5.40641E-01  7.98060E-01 -2.57418E-01
    8993.110     -1.493   1.240  5.81540E-01  8.12782E-01 -2.31242E-01
    8993.494     -1.109   1.280  6.15213E-01  8.27124E-01 -2.11911E-01
    8993.890     -0.712   1.320  6.36476E-01  8.41078E-01 -2.04602E-01
    8994.299     -0.304   1.360  6.50692E-01  8.54592E-01 -2.03900E-01
    8994.720      0.117   1.400  6.71791E-01  8.67635E-01 -1.95844E-01
    8995.152      0.550   1.440  7.06164E-01  8.80176E-01 -1.74013E-01
    8995.597      0.995   1.480  7.43820E-01  8.92208E-01 -1.48389E-01
    8996.055      1.452   1.520  7.77676E-01  9.03702E-01 -1.26027E-01
    8996.524      1.921   1.560  8.16625E-01  9.14631E-01 -9.80060E-02
    8997.006      2.403   1.600  8.70334E-01  9.24991E-01 -5.46561E-02
    8997.499      2.897   1.640  9.37622E-01  9.34778E-01  2.84415E-03
    8998.005      3.402   1.680  1.00206E+00  9.43970E-01  5.80907E-02
    8998.523      3.921   1.720  1.04868E+00  9.52567E-01  9.61098E-02
    8999.054      4.451   1.760  1.08568E+00  9.60572E-01  1.25111E-01
    8999.596      4.994   1.800  1.12327E+00  9.67987E-01  1.55288E-01
    9000.151      5.548   1.840  1.16015E+00  9.74837E-01  1.85315E-01
    9000.718      6.115   1.880  1.19909E+00  9.81109E-01  2.17979E-01
    9001.297      6.694   1.920  1.24700E+00  9.86831E-01  2.60170E-01
    9001.888      7.286   1.960  1.30310E+00  9.92010E-01  3.11087E-01
    9002.492      7.889   2.000  1.34818E+00  9.96677E-01  3.51501E-01
    9003.108      8.505   2.040  1.36260E+00  1.00082E+00  3.61783E-01
    9003.735      9.133   2.080  1.35534E+00  1.00449E+00  3.50850E-01
    9004.376      9.773   2.120  1.34872E+00  1.00771E+00  3.41013E-01
    9005.028     10.425   2.160  1.34754E+00  1.01050E+00  3.37038E-01
    9005.692     11.089   2.200  1.32981E+00  1.01287E+00  3.16935E-01
    9006.369     11.766   2.240  1.28228E+00  1.01484E+00  2.67439E-01
    9007.058     12.455   2.280  1.22104E+00  1.01647E+00  2.04573E-01
    9007.759     13.156   2.320  1.16717E+00  1.01776E+00  1.49413E-01
    9008.472     13.869   2.360  1.12714E+00  1.01873E+00  1.08414E-01
    9009.197     14.595   2.400  1.09878E+00  1.01942E+00  7.93536E-02
    9009.935     15.332   2.440  1.08167E+00  1.01984E+00  6.18323E-02
    9010.685     16.082   2.480  1.07429E+00  1.02001E+00  5.42769E-02
    9011.447     16.844   2.520  1.07259E+00  1.01997E+00  5.26230E-02
    9012.221     17.618   2.560  1.07318E+00  1.01973E+00  5.34543E-02
    9013.007     18.405   2.600  1.07303E+00  1.01931E+00  5.37188E-02
    9013.806     19.203   2.640  1.07079E+00  1.01873E+00  5.20651E-02
    9014.617     20.014   2.680  1.06438E+00  1.01802E+00  4.63611E-02
    9015.440     20.837   2.720  1.05483E+00  1.01721E+00  3.76209E-02
    9016.275     21.672   2.760  1.04651E+00  1.01628E+00  3.02258E-02
    9017.122     22.519   2.800  1.04136E+00  1.01525E+00  2.61052E-02
    9017.982     23.379   2.840  1.03781E+00  1.01418E+00  2.36271E-02
    9018.854     24.251   2.880  1.03199E+00  1.01305E+00  1.89459E-02
    9019.737     25.135   2.920  1.02129E+00  1.01187E+00  9.42466E-03
    9020.634     26.031   2.960  1.00587E+00  1.01065E+00 -4.78540E-03
    9021.542     26.939   3.000  9.87670E-01  1.00943E+00 -2.17574E-02
    9022.462     27.860   3.040  9.68559E-01  1.00820E+00 -3.96402E-02
    9023.395     28.792   3.080  9.50004E-01  1.00697E+00 -5.69675E-02
    9024.340     29.737   3.120  9.32760E-01  1.00577E+00 -7.30122E-02
    9025.297     30.694   3.160  9.16991E-01  1.00458E+00 -8.75919E-02
    9026.266     31.663   3.200  9.03014E-01  1.00343E+00 -1.00413E-01
    9027.248     32.645   3.240  8.91488E-01  1.00231E+00 -1.10823E-01
    9028.241     33.639   3.280  8.82605E-01  1.00124E+00 -1.18630E-01
    9029.247     34.644   3.320  8.76524E-01  1.00023E+00 -1.23701E-01
    9030.265     35.662   3.360  8.73271E-01  9.99239E-01 -1.25969E-01
    9031.295     36.693   3.400  8.72777E-01  9.98323E-01 -1.25547E-01
    9032.338     37.735   3.440  8.74777E-01  9.97481E-01 -1.22704E-01
    9033.392     38.790   3.480  8.78907E-01  9.96711E-01 -1.17805E-01
    9034.459     39.856   3.520  8.84797E-01  9.95994E-01 -1.11197E-01
    9035.538     40.935   3.560  8.91960E-01  9.95353E-01 -1.03393E-01
    9036.629     42.027   3.600  9.00281E-01  9.94765E-01 -9.44848E-02
    9037.733     43.130   3.640  9.09834E-01  9.94275E-01 -8.44411E-02
    9038.848     44.245   3.680  9.20451E-01  9.93841E-01 -7.33899E-02
    9039.976     45.373   3.720  9.31785E-01  9.93484E-01 -6.16992E-02
    9041.116     46.513   3.760  9.43353E-01  9.93205E-01 -4.98525E-02
    9042.268     47.665   3.800  9.54663E-01  9.93003E-01 -3.83399E-02
    9043.432     48.830   3.840  9.65299E-01  9.92855E-01 -2.75564E-02
    9044.609     50.006   3.880  9.75140E-01  9.92806E-01 -1.76656E-02
    9045.798     51.195   3.920  9.84104E-01  9.92812E-01 -8.70722E-03
    9046.999     52.396   3.960  9.92208E-01  9.92890E-01 -6.82007E-04
    9048.212     53.609   4.000  9.99544E-01  9.93021E-01  6.52287E-03
    9049.437     54.834   4.040  1.00632E+00  9.93226E-01  1.30930E-02
    9050.674     56.072   4.080  1.01267E+00  9.93501E-01  1.91665E-02
    9051.924     57.321   4.120  1.01863E+00  9.93823E-01  2.48098E-02
    9053.186     58.583   4.160  1.02421E+00  9.94191E-01  3.00180E-02
    9054.460     59.857   4.200  1.02937E+00  9.94603E-01  3.47654E-02
    9055.746     61.144   4.240  1.03413E+00  9.95081E-01  3.90511E-02
    9057.045     62.442   4.280  1.03866E+00  9.95603E-01  4.30561E-02
    9058.355     63.753   4.320  1.04322E+00  9.96163E-01  4.70602E-02
    9059.678     65.075   4.360  1.04813E+00  9.96739E-01  5.13902E-02
    9061.013     66.410   4.400  1.05369E+00  9.97372E-01  5.63172E-02
    9062.360     67.758   4.440  1.05990E+00  9.98019E-01  6.18810E-02
    9063.720     69.117   4.480  1.06639E+00  9.98698E-01  6.76954E-02
    9065.091     70.489   4.520  1.07234E+00  9.99386E-01  7.29553E-02
    9066.475     71.872   4.560  1.07688E+00  1.00010E+00  7.67819E-02
    9067.871     73.268   4.600  1.07922E+00  1.00082E+00  7.83947E-02
    9069.279     74.677   4.640  1.07889E+00  1.00154E+00  7.73432E-02
    9070.700     76.097   4.680  1.07581E+00  1.00227E+00  7.35447E-02
    9072.132     77.530   4.720  1.07016E+00  1.00299E+00  6.71698E-02
    9073.577     78.974   4.760  1.06233E+00  1.00370E+00  5.86254E-02
    9075.034     80.431   4.800  1.05307E+00  1.00442E+00  4.86529E-02
    9076.503     81.900   4.840  1.04336E+00  1.00513E+00  3.82299E-02
    9077.984     83.382   4.880  1.03427E+00  1.00580E+00  2.84661E-02
    9079.478     84.875   4.920  1.02672E+00  1.00644E+00  2.02742E-02
    9080.984     86.381   4.960  1.02111E+00  1.00707E+00  1.40393E-02
    9082.502     87.899   5.000  1.01724E+00  1.00767E+00  9.57365E-03
    9084.032     89.429   5.040  1.01452E+00  1.00825E+00  6.27479E-03
    9085.574     90.971   5.080  1.01220E+00  1.00879E+00  3.41346E-03
    9087.128     92.526   5.120  1.00969E+00  1.00927E+00  4.22460E-04
    9088.695     94.092   5.160  1.00674E+00  1.00973E+00 -2.99141E-03
    9090.274     95.671   5.200  1.00326E+00  1.01015E+00 -6.88702E-03
    9091.865     97.262   5.240  9.99196E-01  1.01050E+00 -1.13029E-02
    9093.468     98.865   5.280  9.94507E-01  1.01083E+00 -1.63218E-02
    9095.084    100.481   5.320  9.89107E-01  1.01109E+00 -2.19854E-02
    9096.711    102.108   5.360  9.83217E-01  1.01131E+00 -2.80937E-02
    9098.351    103.748   5.400  9.77351E-01  1.01148E+00 -3.41327E-02
    9100.003    105.400   5.440  9.72284E-01  1.01161E+00 -3.93290E-02
    9101.667    107.065   5.480  9.68667E-01  1.01167E+00 -4.30045E-02
    9103.344    108.741   5.520  9.66742E-01  1.01168E+00 -4.49418E-02
    9105.032    110.429   5.560  9.66164E-01  1.01165E+00 -4.54874E-02
    9106.733    112.130   5.600  9.66353E-01  1.01157E+00 -4.52204E-02
    9108.446    113.843   5.640  9.66855E-01  1.01143E+00 -4.45708E-02
    9110.171    115.568   5.680  9.67634E-01  1.01123E+00 -4.36003E-02
    9111.909    117.306   5.720  9.68804E-01  1.01100E+00 -4.21951E-02
    9113.658    119.055   5.760  9.70429E-01  1.01072E+00 -4.02922E-02
    9115.420    120.817   5.800  9.72369E-01  1.01038E+00 -3.80091E-02
    9117.194    122.591   5.840  9.74507E-01  1.01002E+00 -3.55095E-02
    9118.980    124.377   5.880  9.76700E-01  1.00960E+00 -3.28958E-02
    9120.778    126.175   5.920  9.78997E-01  1.00916E+00 -3.01644E-02
    9122.589    127.986   5.960  9.81380E-01  1.00867E+00 -2.72854E-02
    9124.411    129.809   6.000  9.83903E-01  1.00810E+00 -2.41972E-02
