# # comment:                                                     FEFF 9.9.1  
# # Source:
# # Structure
# # Reduced
# # space
# # abc:
# # angles:
# # sites:
# # POT  SCF 100  7.0000   0, screened core-hole, AFOLP (folp(0)= 1.150)
# # Abs   Z=29 Rmt= 1.291 Rnm= 1.359 K  shell
# # Pot 1 Z=29 Rmt= 1.291 Rnm= 1.359
# # Pot 2 Z=15 Rmt= 0.966 Rnm= 1.187
# # Pot 3 Z= 1 Rmt= 0.658 Rnm= 0.782
# # Pot 4 Z= 8 Rmt= 0.883 Rnm= 1.034
# # Gam_ch=1.729E+00 H-L exch Vi= 0.000E+00 Vr= 0.000E+00
# # Mu=-5.290E+00eV kf=2.460E+00 Vint=-1.635E+01eV Rs_int= 1.474
# FMS rfms= 9.0000
# # PATH  Rmax=-1.000,  Keep_limit= 0.00, Heap_limit 0.00  Pwcrit= 2.50%
#  S02=0.950  Temp=   0.00  Debye_temp=   0.00  Global_sig2= 0.00000
#  Energy zero shift, vr, vi    0.00000E+00   0.00000E+00
#  Curved wave amplitude ratio filter   4.000%
#     file         sig2 tot  cw amp ratio   deg  nlegs   reff  inp sig2
#     0/   0 paths used
#  xsedge+ 50, used to normalize mu           2.4737E-04
#  -----------------------------------------------------------------------
#  omega    e    k    mu    mu0     chi     @#
    8983.235     -9.100  -1.000  4.78839E-02  5.63708E-02 -8.48691E-03
    8983.534     -8.802  -0.960  5.08675E-02  6.05715E-02 -9.70400E-03
    8983.820     -8.515  -0.920  5.41269E-02  6.52504E-02 -1.11235E-02
    8984.095     -8.241  -0.880  5.76965E-02  7.04787E-02 -1.27822E-02
    8984.357     -7.979  -0.840  6.16163E-02  7.63400E-02 -1.47237E-02
    8984.607     -7.729  -0.800  6.59315E-02  8.29310E-02 -1.69995E-02
    8984.845     -7.491  -0.760  7.06933E-02  9.03628E-02 -1.96695E-02
    8985.070     -7.265  -0.720  7.59587E-02  9.87613E-02 -2.28026E-02
    8985.283     -7.052  -0.680  8.17890E-02  1.08265E-01 -2.64763E-02
    8985.485     -6.851  -0.640  8.82479E-02  1.19022E-01 -3.07737E-02
    8985.674     -6.662  -0.600  9.53961E-02  1.31175E-01 -3.57786E-02
    8985.850     -6.485  -0.560  1.03282E-01  1.44848E-01 -4.15659E-02
    8986.015     -6.321  -0.520  1.11931E-01  1.60117E-01 -4.81858E-02
    8986.167     -6.168  -0.480  1.21324E-01  1.76966E-01 -5.56427E-02
    8986.308     -6.028  -0.440  1.31378E-01  1.95248E-01 -6.38702E-02
    8986.436     -5.900  -0.400  1.41929E-01  2.14640E-01 -7.27102E-02
    8986.551     -5.784  -0.360  1.52729E-01  2.34635E-01 -8.19069E-02
    8986.655     -5.681  -0.320  1.63453E-01  2.54578E-01 -9.11249E-02
    8986.746     -5.589  -0.280  1.73743E-01  2.73737E-01 -9.99934E-02
    8986.826     -5.510  -0.240  1.83251E-01  2.91412E-01 -1.08161E-01
    8986.893     -5.443  -0.200  1.91678E-01  3.07022E-01 -1.15344E-01
    8986.948     -5.388  -0.160  1.98798E-01  3.20142E-01 -1.21344E-01
    8986.990     -5.345  -0.120  2.04456E-01  3.30504E-01 -1.26048E-01
    8987.021     -5.315  -0.080  2.08559E-01  3.37963E-01 -1.29404E-01
    8987.045     -5.290   0.000  2.11891E-01  3.43952E-01 -1.32061E-01
    8987.100     -5.236   0.120  2.19304E-01  3.57454E-01 -1.38150E-01
    8987.143     -5.193   0.160  2.25066E-01  3.67917E-01 -1.42851E-01
    8987.198     -5.138   0.200  2.32515E-01  3.81283E-01 -1.48767E-01
    8987.265     -5.071   0.240  2.41573E-01  3.97305E-01 -1.55732E-01
    8987.344     -4.992   0.280  2.52198E-01  4.15639E-01 -1.63442E-01
    8987.435     -4.900   0.320  2.64333E-01  4.35805E-01 -1.71472E-01
    8987.539     -4.797   0.360  2.77932E-01  4.57159E-01 -1.79228E-01
    8987.655     -4.681   0.400  2.93002E-01  4.79028E-01 -1.86026E-01
    8987.783     -4.553   0.440  3.09699E-01  5.00831E-01 -1.91133E-01
    8987.923     -4.413   0.480  3.28212E-01  5.22068E-01 -1.93856E-01
    8988.075     -4.260   0.520  3.48711E-01  5.42487E-01 -1.93776E-01
    8988.240     -4.096   0.560  3.70974E-01  5.61889E-01 -1.90915E-01
    8988.417     -3.919   0.600  3.94417E-01  5.80266E-01 -1.85849E-01
    8988.606     -3.730   0.640  4.18201E-01  5.97705E-01 -1.79505E-01
    8988.807     -3.529   0.680  4.41606E-01  6.14277E-01 -1.72671E-01
    8989.020     -3.315   0.720  4.64576E-01  6.30088E-01 -1.65512E-01
    8989.246     -3.090   0.760  4.87683E-01  6.45288E-01 -1.57605E-01
    8989.484     -2.852   0.800  5.11461E-01  6.59950E-01 -1.48489E-01
    8989.733     -2.602   0.840  5.35994E-01  6.74158E-01 -1.38164E-01
    8989.996     -2.340   0.880  5.60889E-01  6.88001E-01 -1.27112E-01
    8990.270     -2.066   0.920  5.85774E-01  7.01551E-01 -1.15777E-01
    8990.556     -1.779   0.960  6.10328E-01  7.14806E-01 -1.04478E-01
    8990.855     -1.480   1.000  6.33680E-01  7.27834E-01 -9.41541E-02
    8991.166     -1.169   1.040  6.53828E-01  7.40653E-01 -8.68248E-02
    8991.489     -0.846   1.080  6.68347E-01  7.53252E-01 -8.49048E-02
    8991.824     -0.511   1.120  6.76665E-01  7.65673E-01 -8.90074E-02
    8992.172     -0.164   1.160  6.82292E-01  7.77870E-01 -9.55783E-02
    8992.532      0.196   1.200  6.91754E-01  7.89876E-01 -9.81220E-02
    8992.903      0.568   1.240  7.09954E-01  8.01658E-01 -9.17044E-02
    8993.287      0.952   1.280  7.37586E-01  8.13218E-01 -7.56327E-02
    8993.684      1.348   1.320  7.72499E-01  8.24541E-01 -5.20422E-02
    8994.092      1.757   1.360  8.13129E-01  8.35625E-01 -2.24957E-02
    8994.513      2.177   1.400  8.59098E-01  8.46407E-01  1.26905E-02
    8994.946      2.610   1.440  9.05095E-01  8.56927E-01  4.81686E-02
    8995.391      3.055   1.480  9.40248E-01  8.67140E-01  7.31088E-02
    8995.848      3.512   1.520  9.63536E-01  8.77022E-01  8.65137E-02
    8996.317      3.982   1.560  9.87304E-01  8.86591E-01  1.00712E-01
    8996.799      4.463   1.600  1.02083E+00  8.95803E-01  1.25026E-01
    8997.293      4.957   1.640  1.06310E+00  9.04675E-01  1.58429E-01
    8997.798      5.463   1.680  1.10836E+00  9.13184E-01  1.95172E-01
    8998.317      5.981   1.720  1.15564E+00  9.21306E-01  2.34337E-01
    8998.847      6.511   1.760  1.20913E+00  9.29062E-01  2.80070E-01
    8999.390      7.054   1.800  1.26745E+00  9.36429E-01  3.31023E-01
    8999.944      7.609   1.840  1.31858E+00  9.43388E-01  3.75191E-01
    9000.511      8.176   1.880  1.34637E+00  9.49978E-01  3.96394E-01
    9001.090      8.755   1.920  1.34312E+00  9.56181E-01  3.86943E-01
    9001.682      9.346   1.960  1.31608E+00  9.61978E-01  3.54099E-01
    9002.285      9.950   2.000  1.27834E+00  9.67393E-01  3.10945E-01
    9002.901     10.565   2.040  1.23736E+00  9.72448E-01  2.64913E-01
    9003.529     11.193   2.080  1.19916E+00  9.77106E-01  2.22052E-01
    9004.169     11.833   2.120  1.17024E+00  9.81413E-01  1.88829E-01
    9004.821     12.485   2.160  1.15273E+00  9.85352E-01  1.67374E-01
    9005.485     13.150   2.200  1.14473E+00  9.88930E-01  1.55796E-01
    9006.162     13.827   2.240  1.14108E+00  9.92193E-01  1.48883E-01
    9006.851     14.515   2.280  1.13528E+00  9.95127E-01  1.40155E-01
    9007.552     15.216   2.320  1.12382E+00  9.97738E-01  1.26080E-01
    9008.265     15.930   2.360  1.10707E+00  1.00005E+00  1.07012E-01
    9008.991     16.655   2.400  1.08810E+00  1.00208E+00  8.60254E-02
    9009.728     17.393   2.440  1.06971E+00  1.00385E+00  6.58635E-02
    9010.478     18.143   2.480  1.05147E+00  1.00534E+00  4.61298E-02
    9011.240     18.905   2.520  1.03278E+00  1.00658E+00  2.62037E-02
    9012.014     19.679   2.560  1.01311E+00  1.00760E+00  5.50388E-03
    9012.801     20.465   2.600  9.90308E-01  1.00842E+00 -1.81098E-02
    9013.599     21.264   2.640  9.63570E-01  1.00903E+00 -4.54575E-02
    9014.410     22.074   2.680  9.36793E-01  1.00944E+00 -7.26456E-02
    9015.233     22.897   2.720  9.16999E-01  1.00968E+00 -9.26801E-02
    9016.068     23.733   2.760  9.08570E-01  1.00976E+00 -1.01187E-01
    9016.915     24.580   2.800  9.08386E-01  1.00970E+00 -1.01314E-01
    9017.775     25.439   2.840  9.06463E-01  1.00949E+00 -1.03030E-01
    9018.647     26.311   2.880  8.99060E-01  1.00918E+00 -1.10124E-01
    9019.531     27.195   2.920  8.89727E-01  1.00876E+00 -1.19033E-01
    9020.427     28.091   2.960  8.81307E-01  1.00825E+00 -1.26938E-01
    9021.335     28.999   3.000  8.74693E-01  1.00765E+00 -1.32955E-01
    9022.256     29.920   3.040  8.70658E-01  1.00697E+00 -1.36311E-01
    9023.188     30.853   3.080  8.69198E-01  1.00622E+00 -1.37021E-01
    9024.133     31.798   3.120  8.70035E-01  1.00544E+00 -1.35406E-01
    9025.090     32.755   3.160  8.72727E-01  1.00460E+00 -1.31872E-01
    9026.059     33.724   3.200  8.76942E-01  1.00374E+00 -1.26796E-01
    9027.041     34.705   3.240  8.82712E-01  1.00285E+00 -1.20133E-01
    9028.035     35.699   3.280  8.90383E-01  1.00192E+00 -1.11537E-01
    9029.040     36.705   3.320  8.99983E-01  1.00101E+00 -1.01027E-01
    9030.058     37.723   3.360  9.11436E-01  1.00008E+00 -8.86409E-02
    9031.089     38.753   3.400  9.24593E-01  9.99166E-01 -7.45736E-02
    9032.131     39.795   3.440  9.38822E-01  9.98259E-01 -5.94371E-02
    9033.186     40.850   3.480  9.53494E-01  9.97357E-01 -4.38634E-02
    9034.252     41.917   3.520  9.68133E-01  9.96486E-01 -2.83526E-02
    9035.331     42.996   3.560  9.82289E-01  9.95648E-01 -1.33591E-02
    9036.423     44.087   3.600  9.95517E-01  9.94824E-01  6.92258E-04
    9037.526     45.190   3.640  1.00762E+00  9.94056E-01  1.35644E-02
    9038.641     46.306   3.680  1.01839E+00  9.93305E-01  2.50850E-02
    9039.769     47.434   3.720  1.02768E+00  9.92591E-01  3.50910E-02
    9040.909     48.574   3.760  1.03544E+00  9.91919E-01  4.35207E-02
    9042.061     49.726   3.800  1.04168E+00  9.91309E-01  5.03717E-02
    9043.226     50.890   3.840  1.04634E+00  9.90721E-01  5.56200E-02
    9044.402     52.067   3.880  1.04956E+00  9.90198E-01  5.93570E-02
    9045.591     53.255   3.920  1.05151E+00  9.89742E-01  6.17646E-02
    9046.792     54.456   3.960  1.05237E+00  9.89308E-01  6.30636E-02
    9048.005     55.669   4.000  1.05238E+00  9.88939E-01  6.34434E-02
    9049.230     56.895   4.040  1.05175E+00  9.88613E-01  6.31327E-02
    9050.468     58.132   4.080  1.05059E+00  9.88331E-01  6.22598E-02
    9051.717     59.382   4.120  1.04898E+00  9.88094E-01  6.08839E-02
    9052.979     60.644   4.160  1.04697E+00  9.87922E-01  5.90491E-02
    9054.253     61.918   4.200  1.04460E+00  9.87797E-01  5.68018E-02
    9055.540     63.204   4.240  1.04192E+00  9.87736E-01  5.41858E-02
    9056.838     64.502   4.280  1.03896E+00  9.87696E-01  5.12622E-02
    9058.149     65.813   4.320  1.03585E+00  9.87717E-01  4.81304E-02
    9059.471     67.136   4.360  1.03251E+00  9.87759E-01  4.47558E-02
    9060.806     68.471   4.400  1.02885E+00  9.87862E-01  4.09876E-02
    9062.154     69.818   4.440  1.02464E+00  9.88006E-01  3.66306E-02
    9063.513     71.178   4.480  1.01969E+00  9.88165E-01  3.15278E-02
    9064.885     72.549   4.520  1.01408E+00  9.88382E-01  2.56981E-02
    9066.268     73.933   4.560  1.00802E+00  9.88615E-01  1.94055E-02
    9067.664     75.329   4.600  1.00198E+00  9.88881E-01  1.31012E-02
    9069.073     76.737   4.640  9.96474E-01  9.89180E-01  7.29347E-03
    9070.493     78.157   4.680  9.91930E-01  9.89491E-01  2.43921E-03
    9071.926     79.590   4.720  9.88631E-01  9.89832E-01 -1.20166E-03
    9073.370     81.035   4.760  9.86535E-01  9.90182E-01 -3.64708E-03
    9074.827     82.492   4.800  9.85411E-01  9.90561E-01 -5.14997E-03
    9076.296     83.961   4.840  9.84806E-01  9.90945E-01 -6.13903E-03
    9077.778     85.442   4.880  9.84289E-01  9.91355E-01 -7.06611E-03
    9079.271     86.936   4.920  9.83460E-01  9.91745E-01 -8.28526E-03
    9080.777     88.441   4.960  9.82132E-01  9.92156E-01 -1.00241E-02
    9082.295     89.959   5.000  9.80152E-01  9.92544E-01 -1.23914E-02
    9083.825     91.489   5.040  9.77510E-01  9.92930E-01 -1.54198E-02
    9085.367     93.032   5.080  9.74269E-01  9.93336E-01 -1.90664E-02
    9086.922     94.586   5.120  9.70536E-01  9.93716E-01 -2.31792E-02
    9088.488     96.153   5.160  9.66575E-01  9.94089E-01 -2.75139E-02
    9090.067     97.732   5.200  9.62698E-01  9.94432E-01 -3.17334E-02
    9091.658     99.323   5.240  9.59300E-01  9.94767E-01 -3.54666E-02
    9093.261    100.926   5.280  9.56735E-01  9.95094E-01 -3.83594E-02
    9094.877    102.541   5.320  9.55253E-01  9.95388E-01 -4.01346E-02
    9096.504    104.169   5.360  9.55022E-01  9.95648E-01 -4.06258E-02
    9098.144    105.809   5.400  9.56107E-01  9.95895E-01 -3.97878E-02
    9099.796    107.461   5.440  9.58355E-01  9.96106E-01 -3.77508E-02
    9101.461    109.125   5.480  9.61429E-01  9.96283E-01 -3.48531E-02
    9103.137    110.801   5.520  9.64811E-01  9.96445E-01 -3.16340E-02
    9104.825    112.490   5.560  9.67867E-01  9.96570E-01 -2.87028E-02
    9106.526    114.191   5.600  9.70089E-01  9.96633E-01 -2.65438E-02
    9108.239    115.904   5.640  9.71303E-01  9.96681E-01 -2.53787E-02
    9109.964    117.629   5.680  9.71608E-01  9.96715E-01 -2.51065E-02
    9111.702    119.366   5.720  9.71343E-01  9.96687E-01 -2.53444E-02
    9113.451    121.116   5.760  9.71102E-01  9.96620E-01 -2.55175E-02
    9115.213    122.877   5.800  9.71543E-01  9.96513E-01 -2.49697E-02
    9116.987    124.651   5.840  9.73340E-01  9.96392E-01 -2.30515E-02
    9118.773    126.438   5.880  9.76933E-01  9.96209E-01 -1.92760E-02
    9120.571    128.236   5.920  9.82482E-01  9.95988E-01 -1.35061E-02
    9122.382    130.046   5.960  9.89677E-01  9.95755E-01 -6.07817E-03
    9124.205    131.869   6.000  9.97908E-01  9.95464E-01  2.44457E-03
