# # comment:                                                     FEFF 9.9.1  
# # Source:
# # Structure
# # Reduced
# # space
# # abc:
# # angles:
# # sites:
# # POT  SCF 100  7.0000   0, screened core-hole, AFOLP (folp(0)= 1.150)
# # Abs   Z=29 Rmt= 1.293 Rnm= 1.358 K  shell
# # Pot 1 Z=29 Rmt= 1.293 Rnm= 1.358
# # Pot 2 Z= 1 Rmt= 0.673 Rnm= 0.788
# # Pot 3 Z= 6 Rmt= 0.779 Rnm= 0.978
# # Pot 4 Z= 8 Rmt= 0.796 Rnm= 1.008
# # Gam_ch=1.729E+00 H-L exch Vi= 0.000E+00 Vr= 0.000E+00
# # Mu=-7.726E+00eV kf=2.670E+00 Vint=-1.806E+01eV Rs_int= 1.359
# FMS rfms= 9.0000
# # PATH  Rmax=-1.000,  Keep_limit= 0.00, Heap_limit 0.00  Pwcrit= 2.50%
#  S02=0.950  Temp=   0.00  Debye_temp=   0.00  Global_sig2= 0.00000
#  Energy zero shift, vr, vi    0.00000E+00   0.00000E+00
#  Curved wave amplitude ratio filter   4.000%
#     file         sig2 tot  cw amp ratio   deg  nlegs   reff  inp sig2
#     0/   0 paths used
#  xsedge+ 50, used to normalize mu           2.5150E-04
#  -----------------------------------------------------------------------
#  omega    e    k    mu    mu0     chi     @#
    8983.298    -11.536  -1.000  3.64547E-02  4.76792E-02 -1.12245E-02
    8983.596    -11.238  -0.960  3.83612E-02  5.10294E-02 -1.26682E-02
    8983.883    -10.951  -0.920  4.04141E-02  5.47468E-02 -1.43327E-02
    8984.157    -10.677  -0.880  4.26296E-02  5.88851E-02 -1.62555E-02
    8984.419    -10.415  -0.840  4.50266E-02  6.35072E-02 -1.84806E-02
    8984.669    -10.165  -0.800  4.76263E-02  6.86858E-02 -2.10595E-02
    8984.907     -9.927  -0.760  5.04529E-02  7.45046E-02 -2.40517E-02
    8985.133     -9.702  -0.720  5.35330E-02  8.10579E-02 -2.75249E-02
    8985.346     -9.488  -0.680  5.68957E-02  8.84498E-02 -3.15541E-02
    8985.547     -9.287  -0.640  6.05707E-02  9.67902E-02 -3.62195E-02
    8985.736     -9.098  -0.600  6.45861E-02  1.06187E-01 -4.16007E-02
    8985.913     -8.921  -0.560  6.89644E-02  1.16732E-01 -4.77674E-02
    8986.078     -8.757  -0.520  7.37151E-02  1.28480E-01 -5.47647E-02
    8986.230     -8.604  -0.480  7.88263E-02  1.41418E-01 -6.25920E-02
    8986.370     -8.464  -0.440  8.42539E-02  1.55434E-01 -7.11799E-02
    8986.498     -8.336  -0.400  8.99127E-02  1.70282E-01 -8.03695E-02
    8986.614     -8.220  -0.360  9.56736E-02  1.85580E-01 -8.99068E-02
    8986.718     -8.117  -0.320  1.01371E-01  2.00831E-01 -9.94597E-02
    8986.809     -8.025  -0.280  1.06821E-01  2.15481E-01 -1.08660E-01
    8986.888     -7.946  -0.240  1.11844E-01  2.29000E-01 -1.17156E-01
    8986.955     -7.879  -0.200  1.16288E-01  2.40944E-01 -1.24656E-01
    8987.010     -7.824  -0.160  1.20037E-01  2.50989E-01 -1.30952E-01
    8987.053     -7.781  -0.120  1.23012E-01  2.58927E-01 -1.35915E-01
    8987.083     -7.751  -0.080  1.25168E-01  2.64645E-01 -1.39477E-01
    8987.108     -7.726   0.000  1.26918E-01  2.69238E-01 -1.42320E-01
    8987.163     -7.672   0.120  1.30827E-01  2.79597E-01 -1.48770E-01
    8987.205     -7.629   0.160  1.33853E-01  2.87651E-01 -1.53797E-01
    8987.260     -7.574   0.200  1.37729E-01  2.97924E-01 -1.60196E-01
    8987.327     -7.507   0.240  1.42389E-01  3.10275E-01 -1.67886E-01
    8987.406     -7.428   0.280  1.47752E-01  3.24430E-01 -1.76678E-01
    8987.498     -7.336   0.320  1.53752E-01  3.40064E-01 -1.86312E-01
    8987.602     -7.233   0.360  1.60262E-01  3.56702E-01 -1.96441E-01
    8987.717     -7.117   0.400  1.67182E-01  3.73865E-01 -2.06683E-01
    8987.845     -6.989   0.440  1.74508E-01  3.91091E-01 -2.16584E-01
    8987.986     -6.849   0.480  1.82403E-01  4.08045E-01 -2.25642E-01
    8988.138     -6.696   0.520  1.91224E-01  4.24532E-01 -2.33308E-01
    8988.303     -6.532   0.560  2.01388E-01  4.40416E-01 -2.39028E-01
    8988.479     -6.355   0.600  2.13380E-01  4.55712E-01 -2.42332E-01
    8988.668     -6.166   0.640  2.27496E-01  4.70474E-01 -2.42977E-01
    8988.869     -5.965   0.680  2.43754E-01  4.84765E-01 -2.41011E-01
    8989.083     -5.751   0.720  2.61942E-01  4.98664E-01 -2.36723E-01
    8989.308     -5.526   0.760  2.81769E-01  5.12288E-01 -2.30519E-01
    8989.546     -5.288   0.800  3.02926E-01  5.25703E-01 -2.22777E-01
    8989.796     -5.038   0.840  3.25152E-01  5.38971E-01 -2.13819E-01
    8990.058     -4.776   0.880  3.48357E-01  5.52157E-01 -2.03799E-01
    8990.333     -4.502   0.920  3.73055E-01  5.65316E-01 -1.92260E-01
    8990.619     -4.215   0.960  4.00294E-01  5.78473E-01 -1.78179E-01
    8990.918     -3.916   1.000  4.30436E-01  5.91645E-01 -1.61209E-01
    8991.229     -3.606   1.040  4.61053E-01  6.04880E-01 -1.43828E-01
    8991.552     -3.282   1.080  4.87162E-01  6.18139E-01 -1.30978E-01
    8991.887     -2.947   1.120  5.06843E-01  6.31457E-01 -1.24614E-01
    8992.234     -2.600   1.160  5.24062E-01  6.44825E-01 -1.20763E-01
    8992.594     -2.240   1.200  5.42724E-01  6.58250E-01 -1.15527E-01
    8992.966     -1.868   1.240  5.62842E-01  6.71674E-01 -1.08832E-01
    8993.350     -1.484   1.280  5.84548E-01  6.85137E-01 -1.00590E-01
    8993.746     -1.088   1.320  6.08727E-01  6.98598E-01 -8.98712E-02
    8994.155     -0.679   1.360  6.35023E-01  7.12011E-01 -7.69877E-02
    8994.575     -0.259   1.400  6.62353E-01  7.25409E-01 -6.30567E-02
    8995.008      0.174   1.440  6.92195E-01  7.38726E-01 -4.65304E-02
    8995.453      0.619   1.480  7.30174E-01  7.51952E-01 -2.17778E-02
    8995.910      1.076   1.520  7.80525E-01  7.65058E-01  1.54673E-02
    8996.380      1.546   1.560  8.39419E-01  7.78013E-01  6.14057E-02
    8996.861      2.027   1.600  8.96749E-01  7.90807E-01  1.05942E-01
    8997.355      2.521   1.640  9.45139E-01  8.03409E-01  1.41730E-01
    8997.861      3.027   1.680  9.85539E-01  8.15786E-01  1.69753E-01
    8998.379      3.545   1.720  1.02397E+00  8.27909E-01  1.96056E-01
    8998.910      4.075   1.760  1.06680E+00  8.39768E-01  2.27033E-01
    8999.452      4.618   1.800  1.11072E+00  8.51329E-01  2.59388E-01
    9000.007      5.173   1.840  1.13583E+00  8.62585E-01  2.73242E-01
    9000.574      5.740   1.880  1.13300E+00  8.73485E-01  2.59515E-01
    9001.153      6.319   1.920  1.12180E+00  8.84040E-01  2.37762E-01
    9001.744      6.910   1.960  1.11652E+00  8.94223E-01  2.22295E-01
    9002.348      7.514   2.000  1.11657E+00  9.04006E-01  2.12561E-01
    9002.963      8.129   2.040  1.11686E+00  9.13403E-01  2.03459E-01
    9003.591      8.757   2.080  1.11368E+00  9.22367E-01  1.91310E-01
    9004.231      9.397   2.120  1.10267E+00  9.30913E-01  1.71759E-01
    9004.884     10.049   2.160  1.07807E+00  9.38997E-01  1.39069E-01
    9005.548     10.714   2.200  1.04400E+00  9.46657E-01  9.73397E-02
    9006.225     11.391   2.240  1.01737E+00  9.53872E-01  6.34955E-02
    9006.914     12.079   2.280  1.01321E+00  9.60642E-01  5.25656E-02
    9007.615     12.780   2.320  1.03305E+00  9.66964E-01  6.60826E-02
    9008.328     13.494   2.360  1.06656E+00  9.72819E-01  9.37397E-02
    9009.053     14.219   2.400  1.10157E+00  9.78248E-01  1.23327E-01
    9009.791     14.957   2.440  1.12579E+00  9.83216E-01  1.42573E-01
    9010.541     15.707   2.480  1.12854E+00  9.87766E-01  1.40776E-01
    9011.303     16.469   2.520  1.11378E+00  9.91882E-01  1.21898E-01
    9012.077     17.243   2.560  1.09664E+00  9.95588E-01  1.01056E-01
    9012.863     18.029   2.600  1.08477E+00  9.98870E-01  8.59003E-02
    9013.662     18.828   2.640  1.07762E+00  1.00177E+00  7.58430E-02
    9014.473     19.638   2.680  1.07051E+00  1.00431E+00  6.62036E-02
    9015.296     20.461   2.720  1.05550E+00  1.00646E+00  4.90399E-02
    9016.131     21.297   2.760  1.03014E+00  1.00825E+00  2.18915E-02
    9016.978     22.144   2.800  9.98556E-01  1.00973E+00 -1.11756E-02
    9017.838     23.003   2.840  9.65069E-01  1.01088E+00 -4.58066E-02
    9018.709     23.875   2.880  9.33217E-01  1.01173E+00 -7.85095E-02
    9019.593     24.759   2.920  9.05643E-01  1.01227E+00 -1.06630E-01
    9020.489     25.655   2.960  8.85656E-01  1.01256E+00 -1.26908E-01
    9021.398     26.563   3.000  8.76500E-01  1.01261E+00 -1.36111E-01
    9022.318     27.484   3.040  8.80003E-01  1.01242E+00 -1.32418E-01
    9023.251     28.417   3.080  8.89000E-01  1.01202E+00 -1.23022E-01
    9024.196     29.361   3.120  8.96953E-01  1.01140E+00 -1.14450E-01
    9025.153     30.319   3.160  9.03137E-01  1.01063E+00 -1.07495E-01
    9026.122     31.288   3.200  9.07565E-01  1.00968E+00 -1.02113E-01
    9027.103     32.269   3.240  9.10908E-01  1.00857E+00 -9.76611E-02
    9028.097     33.263   3.280  9.14192E-01  1.00735E+00 -9.31620E-02
    9029.103     34.269   3.320  9.18121E-01  1.00600E+00 -8.78786E-02
    9030.121     35.287   3.360  9.22695E-01  1.00455E+00 -8.18586E-02
    9031.151     36.317   3.400  9.27530E-01  1.00302E+00 -7.54927E-02
    9032.194     37.359   3.440  9.32200E-01  1.00141E+00 -6.92136E-02
    9033.248     38.414   3.480  9.36479E-01  9.99735E-01 -6.32557E-02
    9034.315     39.481   3.520  9.40571E-01  9.98032E-01 -5.74607E-02
    9035.394     40.560   3.560  9.44725E-01  9.96269E-01 -5.15445E-02
    9036.485     41.651   3.600  9.49055E-01  9.94495E-01 -4.54400E-02
    9037.589     42.754   3.640  9.53676E-01  9.92716E-01 -3.90394E-02
    9038.704     43.870   3.680  9.58598E-01  9.90935E-01 -3.23367E-02
    9039.832     44.998   3.720  9.63800E-01  9.89159E-01 -2.53585E-02
    9040.972     46.138   3.760  9.69335E-01  9.87410E-01 -1.80753E-02
    9042.124     47.290   3.800  9.75211E-01  9.85674E-01 -1.04624E-02
    9043.288     48.454   3.840  9.81354E-01  9.83995E-01 -2.64132E-03
    9044.465     49.631   3.880  9.87561E-01  9.82336E-01  5.22445E-03
    9045.653     50.819   3.920  9.93712E-01  9.80740E-01  1.29720E-02
    9046.854     52.020   3.960  9.99630E-01  9.79189E-01  2.04407E-02
    9048.068     53.233   4.000  1.00523E+00  9.77687E-01  2.75388E-02
    9049.293     54.459   4.040  1.01052E+00  9.76278E-01  3.42416E-02
    9050.530     55.696   4.080  1.01552E+00  9.74923E-01  4.05944E-02
    9051.780     56.946   4.120  1.02030E+00  9.73641E-01  4.66544E-02
    9053.042     58.208   4.160  1.02493E+00  9.72416E-01  5.25165E-02
    9054.316     59.482   4.200  1.02942E+00  9.71291E-01  5.81262E-02
    9055.602     60.768   4.240  1.03345E+00  9.70250E-01  6.32029E-02
    9056.901     62.066   4.280  1.03666E+00  9.69311E-01  6.73542E-02
    9058.211     63.377   4.320  1.03863E+00  9.68432E-01  7.01980E-02
    9059.534     64.700   4.360  1.03910E+00  9.67657E-01  7.14423E-02
    9060.869     66.035   4.400  1.03791E+00  9.66964E-01  7.09492E-02
    9062.216     67.382   4.440  1.03516E+00  9.66353E-01  6.88103E-02
    9063.576     68.741   4.480  1.03106E+00  9.65823E-01  6.52322E-02
    9064.947     70.113   4.520  1.02587E+00  9.65376E-01  6.04953E-02
    9066.331     71.497   4.560  1.01993E+00  9.65031E-01  5.48952E-02
    9067.727     72.893   4.600  1.01337E+00  9.64767E-01  4.86021E-02
    9069.135     74.301   4.640  1.00626E+00  9.64563E-01  4.16932E-02
    9070.556     75.721   4.680  9.98699E-01  9.64459E-01  3.42399E-02
    9071.988     77.154   4.720  9.90763E-01  9.64435E-01  2.63287E-02
    9073.433     78.599   4.760  9.82589E-01  9.64487E-01  1.81012E-02
    9074.890     80.056   4.800  9.74356E-01  9.64595E-01  9.76121E-03
    9076.359     81.525   4.840  9.66333E-01  9.64797E-01  1.53536E-03
    9077.840     83.006   4.880  9.58747E-01  9.65051E-01 -6.30367E-03
    9079.334     84.500   4.920  9.51893E-01  9.65354E-01 -1.34609E-02
    9080.839     86.005   4.960  9.46054E-01  9.65725E-01 -1.96713E-02
    9082.357     87.523   5.000  9.41402E-01  9.66164E-01 -2.47621E-02
    9083.887     89.053   5.040  9.37849E-01  9.66625E-01 -2.87756E-02
    9085.430     90.596   5.080  9.35233E-01  9.67150E-01 -3.19166E-02
    9086.984     92.150   5.120  9.33221E-01  9.67713E-01 -3.44926E-02
    9088.551     93.717   5.160  9.31482E-01  9.68292E-01 -3.68099E-02
    9090.130     95.296   5.200  9.29839E-01  9.68928E-01 -3.90883E-02
    9091.721     96.887   5.240  9.28134E-01  9.69574E-01 -4.14400E-02
    9093.324     98.490   5.280  9.26455E-01  9.70228E-01 -4.37732E-02
    9094.939    100.105   5.320  9.25071E-01  9.70911E-01 -4.58398E-02
    9096.567    101.733   5.360  9.24290E-01  9.71599E-01 -4.73094E-02
    9098.207    103.373   5.400  9.24364E-01  9.72311E-01 -4.79478E-02
    9099.859    105.025   5.440  9.25351E-01  9.73001E-01 -4.76497E-02
    9101.523    106.689   5.480  9.27215E-01  9.73686E-01 -4.64713E-02
    9103.199    108.365   5.520  9.29818E-01  9.74365E-01 -4.45463E-02
    9104.888    110.054   5.560  9.32968E-01  9.75015E-01 -4.20465E-02
    9106.589    111.755   5.600  9.36565E-01  9.75657E-01 -3.90924E-02
    9108.302    113.468   5.640  9.40559E-01  9.76288E-01 -3.57288E-02
    9110.027    115.193   5.680  9.44958E-01  9.76861E-01 -3.19032E-02
    9111.764    116.930   5.720  9.49924E-01  9.77418E-01 -2.74949E-02
    9113.514    118.680   5.760  9.55583E-01  9.77936E-01 -2.23537E-02
    9115.276    120.441   5.800  9.62007E-01  9.78391E-01 -1.63838E-02
    9117.050    122.215   5.840  9.69218E-01  9.78826E-01 -9.60777E-03
    9118.836    124.001   5.880  9.76985E-01  9.79217E-01 -2.23192E-03
    9120.634    125.800   5.920  9.84892E-01  9.79537E-01  5.35578E-03
    9122.444    127.610   5.960  9.92409E-01  9.79798E-01  1.26114E-02
    9124.267    129.433   6.000  9.98982E-01  9.79958E-01  1.90237E-02
