# # comment:                                                     FEFF 9.9.1  
# # Source:
# # Structure
# # Reduced
# # space
# # abc:
# # angles:118.085306
# # sites:
# # POT  SCF 100  7.0000   0, screened core-hole, AFOLP (folp(0)= 1.150)
# # Abs   Z=29 Rmt= 1.198 Rnm= 1.281 K  shell
# # Pot 1 Z=57 Rmt= 1.756 Rnm= 1.833
# # Pot 2 Z=29 Rmt= 1.206 Rnm= 1.280
# # Pot 3 Z= 8 Rmt= 1.053 Rnm= 1.100
# # Gam_ch=1.729E+00 H-L exch Vi= 0.000E+00 Vr= 0.000E+00
# # Mu=-8.409E+00eV kf=2.072E+00 Vint=-1.835E+01eV Rs_int= 1.750
# FMS rfms= 9.0000
# # PATH  Rmax=-1.000,  Keep_limit= 0.00, Heap_limit 0.00  Pwcrit= 2.50%
#  S02=0.950  Temp=   0.00  Debye_temp=   0.00  Global_sig2= 0.00000
#  Energy zero shift, vr, vi    0.00000E+00   0.00000E+00
#  Curved wave amplitude ratio filter   4.000%
#     file         sig2 tot  cw amp ratio   deg  nlegs   reff  inp sig2
#     0/   0 paths used
#  xsedge+ 50, used to normalize mu           2.4555E-04
#  -----------------------------------------------------------------------
#  omega    e    k    mu    mu0     chi     @#
    8985.083    -12.219  -1.000  4.19966E-02  5.70054E-02 -1.50088E-02
    8985.382    -11.920  -0.960  4.44449E-02  6.12506E-02 -1.68057E-02
    8985.668    -11.634  -0.920  4.71188E-02  6.59773E-02 -1.88586E-02
    8985.942    -11.360  -0.880  5.00491E-02  7.12571E-02 -2.12080E-02
    8986.204    -11.097  -0.840  5.32723E-02  7.71738E-02 -2.39015E-02
    8986.454    -10.847  -0.800  5.68304E-02  8.38241E-02 -2.69937E-02
    8986.692    -10.610  -0.760  6.07719E-02  9.13195E-02 -3.05476E-02
    8986.918    -10.384  -0.720  6.51520E-02  9.97861E-02 -3.46341E-02
    8987.131    -10.171  -0.680  7.00314E-02  1.09363E-01 -3.93312E-02
    8987.332     -9.970  -0.640  7.54747E-02  1.20196E-01 -4.47213E-02
    8987.521     -9.781  -0.600  8.15457E-02  1.32430E-01 -5.08848E-02
    8987.698     -9.604  -0.560  8.82993E-02  1.46190E-01 -5.78906E-02
    8987.863     -9.439  -0.520  9.57693E-02  1.61548E-01 -6.57788E-02
    8988.015     -9.287  -0.480  1.03951E-01  1.78490E-01 -7.45393E-02
    8988.155     -9.147  -0.440  1.12782E-01  1.96868E-01 -8.40858E-02
    8988.283     -9.019  -0.400  1.22122E-01  2.16357E-01 -9.42355E-02
    8988.399     -8.903  -0.360  1.31748E-01  2.36452E-01 -1.04704E-01
    8988.503     -8.799  -0.320  1.41366E-01  2.56494E-01 -1.15128E-01
    8988.594     -8.708  -0.280  1.50637E-01  2.75750E-01 -1.25113E-01
    8988.673     -8.629  -0.240  1.59230E-01  2.93519E-01 -1.34290E-01
    8988.740     -8.561  -0.200  1.66855E-01  3.09216E-01 -1.42361E-01
    8988.795     -8.507  -0.160  1.73293E-01  3.22412E-01 -1.49119E-01
    8988.838     -8.464  -0.120  1.78400E-01  3.32838E-01 -1.54437E-01
    8988.868     -8.433  -0.080  1.82094E-01  3.40344E-01 -1.58251E-01
    8988.893     -8.409   0.000  1.85082E-01  3.46373E-01 -1.61291E-01
    8988.948     -8.354   0.120  1.91614E-01  3.59958E-01 -1.68344E-01
    8988.990     -8.312   0.160  1.96680E-01  3.70503E-01 -1.73823E-01
    8989.045     -8.257   0.200  2.03088E-01  3.83945E-01 -1.80857E-01
    8989.112     -8.190   0.240  2.10717E-01  4.00107E-01 -1.89390E-01
    8989.192     -8.110   0.280  2.19270E-01  4.18628E-01 -1.99358E-01
    8989.283     -8.019   0.320  2.28313E-01  4.39014E-01 -2.10702E-01
    8989.387     -7.915   0.360  2.37264E-01  4.60633E-01 -2.23369E-01
    8989.502     -7.799   0.400  2.45457E-01  4.82833E-01 -2.37376E-01
    8989.630     -7.671   0.440  2.52365E-01  5.05004E-01 -2.52639E-01
    8989.771     -7.531   0.480  2.57847E-01  5.26707E-01 -2.68861E-01
    8989.923     -7.379   0.520  2.62219E-01  5.47611E-01 -2.85392E-01
    8990.088     -7.214   0.560  2.66375E-01  5.67580E-01 -3.01205E-01
    8990.264     -7.037   0.600  2.71566E-01  5.86581E-01 -3.15015E-01
    8990.453     -6.848   0.640  2.79068E-01  6.04678E-01 -3.25610E-01
    8990.655     -6.647   0.680  2.89853E-01  6.21938E-01 -3.32085E-01
    8990.868     -6.434   0.720  3.04668E-01  6.38505E-01 -3.33837E-01
    8991.093     -6.208   0.760  3.23897E-01  6.54440E-01 -3.30542E-01
    8991.331     -5.971   0.800  3.47505E-01  6.69876E-01 -3.22371E-01
    8991.581     -5.721   0.840  3.74430E-01  6.84890E-01 -3.10460E-01
    8991.843     -5.459   0.880  4.02372E-01  6.99523E-01 -2.97151E-01
    8992.118     -5.184   0.920  4.27563E-01  7.13825E-01 -2.86262E-01
    8992.404     -4.898   0.960  4.46586E-01  7.27849E-01 -2.81264E-01
    8992.703     -4.599   1.000  4.59553E-01  7.41598E-01 -2.82045E-01
    8993.014     -4.288   1.040  4.69396E-01  7.55104E-01 -2.85709E-01
    8993.337     -3.965   1.080  4.78353E-01  7.68373E-01 -2.90021E-01
    8993.672     -3.630   1.120  4.88352E-01  7.81383E-01 -2.93031E-01
    8994.020     -3.282   1.160  5.03238E-01  7.94144E-01 -2.90905E-01
    8994.379     -2.923   1.200  5.29109E-01  8.06625E-01 -2.77516E-01
    8994.751     -2.551   1.240  5.71767E-01  8.18829E-01 -2.47062E-01
    8995.135     -2.167   1.280  6.32039E-01  8.30738E-01 -1.98699E-01
    8995.531     -1.771   1.320  7.02703E-01  8.42333E-01 -1.39629E-01
    8995.940     -1.362   1.360  7.67438E-01  8.53591E-01 -8.61531E-02
    8996.360     -0.941   1.400  8.04973E-01  8.64510E-01 -5.95362E-02
    8996.793     -0.509   1.440  8.09357E-01  8.75065E-01 -6.57073E-02
    8997.238     -0.064   1.480  8.03642E-01  8.85232E-01 -8.15908E-02
    8997.695      0.394   1.520  8.14934E-01  8.94991E-01 -8.00571E-02
    8998.165      0.863   1.560  8.54333E-01  9.04357E-01 -5.00243E-02
    8998.646      1.345   1.600  9.23354E-01  9.13307E-01  1.00468E-02
    8999.140      1.838   1.640  1.02426E+00  9.21821E-01  1.02442E-01
    8999.646      2.344   1.680  1.15536E+00  9.29918E-01  2.25438E-01
    9000.164      2.862   1.720  1.29616E+00  9.37576E-01  3.58584E-01
    9000.695      3.393   1.760  1.40956E+00  9.44776E-01  4.64787E-01
    9001.237      3.935   1.800  1.46076E+00  9.51561E-01  5.09199E-01
    9001.792      4.490   1.840  1.43669E+00  9.57892E-01  4.78802E-01
    9002.359      5.057   1.880  1.36555E+00  9.63813E-01  4.01733E-01
    9002.938      5.636   1.920  1.28511E+00  9.69288E-01  3.15819E-01
    9003.529      6.227   1.960  1.21068E+00  9.74363E-01  2.36320E-01
    9004.133      6.831   2.000  1.14926E+00  9.79020E-01  1.70240E-01
    9004.748      7.447   2.040  1.11475E+00  9.83268E-01  1.31483E-01
    9005.376      8.074   2.080  1.11218E+00  9.87132E-01  1.25046E-01
    9006.016      8.715   2.120  1.12705E+00  9.90643E-01  1.36408E-01
    9006.669      9.367   2.160  1.14300E+00  9.93786E-01  1.49209E-01
    9007.333     10.031   2.200  1.15530E+00  9.96589E-01  1.58715E-01
    9008.010     10.708   2.240  1.16660E+00  9.99061E-01  1.67539E-01
    9008.699     11.397   2.280  1.17377E+00  1.00123E+00  1.72544E-01
    9009.400     12.098   2.320  1.16786E+00  1.00308E+00  1.64772E-01
    9010.113     12.811   2.360  1.14668E+00  1.00467E+00  1.42008E-01
    9010.838     13.536   2.400  1.12117E+00  1.00601E+00  1.15160E-01
    9011.576     14.274   2.440  1.10399E+00  1.00710E+00  9.68990E-02
    9012.326     15.024   2.480  1.09740E+00  1.00794E+00  8.94516E-02
    9013.088     15.786   2.520  1.09337E+00  1.00860E+00  8.47639E-02
    9013.862     16.560   2.560  1.08529E+00  1.00906E+00  7.62357E-02
    9014.648     17.346   2.600  1.07482E+00  1.00932E+00  6.54977E-02
    9015.447     18.145   2.640  1.06370E+00  1.00944E+00  5.42562E-02
    9016.258     18.956   2.680  1.05270E+00  1.00940E+00  4.32947E-02
    9017.081     19.779   2.720  1.04143E+00  1.00923E+00  3.21961E-02
    9017.916     20.614   2.760  1.02851E+00  1.00896E+00  1.95455E-02
    9018.763     21.461   2.800  1.01288E+00  1.00856E+00  4.32177E-03
    9019.623     22.321   2.840  9.94579E-01  1.00809E+00 -1.35058E-02
    9020.494     23.192   2.880  9.74733E-01  1.00753E+00 -3.27968E-02
    9021.378     24.076   2.920  9.54460E-01  1.00690E+00 -5.24389E-02
    9022.274     24.973   2.960  9.34755E-01  1.00622E+00 -7.14625E-02
    9023.183     25.881   3.000  9.16601E-01  1.00549E+00 -8.88912E-02
    9024.103     26.801   3.040  9.00616E-01  1.00473E+00 -1.04112E-01
    9025.036     27.734   3.080  8.87144E-01  1.00395E+00 -1.16806E-01
    9025.981     28.679   3.120  8.76548E-01  1.00314E+00 -1.26592E-01
    9026.938     29.636   3.160  8.68780E-01  1.00232E+00 -1.33545E-01
    9027.907     30.605   3.200  8.63701E-01  1.00151E+00 -1.37806E-01
    9028.889     31.587   3.240  8.61298E-01  1.00069E+00 -1.39393E-01
    9029.882     32.580   3.280  8.61346E-01  9.99900E-01 -1.38554E-01
    9030.888     33.586   3.320  8.63526E-01  9.99118E-01 -1.35592E-01
    9031.906     34.604   3.360  8.67477E-01  9.98366E-01 -1.30889E-01
    9032.936     35.634   3.400  8.72734E-01  9.97627E-01 -1.24893E-01
    9033.979     36.677   3.440  8.78502E-01  9.96923E-01 -1.18421E-01
    9035.033     37.731   3.480  8.84517E-01  9.96280E-01 -1.11762E-01
    9036.100     38.798   3.520  8.91043E-01  9.95656E-01 -1.04612E-01
    9037.179     39.877   3.560  8.98803E-01  9.95093E-01 -9.62900E-02
    9038.270     40.968   3.600  9.08450E-01  9.94550E-01 -8.61004E-02
    9039.374     42.072   3.640  9.20396E-01  9.94071E-01 -7.36746E-02
    9040.489     43.187   3.680  9.34497E-01  9.93636E-01 -5.91393E-02
    9041.617     44.315   3.720  9.50009E-01  9.93247E-01 -4.32386E-02
    9042.757     45.455   3.760  9.66120E-01  9.92924E-01 -2.68045E-02
    9043.909     46.607   3.800  9.81991E-01  9.92647E-01 -1.06554E-02
    9045.073     47.771   3.840  9.96702E-01  9.92415E-01  4.28720E-03
    9046.250     48.948   3.880  1.00952E+00  9.92251E-01  1.72731E-02
    9047.439     50.137   3.920  1.01995E+00  9.92133E-01  2.78204E-02
    9048.639     51.338   3.960  1.02784E+00  9.92060E-01  3.57849E-02
    9049.853     52.551   4.000  1.03349E+00  9.92053E-01  4.14408E-02
    9051.078     53.776   4.040  1.03757E+00  9.92090E-01  4.54757E-02
    9052.315     55.013   4.080  1.04095E+00  9.92171E-01  4.87762E-02
    9053.565     56.263   4.120  1.04441E+00  9.92294E-01  5.21120E-02
    9054.827     57.525   4.160  1.04852E+00  9.92458E-01  5.60601E-02
    9056.101     58.799   4.200  1.05342E+00  9.92683E-01  6.07325E-02
    9057.387     60.085   4.240  1.05870E+00  9.92928E-01  6.57707E-02
    9058.686     61.384   4.280  1.06369E+00  9.93211E-01  7.04754E-02
    9059.996     62.694   4.320  1.06767E+00  9.93532E-01  7.41340E-02
    9061.319     64.017   4.360  1.07009E+00  9.93911E-01  7.61805E-02
    9062.654     65.352   4.400  1.07057E+00  9.94284E-01  7.62908E-02
    9064.001     66.699   4.440  1.06932E+00  9.94710E-01  7.46124E-02
    9065.361     68.059   4.480  1.06673E+00  9.95149E-01  7.15817E-02
    9066.732     69.430   4.520  1.06349E+00  9.95617E-01  6.78708E-02
    9068.116     70.814   4.560  1.06026E+00  9.96092E-01  6.41648E-02
    9069.512     72.210   4.600  1.05747E+00  9.96572E-01  6.08964E-02
    9070.920     73.618   4.640  1.05526E+00  9.97079E-01  5.81827E-02
    9072.341     75.039   4.680  1.05348E+00  9.97590E-01  5.58904E-02
    9073.773     76.471   4.720  1.05173E+00  9.98103E-01  5.36294E-02
    9075.218     77.916   4.760  1.04938E+00  9.98613E-01  5.07627E-02
    9076.675     79.373   4.800  1.04565E+00  9.99124E-01  4.65285E-02
    9078.144     80.842   4.840  1.03985E+00  9.99631E-01  4.02232E-02
    9079.625     82.323   4.880  1.03163E+00  1.00013E+00  3.14964E-02
    9081.119     83.817   4.920  1.02114E+00  1.00061E+00  2.05270E-02
    9082.625     85.323   4.960  1.00911E+00  1.00110E+00  8.00725E-03
    9084.142     86.841   5.000  9.96573E-01  1.00154E+00 -4.96908E-03
    9085.673     88.371   5.040  9.84901E-01  1.00199E+00 -1.70932E-02
    9087.215     89.913   5.080  9.75267E-01  1.00241E+00 -2.71453E-02
    9088.769     91.467   5.120  9.68500E-01  1.00280E+00 -3.42964E-02
    9090.336     93.034   5.160  9.64755E-01  1.00315E+00 -3.83899E-02
    9091.915     94.613   5.200  9.63614E-01  1.00348E+00 -3.98665E-02
    9093.506     96.204   5.240  9.64116E-01  1.00378E+00 -3.96657E-02
    9095.109     97.807   5.280  9.65149E-01  1.00407E+00 -3.89179E-02
    9096.725     99.423   5.320  9.65630E-01  1.00429E+00 -3.86624E-02
    9098.352    101.050   5.360  9.64949E-01  1.00450E+00 -3.95521E-02
    9099.992    102.690   5.400  9.62965E-01  1.00467E+00 -4.17066E-02
    9101.644    104.342   5.440  9.60102E-01  1.00480E+00 -4.46977E-02
    9103.308    106.006   5.480  9.57173E-01  1.00486E+00 -4.76898E-02
    9104.985    107.683   5.520  9.55197E-01  1.00491E+00 -4.97126E-02
    9106.673    109.371   5.560  9.54797E-01  1.00492E+00 -5.01217E-02
    9108.374    111.072   5.600  9.56035E-01  1.00489E+00 -4.88512E-02
    9110.087    112.785   5.640  9.58443E-01  1.00481E+00 -4.63702E-02
    9111.812    114.510   5.680  9.61334E-01  1.00470E+00 -4.33660E-02
    9113.549    116.248   5.720  9.64116E-01  1.00455E+00 -4.04313E-02
    9115.299    117.997   5.760  9.66556E-01  1.00436E+00 -3.78026E-02
    9117.061    119.759   5.800  9.68765E-01  1.00415E+00 -3.53879E-02
    9118.835    121.533   5.840  9.70939E-01  1.00389E+00 -3.29470E-02
    9120.621    123.319   5.880  9.73271E-01  1.00358E+00 -3.03074E-02
    9122.419    125.117   5.920  9.75852E-01  1.00324E+00 -2.73864E-02
    9124.230    126.928   5.960  9.78857E-01  1.00289E+00 -2.40324E-02
    9126.052    128.750   6.000  9.82754E-01  1.00248E+00 -1.97291E-02
