# # comment:                                                     FEFF 9.9.1  
# # Source:
# # Structure
# # Reduced
# # space
# # abc:
# # angles:
# # sites:
# # POT  SCF 100  7.0000   0, screened core-hole, AFOLP (folp(0)= 1.150)
# # Abs   Z=29 Rmt= 1.277 Rnm= 1.340 K  shell
# # Pot 1 Z=29 Rmt= 1.277 Rnm= 1.340
# # Pot 2 Z= 5 Rmt= 0.844 Rnm= 1.006
# # Pot 3 Z= 8 Rmt= 0.871 Rnm= 1.012
# # Gam_ch=1.729E+00 H-L exch Vi= 0.000E+00 Vr= 0.000E+00
# # Mu=-4.540E+00eV kf=2.537E+00 Vint=-1.915E+01eV Rs_int= 1.430
# FMS rfms= 9.0000
# # PATH  Rmax=-1.000,  Keep_limit= 0.00, Heap_limit 0.00  Pwcrit= 2.50%
#  S02=0.950  Temp=   0.00  Debye_temp=   0.00  Global_sig2= 0.00000
#  Energy zero shift, vr, vi    0.00000E+00   0.00000E+00
#  Curved wave amplitude ratio filter   4.000%
#     file         sig2 tot  cw amp ratio   deg  nlegs   reff  inp sig2
#     0/   0 paths used
#  xsedge+ 50, used to normalize mu           2.5109E-04
#  -----------------------------------------------------------------------
#  omega    e    k    mu    mu0     chi     @#
    8983.303     -8.350  -1.000  4.97981E-02  5.31293E-02 -3.33123E-03
    8983.602     -8.051  -0.960  5.31701E-02  5.70488E-02 -3.87865E-03
    8983.888     -7.764  -0.920  5.68939E-02  6.14143E-02 -4.52038E-03
    8984.163     -7.490  -0.880  6.10187E-02  6.62928E-02 -5.27410E-03
    8984.425     -7.228  -0.840  6.56016E-02  7.17626E-02 -6.16101E-03
    8984.675     -6.978  -0.800  7.07081E-02  7.79145E-02 -7.20649E-03
    8984.913     -6.740  -0.760  7.64124E-02  8.48530E-02 -8.44060E-03
    8985.138     -6.515  -0.720  8.27980E-02  9.26964E-02 -9.89844E-03
    8985.351     -6.301  -0.680  8.99554E-02  1.01575E-01 -1.16199E-02
    8985.553     -6.100  -0.640  9.79796E-02  1.11628E-01 -1.36484E-02
    8985.742     -5.911  -0.600  1.06963E-01  1.22991E-01 -1.60275E-02
    8985.918     -5.735  -0.560  1.16986E-01  1.35780E-01 -1.87946E-02
    8986.083     -5.570  -0.520  1.28096E-01  1.50067E-01 -2.19705E-02
    8986.235     -5.418  -0.480  1.40293E-01  1.65838E-01 -2.55451E-02
    8986.376     -5.277  -0.440  1.53493E-01  1.82954E-01 -2.94609E-02
    8986.504     -5.149  -0.400  1.67511E-01  2.01112E-01 -3.36015E-02
    8986.619     -5.033  -0.360  1.82044E-01  2.19838E-01 -3.77934E-02
    8986.723     -4.930  -0.320  1.96682E-01  2.38511E-01 -4.18287E-02
    8986.814     -4.838  -0.280  2.10942E-01  2.56447E-01 -4.55053E-02
    8986.894     -4.759  -0.240  2.24321E-01  2.72990E-01 -4.86690E-02
    8986.961     -4.692  -0.200  2.36353E-01  2.87594E-01 -5.12401E-02
    8987.016     -4.637  -0.160  2.46650E-01  2.99863E-01 -5.32127E-02
    8987.058     -4.595  -0.120  2.54919E-01  3.09549E-01 -5.46301E-02
    8987.089     -4.564  -0.080  2.60968E-01  3.16520E-01 -5.55515E-02
    8987.113     -4.540   0.000  2.65959E-01  3.22115E-01 -5.61565E-02
    8987.168     -4.485   0.120  2.77227E-01  3.34709E-01 -5.74825E-02
    8987.211     -4.442   0.160  2.85974E-01  3.44488E-01 -5.85138E-02
    8987.266     -4.387   0.200  2.97237E-01  3.56928E-01 -5.96918E-02
    8987.333     -4.320   0.240  3.10982E-01  3.71854E-01 -6.08720E-02
    8987.412     -4.241   0.280  3.27026E-01  3.88907E-01 -6.18807E-02
    8987.503     -4.150   0.320  3.45075E-01  4.07624E-01 -6.25494E-02
    8987.607     -4.046   0.360  3.64616E-01  4.27390E-01 -6.27739E-02
    8987.723     -3.930   0.400  3.84955E-01  4.47575E-01 -6.26203E-02
    8987.851     -3.802   0.440  4.05100E-01  4.67609E-01 -6.25081E-02
    8987.991     -3.662   0.480  4.23585E-01  4.87050E-01 -6.34655E-02
    8988.143     -3.509   0.520  4.38457E-01  5.05622E-01 -6.71647E-02
    8988.308     -3.345   0.560  4.47912E-01  5.23177E-01 -7.52652E-02
    8988.485     -3.168   0.600  4.51749E-01  5.39709E-01 -8.79603E-02
    8988.674     -2.979   0.640  4.52402E-01  5.55286E-01 -1.02884E-01
    8988.875     -2.778   0.680  4.54325E-01  5.70001E-01 -1.15676E-01
    8989.088     -2.565   0.720  4.62147E-01  5.84002E-01 -1.21855E-01
    8989.314     -2.339   0.760  4.78532E-01  5.97394E-01 -1.18862E-01
    8989.552     -2.101   0.800  5.03116E-01  6.10298E-01 -1.07182E-01
    8989.802     -1.851   0.840  5.32825E-01  6.22800E-01 -8.99741E-02
    8990.064     -1.589   0.880  5.63664E-01  6.34990E-01 -7.13258E-02
    8990.338     -1.315   0.920  5.92257E-01  6.46945E-01 -5.46879E-02
    8990.624     -1.028   0.960  6.16022E-01  6.58709E-01 -4.26870E-02
    8990.923     -0.730   1.000  6.33395E-01  6.70317E-01 -3.69229E-02
    8991.234     -0.419   1.040  6.45384E-01  6.81832E-01 -3.64480E-02
    8991.557     -0.096   1.080  6.54760E-01  6.93268E-01 -3.85082E-02
    8991.892      0.240   1.120  6.63705E-01  7.04612E-01 -4.09067E-02
    8992.240      0.587   1.160  6.73666E-01  7.15927E-01 -4.22618E-02
    8992.600      0.947   1.200  6.85476E-01  7.27190E-01 -4.17139E-02
    8992.971      1.319   1.240  6.98477E-01  7.38412E-01 -3.99350E-02
    8993.355      1.703   1.280  7.11357E-01  7.49563E-01 -3.82056E-02
    8993.752      2.099   1.320  7.23737E-01  7.60686E-01 -3.69496E-02
    8994.160      2.507   1.360  7.36300E-01  7.71728E-01 -3.54277E-02
    8994.581      2.928   1.400  7.56752E-01  7.82708E-01 -2.59562E-02
    8995.014      3.361   1.440  7.97976E-01  7.93603E-01  4.37272E-03
    8995.459      3.806   1.480  8.64391E-01  8.04394E-01  5.99970E-02
    8995.916      4.263   1.520  9.35967E-01  8.15055E-01  1.20913E-01
    8996.385      4.732   1.560  9.73768E-01  8.25601E-01  1.48166E-01
    8996.867      5.214   1.600  9.62530E-01  8.35988E-01  1.26542E-01
    8997.361      5.708   1.640  9.36113E-01  8.46210E-01  8.99029E-02
    8997.866      6.214   1.680  9.35329E-01  8.56240E-01  7.90896E-02
    8998.385      6.732   1.720  9.64157E-01  8.66091E-01  9.80661E-02
    8998.915      7.262   1.760  1.00330E+00  8.75696E-01  1.27600E-01
    8999.458      7.805   1.800  1.03540E+00  8.85068E-01  1.50337E-01
    9000.012      8.359   1.840  1.04936E+00  8.94200E-01  1.55162E-01
    9000.579      8.926   1.880  1.05717E+00  9.03047E-01  1.54123E-01
    9001.158      9.505   1.920  1.08444E+00  9.11621E-01  1.72818E-01
    9001.750     10.097   1.960  1.13306E+00  9.19896E-01  2.13160E-01
    9002.353     10.700   2.000  1.18754E+00  9.27846E-01  2.59693E-01
    9002.969     11.316   2.040  1.23360E+00  9.35486E-01  2.98117E-01
    9003.597     11.944   2.080  1.25207E+00  9.42771E-01  3.09299E-01
    9004.237     12.584   2.120  1.23916E+00  9.49718E-01  2.89438E-01
    9004.889     13.236   2.160  1.22491E+00  9.56323E-01  2.68587E-01
    9005.554     13.901   2.200  1.24312E+00  9.62563E-01  2.80554E-01
    9006.230     14.577   2.240  1.28671E+00  9.68437E-01  3.18273E-01
    9006.919     15.266   2.280  1.31233E+00  9.73942E-01  3.38388E-01
    9007.620     15.967   2.320  1.29657E+00  9.79078E-01  3.17487E-01
    9008.333     16.680   2.360  1.25299E+00  9.83846E-01  2.69147E-01
    9009.059     17.406   2.400  1.18611E+00  9.88246E-01  1.97861E-01
    9009.796     18.143   2.440  1.10380E+00  9.92281E-01  1.11522E-01
    9010.546     18.893   2.480  1.03218E+00  9.95949E-01  3.62334E-02
    9011.308     19.655   2.520  9.86264E-01  9.99258E-01 -1.29931E-02
    9012.082     20.429   2.560  9.54055E-01  1.00223E+00 -4.81720E-02
    9012.869     21.216   2.600  9.16806E-01  1.00484E+00 -8.80360E-02
    9013.667     22.014   2.640  8.76013E-01  1.00713E+00 -1.31114E-01
    9014.478     22.825   2.680  8.46246E-01  1.00907E+00 -1.62820E-01
    9015.301     23.648   2.720  8.32916E-01  1.01071E+00 -1.77791E-01
    9016.136     24.483   2.760  8.29290E-01  1.01205E+00 -1.82763E-01
    9016.983     25.331   2.800  8.26392E-01  1.01309E+00 -1.86700E-01
    9017.843     26.190   2.840  8.26143E-01  1.01385E+00 -1.87708E-01
    9018.715     27.062   2.880  8.30526E-01  1.01435E+00 -1.83828E-01
    9019.599     27.946   2.920  8.37683E-01  1.01461E+00 -1.76928E-01
    9020.495     28.842   2.960  8.46554E-01  1.01461E+00 -1.68055E-01
    9021.403     29.750   3.000  8.57061E-01  1.01441E+00 -1.57353E-01
    9022.324     30.671   3.040  8.69414E-01  1.01399E+00 -1.44580E-01
    9023.256     31.603   3.080  8.83243E-01  1.01338E+00 -1.30134E-01
    9024.201     32.548   3.120  8.98430E-01  1.01261E+00 -1.14181E-01
    9025.158     33.505   3.160  9.14713E-01  1.01166E+00 -9.69494E-02
    9026.127     34.475   3.200  9.31562E-01  1.01056E+00 -7.89950E-02
    9027.109     35.456   3.240  9.48117E-01  1.00932E+00 -6.12067E-02
    9028.103     36.450   3.280  9.63488E-01  1.00799E+00 -4.45041E-02
    9029.108     37.455   3.320  9.76640E-01  1.00653E+00 -2.98855E-02
    9030.126     38.473   3.360  9.86677E-01  1.00499E+00 -1.83180E-02
    9031.157     39.504   3.400  9.92695E-01  1.00338E+00 -1.06880E-02
    9032.199     40.546   3.440  9.94093E-01  1.00170E+00 -7.60696E-03
    9033.254     41.601   3.480  9.91477E-01  9.99969E-01 -8.49186E-03
    9034.320     42.668   3.520  9.86922E-01  9.98195E-01 -1.12729E-02
    9035.399     43.746   3.560  9.82980E-01  9.96387E-01 -1.34065E-02
    9036.491     44.838   3.600  9.81540E-01  9.94570E-01 -1.30302E-02
    9037.594     45.941   3.640  9.83249E-01  9.92750E-01 -9.50080E-03
    9038.710     47.057   3.680  9.87793E-01  9.90932E-01 -3.13956E-03
    9039.837     48.184   3.720  9.94356E-01  9.89140E-01  5.21626E-03
    9040.977     49.324   3.760  1.00201E+00  9.87358E-01  1.46551E-02
    9042.129     50.476   3.800  1.01016E+00  9.85611E-01  2.45449E-02
    9043.294     51.641   3.840  1.01827E+00  9.83901E-01  3.43742E-02
    9044.470     52.817   3.880  1.02570E+00  9.82231E-01  4.34685E-02
    9045.659     54.006   3.920  1.03153E+00  9.80607E-01  5.09220E-02
    9046.860     55.207   3.960  1.03477E+00  9.79052E-01  5.57222E-02
    9048.073     56.420   4.000  1.03464E+00  9.77569E-01  5.70713E-02
    9049.298     57.645   4.040  1.03099E+00  9.76140E-01  5.48478E-02
    9050.536     58.883   4.080  1.02455E+00  9.74808E-01  4.97456E-02
    9051.785     60.132   4.120  1.01677E+00  9.73533E-01  4.32370E-02
    9053.047     61.394   4.160  1.00959E+00  9.72337E-01  3.72514E-02
    9054.321     62.668   4.200  1.00490E+00  9.71244E-01  3.36568E-02
    9055.608     63.955   4.240  1.00380E+00  9.70233E-01  3.35713E-02
    9056.906     65.253   4.280  1.00627E+00  9.69305E-01  3.69701E-02
    9058.217     66.564   4.320  1.01123E+00  9.68459E-01  4.27700E-02
    9059.539     67.887   4.360  1.01699E+00  9.67699E-01  4.92875E-02
    9060.874     69.222   4.400  1.02190E+00  9.67044E-01  5.48605E-02
    9062.222     70.569   4.440  1.02483E+00  9.66497E-01  5.83347E-02
    9063.581     71.928   4.480  1.02529E+00  9.66012E-01  5.92817E-02
    9064.953     73.300   4.520  1.02343E+00  9.65633E-01  5.77998E-02
    9066.336     74.684   4.560  1.01959E+00  9.65339E-01  5.42520E-02
    9067.732     76.080   4.600  1.01412E+00  9.65148E-01  4.89761E-02
    9069.141     77.488   4.640  1.00702E+00  9.65018E-01  4.20012E-02
    9070.561     78.908   4.680  9.98132E-01  9.64989E-01  3.31428E-02
    9071.994     80.341   4.720  9.87321E-01  9.65019E-01  2.23025E-02
    9073.438     81.785   4.760  9.74903E-01  9.65149E-01  9.75364E-03
    9074.895     83.242   4.800  9.61649E-01  9.65359E-01 -3.70972E-03
    9076.364     84.711   4.840  9.48583E-01  9.65624E-01 -1.70406E-02
    9077.846     86.193   4.880  9.36724E-01  9.65983E-01 -2.92592E-02
    9079.339     87.686   4.920  9.26774E-01  9.66372E-01 -3.95981E-02
    9080.845     89.192   4.960  9.19240E-01  9.66852E-01 -4.76122E-02
    9082.363     90.710   5.000  9.14340E-01  9.67380E-01 -5.30400E-02
    9083.893     92.240   5.040  9.12208E-01  9.67951E-01 -5.57426E-02
    9085.435     93.782   5.080  9.12824E-01  9.68562E-01 -5.57386E-02
    9086.990     95.337   5.120  9.15937E-01  9.69214E-01 -5.32764E-02
    9088.556     96.903   5.160  9.20938E-01  9.69904E-01 -4.89654E-02
    9090.135     98.482   5.200  9.26968E-01  9.70630E-01 -4.36620E-02
    9091.726    100.073   5.240  9.33179E-01  9.71390E-01 -3.82103E-02
    9093.329    101.677   5.280  9.38992E-01  9.72156E-01 -3.31642E-02
    9094.945    103.292   5.320  9.44219E-01  9.72928E-01 -2.87090E-02
    9096.573    104.920   5.360  9.48905E-01  9.73724E-01 -2.48195E-02
    9098.212    106.559   5.400  9.53111E-01  9.74499E-01 -2.13881E-02
    9099.864    108.211   5.440  9.56979E-01  9.75295E-01 -1.83160E-02
    9101.529    109.876   5.480  9.60539E-01  9.76064E-01 -1.55251E-02
    9103.205    111.552   5.520  9.63883E-01  9.76825E-01 -1.29423E-02
    9104.894    113.241   5.560  9.67098E-01  9.77555E-01 -1.04577E-02
    9106.594    114.941   5.600  9.70266E-01  9.78275E-01 -8.00877E-03
    9108.307    116.654   5.640  9.73278E-01  9.78960E-01 -5.68142E-03
    9110.032    118.380   5.680  9.75888E-01  9.79607E-01 -3.71939E-03
    9111.770    120.117   5.720  9.77817E-01  9.80238E-01 -2.42089E-03
    9113.519    121.866   5.760  9.78781E-01  9.80804E-01 -2.02308E-03
    9115.281    123.628   5.800  9.78673E-01  9.81324E-01 -2.65088E-03
    9117.055    125.402   5.840  9.77483E-01  9.81776E-01 -4.29382E-03
    9118.841    127.188   5.880  9.75469E-01  9.82202E-01 -6.73356E-03
    9120.639    128.987   5.920  9.73062E-01  9.82530E-01 -9.46784E-03
    9122.450    130.797   5.960  9.71066E-01  9.82819E-01 -1.17523E-02
    9124.273    132.620   6.000  9.70209E-01  9.82970E-01 -1.27610E-02
