# # comment:                                                     FEFF 9.9.1  
# # Source:
# # Structure
# # Reduced
# # space
# # abc:
# # angles:
# # sites:
# # POT  SCF 100  7.0000   0, screened core-hole, AFOLP (folp(0)= 1.150)
# # Abs   Z=29 Rmt= 1.289 Rnm= 1.343 K  shell
# # Pot 1 Z=26 Rmt= 1.329 Rnm= 1.420
# # Pot 2 Z=29 Rmt= 1.296 Rnm= 1.351
# # Pot 3 Z= 8 Rmt= 1.010 Rnm= 1.105
# # Gam_ch=1.729E+00 H-L exch Vi= 0.000E+00 Vr= 0.000E+00
# # Mu=-1.050E+01eV kf=2.138E+00 Vint=-1.750E+01eV Rs_int= 1.696
# FMS rfms= 9.0000
# # PATH  Rmax=-1.000,  Keep_limit= 0.00, Heap_limit 0.00  Pwcrit= 2.50%
#  S02=0.950  Temp=   0.00  Debye_temp=   0.00  Global_sig2= 0.00000
#  Energy zero shift, vr, vi    0.00000E+00   0.00000E+00
#  Curved wave amplitude ratio filter   4.000%
#     file         sig2 tot  cw amp ratio   deg  nlegs   reff  inp sig2
#     0/   0 paths used
#  xsedge+ 50, used to normalize mu           2.4750E-04
#  -----------------------------------------------------------------------
#  omega    e    k    mu    mu0     chi     @#
    8984.601    -14.312  -1.000  3.13270E-02  4.79947E-02 -1.66677E-02
    8984.900    -14.013  -0.960  3.27027E-02  5.12887E-02 -1.85860E-02
    8985.186    -13.727  -0.920  3.41711E-02  5.49319E-02 -2.07608E-02
    8985.461    -13.453  -0.880  3.57444E-02  5.89743E-02 -2.32299E-02
    8985.723    -13.190  -0.840  3.74371E-02  6.34738E-02 -2.60367E-02
    8985.973    -12.941  -0.800  3.92663E-02  6.84972E-02 -2.92308E-02
    8986.211    -12.703  -0.760  4.12526E-02  7.41211E-02 -3.28685E-02
    8986.436    -12.477  -0.720  4.34197E-02  8.04318E-02 -3.70122E-02
    8986.649    -12.264  -0.680  4.57943E-02  8.75240E-02 -4.17297E-02
    8986.851    -12.063  -0.640  4.84056E-02  9.54974E-02 -4.70918E-02
    8987.040    -11.874  -0.600  5.12826E-02  1.04449E-01 -5.31666E-02
    8987.216    -11.697  -0.560  5.44506E-02  1.14462E-01 -6.00114E-02
    8987.381    -11.532  -0.520  5.79248E-02  1.25584E-01 -6.76590E-02
    8987.533    -11.380  -0.480  6.17012E-02  1.37801E-01 -7.60995E-02
    8987.674    -11.240  -0.440  6.57465E-02  1.51006E-01 -8.52597E-02
    8987.802    -11.112  -0.400  6.99896E-02  1.64975E-01 -9.49855E-02
    8987.917    -10.996  -0.360  7.43184E-02  1.79354E-01 -1.05036E-01
    8988.021    -10.892  -0.320  7.85884E-02  1.93684E-01 -1.15096E-01
    8988.112    -10.801  -0.280  8.26416E-02  2.07456E-01 -1.24815E-01
    8988.192    -10.722  -0.240  8.63310E-02  2.20177E-01 -1.33846E-01
    8988.259    -10.655  -0.200  8.95414E-02  2.31430E-01 -1.41889E-01
    8988.314    -10.600  -0.160  9.21991E-02  2.40909E-01 -1.48710E-01
    8988.356    -10.557  -0.120  9.42685E-02  2.48412E-01 -1.54143E-01
    8988.387    -10.527  -0.080  9.57398E-02  2.53824E-01 -1.58084E-01
    8988.411    -10.502   0.000  9.69038E-02  2.58177E-01 -1.61273E-01
    8988.466    -10.447   0.120  9.94528E-02  2.68000E-01 -1.68547E-01
    8988.509    -10.405   0.160  1.01384E-01  2.75656E-01 -1.74272E-01
    8988.564    -10.350   0.200  1.03775E-01  2.85453E-01 -1.81677E-01
    8988.631    -10.283   0.240  1.06493E-01  2.97281E-01 -1.90789E-01
    8988.710    -10.203   0.280  1.09372E-01  3.10936E-01 -2.01564E-01
    8988.801    -10.112   0.320  1.12214E-01  3.26111E-01 -2.13897E-01
    8988.905    -10.008   0.360  1.14793E-01  3.42424E-01 -2.27630E-01
    8989.021     -9.893   0.400  1.16886E-01  3.59443E-01 -2.42557E-01
    8989.149     -9.765   0.440  1.18446E-01  3.76795E-01 -2.58349E-01
    8989.289     -9.624   0.480  1.19546E-01  3.94188E-01 -2.74642E-01
    8989.441     -9.472   0.520  1.20414E-01  4.11436E-01 -2.91021E-01
    8989.606     -9.307   0.560  1.21216E-01  4.28433E-01 -3.07217E-01
    8989.783     -9.131   0.600  1.22025E-01  4.45155E-01 -3.23130E-01
    8989.972     -8.942   0.640  1.22808E-01  4.61662E-01 -3.38854E-01
    8990.173     -8.740   0.680  1.23646E-01  4.77981E-01 -3.54335E-01
    8990.386     -8.527   0.720  1.24906E-01  4.94191E-01 -3.69285E-01
    8990.612     -8.301   0.760  1.27244E-01  5.10344E-01 -3.83100E-01
    8990.850     -8.064   0.800  1.31257E-01  5.26488E-01 -3.95230E-01
    8991.100     -7.814   0.840  1.37245E-01  5.42679E-01 -4.05433E-01
    8991.362     -7.552   0.880  1.45184E-01  5.58921E-01 -4.13737E-01
    8991.636     -7.277   0.920  1.55052E-01  5.75250E-01 -4.20198E-01
    8991.922     -6.991   0.960  1.67250E-01  5.91649E-01 -4.24400E-01
    8992.221     -6.692   1.000  1.82989E-01  6.08114E-01 -4.25126E-01
    8992.532     -6.381   1.040  2.03871E-01  6.24635E-01 -4.20764E-01
    8992.855     -6.058   1.080  2.31363E-01  6.41194E-01 -4.09831E-01
    8993.190     -5.723   1.120  2.65874E-01  6.57749E-01 -3.91875E-01
    8993.538     -5.375   1.160  3.06001E-01  6.74271E-01 -3.68270E-01
    8993.898     -5.016   1.200  3.48305E-01  6.90732E-01 -3.42426E-01
    8994.269     -4.644   1.240  3.88166E-01  7.07096E-01 -3.18930E-01
    8994.653     -4.260   1.280  4.23404E-01  7.23291E-01 -2.99887E-01
    8995.050     -3.864   1.320  4.59820E-01  7.39320E-01 -2.79500E-01
    8995.458     -3.455   1.360  5.08498E-01  7.55105E-01 -2.46607E-01
    8995.879     -3.035   1.400  5.74286E-01  7.70630E-01 -1.96344E-01
    8996.312     -2.602   1.440  6.50022E-01  7.85837E-01 -1.35815E-01
    8996.757     -2.157   1.480  7.24911E-01  8.00687E-01 -7.57765E-02
    8997.214     -1.700   1.520  7.98398E-01  8.15165E-01 -1.67668E-02
    8997.683     -1.230   1.560  8.81043E-01  8.29195E-01  5.18471E-02
    8998.165     -0.749   1.600  9.72253E-01  8.42785E-01  1.29468E-01
    8998.659     -0.255   1.640  1.05300E+00  8.55900E-01  1.97097E-01
    8999.164      0.251   1.680  1.11318E+00  8.68509E-01  2.44673E-01
    8999.683      0.769   1.720  1.15107E+00  8.80562E-01  2.70505E-01
    9000.213      1.300   1.760  1.16326E+00  8.92092E-01  2.71167E-01
    9000.756      1.842   1.800  1.17921E+00  9.03072E-01  2.76140E-01
    9001.310      2.397   1.840  1.25633E+00  9.13459E-01  3.42870E-01
    9001.877      2.964   1.880  1.43561E+00  9.23288E-01  5.12325E-01
    9002.456      3.543   1.920  1.71240E+00  9.32518E-01  7.79880E-01
    9003.048      4.134   1.960  1.96927E+00  9.41171E-01  1.02810E+00
    9003.651      4.738   2.000  1.98979E+00  9.49269E-01  1.04052E+00
    9004.267      5.353   2.040  1.77740E+00  9.56775E-01  8.20624E-01
    9004.895      5.981   2.080  1.51422E+00  9.63735E-01  5.50490E-01
    9005.535      6.621   2.120  1.27785E+00  9.70132E-01  3.07716E-01
    9006.187      7.274   2.160  1.09821E+00  9.75996E-01  1.22216E-01
    9006.852      7.938   2.200  9.87430E-01  9.81355E-01  6.07513E-03
    9007.528      8.615   2.240  9.29595E-01  9.86197E-01 -5.66019E-02
    9008.217      9.304   2.280  8.99409E-01  9.90551E-01 -9.11420E-02
    9008.918     10.005   2.320  8.79864E-01  9.94449E-01 -1.14586E-01
    9009.631     10.718   2.360  8.62196E-01  9.97901E-01 -1.35705E-01
    9010.357     11.443   2.400  8.41612E-01  1.00094E+00 -1.59325E-01
    9011.094     12.181   2.440  8.21271E-01  1.00357E+00 -1.82299E-01
    9011.844     12.931   2.480  8.14354E-01  1.00583E+00 -1.91475E-01
    9012.606     13.693   2.520  8.39296E-01  1.00773E+00 -1.68432E-01
    9013.380     14.467   2.560  9.02424E-01  1.00930E+00 -1.06872E-01
    9014.167     15.253   2.600  9.62779E-01  1.01054E+00 -4.77658E-02
    9014.965     16.052   2.640  1.00129E+00  1.01151E+00 -1.02195E-02
    9015.776     16.863   2.680  1.01734E+00  1.01222E+00  5.12861E-03
    9016.599     17.686   2.720  1.01438E+00  1.01268E+00  1.70059E-03
    9017.434     18.521   2.760  9.95200E-01  1.01290E+00 -1.77047E-02
    9018.281     19.368   2.800  9.64983E-01  1.01295E+00 -4.79646E-02
    9019.141     20.228   2.840  9.30366E-01  1.01277E+00 -8.24085E-02
    9020.013     21.099   2.880  8.97124E-01  1.01246E+00 -1.15333E-01
    9020.897     21.983   2.920  8.69657E-01  1.01198E+00 -1.42328E-01
    9021.793     22.879   2.960  8.49794E-01  1.01138E+00 -1.61590E-01
    9022.701     23.788   3.000  8.37006E-01  1.01069E+00 -1.73682E-01
    9023.622     24.708   3.040  8.29948E-01  1.00988E+00 -1.79930E-01
    9024.554     25.641   3.080  8.27183E-01  1.00896E+00 -1.81780E-01
    9025.499     26.586   3.120  8.27539E-01  1.00801E+00 -1.80473E-01
    9026.456     27.543   3.160  8.30663E-01  1.00697E+00 -1.76308E-01
    9027.425     28.512   3.200  8.37152E-01  1.00591E+00 -1.68755E-01
    9028.407     29.494   3.240  8.47271E-01  1.00480E+00 -1.57533E-01
    9029.401     30.487   3.280  8.61141E-01  1.00367E+00 -1.42528E-01
    9030.406     31.493   3.320  8.78322E-01  1.00255E+00 -1.24226E-01
    9031.424     32.511   3.360  8.97502E-01  1.00140E+00 -1.03899E-01
    9032.455     33.541   3.400  9.17167E-01  1.00026E+00 -8.30879E-02
    9033.497     34.584   3.440  9.36485E-01  9.99113E-01 -6.26282E-02
    9034.552     35.638   3.480  9.55499E-01  9.98001E-01 -4.25018E-02
    9035.618     36.705   3.520  9.74729E-01  9.96923E-01 -2.21938E-02
    9036.697     37.784   3.560  9.94897E-01  9.95879E-01 -9.81839E-04
    9037.789     38.875   3.600  1.01647E+00  9.94852E-01  2.16224E-02
    9038.892     39.979   3.640  1.03947E+00  9.93884E-01  4.55890E-02
    9040.008     41.094   3.680  1.06343E+00  9.92937E-01  7.04884E-02
    9041.135     42.222   3.720  1.08743E+00  9.92054E-01  9.53711E-02
    9042.275     43.362   3.760  1.10992E+00  9.91218E-01  1.18698E-01
    9043.427     44.514   3.800  1.12900E+00  9.90449E-01  1.38550E-01
    9044.592     45.678   3.840  1.14328E+00  9.89727E-01  1.53555E-01
    9045.768     46.855   3.880  1.15255E+00  9.89051E-01  1.63502E-01
    9046.957     48.044   3.920  1.15782E+00  9.88447E-01  1.69378E-01
    9048.158     49.244   3.960  1.16062E+00  9.87914E-01  1.72703E-01
    9049.371     50.458   4.000  1.16163E+00  9.87429E-01  1.74204E-01
    9050.596     51.683   4.040  1.15996E+00  9.86993E-01  1.72965E-01
    9051.834     52.920   4.080  1.15352E+00  9.86627E-01  1.66897E-01
    9053.083     54.170   4.120  1.14051E+00  9.86331E-01  1.54182E-01
    9054.345     55.432   4.160  1.12042E+00  9.86085E-01  1.34332E-01
    9055.619     56.706   4.200  1.09457E+00  9.85887E-01  1.08682E-01
    9056.906     57.992   4.240  1.06556E+00  9.85757E-01  7.98028E-02
    9058.204     59.291   4.280  1.03621E+00  9.85695E-01  5.05137E-02
    9059.515     60.601   4.320  1.00882E+00  9.85660E-01  2.31638E-02
    9060.837     61.924   4.360  9.84927E-01  9.85690E-01 -7.62836E-04
    9062.172     63.259   4.400  9.64809E-01  9.85786E-01 -2.09765E-02
    9063.520     64.606   4.440  9.47568E-01  9.85904E-01 -3.83362E-02
    9064.879     65.966   4.480  9.31922E-01  9.86084E-01 -5.41616E-02
    9066.251     67.337   4.520  9.17064E-01  9.86281E-01 -6.92176E-02
    9067.634     68.721   4.560  9.03333E-01  9.86539E-01 -8.32058E-02
    9069.030     70.117   4.600  8.91666E-01  9.86812E-01 -9.51459E-02
    9070.439     71.525   4.640  8.82977E-01  9.87121E-01 -1.04144E-01
    9071.859     72.946   4.680  8.77646E-01  9.87466E-01 -1.09820E-01
    9073.292     74.378   4.720  8.75500E-01  9.87844E-01 -1.12343E-01
    9074.736     75.823   4.760  8.76202E-01  9.88229E-01 -1.12027E-01
    9076.193     77.280   4.800  8.79466E-01  9.88623E-01 -1.09158E-01
    9077.662     78.749   4.840  8.85239E-01  9.89047E-01 -1.03807E-01
    9079.144     80.230   4.880  8.93615E-01  9.89498E-01 -9.58823E-02
    9080.637     81.724   4.920  9.04619E-01  9.89930E-01 -8.53104E-02
    9082.143     83.230   4.960  9.18186E-01  9.90385E-01 -7.21990E-02
    9083.661     84.747   5.000  9.33951E-01  9.90841E-01 -5.68902E-02
    9085.191     86.278   5.040  9.51406E-01  9.91272E-01 -3.98667E-02
    9086.733     87.820   5.080  9.69964E-01  9.91722E-01 -2.17575E-02
    9088.288     89.374   5.120  9.88765E-01  9.92146E-01 -3.38087E-03
    9089.854     90.941   5.160  1.00692E+00  9.92566E-01  1.43579E-02
    9091.433     92.520   5.200  1.02351E+00  9.92977E-01  3.05296E-02
    9093.024     94.111   5.240  1.03759E+00  9.93360E-01  4.42302E-02
    9094.627     95.714   5.280  1.04830E+00  9.93734E-01  5.45640E-02
    9096.243     97.330   5.320  1.05488E+00  9.94096E-01  6.07883E-02
    9097.870     98.957   5.360  1.05706E+00  9.94404E-01  6.26561E-02
    9099.510    100.597   5.400  1.05517E+00  9.94698E-01  6.04757E-02
    9101.162    102.249   5.440  1.04962E+00  9.94978E-01  5.46422E-02
    9102.827    103.913   5.480  1.04053E+00  9.95201E-01  4.53294E-02
    9104.503    105.590   5.520  1.02818E+00  9.95408E-01  3.27735E-02
    9106.192    107.278   5.560  1.01299E+00  9.95577E-01  1.74113E-02
    9107.892    108.979   5.600  9.95386E-01  9.95707E-01 -3.20461E-04
    9109.605    110.692   5.640  9.76022E-01  9.95797E-01 -1.97751E-02
    9111.330    112.417   5.680  9.56405E-01  9.95848E-01 -3.94437E-02
    9113.068    114.154   5.720  9.39115E-01  9.95860E-01 -5.67451E-02
    9114.817    115.904   5.760  9.27000E-01  9.95833E-01 -6.88330E-02
    9116.579    117.666   5.800  9.22057E-01  9.95790E-01 -7.37337E-02
    9118.353    119.440   5.840  9.24740E-01  9.95685E-01 -7.09450E-02
    9120.139    121.226   5.880  9.34376E-01  9.95539E-01 -6.11631E-02
    9121.937    123.024   5.920  9.49839E-01  9.95357E-01 -4.55179E-02
    9123.748    124.835   5.960  9.69981E-01  9.95162E-01 -2.51803E-02
    9125.571    126.657   6.000  9.93768E-01  9.94878E-01 -1.11028E-03
