# # comment:                                                     FEFF 9.9.1  
# # Source:
# # Structure
# # Reduced
# # space
# # abc:
# # angles:
# # sites:
# # POT  SCF 100  7.0000   0, screened core-hole, AFOLP (folp(0)= 1.150)
# # Abs   Z=29 Rmt= 1.163 Rnm= 1.249 K  shell
# # Pot 1 Z=38 Rmt= 1.771 Rnm= 1.824
# # Pot 2 Z=57 Rmt= 1.765 Rnm= 1.842
# # Pot 3 Z=29 Rmt= 1.181 Rnm= 1.255
# # Pot 4 Z= 8 Rmt= 1.042 Rnm= 1.089
# # Gam_ch=1.729E+00 H-L exch Vi= 0.000E+00 Vr= 0.000E+00
# # Mu=-8.256E+00eV kf=2.037E+00 Vint=-1.874E+01eV Rs_int= 1.781
# FMS rfms= 9.0000
# # PATH  Rmax=-1.000,  Keep_limit= 0.00, Heap_limit 0.00  Pwcrit= 2.50%
#  S02=0.950  Temp=   0.00  Debye_temp=   0.00  Global_sig2= 0.00000
#  Energy zero shift, vr, vi    0.00000E+00   0.00000E+00
#  Curved wave amplitude ratio filter   4.000%
#     file         sig2 tot  cw amp ratio   deg  nlegs   reff  inp sig2
#     0/   0 paths used
#  xsedge+ 50, used to normalize mu           2.4496E-04
#  -----------------------------------------------------------------------
#  omega    e    k    mu    mu0     chi     @#
    8985.333    -12.066  -1.000  3.75173E-02  5.67729E-02 -1.92556E-02
    8985.632    -11.768  -0.960  3.93946E-02  6.10032E-02 -2.16085E-02
    8985.918    -11.481  -0.920  4.14116E-02  6.57141E-02 -2.43026E-02
    8986.193    -11.207  -0.880  4.35850E-02  7.09775E-02 -2.73926E-02
    8986.455    -10.945  -0.840  4.59346E-02  7.68771E-02 -3.09424E-02
    8986.705    -10.695  -0.800  4.84836E-02  8.35098E-02 -3.50262E-02
    8986.943    -10.457  -0.760  5.12585E-02  9.09872E-02 -3.97287E-02
    8987.168    -10.232  -0.720  5.42897E-02  9.94355E-02 -4.51458E-02
    8987.381    -10.018  -0.680  5.76112E-02  1.08994E-01 -5.13827E-02
    8987.583     -9.817  -0.640  6.12586E-02  1.19809E-01 -5.85509E-02
    8987.772     -9.628  -0.600  6.52672E-02  1.32027E-01 -6.67598E-02
    8987.948     -9.451  -0.560  6.96662E-02  1.45770E-01 -7.61042E-02
    8988.113     -9.287  -0.520  7.44711E-02  1.61114E-01 -8.66431E-02
    8988.265     -9.134  -0.480  7.96726E-02  1.78044E-01 -9.83712E-02
    8988.406     -8.994  -0.440  8.52234E-02  1.96410E-01 -1.11187E-01
    8988.534     -8.866  -0.400  9.10272E-02  2.15890E-01 -1.24863E-01
    8988.649     -8.750  -0.360  9.69362E-02  2.35976E-01 -1.39040E-01
    8988.753     -8.647  -0.320  1.02760E-01  2.56008E-01 -1.53248E-01
    8988.844     -8.555  -0.280  1.08293E-01  2.75255E-01 -1.66962E-01
    8988.924     -8.476  -0.240  1.13338E-01  2.93013E-01 -1.79675E-01
    8988.991     -8.409  -0.200  1.17743E-01  3.08697E-01 -1.90954E-01
    8989.046     -8.354  -0.160  1.21404E-01  3.21881E-01 -2.00477E-01
    8989.088     -8.311  -0.120  1.24267E-01  3.32295E-01 -2.08028E-01
    8989.119     -8.281  -0.080  1.26312E-01  3.39791E-01 -2.13479E-01
    8989.143     -8.256   0.000  1.27946E-01  3.45810E-01 -2.17864E-01
    8989.198     -8.202   0.120  1.31521E-01  3.59376E-01 -2.27854E-01
    8989.241     -8.159   0.160  1.34263E-01  3.69907E-01 -2.35644E-01
    8989.296     -8.104   0.200  1.37670E-01  3.83345E-01 -2.45675E-01
    8989.363     -8.037   0.240  1.41630E-01  3.99468E-01 -2.57838E-01
    8989.442     -7.958   0.280  1.45999E-01  4.17933E-01 -2.71933E-01
    8989.533     -7.866   0.320  1.50558E-01  4.38241E-01 -2.87683E-01
    8989.637     -7.763   0.360  1.55130E-01  4.59753E-01 -3.04623E-01
    8989.753     -7.647   0.400  1.59643E-01  4.81833E-01 -3.22190E-01
    8989.881     -7.519   0.440  1.64215E-01  5.03867E-01 -3.39652E-01
    8990.021     -7.379   0.480  1.69089E-01  5.25372E-01 -3.56283E-01
    8990.173     -7.226   0.520  1.74698E-01  5.46057E-01 -3.71360E-01
    8990.338     -7.062   0.560  1.81358E-01  5.65764E-01 -3.84405E-01
    8990.515     -6.885   0.600  1.89188E-01  5.84480E-01 -3.95292E-01
    8990.704     -6.696   0.640  1.97992E-01  6.02253E-01 -4.04261E-01
    8990.905     -6.495   0.680  2.07502E-01  6.19194E-01 -4.11692E-01
    8991.118     -6.281   0.720  2.17734E-01  6.35385E-01 -4.17652E-01
    8991.344     -6.056   0.760  2.29316E-01  6.50973E-01 -4.21656E-01
    8991.582     -5.818   0.800  2.43176E-01  6.66032E-01 -4.22856E-01
    8991.831     -5.568   0.840  2.60179E-01  6.80641E-01 -4.20462E-01
    8992.094     -5.306   0.880  2.80233E-01  6.94886E-01 -4.14653E-01
    8992.368     -5.032   0.920  3.01790E-01  7.08818E-01 -4.07028E-01
    8992.654     -4.745   0.960  3.22841E-01  7.22452E-01 -3.99611E-01
    8992.953     -4.447   1.000  3.43070E-01  7.35835E-01 -3.92765E-01
    8993.264     -4.136   1.040  3.63986E-01  7.49001E-01 -3.85015E-01
    8993.587     -3.813   1.080  3.86106E-01  7.61918E-01 -3.75812E-01
    8993.922     -3.477   1.120  4.08672E-01  7.74625E-01 -3.65953E-01
    8994.270     -3.130   1.160  4.32650E-01  7.87095E-01 -3.54445E-01
    8994.630     -2.770   1.200  4.62971E-01  7.99340E-01 -3.36369E-01
    8995.001     -2.398   1.240  5.06989E-01  8.11322E-01 -3.04332E-01
    8995.385     -2.014   1.280  5.72220E-01  8.23046E-01 -2.50826E-01
    8995.782     -1.618   1.320  6.64670E-01  8.34493E-01 -1.69823E-01
    8996.190     -1.210   1.360  7.88465E-01  8.45660E-01 -5.71951E-02
    8996.611     -0.789   1.400  9.46699E-01  8.56485E-01  9.02141E-02
    8997.044     -0.356   1.440  1.13068E+00  8.67006E-01  2.63679E-01
    8997.489      0.089   1.480  1.27440E+00  8.77180E-01  3.97219E-01
    8997.946      0.546   1.520  1.28204E+00  8.87002E-01  3.95041E-01
    8998.415      1.015   1.560  1.17990E+00  8.96449E-01  2.83453E-01
    8998.897      1.497   1.600  1.06894E+00  9.05518E-01  1.63423E-01
    8999.391      1.991   1.640  1.00652E+00  9.14186E-01  9.23348E-02
    8999.896      2.497   1.680  1.01617E+00  9.22451E-01  9.37223E-02
    9000.415      3.015   1.720  1.09407E+00  9.30314E-01  1.63753E-01
    9000.945      3.545   1.760  1.20749E+00  9.37772E-01  2.69717E-01
    9001.488      4.088   1.800  1.30104E+00  9.44826E-01  3.56211E-01
    9002.042      4.643   1.840  1.31919E+00  9.51436E-01  3.67757E-01
    9002.609      5.210   1.880  1.27197E+00  9.57667E-01  3.14299E-01
    9003.188      5.789   1.920  1.21562E+00  9.63456E-01  2.52160E-01
    9003.780      6.380   1.960  1.17208E+00  9.68872E-01  2.03205E-01
    9004.383      6.983   2.000  1.14337E+00  9.73876E-01  1.69498E-01
    9004.999      7.599   2.040  1.14447E+00  9.78473E-01  1.65993E-01
    9005.627      8.227   2.080  1.16661E+00  9.82710E-01  1.83901E-01
    9006.267      8.867   2.120  1.19803E+00  9.86571E-01  2.11457E-01
    9006.919      9.519   2.160  1.22722E+00  9.90063E-01  2.37154E-01
    9007.583     10.184   2.200  1.24204E+00  9.93234E-01  2.48807E-01
    9008.260     10.860   2.240  1.23140E+00  9.96052E-01  2.35347E-01
    9008.949     11.549   2.280  1.18893E+00  9.98562E-01  1.90371E-01
    9009.650     12.250   2.320  1.12634E+00  1.00075E+00  1.25592E-01
    9010.363     12.964   2.360  1.06713E+00  1.00267E+00  6.44588E-02
    9011.089     13.689   2.400  1.02906E+00  1.00430E+00  2.47550E-02
    9011.826     14.427   2.440  1.02033E+00  1.00569E+00  1.46425E-02
    9012.576     15.176   2.480  1.03424E+00  1.00682E+00  2.74218E-02
    9013.338     15.938   2.520  1.04863E+00  1.00774E+00  4.08912E-02
    9014.112     16.713   2.560  1.05808E+00  1.00844E+00  4.96378E-02
    9014.899     17.499   2.600  1.06148E+00  1.00894E+00  5.25352E-02
    9015.697     18.298   2.640  1.06008E+00  1.00925E+00  5.08324E-02
    9016.508     19.108   2.680  1.05563E+00  1.00941E+00  4.62228E-02
    9017.331     19.931   2.720  1.04932E+00  1.00943E+00  3.98835E-02
    9018.166     20.766   2.760  1.04175E+00  1.00930E+00  3.24507E-02
    9019.013     21.614   2.800  1.03277E+00  1.00905E+00  2.37238E-02
    9019.873     22.473   2.840  1.02192E+00  1.00868E+00  1.32483E-02
    9020.745     23.345   2.880  1.00865E+00  1.00821E+00  4.40360E-04
    9021.629     24.229   2.920  9.92649E-01  1.00768E+00 -1.50329E-02
    9022.525     25.125   2.960  9.74172E-01  1.00705E+00 -3.28809E-02
    9023.433     26.033   3.000  9.55160E-01  1.00637E+00 -5.12118E-02
    9024.354     26.954   3.040  9.38201E-01  1.00564E+00 -6.74422E-02
    9025.286     27.887   3.080  9.24779E-01  1.00487E+00 -8.00949E-02
    9026.231     28.831   3.120  9.15103E-01  1.00407E+00 -8.89631E-02
    9027.188     29.788   3.160  9.08409E-01  1.00325E+00 -9.48370E-02
    9028.157     30.758   3.200  9.03769E-01  1.00242E+00 -9.86499E-02
    9029.139     31.739   3.240  9.00819E-01  1.00157E+00 -1.00749E-01
    9030.133     32.733   3.280  8.99526E-01  1.00074E+00 -1.01211E-01
    9031.138     33.739   3.320  8.99817E-01  9.99910E-01 -1.00093E-01
    9032.156     34.757   3.360  9.01428E-01  9.99088E-01 -9.76605E-02
    9033.187     35.787   3.400  9.03824E-01  9.98296E-01 -9.44718E-02
    9034.229     36.829   3.440  9.06177E-01  9.97537E-01 -9.13598E-02
    9035.284     37.884   3.480  9.07881E-01  9.96792E-01 -8.89110E-02
    9036.350     38.951   3.520  9.09039E-01  9.96084E-01 -8.70449E-02
    9037.429     40.030   3.560  9.10372E-01  9.95438E-01 -8.50659E-02
    9038.521     41.121   3.600  9.12820E-01  9.94812E-01 -8.19918E-02
    9039.624     42.224   3.640  9.17252E-01  9.94248E-01 -7.69963E-02
    9040.739     43.340   3.680  9.23863E-01  9.93728E-01 -6.98655E-02
    9041.867     44.468   3.720  9.32159E-01  9.93253E-01 -6.10932E-02
    9043.007     45.608   3.760  9.41246E-01  9.92823E-01 -5.15771E-02
    9044.159     46.760   3.800  9.50316E-01  9.92463E-01 -4.21465E-02
    9045.324     47.924   3.840  9.58678E-01  9.92171E-01 -3.34932E-02
    9046.500     49.101   3.880  9.65856E-01  9.91906E-01 -2.60497E-02
    9047.689     50.289   3.920  9.71929E-01  9.91730E-01 -1.98010E-02
    9048.890     51.490   3.960  9.77294E-01  9.91581E-01 -1.42870E-02
    9050.103     52.703   4.000  9.82802E-01  9.91501E-01 -8.69854E-03
    9051.328     53.929   4.040  9.89066E-01  9.91490E-01 -2.42370E-03
    9052.566     55.166   4.080  9.95942E-01  9.91505E-01  4.43714E-03
    9053.815     56.416   4.120  1.00267E+00  9.91610E-01  1.10608E-02
    9055.077     57.678   4.160  1.00808E+00  9.91739E-01  1.63426E-02
    9056.351     58.952   4.200  1.01164E+00  9.91935E-01  1.97020E-02
    9057.638     60.238   4.240  1.01365E+00  9.92177E-01  2.14726E-02
    9058.936     61.536   4.280  1.01525E+00  9.92484E-01  2.27705E-02
    9060.247     62.847   4.320  1.01788E+00  9.92813E-01  2.50669E-02
    9061.569     64.170   4.360  1.02274E+00  9.93203E-01  2.95347E-02
    9062.904     65.505   4.400  1.03001E+00  9.93612E-01  3.63965E-02
    9064.252     66.852   4.440  1.03902E+00  9.94082E-01  4.49414E-02
    9065.611     68.211   4.480  1.04864E+00  9.94570E-01  5.40732E-02
    9066.983     69.583   4.520  1.05805E+00  9.95116E-01  6.29335E-02
    9068.366     70.967   4.560  1.06684E+00  9.95675E-01  7.11654E-02
    9069.762     72.363   4.600  1.07503E+00  9.96267E-01  7.87593E-02
    9071.171     73.771   4.640  1.08256E+00  9.96870E-01  8.56937E-02
    9072.591     75.191   4.680  1.08918E+00  9.97502E-01  9.16795E-02
    9074.024     76.624   4.720  1.09430E+00  9.98141E-01  9.61606E-02
    9075.468     78.069   4.760  1.09694E+00  9.98807E-01  9.81360E-02
    9076.925     79.526   4.800  1.09580E+00  9.99453E-01  9.63461E-02
    9078.394     80.995   4.840  1.08985E+00  1.00012E+00  8.97302E-02
    9079.876     82.476   4.880  1.07877E+00  1.00080E+00  7.79740E-02
    9081.369     83.969   4.920  1.06332E+00  1.00147E+00  6.18529E-02
    9082.875     85.475   4.960  1.04509E+00  1.00214E+00  4.29485E-02
    9084.393     86.993   5.000  1.02591E+00  1.00280E+00  2.31124E-02
    9085.923     88.523   5.040  1.00763E+00  1.00344E+00  4.19037E-03
    9087.465     90.065   5.080  9.91835E-01  1.00407E+00 -1.22305E-02
    9089.020     91.620   5.120  9.79795E-01  1.00468E+00 -2.48902E-02
    9090.586     93.187   5.160  9.72321E-01  1.00527E+00 -3.29501E-02
    9092.165     94.765   5.200  9.69882E-01  1.00582E+00 -3.59402E-02
    9093.756     96.357   5.240  9.72326E-01  1.00636E+00 -3.40317E-02
    9095.359     97.960   5.280  9.78648E-01  1.00683E+00 -2.81862E-02
    9096.975     99.575   5.320  9.87325E-01  1.00730E+00 -1.99714E-02
    9098.602    101.203   5.360  9.96620E-01  1.00774E+00 -1.11231E-02
    9100.242    102.843   5.400  1.00481E+00  1.00813E+00 -3.32072E-03
    9101.894    104.495   5.440  1.01016E+00  1.00847E+00  1.68669E-03
    9103.559    106.159   5.480  1.01108E+00  1.00877E+00  2.30583E-03
    9105.235    107.835   5.520  1.00692E+00  1.00905E+00 -2.13382E-03
    9106.923    109.524   5.560  9.98443E-01  1.00927E+00 -1.08231E-02
    9108.624    111.225   5.600  9.87437E-01  1.00941E+00 -2.19764E-02
    9110.337    112.938   5.640  9.75642E-01  1.00954E+00 -3.38960E-02
    9112.062    114.663   5.680  9.64060E-01  1.00960E+00 -4.55375E-02
    9113.800    116.400   5.720  9.53328E-01  1.00964E+00 -5.63088E-02
    9115.549    118.150   5.760  9.43973E-01  1.00961E+00 -6.56347E-02
    9117.311    119.911   5.800  9.36684E-01  1.00951E+00 -7.28269E-02
    9119.085    121.685   5.840  9.32192E-01  1.00939E+00 -7.71999E-02
    9120.871    123.471   5.880  9.30938E-01  1.00921E+00 -7.82695E-02
    9122.669    125.270   5.920  9.32752E-01  1.00898E+00 -7.62281E-02
    9124.480    127.080   5.960  9.37558E-01  1.00871E+00 -7.11486E-02
    9126.303    128.903   6.000  9.45170E-01  1.00836E+00 -6.31868E-02
