# # comment:                                                     FEFF 9.9.1  
# # Source:
# # Structure
# # Reduced
# # space
# # abc:
# # angles:109.484116
# # sites:
# # POT  SCF 100  7.0000   0, screened core-hole, AFOLP (folp(0)= 1.150)
# # Abs   Z=29 Rmt= 1.226 Rnm= 1.361 K  shell
# # Pot 1 Z=57 Rmt= 1.797 Rnm= 1.874
# # Pot 2 Z=29 Rmt= 1.239 Rnm= 1.360
# # Pot 3 Z=42 Rmt= 1.154 Rnm= 1.358
# # Pot 4 Z= 8 Rmt= 0.980 Rnm= 1.085
# # Gam_ch=1.729E+00 H-L exch Vi= 0.000E+00 Vr= 0.000E+00
# # Mu=-5.987E+00eV kf=2.241E+00 Vint=-1.652E+01eV Rs_int= 1.618
# FMS rfms= 9.0000
# # PATH  Rmax=-1.000,  Keep_limit= 0.00, Heap_limit 0.00  Pwcrit= 2.50%
#  S02=0.950  Temp=   0.00  Debye_temp=   0.00  Global_sig2= 0.00000
#  Energy zero shift, vr, vi    0.00000E+00   0.00000E+00
#  Curved wave amplitude ratio filter   4.000%
#     file         sig2 tot  cw amp ratio   deg  nlegs   reff  inp sig2
#     0/   0 paths used
#  xsedge+ 50, used to normalize mu           2.4666E-04
#  -----------------------------------------------------------------------
#  omega    e    k    mu    mu0     chi     @#
    8983.804     -9.797  -1.000  5.19644E-02  5.75901E-02 -5.62571E-03
    8984.103     -9.498  -0.960  5.55841E-02  6.19009E-02 -6.31681E-03
    8984.389     -9.212  -0.920  5.95983E-02  6.67029E-02 -7.10460E-03
    8984.663     -8.938  -0.880  6.40659E-02  7.20695E-02 -8.00362E-03
    8984.926     -8.675  -0.840  6.90558E-02  7.80863E-02 -9.03055E-03
    8985.175     -8.426  -0.800  7.46483E-02  8.48527E-02 -1.02044E-02
    8985.413     -8.188  -0.760  8.09360E-02  9.24827E-02 -1.15467E-02
    8985.639     -7.962  -0.720  8.80244E-02  1.01106E-01 -1.30812E-02
    8985.852     -7.749  -0.680  9.60300E-02  1.10864E-01 -1.48337E-02
    8986.053     -7.548  -0.640  1.05077E-01  1.21908E-01 -1.68307E-02
    8986.242     -7.359  -0.600  1.15288E-01  1.34386E-01 -1.90980E-02
    8986.419     -7.182  -0.560  1.26768E-01  1.48425E-01 -2.16569E-02
    8986.584     -7.017  -0.520  1.39582E-01  1.64102E-01 -2.45194E-02
    8986.736     -6.865  -0.480  1.53719E-01  1.81401E-01 -2.76816E-02
    8986.876     -6.725  -0.440  1.69054E-01  2.00170E-01 -3.11162E-02
    8987.004     -6.597  -0.400  1.85314E-01  2.20080E-01 -3.47659E-02
    8987.120     -6.481  -0.360  2.02068E-01  2.40610E-01 -3.85417E-02
    8987.224     -6.377  -0.320  2.18757E-01  2.61085E-01 -4.23282E-02
    8987.315     -6.286  -0.280  2.34762E-01  2.80758E-01 -4.59962E-02
    8987.394     -6.207  -0.240  2.49491E-01  2.98909E-01 -4.94185E-02
    8987.461     -6.140  -0.200  2.62458E-01  3.14940E-01 -5.24828E-02
    8987.516     -6.085  -0.160  2.73316E-01  3.28415E-01 -5.50995E-02
    8987.559     -6.042  -0.120  2.81855E-01  3.39058E-01 -5.72033E-02
    8987.590     -6.012  -0.080  2.87971E-01  3.46720E-01 -5.87494E-02
    8987.614     -5.987   0.000  2.92833E-01  3.52872E-01 -6.00391E-02
    8987.669     -5.932   0.120  3.03860E-01  3.66737E-01 -6.28766E-02
    8987.711     -5.890   0.160  3.12405E-01  3.77502E-01 -6.50977E-02
    8987.766     -5.835   0.200  3.23223E-01  3.91212E-01 -6.79891E-02
    8987.833     -5.768   0.240  3.36108E-01  4.07681E-01 -7.15734E-02
    8987.913     -5.688   0.280  3.50677E-01  4.26554E-01 -7.58766E-02
    8988.004     -5.597   0.320  3.66369E-01  4.47279E-01 -8.09106E-02
    8988.108     -5.493   0.360  3.82567E-01  4.69246E-01 -8.66791E-02
    8988.223     -5.378   0.400  3.98614E-01  4.91780E-01 -9.31663E-02
    8988.352     -5.250   0.440  4.13916E-01  5.14229E-01 -1.00313E-01
    8988.492     -5.109   0.480  4.28146E-01  5.36142E-01 -1.07996E-01
    8988.644     -4.957   0.520  4.41153E-01  5.57199E-01 -1.16045E-01
    8988.809     -4.792   0.560  4.52917E-01  5.77239E-01 -1.24322E-01
    8988.985     -4.616   0.600  4.63521E-01  5.96249E-01 -1.32728E-01
    8989.174     -4.427   0.640  4.73272E-01  6.14278E-01 -1.41006E-01
    8989.376     -4.225   0.680  4.83172E-01  6.31438E-01 -1.48267E-01
    8989.589     -4.012   0.720  4.94901E-01  6.47817E-01 -1.52915E-01
    8989.815     -3.786   0.760  5.10299E-01  6.63541E-01 -1.53242E-01
    8990.052     -3.549   0.800  5.30302E-01  6.78709E-01 -1.48407E-01
    8990.302     -3.299   0.840  5.54478E-01  6.93404E-01 -1.38926E-01
    8990.564     -3.037   0.880  5.81185E-01  7.07712E-01 -1.26527E-01
    8990.839     -2.762   0.920  6.07865E-01  7.21666E-01 -1.13801E-01
    8991.125     -2.476   0.960  6.31770E-01  7.35305E-01 -1.03535E-01
    8991.424     -2.177   1.000  6.50670E-01  7.48694E-01 -9.80233E-02
    8991.735     -1.866   1.040  6.62915E-01  7.61789E-01 -9.88735E-02
    8992.058     -1.543   1.080  6.69083E-01  7.74660E-01 -1.05577E-01
    8992.393     -1.208   1.120  6.74095E-01  7.87286E-01 -1.13191E-01
    8992.741     -0.860   1.160  6.85478E-01  7.99641E-01 -1.14164E-01
    8993.100     -0.501   1.200  7.07413E-01  8.11736E-01 -1.04323E-01
    8993.472     -0.129   1.240  7.37485E-01  8.23578E-01 -8.60927E-02
    8993.856      0.255   1.280  7.70189E-01  8.35129E-01 -6.49398E-02
    8994.252      0.651   1.320  8.00146E-01  8.46392E-01 -4.62464E-02
    8994.661      1.060   1.360  8.23102E-01  8.57325E-01 -3.42235E-02
    8995.081      1.480   1.400  8.39534E-01  8.67928E-01 -2.83937E-02
    8995.514      1.913   1.440  8.54321E-01  8.78197E-01 -2.38760E-02
    8995.959      2.358   1.480  8.73241E-01  8.88111E-01 -1.48698E-02
    8996.416      2.815   1.520  8.99825E-01  8.97668E-01  2.15705E-03
    8996.886      3.285   1.560  9.31359E-01  9.06822E-01  2.45364E-02
    8997.367      3.766   1.600  9.60956E-01  9.15573E-01  4.53826E-02
    8997.861      4.260   1.640  9.85709E-01  9.23939E-01  6.17696E-02
    8998.367      4.766   1.680  1.01161E+00  9.31900E-01  7.97123E-02
    8998.885      5.284   1.720  1.04670E+00  9.39433E-01  1.07267E-01
    8999.416      5.815   1.760  1.08835E+00  9.46561E-01  1.41789E-01
    8999.958      6.357   1.800  1.12327E+00  9.53264E-01  1.70004E-01
    9000.513      6.912   1.840  1.14118E+00  9.59564E-01  1.81620E-01
    9001.080      7.479   1.880  1.14139E+00  9.65443E-01  1.75948E-01
    9001.659      8.058   1.920  1.13198E+00  9.70904E-01  1.61078E-01
    9002.250      8.649   1.960  1.12781E+00  9.75973E-01  1.51835E-01
    9002.854      9.253   2.000  1.13698E+00  9.80653E-01  1.56331E-01
    9003.470      9.869   2.040  1.14852E+00  9.84929E-01  1.63594E-01
    9004.097     10.496   2.080  1.14766E+00  9.88848E-01  1.58817E-01
    9004.737     11.136   2.120  1.13529E+00  9.92396E-01  1.42896E-01
    9005.390     11.789   2.160  1.11816E+00  9.95579E-01  1.22582E-01
    9006.054     12.453   2.200  1.10121E+00  9.98426E-01  1.02789E-01
    9006.731     13.130   2.240  1.08963E+00  1.00096E+00  8.86634E-02
    9007.420     13.819   2.280  1.08741E+00  1.00318E+00  8.42256E-02
    9008.121     14.520   2.320  1.09171E+00  1.00512E+00  8.65840E-02
    9008.834     15.233   2.360  1.09392E+00  1.00676E+00  8.71582E-02
    9009.559     15.958   2.400  1.08793E+00  1.00814E+00  7.97842E-02
    9010.297     16.696   2.440  1.07506E+00  1.00930E+00  6.57596E-02
    9011.047     17.446   2.480  1.06081E+00  1.01019E+00  5.06198E-02
    9011.809     18.208   2.520  1.05088E+00  1.01088E+00  3.99978E-02
    9012.583     18.982   2.560  1.04539E+00  1.01136E+00  3.40294E-02
    9013.369     19.768   2.600  1.03899E+00  1.01168E+00  2.73118E-02
    9014.168     20.567   2.640  1.02807E+00  1.01181E+00  1.62609E-02
    9014.979     21.378   2.680  1.01445E+00  1.01177E+00  2.67967E-03
    9015.802     22.201   2.720  1.00078E+00  1.01163E+00 -1.08452E-02
    9016.637     23.036   2.760  9.87890E-01  1.01134E+00 -2.34457E-02
    9017.484     23.883   2.800  9.76772E-01  1.01092E+00 -3.41510E-02
    9018.344     24.743   2.840  9.67988E-01  1.01042E+00 -4.24301E-02
    9019.215     25.614   2.880  9.61422E-01  1.00982E+00 -4.84030E-02
    9020.099     26.498   2.920  9.56654E-01  1.00915E+00 -5.24957E-02
    9020.995     27.394   2.960  9.53255E-01  1.00840E+00 -5.51449E-02
    9021.904     28.303   3.000  9.50620E-01  1.00760E+00 -5.69825E-02
    9022.824     29.223   3.040  9.48273E-01  1.00678E+00 -5.85079E-02
    9023.757     30.156   3.080  9.46034E-01  1.00590E+00 -5.98651E-02
    9024.702     31.101   3.120  9.44164E-01  1.00500E+00 -6.08394E-02
    9025.659     32.058   3.160  9.42799E-01  1.00408E+00 -6.12778E-02
    9026.628     33.027   3.200  9.41870E-01  1.00314E+00 -6.12743E-02
    9027.610     34.009   3.240  9.41213E-01  1.00223E+00 -6.10167E-02
    9028.603     35.002   3.280  9.40636E-01  1.00130E+00 -6.06593E-02
    9029.609     36.008   3.320  9.40338E-01  1.00038E+00 -6.00474E-02
    9030.627     37.026   3.360  9.40747E-01  9.99482E-01 -5.87353E-02
    9031.657     38.056   3.400  9.42287E-01  9.98609E-01 -5.63218E-02
    9032.700     39.099   3.440  9.45125E-01  9.97746E-01 -5.26210E-02
    9033.754     40.153   3.480  9.49257E-01  9.96918E-01 -4.76607E-02
    9034.821     41.220   3.520  9.54493E-01  9.96127E-01 -4.16339E-02
    9035.900     42.299   3.560  9.60487E-01  9.95376E-01 -3.48885E-02
    9036.991     43.390   3.600  9.66890E-01  9.94685E-01 -2.77944E-02
    9038.095     44.494   3.640  9.73381E-01  9.94014E-01 -2.06324E-02
    9039.210     45.609   3.680  9.79729E-01  9.93384E-01 -1.36551E-02
    9040.338     46.737   3.720  9.85820E-01  9.92820E-01 -7.00056E-03
    9041.478     47.877   3.760  9.91647E-01  9.92299E-01 -6.52396E-04
    9042.630     49.029   3.800  9.97321E-01  9.91821E-01  5.50064E-03
    9043.794     50.193   3.840  1.00283E+00  9.91388E-01  1.14374E-02
    9044.971     51.370   3.880  1.00792E+00  9.91022E-01  1.68934E-02
    9046.160     52.559   3.920  1.01205E+00  9.90702E-01  2.13455E-02
    9047.361     53.760   3.960  1.01463E+00  9.90448E-01  2.41819E-02
    9048.574     54.973   4.000  1.01532E+00  9.90217E-01  2.51004E-02
    9049.799     56.198   4.040  1.01425E+00  9.90053E-01  2.41987E-02
    9051.036     57.435   4.080  1.01184E+00  9.89954E-01  2.18842E-02
    9052.286     58.685   4.120  1.00862E+00  9.89878E-01  1.87420E-02
    9053.548     59.947   4.160  1.00527E+00  9.89864E-01  1.54062E-02
    9054.822     61.221   4.200  1.00234E+00  9.89870E-01  1.24728E-02
    9056.108     62.507   4.240  1.00040E+00  9.89940E-01  1.04593E-02
    9057.407     63.806   4.280  9.99780E-01  9.90051E-01  9.72868E-03
    9058.717     65.116   4.320  1.00058E+00  9.90203E-01  1.03789E-02
    9060.040     66.439   4.360  1.00254E+00  9.90393E-01  1.21476E-02
    9061.375     67.774   4.400  1.00510E+00  9.90620E-01  1.44790E-02
    9062.722     69.121   4.440  1.00757E+00  9.90861E-01  1.67121E-02
    9064.082     70.481   4.480  1.00958E+00  9.91159E-01  1.84210E-02
    9065.453     71.852   4.520  1.01102E+00  9.91468E-01  1.95543E-02
    9066.837     73.236   4.560  1.01220E+00  9.91789E-01  2.04105E-02
    9068.233     74.632   4.600  1.01355E+00  9.92161E-01  2.13930E-02
    9069.641     76.040   4.640  1.01525E+00  9.92520E-01  2.27283E-02
    9071.062     77.461   4.680  1.01726E+00  9.92909E-01  2.43480E-02
    9072.494     78.893   4.720  1.01922E+00  9.93324E-01  2.58922E-02
    9073.939     80.338   4.760  1.02057E+00  9.93743E-01  2.68250E-02
    9075.396     81.795   4.800  1.02075E+00  9.94143E-01  2.66033E-02
    9076.865     83.264   4.840  1.01939E+00  9.94564E-01  2.48229E-02
    9078.346     84.745   4.880  1.01633E+00  9.94986E-01  2.13469E-02
    9079.840     86.239   4.920  1.01186E+00  9.95408E-01  1.64554E-02
    9081.346     87.745   4.960  1.00665E+00  9.95827E-01  1.08232E-02
    9082.863     89.262   5.000  1.00156E+00  9.96242E-01  5.31995E-03
    9084.394     90.793   5.040  9.97330E-01  9.96628E-01  7.01483E-04
    9085.936     92.335   5.080  9.94378E-01  9.97008E-01 -2.63061E-03
    9087.490     93.889   5.120  9.92713E-01  9.97381E-01 -4.66751E-03
    9089.057     95.456   5.160  9.92020E-01  9.97723E-01 -5.70348E-03
    9090.636     97.035   5.200  9.91931E-01  9.98056E-01 -6.12430E-03
    9092.227     98.626   5.240  9.92092E-01  9.98356E-01 -6.26366E-03
    9093.830    100.229   5.280  9.92312E-01  9.98644E-01 -6.33201E-03
    9095.446    101.845   5.320  9.92467E-01  9.98898E-01 -6.43038E-03
    9097.073    103.472   5.360  9.92506E-01  9.99116E-01 -6.61052E-03
    9098.713    105.112   5.400  9.92407E-01  9.99322E-01 -6.91496E-03
    9100.365    106.764   5.440  9.92119E-01  9.99490E-01 -7.37141E-03
    9102.029    108.428   5.480  9.91628E-01  9.99620E-01 -7.99184E-03
    9103.706    110.105   5.520  9.90913E-01  9.99711E-01 -8.79765E-03
    9105.394    111.793   5.560  9.89934E-01  9.99764E-01 -9.82938E-03
    9107.095    113.494   5.600  9.88641E-01  9.99778E-01 -1.11362E-02
    9108.808    115.207   5.640  9.87052E-01  9.99777E-01 -1.27243E-02
    9110.533    116.932   5.680  9.85278E-01  9.99738E-01 -1.44607E-02
    9112.270    118.669   5.720  9.83559E-01  9.99637E-01 -1.60789E-02
    9114.020    120.419   5.760  9.82232E-01  9.99521E-01 -1.72887E-02
    9115.782    122.181   5.800  9.81448E-01  9.99367E-01 -1.79195E-02
    9117.556    123.955   5.840  9.81203E-01  9.99175E-01 -1.79717E-02
    9119.342    125.741   5.880  9.81357E-01  9.98947E-01 -1.75898E-02
    9121.140    127.539   5.920  9.81697E-01  9.98684E-01 -1.69871E-02
    9122.951    129.350   5.960  9.82088E-01  9.98410E-01 -1.63225E-02
    9124.773    131.172   6.000  9.82464E-01  9.98049E-01 -1.55844E-02
