# # comment:                                                     FEFF 9.9.1  
# # Source:
# # Structure
# # Reduced
# # space
# # abc:
# # angles:
# # sites:
# # POT  SCF 100  7.0000   0, screened core-hole, AFOLP (folp(0)= 1.150)
# # Abs   Z=29 Rmt= 1.172 Rnm= 1.253 K  shell
# # Pot 1 Z=57 Rmt= 1.747 Rnm= 1.828
# # Pot 2 Z=60 Rmt= 1.717 Rnm= 1.793
# # Pot 3 Z=29 Rmt= 1.179 Rnm= 1.257
# # Pot 4 Z= 8 Rmt= 1.040 Rnm= 1.086
# # Gam_ch=1.729E+00 H-L exch Vi= 0.000E+00 Vr= 0.000E+00
# # Mu=-8.028E+00eV kf=2.069E+00 Vint=-1.890E+01eV Rs_int= 1.753
# FMS rfms= 9.0000
# # PATH  Rmax=-1.000,  Keep_limit= 0.00, Heap_limit 0.00  Pwcrit= 2.50%
#  S02=0.950  Temp=   0.00  Debye_temp=   0.00  Global_sig2= 0.00000
#  Energy zero shift, vr, vi    0.00000E+00   0.00000E+00
#  Curved wave amplitude ratio filter   4.000%
#     file         sig2 tot  cw amp ratio   deg  nlegs   reff  inp sig2
#     0/   0 paths used
#  xsedge+ 50, used to normalize mu           2.4502E-04
#  -----------------------------------------------------------------------
#  omega    e    k    mu    mu0     chi     @#
    8985.281    -11.838  -1.000  4.01899E-02  5.82089E-02 -1.80191E-02
    8985.580    -11.539  -0.960  4.22843E-02  6.25845E-02 -2.03002E-02
    8985.867    -11.253  -0.920  4.45374E-02  6.74604E-02 -2.29229E-02
    8986.141    -10.979  -0.880  4.69676E-02  7.29115E-02 -2.59439E-02
    8986.403    -10.716  -0.840  4.95960E-02  7.90254E-02 -2.94295E-02
    8986.653    -10.466  -0.800  5.24468E-02  8.59035E-02 -3.34567E-02
    8986.891    -10.229  -0.760  5.55477E-02  9.36624E-02 -3.81146E-02
    8987.116    -10.003  -0.720  5.89300E-02  1.02434E-01 -4.35040E-02
    8987.330     -9.790  -0.680  6.26277E-02  1.12364E-01 -4.97363E-02
    8987.531     -9.589  -0.640  6.66761E-02  1.23606E-01 -5.69302E-02
    8987.720     -9.400  -0.600  7.11097E-02  1.36313E-01 -6.52029E-02
    8987.897     -9.223  -0.560  7.59563E-02  1.50613E-01 -7.46565E-02
    8988.061     -9.058  -0.520  8.12297E-02  1.66585E-01 -8.53554E-02
    8988.214     -8.906  -0.480  8.69195E-02  1.84215E-01 -9.72953E-02
    8988.354     -8.766  -0.440  9.29779E-02  2.03346E-01 -1.10368E-01
    8988.482     -8.638  -0.400  9.93102E-02  2.23642E-01 -1.24332E-01
    8988.598     -8.522  -0.360  1.05770E-01  2.44573E-01 -1.38802E-01
    8988.701     -8.418  -0.320  1.12170E-01  2.65448E-01 -1.53279E-01
    8988.793     -8.327  -0.280  1.18297E-01  2.85505E-01 -1.67208E-01
    8988.872     -8.248  -0.240  1.23947E-01  3.04009E-01 -1.80062E-01
    8988.939     -8.180  -0.200  1.28944E-01  3.20351E-01 -1.91407E-01
    8988.994     -8.126  -0.160  1.33155E-01  3.34085E-01 -2.00929E-01
    8989.037     -8.083  -0.120  1.36494E-01  3.44932E-01 -2.08438E-01
    8989.067     -8.052  -0.080  1.38906E-01  3.52740E-01 -2.13834E-01
    8989.091     -8.028   0.000  1.40853E-01  3.59009E-01 -2.18157E-01
    8989.146     -7.973   0.120  1.45238E-01  3.73141E-01 -2.27902E-01
    8989.189     -7.931   0.160  1.48638E-01  3.84102E-01 -2.35464E-01
    8989.244     -7.876   0.200  1.52953E-01  3.98069E-01 -2.45116E-01
    8989.311     -7.809   0.240  1.58142E-01  4.14829E-01 -2.56687E-01
    8989.390     -7.729   0.280  1.64066E-01  4.34018E-01 -2.69951E-01
    8989.482     -7.638   0.320  1.70585E-01  4.55109E-01 -2.84524E-01
    8989.585     -7.534   0.360  1.77483E-01  4.77432E-01 -2.99949E-01
    8989.701     -7.419   0.400  1.84592E-01  5.00299E-01 -3.15706E-01
    8989.829     -7.290   0.440  1.91788E-01  5.23059E-01 -3.31271E-01
    8989.969     -7.150   0.480  1.99095E-01  5.45248E-01 -3.46153E-01
    8990.122     -6.998   0.520  2.06572E-01  5.66497E-01 -3.59925E-01
    8990.286     -6.833   0.560  2.14493E-01  5.86706E-01 -3.72212E-01
    8990.463     -6.657   0.600  2.23207E-01  6.05819E-01 -3.82612E-01
    8990.652     -6.468   0.640  2.33340E-01  6.23908E-01 -3.90568E-01
    8990.853     -6.266   0.680  2.45544E-01  6.41045E-01 -3.95501E-01
    8991.067     -6.053   0.720  2.60418E-01  6.57385E-01 -3.96966E-01
    8991.292     -5.827   0.760  2.78260E-01  6.73038E-01 -3.94779E-01
    8991.530     -5.590   0.800  2.98656E-01  6.88087E-01 -3.89431E-01
    8991.780     -5.340   0.840  3.19789E-01  7.02657E-01 -3.82867E-01
    8992.042     -5.078   0.880  3.38434E-01  7.16778E-01 -3.78344E-01
    8992.316     -4.803   0.920  3.52850E-01  7.30525E-01 -3.77674E-01
    8992.603     -4.517   0.960  3.65180E-01  7.43959E-01 -3.78780E-01
    8992.901     -4.218   1.000  3.79164E-01  7.57111E-01 -3.77947E-01
    8993.212     -3.907   1.040  3.96855E-01  7.69956E-01 -3.73101E-01
    8993.535     -3.584   1.080  4.19662E-01  7.82566E-01 -3.62904E-01
    8993.871     -3.249   1.120  4.50771E-01  7.94902E-01 -3.44130E-01
    8994.218     -2.901   1.160  4.95120E-01  8.07001E-01 -3.11881E-01
    8994.578     -2.542   1.200  5.57341E-01  8.18813E-01 -2.61472E-01
    8994.950     -2.170   1.240  6.41142E-01  8.30367E-01 -1.89225E-01
    8995.334     -1.786   1.280  7.49448E-01  8.41627E-01 -9.21791E-02
    8995.730     -1.390   1.320  8.85821E-01  8.52576E-01  3.32446E-02
    8996.138     -0.981   1.360  1.04920E+00  8.63233E-01  1.85964E-01
    8996.559     -0.561   1.400  1.20324E+00  8.73558E-01  3.29683E-01
    8996.992     -0.128   1.440  1.26223E+00  8.83550E-01  3.78676E-01
    8997.437      0.317   1.480  1.19595E+00  8.93186E-01  3.02762E-01
    8997.894      0.774   1.520  1.08152E+00  9.02444E-01  1.79074E-01
    8998.363      1.244   1.560  9.93572E-01  9.11344E-01  8.22277E-02
    8998.845      1.725   1.600  9.62640E-01  9.19842E-01  4.27980E-02
    8999.339      2.219   1.640  9.98254E-01  9.27958E-01  7.02959E-02
    8999.845      2.725   1.680  1.09857E+00  9.35670E-01  1.62898E-01
    9000.363      3.243   1.720  1.23496E+00  9.42999E-01  2.91963E-01
    9000.893      3.774   1.760  1.33920E+00  9.49884E-01  3.89314E-01
    9001.436      4.316   1.800  1.36288E+00  9.56387E-01  4.06496E-01
    9001.991      4.871   1.840  1.32789E+00  9.62469E-01  3.65424E-01
    9002.557      5.438   1.880  1.28090E+00  9.68153E-01  3.12747E-01
    9003.137      6.017   1.920  1.23614E+00  9.73445E-01  2.62699E-01
    9003.728      6.608   1.960  1.18802E+00  9.78345E-01  2.09671E-01
    9004.331      7.212   2.000  1.14952E+00  9.82839E-01  1.66679E-01
    9004.947      7.828   2.040  1.14019E+00  9.86973E-01  1.53218E-01
    9005.575      8.455   2.080  1.15580E+00  9.90732E-01  1.65070E-01
    9006.215      9.095   2.120  1.17628E+00  9.94123E-01  1.82159E-01
    9006.867      9.748   2.160  1.18849E+00  9.97191E-01  1.91295E-01
    9007.532     10.412   2.200  1.18790E+00  9.99904E-01  1.87999E-01
    9008.208     11.089   2.240  1.17530E+00  1.00231E+00  1.72992E-01
    9008.897     11.778   2.280  1.14793E+00  1.00442E+00  1.43506E-01
    9009.598     12.479   2.320  1.10392E+00  1.00624E+00  9.76854E-02
    9010.312     13.192   2.360  1.05370E+00  1.00779E+00  4.59084E-02
    9011.037     13.917   2.400  1.01634E+00  1.00907E+00  7.27461E-03
    9011.775     14.655   2.440  1.00584E+00  1.01012E+00 -4.27475E-03
    9012.524     15.405   2.480  1.02345E+00  1.01093E+00  1.25167E-02
    9013.286     16.167   2.520  1.05123E+00  1.01156E+00  3.96749E-02
    9014.061     16.941   2.560  1.07294E+00  1.01195E+00  6.09866E-02
    9014.847     17.727   2.600  1.08693E+00  1.01220E+00  7.47330E-02
    9015.646     18.526   2.640  1.09335E+00  1.01226E+00  8.10913E-02
    9016.456     19.337   2.680  1.09333E+00  1.01217E+00  8.11550E-02
    9017.279     20.160   2.720  1.08767E+00  1.01196E+00  7.57096E-02
    9018.114     20.995   2.760  1.07671E+00  1.01160E+00  6.51083E-02
    9018.962     21.842   2.800  1.06041E+00  1.01114E+00  4.92753E-02
    9019.821     22.702   2.840  1.03927E+00  1.01059E+00  2.86769E-02
    9020.693     23.573   2.880  1.01460E+00  1.00995E+00  4.64752E-03
    9021.577     24.457   2.920  9.88461E-01  1.00924E+00 -2.07805E-02
    9022.473     25.353   2.960  9.62780E-01  1.00848E+00 -4.56960E-02
    9023.381     26.262   3.000  9.39615E-01  1.00764E+00 -6.80260E-02
    9024.302     27.182   3.040  9.20351E-01  1.00679E+00 -8.64338E-02
    9025.235     28.115   3.080  9.05191E-01  1.00589E+00 -1.00702E-01
    9026.179     29.060   3.120  8.93917E-01  1.00497E+00 -1.11049E-01
    9027.136     30.017   3.160  8.86022E-01  1.00405E+00 -1.18032E-01
    9028.106     30.986   3.200  8.81035E-01  1.00312E+00 -1.22082E-01
    9029.087     31.968   3.240  8.78964E-01  1.00218E+00 -1.23215E-01
    9030.081     32.961   3.280  8.79963E-01  1.00127E+00 -1.21304E-01
    9031.087     33.967   3.320  8.83917E-01  1.00036E+00 -1.16444E-01
    9032.105     34.985   3.360  8.90370E-01  9.99485E-01 -1.09115E-01
    9033.135     36.015   3.400  8.98158E-01  9.98620E-01 -1.00462E-01
    9034.177     37.058   3.440  9.05749E-01  9.97791E-01 -9.20424E-02
    9035.232     38.112   3.480  9.11902E-01  9.97001E-01 -8.50995E-02
    9036.299     39.179   3.520  9.16150E-01  9.96273E-01 -8.01225E-02
    9037.378     40.258   3.560  9.18899E-01  9.95566E-01 -7.66665E-02
    9038.469     41.349   3.600  9.21178E-01  9.94923E-01 -7.37452E-02
    9039.572     42.453   3.640  9.23993E-01  9.94325E-01 -7.03322E-02
    9040.688     43.568   3.680  9.27882E-01  9.93772E-01 -6.58898E-02
    9041.816     44.696   3.720  9.32710E-01  9.93285E-01 -6.05755E-02
    9042.955     45.836   3.760  9.38031E-01  9.92846E-01 -5.48154E-02
    9044.108     46.988   3.800  9.43769E-01  9.92456E-01 -4.86877E-02
    9045.272     48.152   3.840  9.50176E-01  9.92137E-01 -4.19602E-02
    9046.448     49.329   3.880  9.57643E-01  9.91887E-01 -3.42443E-02
    9047.637     50.518   3.920  9.66554E-01  9.91687E-01 -2.51327E-02
    9048.838     51.719   3.960  9.77086E-01  9.91535E-01 -1.44482E-02
    9050.051     52.932   4.000  9.89031E-01  9.91454E-01 -2.42303E-03
    9051.277     54.157   4.040  1.00169E+00  9.91445E-01  1.02426E-02
    9052.514     55.394   4.080  1.01401E+00  9.91482E-01  2.25290E-02
    9053.764     56.644   4.120  1.02481E+00  9.91567E-01  3.32396E-02
    9055.026     57.906   4.160  1.03311E+00  9.91720E-01  4.13911E-02
    9056.300     59.180   4.200  1.03858E+00  9.91918E-01  4.66584E-02
    9057.586     60.466   4.240  1.04157E+00  9.92160E-01  4.94105E-02
    9058.884     61.765   4.280  1.04283E+00  9.92447E-01  5.03828E-02
    9060.195     63.075   4.320  1.04325E+00  9.92799E-01  5.04530E-02
    9061.518     64.398   4.360  1.04359E+00  9.93194E-01  5.03915E-02
    9062.853     65.733   4.400  1.04414E+00  9.93630E-01  5.05095E-02
    9064.200     67.080   4.440  1.04483E+00  9.94104E-01  5.07296E-02
    9065.559     68.440   4.480  1.04546E+00  9.94594E-01  5.08627E-02
    9066.931     69.811   4.520  1.04618E+00  9.95141E-01  5.10406E-02
    9068.315     71.195   4.560  1.04762E+00  9.95704E-01  5.19155E-02
    9069.711     72.591   4.600  1.05061E+00  9.96301E-01  5.43112E-02
    9071.119     73.999   4.640  1.05560E+00  9.96928E-01  5.86740E-02
    9072.539     75.420   4.680  1.06231E+00  9.97565E-01  6.47463E-02
    9073.972     76.852   4.720  1.06985E+00  9.98208E-01  7.16463E-02
    9075.417     78.297   4.760  1.07693E+00  9.98877E-01  7.80515E-02
    9076.874     79.754   4.800  1.08206E+00  9.99550E-01  8.25052E-02
    9078.343     81.223   4.840  1.08387E+00  1.00023E+00  8.36469E-02
    9079.824     82.704   4.880  1.08133E+00  1.00090E+00  8.04294E-02
    9081.317     84.198   4.920  1.07409E+00  1.00160E+00  7.24942E-02
    9082.823     85.704   4.960  1.06263E+00  1.00227E+00  6.03647E-02
    9084.341     87.222   5.000  1.04827E+00  1.00291E+00  4.53594E-02
    9085.871     88.752   5.040  1.03279E+00  1.00357E+00  2.92150E-02
    9087.413     90.294   5.080  1.01769E+00  1.00420E+00  1.34915E-02
    9088.968     91.848   5.120  1.00411E+00  1.00479E+00 -6.79575E-04
    9090.535     93.415   5.160  9.92765E-01  1.00538E+00 -1.26107E-02
    9092.113     94.994   5.200  9.84073E-01  1.00593E+00 -2.18528E-02
    9093.704     96.585   5.240  9.78190E-01  1.00646E+00 -2.82730E-02
    9095.308     98.188   5.280  9.74830E-01  1.00696E+00 -3.21335E-02
    9096.923     99.804   5.320  9.73354E-01  1.00742E+00 -3.40712E-02
    9098.551    101.431   5.360  9.72929E-01  1.00785E+00 -3.49164E-02
    9100.191    103.071   5.400  9.72733E-01  1.00823E+00 -3.54928E-02
    9101.843    104.723   5.440  9.71963E-01  1.00856E+00 -3.66012E-02
    9103.507    106.387   5.480  9.69932E-01  1.00886E+00 -3.89282E-02
    9105.183    108.064   5.520  9.66430E-01  1.00912E+00 -4.26855E-02
    9106.872    109.752   5.560  9.61989E-01  1.00932E+00 -4.73355E-02
    9108.573    111.453   5.600  9.57588E-01  1.00947E+00 -5.18803E-02
    9110.286    113.166   5.640  9.54058E-01  1.00959E+00 -5.55330E-02
    9112.011    114.891   5.680  9.51536E-01  1.00965E+00 -5.81098E-02
    9113.748    116.628   5.720  9.49728E-01  1.00966E+00 -5.99288E-02
    9115.498    118.378   5.760  9.48237E-01  1.00962E+00 -6.13847E-02
    9117.259    120.140   5.800  9.46984E-01  1.00952E+00 -6.25335E-02
    9119.033    121.914   5.840  9.46563E-01  1.00937E+00 -6.28070E-02
    9120.819    123.700   5.880  9.47971E-01  1.00918E+00 -6.12094E-02
    9122.618    125.498   5.920  9.51884E-01  1.00895E+00 -5.70645E-02
    9124.428    127.309   5.960  9.57996E-01  1.00864E+00 -5.06484E-02
    9126.251    129.131   6.000  9.65398E-01  1.00829E+00 -4.28895E-02
