# # comment:                                                     FEFF 9.9.1  
# # Source:
# # Structure
# # Reduced
# # space
# # abc:
# # angles:118.085306
# # sites:
# # POT  SCF 100  7.0000   0, screened core-hole, AFOLP (folp(0)= 1.150)
# # Abs   Z=29 Rmt= 1.204 Rnm= 1.275 K  shell
# # Pot 1 Z=57 Rmt= 1.742 Rnm= 1.822
# # Pot 2 Z=29 Rmt= 1.209 Rnm= 1.280
# # Pot 3 Z= 8 Rmt= 1.049 Rnm= 1.096
# # Gam_ch=1.729E+00 H-L exch Vi= 0.000E+00 Vr= 0.000E+00
# # Mu=-8.408E+00eV kf=2.067E+00 Vint=-1.864E+01eV Rs_int= 1.755
# FMS rfms= 9.0000
# # PATH  Rmax=-1.000,  Keep_limit= 0.00, Heap_limit 0.00  Pwcrit= 2.50%
#  S02=0.950  Temp=   0.00  Debye_temp=   0.00  Global_sig2= 0.00000
#  Energy zero shift, vr, vi    0.00000E+00   0.00000E+00
#  Curved wave amplitude ratio filter   4.000%
#     file         sig2 tot  cw amp ratio   deg  nlegs   reff  inp sig2
#     0/   0 paths used
#  xsedge+ 50, used to normalize mu           2.4459E-04
#  -----------------------------------------------------------------------
#  omega    e    k    mu    mu0     chi     @#
    8985.426    -12.218  -1.000  4.25758E-02  5.88820E-02 -1.63062E-02
    8985.724    -11.919  -0.960  4.49300E-02  6.33199E-02 -1.83899E-02
    8986.011    -11.633  -0.920  4.74787E-02  6.82654E-02 -2.07868E-02
    8986.285    -11.358  -0.880  5.02458E-02  7.37946E-02 -2.35488E-02
    8986.547    -11.096  -0.840  5.32592E-02  7.99959E-02 -2.67367E-02
    8986.797    -10.846  -0.800  5.65511E-02  8.69723E-02 -3.04212E-02
    8987.035    -10.609  -0.760  6.01580E-02  9.48419E-02 -3.46839E-02
    8987.261    -10.383  -0.720  6.41211E-02  1.03738E-01 -3.96172E-02
    8987.474    -10.170  -0.680  6.84856E-02  1.13809E-01 -4.53234E-02
    8987.675     -9.968  -0.640  7.32988E-02  1.25210E-01 -5.19111E-02
    8987.864     -9.779  -0.600  7.86067E-02  1.38095E-01 -5.94878E-02
    8988.041     -9.603  -0.560  8.44479E-02  1.52594E-01 -6.81464E-02
    8988.205     -9.438  -0.520  9.08444E-02  1.68788E-01 -7.79440E-02
    8988.358     -9.286  -0.480  9.77885E-02  1.86662E-01 -8.88732E-02
    8988.498     -9.146  -0.440  1.05228E-01  2.06056E-01 -1.00829E-01
    8988.626     -9.017  -0.400  1.13051E-01  2.26632E-01 -1.13580E-01
    8988.742     -8.902  -0.360  1.21085E-01  2.47850E-01 -1.26765E-01
    8988.846     -8.798  -0.320  1.29099E-01  2.69014E-01 -1.39914E-01
    8988.937     -8.707  -0.280  1.36830E-01  2.89348E-01 -1.52518E-01
    8989.016     -8.627  -0.240  1.44013E-01  3.08110E-01 -1.64097E-01
    8989.083     -8.560  -0.200  1.50414E-01  3.24680E-01 -1.74266E-01
    8989.138     -8.505  -0.160  1.55846E-01  3.38609E-01 -1.82763E-01
    8989.181     -8.463  -0.120  1.60178E-01  3.49610E-01 -1.89432E-01
    8989.211     -8.432  -0.080  1.63327E-01  3.57530E-01 -1.94203E-01
    8989.236     -8.408   0.000  1.65890E-01  3.63888E-01 -1.97997E-01
    8989.291     -8.353   0.120  1.71594E-01  3.78216E-01 -2.06623E-01
    8989.333     -8.310   0.160  1.76033E-01  3.89332E-01 -2.13298E-01
    8989.388     -8.256   0.200  1.81716E-01  4.03521E-01 -2.21805E-01
    8989.455     -8.188   0.240  1.88534E-01  4.20534E-01 -2.32000E-01
    8989.534     -8.109   0.280  1.96352E-01  4.40023E-01 -2.43671E-01
    8989.626     -8.018   0.320  2.04871E-01  4.61458E-01 -2.56587E-01
    8989.729     -7.914   0.360  2.13655E-01  4.84144E-01 -2.70490E-01
    8989.845     -7.798   0.400  2.22214E-01  5.07407E-01 -2.85193E-01
    8989.973     -7.670   0.440  2.30054E-01  5.30593E-01 -3.00539E-01
    8990.114     -7.530   0.480  2.36926E-01  5.53191E-01 -3.16265E-01
    8990.266     -7.378   0.520  2.43061E-01  5.74909E-01 -3.31849E-01
    8990.430     -7.213   0.560  2.49090E-01  5.95544E-01 -3.46454E-01
    8990.607     -7.036   0.600  2.56102E-01  6.15120E-01 -3.59018E-01
    8990.796     -6.847   0.640  2.65056E-01  6.33644E-01 -3.68588E-01
    8990.997     -6.646   0.680  2.76704E-01  6.51232E-01 -3.74528E-01
    8991.211     -6.433   0.720  2.91442E-01  6.67996E-01 -3.76554E-01
    8991.436     -6.207   0.760  3.09366E-01  6.84045E-01 -3.74678E-01
    8991.674     -5.970   0.800  3.30203E-01  6.99497E-01 -3.69294E-01
    8991.924     -5.720   0.840  3.53062E-01  7.14441E-01 -3.61379E-01
    8992.186     -5.457   0.880  3.76225E-01  7.28922E-01 -3.52697E-01
    8992.460     -5.183   0.920  3.97813E-01  7.42995E-01 -3.45182E-01
    8992.747     -4.897   0.960  4.17645E-01  7.56719E-01 -3.39074E-01
    8993.046     -4.598   1.000  4.37727E-01  7.70120E-01 -3.32393E-01
    8993.357     -4.287   1.040  4.60153E-01  7.83194E-01 -3.23041E-01
    8993.680     -3.964   1.080  4.85697E-01  7.95972E-01 -3.10274E-01
    8994.015     -3.629   1.120  5.15093E-01  8.08431E-01 -2.93338E-01
    8994.362     -3.281   1.160  5.51318E-01  8.20589E-01 -2.69270E-01
    8994.722     -2.922   1.200  5.99763E-01  8.32434E-01 -2.32671E-01
    8995.094     -2.550   1.240  6.66470E-01  8.43954E-01 -1.77485E-01
    8995.478     -2.166   1.280  7.55618E-01  8.55134E-01 -9.95158E-02
    8995.874     -1.769   1.320  8.67953E-01  8.65954E-01  1.99942E-03
    8996.283     -1.361   1.360  9.97349E-01  8.76415E-01  1.20934E-01
    8996.703     -0.940   1.400  1.11614E+00  8.86498E-01  2.29640E-01
    8997.136     -0.508   1.440  1.17232E+00  8.96201E-01  2.76120E-01
    8997.581     -0.063   1.480  1.14971E+00  9.05484E-01  2.44230E-01
    8998.038      0.395   1.520  1.09605E+00  9.14365E-01  1.81682E-01
    8998.508      0.864   1.560  1.06227E+00  9.22822E-01  1.39451E-01
    8998.989      1.346   1.600  1.07522E+00  9.30838E-01  1.44383E-01
    8999.483      1.839   1.640  1.13934E+00  9.38451E-01  2.00892E-01
    8999.989      2.345   1.680  1.23571E+00  9.45603E-01  2.90110E-01
    9000.507      2.864   1.720  1.33296E+00  9.52336E-01  3.80624E-01
    9001.037      3.394   1.760  1.40700E+00  9.58632E-01  4.48372E-01
    9001.580      3.936   1.800  1.43719E+00  9.64495E-01  4.72690E-01
    9002.135      4.491   1.840  1.40428E+00  9.69951E-01  4.34329E-01
    9002.702      5.058   1.880  1.33257E+00  9.74961E-01  3.57614E-01
    9003.281      5.637   1.920  1.26257E+00  9.79594E-01  2.82977E-01
    9003.872      6.229   1.960  1.20643E+00  9.83816E-01  2.22614E-01
    9004.476      6.832   2.000  1.16550E+00  9.87651E-01  1.77850E-01
    9005.091      7.448   2.040  1.14521E+00  9.91130E-01  1.54083E-01
    9005.719      8.076   2.080  1.14415E+00  9.94238E-01  1.49916E-01
    9006.359      8.716   2.120  1.14335E+00  9.97005E-01  1.46343E-01
    9007.012      9.368   2.160  1.13103E+00  9.99439E-01  1.31591E-01
    9007.676     10.032   2.200  1.11251E+00  1.00157E+00  1.10937E-01
    9008.353     10.709   2.240  1.09458E+00  1.00340E+00  9.11732E-02
    9009.042     11.398   2.280  1.07358E+00  1.00497E+00  6.86049E-02
    9009.743     12.099   2.320  1.04545E+00  1.00626E+00  3.91872E-02
    9010.456     12.812   2.360  1.01638E+00  1.00733E+00  9.04888E-03
    9011.181     13.538   2.400  9.99068E-01  1.00815E+00 -9.08403E-03
    9011.919     14.275   2.440  1.00234E+00  1.00879E+00 -6.44805E-03
    9012.669     15.025   2.480  1.02574E+00  1.00920E+00  1.65411E-02
    9013.431     15.787   2.520  1.05123E+00  1.00946E+00  4.17740E-02
    9014.205     16.561   2.560  1.06595E+00  1.00955E+00  5.64024E-02
    9014.991     17.348   2.600  1.07176E+00  1.00948E+00  6.22760E-02
    9015.790     18.146   2.640  1.07159E+00  1.00929E+00  6.23001E-02
    9016.601     18.957   2.680  1.06686E+00  1.00900E+00  5.78603E-02
    9017.423     19.780   2.720  1.05736E+00  1.00859E+00  4.87759E-02
    9018.259     20.615   2.760  1.04279E+00  1.00809E+00  3.46953E-02
    9019.106     21.462   2.800  1.02356E+00  1.00754E+00  1.60255E-02
    9019.965     22.322   2.840  1.00103E+00  1.00691E+00 -5.87906E-03
    9020.837     23.194   2.880  9.77311E-01  1.00623E+00 -2.89204E-02
    9021.721     24.078   2.920  9.54147E-01  1.00549E+00 -5.13417E-02
    9022.617     24.974   2.960  9.32784E-01  1.00475E+00 -7.19660E-02
    9023.526     25.882   3.000  9.14130E-01  1.00396E+00 -8.98278E-02
    9024.446     26.802   3.040  8.98632E-01  1.00318E+00 -1.04546E-01
    9025.379     27.735   3.080  8.86195E-01  1.00237E+00 -1.16179E-01
    9026.324     28.680   3.120  8.76792E-01  1.00159E+00 -1.24801E-01
    9027.281     29.637   3.160  8.70085E-01  1.00081E+00 -1.30729E-01
    9028.250     30.606   3.200  8.66020E-01  1.00004E+00 -1.34021E-01
    9029.231     31.588   3.240  8.64899E-01  9.99300E-01 -1.34401E-01
    9030.225     32.581   3.280  8.66808E-01  9.98594E-01 -1.31786E-01
    9031.231     33.587   3.320  8.71577E-01  9.97923E-01 -1.26347E-01
    9032.249     34.605   3.360  8.78783E-01  9.97270E-01 -1.18487E-01
    9033.279     35.636   3.400  8.87872E-01  9.96677E-01 -1.08806E-01
    9034.322     36.678   3.440  8.97768E-01  9.96127E-01 -9.83582E-02
    9035.376     37.733   3.480  9.07772E-01  9.95619E-01 -8.78470E-02
    9036.443     38.799   3.520  9.17505E-01  9.95155E-01 -7.76503E-02
    9037.522     39.878   3.560  9.26896E-01  9.94758E-01 -6.78615E-02
    9038.613     40.969   3.600  9.36009E-01  9.94408E-01 -5.83983E-02
    9039.716     42.073   3.640  9.45004E-01  9.94104E-01 -4.90992E-02
    9040.832     43.188   3.680  9.54082E-01  9.93867E-01 -3.97853E-02
    9041.960     44.316   3.720  9.63256E-01  9.93680E-01 -3.04237E-02
    9043.100     45.456   3.760  9.72640E-01  9.93562E-01 -2.09217E-02
    9044.252     46.608   3.800  9.82389E-01  9.93491E-01 -1.11023E-02
    9045.416     47.773   3.840  9.92596E-01  9.93489E-01 -8.92797E-04
    9046.593     48.949   3.880  1.00322E+00  9.93513E-01  9.71073E-03
    9047.781     50.138   3.920  1.01418E+00  9.93623E-01  2.05564E-02
    9048.982     51.339   3.960  1.02509E+00  9.93759E-01  3.13295E-02
    9050.195     52.552   4.000  1.03557E+00  9.93961E-01  4.16137E-02
    9051.421     53.777   4.040  1.04514E+00  9.94207E-01  5.09310E-02
    9052.658     55.015   4.080  1.05326E+00  9.94495E-01  5.87625E-02
    9053.908     56.264   4.120  1.05938E+00  9.94826E-01  6.45573E-02
    9055.170     57.526   4.160  1.06326E+00  9.95219E-01  6.80437E-02
    9056.444     58.800   4.200  1.06492E+00  9.95629E-01  6.92951E-02
    9057.730     60.086   4.240  1.06474E+00  9.96077E-01  6.86670E-02
    9059.028     61.385   4.280  1.06316E+00  9.96562E-01  6.65992E-02
    9060.339     62.696   4.320  1.06062E+00  9.97084E-01  6.35377E-02
    9061.662     64.018   4.360  1.05750E+00  9.97640E-01  5.98616E-02
    9062.997     65.353   4.400  1.05410E+00  9.98207E-01  5.58933E-02
    9064.344     66.701   4.440  1.05091E+00  9.98803E-01  5.21109E-02
    9065.704     68.060   4.480  1.04843E+00  9.99405E-01  4.90273E-02
    9067.075     69.432   4.520  1.04712E+00  1.00001E+00  4.71106E-02
    9068.459     70.815   4.560  1.04727E+00  1.00064E+00  4.66299E-02
    9069.855     72.211   4.600  1.04876E+00  1.00125E+00  4.75020E-02
    9071.263     73.620   4.640  1.05117E+00  1.00189E+00  4.92858E-02
    9072.683     75.040   4.680  1.05383E+00  1.00252E+00  5.13097E-02
    9074.116     76.472   4.720  1.05589E+00  1.00315E+00  5.27336E-02
    9075.561     77.917   4.760  1.05638E+00  1.00376E+00  5.26201E-02
    9077.018     79.374   4.800  1.05452E+00  1.00438E+00  5.01372E-02
    9078.487     80.843   4.840  1.04973E+00  1.00495E+00  4.47823E-02
    9079.968     82.325   4.880  1.04216E+00  1.00553E+00  3.66315E-02
    9081.462     83.818   4.920  1.03246E+00  1.00608E+00  2.63812E-02
    9082.967     85.324   4.960  1.02168E+00  1.00660E+00  1.50893E-02
    9084.485     86.842   5.000  1.01099E+00  1.00710E+00  3.89124E-03
    9086.015     88.372   5.040  1.00137E+00  1.00756E+00 -6.19742E-03
    9087.558     89.914   5.080  9.93531E-01  1.00799E+00 -1.44634E-02
    9089.112     91.469   5.120  9.87755E-01  1.00841E+00 -2.06512E-02
    9090.679     93.035   5.160  9.83614E-01  1.00876E+00 -2.51442E-02
    9092.258     94.614   5.200  9.80354E-01  1.00909E+00 -2.87363E-02
    9093.849     96.205   5.240  9.77022E-01  1.00936E+00 -3.23380E-02
    9095.452     97.808   5.280  9.72984E-01  1.00961E+00 -3.66272E-02
    9097.067     99.424   5.320  9.67978E-01  1.00982E+00 -4.18423E-02
    9098.695    101.051   5.360  9.62257E-01  1.00996E+00 -4.77056E-02
    9100.335    102.691   5.400  9.56521E-01  1.01006E+00 -5.35426E-02
    9101.987    104.343   5.440  9.51656E-01  1.01014E+00 -5.84868E-02
    9103.651    106.007   5.480  9.48465E-01  1.01016E+00 -6.16921E-02
    9105.327    107.684   5.520  9.47496E-01  1.01013E+00 -6.26315E-02
    9107.016    109.372   5.560  9.48623E-01  1.01006E+00 -6.14332E-02
    9108.717    111.073   5.600  9.51104E-01  1.00994E+00 -5.88370E-02
    9110.430    112.786   5.640  9.54003E-01  1.00978E+00 -5.57800E-02
    9112.155    114.511   5.680  9.56670E-01  1.00956E+00 -5.28904E-02
    9113.892    116.249   5.720  9.59055E-01  1.00932E+00 -5.02636E-02
    9115.642    117.998   5.760  9.61532E-01  1.00904E+00 -4.75051E-02
    9117.404    119.760   5.800  9.64709E-01  1.00869E+00 -4.39855E-02
    9119.177    121.534   5.840  9.69155E-01  1.00834E+00 -3.91811E-02
    9120.964    123.320   5.880  9.74952E-01  1.00794E+00 -3.29889E-02
    9122.762    125.118   5.920  9.81712E-01  1.00749E+00 -2.57742E-02
    9124.572    126.929   5.960  9.88907E-01  1.00702E+00 -1.81150E-02
    9126.395    128.752   6.000  9.96298E-01  1.00650E+00 -1.02018E-02
