# # comment:                                                     FEFF 9.9.1  
# # Source:
# # Structure
# # Reduced
# # space
# # abc:
# # angles:
# # sites:
# # POT  SCF 100  7.0000   0, screened core-hole, AFOLP (folp(0)= 1.150)
# # Abs   Z=29 Rmt= 1.233 Rnm= 1.313 K  shell
# # Pot 1 Z=12 Rmt= 1.377 Rnm= 1.452
# # Pot 2 Z=29 Rmt= 1.234 Rnm= 1.314
# # Pot 3 Z= 8 Rmt= 1.011 Rnm= 1.102
# # Gam_ch=1.729E+00 H-L exch Vi= 0.000E+00 Vr= 0.000E+00
# # Mu=-8.657E+00eV kf=2.125E+00 Vint=-1.735E+01eV Rs_int= 1.707
# FMS rfms= 9.0000
# # PATH  Rmax=-1.000,  Keep_limit= 0.00, Heap_limit 0.00  Pwcrit= 2.50%
#  S02=0.950  Temp=   0.00  Debye_temp=   0.00  Global_sig2= 0.00000
#  Energy zero shift, vr, vi    0.00000E+00   0.00000E+00
#  Curved wave amplitude ratio filter   4.000%
#     file         sig2 tot  cw amp ratio   deg  nlegs   reff  inp sig2
#     0/   0 paths used
#  xsedge+ 50, used to normalize mu           2.4576E-04
#  -----------------------------------------------------------------------
#  omega    e    k    mu    mu0     chi     @#
    8984.454    -12.467  -1.000  3.81792E-02  5.48660E-02 -1.66869E-02
    8984.753    -12.169  -0.960  4.00769E-02  5.88666E-02 -1.87897E-02
    8985.039    -11.882  -0.920  4.20964E-02  6.33125E-02 -2.12161E-02
    8985.314    -11.608  -0.880  4.42471E-02  6.82693E-02 -2.40222E-02
    8985.576    -11.346  -0.840  4.65388E-02  7.38132E-02 -2.72744E-02
    8985.826    -11.096  -0.800  4.89820E-02  8.00326E-02 -3.10506E-02
    8986.064    -10.858  -0.760  5.15880E-02  8.70289E-02 -3.54409E-02
    8986.289    -10.632  -0.720  5.43681E-02  9.49166E-02 -4.05485E-02
    8986.503    -10.419  -0.680  5.73336E-02  1.03822E-01 -4.64882E-02
    8986.704    -10.218  -0.640  6.04948E-02  1.13878E-01 -5.33829E-02
    8986.893    -10.029  -0.600  6.38590E-02  1.25215E-01 -6.13558E-02
    8987.069     -9.852  -0.560  6.74288E-02  1.37945E-01 -7.05159E-02
    8987.234     -9.687  -0.520  7.11974E-02  1.52134E-01 -8.09363E-02
    8987.386     -9.535  -0.480  7.51440E-02  1.67767E-01 -9.26228E-02
    8987.527     -9.395  -0.440  7.92283E-02  1.84707E-01 -1.05479E-01
    8987.655     -9.267  -0.400  8.33860E-02  2.02659E-01 -1.19273E-01
    8987.770     -9.151  -0.360  8.75290E-02  2.21161E-01 -1.33632E-01
    8987.874     -9.047  -0.320  9.15514E-02  2.39610E-01 -1.48059E-01
    8987.966     -8.956  -0.280  9.53419E-02  2.57339E-01 -1.61997E-01
    8988.045     -8.877  -0.240  9.87977E-02  2.73704E-01 -1.74906E-01
    8988.112     -8.810  -0.200  1.01834E-01  2.88167E-01 -1.86333E-01
    8988.167     -8.755  -0.160  1.04389E-01  3.00334E-01 -1.95945E-01
    8988.209     -8.712  -0.120  1.06416E-01  3.09953E-01 -2.03537E-01
    8988.240     -8.682  -0.080  1.07884E-01  3.16883E-01 -2.08998E-01
    8988.264     -8.657   0.000  1.09073E-01  3.22451E-01 -2.13378E-01
    8988.319     -8.602   0.120  1.11909E-01  3.35002E-01 -2.23093E-01
    8988.362     -8.560   0.160  1.14093E-01  3.44752E-01 -2.30658E-01
    8988.417     -8.505   0.200  1.16906E-01  3.57217E-01 -2.40311E-01
    8988.484     -8.438   0.240  1.20366E-01  3.72212E-01 -2.51846E-01
    8988.563     -8.359   0.280  1.24485E-01  3.89438E-01 -2.64954E-01
    8988.654     -8.267   0.320  1.29318E-01  4.08442E-01 -2.79124E-01
    8988.758     -8.163   0.360  1.34974E-01  4.28702E-01 -2.93728E-01
    8988.874     -8.048   0.400  1.41598E-01  4.49603E-01 -3.08005E-01
    8989.002     -7.920   0.440  1.49483E-01  4.70638E-01 -3.21155E-01
    8989.142     -7.779   0.480  1.59027E-01  4.91381E-01 -3.32354E-01
    8989.294     -7.627   0.520  1.70753E-01  5.11572E-01 -3.40819E-01
    8989.459     -7.462   0.560  1.85299E-01  5.31050E-01 -3.45751E-01
    8989.636     -7.286   0.600  2.03538E-01  5.49803E-01 -3.46265E-01
    8989.825     -7.097   0.640  2.26557E-01  5.67887E-01 -3.41330E-01
    8990.026     -6.895   0.680  2.55536E-01  5.85355E-01 -3.29819E-01
    8990.239     -6.682   0.720  2.91654E-01  6.02336E-01 -3.10682E-01
    8990.465     -6.457   0.760  3.35278E-01  6.18872E-01 -2.83594E-01
    8990.703     -6.219   0.800  3.84810E-01  6.35040E-01 -2.50230E-01
    8990.953     -5.969   0.840  4.35313E-01  6.50943E-01 -2.15630E-01
    8991.215     -5.707   0.880  4.79832E-01  6.66610E-01 -1.86777E-01
    8991.489     -5.432   0.920  5.15094E-01  6.82054E-01 -1.66961E-01
    8991.776     -5.146   0.960  5.44242E-01  6.97319E-01 -1.53077E-01
    8992.074     -4.847   1.000  5.70351E-01  7.12397E-01 -1.42046E-01
    8992.385     -4.536   1.040  5.89582E-01  7.27310E-01 -1.37729E-01
    8992.708     -4.213   1.080  5.93278E-01  7.42034E-01 -1.48757E-01
    8993.043     -3.878   1.120  5.79068E-01  7.56538E-01 -1.77470E-01
    8993.391     -3.531   1.160  5.57573E-01  7.70845E-01 -2.13272E-01
    8993.751     -3.171   1.200  5.43675E-01  7.84896E-01 -2.41221E-01
    8994.122     -2.799   1.240  5.44377E-01  7.98669E-01 -2.54292E-01
    8994.507     -2.415   1.280  5.56557E-01  8.12179E-01 -2.55623E-01
    8994.903     -2.019   1.320  5.73782E-01  8.25338E-01 -2.51556E-01
    8995.311     -1.610   1.360  5.93852E-01  8.38159E-01 -2.44307E-01
    8995.732     -1.190   1.400  6.19309E-01  8.50615E-01 -2.31305E-01
    8996.165     -0.757   1.440  6.54339E-01  8.62657E-01 -2.08319E-01
    8996.610     -0.312   1.480  6.99608E-01  8.74298E-01 -1.74690E-01
    8997.067      0.145   1.520  7.52646E-01  8.85468E-01 -1.32823E-01
    8997.536      0.615   1.560  8.13842E-01  8.96205E-01 -8.23634E-02
    8998.018      1.096   1.600  8.82133E-01  9.06462E-01 -2.43283E-02
    8998.512      1.590   1.640  9.54228E-01  9.16232E-01  3.79958E-02
    8999.018      2.096   1.680  1.03677E+00  9.25494E-01  1.11276E-01
    8999.536      2.614   1.720  1.13682E+00  9.34246E-01  2.02570E-01
    9000.066      3.145   1.760  1.24178E+00  9.42507E-01  2.99268E-01
    9000.609      3.687   1.800  1.32817E+00  9.50239E-01  3.77930E-01
    9001.163      4.242   1.840  1.39522E+00  9.57483E-01  4.37735E-01
    9001.730      4.809   1.880  1.44975E+00  9.64200E-01  4.85555E-01
    9002.309      5.388   1.920  1.47260E+00  9.70437E-01  5.02159E-01
    9002.901      5.979   1.960  1.45607E+00  9.76180E-01  4.79891E-01
    9003.504      6.583   2.000  1.42196E+00  9.81452E-01  4.40511E-01
    9004.120      7.198   2.040  1.37167E+00  9.86262E-01  3.85403E-01
    9004.748      7.826   2.080  1.29644E+00  9.90618E-01  3.05821E-01
    9005.388      8.466   2.120  1.21133E+00  9.94527E-01  2.16801E-01
    9006.040      9.119   2.160  1.13214E+00  9.98019E-01  1.34119E-01
    9006.705      9.783   2.200  1.06594E+00  1.00112E+00  6.48210E-02
    9007.381     10.460   2.240  1.02170E+00  1.00385E+00  1.78491E-02
    9008.070     11.149   2.280  1.00277E+00  1.00619E+00 -3.41412E-03
    9008.771     11.850   2.320  1.00444E+00  1.00821E+00 -3.76868E-03
    9009.484     12.563   2.360  1.01886E+00  1.00990E+00  8.95391E-03
    9010.210     13.288   2.400  1.03640E+00  1.01128E+00  2.51168E-02
    9010.947     14.026   2.440  1.04898E+00  1.01239E+00  3.65903E-02
    9011.697     14.776   2.480  1.05864E+00  1.01325E+00  4.53940E-02
    9012.459     15.538   2.520  1.07291E+00  1.01384E+00  5.90715E-02
    9013.233     16.312   2.560  1.08751E+00  1.01424E+00  7.32708E-02
    9014.020     17.098   2.600  1.09440E+00  1.01441E+00  7.99956E-02
    9014.818     17.897   2.640  1.09217E+00  1.01440E+00  7.77709E-02
    9015.629     18.708   2.680  1.08012E+00  1.01423E+00  6.58891E-02
    9016.452     19.531   2.720  1.05953E+00  1.01392E+00  4.56142E-02
    9017.287     20.366   2.760  1.03404E+00  1.01346E+00  2.05843E-02
    9018.135     21.213   2.800  1.00644E+00  1.01287E+00 -6.43084E-03
    9018.994     22.073   2.840  9.78869E-01  1.01220E+00 -3.33259E-02
    9019.866     22.944   2.880  9.53136E-01  1.01143E+00 -5.82966E-02
    9020.750     23.828   2.920  9.30390E-01  1.01059E+00 -8.01998E-02
    9021.646     24.724   2.960  9.11386E-01  1.00970E+00 -9.83096E-02
    9022.554     25.633   3.000  8.96415E-01  1.00873E+00 -1.12318E-01
    9023.475     26.553   3.040  8.85202E-01  1.00775E+00 -1.22548E-01
    9024.407     27.486   3.080  8.77346E-01  1.00673E+00 -1.29387E-01
    9025.352     28.431   3.120  8.72582E-01  1.00568E+00 -1.33101E-01
    9026.309     29.388   3.160  8.70563E-01  1.00465E+00 -1.34087E-01
    9027.278     30.357   3.200  8.70898E-01  1.00360E+00 -1.32698E-01
    9028.260     31.338   3.240  8.73232E-01  1.00257E+00 -1.29334E-01
    9029.254     32.332   3.280  8.77043E-01  1.00156E+00 -1.24520E-01
    9030.259     33.338   3.320  8.81803E-01  1.00055E+00 -1.18747E-01
    9031.277     34.356   3.360  8.87436E-01  9.99591E-01 -1.12156E-01
    9032.308     35.386   3.400  8.94037E-01  9.98668E-01 -1.04631E-01
    9033.350     36.429   3.440  9.01692E-01  9.97763E-01 -9.60714E-02
    9034.405     37.483   3.480  9.10698E-01  9.96920E-01 -8.62214E-02
    9035.471     38.550   3.520  9.21363E-01  9.96098E-01 -7.47351E-02
    9036.550     39.629   3.560  9.33886E-01  9.95342E-01 -6.14557E-02
    9037.642     40.720   3.600  9.47867E-01  9.94654E-01 -4.67870E-02
    9038.745     41.824   3.640  9.62464E-01  9.94013E-01 -3.15485E-02
    9039.861     42.939   3.680  9.76495E-01  9.93420E-01 -1.69241E-02
    9040.988     44.067   3.720  9.88776E-01  9.92895E-01 -4.11961E-03
    9042.128     45.207   3.760  9.98560E-01  9.92420E-01  6.14074E-03
    9043.280     46.359   3.800  1.00584E+00  9.92014E-01  1.38275E-02
    9044.445     47.523   3.840  1.01124E+00  9.91660E-01  1.95788E-02
    9045.621     48.700   3.880  1.01602E+00  9.91376E-01  2.46412E-02
    9046.810     49.889   3.920  1.02142E+00  9.91141E-01  3.02815E-02
    9048.011     51.089   3.960  1.02801E+00  9.90979E-01  3.70274E-02
    9049.224     52.303   4.000  1.03534E+00  9.90887E-01  4.44516E-02
    9050.449     53.528   4.040  1.04239E+00  9.90842E-01  5.15431E-02
    9051.687     54.765   4.080  1.04815E+00  9.90843E-01  5.73089E-02
    9052.936     56.015   4.120  1.05224E+00  9.90891E-01  6.13511E-02
    9054.198     57.277   4.160  1.05498E+00  9.91009E-01  6.39737E-02
    9055.472     58.551   4.200  1.05697E+00  9.91191E-01  6.57827E-02
    9056.759     59.837   4.240  1.05867E+00  9.91396E-01  6.72731E-02
    9058.057     61.136   4.280  1.06024E+00  9.91664E-01  6.85769E-02
    9059.368     62.446   4.320  1.06147E+00  9.91951E-01  6.95157E-02
    9060.691     63.769   4.360  1.06197E+00  9.92299E-01  6.96735E-02
    9062.026     65.104   4.400  1.06128E+00  9.92665E-01  6.86157E-02
    9063.373     66.451   4.440  1.05921E+00  9.93089E-01  6.61200E-02
    9064.732     67.811   4.480  1.05579E+00  9.93527E-01  6.22674E-02
    9066.104     69.182   4.520  1.05143E+00  9.93998E-01  5.74331E-02
    9067.488     70.566   4.560  1.04664E+00  9.94479E-01  5.21611E-02
    9068.884     71.962   4.600  1.04197E+00  9.94991E-01  4.69758E-02
    9070.292     73.370   4.640  1.03773E+00  9.95532E-01  4.22006E-02
    9071.712     74.791   4.680  1.03399E+00  9.96056E-01  3.79295E-02
    9073.145     76.223   4.720  1.03056E+00  9.96605E-01  3.39548E-02
    9074.589     77.668   4.760  1.02691E+00  9.97159E-01  2.97554E-02
    9076.046     79.125   4.800  1.02244E+00  9.97735E-01  2.47021E-02
    9077.515     80.594   4.840  1.01665E+00  9.98289E-01  1.83654E-02
    9078.997     82.075   4.880  1.00954E+00  9.98838E-01  1.06969E-02
    9080.490     83.569   4.920  1.00129E+00  9.99382E-01  1.90647E-03
    9081.996     85.074   4.960  9.92098E-01  9.99899E-01 -7.80122E-03
    9083.514     86.592   5.000  9.82194E-01  1.00043E+00 -1.82378E-02
    9085.044     88.122   5.040  9.71771E-01  1.00093E+00 -2.91639E-02
    9086.586     89.665   5.080  9.61182E-01  1.00140E+00 -4.02228E-02
    9088.141     91.219   5.120  9.50892E-01  1.00186E+00 -5.09697E-02
    9089.707     92.786   5.160  9.41413E-01  1.00228E+00 -6.08705E-02
    9091.286     94.365   5.200  9.33475E-01  1.00267E+00 -6.91958E-02
    9092.877     95.956   5.240  9.27875E-01  1.00304E+00 -7.51692E-02
    9094.481     97.559   5.280  9.25173E-01  1.00338E+00 -7.82083E-02
    9096.096     99.174   5.320  9.25632E-01  1.00368E+00 -7.80473E-02
    9097.724    100.802   5.360  9.29379E-01  1.00394E+00 -7.45595E-02
    9099.363    102.442   5.400  9.36530E-01  1.00418E+00 -6.76505E-02
    9101.015    104.094   5.440  9.46920E-01  1.00436E+00 -5.74384E-02
    9102.680    105.758   5.480  9.59907E-01  1.00449E+00 -4.45869E-02
    9104.356    107.435   5.520  9.74198E-01  1.00459E+00 -3.03903E-02
    9106.045    109.123   5.560  9.88214E-01  1.00464E+00 -1.64285E-02
    9107.745    110.824   5.600  1.00066E+00  1.00468E+00 -4.02107E-03
    9109.458    112.537   5.640  1.01059E+00  1.00465E+00  5.93652E-03
    9111.183    114.262   5.680  1.01739E+00  1.00458E+00  1.28121E-02
    9112.921    115.999   5.720  1.02070E+00  1.00447E+00  1.62320E-02
    9114.670    117.749   5.760  1.02066E+00  1.00431E+00  1.63519E-02
    9116.432    119.511   5.800  1.01813E+00  1.00409E+00  1.40348E-02
    9118.206    121.285   5.840  1.01463E+00  1.00386E+00  1.07732E-02
    9119.992    123.071   5.880  1.01183E+00  1.00359E+00  8.24436E-03
    9121.790    124.869   5.920  1.01089E+00  1.00328E+00  7.60826E-03
    9123.601    126.680   5.960  1.01195E+00  1.00294E+00  9.01613E-03
    9125.424    128.502   6.000  1.01428E+00  1.00253E+00  1.17483E-02
