# # comment:                                                     FEFF 9.9.1  
# # Source:
# # Structure
# # Reduced
# # space
# # abc:
# # angles:146.186990
# # sites:
# # POT  SCF 100  7.0000   0, screened core-hole, AFOLP (folp(0)= 1.150)
# # Abs   Z=29 Rmt= 1.240 Rnm= 1.319 K  shell
# # Pot 1 Z=57 Rmt= 1.699 Rnm= 1.794
# # Pot 2 Z=60 Rmt= 1.664 Rnm= 1.757
# # Pot 3 Z=29 Rmt= 1.240 Rnm= 1.319
# # Pot 4 Z= 8 Rmt= 1.070 Rnm= 1.122
# # Gam_ch=1.729E+00 H-L exch Vi= 0.000E+00 Vr= 0.000E+00
# # Mu=-8.181E+00eV kf=2.068E+00 Vint=-1.747E+01eV Rs_int= 1.754
# FMS rfms= 9.0000
# # PATH  Rmax=-1.000,  Keep_limit= 0.00, Heap_limit 0.00  Pwcrit= 2.50%
#  S02=0.950  Temp=   0.00  Debye_temp=   0.00  Global_sig2= 0.00000
#  Energy zero shift, vr, vi    0.00000E+00   0.00000E+00
#  Curved wave amplitude ratio filter   4.000%
#     file         sig2 tot  cw amp ratio   deg  nlegs   reff  inp sig2
#     0/   0 paths used
#  xsedge+ 50, used to normalize mu           2.4562E-04
#  -----------------------------------------------------------------------
#  omega    e    k    mu    mu0     chi     @#
    8984.735    -11.991  -1.000  4.00686E-02  5.61434E-02 -1.60747E-02
    8985.033    -11.692  -0.960  4.23375E-02  6.02978E-02 -1.79603E-02
    8985.320    -11.406  -0.920  4.48177E-02  6.49207E-02 -2.01030E-02
    8985.594    -11.131  -0.880  4.75399E-02  7.00815E-02 -2.25415E-02
    8985.856    -10.869  -0.840  5.05405E-02  7.58612E-02 -2.53206E-02
    8986.106    -10.619  -0.800  5.38622E-02  8.23536E-02 -2.84914E-02
    8986.344    -10.382  -0.760  5.75545E-02  8.96666E-02 -3.21121E-02
    8986.569    -10.156  -0.720  6.16745E-02  9.79220E-02 -3.62475E-02
    8986.783     -9.943  -0.680  6.62856E-02  1.07254E-01 -4.09685E-02
    8986.984     -9.742  -0.640  7.14557E-02  1.17805E-01 -4.63488E-02
    8987.173     -9.553  -0.600  7.72522E-02  1.29713E-01 -5.24608E-02
    8987.350     -9.376  -0.560  8.37328E-02  1.43099E-01 -5.93657E-02
    8987.514     -9.211  -0.520  9.09313E-02  1.58033E-01 -6.71012E-02
    8987.667     -9.059  -0.480  9.88375E-02  1.74500E-01 -7.56625E-02
    8987.807     -8.919  -0.440  1.07375E-01  1.92356E-01 -8.49817E-02
    8987.935     -8.791  -0.400  1.16380E-01  2.11289E-01 -9.49088E-02
    8988.051     -8.675  -0.360  1.25603E-01  2.30807E-01 -1.05204E-01
    8988.154     -8.571  -0.320  1.34722E-01  2.50272E-01 -1.15550E-01
    8988.246     -8.480  -0.280  1.43392E-01  2.68976E-01 -1.25584E-01
    8988.325     -8.400  -0.240  1.51295E-01  2.86238E-01 -1.34944E-01
    8988.392     -8.333  -0.200  1.58182E-01  3.01489E-01 -1.43307E-01
    8988.447     -8.278  -0.160  1.63893E-01  3.14314E-01 -1.50421E-01
    8988.490     -8.236  -0.120  1.68343E-01  3.24449E-01 -1.56106E-01
    8988.520     -8.205  -0.080  1.71497E-01  3.31748E-01 -1.60251E-01
    8988.545     -8.181   0.000  1.73957E-01  3.37609E-01 -1.63652E-01
    8988.599     -8.126   0.120  1.79712E-01  3.50822E-01 -1.71110E-01
    8988.642     -8.083   0.160  1.84128E-01  3.61083E-01 -1.76956E-01
    8988.697     -8.029   0.200  1.89683E-01  3.74191E-01 -1.84508E-01
    8988.764     -7.961   0.240  1.96180E-01  3.89919E-01 -1.93739E-01
    8988.843     -7.882   0.280  2.03412E-01  4.07986E-01 -2.04574E-01
    8988.935     -7.791   0.320  2.11010E-01  4.27878E-01 -2.16868E-01
    8989.038     -7.687   0.360  2.18635E-01  4.49011E-01 -2.30377E-01
    8989.154     -7.571   0.400  2.25999E-01  4.70762E-01 -2.44763E-01
    8989.282     -7.443   0.440  2.33015E-01  4.92563E-01 -2.59548E-01
    8989.422     -7.303   0.480  2.39729E-01  5.13933E-01 -2.74204E-01
    8989.575     -7.151   0.520  2.46441E-01  5.34595E-01 -2.88154E-01
    8989.739     -6.986   0.560  2.53303E-01  5.54417E-01 -3.01114E-01
    8989.916     -6.809   0.600  2.60135E-01  5.73345E-01 -3.13210E-01
    8990.105     -6.620   0.640  2.66615E-01  5.91460E-01 -3.24845E-01
    8990.306     -6.419   0.680  2.72537E-01  6.08824E-01 -3.36287E-01
    8990.520     -6.206   0.720  2.78295E-01  6.25552E-01 -3.47257E-01
    8990.745     -5.980   0.760  2.84413E-01  6.41720E-01 -3.57306E-01
    8990.983     -5.743   0.800  2.90969E-01  6.57411E-01 -3.66442E-01
    8991.233     -5.493   0.840  2.97481E-01  6.72718E-01 -3.75238E-01
    8991.495     -5.230   0.880  3.03854E-01  6.87698E-01 -3.83844E-01
    8991.769     -4.956   0.920  3.11369E-01  7.02369E-01 -3.91000E-01
    8992.056     -4.670   0.960  3.22259E-01  7.16784E-01 -3.94525E-01
    8992.355     -4.371   1.000  3.38121E-01  7.30941E-01 -3.92821E-01
    8992.665     -4.060   1.040  3.58782E-01  7.44847E-01 -3.86065E-01
    8992.988     -3.737   1.080  3.81356E-01  7.58523E-01 -3.77167E-01
    8993.324     -3.402   1.120  4.01983E-01  7.71944E-01 -3.69961E-01
    8993.671     -3.054   1.160  4.21815E-01  7.85099E-01 -3.63283E-01
    8994.031     -2.695   1.200  4.46738E-01  7.97972E-01 -3.51233E-01
    8994.403     -2.323   1.240  4.77440E-01  8.10546E-01 -3.33106E-01
    8994.787     -1.939   1.280  5.09755E-01  8.22800E-01 -3.13045E-01
    8995.183     -1.542   1.320  5.46092E-01  8.34731E-01 -2.88639E-01
    8995.591     -1.134   1.360  5.91553E-01  8.46296E-01 -2.54744E-01
    8996.012     -0.713   1.400  6.46199E-01  8.57514E-01 -2.11315E-01
    8996.445     -0.281   1.440  7.10877E-01  8.68318E-01 -1.57441E-01
    8996.890      0.164   1.480  7.90057E-01  8.78723E-01 -8.86657E-02
    8997.347      0.622   1.520  8.87140E-01  8.88687E-01 -1.54676E-03
    8997.816      1.091   1.560  1.00007E+00  8.98248E-01  1.01818E-01
    8998.298      1.573   1.600  1.12154E+00  9.07341E-01  2.14195E-01
    8998.792      2.066   1.640  1.25197E+00  9.16008E-01  3.35962E-01
    8999.298      2.572   1.680  1.40227E+00  9.24205E-01  4.78063E-01
    8999.816      3.091   1.720  1.54807E+00  9.31935E-01  6.16135E-01
    9000.346      3.621   1.760  1.60302E+00  9.39218E-01  6.63803E-01
    9000.889      4.163   1.800  1.55633E+00  9.46057E-01  6.10272E-01
    9001.444      4.718   1.840  1.48992E+00  9.52416E-01  5.37506E-01
    9002.011      5.285   1.880  1.43511E+00  9.58359E-01  4.76753E-01
    9002.590      5.864   1.920  1.37536E+00  9.63851E-01  4.11505E-01
    9003.181      6.455   1.960  1.31195E+00  9.68918E-01  3.43029E-01
    9003.784      7.059   2.000  1.26200E+00  9.73566E-01  2.88430E-01
    9004.400      7.675   2.040  1.22496E+00  9.77824E-01  2.47138E-01
    9005.028      8.303   2.080  1.18588E+00  9.81678E-01  2.04206E-01
    9005.668      8.943   2.120  1.13674E+00  9.85177E-01  1.51567E-01
    9006.320      9.595   2.160  1.07725E+00  9.88309E-01  8.89388E-02
    9006.985     10.259   2.200  1.01143E+00  9.91104E-01  2.03307E-02
    9007.661     10.936   2.240  9.49787E-01  9.93571E-01 -4.37835E-02
    9008.350     11.625   2.280  9.03785E-01  9.95738E-01 -9.19533E-02
    9009.051     12.326   2.320  8.83606E-01  9.97616E-01 -1.14010E-01
    9009.765     13.039   2.360  8.99227E-01  9.99234E-01 -1.00008E-01
    9010.490     13.765   2.400  9.53095E-01  1.00058E+00 -4.74868E-02
    9011.228     14.502   2.440  1.03197E+00  1.00173E+00  3.02453E-02
    9011.977     15.252   2.480  1.10304E+00  1.00264E+00  1.00396E-01
    9012.739     16.014   2.520  1.13449E+00  1.00335E+00  1.31134E-01
    9013.514     16.788   2.560  1.13378E+00  1.00389E+00  1.29897E-01
    9014.300     17.575   2.600  1.11750E+00  1.00426E+00  1.13246E-01
    9015.099     18.373   2.640  1.09327E+00  1.00447E+00  8.88097E-02
    9015.909     19.184   2.680  1.06498E+00  1.00455E+00  6.04381E-02
    9016.732     20.007   2.720  1.03552E+00  1.00452E+00  3.09941E-02
    9017.567     20.842   2.760  1.00695E+00  1.00439E+00  2.56408E-03
    9018.415     21.689   2.800  9.79695E-01  1.00416E+00 -2.44676E-02
    9019.274     22.549   2.840  9.53554E-01  1.00383E+00 -5.02790E-02
    9020.146     23.421   2.880  9.28671E-01  1.00347E+00 -7.47971E-02
    9021.030     24.305   2.920  9.05502E-01  1.00303E+00 -9.75312E-02
    9021.926     25.201   2.960  8.85206E-01  1.00255E+00 -1.17349E-01
    9022.834     26.109   3.000  8.68679E-01  1.00203E+00 -1.33356E-01
    9023.755     27.029   3.040  8.55544E-01  1.00148E+00 -1.45934E-01
    9024.688     27.962   3.080  8.45195E-01  1.00091E+00 -1.55716E-01
    9025.632     28.907   3.120  8.37172E-01  1.00034E+00 -1.63167E-01
    9026.589     29.864   3.160  8.31554E-01  9.99766E-01 -1.68212E-01
    9027.559     30.833   3.200  8.29089E-01  9.99192E-01 -1.70103E-01
    9028.540     31.815   3.240  8.30852E-01  9.98644E-01 -1.67793E-01
    9029.534     32.808   3.280  8.36969E-01  9.98082E-01 -1.61113E-01
    9030.540     33.814   3.320  8.47371E-01  9.97569E-01 -1.50198E-01
    9031.558     34.832   3.360  8.61779E-01  9.97069E-01 -1.35290E-01
    9032.588     35.862   3.400  8.79823E-01  9.96603E-01 -1.16780E-01
    9033.630     36.905   3.440  9.00742E-01  9.96150E-01 -9.54073E-02
    9034.685     37.959   3.480  9.23547E-01  9.95755E-01 -7.22088E-02
    9035.752     39.026   3.520  9.46585E-01  9.95400E-01 -4.88156E-02
    9036.831     40.105   3.560  9.67791E-01  9.95062E-01 -2.72714E-02
    9037.922     41.196   3.600  9.85922E-01  9.94785E-01 -8.86312E-03
    9039.025     42.300   3.640  1.00102E+00  9.94528E-01  6.48668E-03
    9040.141     43.415   3.680  1.01405E+00  9.94334E-01  1.97153E-02
    9041.269     44.543   3.720  1.02618E+00  9.94182E-01  3.20028E-02
    9042.409     45.683   3.760  1.03816E+00  9.94073E-01  4.40842E-02
    9043.561     46.835   3.800  1.04987E+00  9.94028E-01  5.58460E-02
    9044.725     48.000   3.840  1.06063E+00  9.94003E-01  6.66245E-02
    9045.902     49.176   3.880  1.06978E+00  9.94038E-01  7.57398E-02
    9047.090     50.365   3.920  1.07678E+00  9.94093E-01  8.26912E-02
    9048.291     51.566   3.960  1.08115E+00  9.94210E-01  8.69449E-02
    9049.504     52.779   4.000  1.08225E+00  9.94344E-01  8.79031E-02
    9050.730     54.004   4.040  1.07952E+00  9.94539E-01  8.49826E-02
    9051.967     55.242   4.080  1.07273E+00  9.94751E-01  7.79746E-02
    9053.217     56.491   4.120  1.06246E+00  9.95021E-01  6.74442E-02
    9054.479     57.753   4.160  1.05016E+00  9.95305E-01  5.48523E-02
    9055.753     59.027   4.200  1.03777E+00  9.95623E-01  4.21495E-02
    9057.039     60.313   4.240  1.02711E+00  9.95952E-01  3.11554E-02
    9058.337     61.612   4.280  1.01936E+00  9.96313E-01  2.30489E-02
    9059.648     62.923   4.320  1.01489E+00  9.96706E-01  1.81799E-02
    9060.971     64.245   4.360  1.01346E+00  9.97109E-01  1.63502E-02
    9062.306     65.580   4.400  1.01489E+00  9.97540E-01  1.73458E-02
    9063.653     66.928   4.440  1.01917E+00  9.97976E-01  2.11943E-02
    9065.012     68.287   4.480  1.02642E+00  9.98417E-01  2.80082E-02
    9066.384     69.659   4.520  1.03639E+00  9.98880E-01  3.75062E-02
    9067.768     71.042   4.560  1.04790E+00  9.99324E-01  4.85725E-02
    9069.164     72.438   4.600  1.05884E+00  9.99789E-01  5.90485E-02
    9070.572     73.846   4.640  1.06629E+00  1.00023E+00  6.60633E-02
    9071.992     75.267   4.680  1.06756E+00  1.00069E+00  6.68731E-02
    9073.425     76.699   4.720  1.06119E+00  1.00113E+00  6.00597E-02
    9074.870     78.144   4.760  1.04800E+00  1.00156E+00  4.64442E-02
    9076.327     79.601   4.800  1.03080E+00  1.00198E+00  2.88199E-02
    9077.796     81.070   4.840  1.01303E+00  1.00240E+00  1.06317E-02
    9079.277     82.552   4.880  9.97552E-01  1.00279E+00 -5.23443E-03
    9080.771     84.045   4.920  9.86013E-01  1.00314E+00 -1.71267E-02
    9082.276     85.551   4.960  9.78721E-01  1.00348E+00 -2.47607E-02
    9083.794     87.069   5.000  9.74872E-01  1.00381E+00 -2.89395E-02
    9085.324     88.599   5.040  9.72854E-01  1.00409E+00 -3.12319E-02
    9086.866     90.141   5.080  9.71056E-01  1.00435E+00 -3.32904E-02
    9088.421     91.696   5.120  9.68266E-01  1.00459E+00 -3.63285E-02
    9089.988     93.262   5.160  9.63961E-01  1.00481E+00 -4.08446E-02
    9091.566     94.841   5.200  9.58277E-01  1.00496E+00 -4.66791E-02
    9093.158     96.432   5.240  9.51811E-01  1.00509E+00 -5.32794E-02
    9094.761     98.035   5.280  9.45425E-01  1.00521E+00 -5.97865E-02
    9096.376     99.651   5.320  9.40094E-01  1.00527E+00 -6.51772E-02
    9098.004    101.278   5.360  9.36948E-01  1.00531E+00 -6.83645E-02
    9099.644    102.918   5.400  9.36771E-01  1.00529E+00 -6.85219E-02
    9101.296    104.570   5.440  9.39799E-01  1.00526E+00 -6.54583E-02
    9102.960    106.234   5.480  9.45371E-01  1.00518E+00 -5.98122E-02
    9104.636    107.911   5.520  9.52295E-01  1.00507E+00 -5.27746E-02
    9106.325    109.599   5.560  9.59274E-01  1.00492E+00 -4.56433E-02
    9108.026    111.300   5.600  9.65594E-01  1.00473E+00 -3.91333E-02
    9109.739    113.013   5.640  9.71567E-01  1.00452E+00 -3.29566E-02
    9111.464    114.738   5.680  9.78097E-01  1.00428E+00 -2.61851E-02
    9113.201    116.476   5.720  9.85823E-01  1.00398E+00 -1.81572E-02
    9114.951    118.225   5.760  9.94682E-01  1.00366E+00 -8.98165E-03
    9116.712    119.987   5.800  1.00404E+00  1.00334E+00  7.02189E-04
    9118.486    121.761   5.840  1.01321E+00  1.00295E+00  1.02532E-02
    9120.272    123.547   5.880  1.02166E+00  1.00256E+00  1.91028E-02
    9122.071    125.345   5.920  1.02855E+00  1.00214E+00  2.64123E-02
    9123.881    127.156   5.960  1.03283E+00  1.00172E+00  3.11122E-02
    9125.704    128.978   6.000  1.03401E+00  1.00124E+00  3.27695E-02
