# # comment:                                                     FEFF 9.9.1  
# # Source:
# # Structure
# # Reduced
# # space
# # abc:
# # angles:
# # sites:
# # POT  SCF 100  7.0000   0, screened core-hole, AFOLP (folp(0)= 1.150)
# # Abs   Z=29 Rmt= 1.233 Rnm= 1.323 K  shell
# # Pot 1 Z=12 Rmt= 1.386 Rnm= 1.476
# # Pot 2 Z=24 Rmt= 1.073 Rnm= 1.282
# # Pot 3 Z=29 Rmt= 1.233 Rnm= 1.323
# # Pot 4 Z= 8 Rmt= 0.926 Rnm= 1.087
# # Gam_ch=1.729E+00 H-L exch Vi= 0.000E+00 Vr= 0.000E+00
# # Mu=-9.083E+00eV kf=2.275E+00 Vint=-1.729E+01eV Rs_int= 1.594
# FMS rfms= 9.0000
# # PATH  Rmax=-1.000,  Keep_limit= 0.00, Heap_limit 0.00  Pwcrit= 2.50%
#  S02=0.950  Temp=   0.00  Debye_temp=   0.00  Global_sig2= 0.00000
#  Energy zero shift, vr, vi    0.00000E+00   0.00000E+00
#  Curved wave amplitude ratio filter   4.000%
#     file         sig2 tot  cw amp ratio   deg  nlegs   reff  inp sig2
#     0/   0 paths used
#  xsedge+ 50, used to normalize mu           2.4764E-04
#  -----------------------------------------------------------------------
#  omega    e    k    mu    mu0     chi     @#
    8984.076    -12.893  -1.000  3.87487E-02  5.10762E-02 -1.23276E-02
    8984.375    -12.594  -0.960  4.10158E-02  5.47006E-02 -1.36848E-02
    8984.661    -12.308  -0.920  4.34943E-02  5.87206E-02 -1.52263E-02
    8984.936    -12.033  -0.880  4.62125E-02  6.31939E-02 -1.69815E-02
    8985.198    -11.771  -0.840  4.92027E-02  6.81875E-02 -1.89848E-02
    8985.448    -11.521  -0.800  5.25024E-02  7.37790E-02 -2.12766E-02
    8985.685    -11.283  -0.760  5.61536E-02  8.00571E-02 -2.39035E-02
    8985.911    -11.058  -0.720  6.02037E-02  8.71223E-02 -2.69186E-02
    8986.124    -10.845  -0.680  6.47040E-02  9.50849E-02 -3.03809E-02
    8986.325    -10.643  -0.640  6.97080E-02  1.04061E-01 -3.43534E-02
    8986.514    -10.454  -0.600  7.52670E-02  1.14166E-01 -3.88988E-02
    8986.691    -10.278  -0.560  8.14230E-02  1.25495E-01 -4.40722E-02
    8986.856    -10.113  -0.520  8.81982E-02  1.38107E-01 -4.99086E-02
    8987.008     -9.961  -0.480  9.55793E-02  1.51987E-01 -5.64074E-02
    8987.148     -9.820  -0.440  1.03501E-01  1.67013E-01 -6.35123E-02
    8987.276     -9.692  -0.400  1.11831E-01  1.82927E-01 -7.10959E-02
    8987.392     -9.577  -0.360  1.20366E-01  1.99320E-01 -7.89540E-02
    8987.496     -9.473  -0.320  1.28843E-01  2.15662E-01 -8.68193E-02
    8987.587     -9.381  -0.280  1.36972E-01  2.31366E-01 -9.43939E-02
    8987.667     -9.302  -0.240  1.44474E-01  2.45865E-01 -1.01391E-01
    8987.734     -9.235  -0.200  1.51110E-01  2.58682E-01 -1.07572E-01
    8987.788     -9.180  -0.160  1.56706E-01  2.69469E-01 -1.12763E-01
    8987.831     -9.138  -0.120  1.61143E-01  2.77999E-01 -1.16856E-01
    8987.862     -9.107  -0.080  1.64348E-01  2.84147E-01 -1.19799E-01
    8987.886     -9.083   0.000  1.66919E-01  2.89087E-01 -1.22168E-01
    8987.941     -9.028   0.120  1.72730E-01  3.00234E-01 -1.27504E-01
    8987.984     -8.985   0.160  1.77301E-01  3.08915E-01 -1.31614E-01
    8988.038     -8.930   0.200  1.83182E-01  3.20003E-01 -1.36821E-01
    8988.105     -8.863   0.240  1.90335E-01  3.33338E-01 -1.43003E-01
    8988.185     -8.784   0.280  1.98770E-01  3.48706E-01 -1.49936E-01
    8988.276     -8.693   0.320  2.08402E-01  3.65696E-01 -1.57294E-01
    8988.380     -8.589   0.360  2.19224E-01  3.83841E-01 -1.64616E-01
    8988.496     -8.473   0.400  2.31285E-01  4.02665E-01 -1.71380E-01
    8988.624     -8.345   0.440  2.44694E-01  4.21675E-01 -1.76981E-01
    8988.764     -8.205   0.480  2.59615E-01  4.40540E-01 -1.80926E-01
    8988.916     -8.053   0.520  2.75987E-01  4.58997E-01 -1.83010E-01
    8989.081     -7.888   0.560  2.93434E-01  4.76965E-01 -1.83531E-01
    8989.258     -7.711   0.600  3.10966E-01  4.94432E-01 -1.83466E-01
    8989.447     -7.522   0.640  3.27187E-01  5.11388E-01 -1.84200E-01
    8989.648     -7.321   0.680  3.41378E-01  5.27936E-01 -1.86559E-01
    8989.861     -7.108   0.720  3.54152E-01  5.44152E-01 -1.90000E-01
    8990.087     -6.882   0.760  3.67101E-01  5.60125E-01 -1.93024E-01
    8990.324     -6.644   0.800  3.80947E-01  5.75876E-01 -1.94930E-01
    8990.574     -6.394   0.840  3.94429E-01  5.91521E-01 -1.97093E-01
    8990.836     -6.132   0.880  4.04841E-01  6.07057E-01 -2.02216E-01
    8991.111     -5.858   0.920  4.10737E-01  6.22510E-01 -2.11773E-01
    8991.397     -5.572   0.960  4.13234E-01  6.37917E-01 -2.24682E-01
    8991.696     -5.273   1.000  4.13122E-01  6.53284E-01 -2.40162E-01
    8992.007     -4.962   1.040  4.08418E-01  6.68590E-01 -2.60172E-01
    8992.330     -4.639   1.080  3.99009E-01  6.83824E-01 -2.84816E-01
    8992.665     -4.304   1.120  3.91208E-01  6.98973E-01 -3.07766E-01
    8993.013     -3.956   1.160  3.93753E-01  7.14038E-01 -3.20286E-01
    8993.372     -3.596   1.200  4.10420E-01  7.28955E-01 -3.18535E-01
    8993.744     -3.225   1.240  4.36998E-01  7.43717E-01 -3.06719E-01
    8994.128     -2.841   1.280  4.63715E-01  7.58278E-01 -2.94563E-01
    8994.525     -2.444   1.320  4.81472E-01  7.72627E-01 -2.91156E-01
    8994.933     -2.036   1.360  4.89611E-01  7.86733E-01 -2.97122E-01
    8995.354     -1.615   1.400  4.96455E-01  8.00545E-01 -3.04090E-01
    8995.786     -1.182   1.440  5.10320E-01  8.14030E-01 -3.03709E-01
    8996.231     -0.737   1.480  5.34939E-01  8.27178E-01 -2.92238E-01
    8996.689     -0.280   1.520  5.71326E-01  8.39955E-01 -2.68629E-01
    8997.158      0.189   1.560  6.20373E-01  8.52311E-01 -2.31938E-01
    8997.640      0.671   1.600  6.84367E-01  8.64258E-01 -1.79891E-01
    8998.133      1.165   1.640  7.64156E-01  8.75767E-01 -1.11611E-01
    8998.639      1.671   1.680  8.55140E-01  8.86809E-01 -3.16697E-02
    8999.157      2.189   1.720  9.48344E-01  8.97359E-01  5.09854E-02
    8999.688      2.719   1.760  1.03741E+00  9.07429E-01  1.29979E-01
    9000.230      3.262   1.800  1.11695E+00  9.16997E-01  1.99956E-01
    9000.785      3.816   1.840  1.18090E+00  9.26062E-01  2.54839E-01
    9001.352      4.383   1.880  1.23280E+00  9.34600E-01  2.98203E-01
    9001.931      4.962   1.920  1.27512E+00  9.42655E-01  3.32470E-01
    9002.522      5.554   1.960  1.30470E+00  9.50165E-01  3.54533E-01
    9003.126      6.157   2.000  1.32509E+00  9.57193E-01  3.67895E-01
    9003.742      6.773   2.040  1.33920E+00  9.63704E-01  3.75494E-01
    9004.370      7.401   2.080  1.34334E+00  9.69742E-01  3.73597E-01
    9005.010      8.041   2.120  1.33268E+00  9.75273E-01  3.57408E-01
    9005.662      8.693   2.160  1.31033E+00  9.80364E-01  3.29971E-01
    9006.326      9.358   2.200  1.28716E+00  9.84981E-01  3.02175E-01
    9007.003     10.034   2.240  1.26758E+00  9.89173E-01  2.78412E-01
    9007.692     10.723   2.280  1.24767E+00  9.92929E-01  2.54744E-01
    9008.393     11.424   2.320  1.22602E+00  9.96277E-01  2.29744E-01
    9009.106     12.137   2.360  1.20333E+00  9.99247E-01  2.04088E-01
    9009.832     12.863   2.400  1.17739E+00  1.00185E+00  1.75546E-01
    9010.569     13.600   2.440  1.14895E+00  1.00411E+00  1.44836E-01
    9011.319     14.350   2.480  1.12368E+00  1.00603E+00  1.17659E-01
    9012.081     15.112   2.520  1.10373E+00  1.00764E+00  9.60938E-02
    9012.855     15.886   2.560  1.08695E+00  1.00897E+00  7.79806E-02
    9013.641     16.673   2.600  1.07092E+00  1.01001E+00  6.09073E-02
    9014.440     17.471   2.640  1.04934E+00  1.01081E+00  3.85346E-02
    9015.251     18.282   2.680  1.01597E+00  1.01137E+00  4.60569E-03
    9016.074     19.105   2.720  9.80892E-01  1.01171E+00 -3.08213E-02
    9016.909     19.940   2.760  9.54851E-01  1.01186E+00 -5.70068E-02
    9017.756     20.787   2.800  9.38181E-01  1.01183E+00 -7.36487E-02
    9018.616     21.647   2.840  9.27631E-01  1.01162E+00 -8.39871E-02
    9019.488     22.519   2.880  9.19737E-01  1.01129E+00 -9.15543E-02
    9020.371     23.403   2.920  9.12582E-01  1.01082E+00 -9.82350E-02
    9021.268     24.299   2.960  9.05774E-01  1.01022E+00 -1.04449E-01
    9022.176     25.207   3.000  8.99542E-01  1.00954E+00 -1.09996E-01
    9023.096     26.128   3.040  8.94124E-01  1.00877E+00 -1.14643E-01
    9024.029     27.060   3.080  8.89867E-01  1.00792E+00 -1.18049E-01
    9024.974     28.005   3.120  8.86807E-01  1.00699E+00 -1.20184E-01
    9025.931     28.962   3.160  8.85179E-01  1.00602E+00 -1.20841E-01
    9026.900     29.931   3.200  8.85372E-01  1.00503E+00 -1.19656E-01
    9027.882     30.913   3.240  8.87457E-01  1.00398E+00 -1.16521E-01
    9028.875     31.907   3.280  8.91205E-01  1.00292E+00 -1.11712E-01
    9029.881     32.912   3.320  8.96242E-01  1.00185E+00 -1.05609E-01
    9030.899     33.930   3.360  9.02290E-01  1.00078E+00 -9.84916E-02
    9031.929     34.961   3.400  9.08892E-01  9.99714E-01 -9.08211E-02
    9032.972     36.003   3.440  9.15872E-01  9.98650E-01 -8.27775E-02
    9034.026     37.058   3.480  9.23165E-01  9.97615E-01 -7.44497E-02
    9035.093     38.124   3.520  9.30636E-01  9.96613E-01 -6.59767E-02
    9036.172     39.203   3.560  9.38125E-01  9.95622E-01 -5.74969E-02
    9037.263     40.295   3.600  9.45528E-01  9.94666E-01 -4.91387E-02
    9038.367     41.398   3.640  9.52697E-01  9.93749E-01 -4.10514E-02
    9039.482     42.514   3.680  9.59447E-01  9.92870E-01 -3.34238E-02
    9040.610     43.641   3.720  9.65704E-01  9.92034E-01 -2.63293E-02
    9041.750     44.781   3.760  9.71537E-01  9.91239E-01 -1.97018E-02
    9042.902     45.933   3.800  9.77047E-01  9.90510E-01 -1.34625E-02
    9044.067     47.098   3.840  9.82345E-01  9.89827E-01 -7.48163E-03
    9045.243     48.274   3.880  9.87619E-01  9.89190E-01 -1.57101E-03
    9046.432     49.463   3.920  9.93088E-01  9.88620E-01  4.46860E-03
    9047.633     50.664   3.960  9.98919E-01  9.88095E-01  1.08235E-02
    9048.846     51.877   4.000  1.00525E+00  9.87618E-01  1.76352E-02
    9050.071     53.102   4.040  1.01222E+00  9.87210E-01  2.50079E-02
    9051.309     54.340   4.080  1.01979E+00  9.86871E-01  3.29168E-02
    9052.558     55.589   4.120  1.02780E+00  9.86557E-01  4.12402E-02
    9053.820     56.851   4.160  1.03599E+00  9.86311E-01  4.96760E-02
    9055.094     58.125   4.200  1.04382E+00  9.86134E-01  5.76912E-02
    9056.380     59.412   4.240  1.05064E+00  9.86002E-01  6.46350E-02
    9057.679     60.710   4.280  1.05597E+00  9.85914E-01  7.00602E-02
    9058.989     62.021   4.320  1.05961E+00  9.85872E-01  7.37414E-02
    9060.312     63.343   4.360  1.06150E+00  9.85894E-01  7.56023E-02
    9061.647     64.679   4.400  1.06168E+00  9.85960E-01  7.57234E-02
    9062.995     66.026   4.440  1.06033E+00  9.86067E-01  7.42598E-02
    9064.354     67.385   4.480  1.05761E+00  9.86213E-01  7.13934E-02
    9065.726     68.757   4.520  1.05371E+00  9.86397E-01  6.73164E-02
    9067.109     70.140   4.560  1.04885E+00  9.86598E-01  6.22555E-02
    9068.505     71.536   4.600  1.04333E+00  9.86858E-01  5.64717E-02
    9069.913     72.945   4.640  1.03744E+00  9.87154E-01  5.02840E-02
    9071.334     74.365   4.680  1.03148E+00  9.87462E-01  4.40127E-02
    9072.766     75.798   4.720  1.02559E+00  9.87803E-01  3.77883E-02
    9074.211     77.242   4.760  1.01974E+00  9.88151E-01  3.15887E-02
    9075.668     78.699   4.800  1.01379E+00  9.88529E-01  2.52565E-02
    9077.137     80.168   4.840  1.00748E+00  9.88913E-01  1.85653E-02
    9078.618     81.650   4.880  1.00070E+00  9.89302E-01  1.14012E-02
    9080.112     83.143   4.920  9.93582E-01  9.89717E-01  3.86441E-03
    9081.618     84.649   4.960  9.86444E-01  9.90136E-01 -3.69199E-03
    9083.136     86.167   5.000  9.79780E-01  9.90556E-01 -1.07756E-02
    9084.666     87.697   5.040  9.74016E-01  9.90975E-01 -1.69587E-02
    9086.208     89.239   5.080  9.69382E-01  9.91393E-01 -2.20117E-02
    9087.762     90.794   5.120  9.65750E-01  9.91809E-01 -2.60593E-02
    9089.329     92.360   5.160  9.62681E-01  9.92218E-01 -2.95376E-02
    9090.908     93.939   5.200  9.59620E-01  9.92599E-01 -3.29785E-02
    9092.499     95.530   5.240  9.56240E-01  9.92971E-01 -3.67313E-02
    9094.102     97.133   5.280  9.52526E-01  9.93314E-01 -4.07884E-02
    9095.718     98.749   5.320  9.48793E-01  9.93648E-01 -4.48552E-02
    9097.345    100.377   5.360  9.45493E-01  9.93972E-01 -4.84791E-02
    9098.985    102.016   5.400  9.42995E-01  9.94263E-01 -5.12686E-02
    9100.637    103.668   5.440  9.41579E-01  9.94517E-01 -5.29385E-02
    9102.301    105.333   5.480  9.41458E-01  9.94735E-01 -5.32778E-02
    9103.978    107.009   5.520  9.42847E-01  9.94941E-01 -5.20933E-02
    9105.666    108.698   5.560  9.45813E-01  9.95111E-01 -4.92972E-02
    9107.367    110.398   5.600  9.50294E-01  9.95245E-01 -4.49512E-02
    9109.080    112.111   5.640  9.56098E-01  9.95362E-01 -3.92640E-02
    9110.805    113.836   5.680  9.62824E-01  9.95419E-01 -3.25954E-02
    9112.543    115.574   5.720  9.70011E-01  9.95459E-01 -2.54488E-02
    9114.292    117.323   5.760  9.77098E-01  9.95439E-01 -1.83402E-02
    9116.054    119.085   5.800  9.83679E-01  9.95402E-01 -1.17231E-02
    9117.828    120.859   5.840  9.89315E-01  9.95326E-01 -6.01117E-03
    9119.614    122.645   5.880  9.93632E-01  9.95188E-01 -1.55620E-03
    9121.412    124.443   5.920  9.96573E-01  9.95037E-01  1.53658E-03
    9123.223    126.254   5.960  9.98342E-01  9.94846E-01  3.49612E-03
    9125.045    128.077   6.000  9.99381E-01  9.94594E-01  4.78628E-03
