# # comment:                                                     FEFF 9.9.1  
# # Source:
# # Structure
# # Reduced
# # space
# # abc:
# # angles:
# # sites:
# # POT  SCF 100  7.0000   0, screened core-hole, AFOLP (folp(0)= 1.150)
# # Abs   Z=29 Rmt= 1.236 Rnm= 1.316 K  shell
# # Pot 1 Z=12 Rmt= 1.378 Rnm= 1.453
# # Pot 2 Z=29 Rmt= 1.235 Rnm= 1.317
# # Pot 3 Z= 8 Rmt= 1.016 Rnm= 1.104
# # Gam_ch=1.729E+00 H-L exch Vi= 0.000E+00 Vr= 0.000E+00
# # Mu=-8.669E+00eV kf=2.122E+00 Vint=-1.722E+01eV Rs_int= 1.709
# FMS rfms= 9.0000
# # PATH  Rmax=-1.000,  Keep_limit= 0.00, Heap_limit 0.00  Pwcrit= 2.50%
#  S02=0.950  Temp=   0.00  Debye_temp=   0.00  Global_sig2= 0.00000
#  Energy zero shift, vr, vi    0.00000E+00   0.00000E+00
#  Curved wave amplitude ratio filter   4.000%
#     file         sig2 tot  cw amp ratio   deg  nlegs   reff  inp sig2
#     0/   0 paths used
#  xsedge+ 50, used to normalize mu           2.4551E-04
#  -----------------------------------------------------------------------
#  omega    e    k    mu    mu0     chi     @#
    8984.449    -12.479  -1.000  3.80634E-02  5.51264E-02 -1.70630E-02
    8984.748    -12.181  -0.960  3.99274E-02  5.91468E-02 -1.92194E-02
    8985.034    -11.894  -0.920  4.19070E-02  6.36145E-02 -2.17075E-02
    8985.308    -11.620  -0.880  4.40103E-02  6.85952E-02 -2.45850E-02
    8985.570    -11.358  -0.840  4.62460E-02  7.41655E-02 -2.79195E-02
    8985.820    -11.108  -0.800  4.86232E-02  8.04139E-02 -3.17907E-02
    8986.058    -10.870  -0.760  5.11516E-02  8.74422E-02 -3.62906E-02
    8986.284    -10.644  -0.720  5.38408E-02  9.53653E-02 -4.15245E-02
    8986.497    -10.431  -0.680  5.67001E-02  1.04309E-01 -4.76094E-02
    8986.698    -10.230  -0.640  5.97376E-02  1.14408E-01 -5.46707E-02
    8986.887    -10.041  -0.600  6.29591E-02  1.25793E-01 -6.28338E-02
    8987.064     -9.864  -0.560  6.63652E-02  1.38575E-01 -7.22095E-02
    8987.229     -9.700  -0.520  6.99486E-02  1.52820E-01 -8.28717E-02
    8987.381     -9.547  -0.480  7.36892E-02  1.68515E-01 -9.48255E-02
    8987.521     -9.407  -0.440  7.75494E-02  1.85520E-01 -1.07971E-01
    8987.649     -9.279  -0.400  8.14702E-02  2.03541E-01 -1.22071E-01
    8987.765     -9.163  -0.360  8.53715E-02  2.22113E-01 -1.36741E-01
    8987.869     -9.059  -0.320  8.91570E-02  2.40632E-01 -1.51475E-01
    8987.960     -8.968  -0.280  9.27251E-02  2.58428E-01 -1.65703E-01
    8988.039     -8.889  -0.240  9.59812E-02  2.74857E-01 -1.78875E-01
    8988.106     -8.822  -0.200  9.88465E-02  2.89376E-01 -1.90530E-01
    8988.161     -8.767  -0.160  1.01261E-01  3.01592E-01 -2.00331E-01
    8988.204     -8.724  -0.120  1.03179E-01  3.11249E-01 -2.08070E-01
    8988.234     -8.694  -0.080  1.04570E-01  3.18207E-01 -2.13637E-01
    8988.259     -8.669   0.000  1.05695E-01  3.23797E-01 -2.18102E-01
    8988.314     -8.614   0.120  1.08407E-01  3.36406E-01 -2.27999E-01
    8988.356     -8.572   0.160  1.10498E-01  3.46211E-01 -2.35713E-01
    8988.411     -8.517   0.200  1.13171E-01  3.58718E-01 -2.45547E-01
    8988.478     -8.450   0.240  1.16484E-01  3.73781E-01 -2.57297E-01
    8988.558     -8.371   0.280  1.20413E-01  3.91082E-01 -2.70669E-01
    8988.649     -8.279   0.320  1.25042E-01  4.10188E-01 -2.85146E-01
    8988.753     -8.176   0.360  1.30429E-01  4.30558E-01 -3.00130E-01
    8988.868     -8.060   0.400  1.36726E-01  4.51596E-01 -3.14870E-01
    8988.996     -7.932   0.440  1.44188E-01  4.72775E-01 -3.28587E-01
    8989.137     -7.791   0.480  1.53125E-01  4.93668E-01 -3.40543E-01
    8989.289     -7.639   0.520  1.64003E-01  5.13995E-01 -3.49992E-01
    8989.454     -7.475   0.560  1.77497E-01  5.33656E-01 -3.56159E-01
    8989.630     -7.298   0.600  1.94395E-01  5.52597E-01 -3.58202E-01
    8989.819     -7.109   0.640  2.15719E-01  5.70874E-01 -3.55155E-01
    8990.021     -6.908   0.680  2.42693E-01  5.88540E-01 -3.45847E-01
    8990.234     -6.694   0.720  2.76590E-01  6.05701E-01 -3.29111E-01
    8990.459     -6.469   0.760  3.18212E-01  6.22441E-01 -3.04229E-01
    8990.697     -6.231   0.800  3.66909E-01  6.38856E-01 -2.71947E-01
    8990.947     -5.981   0.840  4.19004E-01  6.54966E-01 -2.35962E-01
    8991.209     -5.719   0.880  4.67822E-01  6.70820E-01 -2.02998E-01
    8991.484     -5.445   0.920  5.08405E-01  6.86491E-01 -1.78086E-01
    8991.770     -5.158   0.960  5.41647E-01  7.01962E-01 -1.60315E-01
    8992.069     -4.859   1.000  5.69603E-01  7.17242E-01 -1.47639E-01
    8992.380     -4.548   1.040  5.89376E-01  7.32332E-01 -1.42956E-01
    8992.703     -4.225   1.080  5.95729E-01  7.47230E-01 -1.51501E-01
    8993.038     -3.890   1.120  5.87803E-01  7.61922E-01 -1.74119E-01
    8993.386     -3.543   1.160  5.73203E-01  7.76372E-01 -2.03168E-01
    8993.745     -3.183   1.200  5.64026E-01  7.90557E-01 -2.26531E-01
    8994.117     -2.811   1.240  5.67033E-01  8.04476E-01 -2.37443E-01
    8994.501     -2.427   1.280  5.79456E-01  8.18062E-01 -2.38606E-01
    8994.897     -2.031   1.320  5.94283E-01  8.31328E-01 -2.37046E-01
    8995.306     -1.622   1.360  6.11003E-01  8.44208E-01 -2.33205E-01
    8995.726     -1.202   1.400  6.35837E-01  8.56712E-01 -2.20875E-01
    8996.159     -0.769   1.440  6.73081E-01  8.68791E-01 -1.95710E-01
    8996.604     -0.324   1.480  7.23196E-01  8.80418E-01 -1.57222E-01
    8997.061      0.133   1.520  7.81630E-01  8.91607E-01 -1.09977E-01
    8997.531      0.603   1.560  8.43114E-01  9.02289E-01 -5.91751E-02
    8998.012      1.084   1.600  9.06188E-01  9.12501E-01 -6.31333E-03
    8998.506      1.578   1.640  9.72779E-01  9.22177E-01  5.06015E-02
    8999.012      2.084   1.680  1.05259E+00  9.31358E-01  1.21236E-01
    8999.530      2.602   1.720  1.15211E+00  9.40019E-01  2.12089E-01
    9000.061      3.132   1.760  1.25782E+00  9.48140E-01  3.09678E-01
    9000.603      3.675   1.800  1.34541E+00  9.55744E-01  3.89667E-01
    9001.158      4.230   1.840  1.41003E+00  9.62833E-01  4.47195E-01
    9001.725      4.797   1.880  1.45810E+00  9.69411E-01  4.88684E-01
    9002.304      5.376   1.920  1.47694E+00  9.75463E-01  5.01475E-01
    9002.895      5.967   1.960  1.45836E+00  9.81035E-01  4.77328E-01
    9003.499      6.571   2.000  1.41677E+00  9.86110E-01  4.30663E-01
    9004.114      7.186   2.040  1.36262E+00  9.90701E-01  3.71918E-01
    9004.742      7.814   2.080  1.29068E+00  9.94855E-01  2.95826E-01
    9005.382      8.454   2.120  1.20810E+00  9.98560E-01  2.09543E-01
    9006.035      9.107   2.160  1.13139E+00  1.00187E+00  1.29527E-01
    9006.699      9.771   2.200  1.06905E+00  1.00475E+00  6.43034E-02
    9007.376     10.448   2.240  1.02797E+00  1.00727E+00  2.07016E-02
    9008.065     11.137   2.280  1.01112E+00  1.00940E+00  1.71601E-03
    9008.766     11.838   2.320  1.01349E+00  1.01122E+00  2.26530E-03
    9009.479     12.551   2.360  1.02644E+00  1.01271E+00  1.37230E-02
    9010.204     13.276   2.400  1.03945E+00  1.01391E+00  2.55413E-02
    9010.942     14.014   2.440  1.04567E+00  1.01483E+00  3.08419E-02
    9011.692     14.764   2.480  1.05086E+00  1.01549E+00  3.53748E-02
    9012.454     15.526   2.520  1.06355E+00  1.01590E+00  4.76453E-02
    9013.228     16.300   2.560  1.07840E+00  1.01611E+00  6.22911E-02
    9014.014     17.086   2.600  1.08521E+00  1.01611E+00  6.90955E-02
    9014.813     17.885   2.640  1.08193E+00  1.01595E+00  6.59888E-02
    9015.624     18.696   2.680  1.06899E+00  1.01563E+00  5.33531E-02
    9016.447     19.518   2.720  1.04872E+00  1.01517E+00  3.35520E-02
    9017.282     20.354   2.760  1.02431E+00  1.01456E+00  9.75648E-03
    9018.129     21.201   2.800  9.97886E-01  1.01387E+00 -1.59832E-02
    9018.989     22.060   2.840  9.70986E-01  1.01307E+00 -4.20848E-02
    9019.860     22.932   2.880  9.45470E-01  1.01219E+00 -6.67188E-02
    9020.744     23.816   2.920  9.22642E-01  1.01123E+00 -8.85903E-02
    9021.640     24.712   2.960  9.03538E-01  1.01025E+00 -1.06710E-01
    9022.549     25.621   3.000  8.88723E-01  1.00920E+00 -1.20478E-01
    9023.469     26.541   3.040  8.78210E-01  1.00814E+00 -1.29928E-01
    9024.402     27.474   3.080  8.71537E-01  1.00704E+00 -1.35505E-01
    9025.347     28.419   3.120  8.68441E-01  1.00594E+00 -1.37502E-01
    9026.304     29.376   3.160  8.68278E-01  1.00486E+00 -1.36585E-01
    9027.273     30.345   3.200  8.70624E-01  1.00376E+00 -1.33140E-01
    9028.254     31.326   3.240  8.75044E-01  1.00269E+00 -1.27647E-01
    9029.248     32.320   3.280  8.80905E-01  1.00163E+00 -1.20725E-01
    9030.254     33.326   3.320  8.87659E-01  1.00062E+00 -1.12965E-01
    9031.272     34.344   3.360  8.94943E-01  9.99633E-01 -1.04690E-01
    9032.302     35.374   3.400  9.02874E-01  9.98681E-01 -9.58071E-02
    9033.345     36.417   3.440  9.11436E-01  9.97772E-01 -8.63358E-02
    9034.399     37.471   3.480  9.20879E-01  9.96927E-01 -7.60477E-02
    9035.466     38.538   3.520  9.31416E-01  9.96127E-01 -6.47105E-02
    9036.545     39.617   3.560  9.43044E-01  9.95375E-01 -5.23302E-02
    9037.636     40.708   3.600  9.55297E-01  9.94691E-01 -3.93935E-02
    9038.740     41.811   3.640  9.67349E-01  9.94056E-01 -2.67075E-02
    9039.855     42.927   3.680  9.78293E-01  9.93492E-01 -1.51992E-02
    9040.983     44.055   3.720  9.87364E-01  9.92977E-01 -5.61354E-03
    9042.123     45.195   3.760  9.94489E-01  9.92535E-01  1.95443E-03
    9043.275     46.347   3.800  1.00021E+00  9.92144E-01  8.06733E-03
    9044.439     47.511   3.840  1.00544E+00  9.91847E-01  1.35957E-02
    9045.616     48.688   3.880  1.01118E+00  9.91582E-01  1.95953E-02
    9046.805     49.876   3.920  1.01818E+00  9.91410E-01  2.67715E-02
    9048.005     51.077   3.960  1.02637E+00  9.91287E-01  3.50794E-02
    9049.219     52.290   4.000  1.03497E+00  9.91213E-01  4.37618E-02
    9050.444     53.516   4.040  1.04294E+00  9.91208E-01  5.17361E-02
    9051.681     54.753   4.080  1.04941E+00  9.91253E-01  5.81584E-02
    9052.931     56.003   4.120  1.05415E+00  9.91368E-01  6.27869E-02
    9054.193     57.265   4.160  1.05759E+00  9.91529E-01  6.60572E-02
    9055.467     58.539   4.200  1.06033E+00  9.91755E-01  6.85722E-02
    9056.753     59.825   4.240  1.06272E+00  9.92006E-01  7.07160E-02
    9058.052     61.123   4.280  1.06482E+00  9.92320E-01  7.25045E-02
    9059.362     62.434   4.320  1.06632E+00  9.92675E-01  7.36410E-02
    9060.685     63.757   4.360  1.06677E+00  9.93070E-01  7.36963E-02
    9062.020     65.092   4.400  1.06580E+00  9.93503E-01  7.22922E-02
    9063.367     66.439   4.440  1.06331E+00  9.93951E-01  6.93573E-02
    9064.727     67.799   4.480  1.05957E+00  9.94455E-01  6.51185E-02
    9066.098     69.170   4.520  1.05506E+00  9.94971E-01  6.00919E-02
    9067.482     70.554   4.560  1.05038E+00  9.95494E-01  5.48857E-02
    9068.878     71.950   4.600  1.04602E+00  9.96050E-01  4.99718E-02
    9070.286     73.358   4.640  1.04219E+00  9.96634E-01  4.55582E-02
    9071.707     74.778   4.680  1.03882E+00  9.97221E-01  4.15979E-02
    9073.139     76.211   4.720  1.03551E+00  9.97789E-01  3.77216E-02
    9074.584     77.656   4.760  1.03159E+00  9.98378E-01  3.32124E-02
    9076.041     79.113   4.800  1.02624E+00  9.98969E-01  2.72706E-02
    9077.510     80.582   4.840  1.01900E+00  9.99559E-01  1.94377E-02
    9078.991     82.063   4.880  1.00998E+00  1.00015E+00  9.83031E-03
    9080.485     83.557   4.920  9.99672E-01  1.00073E+00 -1.05545E-03
    9081.991     85.062   4.960  9.88573E-01  1.00128E+00 -1.27074E-02
    9083.508     86.580   5.000  9.77104E-01  1.00182E+00 -2.47187E-02
    9085.038     88.110   5.040  9.65586E-01  1.00233E+00 -3.67474E-02
    9086.581     89.653   5.080  9.54438E-01  1.00283E+00 -4.83941E-02
    9088.135     91.207   5.120  9.44185E-01  1.00330E+00 -5.91119E-02
    9089.702     92.774   5.160  9.35467E-01  1.00373E+00 -6.82585E-02
    9091.281     94.353   5.200  9.29036E-01  1.00414E+00 -7.51040E-02
    9092.872     95.944   5.240  9.25431E-01  1.00452E+00 -7.90860E-02
    9094.475     97.547   5.280  9.24863E-01  1.00486E+00 -7.99925E-02
    9096.090     99.162   5.320  9.27191E-01  1.00515E+00 -7.79628E-02
    9097.718    100.790   5.360  9.32223E-01  1.00541E+00 -7.31869E-02
    9099.358    102.430   5.400  9.39915E-01  1.00563E+00 -6.57103E-02
    9101.010    104.082   5.440  9.50206E-01  1.00580E+00 -5.55938E-02
    9102.674    105.746   5.480  9.62587E-01  1.00593E+00 -4.33453E-02
    9104.351    107.422   5.520  9.75944E-01  1.00602E+00 -3.00785E-02
    9106.039    109.111   5.560  9.88903E-01  1.00607E+00 -1.71686E-02
    9107.740    110.812   5.600  1.00039E+00  1.00608E+00 -5.69134E-03
    9109.453    112.525   5.640  1.00974E+00  1.00602E+00  3.71975E-03
    9111.178    114.250   5.680  1.01657E+00  1.00594E+00  1.06318E-02
    9112.915    115.987   5.720  1.02049E+00  1.00579E+00  1.46939E-02
    9114.665    117.737   5.760  1.02150E+00  1.00563E+00  1.58717E-02
    9116.427    119.499   5.800  1.02010E+00  1.00540E+00  1.46951E-02
    9118.201    121.272   5.840  1.01750E+00  1.00513E+00  1.23624E-02
    9119.987    123.059   5.880  1.01530E+00  1.00483E+00  1.04762E-02
    9121.785    124.857   5.920  1.01488E+00  1.00451E+00  1.03638E-02
    9123.596    126.667   5.960  1.01654E+00  1.00413E+00  1.24039E-02
    9125.418    128.490   6.000  1.01968E+00  1.00369E+00  1.59938E-02
