# # comment:                                                     FEFF 9.9.1  
# # Source:
# # Structure
# # Reduced
# # space
# # abc:
# # angles:
# # sites:
# # POT  SCF 100  7.0000   0, screened core-hole, AFOLP (folp(0)= 1.150)
# # Abs   Z=29 Rmt= 1.210 Rnm= 1.362 K  shell
# # Pot 1 Z=23 Rmt= 1.108 Rnm= 1.319
# # Pot 2 Z=48 Rmt= 1.523 Rnm= 1.585
# # Pot 3 Z=29 Rmt= 1.210 Rnm= 1.362
# # Pot 4 Z= 8 Rmt= 0.956 Rnm= 1.094
# # Gam_ch=1.729E+00 H-L exch Vi= 0.000E+00 Vr= 0.000E+00
# # Mu=-7.406E+00eV kf=2.171E+00 Vint=-1.652E+01eV Rs_int= 1.671
# FMS rfms= 9.0000
# # PATH  Rmax=-1.000,  Keep_limit= 0.00, Heap_limit 0.00  Pwcrit= 2.50%
#  S02=0.950  Temp=   0.00  Debye_temp=   0.00  Global_sig2= 0.00000
#  Energy zero shift, vr, vi    0.00000E+00   0.00000E+00
#  Curved wave amplitude ratio filter   4.000%
#     file         sig2 tot  cw amp ratio   deg  nlegs   reff  inp sig2
#     0/   0 paths used
#  xsedge+ 50, used to normalize mu           2.4633E-04
#  -----------------------------------------------------------------------
#  omega    e    k    mu    mu0     chi     @#
    8984.035    -11.216  -1.000  5.14008E-02  5.60163E-02 -4.61553E-03
    8984.334    -10.917  -0.960  5.49052E-02  6.01343E-02 -5.22915E-03
    8984.620    -10.631  -0.920  5.87686E-02  6.47138E-02 -5.94525E-03
    8984.895    -10.357  -0.880  6.30398E-02  6.98229E-02 -6.78311E-03
    8985.157    -10.094  -0.840  6.77752E-02  7.55410E-02 -7.76579E-03
    8985.407     -9.845  -0.800  7.30395E-02  8.19601E-02 -8.92068E-03
    8985.645     -9.607  -0.760  7.89058E-02  8.91859E-02 -1.02801E-02
    8985.870     -9.381  -0.720  8.54563E-02  9.73376E-02 -1.18813E-02
    8986.083     -9.168  -0.680  9.27800E-02  1.06547E-01 -1.37668E-02
    8986.285     -8.967  -0.640  1.00970E-01  1.16952E-01 -1.59822E-02
    8986.474     -8.778  -0.600  1.10117E-01  1.28690E-01 -1.85738E-02
    8986.650     -8.601  -0.560  1.20295E-01  1.41878E-01 -2.15827E-02
    8986.815     -8.436  -0.520  1.31549E-01  1.56584E-01 -2.50350E-02
    8986.967     -8.284  -0.480  1.43864E-01  1.72794E-01 -2.89294E-02
    8987.108     -8.144  -0.440  1.57143E-01  1.90365E-01 -3.32216E-02
    8987.236     -8.016  -0.400  1.71178E-01  2.08990E-01 -3.78124E-02
    8987.351     -7.900  -0.360  1.85643E-01  2.28189E-01 -4.25458E-02
    8987.455     -7.796  -0.320  2.00111E-01  2.47334E-01 -4.72229E-02
    8987.546     -7.705  -0.280  2.14097E-01  2.65731E-01 -5.16339E-02
    8987.626     -7.626  -0.240  2.27116E-01  2.82711E-01 -5.55943E-02
    8987.693     -7.559  -0.200  2.38741E-01  2.97715E-01 -5.89737E-02
    8987.748     -7.504  -0.160  2.48630E-01  3.10335E-01 -6.17047E-02
    8987.790     -7.461  -0.120  2.56537E-01  3.20310E-01 -6.37725E-02
    8987.821     -7.431  -0.080  2.62298E-01  3.27495E-01 -6.51967E-02
    8987.845     -7.406   0.000  2.66995E-01  3.33267E-01 -6.62725E-02
    8987.900     -7.351   0.120  2.77357E-01  3.46269E-01 -6.89114E-02
    8987.943     -7.309   0.160  2.85534E-01  3.56374E-01 -7.08401E-02
    8987.998     -7.254   0.200  2.96144E-01  3.69296E-01 -7.31523E-02
    8988.065     -7.187   0.240  3.09148E-01  3.84815E-01 -7.56667E-02
    8988.144     -7.107   0.280  3.24459E-01  4.02617E-01 -7.81588E-02
    8988.235     -7.016   0.320  3.41869E-01  4.22265E-01 -8.03967E-02
    8988.339     -6.912   0.360  3.60955E-01  4.43149E-01 -8.21942E-02
    8988.455     -6.797   0.400  3.81135E-01  4.64684E-01 -8.35492E-02
    8988.583     -6.669   0.440  4.01571E-01  4.86298E-01 -8.47265E-02
    8988.723     -6.528   0.480  4.21267E-01  5.07562E-01 -8.62950E-02
    8988.875     -6.376   0.520  4.39215E-01  5.28164E-01 -8.89484E-02
    8989.040     -6.211   0.560  4.54760E-01  5.47999E-01 -9.32388E-02
    8989.217     -6.035   0.600  4.67897E-01  5.67032E-01 -9.91349E-02
    8989.406     -5.846   0.640  4.79567E-01  5.85304E-01 -1.05737E-01
    8989.607     -5.644   0.680  4.91554E-01  6.02894E-01 -1.11340E-01
    8989.820     -5.431   0.720  5.05907E-01  6.19894E-01 -1.13986E-01
    8990.046     -5.205   0.760  5.24511E-01  6.36395E-01 -1.11884E-01
    8990.284     -4.968   0.800  5.48948E-01  6.52500E-01 -1.03552E-01
    8990.534     -4.718   0.840  5.80343E-01  6.68278E-01 -8.79350E-02
    8990.796     -4.456   0.880  6.18794E-01  6.83761E-01 -6.49661E-02
    8991.070     -4.181   0.920  6.62636E-01  6.98988E-01 -3.63519E-02
    8991.356     -3.895   0.960  7.09120E-01  7.14008E-01 -4.88748E-03
    8991.655     -3.596   1.000  7.57190E-01  7.28794E-01  2.83963E-02
    8991.966     -3.285   1.040  8.07745E-01  7.43394E-01  6.43509E-02
    8992.289     -2.962   1.080  8.58217E-01  7.57788E-01  1.00430E-01
    8992.624     -2.627   1.120  8.98754E-01  7.71944E-01  1.26810E-01
    8992.972     -2.279   1.160  9.16781E-01  7.85871E-01  1.30910E-01
    8993.332     -1.920   1.200  9.05602E-01  7.99552E-01  1.06050E-01
    8993.703     -1.548   1.240  8.66839E-01  8.12945E-01  5.38937E-02
    8994.087     -1.164   1.280  8.08738E-01  8.26048E-01 -1.73099E-02
    8994.484     -0.768   1.320  7.45200E-01  8.38815E-01 -9.36147E-02
    8994.892     -0.359   1.360  6.92663E-01  8.51240E-01 -1.58578E-01
    8995.313      0.061   1.400  6.63073E-01  8.63278E-01 -2.00206E-01
    8995.746      0.494   1.440  6.60021E-01  8.74921E-01 -2.14901E-01
    8996.191      0.939   1.480  6.77874E-01  8.86164E-01 -2.08290E-01
    8996.648      1.396   1.520  7.02792E-01  8.96959E-01 -1.94167E-01
    8997.117      1.866   1.560  7.25932E-01  9.07300E-01 -1.81368E-01
    8997.599      2.347   1.600  7.57481E-01  9.17163E-01 -1.59682E-01
    8998.093      2.841   1.640  8.12059E-01  9.26566E-01 -1.14508E-01
    8998.598      3.347   1.680  8.88404E-01  9.35466E-01 -4.70617E-02
    8999.117      3.865   1.720  9.72625E-01  9.43881E-01  2.87441E-02
    8999.647      4.396   1.760  1.04998E+00  9.51810E-01  9.81686E-02
    9000.190      4.938   1.800  1.11824E+00  9.59214E-01  1.59025E-01
    9000.744      5.493   1.840  1.17626E+00  9.66137E-01  2.10122E-01
    9001.311      6.060   1.880  1.20593E+00  9.72560E-01  2.33370E-01
    9001.890      6.639   1.920  1.20010E+00  9.78507E-01  2.21595E-01
    9002.482      7.230   1.960  1.17693E+00  9.83985E-01  1.92945E-01
    9003.085      7.834   2.000  1.15391E+00  9.88979E-01  1.64929E-01
    9003.701      8.449   2.040  1.13868E+00  9.93516E-01  1.45167E-01
    9004.329      9.077   2.080  1.13749E+00  9.97624E-01  1.39868E-01
    9004.969      9.717   2.120  1.15175E+00  1.00129E+00  1.50462E-01
    9005.621     10.370   2.160  1.17723E+00  1.00456E+00  1.72665E-01
    9006.286     11.034   2.200  1.20355E+00  1.00745E+00  1.96096E-01
    9006.962     11.711   2.240  1.21553E+00  1.00995E+00  2.05585E-01
    9007.651     12.400   2.280  1.20732E+00  1.01210E+00  1.95215E-01
    9008.352     13.101   2.320  1.18245E+00  1.01390E+00  1.68555E-01
    9009.065     13.814   2.360  1.14214E+00  1.01539E+00  1.26743E-01
    9009.791     14.539   2.400  1.09236E+00  1.01660E+00  7.57603E-02
    9010.528     15.277   2.440  1.04274E+00  1.01753E+00  2.52075E-02
    9011.278     16.027   2.480  1.00252E+00  1.01820E+00 -1.56738E-02
    9012.040     16.789   2.520  9.70223E-01  1.01862E+00 -4.83948E-02
    9012.814     17.563   2.560  9.42059E-01  1.01882E+00 -7.67652E-02
    9013.601     18.349   2.600  9.32034E-01  1.01883E+00 -8.67919E-02
    9014.399     19.148   2.640  9.36597E-01  1.01865E+00 -8.20564E-02
    9015.210     19.959   2.680  9.47438E-01  1.01831E+00 -7.08766E-02
    9016.033     20.782   2.720  9.59860E-01  1.01782E+00 -5.79573E-02
    9016.868     21.617   2.760  9.71947E-01  1.01719E+00 -4.52441E-02
    9017.715     22.464   2.800  9.83157E-01  1.01644E+00 -3.32877E-02
    9018.575     23.324   2.840  9.93029E-01  1.01560E+00 -2.25754E-02
    9019.447     24.195   2.880  1.00053E+00  1.01468E+00 -1.41468E-02
    9020.331     25.079   2.920  1.00522E+00  1.01367E+00 -8.45267E-03
    9021.227     25.975   2.960  1.00706E+00  1.01259E+00 -5.53777E-03
    9022.135     26.884   3.000  1.00652E+00  1.01149E+00 -4.96626E-03
    9023.056     27.804   3.040  1.00457E+00  1.01032E+00 -5.75599E-03
    9023.988     28.737   3.080  1.00226E+00  1.00914E+00 -6.87823E-03
    9024.933     29.682   3.120  1.00009E+00  1.00795E+00 -7.86355E-03
    9025.890     30.639   3.160  9.98221E-01  1.00673E+00 -8.51276E-03
    9026.859     31.608   3.200  9.97019E-01  1.00551E+00 -8.49519E-03
    9027.841     32.590   3.240  9.96998E-01  1.00432E+00 -7.32149E-03
    9028.835     33.583   3.280  9.98449E-01  1.00313E+00 -4.68394E-03
    9029.840     34.589   3.320  1.00099E+00  1.00198E+00 -9.80804E-04
    9030.858     35.607   3.360  1.00341E+00  1.00083E+00  2.57611E-03
    9031.889     36.637   3.400  1.00426E+00  9.99742E-01  4.51924E-03
    9032.931     37.680   3.440  1.00261E+00  9.98672E-01  3.93377E-03
    9033.986     38.734   3.480  9.98421E-01  9.97643E-01  7.77466E-04
    9035.052     39.801   3.520  9.92254E-01  9.96677E-01 -4.42346E-03
    9036.131     40.880   3.560  9.84854E-01  9.95757E-01 -1.09032E-02
    9037.223     41.971   3.600  9.76899E-01  9.94883E-01 -1.79832E-02
    9038.326     43.075   3.640  9.69011E-01  9.94076E-01 -2.50657E-02
    9039.442     44.190   3.680  9.61520E-01  9.93319E-01 -3.17994E-02
    9040.569     45.318   3.720  9.54178E-01  9.92632E-01 -3.84535E-02
    9041.709     46.458   3.760  9.46457E-01  9.91993E-01 -4.55364E-02
    9042.861     47.610   3.800  9.38250E-01  9.91426E-01 -5.31760E-02
    9044.026     48.774   3.840  9.30090E-01  9.90909E-01 -6.08198E-02
    9045.202     49.951   3.880  9.23124E-01  9.90466E-01 -6.73415E-02
    9046.391     51.140   3.920  9.18697E-01  9.90093E-01 -7.13968E-02
    9047.592     52.341   3.960  9.17862E-01  9.89772E-01 -7.19101E-02
    9048.805     53.554   4.000  9.20972E-01  9.89522E-01 -6.85502E-02
    9050.030     54.779   4.040  9.27626E-01  9.89322E-01 -6.16953E-02
    9051.268     56.016   4.080  9.36998E-01  9.89189E-01 -5.21911E-02
    9052.517     57.266   4.120  9.48227E-01  9.89105E-01 -4.08779E-02
    9053.779     58.528   4.160  9.60772E-01  9.89067E-01 -2.82947E-02
    9055.053     59.802   4.200  9.74427E-01  9.89098E-01 -1.46708E-02
    9056.340     61.088   4.240  9.89085E-01  9.89175E-01 -9.06878E-05
    9057.638     62.387   4.280  1.00472E+00  9.89319E-01  1.54004E-02
    9058.949     63.697   4.320  1.02115E+00  9.89504E-01  3.16446E-02
    9060.271     65.020   4.360  1.03781E+00  9.89710E-01  4.81023E-02
    9061.606     66.355   4.400  1.05366E+00  9.89978E-01  6.36829E-02
    9062.954     67.702   4.440  1.06731E+00  9.90286E-01  7.70260E-02
    9064.313     69.062   4.480  1.07742E+00  9.90632E-01  8.67881E-02
    9065.685     70.433   4.520  1.08300E+00  9.90990E-01  9.20117E-02
    9067.068     71.817   4.560  1.08366E+00  9.91384E-01  9.22783E-02
    9068.464     73.213   4.600  1.07948E+00  9.91811E-01  8.76670E-02
    9069.873     74.621   4.640  1.07097E+00  9.92271E-01  7.87005E-02
    9071.293     76.042   4.680  1.05911E+00  9.92740E-01  6.63708E-02
    9072.726     77.474   4.720  1.04521E+00  9.93215E-01  5.19922E-02
    9074.170     78.919   4.760  1.03073E+00  9.93717E-01  3.70139E-02
    9075.627     80.376   4.800  1.01709E+00  9.94222E-01  2.28658E-02
    9077.096     81.845   4.840  1.00549E+00  9.94728E-01  1.07598E-02
    9078.578     83.326   4.880  9.96615E-01  9.95234E-01  1.38095E-03
    9080.071     84.820   4.920  9.90491E-01  9.95739E-01 -5.24779E-03
    9081.577     86.326   4.960  9.86615E-01  9.96242E-01 -9.62653E-03
    9083.095     87.843   5.000  9.84298E-01  9.96739E-01 -1.24416E-02
    9084.625     89.374   5.040  9.82970E-01  9.97208E-01 -1.42383E-02
    9086.167     90.916   5.080  9.82364E-01  9.97671E-01 -1.53063E-02
    9087.722     92.470   5.120  9.82441E-01  9.98126E-01 -1.56845E-02
    9089.288     94.037   5.160  9.83296E-01  9.98549E-01 -1.52528E-02
    9090.867     95.616   5.200  9.85116E-01  9.98963E-01 -1.38466E-02
    9092.458     97.207   5.240  9.87973E-01  9.99344E-01 -1.13703E-02
    9094.061     98.810   5.280  9.91798E-01  9.99709E-01 -7.91170E-03
    9095.677    100.426   5.320  9.96384E-01  1.00002E+00 -3.63400E-03
    9097.305    102.053   5.360  1.00168E+00  1.00031E+00  1.36449E-03
    9098.944    103.693   5.400  1.00755E+00  1.00059E+00  6.95314E-03
    9100.596    105.345   5.440  1.01355E+00  1.00081E+00  1.27351E-02
    9102.261    107.009   5.480  1.01879E+00  1.00099E+00  1.78048E-02
    9103.937    108.686   5.520  1.02188E+00  1.00115E+00  2.07324E-02
    9105.626    110.374   5.560  1.02120E+00  1.00125E+00  1.99482E-02
    9107.326    112.075   5.600  1.01582E+00  1.00133E+00  1.44839E-02
    9109.039    113.788   5.640  1.00581E+00  1.00138E+00  4.43432E-03
    9110.764    115.513   5.680  9.92214E-01  1.00136E+00 -9.14142E-03
    9112.502    117.250   5.720  9.76668E-01  1.00132E+00 -2.46466E-02
    9114.251    119.000   5.760  9.60977E-01  1.00121E+00 -4.02368E-02
    9116.013    120.762   5.800  9.47093E-01  1.00110E+00 -5.40030E-02
    9117.787    122.536   5.840  9.36659E-01  1.00094E+00 -6.42802E-02
    9119.573    124.322   5.880  9.30642E-01  1.00072E+00 -7.00788E-02
    9121.371    126.120   5.920  9.29181E-01  1.00049E+00 -7.13076E-02
    9123.182    127.931   5.960  9.31672E-01  1.00022E+00 -6.85461E-02
    9125.005    129.753   6.000  9.37512E-01  9.99854E-01 -6.23420E-02
