# # comment:                                                     FEFF 9.9.1  
# # Source:
# # Structure
# # Reduced
# # space
# # abc:
# # angles:
# # sites:
# # POT  SCF 100  7.0000   0, screened core-hole, AFOLP (folp(0)= 1.150)
# # Abs   Z=29 Rmt= 1.225 Rnm= 1.308 K  shell
# # Pot 1 Z=12 Rmt= 1.377 Rnm= 1.451
# # Pot 2 Z=29 Rmt= 1.235 Rnm= 1.317
# # Pot 3 Z= 8 Rmt= 1.011 Rnm= 1.100
# # Gam_ch=1.729E+00 H-L exch Vi= 0.000E+00 Vr= 0.000E+00
# # Mu=-8.584E+00eV kf=2.127E+00 Vint=-1.725E+01eV Rs_int= 1.705
# FMS rfms= 9.0000
# # PATH  Rmax=-1.000,  Keep_limit= 0.00, Heap_limit 0.00  Pwcrit= 2.50%
#  S02=0.950  Temp=   0.00  Debye_temp=   0.00  Global_sig2= 0.00000
#  Energy zero shift, vr, vi    0.00000E+00   0.00000E+00
#  Curved wave amplitude ratio filter   4.000%
#     file         sig2 tot  cw amp ratio   deg  nlegs   reff  inp sig2
#     0/   0 paths used
#  xsedge+ 50, used to normalize mu           2.4551E-04
#  -----------------------------------------------------------------------
#  omega    e    k    mu    mu0     chi     @#
    8984.438    -12.394  -1.000  3.77677E-02  5.55146E-02 -1.77469E-02
    8984.737    -12.096  -0.960  3.95932E-02  5.95758E-02 -1.99826E-02
    8985.023    -11.809  -0.920  4.15291E-02  6.40900E-02 -2.25608E-02
    8985.297    -11.535  -0.880  4.35829E-02  6.91237E-02 -2.55408E-02
    8985.560    -11.273  -0.840  4.57625E-02  7.47547E-02 -2.89922E-02
    8985.810    -11.023  -0.800  4.80764E-02  8.10728E-02 -3.29964E-02
    8986.047    -10.785  -0.760  5.05333E-02  8.81813E-02 -3.76480E-02
    8986.273    -10.559  -0.720  5.31422E-02  9.61967E-02 -4.30545E-02
    8986.486    -10.346  -0.680  5.59115E-02  1.05247E-01 -4.93359E-02
    8986.687    -10.145  -0.640  5.88489E-02  1.15469E-01 -5.66199E-02
    8986.876     -9.956  -0.600  6.19594E-02  1.26994E-01 -6.50346E-02
    8987.053     -9.779  -0.560  6.52437E-02  1.39936E-01 -7.46928E-02
    8987.218     -9.615  -0.520  6.86944E-02  1.54364E-01 -8.56693E-02
    8987.370     -9.462  -0.480  7.22925E-02  1.70261E-01 -9.79682E-02
    8987.510     -9.322  -0.440  7.60019E-02  1.87488E-01 -1.11486E-01
    8987.638     -9.194  -0.400  7.97663E-02  2.05745E-01 -1.25979E-01
    8987.754     -9.078  -0.360  8.35090E-02  2.24562E-01 -1.41053E-01
    8987.858     -8.974  -0.320  8.71382E-02  2.43326E-01 -1.56188E-01
    8987.949     -8.883  -0.280  9.05569E-02  2.61357E-01 -1.70800E-01
    8988.028     -8.804  -0.240  9.36752E-02  2.78002E-01 -1.84327E-01
    8988.096     -8.737  -0.200  9.64182E-02  2.92712E-01 -1.96294E-01
    8988.150     -8.682  -0.160  9.87292E-02  3.05087E-01 -2.06358E-01
    8988.193     -8.639  -0.120  1.00566E-01  3.14870E-01 -2.14304E-01
    8988.224     -8.609  -0.080  1.01901E-01  3.21919E-01 -2.20018E-01
    8988.248     -8.584   0.000  1.02991E-01  3.27583E-01 -2.24591E-01
    8988.303     -8.529   0.120  1.05609E-01  3.40345E-01 -2.34737E-01
    8988.345     -8.487   0.160  1.07610E-01  3.50283E-01 -2.42673E-01
    8988.400     -8.432   0.200  1.10165E-01  3.62958E-01 -2.52794E-01
    8988.467     -8.365   0.240  1.13278E-01  3.78199E-01 -2.64921E-01
    8988.547     -8.286   0.280  1.16978E-01  3.95704E-01 -2.78726E-01
    8988.638     -8.194   0.320  1.21300E-01  4.15030E-01 -2.93730E-01
    8988.742     -8.091   0.360  1.26311E-01  4.35628E-01 -3.09317E-01
    8988.858     -7.975   0.400  1.32113E-01  4.56891E-01 -3.24778E-01
    8988.986     -7.847   0.440  1.38930E-01  4.78262E-01 -3.39333E-01
    8989.126     -7.706   0.480  1.47028E-01  4.99328E-01 -3.52300E-01
    8989.278     -7.554   0.520  1.56838E-01  5.19824E-01 -3.62985E-01
    8989.443     -7.389   0.560  1.68874E-01  5.39607E-01 -3.70732E-01
    8989.620     -7.213   0.600  1.83834E-01  5.58643E-01 -3.74809E-01
    8989.808     -7.024   0.640  2.02578E-01  5.76970E-01 -3.74391E-01
    8990.010     -6.823   0.680  2.26190E-01  5.94682E-01 -3.68492E-01
    8990.223     -6.609   0.720  2.55890E-01  6.11867E-01 -3.55977E-01
    8990.449     -6.384   0.760  2.92843E-01  6.28591E-01 -3.35748E-01
    8990.686     -6.146   0.800  3.37752E-01  6.44953E-01 -3.07200E-01
    8990.936     -5.896   0.840  3.89404E-01  6.61015E-01 -2.71611E-01
    8991.198     -5.634   0.880  4.43268E-01  6.76806E-01 -2.33538E-01
    8991.473     -5.360   0.920  4.93432E-01  6.92381E-01 -1.98949E-01
    8991.759     -5.073   0.960  5.37357E-01  7.07745E-01 -1.70388E-01
    8992.058     -4.774   1.000  5.76174E-01  7.22908E-01 -1.46734E-01
    8992.369     -4.463   1.040  6.08738E-01  7.37874E-01 -1.29136E-01
    8992.692     -4.140   1.080  6.27519E-01  7.52638E-01 -1.25119E-01
    8993.027     -3.805   1.120  6.25364E-01  7.67169E-01 -1.41804E-01
    8993.375     -3.458   1.160  6.08470E-01  7.81471E-01 -1.73002E-01
    8993.734     -3.098   1.200  5.94081E-01  7.95484E-01 -2.01403E-01
    8994.106     -2.726   1.240  5.93590E-01  8.09227E-01 -2.15637E-01
    8994.490     -2.342   1.280  6.03523E-01  8.22653E-01 -2.19130E-01
    8994.886     -1.946   1.320  6.14371E-01  8.35717E-01 -2.21346E-01
    8995.295     -1.537   1.360  6.25159E-01  8.48431E-01 -2.23272E-01
    8995.715     -1.117   1.400  6.42078E-01  8.60748E-01 -2.18670E-01
    8996.148     -0.684   1.440  6.69688E-01  8.72639E-01 -2.02951E-01
    8996.593     -0.239   1.480  7.09352E-01  8.84077E-01 -1.74725E-01
    8997.051      0.218   1.520  7.59492E-01  8.95075E-01 -1.35583E-01
    8997.520      0.688   1.560  8.18061E-01  9.05589E-01 -8.75275E-02
    8998.001      1.169   1.600  8.82561E-01  9.15593E-01 -3.30320E-02
    8998.495      1.663   1.640  9.49774E-01  9.25123E-01  2.46512E-02
    8999.001      2.169   1.680  1.02774E+00  9.34116E-01  9.36192E-02
    8999.519      2.687   1.720  1.12663E+00  9.42593E-01  1.84037E-01
    9000.050      3.217   1.760  1.23452E+00  9.50574E-01  2.83950E-01
    9000.592      3.760   1.800  1.32226E+00  9.58019E-01  3.64238E-01
    9001.147      4.315   1.840  1.38197E+00  9.64951E-01  4.17020E-01
    9001.714      4.882   1.880  1.42671E+00  9.71355E-01  4.55351E-01
    9002.293      5.461   1.920  1.44996E+00  9.77276E-01  4.72685E-01
    9002.884      6.052   1.960  1.44004E+00  9.82699E-01  4.57341E-01
    9003.488      6.656   2.000  1.41110E+00  9.87651E-01  4.23448E-01
    9004.104      7.271   2.040  1.37092E+00  9.92143E-01  3.78781E-01
    9004.731      7.899   2.080  1.30787E+00  9.96179E-01  3.11689E-01
    9005.372      8.539   2.120  1.23052E+00  9.99770E-01  2.30751E-01
    9006.024      9.192   2.160  1.15385E+00  1.00297E+00  1.50884E-01
    9006.688      9.856   2.200  1.08760E+00  1.00576E+00  8.18384E-02
    9007.365     10.533   2.240  1.04200E+00  1.00817E+00  3.38258E-02
    9008.054     11.222   2.280  1.02082E+00  1.01024E+00  1.05709E-02
    9008.755     11.923   2.320  1.01927E+00  1.01196E+00  7.31143E-03
    9009.468     12.636   2.360  1.02990E+00  1.01340E+00  1.64990E-02
    9010.193     13.361   2.400  1.04237E+00  1.01452E+00  2.78456E-02
    9010.931     14.099   2.440  1.04841E+00  1.01537E+00  3.30428E-02
    9011.681     14.849   2.480  1.05176E+00  1.01598E+00  3.57765E-02
    9012.443     15.611   2.520  1.06212E+00  1.01635E+00  4.57681E-02
    9013.217     16.385   2.560  1.07733E+00  1.01652E+00  6.08190E-02
    9014.003     17.171   2.600  1.08807E+00  1.01648E+00  7.15905E-02
    9014.802     17.970   2.640  1.09200E+00  1.01627E+00  7.57316E-02
    9015.613     18.781   2.680  1.08642E+00  1.01590E+00  7.05261E-02
    9016.436     19.603   2.720  1.07086E+00  1.01539E+00  5.54670E-02
    9017.271     20.439   2.760  1.04837E+00  1.01476E+00  3.36033E-02
    9018.118     21.286   2.800  1.02239E+00  1.01404E+00  8.34658E-03
    9018.978     22.145   2.840  9.95736E-01  1.01323E+00 -1.74985E-02
    9019.849     23.017   2.880  9.70644E-01  1.01232E+00 -4.16785E-02
    9020.733     23.901   2.920  9.48391E-01  1.01136E+00 -6.29658E-02
    9021.629     24.797   2.960  9.29663E-01  1.01034E+00 -8.06809E-02
    9022.538     25.706   3.000  9.14717E-01  1.00929E+00 -9.45745E-02
    9023.458     26.626   3.040  9.03121E-01  1.00822E+00 -1.05103E-01
    9024.391     27.559   3.080  8.94308E-01  1.00712E+00 -1.12817E-01
    9025.336     28.504   3.120  8.87881E-01  1.00602E+00 -1.18139E-01
    9026.293     29.461   3.160  8.83431E-01  1.00491E+00 -1.21484E-01
    9027.262     30.430   3.200  8.80705E-01  1.00381E+00 -1.23107E-01
    9028.244     31.411   3.240  8.79525E-01  1.00274E+00 -1.23211E-01
    9029.237     32.405   3.280  8.79708E-01  1.00167E+00 -1.21963E-01
    9030.243     33.411   3.320  8.81094E-01  1.00064E+00 -1.19545E-01
    9031.261     34.429   3.360  8.83752E-01  9.99645E-01 -1.15893E-01
    9032.291     35.459   3.400  8.87821E-01  9.98692E-01 -1.10871E-01
    9033.334     36.502   3.440  8.93233E-01  9.97781E-01 -1.04548E-01
    9034.388     37.556   3.480  8.99982E-01  9.96935E-01 -9.69530E-02
    9035.455     38.623   3.520  9.08159E-01  9.96135E-01 -8.79763E-02
    9036.534     39.702   3.560  9.17849E-01  9.95383E-01 -7.75348E-02
    9037.625     40.793   3.600  9.28778E-01  9.94699E-01 -6.59208E-02
    9038.729     41.896   3.640  9.40432E-01  9.94064E-01 -5.36321E-02
    9039.844     43.012   3.680  9.52127E-01  9.93500E-01 -4.13732E-02
    9040.972     44.140   3.720  9.63184E-01  9.92987E-01 -2.98033E-02
    9042.112     45.280   3.760  9.73398E-01  9.92547E-01 -1.91482E-02
    9043.264     46.432   3.800  9.83065E-01  9.92179E-01 -9.11356E-03
    9044.428     47.596   3.840  9.92740E-01  9.91862E-01  8.77755E-04
    9045.605     48.773   3.880  1.00309E+00  9.91618E-01  1.14708E-02
    9046.794     49.961   3.920  1.01447E+00  9.91424E-01  2.30450E-02
    9047.995     51.162   3.960  1.02655E+00  9.91302E-01  3.52522E-02
    9049.208     52.375   4.000  1.03827E+00  9.91252E-01  4.70152E-02
    9050.433     53.601   4.040  1.04834E+00  9.91250E-01  5.70880E-02
    9051.670     54.838   4.080  1.05598E+00  9.91296E-01  6.46803E-02
    9052.920     56.088   4.120  1.06126E+00  9.91409E-01  6.98525E-02
    9054.182     57.350   4.160  1.06495E+00  9.91570E-01  7.33759E-02
    9055.456     58.624   4.200  1.06791E+00  9.91774E-01  7.61385E-02
    9056.742     59.910   4.240  1.07069E+00  9.92044E-01  7.86485E-02
    9058.041     61.209   4.280  1.07318E+00  9.92357E-01  8.08262E-02
    9059.351     62.519   4.320  1.07487E+00  9.92688E-01  8.21808E-02
    9060.674     63.842   4.360  1.07506E+00  9.93082E-01  8.19738E-02
    9062.009     65.177   4.400  1.07316E+00  9.93514E-01  7.96411E-02
    9063.356     66.524   4.440  1.06913E+00  9.93983E-01  7.51473E-02
    9064.716     67.884   4.480  1.06348E+00  9.94464E-01  6.90178E-02
    9066.087     69.255   4.520  1.05712E+00  9.94977E-01  6.21388E-02
    9067.471     70.639   4.560  1.05089E+00  9.95500E-01  5.53871E-02
    9068.867     72.035   4.600  1.04535E+00  9.96054E-01  4.92973E-02
    9070.275     73.443   4.640  1.04056E+00  9.96636E-01  4.39211E-02
    9071.696     74.863   4.680  1.03620E+00  9.97200E-01  3.90019E-02
    9073.128     76.296   4.720  1.03189E+00  9.97789E-01  3.40978E-02
    9074.573     77.741   4.760  1.02706E+00  9.98380E-01  2.86779E-02
    9076.030     79.198   4.800  1.02126E+00  9.98971E-01  2.22942E-02
    9077.499     80.667   4.840  1.01433E+00  9.99559E-01  1.47760E-02
    9078.980     82.148   4.880  1.00647E+00  1.00014E+00  6.33203E-03
    9080.474     83.642   4.920  9.98083E-01  1.00070E+00 -2.61512E-03
    9081.980     85.147   4.960  9.89533E-01  1.00125E+00 -1.17141E-02
    9083.498     86.665   5.000  9.80992E-01  1.00179E+00 -2.07951E-02
    9085.028     88.195   5.040  9.72387E-01  1.00230E+00 -2.99106E-02
    9086.570     89.738   5.080  9.63590E-01  1.00280E+00 -3.92059E-02
    9088.124     91.292   5.120  9.54560E-01  1.00326E+00 -4.86987E-02
    9089.691     92.859   5.160  9.45625E-01  1.00369E+00 -5.80617E-02
    9091.270     94.438   5.200  9.37594E-01  1.00410E+00 -6.65078E-02
    9092.861     96.029   5.240  9.31449E-01  1.00448E+00 -7.30305E-02
    9094.464     97.632   5.280  9.28068E-01  1.00482E+00 -7.67491E-02
    9096.080     99.247   5.320  9.28034E-01  1.00511E+00 -7.70803E-02
    9097.707    100.875   5.360  9.31666E-01  1.00537E+00 -7.37048E-02
    9099.347    102.515   5.400  9.39036E-01  1.00559E+00 -6.65500E-02
    9100.999    104.167   5.440  9.49843E-01  1.00576E+00 -5.59163E-02
    9102.663    105.831   5.480  9.63216E-01  1.00589E+00 -4.26742E-02
    9104.340    107.507   5.520  9.77663E-01  1.00598E+00 -2.83147E-02
    9106.028    109.196   5.560  9.91387E-01  1.00600E+00 -1.46142E-02
    9107.729    110.897   5.600  1.00297E+00  1.00601E+00 -3.03684E-03
    9109.442    112.610   5.640  1.01156E+00  1.00597E+00  5.59137E-03
    9111.167    114.335   5.680  1.01690E+00  1.00586E+00  1.10310E-02
    9112.904    116.072   5.720  1.01916E+00  1.00574E+00  1.34180E-02
    9114.654    117.822   5.760  1.01872E+00  1.00556E+00  1.31617E-02
    9116.416    119.584   5.800  1.01636E+00  1.00533E+00  1.10292E-02
    9118.190    121.357   5.840  1.01343E+00  1.00509E+00  8.34803E-03
    9119.976    123.144   5.880  1.01155E+00  1.00478E+00  6.77261E-03
    9121.774    124.942   5.920  1.01193E+00  1.00444E+00  7.49394E-03
    9123.585    126.752   5.960  1.01458E+00  1.00406E+00  1.05181E-02
    9125.407    128.575   6.000  1.01832E+00  1.00364E+00  1.46755E-02
