# # comment:                                                     FEFF 9.9.1  
# # Source:
# # Structure
# # Reduced
# # space
# # abc:
# # angles:109.640332
# # sites:
# # POT  SCF 100  7.0000   0, screened core-hole, AFOLP (folp(0)= 1.150)
# # Abs   Z=29 Rmt= 1.265 Rnm= 1.346 K  shell
# # Pot 1 Z=29 Rmt= 1.264 Rnm= 1.345
# # Pot 2 Z=28 Rmt= 1.355 Rnm= 1.447
# # Pot 3 Z=52 Rmt= 1.293 Rnm= 1.440
# # Pot 4 Z= 8 Rmt= 1.032 Rnm= 1.093
# # Gam_ch=1.729E+00 H-L exch Vi= 0.000E+00 Vr= 0.000E+00
# # Mu=-7.457E+00eV kf=2.214E+00 Vint=-1.590E+01eV Rs_int= 1.638
# FMS rfms= 9.0000
# # PATH  Rmax=-1.000,  Keep_limit= 0.00, Heap_limit 0.00  Pwcrit= 2.50%
#  S02=0.950  Temp=   0.00  Debye_temp=   0.00  Global_sig2= 0.00000
#  Energy zero shift, vr, vi    0.00000E+00   0.00000E+00
#  Curved wave amplitude ratio filter   4.000%
#     file         sig2 tot  cw amp ratio   deg  nlegs   reff  inp sig2
#     0/   0 paths used
#  xsedge+ 50, used to normalize mu           2.4685E-04
#  -----------------------------------------------------------------------
#  omega    e    k    mu    mu0     chi     @#
    8983.515    -11.267  -1.000  3.42790E-02  5.11924E-02 -1.69135E-02
    8983.814    -10.968  -0.960  3.58664E-02  5.48393E-02 -1.89729E-02
    8984.101    -10.682  -0.920  3.75523E-02  5.88860E-02 -2.13337E-02
    8984.375    -10.407  -0.880  3.93454E-02  6.33910E-02 -2.40456E-02
    8984.637    -10.145  -0.840  4.12548E-02  6.84221E-02 -2.71673E-02
    8984.887     -9.895  -0.800  4.32910E-02  7.40580E-02 -3.07670E-02
    8985.125     -9.658  -0.760  4.54652E-02  8.03889E-02 -3.49237E-02
    8985.350     -9.432  -0.720  4.77892E-02  8.75166E-02 -3.97274E-02
    8985.564     -9.219  -0.680  5.02753E-02  9.55532E-02 -4.52780E-02
    8985.765     -9.018  -0.640  5.29351E-02  1.04617E-01 -5.16819E-02
    8985.954     -8.829  -0.600  5.57785E-02  1.14824E-01 -5.90452E-02
    8986.131     -8.652  -0.560  5.88115E-02  1.26272E-01 -6.74607E-02
    8986.295     -8.487  -0.520  6.20332E-02  1.39021E-01 -7.69876E-02
    8986.448     -8.335  -0.480  6.54316E-02  1.53056E-01 -8.76239E-02
    8986.588     -8.195  -0.440  6.89795E-02  1.68253E-01 -9.92740E-02
    8986.716     -8.067  -0.400  7.26301E-02  1.84351E-01 -1.11721E-01
    8986.832     -7.951  -0.360  7.63163E-02  2.00936E-01 -1.24620E-01
    8986.935     -7.847  -0.320  7.99528E-02  2.17470E-01 -1.37517E-01
    8987.027     -7.756  -0.280  8.34438E-02  2.33358E-01 -1.49914E-01
    8987.106     -7.676  -0.240  8.66915E-02  2.48025E-01 -1.61334E-01
    8987.173     -7.609  -0.200  8.96051E-02  2.60990E-01 -1.71385E-01
    8987.228     -7.555  -0.160  9.21052E-02  2.71900E-01 -1.79794E-01
    8987.271     -7.512  -0.120  9.41267E-02  2.80526E-01 -1.86399E-01
    8987.301     -7.481  -0.080  9.56192E-02  2.86742E-01 -1.91122E-01
    8987.325     -7.457   0.000  9.68688E-02  2.91736E-01 -1.94868E-01
    8987.380     -7.402   0.120  9.97722E-02  3.03009E-01 -2.03237E-01
    8987.423     -7.359   0.160  1.01997E-01  3.11775E-01 -2.09779E-01
    8987.478     -7.305   0.200  1.04901E-01  3.22962E-01 -2.18060E-01
    8987.545     -7.238   0.240  1.08544E-01  3.36442E-01 -2.27898E-01
    8987.624     -7.158   0.280  1.12962E-01  3.51938E-01 -2.38976E-01
    8987.716     -7.067   0.320  1.18264E-01  3.69087E-01 -2.50824E-01
    8987.819     -6.963   0.360  1.24486E-01  3.87374E-01 -2.62888E-01
    8987.935     -6.847   0.400  1.31775E-01  4.06312E-01 -2.74537E-01
    8988.063     -6.719   0.440  1.40179E-01  4.25418E-01 -2.85239E-01
    8988.203     -6.579   0.480  1.49727E-01  4.44334E-01 -2.94606E-01
    8988.356     -6.427   0.520  1.60224E-01  4.62810E-01 -3.02586E-01
    8988.520     -6.262   0.560  1.71293E-01  4.80745E-01 -3.09452E-01
    8988.697     -6.085   0.600  1.82401E-01  4.98128E-01 -3.15727E-01
    8988.886     -5.896   0.640  1.93098E-01  5.14969E-01 -3.21871E-01
    8989.087     -5.695   0.680  2.03435E-01  5.31374E-01 -3.27939E-01
    8989.301     -5.482   0.720  2.13923E-01  5.47397E-01 -3.33474E-01
    8989.526     -5.256   0.760  2.25390E-01  5.63154E-01 -3.37763E-01
    8989.764     -5.019   0.800  2.38885E-01  5.78668E-01 -3.39783E-01
    8990.014     -4.769   0.840  2.55390E-01  5.94015E-01 -3.38626E-01
    8990.276     -4.507   0.880  2.74026E-01  6.09236E-01 -3.35211E-01
    8990.550     -4.232   0.920  2.90367E-01  6.24381E-01 -3.34014E-01
    8990.837     -3.946   0.960  3.00094E-01  6.39424E-01 -3.39330E-01
    8991.135     -3.647   1.000  3.06159E-01  6.54415E-01 -3.48256E-01
    8991.446     -3.336   1.040  3.16791E-01  6.69356E-01 -3.52565E-01
    8991.769     -3.013   1.080  3.37518E-01  6.84198E-01 -3.46680E-01
    8992.105     -2.678   1.120  3.67378E-01  6.98969E-01 -3.31591E-01
    8992.452     -2.330   1.160  4.01544E-01  7.13610E-01 -3.12066E-01
    8992.812     -1.971   1.200  4.36854E-01  7.28140E-01 -2.91287E-01
    8993.184     -1.599   1.240  4.74243E-01  7.42494E-01 -2.68252E-01
    8993.568     -1.215   1.280  5.19407E-01  7.56647E-01 -2.37240E-01
    8993.964     -0.818   1.320  5.77098E-01  7.70609E-01 -1.93512E-01
    8994.372     -0.410   1.360  6.43200E-01  7.84311E-01 -1.41111E-01
    8994.793      0.011   1.400  7.05148E-01  7.97742E-01 -9.25933E-02
    8995.226      0.443   1.440  7.49365E-01  8.10872E-01 -6.15061E-02
    8995.671      0.888   1.480  7.82583E-01  8.23670E-01 -4.10871E-02
    8996.128      1.346   1.520  8.34833E-01  8.36106E-01 -1.27330E-03
    8996.597      1.815   1.560  9.19667E-01  8.48170E-01  7.14969E-02
    8997.079      2.297   1.600  1.02342E+00  8.59812E-01  1.63605E-01
    8997.573      2.790   1.640  1.12187E+00  8.71044E-01  2.50827E-01
    8998.079      3.296   1.680  1.19375E+00  8.81819E-01  3.11935E-01
    8998.597      3.814   1.720  1.24110E+00  8.92152E-01  3.48953E-01
    8999.127      4.345   1.760  1.29332E+00  9.01997E-01  3.91327E-01
    8999.670      4.887   1.800  1.35772E+00  9.11392E-01  4.46329E-01
    9000.225      5.442   1.840  1.39525E+00  9.20292E-01  4.74959E-01
    9000.791      6.009   1.880  1.38881E+00  9.28699E-01  4.60108E-01
    9001.371      6.588   1.920  1.34291E+00  9.36611E-01  4.06298E-01
    9001.962      7.179   1.960  1.26886E+00  9.44049E-01  3.24812E-01
    9002.565      7.783   2.000  1.20493E+00  9.50998E-01  2.53927E-01
    9003.181      8.399   2.040  1.17802E+00  9.57479E-01  2.20536E-01
    9003.809      9.027   2.080  1.17460E+00  9.63478E-01  2.11117E-01
    9004.449      9.667   2.120  1.16204E+00  9.69020E-01  1.93015E-01
    9005.101     10.319   2.160  1.13060E+00  9.74111E-01  1.56485E-01
    9005.766     10.983   2.200  1.09327E+00  9.78777E-01  1.14488E-01
    9006.442     11.660   2.240  1.05940E+00  9.83027E-01  7.63762E-02
    9007.131     12.349   2.280  1.03179E+00  9.86848E-01  4.49437E-02
    9007.832     13.050   2.320  1.01088E+00  9.90309E-01  2.05740E-02
    9008.546     13.763   2.360  9.98022E-01  9.93379E-01  4.64333E-03
    9009.271     14.489   2.400  9.94989E-01  9.96086E-01 -1.09677E-03
    9010.009     15.226   2.440  9.99395E-01  9.98479E-01  9.15723E-04
    9010.758     15.976   2.480  1.00759E+00  1.00053E+00  7.06351E-03
    9011.520     16.738   2.520  1.01668E+00  1.00228E+00  1.43965E-02
    9012.295     17.512   2.560  1.01917E+00  1.00377E+00  1.53914E-02
    9013.081     18.298   2.600  1.01010E+00  1.00499E+00  5.11355E-03
    9013.880     19.097   2.640  9.96453E-01  1.00596E+00 -9.50731E-03
    9014.690     19.908   2.680  9.84576E-01  1.00671E+00 -2.21373E-02
    9015.513     20.731   2.720  9.72871E-01  1.00724E+00 -3.43673E-02
    9016.348     21.566   2.760  9.61360E-01  1.00759E+00 -4.62253E-02
    9017.196     22.413   2.800  9.52603E-01  1.00776E+00 -5.51591E-02
    9018.055     23.273   2.840  9.48228E-01  1.00778E+00 -5.95487E-02
    9018.927     24.145   2.880  9.46945E-01  1.00764E+00 -6.06912E-02
    9019.811     25.028   2.920  9.45705E-01  1.00737E+00 -6.16658E-02
    9020.707     25.925   2.960  9.41819E-01  1.00701E+00 -6.51863E-02
    9021.615     26.833   3.000  9.34580E-01  1.00653E+00 -7.19477E-02
    9022.536     27.753   3.040  9.25289E-01  1.00596E+00 -8.06755E-02
    9023.468     28.686   3.080  9.15774E-01  1.00532E+00 -8.95482E-02
    9024.413     29.631   3.120  9.07362E-01  1.00463E+00 -9.72633E-02
    9025.370     30.588   3.160  9.00765E-01  1.00386E+00 -1.03097E-01
    9026.340     31.557   3.200  8.96632E-01  1.00308E+00 -1.06446E-01
    9027.321     32.539   3.240  8.95468E-01  1.00223E+00 -1.06766E-01
    9028.315     33.532   3.280  8.97579E-01  1.00140E+00 -1.03823E-01
    9029.321     34.538   3.320  9.03000E-01  1.00054E+00 -9.75403E-02
    9030.339     35.556   3.360  9.11573E-01  9.99675E-01 -8.81020E-02
    9031.369     36.586   3.400  9.22633E-01  9.98809E-01 -7.61763E-02
    9032.411     37.629   3.440  9.35043E-01  9.97947E-01 -6.29038E-02
    9033.466     38.683   3.480  9.47633E-01  9.97110E-01 -4.94772E-02
    9034.533     39.750   3.520  9.59325E-01  9.96282E-01 -3.69578E-02
    9035.612     40.829   3.560  9.69602E-01  9.95489E-01 -2.58871E-02
    9036.703     41.920   3.600  9.78665E-01  9.94729E-01 -1.60644E-02
    9037.806     43.024   3.640  9.87183E-01  9.93985E-01 -6.80159E-03
    9038.922     44.139   3.680  9.95894E-01  9.93300E-01  2.59437E-03
    9040.050     45.267   3.720  1.00510E+00  9.92655E-01  1.24475E-02
    9041.189     46.407   3.760  1.01455E+00  9.92030E-01  2.25224E-02
    9042.342     47.559   3.800  1.02345E+00  9.91468E-01  3.19794E-02
    9043.506     48.723   3.840  1.03062E+00  9.90949E-01  3.96677E-02
    9044.682     49.900   3.880  1.03504E+00  9.90495E-01  4.45496E-02
    9045.871     51.089   3.920  1.03607E+00  9.90066E-01  4.60076E-02
    9047.072     52.290   3.960  1.03379E+00  9.89701E-01  4.40852E-02
    9048.285     53.503   4.000  1.02894E+00  9.89381E-01  3.95548E-02
    9049.510     54.728   4.040  1.02270E+00  9.89129E-01  3.35661E-02
    9050.748     55.966   4.080  1.01621E+00  9.88922E-01  2.72853E-02
    9051.998     57.215   4.120  1.01044E+00  9.88757E-01  2.16780E-02
    9053.260     58.477   4.160  1.00614E+00  9.88635E-01  1.75083E-02
    9054.534     59.751   4.200  1.00385E+00  9.88558E-01  1.52938E-02
    9055.820     61.037   4.240  1.00386E+00  9.88546E-01  1.53171E-02
    9057.118     62.336   4.280  1.00621E+00  9.88577E-01  1.76312E-02
    9058.429     63.646   4.320  1.01071E+00  9.88651E-01  2.20604E-02
    9059.752     64.969   4.360  1.01691E+00  9.88767E-01  2.81422E-02
    9061.087     66.304   4.400  1.02406E+00  9.88945E-01  3.51121E-02
    9062.434     67.651   4.440  1.03115E+00  9.89139E-01  4.20088E-02
    9063.793     69.011   4.480  1.03719E+00  9.89370E-01  4.78232E-02
    9065.165     70.382   4.520  1.04134E+00  9.89636E-01  5.17071E-02
    9066.549     71.766   4.560  1.04305E+00  9.89917E-01  5.31302E-02
    9067.945     73.162   4.600  1.04219E+00  9.90254E-01  5.19326E-02
    9069.353     74.570   4.640  1.03895E+00  9.90601E-01  4.83473E-02
    9070.773     75.991   4.680  1.03396E+00  9.90958E-01  4.29981E-02
    9072.206     77.423   4.720  1.02815E+00  9.91346E-01  3.68046E-02
    9073.651     78.868   4.760  1.02260E+00  9.91762E-01  3.08370E-02
    9075.107     80.325   4.800  1.01821E+00  9.92185E-01  2.60249E-02
    9076.577     81.794   4.840  1.01539E+00  9.92610E-01  2.27799E-02
    9078.058     83.275   4.880  1.01389E+00  9.93037E-01  2.08481E-02
    9079.551     84.769   4.920  1.01287E+00  9.93464E-01  1.94088E-02
    9081.057     86.275   4.960  1.01128E+00  9.93892E-01  1.73847E-02
    9082.575     87.793   5.000  1.00814E+00  9.94342E-01  1.37999E-02
    9084.105     89.323   5.040  1.00276E+00  9.94767E-01  7.99648E-03
    9085.647     90.865   5.080  9.94910E-01  9.95188E-01 -2.77859E-04
    9087.202     92.419   5.120  9.84767E-01  9.95602E-01 -1.08351E-02
    9088.769     93.986   5.160  9.72893E-01  9.95986E-01 -2.30936E-02
    9090.347     95.565   5.200  9.60203E-01  9.96364E-01 -3.61618E-02
    9091.938     97.156   5.240  9.47660E-01  9.96734E-01 -4.90742E-02
    9093.542     98.759   5.280  9.36157E-01  9.97070E-01 -6.09134E-02
    9095.157    100.375   5.320  9.26535E-01  9.97372E-01 -7.08368E-02
    9096.785    102.002   5.360  9.19659E-01  9.97663E-01 -7.80032E-02
    9098.425    103.642   5.400  9.16129E-01  9.97920E-01 -8.17902E-02
    9100.077    105.294   5.440  9.16136E-01  9.98161E-01 -8.20251E-02
    9101.741    106.958   5.480  9.19327E-01  9.98345E-01 -7.90181E-02
    9103.417    108.635   5.520  9.25260E-01  9.98512E-01 -7.32525E-02
    9105.106    110.323   5.560  9.33528E-01  9.98642E-01 -6.51145E-02
    9106.807    112.024   5.600  9.44003E-01  9.98737E-01 -5.47341E-02
    9108.520    113.737   5.640  9.56636E-01  9.98815E-01 -4.21784E-02
    9110.245    115.462   5.680  9.71108E-01  9.98829E-01 -2.77218E-02
    9111.982    117.200   5.720  9.86826E-01  9.98805E-01 -1.19786E-02
    9113.732    118.949   5.760  1.00291E+00  9.98763E-01  4.14438E-03
    9115.493    120.711   5.800  1.01814E+00  9.98661E-01  1.94782E-02
    9117.267    122.485   5.840  1.03123E+00  9.98545E-01  3.26810E-02
    9119.053    124.271   5.880  1.04086E+00  9.98391E-01  4.24735E-02
    9120.852    126.069   5.920  1.04612E+00  9.98175E-01  4.79468E-02
    9122.662    127.880   5.960  1.04669E+00  9.97945E-01  4.87478E-02
    9124.485    129.702   6.000  1.04252E+00  9.97656E-01  4.48666E-02
