# # comment:                                                     FEFF 9.9.1  
# # Source:
# # Structure
# # Reduced
# # space
# # abc:
# # angles:
# # sites:
# # POT  SCF 100  7.0000   0, screened core-hole, AFOLP (folp(0)= 1.150)
# # Abs   Z=29 Rmt= 1.340 Rnm= 1.403 K  shell
# # Pot 1 Z= 3 Rmt= 1.272 Rnm= 1.335
# # Pot 2 Z=29 Rmt= 1.340 Rnm= 1.403
# # Pot 3 Z=15 Rmt= 0.947 Rnm= 1.158
# # Pot 4 Z= 8 Rmt= 0.941 Rnm= 1.041
# # Gam_ch=1.729E+00 H-L exch Vi= 0.000E+00 Vr= 0.000E+00
# # Mu=-6.114E+00eV kf=2.374E+00 Vint=-1.731E+01eV Rs_int= 1.528
# FMS rfms= 9.0000
# # PATH  Rmax=-1.000,  Keep_limit= 0.00, Heap_limit 0.00  Pwcrit= 2.50%
#  S02=0.950  Temp=   0.00  Debye_temp=   0.00  Global_sig2= 0.00000
#  Energy zero shift, vr, vi    0.00000E+00   0.00000E+00
#  Curved wave amplitude ratio filter   4.000%
#     file         sig2 tot  cw amp ratio   deg  nlegs   reff  inp sig2
#     0/   0 paths used
#  xsedge+ 50, used to normalize mu           2.4670E-04
#  -----------------------------------------------------------------------
#  omega    e    k    mu    mu0     chi     @#
    8983.632     -9.924  -1.000  5.29505E-02  5.52297E-02 -2.27922E-03
    8983.931     -9.625  -0.960  5.65810E-02  5.92898E-02 -2.70877E-03
    8984.218     -9.338  -0.920  6.05890E-02  6.38072E-02 -3.21817E-03
    8984.492     -9.064  -0.880  6.50274E-02  6.88501E-02 -3.82266E-03
    8984.754     -8.802  -0.840  6.99572E-02  7.44977E-02 -4.54054E-03
    8985.004     -8.552  -0.800  7.54485E-02  8.08422E-02 -5.39366E-03
    8985.242     -8.314  -0.760  8.15812E-02  8.79891E-02 -6.40789E-03
    8985.467     -8.089  -0.720  8.84447E-02  9.60582E-02 -7.61346E-03
    8985.681     -7.875  -0.680  9.61365E-02  1.05181E-01 -9.04470E-03
    8985.882     -7.674  -0.640  1.04758E-01  1.15497E-01 -1.07391E-02
    8986.071     -7.485  -0.600  1.14410E-01  1.27144E-01 -1.27344E-02
    8986.248     -7.308  -0.560  1.25175E-01  1.40239E-01 -1.50636E-02
    8986.412     -7.144  -0.520  1.37105E-01  1.54851E-01 -1.77465E-02
    8986.565     -6.991  -0.480  1.50190E-01  1.70968E-01 -2.07774E-02
    8986.705     -6.851  -0.440  1.64334E-01  1.88446E-01 -2.41117E-02
    8986.833     -6.723  -0.400  1.79324E-01  2.06979E-01 -2.76557E-02
    8986.949     -6.607  -0.360  1.94819E-01  2.26086E-01 -3.12665E-02
    8987.052     -6.504  -0.320  2.10370E-01  2.45139E-01 -3.47685E-02
    8987.144     -6.412  -0.280  2.25457E-01  2.63443E-01 -3.79862E-02
    8987.223     -6.333  -0.240  2.39553E-01  2.80332E-01 -4.07789E-02
    8987.290     -6.266  -0.200  2.52183E-01  2.95248E-01 -4.30659E-02
    8987.345     -6.211  -0.160  2.62959E-01  3.07788E-01 -4.48291E-02
    8987.388     -6.168  -0.120  2.71596E-01  3.17694E-01 -4.60982E-02
    8987.418     -6.138  -0.080  2.77898E-01  3.24826E-01 -4.69280E-02
    8987.442     -6.114   0.000  2.83041E-01  3.30553E-01 -4.75121E-02
    8987.497     -6.059   0.120  2.94485E-01  3.43460E-01 -4.89742E-02
    8987.540     -6.016   0.160  3.03502E-01  3.53464E-01 -4.99614E-02
    8987.595     -5.961   0.200  3.15235E-01  3.66246E-01 -5.10112E-02
    8987.662     -5.894   0.240  3.29667E-01  3.81597E-01 -5.19299E-02
    8987.741     -5.815   0.280  3.46694E-01  3.99170E-01 -5.24761E-02
    8987.833     -5.723   0.320  3.66102E-01  4.18512E-01 -5.24096E-02
    8987.936     -5.620   0.360  3.87470E-01  4.39017E-01 -5.15465E-02
    8988.052     -5.504   0.400  4.10192E-01  4.60085E-01 -4.98922E-02
    8988.180     -5.376   0.440  4.33311E-01  4.81111E-01 -4.78001E-02
    8988.320     -5.236   0.480  4.55626E-01  5.01682E-01 -4.60563E-02
    8988.473     -5.083   0.520  4.75551E-01  5.21499E-01 -4.59486E-02
    8988.637     -4.919   0.560  4.91402E-01  5.40417E-01 -4.90148E-02
    8988.814     -4.742   0.600  5.01952E-01  5.58447E-01 -5.64945E-02
    8989.003     -4.553   0.640  5.07083E-01  5.75634E-01 -6.85516E-02
    8989.204     -4.352   0.680  5.08253E-01  5.92064E-01 -8.38109E-02
    8989.418     -4.138   0.720  5.08168E-01  6.07858E-01 -9.96897E-02
    8989.643     -3.913   0.760  5.09830E-01  6.23137E-01 -1.13308E-01
    8989.881     -3.675   0.800  5.15587E-01  6.37975E-01 -1.22388E-01
    8990.131     -3.425   0.840  5.26421E-01  6.52447E-01 -1.26025E-01
    8990.393     -3.163   0.880  5.41589E-01  6.66657E-01 -1.25068E-01
    8990.667     -2.889   0.920  5.59488E-01  6.80655E-01 -1.21167E-01
    8990.954     -2.602   0.960  5.80033E-01  6.94476E-01 -1.14443E-01
    8991.252     -2.304   1.000  6.05949E-01  7.08126E-01 -1.02177E-01
    8991.563     -1.993   1.040  6.41562E-01  7.21657E-01 -8.00952E-02
    8991.886     -1.670   1.080  6.90025E-01  7.35057E-01 -4.50321E-02
    8992.222     -1.334   1.120  7.50946E-01  7.48347E-01  2.59926E-03
    8992.569     -0.987   1.160  8.18198E-01  7.61517E-01  5.66808E-02
    8992.929     -0.627   1.200  8.79291E-01  7.74538E-01  1.04754E-01
    8993.301     -0.255   1.240  9.21999E-01  7.87412E-01  1.34587E-01
    8993.685      0.129   1.280  9.46538E-01  8.00121E-01  1.46417E-01
    8994.081      0.525   1.320  9.63137E-01  8.12665E-01  1.50472E-01
    8994.489      0.933   1.360  9.76551E-01  8.24999E-01  1.51552E-01
    8994.910      1.354   1.400  9.86015E-01  8.37098E-01  1.48917E-01
    8995.343      1.787   1.440  9.94293E-01  8.48976E-01  1.45318E-01
    8995.788      2.232   1.480  1.00554E+00  8.60564E-01  1.44978E-01
    8996.245      2.689   1.520  1.02330E+00  8.71856E-01  1.51447E-01
    8996.714      3.158   1.560  1.04860E+00  8.82845E-01  1.65751E-01
    8997.196      3.640   1.600  1.07423E+00  8.93502E-01  1.80725E-01
    8997.690      4.134   1.640  1.08928E+00  9.03798E-01  1.85479E-01
    8998.196      4.640   1.680  1.08910E+00  9.13728E-01  1.75372E-01
    8998.714      5.158   1.720  1.08103E+00  9.23265E-01  1.57763E-01
    8999.244      5.688   1.760  1.07808E+00  9.32381E-01  1.45699E-01
    8999.787      6.231   1.800  1.08523E+00  9.41093E-01  1.44137E-01
    9000.342      6.786   1.840  1.09860E+00  9.49376E-01  1.49222E-01
    9000.908      7.352   1.880  1.11105E+00  9.57225E-01  1.53829E-01
    9001.488      7.932   1.920  1.11966E+00  9.64620E-01  1.55035E-01
    9002.079      8.523   1.960  1.12863E+00  9.71559E-01  1.57075E-01
    9002.682      9.126   2.000  1.14022E+00  9.78060E-01  1.62162E-01
    9003.298      9.742   2.040  1.15258E+00  9.84107E-01  1.68471E-01
    9003.926     10.370   2.080  1.16319E+00  9.89698E-01  1.73489E-01
    9004.566     11.010   2.120  1.16655E+00  9.94858E-01  1.71697E-01
    9005.218     11.662   2.160  1.15486E+00  9.99568E-01  1.55288E-01
    9005.883     12.327   2.200  1.12813E+00  1.00383E+00  1.24297E-01
    9006.559     13.003   2.240  1.09583E+00  1.00768E+00  8.81486E-02
    9007.248     13.692   2.280  1.06580E+00  1.01113E+00  5.46658E-02
    9007.949     14.393   2.320  1.03815E+00  1.01416E+00  2.39922E-02
    9008.663     15.107   2.360  1.01062E+00  1.01683E+00 -6.20979E-03
    9009.388     15.832   2.400  9.84314E-01  1.01910E+00 -3.47875E-02
    9010.126     16.570   2.440  9.62571E-01  1.02103E+00 -5.84618E-02
    9010.875     17.319   2.480  9.47367E-01  1.02261E+00 -7.52409E-02
    9011.637     18.081   2.520  9.38324E-01  1.02388E+00 -8.55523E-02
    9012.412     18.856   2.560  9.33242E-01  1.02483E+00 -9.15854E-02
    9013.198     19.642   2.600  9.29497E-01  1.02551E+00 -9.60138E-02
    9013.997     20.441   2.640  9.25109E-01  1.02589E+00 -1.00784E-01
    9014.807     21.251   2.680  9.19066E-01  1.02605E+00 -1.06982E-01
    9015.630     22.074   2.720  9.11410E-01  1.02596E+00 -1.14551E-01
    9016.465     22.909   2.760  9.05545E-01  1.02566E+00 -1.20119E-01
    9017.313     23.757   2.800  9.08396E-01  1.02517E+00 -1.16771E-01
    9018.172     24.616   2.840  9.17487E-01  1.02450E+00 -1.07011E-01
    9019.044     25.488   2.880  9.29565E-01  1.02366E+00 -9.40994E-02
    9019.928     26.372   2.920  9.42041E-01  1.02270E+00 -8.06565E-02
    9020.824     27.268   2.960  9.53398E-01  1.02158E+00 -6.81861E-02
    9021.732     28.176   3.000  9.63266E-01  1.02037E+00 -5.71069E-02
    9022.653     29.097   3.040  9.71680E-01  1.01907E+00 -4.73900E-02
    9023.585     30.029   3.080  9.78711E-01  1.01767E+00 -3.89558E-02
    9024.530     30.974   3.120  9.84435E-01  1.01621E+00 -3.17730E-02
    9025.487     31.931   3.160  9.88876E-01  1.01470E+00 -2.58265E-02
    9026.457     32.901   3.200  9.92209E-01  1.01316E+00 -2.09467E-02
    9027.438     33.882   3.240  9.94956E-01  1.01160E+00 -1.66404E-02
    9028.432     34.876   3.280  9.97540E-01  1.01001E+00 -1.24666E-02
    9029.438     35.882   3.320  1.00022E+00  1.00841E+00 -8.18834E-03
    9030.456     36.900   3.360  1.00318E+00  1.00682E+00 -3.64610E-03
    9031.486     37.930   3.400  1.00662E+00  1.00526E+00  1.36267E-03
    9032.528     38.972   3.440  1.01063E+00  1.00371E+00  6.92438E-03
    9033.583     40.027   3.480  1.01516E+00  1.00219E+00  1.29689E-02
    9034.650     41.094   3.520  1.02002E+00  1.00074E+00  1.92871E-02
    9035.729     42.173   3.560  1.02485E+00  9.99325E-01  2.55241E-02
    9036.820     43.264   3.600  1.02924E+00  9.97961E-01  3.12773E-02
    9037.923     44.367   3.640  1.03280E+00  9.96643E-01  3.61597E-02
    9039.039     45.483   3.680  1.03521E+00  9.95399E-01  3.98152E-02
    9040.167     46.611   3.720  1.03620E+00  9.94230E-01  4.19677E-02
    9041.306     47.750   3.760  1.03575E+00  9.93141E-01  4.26099E-02
    9042.459     48.903   3.800  1.03398E+00  9.92130E-01  4.18511E-02
    9043.623     50.067   3.840  1.03101E+00  9.91200E-01  3.98116E-02
    9044.799     51.243   3.880  1.02699E+00  9.90349E-01  3.66420E-02
    9045.988     52.432   3.920  1.02212E+00  9.89581E-01  3.25429E-02
    9047.189     53.633   3.960  1.01667E+00  9.88897E-01  2.77749E-02
    9048.402     54.846   4.000  1.01098E+00  9.88315E-01  2.26614E-02
    9049.627     56.071   4.040  1.00539E+00  9.87796E-01  1.75954E-02
    9050.865     57.309   4.080  1.00036E+00  9.87382E-01  1.29758E-02
    9052.115     58.559   4.120  9.96225E-01  9.87051E-01  9.17380E-03
    9053.377     59.821   4.160  9.93218E-01  9.86802E-01  6.41559E-03
    9054.651     61.095   4.200  9.91295E-01  9.86636E-01  4.65932E-03
    9055.937     62.381   4.240  9.90193E-01  9.86551E-01  3.64192E-03
    9057.235     63.679   4.280  9.89597E-01  9.86568E-01  3.02941E-03
    9058.546     64.990   4.320  9.89180E-01  9.86643E-01  2.53763E-03
    9059.869     66.313   4.360  9.88790E-01  9.86793E-01  1.99631E-03
    9061.204     67.648   4.400  9.88359E-01  9.87020E-01  1.33885E-03
    9062.551     68.995   4.440  9.87869E-01  9.87298E-01  5.70533E-04
    9063.910     70.354   4.480  9.87409E-01  9.87650E-01 -2.40977E-04
    9065.282     71.726   4.520  9.87087E-01  9.88074E-01 -9.87062E-04
    9066.666     73.110   4.560  9.86973E-01  9.88545E-01 -1.57151E-03
    9068.062     74.506   4.600  9.87125E-01  9.89061E-01 -1.93595E-03
    9069.470     75.914   4.640  9.87594E-01  9.89642E-01 -2.04796E-03
    9070.890     77.334   4.680  9.88375E-01  9.90242E-01 -1.86695E-03
    9072.323     78.767   4.720  9.89540E-01  9.90901E-01 -1.36148E-03
    9073.768     80.212   4.760  9.91049E-01  9.91575E-01 -5.25705E-04
    9075.224     81.668   4.800  9.92903E-01  9.92280E-01  6.22432E-04
    9076.694     83.138   4.840  9.95003E-01  9.92997E-01  2.00631E-03
    9078.175     84.619   4.880  9.97133E-01  9.93740E-01  3.39258E-03
    9079.668     86.112   4.920  9.98811E-01  9.94487E-01  4.32376E-03
    9081.174     87.618   4.960  9.99436E-01  9.95237E-01  4.19863E-03
    9082.692     89.136   5.000  9.98531E-01  9.95985E-01  2.54566E-03
    9084.222     90.666   5.040  9.96013E-01  9.96730E-01 -7.17598E-04
    9085.764     92.208   5.080  9.92278E-01  9.97470E-01 -5.19261E-03
    9087.319     93.763   5.120  9.88043E-01  9.98181E-01 -1.01378E-02
    9088.886     95.330   5.160  9.84124E-01  9.98879E-01 -1.47551E-02
    9090.464     96.908   5.200  9.81110E-01  9.99543E-01 -1.84335E-02
    9092.055     98.499   5.240  9.79312E-01  1.00017E+00 -2.08583E-02
    9093.659    100.103   5.280  9.78790E-01  1.00078E+00 -2.19906E-02
    9095.274    101.718   5.320  9.79328E-01  1.00133E+00 -2.19999E-02
    9096.902    103.346   5.360  9.80619E-01  1.00183E+00 -2.12111E-02
    9098.542    104.986   5.400  9.82307E-01  1.00229E+00 -1.99821E-02
    9100.194    106.638   5.440  9.84176E-01  1.00271E+00 -1.85291E-02
    9101.858    108.302   5.480  9.86286E-01  1.00307E+00 -1.67871E-02
    9103.534    109.978   5.520  9.88899E-01  1.00337E+00 -1.44716E-02
    9105.223    111.667   5.560  9.92292E-01  1.00359E+00 -1.13019E-02
    9106.924    113.368   5.600  9.96561E-01  1.00377E+00 -7.20813E-03
    9108.637    115.081   5.640  1.00148E+00  1.00390E+00 -2.41801E-03
    9110.362    116.806   5.680  1.00657E+00  1.00395E+00  2.61742E-03
    9112.099    118.543   5.720  1.01131E+00  1.00393E+00  7.38754E-03
    9113.849    120.293   5.760  1.01527E+00  1.00386E+00  1.14157E-02
    9115.610    122.054   5.800  1.01795E+00  1.00371E+00  1.42411E-02
    9117.384    123.828   5.840  1.01895E+00  1.00352E+00  1.54307E-02
    9119.170    125.614   5.880  1.01797E+00  1.00326E+00  1.47088E-02
    9120.969    127.413   5.920  1.01503E+00  1.00292E+00  1.21099E-02
    9122.779    129.223   5.960  1.01057E+00  1.00254E+00  8.03839E-03
    9124.602    131.046   6.000  1.00519E+00  1.00206E+00  3.13002E-03
