# # comment:                                                     FEFF 9.9.1  
# # Source:
# # Structure
# # Reduced
# # space
# # abc:
# # angles:107.580080
# # sites:
# # POT  SCF 100  7.0000   0, screened core-hole, AFOLP (folp(0)= 1.150)
# # Abs   Z=29 Rmt= 1.133 Rnm= 1.259 K  shell
# # Pot 1 Z=56 Rmt= 1.920 Rnm= 1.979
# # Pot 2 Z=38 Rmt= 1.791 Rnm= 1.855
# # Pot 3 Z=29 Rmt= 1.129 Rnm= 1.255
# # Pot 4 Z= 8 Rmt= 1.055 Rnm= 1.115
# # Gam_ch=1.729E+00 H-L exch Vi= 0.000E+00 Vr= 0.000E+00
# # Mu=-9.219E+00eV kf=2.025E+00 Vint=-1.650E+01eV Rs_int= 1.791
# FMS rfms= 9.0000
# # PATH  Rmax=-1.000,  Keep_limit= 0.00, Heap_limit 0.00  Pwcrit= 2.50%
#  S02=0.950  Temp=   0.00  Debye_temp=   0.00  Global_sig2= 0.00000
#  Energy zero shift, vr, vi    0.00000E+00   0.00000E+00
#  Curved wave amplitude ratio filter   4.000%
#     file         sig2 tot  cw amp ratio   deg  nlegs   reff  inp sig2
#     0/   0 paths used
#  xsedge+ 50, used to normalize mu           2.4490E-04
#  -----------------------------------------------------------------------
#  omega    e    k    mu    mu0     chi     @#
    8984.424    -13.029  -1.000  2.84343E-02  5.18602E-02 -2.34259E-02
    8984.723    -12.731  -0.960  2.95709E-02  5.55146E-02 -2.59437E-02
    8985.010    -12.444  -0.920  3.07720E-02  5.95634E-02 -2.87914E-02
    8985.284    -12.170  -0.880  3.20441E-02  6.40634E-02 -3.20194E-02
    8985.546    -11.908  -0.840  3.33945E-02  6.90807E-02 -3.56862E-02
    8985.796    -11.658  -0.800  3.48320E-02  7.46915E-02 -3.98596E-02
    8986.034    -11.420  -0.760  3.63663E-02  8.09832E-02 -4.46170E-02
    8986.259    -11.194  -0.720  3.80084E-02  8.80544E-02 -5.00459E-02
    8986.473    -10.981  -0.680  3.97704E-02  9.60131E-02 -5.62427E-02
    8986.674    -10.780  -0.640  4.16646E-02  1.04973E-01 -6.33088E-02
    8986.863    -10.591  -0.600  4.37023E-02  1.15047E-01 -7.13444E-02
    8987.039    -10.414  -0.560  4.58922E-02  1.26328E-01 -8.04356E-02
    8987.204    -10.250  -0.520  4.82366E-02  1.38872E-01 -9.06353E-02
    8987.356    -10.097  -0.480  5.07269E-02  1.52664E-01 -1.01937E-01
    8987.497     -9.957  -0.440  5.33393E-02  1.67584E-01 -1.14245E-01
    8987.625     -9.829  -0.400  5.60301E-02  1.83376E-01 -1.27346E-01
    8987.741     -9.713  -0.360  5.87363E-02  1.99638E-01 -1.40902E-01
    8987.844     -9.609  -0.320  6.13801E-02  2.15850E-01 -1.54470E-01
    8987.936     -9.518  -0.280  6.38800E-02  2.31430E-01 -1.67550E-01
    8988.015     -9.439  -0.240  6.61621E-02  2.45819E-01 -1.79657E-01
    8988.082     -9.372  -0.200  6.81672E-02  2.58547E-01 -1.90380E-01
    8988.137     -9.317  -0.160  6.98513E-02  2.69265E-01 -1.99413E-01
    8988.179     -9.274  -0.120  7.11816E-02  2.77746E-01 -2.06565E-01
    8988.210     -9.244  -0.080  7.21377E-02  2.83862E-01 -2.11725E-01
    8988.234     -9.219   0.000  7.29125E-02  2.88781E-01 -2.15869E-01
    8988.289     -9.164   0.120  7.51890E-02  2.99872E-01 -2.24683E-01
    8988.332     -9.122   0.160  7.68196E-02  3.08515E-01 -2.31695E-01
    8988.387     -9.067   0.200  7.88739E-02  3.19567E-01 -2.40693E-01
    8988.454     -9.000   0.240  8.13351E-02  3.32919E-01 -2.51584E-01
    8988.533     -8.921   0.280  8.41406E-02  3.48292E-01 -2.64151E-01
    8988.624     -8.829   0.320  8.72934E-02  3.65353E-01 -2.78060E-01
    8988.728     -8.726   0.360  9.07828E-02  3.83640E-01 -2.92857E-01
    8988.844     -8.610   0.400  9.46453E-02  4.02697E-01 -3.08051E-01
    8988.972     -8.482   0.440  9.88776E-02  4.22070E-01 -3.23192E-01
    8989.112     -8.342   0.480  1.03385E-01  4.41402E-01 -3.38016E-01
    8989.265     -8.189   0.520  1.07996E-01  4.60458E-01 -3.52462E-01
    8989.429     -8.025   0.560  1.12487E-01  4.79179E-01 -3.66692E-01
    8989.606     -7.848   0.600  1.16470E-01  4.97495E-01 -3.81025E-01
    8989.795     -7.659   0.640  1.19752E-01  5.15450E-01 -3.95698E-01
    8989.996     -7.458   0.680  1.22431E-01  5.33100E-01 -4.10670E-01
    8990.209     -7.244   0.720  1.25014E-01  5.50512E-01 -4.25498E-01
    8990.435     -7.019   0.760  1.28288E-01  5.67790E-01 -4.39502E-01
    8990.673     -6.781   0.800  1.33071E-01  5.84927E-01 -4.51856E-01
    8990.923     -6.531   0.840  1.40070E-01  6.02007E-01 -4.61937E-01
    8991.185     -6.269   0.880  1.49724E-01  6.19040E-01 -4.69316E-01
    8991.459     -5.995   0.920  1.62149E-01  6.36043E-01 -4.73895E-01
    8991.746     -5.708   0.960  1.77055E-01  6.53025E-01 -4.75970E-01
    8992.044     -5.409   1.000  1.93717E-01  6.69962E-01 -4.76246E-01
    8992.355     -5.098   1.040  2.11261E-01  6.86845E-01 -4.75584E-01
    8992.678     -4.775   1.080  2.29357E-01  7.03635E-01 -4.74278E-01
    8993.014     -4.440   1.120  2.48978E-01  7.20331E-01 -4.71353E-01
    8993.361     -4.093   1.160  2.72244E-01  7.36864E-01 -4.64620E-01
    8993.721     -3.733   1.200  3.00611E-01  7.53204E-01 -4.52593E-01
    8994.093     -3.361   1.240  3.33375E-01  7.69318E-01 -4.35943E-01
    8994.477     -2.977   1.280  3.68670E-01  7.85152E-01 -4.16482E-01
    8994.873     -2.581   1.320  4.05827E-01  8.00690E-01 -3.94863E-01
    8995.281     -2.172   1.360  4.43878E-01  8.15873E-01 -3.71995E-01
    8995.702     -1.752   1.400  4.78233E-01  8.30648E-01 -3.52415E-01
    8996.135     -1.319   1.440  5.04622E-01  8.44976E-01 -3.40354E-01
    8996.580     -0.874   1.480  5.24880E-01  8.58864E-01 -3.33984E-01
    8997.037     -0.417   1.520  5.47217E-01  8.72238E-01 -3.25021E-01
    8997.506      0.053   1.560  5.81433E-01  8.85064E-01 -3.03631E-01
    8997.988      0.534   1.600  6.28928E-01  8.97352E-01 -2.68424E-01
    8998.482      1.028   1.640  6.86863E-01  9.09053E-01 -2.22190E-01
    8998.988      1.534   1.680  7.54674E-01  9.20180E-01 -1.65506E-01
    8999.506      2.052   1.720  8.24675E-01  9.30688E-01 -1.06013E-01
    9000.036      2.582   1.760  8.95468E-01  9.40574E-01 -4.51063E-02
    9000.579      3.125   1.800  9.83390E-01  9.49856E-01  3.35332E-02
    9001.133      3.680   1.840  1.09770E+00  9.58515E-01  1.39186E-01
    9001.700      4.247   1.880  1.21222E+00  9.66552E-01  2.45669E-01
    9002.279      4.826   1.920  1.27992E+00  9.73992E-01  3.05928E-01
    9002.871      5.417   1.960  1.28840E+00  9.80820E-01  3.07581E-01
    9003.474      6.021   2.000  1.26044E+00  9.87063E-01  2.73380E-01
    9004.090      6.636   2.040  1.21981E+00  9.92728E-01  2.27081E-01
    9004.718      7.264   2.080  1.18169E+00  9.97845E-01  1.83842E-01
    9005.358      7.904   2.120  1.15324E+00  1.00240E+00  1.50839E-01
    9006.010      8.557   2.160  1.13939E+00  1.00648E+00  1.32909E-01
    9006.675      9.221   2.200  1.14392E+00  1.01003E+00  1.33887E-01
    9007.351      9.898   2.240  1.16620E+00  1.01313E+00  1.53073E-01
    9008.040     10.586   2.280  1.20168E+00  1.01579E+00  1.85883E-01
    9008.741     11.288   2.320  1.24549E+00  1.01802E+00  2.27474E-01
    9009.454     12.001   2.360  1.29194E+00  1.01984E+00  2.72094E-01
    9010.180     12.726   2.400  1.33439E+00  1.02131E+00  3.13075E-01
    9010.917     13.464   2.440  1.35533E+00  1.02243E+00  3.32903E-01
    9011.667     14.214   2.480  1.34401E+00  1.02324E+00  3.20774E-01
    9012.429     14.976   2.520  1.31397E+00  1.02373E+00  2.90241E-01
    9013.203     15.750   2.560  1.27470E+00  1.02397E+00  2.50739E-01
    9013.990     16.536   2.600  1.23209E+00  1.02395E+00  2.08139E-01
    9014.788     17.335   2.640  1.19153E+00  1.02373E+00  1.67798E-01
    9015.599     18.145   2.680  1.15480E+00  1.02330E+00  1.31501E-01
    9016.422     18.968   2.720  1.12242E+00  1.02267E+00  9.97482E-02
    9017.257     19.804   2.760  1.09422E+00  1.02190E+00  7.23219E-02
    9018.105     20.651   2.800  1.06984E+00  1.02098E+00  4.88690E-02
    9018.964     21.510   2.840  1.04942E+00  1.01993E+00  2.94912E-02
    9019.836     22.382   2.880  1.03299E+00  1.01878E+00  1.42051E-02
    9020.720     23.266   2.920  1.01970E+00  1.01753E+00  2.16211E-03
    9021.616     24.162   2.960  1.00842E+00  1.01623E+00 -7.80474E-03
    9022.524     25.071   3.000  9.97636E-01  1.01487E+00 -1.72340E-02
    9023.445     25.991   3.040  9.85970E-01  1.01345E+00 -2.74801E-02
    9024.377     26.924   3.080  9.72861E-01  1.01201E+00 -3.91520E-02
    9025.322     27.869   3.120  9.58829E-01  1.01057E+00 -5.17390E-02
    9026.279     28.826   3.160  9.44668E-01  1.00910E+00 -6.44305E-02
    9027.249     29.795   3.200  9.30988E-01  1.00765E+00 -7.66626E-02
    9028.230     30.776   3.240  9.18118E-01  1.00621E+00 -8.80914E-02
    9029.224     31.770   3.280  9.05993E-01  1.00480E+00 -9.88044E-02
    9030.229     32.776   3.320  8.94531E-01  1.00340E+00 -1.08868E-01
    9031.248     33.794   3.360  8.83959E-01  1.00204E+00 -1.18080E-01
    9032.278     34.824   3.400  8.74705E-01  1.00074E+00 -1.26039E-01
    9033.320     35.866   3.440  8.67031E-01  9.99494E-01 -1.32463E-01
    9034.375     36.921   3.480  8.61244E-01  9.98291E-01 -1.37047E-01
    9035.442     37.988   3.520  8.57663E-01  9.97157E-01 -1.39494E-01
    9036.521     39.067   3.560  8.56355E-01  9.96075E-01 -1.39721E-01
    9037.612     40.158   3.600  8.57391E-01  9.95069E-01 -1.37678E-01
    9038.715     41.261   3.640  8.60833E-01  9.94139E-01 -1.33307E-01
    9039.831     42.377   3.680  8.66765E-01  9.93289E-01 -1.26524E-01
    9040.958     43.505   3.720  8.74998E-01  9.92516E-01 -1.17518E-01
    9042.098     44.645   3.760  8.85359E-01  9.91823E-01 -1.06464E-01
    9043.250     45.797   3.800  8.97430E-01  9.91188E-01 -9.37578E-02
    9044.415     46.961   3.840  9.10512E-01  9.90654E-01 -8.01423E-02
    9045.591     48.138   3.880  9.23667E-01  9.90201E-01 -6.65346E-02
    9046.780     49.326   3.920  9.36184E-01  9.89808E-01 -5.36239E-02
    9047.981     50.527   3.960  9.47803E-01  9.89516E-01 -4.17130E-02
    9049.194     51.740   4.000  9.58635E-01  9.89307E-01 -3.06719E-02
    9050.419     52.966   4.040  9.69129E-01  9.89177E-01 -2.00477E-02
    9051.657     54.203   4.080  9.79720E-01  9.89104E-01 -9.38365E-03
    9052.907     55.453   4.120  9.90596E-01  9.89129E-01  1.46680E-03
    9054.168     56.715   4.160  1.00159E+00  9.89211E-01  1.23751E-02
    9055.442     57.989   4.200  1.01230E+00  9.89368E-01  2.29313E-02
    9056.729     59.275   4.240  1.02217E+00  9.89600E-01  3.25700E-02
    9058.027     60.573   4.280  1.03068E+00  9.89886E-01  4.07924E-02
    9059.338     61.884   4.320  1.03752E+00  9.90244E-01  4.72725E-02
    9060.661     63.207   4.360  1.04252E+00  9.90673E-01  5.18473E-02
    9061.996     64.542   4.400  1.04565E+00  9.91150E-01  5.45017E-02
    9063.343     65.889   4.440  1.04723E+00  9.91670E-01  5.55640E-02
    9064.702     67.249   4.480  1.04782E+00  9.92235E-01  5.55862E-02
    9066.074     68.620   4.520  1.04813E+00  9.92864E-01  5.52674E-02
    9067.458     70.004   4.560  1.04877E+00  9.93513E-01  5.52562E-02
    9068.854     71.400   4.600  1.05016E+00  9.94222E-01  5.59332E-02
    9070.262     72.808   4.640  1.05228E+00  9.94947E-01  5.73361E-02
    9071.682     74.228   4.680  1.05502E+00  9.95705E-01  5.93106E-02
    9073.115     75.661   4.720  1.05816E+00  9.96495E-01  6.16639E-02
    9074.559     77.106   4.760  1.06150E+00  9.97295E-01  6.42041E-02
    9076.016     78.563   4.800  1.06479E+00  9.98100E-01  6.66876E-02
    9077.485     80.032   4.840  1.06765E+00  9.98931E-01  6.87164E-02
    9078.967     81.513   4.880  1.06943E+00  9.99766E-01  6.96596E-02
    9080.460     83.007   4.920  1.06937E+00  1.00060E+00  6.87743E-02
    9081.966     84.512   4.960  1.06694E+00  1.00143E+00  6.55081E-02
    9083.484     86.030   5.000  1.06208E+00  1.00224E+00  5.98431E-02
    9085.014     87.560   5.040  1.05548E+00  1.00306E+00  5.24241E-02
    9086.556     89.103   5.080  1.04809E+00  1.00385E+00  4.42428E-02
    9088.111     90.657   5.120  1.04086E+00  1.00461E+00  3.62542E-02
    9089.677     92.224   5.160  1.03445E+00  1.00535E+00  2.90913E-02
    9091.256     93.803   5.200  1.02903E+00  1.00607E+00  2.29638E-02
    9092.847     95.394   5.240  1.02440E+00  1.00674E+00  1.76598E-02
    9094.451     96.997   5.280  1.02001E+00  1.00740E+00  1.26102E-02
    9096.066     98.612   5.320  1.01515E+00  1.00802E+00  7.13143E-03
    9097.694    100.240   5.360  1.00932E+00  1.00857E+00  7.48698E-04
    9099.333    101.880   5.400  1.00255E+00  1.00911E+00 -6.55789E-03
    9100.985    103.532   5.440  9.95211E-01  1.00957E+00 -1.43602E-02
    9102.650    105.196   5.480  9.88036E-01  1.00999E+00 -2.19562E-02
    9104.326    106.872   5.520  9.81781E-01  1.01037E+00 -2.85855E-02
    9106.015    108.561   5.560  9.76959E-01  1.01067E+00 -3.37122E-02
    9107.715    110.262   5.600  9.73709E-01  1.01093E+00 -3.72192E-02
    9109.428    111.975   5.640  9.71658E-01  1.01114E+00 -3.94794E-02
    9111.154    113.700   5.680  9.70081E-01  1.01128E+00 -4.11948E-02
    9112.891    115.437   5.720  9.68156E-01  1.01137E+00 -4.32091E-02
    9114.640    117.187   5.760  9.65298E-01  1.01138E+00 -4.60855E-02
    9116.402    118.949   5.800  9.61584E-01  1.01136E+00 -4.97708E-02
    9118.176    120.722   5.840  9.57680E-01  1.01128E+00 -5.35976E-02
    9119.962    122.509   5.880  9.54451E-01  1.01111E+00 -5.66541E-02
    9121.761    124.307   5.920  9.52683E-01  1.01091E+00 -5.82268E-02
    9123.571    126.117   5.960  9.52709E-01  1.01064E+00 -5.79289E-02
    9125.394    127.940   6.000  9.54990E-01  1.01028E+00 -5.52864E-02
