# # comment:                                                     FEFF 9.9.1  
# # Source:
# # Structure
# # Reduced
# # space
# # abc:
# # angles:108.383439
# # sites:
# # POT  SCF 100  7.0000   0, screened core-hole, AFOLP (folp(0)= 1.150)
# # Abs   Z=29 Rmt= 1.234 Rnm= 1.298 K  shell
# # Pot 1 Z= 3 Rmt= 1.265 Rnm= 1.328
# # Pot 2 Z=22 Rmt= 1.241 Rnm= 1.388
# # Pot 3 Z=29 Rmt= 1.234 Rnm= 1.298
# # Pot 4 Z= 8 Rmt= 1.064 Rnm= 1.122
# # Gam_ch=1.729E+00 H-L exch Vi= 0.000E+00 Vr= 0.000E+00
# # Mu=-1.002E+01eV kf=2.119E+00 Vint=-1.714E+01eV Rs_int= 1.711
# FMS rfms= 9.0000
# # PATH  Rmax=-1.000,  Keep_limit= 0.00, Heap_limit 0.00  Pwcrit= 2.50%
#  S02=0.950  Temp=   0.00  Debye_temp=   0.00  Global_sig2= 0.00000
#  Energy zero shift, vr, vi    0.00000E+00   0.00000E+00
#  Curved wave amplitude ratio filter   4.000%
#     file         sig2 tot  cw amp ratio   deg  nlegs   reff  inp sig2
#     0/   0 paths used
#  xsedge+ 50, used to normalize mu           2.4590E-04
#  -----------------------------------------------------------------------
#  omega    e    k    mu    mu0     chi     @#
    8984.571    -13.828  -1.000  2.86358E-02  4.97972E-02 -2.11615E-02
    8984.870    -13.529  -0.960  2.97658E-02  5.32671E-02 -2.35013E-02
    8985.156    -13.243  -0.920  3.09563E-02  5.71089E-02 -2.61527E-02
    8985.431    -12.968  -0.880  3.22129E-02  6.13761E-02 -2.91632E-02
    8985.693    -12.706  -0.840  3.35421E-02  6.61307E-02 -3.25886E-02
    8985.943    -12.456  -0.800  3.49513E-02  7.14443E-02 -3.64930E-02
    8986.181    -12.219  -0.760  3.64489E-02  7.73992E-02 -4.09503E-02
    8986.406    -11.993  -0.720  3.80439E-02  8.40877E-02 -4.60438E-02
    8986.620    -11.780  -0.680  3.97461E-02  9.16116E-02 -5.18654E-02
    8986.821    -11.579  -0.640  4.15655E-02  1.00078E-01 -5.85122E-02
    8987.010    -11.390  -0.600  4.35111E-02  1.09591E-01 -6.60796E-02
    8987.186    -11.213  -0.560  4.55895E-02  1.20239E-01 -7.46498E-02
    8987.351    -11.048  -0.520  4.78029E-02  1.32075E-01 -8.42725E-02
    8987.503    -10.896  -0.480  5.01456E-02  1.45084E-01 -9.49389E-02
    8987.644    -10.756  -0.440  5.26009E-02  1.59153E-01 -1.06552E-01
    8987.772    -10.628  -0.400  5.51379E-02  1.74041E-01 -1.18903E-01
    8987.887    -10.512  -0.360  5.77103E-02  1.89369E-01 -1.31659E-01
    8987.991    -10.408  -0.320  6.02583E-02  2.04648E-01 -1.44390E-01
    8988.083    -10.317  -0.280  6.27134E-02  2.19332E-01 -1.56619E-01
    8988.162    -10.237  -0.240  6.50054E-02  2.32895E-01 -1.67889E-01
    8988.229    -10.170  -0.200  6.70686E-02  2.44891E-01 -1.77823E-01
    8988.284    -10.116  -0.160  6.88455E-02  2.54994E-01 -1.86148E-01
    8988.326    -10.073  -0.120  7.02897E-02  2.62989E-01 -1.92699E-01
    8988.357    -10.042  -0.080  7.13652E-02  2.68755E-01 -1.97389E-01
    8988.381    -10.018   0.000  7.22859E-02  2.73391E-01 -2.01105E-01
    8988.436     -9.963   0.120  7.43738E-02  2.83866E-01 -2.09492E-01
    8988.479     -9.920   0.160  7.59571E-02  2.92024E-01 -2.16067E-01
    8988.534     -9.866   0.200  7.79718E-02  3.02448E-01 -2.24476E-01
    8988.601     -9.799   0.240  8.04953E-02  3.15039E-01 -2.34544E-01
    8988.680     -9.719   0.280  8.35005E-02  3.29556E-01 -2.46055E-01
    8988.771     -9.628   0.320  8.69983E-02  3.45667E-01 -2.58668E-01
    8988.875     -9.524   0.360  9.09697E-02  3.62958E-01 -2.71988E-01
    8988.991     -9.408   0.400  9.53610E-02  3.80986E-01 -2.85625E-01
    8989.119     -9.280   0.440  1.00064E-01  3.99346E-01 -2.99283E-01
    8989.259     -9.140   0.480  1.04818E-01  4.17682E-01 -3.12863E-01
    8989.411     -8.988   0.520  1.09440E-01  4.35813E-01 -3.26373E-01
    8989.576     -8.823   0.560  1.13806E-01  4.53627E-01 -3.39821E-01
    8989.753     -8.646   0.600  1.17916E-01  4.71093E-01 -3.53177E-01
    8989.942     -8.457   0.640  1.21868E-01  4.88256E-01 -3.66388E-01
    8990.143     -8.256   0.680  1.25652E-01  5.05189E-01 -3.79537E-01
    8990.356     -8.043   0.720  1.29089E-01  5.21909E-01 -3.92821E-01
    8990.582     -7.817   0.760  1.32411E-01  5.38539E-01 -4.06128E-01
    8990.820     -7.580   0.800  1.36230E-01  5.55088E-01 -4.18858E-01
    8991.070     -7.330   0.840  1.41337E-01  5.71594E-01 -4.30257E-01
    8991.332     -7.068   0.880  1.47731E-01  5.88107E-01 -4.40376E-01
    8991.606     -6.793   0.920  1.54557E-01  6.04620E-01 -4.50063E-01
    8991.893     -6.507   0.960  1.61466E-01  6.21140E-01 -4.59674E-01
    8992.191     -6.208   1.000  1.69745E-01  6.37686E-01 -4.67941E-01
    8992.502     -5.897   1.040  1.81070E-01  6.54205E-01 -4.73135E-01
    8992.825     -5.574   1.080  1.95703E-01  6.70680E-01 -4.74977E-01
    8993.160     -5.239   1.120  2.12387E-01  6.87089E-01 -4.74702E-01
    8993.508     -4.891   1.160  2.30402E-01  7.03385E-01 -4.72983E-01
    8993.868     -4.532   1.200  2.50217E-01  7.19557E-01 -4.69340E-01
    8994.239     -4.160   1.240  2.72278E-01  7.35554E-01 -4.63276E-01
    8994.624     -3.776   1.280  2.97090E-01  7.51320E-01 -4.54230E-01
    8995.020     -3.379   1.320  3.26046E-01  7.66840E-01 -4.40795E-01
    8995.428     -2.971   1.360  3.60332E-01  7.82060E-01 -4.21728E-01
    8995.849     -2.550   1.400  3.99985E-01  7.96919E-01 -3.96934E-01
    8996.282     -2.118   1.440  4.44292E-01  8.11425E-01 -3.67133E-01
    8996.727     -1.673   1.480  4.91465E-01  8.25501E-01 -3.34036E-01
    8997.184     -1.215   1.520  5.40849E-01  8.39134E-01 -2.98284E-01
    8997.653     -0.746   1.560  5.95324E-01  8.52289E-01 -2.56965E-01
    8998.135     -0.264   1.600  6.61003E-01  8.64957E-01 -2.03955E-01
    8998.629      0.229   1.640  7.44399E-01  8.77088E-01 -1.32689E-01
    8999.135      0.735   1.680  8.48998E-01  8.88690E-01 -3.96920E-02
    8999.653      1.253   1.720  9.73084E-01  8.99719E-01  7.33653E-02
    9000.183      1.784   1.760  1.10937E+00  9.10170E-01  1.99202E-01
    9000.726      2.326   1.800  1.24748E+00  9.20061E-01  3.27421E-01
    9001.280      2.881   1.840  1.36821E+00  9.29370E-01  4.38841E-01
    9001.847      3.448   1.880  1.47196E+00  9.38097E-01  5.33863E-01
    9002.426      4.027   1.920  1.57758E+00  9.46245E-01  6.31337E-01
    9003.018      4.618   1.960  1.68689E+00  9.53816E-01  7.33078E-01
    9003.621      5.222   2.000  1.78107E+00  9.60818E-01  8.20253E-01
    9004.237      5.838   2.040  1.82469E+00  9.67294E-01  8.57399E-01
    9004.865      6.466   2.080  1.78548E+00  9.73212E-01  8.12271E-01
    9005.505      7.106   2.120  1.67114E+00  9.78602E-01  6.92534E-01
    9006.157      7.758   2.160  1.52389E+00  9.83513E-01  5.40373E-01
    9006.822      8.422   2.200  1.38110E+00  9.87913E-01  3.93183E-01
    9007.498      9.099   2.240  1.25454E+00  9.91855E-01  2.62685E-01
    9008.187      9.788   2.280  1.14475E+00  9.95369E-01  1.49386E-01
    9008.888     10.489   2.320  1.05449E+00  9.98445E-01  5.60498E-02
    9009.601     11.202   2.360  9.85744E-01  1.00114E+00 -1.53936E-02
    9010.327     11.928   2.400  9.39986E-01  1.00344E+00 -6.34512E-02
    9011.064     12.665   2.440  9.16099E-01  1.00540E+00 -8.92967E-02
    9011.814     13.415   2.480  9.10550E-01  1.00702E+00 -9.64744E-02
    9012.576     14.177   2.520  9.18180E-01  1.00836E+00 -9.01771E-02
    9013.350     14.951   2.560  9.34031E-01  1.00940E+00 -7.53732E-02
    9014.137     15.737   2.600  9.49915E-01  1.01017E+00 -6.02587E-02
    9014.935     16.536   2.640  9.63887E-01  1.01070E+00 -4.68139E-02
    9015.746     17.347   2.680  9.73377E-01  1.01104E+00 -3.76586E-02
    9016.569     18.170   2.720  9.76969E-01  1.01115E+00 -3.41768E-02
    9017.404     19.005   2.760  9.75524E-01  1.01109E+00 -3.55609E-02
    9018.252     19.852   2.800  9.70616E-01  1.01086E+00 -4.02458E-02
    9019.111     20.712   2.840  9.63431E-01  1.01050E+00 -4.70737E-02
    9019.983     21.584   2.880  9.53928E-01  1.01002E+00 -5.60961E-02
    9020.867     22.467   2.920  9.41176E-01  1.00943E+00 -6.82502E-02
    9021.763     23.364   2.960  9.24573E-01  1.00874E+00 -8.41681E-02
    9022.671     24.272   3.000  9.04480E-01  1.00797E+00 -1.03494E-01
    9023.592     25.192   3.040  8.82309E-01  1.00715E+00 -1.24844E-01
    9024.524     26.125   3.080  8.60503E-01  1.00627E+00 -1.45762E-01
    9025.469     27.070   3.120  8.41182E-01  1.00536E+00 -1.64175E-01
    9026.426     28.027   3.160  8.25518E-01  1.00441E+00 -1.78894E-01
    9027.395     28.996   3.200  8.14218E-01  1.00344E+00 -1.89219E-01
    9028.377     29.978   3.240  8.07498E-01  1.00246E+00 -1.94958E-01
    9029.371     30.971   3.280  8.04974E-01  1.00150E+00 -1.96522E-01
    9030.376     31.977   3.320  8.06214E-01  1.00052E+00 -1.94304E-01
    9031.394     32.995   3.360  8.11035E-01  9.99568E-01 -1.88533E-01
    9032.425     34.025   3.400  8.19028E-01  9.98651E-01 -1.79623E-01
    9033.467     35.068   3.440  8.30025E-01  9.97767E-01 -1.67741E-01
    9034.522     36.122   3.480  8.44231E-01  9.96899E-01 -1.52668E-01
    9035.588     37.189   3.520  8.61994E-01  9.96069E-01 -1.34075E-01
    9036.667     38.268   3.560  8.83434E-01  9.95302E-01 -1.11868E-01
    9037.759     39.359   3.600  9.08385E-01  9.94557E-01 -8.61725E-02
    9038.862     40.463   3.640  9.36285E-01  9.93879E-01 -5.75938E-02
    9039.978     41.578   3.680  9.66126E-01  9.93267E-01 -2.71403E-02
    9041.105     42.706   3.720  9.96761E-01  9.92681E-01  4.08042E-03
    9042.245     43.846   3.760  1.02720E+00  9.92186E-01  3.50101E-02
    9043.397     44.998   3.800  1.05622E+00  9.91719E-01  6.45000E-02
    9044.562     46.163   3.840  1.08285E+00  9.91320E-01  9.15294E-02
    9045.738     47.339   3.880  1.10645E+00  9.90993E-01  1.15454E-01
    9046.927     48.528   3.920  1.12661E+00  9.90716E-01  1.35894E-01
    9048.128     49.729   3.960  1.14306E+00  9.90509E-01  1.52548E-01
    9049.341     50.942   4.000  1.15558E+00  9.90352E-01  1.65223E-01
    9050.566     52.167   4.040  1.16373E+00  9.90265E-01  1.73462E-01
    9051.804     53.405   4.080  1.16670E+00  9.90226E-01  1.76472E-01
    9053.053     54.654   4.120  1.16371E+00  9.90255E-01  1.73457E-01
    9054.315     55.916   4.160  1.15453E+00  9.90309E-01  1.64216E-01
    9055.589     57.190   4.200  1.13983E+00  9.90452E-01  1.49377E-01
    9056.876     58.476   4.240  1.12101E+00  9.90618E-01  1.30395E-01
    9058.174     59.775   4.280  1.09997E+00  9.90849E-01  1.09120E-01
    9059.485     61.085   4.320  1.07836E+00  9.91124E-01  8.72340E-02
    9060.808     62.408   4.360  1.05741E+00  9.91439E-01  6.59744E-02
    9062.143     63.743   4.400  1.03797E+00  9.91791E-01  4.61743E-02
    9063.490     65.091   4.440  1.02057E+00  9.92159E-01  2.84066E-02
    9064.849     66.450   4.480  1.00563E+00  9.92585E-01  1.30450E-02
    9066.221     67.821   4.520  9.93356E-01  9.93026E-01  3.30249E-04
    9067.605     69.205   4.560  9.83758E-01  9.93501E-01 -9.74324E-03
    9069.001     70.601   4.600  9.76580E-01  9.94009E-01 -1.74292E-02
    9070.409     72.009   4.640  9.71429E-01  9.94526E-01 -2.30962E-02
    9071.829     73.430   4.680  9.67942E-01  9.95071E-01 -2.71294E-02
    9073.262     74.862   4.720  9.65621E-01  9.95621E-01 -3.00004E-02
    9074.706     76.307   4.760  9.63915E-01  9.96174E-01 -3.22593E-02
    9076.163     77.764   4.800  9.62261E-01  9.96728E-01 -3.44666E-02
    9077.632     79.233   4.840  9.60230E-01  9.97283E-01 -3.70532E-02
    9079.114     80.714   4.880  9.57759E-01  9.97859E-01 -4.00994E-02
    9080.607     82.208   4.920  9.55143E-01  9.98409E-01 -4.32669E-02
    9082.113     83.714   4.960  9.53184E-01  9.98954E-01 -4.57700E-02
    9083.631     85.232   5.000  9.52840E-01  9.99470E-01 -4.66303E-02
    9085.161     86.762   5.040  9.54815E-01  1.00000E+00 -4.51860E-02
    9086.703     88.304   5.080  9.59044E-01  1.00048E+00 -4.14355E-02
    9088.258     89.858   5.120  9.64943E-01  1.00097E+00 -3.60251E-02
    9089.824     91.425   5.160  9.71534E-01  1.00140E+00 -2.98681E-02
    9091.403     93.004   5.200  9.78024E-01  1.00182E+00 -2.37990E-02
    9092.994     94.595   5.240  9.83737E-01  1.00223E+00 -1.84931E-02
    9094.598     96.198   5.280  9.88222E-01  1.00258E+00 -1.43578E-02
    9096.213     97.814   5.320  9.91312E-01  1.00291E+00 -1.16003E-02
    9097.841     99.441   5.360  9.92882E-01  1.00321E+00 -1.03251E-02
    9099.480    101.081   5.400  9.92634E-01  1.00346E+00 -1.08271E-02
    9101.132    102.733   5.440  9.90140E-01  1.00367E+00 -1.35320E-02
    9102.797    104.397   5.480  9.85111E-01  1.00382E+00 -1.87081E-02
    9104.473    106.074   5.520  9.77807E-01  1.00395E+00 -2.61416E-02
    9106.162    107.762   5.560  9.68929E-01  1.00404E+00 -3.51086E-02
    9107.862    109.463   5.600  9.59579E-01  1.00409E+00 -4.45079E-02
    9109.575    111.176   5.640  9.50955E-01  1.00409E+00 -5.31364E-02
    9111.300    112.901   5.680  9.44092E-01  1.00403E+00 -5.99383E-02
    9113.038    114.639   5.720  9.39765E-01  1.00395E+00 -6.41860E-02
    9114.787    116.388   5.760  9.38340E-01  1.00381E+00 -6.54700E-02
    9116.549    118.150   5.800  9.40057E-01  1.00365E+00 -6.35912E-02
    9118.323    119.924   5.840  9.44944E-01  1.00342E+00 -5.84798E-02
    9120.109    121.710   5.880  9.52884E-01  1.00316E+00 -5.02771E-02
    9121.907    123.508   5.920  9.63500E-01  1.00289E+00 -3.93857E-02
    9123.718    125.319   5.960  9.76123E-01  1.00255E+00 -2.64247E-02
    9125.541    127.141   6.000  9.90445E-01  1.00214E+00 -1.16956E-02
