# # comment:                                                     FEFF 9.9.1  
# # Source:
# # Structure
# # Reduced
# # space
# # abc:
# # angles:
# # sites:
# # POT  SCF 100  7.0000   0, screened core-hole, AFOLP (folp(0)= 1.150)
# # Abs   Z=29 Rmt= 1.242 Rnm= 1.338 K  shell
# # Pot 1 Z=29 Rmt= 1.285 Rnm= 1.356
# # Pot 2 Z=33 Rmt= 1.086 Rnm= 1.292
# # Pot 3 Z=82 Rmt= 1.758 Rnm= 1.822
# # Pot 4 Z= 8 Rmt= 0.953 Rnm= 1.079
# # Gam_ch=1.729E+00 H-L exch Vi= 0.000E+00 Vr= 0.000E+00
# # Mu=-5.155E+00eV kf=2.273E+00 Vint=-1.532E+01eV Rs_int= 1.595
# FMS rfms= 9.0000
# # PATH  Rmax=-1.000,  Keep_limit= 0.00, Heap_limit 0.00  Pwcrit= 2.50%
#  S02=0.950  Temp=   0.00  Debye_temp=   0.00  Global_sig2= 0.00000
#  Energy zero shift, vr, vi    0.00000E+00   0.00000E+00
#  Curved wave amplitude ratio filter   4.000%
#     file         sig2 tot  cw amp ratio   deg  nlegs   reff  inp sig2
#     0/   0 paths used
#  xsedge+ 50, used to normalize mu           2.4563E-04
#  -----------------------------------------------------------------------
#  omega    e    k    mu    mu0     chi     @#
    8983.295     -8.965  -1.000  4.69786E-02  5.75004E-02 -1.05219E-02
    8983.594     -8.666  -0.960  5.01882E-02  6.18079E-02 -1.16197E-02
    8983.880     -8.380  -0.920  5.37660E-02  6.66063E-02 -1.28404E-02
    8984.155     -8.105  -0.880  5.77718E-02  7.19691E-02 -1.41973E-02
    8984.417     -7.843  -0.840  6.22769E-02  7.79818E-02 -1.57049E-02
    8984.667     -7.593  -0.800  6.73650E-02  8.47436E-02 -1.73786E-02
    8984.904     -7.356  -0.760  7.31337E-02  9.23685E-02 -1.92348E-02
    8985.130     -7.130  -0.720  7.96957E-02  1.00986E-01 -2.12900E-02
    8985.343     -6.917  -0.680  8.71766E-02  1.10737E-01 -2.35607E-02
    8985.544     -6.715  -0.640  9.57121E-02  1.21774E-01 -2.60617E-02
    8985.733     -6.526  -0.600  1.05438E-01  1.34243E-01 -2.88049E-02
    8985.910     -6.350  -0.560  1.16477E-01  1.48273E-01 -3.17961E-02
    8986.075     -6.185  -0.520  1.28907E-01  1.63938E-01 -3.50311E-02
    8986.227     -6.033  -0.480  1.42733E-01  1.81224E-01 -3.84915E-02
    8986.367     -5.892  -0.440  1.57841E-01  1.99980E-01 -4.21387E-02
    8986.495     -5.764  -0.400  1.73963E-01  2.19874E-01 -4.59114E-02
    8986.611     -5.649  -0.360  1.90662E-01  2.40389E-01 -4.97268E-02
    8986.715     -5.545  -0.320  2.07362E-01  2.60850E-01 -5.34873E-02
    8986.806     -5.454  -0.280  2.23417E-01  2.80509E-01 -5.70915E-02
    8986.886     -5.374  -0.240  2.38204E-01  2.98649E-01 -6.04447E-02
    8986.953     -5.307  -0.200  2.51208E-01  3.14670E-01 -6.34624E-02
    8987.008     -5.252  -0.160  2.62070E-01  3.28139E-01 -6.60691E-02
    8987.050     -5.210  -0.120  2.70581E-01  3.38778E-01 -6.81968E-02
    8987.081     -5.179  -0.080  2.76652E-01  3.46438E-01 -6.97859E-02
    8987.105     -5.155   0.000  2.81447E-01  3.52589E-01 -7.11427E-02
    8987.160     -5.100   0.120  2.92078E-01  3.66446E-01 -7.43682E-02
    8987.203     -5.057   0.160  3.00303E-01  3.77210E-01 -7.69073E-02
    8987.257     -5.002   0.200  3.10567E-01  3.90911E-01 -8.03442E-02
    8987.324     -4.935   0.240  3.22533E-01  4.07388E-01 -8.48546E-02
    8987.404     -4.856   0.280  3.35532E-01  4.26246E-01 -9.07143E-02
    8987.495     -4.765   0.320  3.48710E-01  4.46998E-01 -9.82879E-02
    8987.599     -4.661   0.360  3.60961E-01  4.68972E-01 -1.08011E-01
    8987.715     -4.545   0.400  3.71245E-01  4.91518E-01 -1.20273E-01
    8987.843     -4.417   0.440  3.78741E-01  5.13987E-01 -1.35246E-01
    8987.983     -4.277   0.480  3.83282E-01  5.35947E-01 -1.52665E-01
    8988.135     -4.125   0.520  3.85244E-01  5.57037E-01 -1.71793E-01
    8988.300     -3.960   0.560  3.85578E-01  5.77139E-01 -1.91562E-01
    8988.477     -3.783   0.600  3.85308E-01  5.96198E-01 -2.10890E-01
    8988.666     -3.594   0.640  3.85349E-01  6.14302E-01 -2.28953E-01
    8988.867     -3.393   0.680  3.86238E-01  6.31500E-01 -2.45262E-01
    8989.080     -3.180   0.720  3.88444E-01  6.47938E-01 -2.59495E-01
    8989.306     -2.954   0.760  3.92329E-01  6.63724E-01 -2.71395E-01
    8989.543     -2.716   0.800  3.98068E-01  6.78933E-01 -2.80864E-01
    8989.793     -2.467   0.840  4.05016E-01  6.93664E-01 -2.88648E-01
    8990.055     -2.204   0.880  4.11069E-01  7.07985E-01 -2.96916E-01
    8990.330     -1.930   0.920  4.13485E-01  7.21947E-01 -3.08462E-01
    8990.616     -1.644   0.960  4.10995E-01  7.35584E-01 -3.24590E-01
    8990.915     -1.345   1.000  4.05185E-01  7.48924E-01 -3.43739E-01
    8991.226     -1.034   1.040  3.99601E-01  7.61981E-01 -3.62380E-01
    8991.549     -0.711   1.080  3.97436E-01  7.74763E-01 -3.77327E-01
    8991.884     -0.376   1.120  4.00276E-01  7.87289E-01 -3.87013E-01
    8992.232     -0.028   1.160  4.08592E-01  7.99511E-01 -3.90919E-01
    8992.591      0.332   1.200  4.23657E-01  8.11462E-01 -3.87805E-01
    8992.963      0.703   1.240  4.49088E-01  8.23127E-01 -3.74039E-01
    8993.347      1.087   1.280  4.89474E-01  8.34470E-01 -3.44995E-01
    8993.744      1.484   1.320  5.47421E-01  8.45489E-01 -2.98068E-01
    8994.152      1.892   1.360  6.23593E-01  8.56168E-01 -2.32574E-01
    8994.573      2.313   1.400  7.15452E-01  8.66505E-01 -1.51053E-01
    8995.005      2.746   1.440  8.09173E-01  8.76478E-01 -6.73051E-02
    8995.450      3.191   1.480  8.84467E-01  8.86085E-01 -1.61840E-03
    8995.908      3.648   1.520  9.31476E-01  8.95286E-01  3.61905E-02
    8996.377      4.117   1.560  9.58618E-01  9.04098E-01  5.45207E-02
    8996.859      4.599   1.600  9.86699E-01  9.12499E-01  7.41996E-02
    8997.352      5.092   1.640  1.02550E+00  9.20492E-01  1.05009E-01
    8997.858      5.598   1.680  1.06808E+00  9.28074E-01  1.40008E-01
    8998.376      6.117   1.720  1.11047E+00  9.35228E-01  1.75244E-01
    8998.907      6.647   1.760  1.15607E+00  9.41974E-01  2.14092E-01
    8999.449      7.189   1.800  1.20477E+00  9.48318E-01  2.56449E-01
    9000.004      7.744   1.840  1.25704E+00  9.54241E-01  3.02795E-01
    9000.571      8.311   1.880  1.31660E+00  9.59745E-01  3.56857E-01
    9001.150      8.890   1.920  1.36863E+00  9.64879E-01  4.03753E-01
    9001.741      9.482   1.960  1.39110E+00  9.69605E-01  4.21500E-01
    9002.345     10.085   2.000  1.38892E+00  9.73950E-01  4.14969E-01
    9002.961     10.701   2.040  1.37696E+00  9.77941E-01  3.99015E-01
    9003.589     11.329   2.080  1.35371E+00  9.81565E-01  3.72141E-01
    9004.229     11.969   2.120  1.31953E+00  9.84849E-01  3.34683E-01
    9004.881     12.621   2.160  1.28811E+00  9.87820E-01  3.00292E-01
    9005.545     13.285   2.200  1.27009E+00  9.90468E-01  2.79623E-01
    9006.222     13.962   2.240  1.26401E+00  9.92820E-01  2.71188E-01
    9006.911     14.651   2.280  1.26010E+00  9.94883E-01  2.65218E-01
    9007.612     15.352   2.320  1.24482E+00  9.96688E-01  2.48135E-01
    9008.325     16.065   2.360  1.20810E+00  9.98243E-01  2.09854E-01
    9009.051     16.791   2.400  1.15304E+00  9.99575E-01  1.53466E-01
    9009.788     17.528   2.440  1.09485E+00  1.00067E+00  9.41724E-02
    9010.538     18.278   2.480  1.04407E+00  1.00159E+00  4.24810E-02
    9011.300     19.040   2.520  1.00145E+00  1.00230E+00 -8.53384E-04
    9012.074     19.814   2.560  9.68534E-01  1.00284E+00 -3.43093E-02
    9012.861     20.601   2.600  9.47319E-01  1.00323E+00 -5.59061E-02
    9013.659     21.399   2.640  9.31301E-01  1.00347E+00 -7.21720E-02
    9014.470     22.210   2.680  9.16672E-01  1.00359E+00 -8.69204E-02
    9015.293     23.033   2.720  9.08342E-01  1.00359E+00 -9.52506E-02
    9016.128     23.868   2.760  9.07044E-01  1.00350E+00 -9.64566E-02
    9016.975     24.715   2.800  9.09473E-01  1.00332E+00 -9.38477E-02
    9017.835     25.575   2.840  9.12084E-01  1.00306E+00 -9.09752E-02
    9018.707     26.447   2.880  9.12773E-01  1.00272E+00 -8.99499E-02
    9019.590     27.331   2.920  9.11400E-01  1.00236E+00 -9.09568E-02
    9020.487     28.227   2.960  9.08600E-01  1.00193E+00 -9.33256E-02
    9021.395     29.135   3.000  9.04943E-01  1.00145E+00 -9.65114E-02
    9022.315     30.055   3.040  9.00791E-01  1.00097E+00 -1.00176E-01
    9023.248     30.988   3.080  8.96702E-01  1.00045E+00 -1.03745E-01
    9024.193     31.933   3.120  8.93505E-01  9.99920E-01 -1.06415E-01
    9025.150     32.890   3.160  8.91635E-01  9.99390E-01 -1.07755E-01
    9026.119     33.859   3.200  8.91447E-01  9.98859E-01 -1.07412E-01
    9027.101     34.841   3.240  8.92910E-01  9.98330E-01 -1.05420E-01
    9028.094     35.834   3.280  8.95469E-01  9.97829E-01 -1.02360E-01
    9029.100     36.840   3.320  8.98428E-01  9.97335E-01 -9.89072E-02
    9030.118     37.858   3.360  9.01337E-01  9.96873E-01 -9.55365E-02
    9031.148     38.889   3.400  9.04179E-01  9.96444E-01 -9.22650E-02
    9032.191     39.931   3.440  9.07227E-01  9.96028E-01 -8.88009E-02
    9033.245     40.986   3.480  9.11109E-01  9.95649E-01 -8.45400E-02
    9034.312     42.052   3.520  9.16445E-01  9.95328E-01 -7.88836E-02
    9035.391     43.131   3.560  9.23611E-01  9.95024E-01 -7.14135E-02
    9036.482     44.223   3.600  9.32893E-01  9.94759E-01 -6.18652E-02
    9037.586     45.326   3.640  9.44317E-01  9.94531E-01 -5.02141E-02
    9038.701     46.441   3.680  9.57607E-01  9.94344E-01 -3.67363E-02
    9039.829     47.569   3.720  9.71981E-01  9.94199E-01 -2.22179E-02
    9040.969     48.709   3.760  9.86442E-01  9.94116E-01 -7.67373E-03
    9042.121     49.861   3.800  9.99830E-01  9.94052E-01  5.77816E-03
    9043.286     51.026   3.840  1.01125E+00  9.94050E-01  1.72046E-02
    9044.462     52.202   3.880  1.02032E+00  9.94068E-01  2.62479E-02
    9045.651     53.391   3.920  1.02728E+00  9.94147E-01  3.31300E-02
    9046.852     54.592   3.960  1.03257E+00  9.94266E-01  3.83077E-02
    9048.065     55.805   4.000  1.03659E+00  9.94403E-01  4.21860E-02
    9049.290     57.030   4.040  1.03954E+00  9.94599E-01  4.49439E-02
    9050.528     58.268   4.080  1.04140E+00  9.94811E-01  4.65844E-02
    9051.777     59.517   4.120  1.04225E+00  9.95082E-01  4.71632E-02
    9053.039     60.779   4.160  1.04247E+00  9.95369E-01  4.70977E-02
    9054.313     62.053   4.200  1.04268E+00  9.95690E-01  4.69928E-02
    9055.599     63.340   4.240  1.04356E+00  9.96043E-01  4.75211E-02
    9056.898     64.638   4.280  1.04570E+00  9.96408E-01  4.92913E-02
    9058.208     65.949   4.320  1.04959E+00  9.96802E-01  5.27914E-02
    9059.531     67.271   4.360  1.05541E+00  9.97206E-01  5.82091E-02
    9060.866     68.606   4.400  1.06286E+00  9.97639E-01  6.52195E-02
    9062.214     69.954   4.440  1.07109E+00  9.98076E-01  7.30130E-02
    9063.573     71.313   4.480  1.07872E+00  9.98516E-01  8.02012E-02
    9064.945     72.685   4.520  1.08415E+00  9.98982E-01  8.51651E-02
    9066.328     74.068   4.560  1.08603E+00  9.99428E-01  8.66004E-02
    9067.724     75.464   4.600  1.08383E+00  9.99897E-01  8.39368E-02
    9069.132     76.873   4.640  1.07787E+00  1.00037E+00  7.75067E-02
    9070.553     78.293   4.680  1.06922E+00  1.00083E+00  6.83937E-02
    9071.985     79.725   4.720  1.05913E+00  1.00127E+00  5.78561E-02
    9073.430     81.170   4.760  1.04853E+00  1.00170E+00  4.68230E-02
    9074.887     82.627   4.800  1.03790E+00  1.00216E+00  3.57453E-02
    9076.356     84.096   4.840  1.02719E+00  1.00256E+00  2.46281E-02
    9077.838     85.578   4.880  1.01625E+00  1.00297E+00  1.32826E-02
    9079.331     87.071   4.920  1.00494E+00  1.00335E+00  1.58167E-03
    9080.837     88.577   4.960  9.93292E-01  1.00371E+00 -1.04132E-02
    9082.355     90.095   5.000  9.81583E-01  1.00404E+00 -2.24596E-02
    9083.885     91.625   5.040  9.70016E-01  1.00435E+00 -3.43318E-02
    9085.427     93.167   5.080  9.58751E-01  1.00464E+00 -4.58862E-02
    9086.981     94.722   5.120  9.47988E-01  1.00487E+00 -5.68806E-02
    9088.548     96.288   5.160  9.38285E-01  1.00509E+00 -6.68025E-02
    9090.127     97.867   5.200  9.30526E-01  1.00529E+00 -7.47652E-02
    9091.718     99.458   5.240  9.25606E-01  1.00544E+00 -7.98294E-02
    9093.321    101.061   5.280  9.24176E-01  1.00556E+00 -8.13879E-02
    9094.937    102.677   5.320  9.26257E-01  1.00565E+00 -7.93970E-02
    9096.564    104.304   5.360  9.31431E-01  1.00571E+00 -7.42736E-02
    9098.204    105.944   5.400  9.39043E-01  1.00572E+00 -6.66733E-02
    9099.856    107.596   5.440  9.48373E-01  1.00569E+00 -5.73146E-02
    9101.520    109.260   5.480  9.58722E-01  1.00562E+00 -4.68979E-02
    9103.197    110.937   5.520  9.69473E-01  1.00554E+00 -3.60639E-02
    9104.885    112.625   5.560  9.79997E-01  1.00539E+00 -2.53951E-02
    9106.586    114.326   5.600  9.89922E-01  1.00523E+00 -1.53111E-02
    9108.299    116.039   5.640  9.99031E-01  1.00504E+00 -6.00473E-03
    9110.024    117.764   5.680  1.00726E+00  1.00480E+00  2.46577E-03
    9111.762    119.502   5.720  1.01447E+00  1.00452E+00  9.95041E-03
    9113.511    121.251   5.760  1.02026E+00  1.00421E+00  1.60470E-02
    9115.273    123.013   5.800  1.02401E+00  1.00386E+00  2.01454E-02
    9117.047    124.787   5.840  1.02522E+00  1.00350E+00  2.17140E-02
    9118.833    126.573   5.880  1.02375E+00  1.00311E+00  2.06302E-02
    9120.631    128.371   5.920  1.01976E+00  1.00269E+00  1.70699E-02
    9122.442    130.182   5.960  1.01389E+00  1.00227E+00  1.16202E-02
    9124.264    132.005   6.000  1.00670E+00  1.00179E+00  4.90812E-03
