# # comment:                                                     FEFF 9.9.1  
# # Source:
# # Structure
# # Reduced
# # space
# # abc:
# # angles:
# # sites:
# # POT  SCF 100  7.0000   0, screened core-hole, AFOLP (folp(0)= 1.150)
# # Abs   Z=29 Rmt= 1.198 Rnm= 1.294 K  shell
# # Pot 1 Z=38 Rmt= 1.750 Rnm= 1.811
# # Pot 2 Z=29 Rmt= 1.208 Rnm= 1.283
# # Pot 3 Z= 8 Rmt= 1.072 Rnm= 1.120
# # Gam_ch=1.729E+00 H-L exch Vi= 0.000E+00 Vr= 0.000E+00
# # Mu=-9.366E+00eV kf=2.012E+00 Vint=-1.768E+01eV Rs_int= 1.802
# FMS rfms= 9.0000
# # PATH  Rmax=-1.000,  Keep_limit= 0.00, Heap_limit 0.00  Pwcrit= 2.50%
#  S02=0.950  Temp=   0.00  Debye_temp=   0.00  Global_sig2= 0.00000
#  Energy zero shift, vr, vi    0.00000E+00   0.00000E+00
#  Curved wave amplitude ratio filter   4.000%
#     file         sig2 tot  cw amp ratio   deg  nlegs   reff  inp sig2
#     0/   0 paths used
#  xsedge+ 50, used to normalize mu           2.4554E-04
#  -----------------------------------------------------------------------
#  omega    e    k    mu    mu0     chi     @#
    8984.838    -13.176  -1.000  3.97811E-02  5.50003E-02 -1.52192E-02
    8985.137    -12.877  -0.960  4.21690E-02  5.90003E-02 -1.68313E-02
    8985.423    -12.591  -0.920  4.47984E-02  6.34438E-02 -1.86454E-02
    8985.697    -12.317  -0.880  4.77057E-02  6.83960E-02 -2.06903E-02
    8985.960    -12.055  -0.840  5.09329E-02  7.39326E-02 -2.29996E-02
    8986.210    -11.805  -0.800  5.45295E-02  8.01411E-02 -2.56117E-02
    8986.447    -11.567  -0.760  5.85518E-02  8.71222E-02 -2.85705E-02
    8986.673    -11.341  -0.720  6.30639E-02  9.49894E-02 -3.19255E-02
    8986.886    -11.128  -0.680  6.81365E-02  1.03868E-01 -3.57311E-02
    8987.087    -10.927  -0.640  7.38443E-02  1.13889E-01 -4.00444E-02
    8987.276    -10.738  -0.600  8.02609E-02  1.25182E-01 -4.49211E-02
    8987.453    -10.561  -0.560  8.74500E-02  1.37858E-01 -5.04077E-02
    8987.618    -10.396  -0.520  9.54517E-02  1.51981E-01 -5.65297E-02
    8987.770    -10.244  -0.480  1.04263E-01  1.67538E-01 -6.32744E-02
    8987.910    -10.104  -0.440  1.13818E-01  1.84391E-01 -7.05727E-02
    8988.038     -9.976  -0.400  1.23965E-01  2.02247E-01 -7.82828E-02
    8988.154     -9.860  -0.360  1.34461E-01  2.20648E-01 -8.61873E-02
    8988.258     -9.756  -0.320  1.44987E-01  2.38997E-01 -9.40103E-02
    8988.349     -9.665  -0.280  1.55176E-01  2.56630E-01 -1.01454E-01
    8988.428     -9.586  -0.240  1.64665E-01  2.72908E-01 -1.08244E-01
    8988.496     -9.519  -0.200  1.73133E-01  2.87298E-01 -1.14164E-01
    8988.550     -9.464  -0.160  1.80331E-01  2.99405E-01 -1.19074E-01
    8988.593     -9.421  -0.120  1.86080E-01  3.08979E-01 -1.22899E-01
    8988.624     -9.391  -0.080  1.90265E-01  3.15878E-01 -1.25613E-01
    8988.648     -9.366   0.000  1.93681E-01  3.21423E-01 -1.27742E-01
    8988.703     -9.311   0.120  2.01287E-01  3.33927E-01 -1.32640E-01
    8988.745     -9.269   0.160  2.07236E-01  3.43640E-01 -1.36404E-01
    8988.800     -9.214   0.200  2.14910E-01  3.56066E-01 -1.41156E-01
    8988.867     -9.147   0.240  2.24272E-01  3.71003E-01 -1.46731E-01
    8988.947     -9.067   0.280  2.35242E-01  3.88180E-01 -1.52938E-01
    8989.038     -8.976   0.320  2.47670E-01  4.07172E-01 -1.59502E-01
    8989.142     -8.872   0.360  2.61312E-01  4.27427E-01 -1.66115E-01
    8989.258     -8.757   0.400  2.75819E-01  4.48359E-01 -1.72540E-01
    8989.386     -8.629   0.440  2.90696E-01  4.69471E-01 -1.78775E-01
    8989.526     -8.488   0.480  3.05056E-01  4.90321E-01 -1.85265E-01
    8989.678     -8.336   0.520  3.17484E-01  5.10655E-01 -1.93171E-01
    8989.843     -8.171   0.560  3.26040E-01  5.30352E-01 -2.04313E-01
    8990.020     -7.995   0.600  3.28839E-01  5.49381E-01 -2.20542E-01
    8990.208     -7.806   0.640  3.25089E-01  5.67775E-01 -2.42686E-01
    8990.410     -7.604   0.680  3.15672E-01  5.85584E-01 -2.69912E-01
    8990.623     -7.391   0.720  3.02666E-01  6.02933E-01 -3.00266E-01
    8990.849     -7.166   0.760  2.88266E-01  6.19903E-01 -3.31637E-01
    8991.086     -6.928   0.800  2.74197E-01  6.36526E-01 -3.62330E-01
    8991.336     -6.678   0.840  2.61938E-01  6.52882E-01 -3.90943E-01
    8991.598     -6.416   0.880  2.52921E-01  6.69035E-01 -4.16115E-01
    8991.873     -6.141   0.920  2.48480E-01  6.84978E-01 -4.36497E-01
    8992.159     -5.855   0.960  2.49830E-01  7.00749E-01 -4.50919E-01
    8992.458     -5.556   1.000  2.57784E-01  7.16336E-01 -4.58552E-01
    8992.769     -5.245   1.040  2.72569E-01  7.31742E-01 -4.59173E-01
    8993.092     -4.922   1.080  2.93695E-01  7.46956E-01 -4.53261E-01
    8993.427     -4.587   1.120  3.20230E-01  7.61946E-01 -4.41716E-01
    8993.775     -4.239   1.160  3.52097E-01  7.76714E-01 -4.24617E-01
    8994.134     -3.880   1.200  3.90261E-01  7.91197E-01 -4.00937E-01
    8994.506     -3.508   1.240  4.36027E-01  8.05411E-01 -3.69384E-01
    8994.890     -3.124   1.280  4.91423E-01  8.19288E-01 -3.27865E-01
    8995.286     -2.728   1.320  5.56442E-01  8.32821E-01 -2.76379E-01
    8995.695     -2.319   1.360  6.20535E-01  8.45958E-01 -2.25423E-01
    8996.115     -1.899   1.400  6.69133E-01  8.58693E-01 -1.89560E-01
    8996.548     -1.466   1.440  7.09462E-01  8.70996E-01 -1.61534E-01
    8996.993     -1.021   1.480  7.63353E-01  8.82838E-01 -1.19485E-01
    8997.451     -0.564   1.520  8.23766E-01  8.94191E-01 -7.04246E-02
    8997.920     -0.094   1.560  8.56605E-01  9.05049E-01 -4.84437E-02
    8998.401      0.387   1.600  8.58475E-01  9.15386E-01 -5.69109E-02
    8998.895      0.881   1.640  8.65038E-01  9.25198E-01 -6.01598E-02
    8999.401      1.387   1.680  9.05303E-01  9.34463E-01 -2.91596E-02
    8999.919      1.905   1.720  9.93715E-01  9.43201E-01  5.05149E-02
    9000.450      2.436   1.760  1.13659E+00  9.51410E-01  1.85178E-01
    9000.992      2.978   1.800  1.30996E+00  9.59051E-01  3.50907E-01
    9001.547      3.533   1.840  1.42543E+00  9.66169E-01  4.59263E-01
    9002.114      4.100   1.880  1.42801E+00  9.72726E-01  4.55288E-01
    9002.693      4.679   1.920  1.38966E+00  9.78790E-01  4.10875E-01
    9003.284      5.270   1.960  1.36313E+00  9.84325E-01  3.78801E-01
    9003.888      5.874   2.000  1.34886E+00  9.89360E-01  3.59501E-01
    9004.504      6.489   2.040  1.33128E+00  9.93924E-01  3.37353E-01
    9005.131      7.117   2.080  1.29658E+00  9.98004E-01  2.98581E-01
    9005.772      7.757   2.120  1.24300E+00  1.00165E+00  2.41350E-01
    9006.424      8.410   2.160  1.18413E+00  1.00488E+00  1.79253E-01
    9007.088      9.074   2.200  1.13805E+00  1.00767E+00  1.30384E-01
    9007.765      9.751   2.240  1.11621E+00  1.01008E+00  1.06131E-01
    9008.454     10.440   2.280  1.12159E+00  1.01214E+00  1.09443E-01
    9009.155     11.141   2.320  1.14614E+00  1.01385E+00  1.32296E-01
    9009.868     11.854   2.360  1.17243E+00  1.01522E+00  1.57210E-01
    9010.593     12.579   2.400  1.18947E+00  1.01633E+00  1.73139E-01
    9011.331     13.317   2.440  1.18877E+00  1.01712E+00  1.71650E-01
    9012.081     14.067   2.480  1.17147E+00  1.01767E+00  1.53802E-01
    9012.843     14.829   2.520  1.15069E+00  1.01799E+00  1.32708E-01
    9013.617     15.603   2.560  1.13289E+00  1.01808E+00  1.14812E-01
    9014.403     16.389   2.600  1.11738E+00  1.01798E+00  9.93958E-02
    9015.202     17.188   2.640  1.09952E+00  1.01772E+00  8.17996E-02
    9016.013     17.999   2.680  1.07515E+00  1.01727E+00  5.78736E-02
    9016.836     18.822   2.720  1.04362E+00  1.01671E+00  2.69072E-02
    9017.671     19.657   2.760  1.00777E+00  1.01601E+00 -8.23560E-03
    9018.518     20.504   2.800  9.71058E-01  1.01521E+00 -4.41521E-02
    9019.378     21.364   2.840  9.36613E-01  1.01432E+00 -7.77105E-02
    9020.249     22.235   2.880  9.06636E-01  1.01336E+00 -1.06719E-01
    9021.133     23.119   2.920  8.82837E-01  1.01231E+00 -1.29476E-01
    9022.029     24.015   2.960  8.66228E-01  1.01125E+00 -1.45018E-01
    9022.938     24.924   3.000  8.56901E-01  1.01012E+00 -1.53215E-01
    9023.858     25.844   3.040  8.54426E-01  1.00897E+00 -1.54546E-01
    9024.791     26.777   3.080  8.58076E-01  1.00780E+00 -1.49723E-01
    9025.736     27.722   3.120  8.66734E-01  1.00664E+00 -1.39908E-01
    9026.693     28.679   3.160  8.78527E-01  1.00546E+00 -1.26938E-01
    9027.662     29.648   3.200  8.91550E-01  1.00431E+00 -1.12763E-01
    9028.644     30.630   3.240  9.03888E-01  1.00319E+00 -9.93035E-02
    9029.637     31.623   3.280  9.13868E-01  1.00208E+00 -8.82145E-02
    9030.643     32.629   3.320  9.20646E-01  1.00101E+00 -8.03612E-02
    9031.661     33.647   3.360  9.24506E-01  9.99970E-01 -7.54644E-02
    9032.691     34.677   3.400  9.26640E-01  9.98973E-01 -7.23335E-02
    9033.734     35.720   3.440  9.28203E-01  9.98018E-01 -6.98147E-02
    9034.788     36.774   3.480  9.30060E-01  9.97109E-01 -6.70483E-02
    9035.855     37.841   3.520  9.32851E-01  9.96269E-01 -6.34177E-02
    9036.934     38.920   3.560  9.36499E-01  9.95498E-01 -5.89994E-02
    9038.025     40.011   3.600  9.40445E-01  9.94777E-01 -5.43319E-02
    9039.129     41.115   3.640  9.44107E-01  9.94105E-01 -4.99983E-02
    9040.244     42.230   3.680  9.47218E-01  9.93504E-01 -4.62866E-02
    9041.372     43.358   3.720  9.49863E-01  9.92977E-01 -4.31135E-02
    9042.512     44.498   3.760  9.52516E-01  9.92502E-01 -3.99856E-02
    9043.664     45.650   3.800  9.55737E-01  9.92100E-01 -3.63632E-02
    9044.828     46.814   3.840  9.59928E-01  9.91771E-01 -3.18428E-02
    9046.005     47.991   3.880  9.65203E-01  9.91495E-01 -2.62921E-02
    9047.194     49.180   3.920  9.71519E-01  9.91289E-01 -1.97706E-02
    9048.395     50.380   3.960  9.78838E-01  9.91135E-01 -1.22973E-02
    9049.608     51.594   4.000  9.87345E-01  9.91053E-01 -3.70848E-03
    9050.833     52.819   4.040  9.97011E-01  9.91043E-01  5.96818E-03
    9052.070     54.056   4.080  1.00733E+00  9.91081E-01  1.62458E-02
    9053.320     55.306   4.120  1.01755E+00  9.91166E-01  2.63852E-02
    9054.582     56.568   4.160  1.02731E+00  9.91320E-01  3.59941E-02
    9055.856     57.842   4.200  1.03675E+00  9.91519E-01  4.52330E-02
    9057.142     59.128   4.240  1.04655E+00  9.91785E-01  5.47631E-02
    9058.441     60.427   4.280  1.05733E+00  9.92071E-01  6.52607E-02
    9059.751     61.737   4.320  1.06937E+00  9.92418E-01  7.69526E-02
    9061.074     63.060   4.360  1.08204E+00  9.92783E-01  8.92576E-02
    9062.409     64.395   4.400  1.09404E+00  9.93187E-01  1.00856E-01
    9063.756     65.742   4.440  1.10367E+00  9.93649E-01  1.10018E-01
    9065.116     67.102   4.480  1.10913E+00  9.94124E-01  1.15008E-01
    9066.487     68.473   4.520  1.10925E+00  9.94610E-01  1.14636E-01
    9067.871     69.857   4.560  1.10397E+00  9.95150E-01  1.08819E-01
    9069.267     71.253   4.600  1.09423E+00  9.95675E-01  9.85525E-02
    9070.675     72.661   4.640  1.08158E+00  9.96230E-01  8.53550E-02
    9072.096     74.082   4.680  1.06747E+00  9.96811E-01  7.06598E-02
    9073.528     75.514   4.720  1.05262E+00  9.97373E-01  5.52480E-02
    9074.973     76.959   4.760  1.03713E+00  9.97958E-01  3.91706E-02
    9076.430     78.416   4.800  1.02080E+00  9.98543E-01  2.22546E-02
    9077.899     79.885   4.840  1.00385E+00  9.99103E-01  4.74484E-03
    9079.380     81.366   4.880  9.87196E-01  9.99681E-01 -1.24856E-02
    9080.874     82.860   4.920  9.72037E-01  1.00023E+00 -2.81960E-02
    9082.380     84.366   4.960  9.59716E-01  1.00077E+00 -4.10585E-02
    9083.898     85.883   5.000  9.51577E-01  1.00129E+00 -4.97095E-02
    9085.428     87.414   5.040  9.48824E-01  1.00179E+00 -5.29636E-02
    9086.970     88.956   5.080  9.52162E-01  1.00226E+00 -5.00954E-02
    9088.524     90.510   5.120  9.61373E-01  1.00271E+00 -4.13411E-02
    9090.091     92.077   5.160  9.74826E-01  1.00313E+00 -2.83089E-02
    9091.670     93.656   5.200  9.89659E-01  1.00352E+00 -1.38605E-02
    9093.261     95.247   5.240  1.00274E+00  1.00389E+00 -1.15186E-03
    9094.864     96.850   5.280  1.01153E+00  1.00420E+00  7.33646E-03
    9096.480     98.466   5.320  1.01463E+00  1.00449E+00  1.01411E-02
    9098.107    100.093   5.360  1.01157E+00  1.00474E+00  6.82776E-03
    9099.747    101.733   5.400  1.00292E+00  1.00495E+00 -2.03271E-03
    9101.399    103.385   5.440  9.90120E-01  1.00510E+00 -1.49758E-02
    9103.063    105.049   5.480  9.75419E-01  1.00522E+00 -2.98032E-02
    9104.740    106.726   5.520  9.61452E-01  1.00531E+00 -4.38543E-02
    9106.428    108.414   5.560  9.50679E-01  1.00533E+00 -5.46489E-02
    9108.129    110.115   5.600  9.44680E-01  1.00533E+00 -6.06480E-02
    9109.842    111.828   5.640  9.43560E-01  1.00527E+00 -6.17061E-02
    9111.567    113.553   5.680  9.46255E-01  1.00518E+00 -5.89277E-02
    9113.305    115.290   5.720  9.50822E-01  1.00503E+00 -5.42128E-02
    9115.054    117.040   5.760  9.55231E-01  1.00485E+00 -4.96176E-02
    9116.816    118.802   5.800  9.57857E-01  1.00464E+00 -4.67868E-02
    9118.590    120.576   5.840  9.57935E-01  1.00438E+00 -4.64411E-02
    9120.376    122.362   5.880  9.56128E-01  1.00407E+00 -4.79412E-02
    9122.174    124.160   5.920  9.54606E-01  1.00373E+00 -4.91218E-02
    9123.985    125.971   5.960  9.56409E-01  1.00338E+00 -4.69662E-02
    9125.807    127.793   6.000  9.64214E-01  1.00293E+00 -3.87190E-02
