# # comment:                                                     FEFF 9.9.1  
# # Source:
# # Structure
# # Reduced
# # space
# # abc:
# # angles:
# # sites:
# # POT  SCF 100  7.0000   0, screened core-hole, AFOLP (folp(0)= 1.150)
# # Abs   Z=29 Rmt= 1.234 Rnm= 1.303 K  shell
# # Pot 1 Z=56 Rmt= 1.960 Rnm= 2.012
# # Pot 2 Z=57 Rmt= 1.730 Rnm= 1.804
# # Pot 3 Z=29 Rmt= 1.223 Rnm= 1.290
# # Pot 4 Z= 8 Rmt= 1.054 Rnm= 1.107
# # Gam_ch=1.729E+00 H-L exch Vi= 0.000E+00 Vr= 0.000E+00
# # Mu=-8.496E+00eV kf=2.020E+00 Vint=-1.794E+01eV Rs_int= 1.795
# FMS rfms= 9.0000
# # PATH  Rmax=-1.000,  Keep_limit= 0.00, Heap_limit 0.00  Pwcrit= 2.50%
#  S02=0.950  Temp=   0.00  Debye_temp=   0.00  Global_sig2= 0.00000
#  Energy zero shift, vr, vi    0.00000E+00   0.00000E+00
#  Curved wave amplitude ratio filter   4.000%
#     file         sig2 tot  cw amp ratio   deg  nlegs   reff  inp sig2
#     0/   0 paths used
#  xsedge+ 50, used to normalize mu           2.4453E-04
#  -----------------------------------------------------------------------
#  omega    e    k    mu    mu0     chi     @#
    8985.268    -12.306  -1.000  3.98203E-02  5.69598E-02 -1.71395E-02
    8985.567    -12.008  -0.960  4.19115E-02  6.11906E-02 -1.92791E-02
    8985.853    -11.721  -0.920  4.41668E-02  6.58996E-02 -2.17329E-02
    8986.127    -11.447  -0.880  4.66062E-02  7.11580E-02 -2.45518E-02
    8986.390    -11.185  -0.840  4.92531E-02  7.70485E-02 -2.77954E-02
    8986.639    -10.935  -0.800  5.21348E-02  8.36671E-02 -3.15323E-02
    8986.877    -10.697  -0.760  5.52823E-02  9.11240E-02 -3.58417E-02
    8987.103    -10.471  -0.720  5.87313E-02  9.95439E-02 -4.08126E-02
    8987.316    -10.258  -0.680  6.25209E-02  1.09064E-01 -4.65433E-02
    8987.517    -10.057  -0.640  6.66924E-02  1.19830E-01 -5.31376E-02
    8987.706     -9.868  -0.600  7.12860E-02  1.31984E-01 -6.06981E-02
    8987.883     -9.691  -0.560  7.63348E-02  1.45648E-01 -6.93136E-02
    8988.048     -9.527  -0.520  8.18555E-02  1.60896E-01 -7.90406E-02
    8988.200     -9.374  -0.480  8.78356E-02  1.77712E-01 -8.98766E-02
    8988.340     -9.234  -0.440  9.42183E-02  1.95948E-01 -1.01730E-01
    8988.468     -9.106  -0.400  1.00891E-01  2.15286E-01 -1.14395E-01
    8988.584     -8.990  -0.360  1.07682E-01  2.35222E-01 -1.27541E-01
    8988.688     -8.886  -0.320  1.14372E-01  2.55105E-01 -1.40733E-01
    8988.779     -8.795  -0.280  1.20727E-01  2.74210E-01 -1.53483E-01
    8988.858     -8.716  -0.240  1.26527E-01  2.91841E-01 -1.65315E-01
    8988.925     -8.649  -0.200  1.31598E-01  3.07418E-01 -1.75820E-01
    8988.980     -8.594  -0.160  1.35823E-01  3.20516E-01 -1.84693E-01
    8989.023     -8.551  -0.120  1.39135E-01  3.30866E-01 -1.91732E-01
    8989.053     -8.521  -0.080  1.41501E-01  3.38320E-01 -1.96820E-01
    8989.078     -8.496   0.000  1.43379E-01  3.44308E-01 -2.00929E-01
    8989.133     -8.441   0.120  1.47690E-01  3.57792E-01 -2.10102E-01
    8989.175     -8.399   0.160  1.51006E-01  3.68276E-01 -2.17270E-01
    8989.230     -8.344   0.200  1.55178E-01  3.81646E-01 -2.26468E-01
    8989.297     -8.277   0.240  1.60125E-01  3.97711E-01 -2.37586E-01
    8989.377     -8.198   0.280  1.65727E-01  4.16137E-01 -2.50410E-01
    8989.468     -8.106   0.320  1.71775E-01  4.36421E-01 -2.64647E-01
    8989.572     -8.003   0.360  1.78151E-01  4.57984E-01 -2.79833E-01
    8989.687     -7.887   0.400  1.84659E-01  4.80123E-01 -2.95464E-01
    8989.815     -7.759   0.440  1.91275E-01  5.02319E-01 -3.11044E-01
    8989.956     -7.618   0.480  1.97942E-01  5.24039E-01 -3.26097E-01
    8990.108     -7.466   0.520  2.04706E-01  5.45038E-01 -3.40331E-01
    8990.273     -7.301   0.560  2.11648E-01  5.65142E-01 -3.53494E-01
    8990.449     -7.125   0.600  2.18969E-01  5.84335E-01 -3.65366E-01
    8990.638     -6.936   0.640  2.27029E-01  6.02660E-01 -3.75632E-01
    8990.840     -6.735   0.680  2.36382E-01  6.20202E-01 -3.83821E-01
    8991.053     -6.521   0.720  2.47944E-01  6.37060E-01 -3.89116E-01
    8991.279     -6.296   0.760  2.63011E-01  6.53352E-01 -3.90340E-01
    8991.516     -6.058   0.800  2.83076E-01  6.69144E-01 -3.86068E-01
    8991.766     -5.808   0.840  3.09320E-01  6.84532E-01 -3.75212E-01
    8992.028     -5.546   0.880  3.41776E-01  6.99555E-01 -3.57779E-01
    8992.303     -5.272   0.920  3.78233E-01  7.14257E-01 -3.36023E-01
    8992.589     -4.985   0.960  4.13869E-01  7.28688E-01 -3.14819E-01
    8992.888     -4.686   1.000  4.42774E-01  7.42847E-01 -3.00073E-01
    8993.199     -4.375   1.040  4.61940E-01  7.56746E-01 -2.94806E-01
    8993.522     -4.052   1.080  4.73756E-01  7.70386E-01 -2.96630E-01
    8993.857     -3.717   1.120  4.84083E-01  7.83781E-01 -2.99698E-01
    8994.205     -3.370   1.160  4.99271E-01  7.96881E-01 -2.97610E-01
    8994.564     -3.010   1.200  5.24122E-01  8.09713E-01 -2.85591E-01
    8994.936     -2.638   1.240  5.60271E-01  8.22219E-01 -2.61947E-01
    8995.320     -2.254   1.280  6.05721E-01  8.34418E-01 -2.28697E-01
    8995.716     -1.858   1.320  6.55774E-01  8.46268E-01 -1.90493E-01
    8996.125     -1.449   1.360  7.09610E-01  8.57747E-01 -1.48137E-01
    8996.545     -1.029   1.400  7.74100E-01  8.68850E-01 -9.47502E-02
    8996.978     -0.596   1.440  8.57834E-01  8.79554E-01 -2.17191E-02
    8997.423     -0.151   1.480  9.59451E-01  8.89855E-01  6.95965E-02
    8997.880      0.306   1.520  1.05982E+00  8.99709E-01  1.60111E-01
    8998.350      0.776   1.560  1.13254E+00  9.09133E-01  2.23406E-01
    8998.831      1.257   1.600  1.18152E+00  9.18106E-01  2.63411E-01
    8999.325      1.751   1.640  1.24027E+00  9.26626E-01  3.13640E-01
    8999.831      2.257   1.680  1.33631E+00  9.34671E-01  4.01638E-01
    9000.349      2.775   1.720  1.48626E+00  9.42263E-01  5.43996E-01
    9000.880      3.306   1.760  1.63734E+00  9.49383E-01  6.87955E-01
    9001.422      3.848   1.800  1.67659E+00  9.56032E-01  7.20558E-01
    9001.977      4.403   1.840  1.58260E+00  9.62215E-01  6.20387E-01
    9002.544      4.970   1.880  1.42916E+00  9.67957E-01  4.61205E-01
    9003.123      5.549   1.920  1.28762E+00  9.73243E-01  3.14381E-01
    9003.714      6.140   1.960  1.18219E+00  9.78120E-01  2.04069E-01
    9004.318      6.744   2.000  1.11301E+00  9.82551E-01  1.30456E-01
    9004.933      7.359   2.040  1.08103E+00  9.86587E-01  9.44449E-02
    9005.561      7.987   2.080  1.08517E+00  9.90215E-01  9.49600E-02
    9006.201      8.627   2.120  1.10845E+00  9.93463E-01  1.14983E-01
    9006.854      9.280   2.160  1.11271E+00  9.96361E-01  1.16345E-01
    9007.518      9.944   2.200  1.07720E+00  9.98897E-01  7.83069E-02
    9008.195     10.621   2.240  1.03309E+00  1.00112E+00  3.19706E-02
    9008.884     11.310   2.280  1.00697E+00  1.00302E+00  3.95000E-03
    9009.585     12.011   2.320  9.99462E-01  1.00466E+00 -5.19279E-03
    9010.298     12.724   2.360  1.00143E+00  1.00600E+00 -4.57411E-03
    9011.023     13.449   2.400  1.00896E+00  1.00708E+00  1.88636E-03
    9011.761     14.187   2.440  1.03033E+00  1.00795E+00  2.23829E-02
    9012.511     14.937   2.480  1.05605E+00  1.00858E+00  4.74722E-02
    9013.273     15.699   2.520  1.07281E+00  1.00901E+00  6.37943E-02
    9014.047     16.473   2.560  1.07672E+00  1.00927E+00  6.74583E-02
    9014.833     17.259   2.600  1.06827E+00  1.00935E+00  5.89123E-02
    9015.632     18.058   2.640  1.05049E+00  1.00930E+00  4.11843E-02
    9016.443     18.869   2.680  1.02763E+00  1.00910E+00  1.85258E-02
    9017.266     19.691   2.720  1.00350E+00  1.00878E+00 -5.27667E-03
    9018.101     20.527   2.760  9.79883E-01  1.00838E+00 -2.84972E-02
    9018.948     21.374   2.800  9.56567E-01  1.00788E+00 -5.13078E-02
    9019.808     22.234   2.840  9.33235E-01  1.00729E+00 -7.40532E-02
    9020.679     23.105   2.880  9.10301E-01  1.00665E+00 -9.63458E-02
    9021.563     23.989   2.920  8.88766E-01  1.00594E+00 -1.17170E-01
    9022.459     24.885   2.960  8.70346E-01  1.00520E+00 -1.34858E-01
    9023.368     25.794   3.000  8.56545E-01  1.00443E+00 -1.47889E-01
    9024.288     26.714   3.040  8.48134E-01  1.00363E+00 -1.55498E-01
    9025.221     27.647   3.080  8.45136E-01  1.00282E+00 -1.57686E-01
    9026.166     28.592   3.120  8.47206E-01  1.00203E+00 -1.54825E-01
    9027.123     29.549   3.160  8.53040E-01  1.00122E+00 -1.48183E-01
    9028.092     30.518   3.200  8.61565E-01  1.00044E+00 -1.38875E-01
    9029.074     31.499   3.240  8.71776E-01  9.99685E-01 -1.27909E-01
    9030.067     32.493   3.280  8.82774E-01  9.98942E-01 -1.16168E-01
    9031.073     33.499   3.320  8.94025E-01  9.98211E-01 -1.04187E-01
    9032.091     34.517   3.360  9.05547E-01  9.97539E-01 -9.19923E-02
    9033.121     35.547   3.400  9.17720E-01  9.96907E-01 -7.91870E-02
    9034.164     36.590   3.440  9.30788E-01  9.96316E-01 -6.55273E-02
    9035.218     37.644   3.480  9.45011E-01  9.95767E-01 -5.07557E-02
    9036.285     38.711   3.520  9.60377E-01  9.95263E-01 -3.48857E-02
    9037.364     39.790   3.560  9.76632E-01  9.94826E-01 -1.81945E-02
    9038.455     40.881   3.600  9.93324E-01  9.94437E-01 -1.11323E-03
    9039.559     41.984   3.640  1.00990E+00  9.94116E-01  1.57862E-02
    9040.674     43.100   3.680  1.02556E+00  9.93843E-01  3.17131E-02
    9041.802     44.228   3.720  1.03913E+00  9.93617E-01  4.55166E-02
    9042.942     45.368   3.760  1.04950E+00  9.93460E-01  5.60432E-02
    9044.094     46.520   3.800  1.05579E+00  9.93351E-01  6.24422E-02
    9045.258     47.684   3.840  1.05775E+00  9.93313E-01  6.44376E-02
    9046.435     48.861   3.880  1.05602E+00  9.93322E-01  6.27014E-02
    9047.624     50.049   3.920  1.05188E+00  9.93401E-01  5.84821E-02
    9048.825     51.250   3.960  1.04670E+00  9.93526E-01  5.31740E-02
    9050.038     52.463   4.000  1.04160E+00  9.93695E-01  4.79065E-02
    9051.263     53.689   4.040  1.03722E+00  9.93909E-01  4.33133E-02
    9052.500     54.926   4.080  1.03372E+00  9.94189E-01  3.95320E-02
    9053.750     56.176   4.120  1.03085E+00  9.94513E-01  3.63412E-02
    9055.012     57.438   4.160  1.02850E+00  9.94878E-01  3.36167E-02
    9056.286     58.712   4.200  1.02681E+00  9.95285E-01  3.15247E-02
    9057.572     59.998   4.240  1.02631E+00  9.95731E-01  3.05750E-02
    9058.871     61.297   4.280  1.02757E+00  9.96216E-01  3.13546E-02
    9060.181     62.607   4.320  1.03088E+00  9.96738E-01  3.41465E-02
    9061.504     63.930   4.360  1.03586E+00  9.97294E-01  3.85701E-02
    9062.839     65.265   4.400  1.04154E+00  9.97862E-01  4.36811E-02
    9064.186     66.612   4.440  1.04694E+00  9.98461E-01  4.84791E-02
    9065.546     67.972   4.480  1.05130E+00  9.99069E-01  5.22308E-02
    9066.917     69.343   4.520  1.05429E+00  9.99704E-01  5.45887E-02
    9068.301     70.727   4.560  1.05569E+00  1.00034E+00  5.53444E-02
    9069.697     72.123   4.600  1.05507E+00  1.00099E+00  5.40863E-02
    9071.105     73.531   4.640  1.05191E+00  1.00163E+00  5.02793E-02
    9072.526     74.952   4.680  1.04603E+00  1.00230E+00  4.37276E-02
    9073.958     76.384   4.720  1.03783E+00  1.00294E+00  3.48864E-02
    9075.403     77.829   4.760  1.02828E+00  1.00358E+00  2.47002E-02
    9076.860     79.286   4.800  1.01840E+00  1.00421E+00  1.41823E-02
    9078.329     80.755   4.840  1.00886E+00  1.00484E+00  4.01606E-03
    9079.810     82.236   4.880  9.99932E-01  1.00544E+00 -5.50599E-03
    9081.304     83.730   4.920  9.91662E-01  1.00602E+00 -1.43632E-02
    9082.810     85.235   4.960  9.83966E-01  1.00658E+00 -2.26109E-02
    9084.327     86.753   5.000  9.76992E-01  1.00709E+00 -3.01020E-02
    9085.858     88.283   5.040  9.71215E-01  1.00760E+00 -3.63831E-02
    9087.400     89.826   5.080  9.67274E-01  1.00807E+00 -4.07926E-02
    9088.954     91.380   5.120  9.65731E-01  1.00852E+00 -4.27880E-02
    9090.521     92.947   5.160  9.66479E-01  1.00891E+00 -4.24292E-02
    9092.100     94.526   5.200  9.68753E-01  1.00926E+00 -4.05052E-02
    9093.691     96.117   5.240  9.71314E-01  1.00959E+00 -3.82746E-02
    9095.294     97.720   5.280  9.73072E-01  1.00986E+00 -3.67845E-02
    9096.910     99.335   5.320  9.73860E-01  1.01010E+00 -3.62427E-02
    9098.537    100.963   5.360  9.74031E-01  1.01029E+00 -3.62547E-02
    9100.177    102.603   5.400  9.74335E-01  1.01043E+00 -3.60908E-02
    9101.829    104.255   5.440  9.75381E-01  1.01054E+00 -3.51635E-02
    9103.493    105.919   5.480  9.77306E-01  1.01060E+00 -3.32895E-02
    9105.170    107.595   5.520  9.79871E-01  1.01058E+00 -3.07080E-02
    9106.858    109.284   5.560  9.82540E-01  1.01054E+00 -2.80034E-02
    9108.559    110.985   5.600  9.84592E-01  1.01046E+00 -2.58723E-02
    9110.272    112.698   5.640  9.85637E-01  1.01032E+00 -2.46801E-02
    9111.997    114.423   5.680  9.85988E-01  1.01013E+00 -2.41393E-02
    9113.734    116.160   5.720  9.86425E-01  1.00990E+00 -2.34728E-02
    9115.484    117.910   5.760  9.87787E-01  1.00965E+00 -2.18638E-02
    9117.246    119.672   5.800  9.90266E-01  1.00934E+00 -1.90736E-02
    9119.020    121.445   5.840  9.93369E-01  1.00899E+00 -1.56193E-02
    9120.806    123.232   5.880  9.96287E-01  1.00860E+00 -1.23122E-02
    9122.604    125.030   5.920  9.98586E-01  1.00817E+00 -9.58907E-03
    9124.415    126.840   5.960  1.00054E+00  1.00771E+00 -7.17925E-03
    9126.237    128.663   6.000  1.00299E+00  1.00719E+00 -4.19895E-03
