# # comment:                                                     FEFF 9.9.1  
# # Source:
# # Structure
# # Reduced
# # space
# # abc:
# # angles:
# # sites:
# # POT  SCF 100  7.0000   0, screened core-hole, AFOLP (folp(0)= 1.150)
# # Abs   Z=29 Rmt= 1.368 Rnm= 1.405 K  shell
# # Pot 1 Z=29 Rmt= 1.368 Rnm= 1.405
# # Pot 2 Z= 8 Rmt= 0.924 Rnm= 1.062
# # Gam_ch=1.729E+00 H-L exch Vi= 0.000E+00 Vr= 0.000E+00
# # Mu=-7.860E+00eV kf=1.998E+00 Vint=-1.640E+01eV Rs_int= 1.815
# FMS rfms= 9.0000
# # PATH  Rmax=-1.000,  Keep_limit= 0.00, Heap_limit 0.00  Pwcrit= 2.50%
#  S02=0.950  Temp=   0.00  Debye_temp=   0.00  Global_sig2= 0.00000
#  Energy zero shift, vr, vi    0.00000E+00   0.00000E+00
#  Curved wave amplitude ratio filter   4.000%
#     file         sig2 tot  cw amp ratio   deg  nlegs   reff  inp sig2
#     0/   0 paths used
#  xsedge+ 50, used to normalize mu           2.4536E-04
#  -----------------------------------------------------------------------
#  omega    e    k    mu    mu0     chi     @#
    8984.590    -11.670  -1.000  4.96394E-02  5.86029E-02 -8.96345E-03
    8984.889    -11.371  -0.960  5.30925E-02  6.30173E-02 -9.92481E-03
    8985.176    -11.084  -0.920  5.69232E-02  6.79347E-02 -1.10115E-02
    8985.450    -10.810  -0.880  6.11875E-02  7.34302E-02 -1.22427E-02
    8985.712    -10.548  -0.840  6.59503E-02  7.95909E-02 -1.36406E-02
    8985.962    -10.298  -0.800  7.12869E-02  8.65181E-02 -1.52312E-02
    8986.200    -10.060  -0.760  7.72836E-02  9.43279E-02 -1.70444E-02
    8986.425     -9.835  -0.720  8.40379E-02  1.03152E-01 -1.91140E-02
    8986.639     -9.621  -0.680  9.16569E-02  1.13135E-01 -2.14778E-02
    8986.840     -9.420  -0.640  1.00254E-01  1.24430E-01 -2.41758E-02
    8987.029     -9.231  -0.600  1.09939E-01  1.37187E-01 -2.72476E-02
    8987.205     -9.055  -0.560  1.20808E-01  1.51535E-01 -3.07272E-02
    8987.370     -8.890  -0.520  1.32916E-01  1.67551E-01 -3.46351E-02
    8987.522     -8.738  -0.480  1.46254E-01  1.85221E-01 -3.89668E-02
    8987.663     -8.597  -0.440  1.60707E-01  2.04387E-01 -4.36803E-02
    8987.791     -8.469  -0.400  1.76031E-01  2.24716E-01 -4.86851E-02
    8987.907     -8.353  -0.360  1.91838E-01  2.45678E-01 -5.38395E-02
    8988.010     -8.250  -0.320  2.07626E-01  2.66587E-01 -5.89610E-02
    8988.102     -8.158  -0.280  2.22829E-01  2.86680E-01 -6.38508E-02
    8988.181     -8.079  -0.240  2.36902E-01  3.05226E-01 -6.83236E-02
    8988.248     -8.012  -0.200  2.49380E-01  3.21612E-01 -7.22323E-02
    8988.303     -7.957  -0.160  2.59913E-01  3.35392E-01 -7.54791E-02
    8988.345     -7.915  -0.120  2.68269E-01  3.46281E-01 -7.80121E-02
    8988.376     -7.884  -0.080  2.74310E-01  3.54122E-01 -7.98127E-02
    8988.400     -7.860   0.000  2.79188E-01  3.60419E-01 -8.12316E-02
    8988.455     -7.805   0.120  2.90195E-01  3.74618E-01 -8.44229E-02
    8988.498     -7.762   0.160  2.98758E-01  3.85642E-01 -8.68838E-02
    8988.553     -7.707   0.200  3.09739E-01  3.99712E-01 -8.99734E-02
    8988.620     -7.640   0.240  3.23026E-01  4.16629E-01 -9.36038E-02
    8988.699     -7.561   0.280  3.38403E-01  4.36027E-01 -9.76236E-02
    8988.790     -7.470   0.320  3.55546E-01  4.57376E-01 -1.01831E-01
    8988.894     -7.366   0.360  3.74062E-01  4.80070E-01 -1.06008E-01
    8989.010     -7.250   0.400  3.93460E-01  5.03397E-01 -1.09937E-01
    8989.138     -7.122   0.440  4.13278E-01  5.26745E-01 -1.13467E-01
    8989.278     -6.982   0.480  4.33046E-01  5.49619E-01 -1.16573E-01
    8989.431     -6.829   0.520  4.52335E-01  5.71715E-01 -1.19380E-01
    8989.595     -6.665   0.560  4.70622E-01  5.92829E-01 -1.22207E-01
    8989.772     -6.488   0.600  4.87421E-01  6.12961E-01 -1.25540E-01
    8989.961     -6.299   0.640  5.02081E-01  6.32132E-01 -1.30051E-01
    8990.162     -6.098   0.680  5.13916E-01  6.50426E-01 -1.36509E-01
    8990.375     -5.885   0.720  5.22266E-01  6.67961E-01 -1.45695E-01
    8990.601     -5.659   0.760  5.26564E-01  6.84776E-01 -1.58212E-01
    8990.839     -5.421   0.800  5.26821E-01  7.01019E-01 -1.74198E-01
    8991.089     -5.171   0.840  5.23578E-01  7.16702E-01 -1.93125E-01
    8991.351     -4.909   0.880  5.18251E-01  7.31902E-01 -2.13651E-01
    8991.625     -4.635   0.920  5.12904E-01  7.46664E-01 -2.33760E-01
    8991.912     -4.348   0.960  5.09929E-01  7.60996E-01 -2.51067E-01
    8992.210     -4.050   1.000  5.11674E-01  7.74916E-01 -2.63242E-01
    8992.521     -3.739   1.040  5.19933E-01  7.88433E-01 -2.68500E-01
    8992.844     -3.416   1.080  5.35442E-01  8.01530E-01 -2.66088E-01
    8993.180     -3.080   1.120  5.57677E-01  8.14220E-01 -2.56543E-01
    8993.527     -2.733   1.160  5.85132E-01  8.26474E-01 -2.41342E-01
    8993.887     -2.373   1.200  6.16191E-01  8.38279E-01 -2.22088E-01
    8994.259     -2.001   1.240  6.49099E-01  8.49641E-01 -2.00542E-01
    8994.643     -1.617   1.280  6.80786E-01  8.60542E-01 -1.79756E-01
    8995.039     -1.221   1.320  7.07120E-01  8.70966E-01 -1.63847E-01
    8995.447     -0.813   1.360  7.26190E-01  8.80894E-01 -1.54704E-01
    8995.868     -0.392   1.400  7.40901E-01  8.90326E-01 -1.49425E-01
    8996.301      0.041   1.440  7.57116E-01  8.99246E-01 -1.42130E-01
    8996.746      0.486   1.480  7.80142E-01  9.07678E-01 -1.27536E-01
    8997.203      0.943   1.520  8.13353E-01  9.15603E-01 -1.02250E-01
    8997.672      1.412   1.560  8.59180E-01  9.23006E-01 -6.38262E-02
    8998.154      1.894   1.600  9.19576E-01  9.29935E-01 -1.03591E-02
    8998.648      2.388   1.640  9.93826E-01  9.36355E-01  5.74716E-02
    8999.154      2.894   1.680  1.07484E+00  9.42313E-01  1.32522E-01
    8999.672      3.412   1.720  1.14651E+00  9.47776E-01  1.98734E-01
    9000.202      3.942   1.760  1.19035E+00  9.52815E-01  2.37536E-01
    9000.745      4.485   1.800  1.20092E+00  9.57399E-01  2.43522E-01
    9001.299      5.039   1.840  1.18914E+00  9.61579E-01  2.27565E-01
    9001.866      5.606   1.880  1.16645E+00  9.65344E-01  2.01109E-01
    9002.445      6.185   1.920  1.13694E+00  9.68727E-01  1.68208E-01
    9003.037      6.777   1.960  1.10306E+00  9.71760E-01  1.31299E-01
    9003.640      7.380   2.000  1.06913E+00  9.74453E-01  9.46807E-02
    9004.256      7.996   2.040  1.03923E+00  9.76839E-01  6.23926E-02
    9004.884      8.624   2.080  1.01682E+00  9.78930E-01  3.78895E-02
    9005.524      9.264   2.120  1.00718E+00  9.80735E-01  2.64433E-02
    9006.176      9.916   2.160  1.01686E+00  9.82308E-01  3.45535E-02
    9006.841     10.581   2.200  1.04666E+00  9.83639E-01  6.30171E-02
    9007.517     11.257   2.240  1.08352E+00  9.84760E-01  9.87582E-02
    9008.206     11.946   2.280  1.10576E+00  9.85701E-01  1.20056E-01
    9008.907     12.647   2.320  1.10674E+00  9.86471E-01  1.20266E-01
    9009.620     13.360   2.360  1.10025E+00  9.87080E-01  1.13169E-01
    9010.346     14.086   2.400  1.09273E+00  9.87559E-01  1.05174E-01
    9011.083     14.823   2.440  1.07360E+00  9.87936E-01  8.56626E-02
    9011.833     15.573   2.480  1.04707E+00  9.88199E-01  5.88681E-02
    9012.595     16.335   2.520  1.01475E+00  9.88375E-01  2.63763E-02
    9013.369     17.109   2.560  9.81955E-01  9.88472E-01 -6.51656E-03
    9014.156     17.896   2.600  9.53148E-01  9.88539E-01 -3.53908E-02
    9014.954     18.694   2.640  9.31300E-01  9.88540E-01 -5.72402E-02
    9015.765     19.505   2.680  9.18054E-01  9.88501E-01 -7.04470E-02
    9016.588     20.328   2.720  9.12576E-01  9.88448E-01 -7.58727E-02
    9017.423     21.163   2.760  9.13334E-01  9.88389E-01 -7.50548E-02
    9018.271     22.011   2.800  9.17679E-01  9.88325E-01 -7.06460E-02
    9019.130     22.870   2.840  9.23928E-01  9.88261E-01 -6.43333E-02
    9020.002     23.742   2.880  9.31250E-01  9.88200E-01 -5.69498E-02
    9020.886     24.626   2.920  9.39530E-01  9.88167E-01 -4.86361E-02
    9021.782     25.522   2.960  9.48917E-01  9.88143E-01 -3.92260E-02
    9022.690     26.430   3.000  9.59777E-01  9.88150E-01 -2.83733E-02
    9023.611     27.351   3.040  9.72175E-01  9.88193E-01 -1.60171E-02
    9024.543     28.283   3.080  9.85694E-01  9.88271E-01 -2.57789E-03
    9025.488     29.228   3.120  9.99847E-01  9.88367E-01  1.14792E-02
    9026.445     30.185   3.160  1.01382E+00  9.88523E-01  2.53000E-02
    9027.415     31.155   3.200  1.02667E+00  9.88719E-01  3.79541E-02
    9028.396     32.136   3.240  1.03727E+00  9.88956E-01  4.83131E-02
    9029.390     33.130   3.280  1.04471E+00  9.89232E-01  5.54793E-02
    9030.395     34.135   3.320  1.04849E+00  9.89549E-01  5.89403E-02
    9031.413     35.154   3.360  1.04830E+00  9.89907E-01  5.83947E-02
    9032.444     36.184   3.400  1.04380E+00  9.90305E-01  5.34979E-02
    9033.486     37.226   3.440  1.03512E+00  9.90764E-01  4.43582E-02
    9034.541     38.281   3.480  1.02268E+00  9.91240E-01  3.14390E-02
    9035.608     39.348   3.520  1.00741E+00  9.91754E-01  1.56520E-02
    9036.687     40.427   3.560  9.90544E-01  9.92305E-01 -1.76113E-03
    9037.778     41.518   3.600  9.73457E-01  9.92893E-01 -1.94355E-02
    9038.881     42.621   3.640  9.57208E-01  9.93515E-01 -3.63073E-02
    9039.997     43.737   3.680  9.42666E-01  9.94149E-01 -5.14830E-02
    9041.124     44.864   3.720  9.30644E-01  9.94815E-01 -6.41716E-02
    9042.264     46.004   3.760  9.21878E-01  9.95512E-01 -7.36342E-02
    9043.416     47.156   3.800  9.16911E-01  9.96215E-01 -7.93042E-02
    9044.581     48.321   3.840  9.15885E-01  9.96925E-01 -8.10401E-02
    9045.757     49.497   3.880  9.18349E-01  9.97661E-01 -7.93116E-02
    9046.946     50.686   3.920  9.23265E-01  9.98399E-01 -7.51341E-02
    9048.147     51.887   3.960  9.29619E-01  9.99137E-01 -6.95179E-02
    9049.360     53.100   4.000  9.36884E-01  9.99872E-01 -6.29878E-02
    9050.585     54.325   4.040  9.45088E-01  1.00060E+00 -5.55159E-02
    9051.823     55.563   4.080  9.54455E-01  1.00131E+00 -4.68544E-02
    9053.072     56.813   4.120  9.65018E-01  1.00203E+00 -3.70106E-02
    9054.334     58.074   4.160  9.76336E-01  1.00272E+00 -2.63832E-02
    9055.608     59.348   4.200  9.87371E-01  1.00338E+00 -1.60056E-02
    9056.895     60.635   4.240  9.96683E-01  1.00402E+00 -7.33794E-03
    9058.193     61.933   4.280  1.00312E+00  1.00463E+00 -1.51021E-03
    9059.504     63.244   4.320  1.00676E+00  1.00523E+00  1.53390E-03
    9060.827     64.567   4.360  1.00896E+00  1.00579E+00  3.17305E-03
    9062.162     65.902   4.400  1.01143E+00  1.00631E+00  5.11684E-03
    9063.509     67.249   4.440  1.01512E+00  1.00679E+00  8.32460E-03
    9064.868     68.608   4.480  1.02006E+00  1.00723E+00  1.28285E-02
    9066.240     69.980   4.520  1.02593E+00  1.00763E+00  1.83004E-02
    9067.624     71.364   4.560  1.03266E+00  1.00801E+00  2.46531E-02
    9069.020     72.760   4.600  1.04045E+00  1.00832E+00  3.21289E-02
    9070.428     74.168   4.640  1.04958E+00  1.00859E+00  4.09955E-02
    9071.848     75.588   4.680  1.06017E+00  1.00879E+00  5.13776E-02
    9073.281     77.021   4.720  1.07224E+00  1.00897E+00  6.32736E-02
    9074.725     78.465   4.760  1.08586E+00  1.00910E+00  7.67598E-02
    9076.182     79.922   4.800  1.10135E+00  1.00918E+00  9.21785E-02
    9077.651     81.391   4.840  1.11887E+00  1.00922E+00  1.09645E-01
    9079.133     82.873   4.880  1.13675E+00  1.00920E+00  1.27549E-01
    9080.626     84.366   4.920  1.15057E+00  1.00914E+00  1.41425E-01
    9082.132     85.872   4.960  1.15429E+00  1.00903E+00  1.45258E-01
    9083.650     87.390   5.000  1.14378E+00  1.00889E+00  1.34889E-01
    9085.180     88.920   5.040  1.11926E+00  1.00870E+00  1.10561E-01
    9086.722     90.462   5.080  1.08515E+00  1.00846E+00  7.66832E-02
    9088.277     92.017   5.120  1.04760E+00  1.00819E+00  3.94146E-02
    9089.843     93.583   5.160  1.01194E+00  1.00787E+00  4.06402E-03
    9091.422     95.162   5.200  9.81217E-01  1.00752E+00 -2.63021E-02
    9093.013     96.753   5.240  9.56198E-01  1.00713E+00 -5.09306E-02
    9094.617     98.357   5.280  9.35601E-01  1.00672E+00 -7.11224E-02
    9096.232     99.972   5.320  9.17038E-01  1.00628E+00 -8.92446E-02
    9097.860    101.600   5.360  8.98405E-01  1.00581E+00 -1.07402E-01
    9099.499    103.239   5.400  8.79240E-01  1.00532E+00 -1.26082E-01
    9101.151    104.891   5.440  8.61294E-01  1.00483E+00 -1.43532E-01
    9102.816    106.556   5.480  8.47421E-01  1.00428E+00 -1.56857E-01
    9104.492    108.232   5.520  8.39501E-01  1.00374E+00 -1.64244E-01
    9106.181    109.921   5.560  8.37492E-01  1.00318E+00 -1.65692E-01
    9107.881    111.621   5.600  8.41333E-01  1.00262E+00 -1.61286E-01
    9109.594    113.334   5.640  8.51771E-01  1.00205E+00 -1.50280E-01
    9111.320    115.060   5.680  8.68911E-01  1.00148E+00 -1.32571E-01
    9113.057    116.797   5.720  8.91149E-01  1.00091E+00 -1.09764E-01
    9114.806    118.546   5.760  9.16610E-01  1.00032E+00 -8.37092E-02
    9116.568    120.308   5.800  9.44598E-01  9.99751E-01 -5.51536E-02
    9118.342    122.082   5.840  9.74427E-01  9.99190E-01 -2.47630E-02
    9120.128    123.868   5.880  1.00449E+00  9.98636E-01  5.84955E-03
    9121.927    125.667   5.920  1.03234E+00  9.98091E-01  3.42470E-02
    9123.737    127.477   5.960  1.05426E+00  9.97594E-01  5.66669E-02
    9125.560    129.300   6.000  1.06649E+00  9.97085E-01  6.94092E-02
