# # comment:                                                     FEFF 9.9.1  
# # Source:
# # Structure
# # Reduced
# # space
# # abc:
# # angles:137.251305
# # sites:
# # POT  SCF 100  7.0000   0, screened core-hole, AFOLP (folp(0)= 1.150)
# # Abs   Z=29 Rmt= 1.246 Rnm= 1.310 K  shell
# # Pot 1 Z= 3 Rmt= 1.211 Rnm= 1.267
# # Pot 2 Z=22 Rmt= 1.285 Rnm= 1.406
# # Pot 3 Z=29 Rmt= 1.246 Rnm= 1.310
# # Pot 4 Z= 8 Rmt= 1.048 Rnm= 1.105
# # Gam_ch=1.729E+00 H-L exch Vi= 0.000E+00 Vr= 0.000E+00
# # Mu=-9.963E+00eV kf=2.100E+00 Vint=-1.863E+01eV Rs_int= 1.727
# FMS rfms= 9.0000
# # PATH  Rmax=-1.000,  Keep_limit= 0.00, Heap_limit 0.00  Pwcrit= 2.50%
#  S02=0.950  Temp=   0.00  Debye_temp=   0.00  Global_sig2= 0.00000
#  Energy zero shift, vr, vi    0.00000E+00   0.00000E+00
#  Curved wave amplitude ratio filter   4.000%
#     file         sig2 tot  cw amp ratio   deg  nlegs   reff  inp sig2
#     0/   0 paths used
#  xsedge+ 50, used to normalize mu           2.4600E-04
#  -----------------------------------------------------------------------
#  omega    e    k    mu    mu0     chi     @#
    8985.350    -13.773  -1.000  3.59126E-02  5.32655E-02 -1.73530E-02
    8985.648    -13.474  -0.960  3.75951E-02  5.71218E-02 -1.95267E-02
    8985.935    -13.188  -0.920  3.93840E-02  6.14057E-02 -2.20217E-02
    8986.209    -12.913  -0.880  4.12896E-02  6.61802E-02 -2.48905E-02
    8986.471    -12.651  -0.840  4.33241E-02  7.15184E-02 -2.81943E-02
    8986.721    -12.401  -0.800  4.55011E-02  7.75049E-02 -3.20039E-02
    8986.959    -12.163  -0.760  4.78365E-02  8.42371E-02 -3.64006E-02
    8987.184    -11.938  -0.720  5.03483E-02  9.18248E-02 -4.14765E-02
    8987.398    -11.725  -0.680  5.30560E-02  1.00389E-01 -4.73328E-02
    8987.599    -11.523  -0.640  5.59803E-02  1.10057E-01 -5.40764E-02
    8987.788    -11.334  -0.600  5.91407E-02  1.20954E-01 -6.18130E-02
    8987.965    -11.158  -0.560  6.25529E-02  1.33187E-01 -7.06339E-02
    8988.129    -10.993  -0.520  6.62231E-02  1.46819E-01 -8.05962E-02
    8988.282    -10.841  -0.480  7.01414E-02  1.61837E-01 -9.16954E-02
    8988.422    -10.700  -0.440  7.42731E-02  1.78108E-01 -1.03834E-01
    8988.550    -10.572  -0.400  7.85522E-02  1.95349E-01 -1.16797E-01
    8988.666    -10.457  -0.360  8.28787E-02  2.13116E-01 -1.30237E-01
    8988.769    -10.353  -0.320  8.71250E-02  2.30832E-01 -1.43707E-01
    8988.861    -10.262  -0.280  9.11507E-02  2.47855E-01 -1.56705E-01
    8988.940    -10.182  -0.240  9.48231E-02  2.63570E-01 -1.68747E-01
    8989.007    -10.115  -0.200  9.80344E-02  2.77458E-01 -1.79424E-01
    8989.062    -10.060  -0.160  1.00711E-01  2.89142E-01 -1.88431E-01
    8989.105    -10.018  -0.120  1.02811E-01  2.98379E-01 -1.95568E-01
    8989.135     -9.987  -0.080  1.04318E-01  3.05034E-01 -2.00716E-01
    8989.159     -9.963   0.000  1.05529E-01  3.10382E-01 -2.04853E-01
    8989.214     -9.908   0.120  1.08222E-01  3.22448E-01 -2.14226E-01
    8989.257     -9.865   0.160  1.10244E-01  3.31810E-01 -2.21566E-01
    8989.312     -9.810   0.200  1.12798E-01  3.43794E-01 -2.30996E-01
    8989.379     -9.743   0.240  1.15749E-01  3.58179E-01 -2.42430E-01
    8989.458     -9.664   0.280  1.19048E-01  3.74741E-01 -2.55693E-01
    8989.550     -9.573   0.320  1.22526E-01  3.93002E-01 -2.70476E-01
    8989.653     -9.469   0.360  1.26085E-01  4.12467E-01 -2.86382E-01
    8989.769     -9.353   0.400  1.29715E-01  4.32584E-01 -3.02869E-01
    8989.897     -9.225   0.440  1.33467E-01  4.52827E-01 -3.19360E-01
    8990.037     -9.085   0.480  1.37479E-01  4.72788E-01 -3.35309E-01
    8990.190     -8.933   0.520  1.41990E-01  4.92239E-01 -3.50249E-01
    8990.354     -8.768   0.560  1.47107E-01  5.11025E-01 -3.63918E-01
    8990.531     -8.591   0.600  1.53045E-01  5.29134E-01 -3.76089E-01
    8990.720     -8.402   0.640  1.60192E-01  5.46600E-01 -3.86408E-01
    8990.921     -8.201   0.680  1.69336E-01  5.63514E-01 -3.94178E-01
    8991.135     -7.988   0.720  1.81471E-01  5.79938E-01 -3.98467E-01
    8991.360     -7.762   0.760  1.97501E-01  5.95995E-01 -3.98494E-01
    8991.598     -7.524   0.800  2.17575E-01  6.11716E-01 -3.94141E-01
    8991.848     -7.275   0.840  2.41139E-01  6.27201E-01 -3.86062E-01
    8992.110     -7.012   0.880  2.67198E-01  6.42455E-01 -3.75257E-01
    8992.384     -6.738   0.920  2.95463E-01  6.57554E-01 -3.62091E-01
    8992.671     -6.452   0.960  3.26548E-01  6.72499E-01 -3.45950E-01
    8992.969     -6.153   1.000  3.61726E-01  6.87278E-01 -3.25552E-01
    8993.280     -5.842   1.040  4.03320E-01  7.01936E-01 -2.98616E-01
    8993.603     -5.519   1.080  4.55700E-01  7.16427E-01 -2.60727E-01
    8993.939     -5.184   1.120  5.23270E-01  7.30761E-01 -2.07491E-01
    8994.286     -4.836   1.160  5.99216E-01  7.44902E-01 -1.45687E-01
    8994.646     -4.476   1.200  6.57790E-01  7.58851E-01 -1.01061E-01
    8995.018     -4.105   1.240  6.80479E-01  7.72564E-01 -9.20856E-02
    8995.402     -3.721   1.280  6.84045E-01  7.86037E-01 -1.01992E-01
    8995.798     -3.324   1.320  6.93592E-01  7.99221E-01 -1.05630E-01
    8996.206     -2.916   1.360  7.09971E-01  8.12092E-01 -1.02121E-01
    8996.627     -2.495   1.400  7.21198E-01  8.24642E-01 -1.03443E-01
    8997.060     -2.062   1.440  7.40033E-01  8.36820E-01 -9.67863E-02
    8997.505     -1.617   1.480  7.87513E-01  8.48639E-01 -6.11258E-02
    8997.962     -1.160   1.520  8.50339E-01  8.60051E-01 -9.71222E-03
    8998.431     -0.691   1.560  9.06702E-01  8.71031E-01  3.56718E-02
    8998.913     -0.209   1.600  9.49697E-01  8.81591E-01  6.81061E-02
    8999.407      0.285   1.640  9.83021E-01  8.91708E-01  9.13125E-02
    8999.913      0.790   1.680  1.03153E+00  9.01356E-01  1.30174E-01
    9000.431      1.309   1.720  1.13100E+00  9.10532E-01  2.20466E-01
    9000.961      1.839   1.760  1.28140E+00  9.19236E-01  3.62165E-01
    9001.504      2.382   1.800  1.43669E+00  9.27467E-01  5.09227E-01
    9002.059      2.936   1.840  1.57063E+00  9.35203E-01  6.35425E-01
    9002.626      3.503   1.880  1.69512E+00  9.42469E-01  7.52652E-01
    9003.205      4.082   1.920  1.79240E+00  9.49266E-01  8.43135E-01
    9003.796      4.674   1.960  1.77559E+00  9.55579E-01  8.20014E-01
    9004.399      5.277   2.000  1.62541E+00  9.61453E-01  6.63954E-01
    9005.015      5.893   2.040  1.43136E+00  9.66872E-01  4.64492E-01
    9005.643      6.521   2.080  1.27333E+00  9.71846E-01  3.01482E-01
    9006.283      7.161   2.120  1.16503E+00  9.76400E-01  1.88629E-01
    9006.935      7.813   2.160  1.08188E+00  9.80560E-01  1.01322E-01
    9007.600      8.477   2.200  1.00145E+00  9.84317E-01  1.71336E-02
    9008.276      9.154   2.240  9.21530E-01  9.87700E-01 -6.61703E-02
    9008.965      9.843   2.280  8.53172E-01  9.90716E-01 -1.37544E-01
    9009.666     10.544   2.320  8.04573E-01  9.93394E-01 -1.88821E-01
    9010.380     11.257   2.360  7.77932E-01  9.95744E-01 -2.17812E-01
    9011.105     11.983   2.400  7.72167E-01  9.97796E-01 -2.25629E-01
    9011.843     12.720   2.440  7.84251E-01  9.99539E-01 -2.15288E-01
    9012.592     13.470   2.480  8.13260E-01  1.00104E+00 -1.87783E-01
    9013.354     14.232   2.520  8.61483E-01  1.00228E+00 -1.40797E-01
    9014.129     15.006   2.560  9.08720E-01  1.00329E+00 -9.45747E-02
    9014.915     15.793   2.600  9.43566E-01  1.00408E+00 -6.05128E-02
    9015.714     16.591   2.640  9.68685E-01  1.00468E+00 -3.59960E-02
    9016.524     17.402   2.680  9.88946E-01  1.00511E+00 -1.61645E-02
    9017.347     18.225   2.720  1.00646E+00  1.00535E+00  1.10860E-03
    9018.182     19.060   2.760  1.02063E+00  1.00546E+00  1.51650E-02
    9019.030     19.907   2.800  1.02995E+00  1.00544E+00  2.45110E-02
    9019.889     20.767   2.840  1.03301E+00  1.00530E+00  2.77121E-02
    9020.761     21.639   2.880  1.02904E+00  1.00506E+00  2.39806E-02
    9021.645     22.523   2.920  1.01722E+00  1.00472E+00  1.25001E-02
    9022.541     23.419   2.960  9.96778E-01  1.00431E+00 -7.53597E-03
    9023.449     24.327   3.000  9.68260E-01  1.00383E+00 -3.55722E-02
    9024.370     25.248   3.040  9.35299E-01  1.00328E+00 -6.79828E-02
    9025.303     26.180   3.080  9.03110E-01  1.00271E+00 -9.95984E-02
    9026.247     27.125   3.120  8.75941E-01  1.00210E+00 -1.26155E-01
    9027.204     28.082   3.160  8.55531E-01  1.00145E+00 -1.45918E-01
    9028.174     29.051   3.200  8.42362E-01  1.00079E+00 -1.58430E-01
    9029.155     30.033   3.240  8.36344E-01  1.00013E+00 -1.63787E-01
    9030.149     31.027   3.280  8.37075E-01  9.99469E-01 -1.62394E-01
    9031.155     32.032   3.320  8.44016E-01  9.98807E-01 -1.54791E-01
    9032.173     33.050   3.360  8.56712E-01  9.98149E-01 -1.41437E-01
    9033.203     34.081   3.400  8.74822E-01  9.97518E-01 -1.22696E-01
    9034.245     35.123   3.440  8.97553E-01  9.96897E-01 -9.93437E-02
    9035.300     36.178   3.480  9.24155E-01  9.96307E-01 -7.21527E-02
    9036.367     37.244   3.520  9.53447E-01  9.95753E-01 -4.23061E-02
    9037.446     38.323   3.560  9.83744E-01  9.95213E-01 -1.14691E-02
    9038.537     39.415   3.600  1.01309E+00  9.94733E-01  1.83604E-02
    9039.640     40.518   3.640  1.03941E+00  9.94272E-01  4.51403E-02
    9040.756     41.633   3.680  1.06097E+00  9.93871E-01  6.70962E-02
    9041.884     42.761   3.720  1.07679E+00  9.93513E-01  8.32773E-02
    9043.024     43.901   3.760  1.08692E+00  9.93196E-01  9.37233E-02
    9044.176     45.053   3.800  1.09217E+00  9.92921E-01  9.92500E-02
    9045.340     46.218   3.840  1.09391E+00  9.92685E-01  1.01227E-01
    9046.517     47.394   3.880  1.09377E+00  9.92493E-01  1.01280E-01
    9047.705     48.583   3.920  1.09296E+00  9.92366E-01  1.00596E-01
    9048.906     49.784   3.960  1.09183E+00  9.92259E-01  9.95698E-02
    9050.119     50.997   4.000  1.09002E+00  9.92215E-01  9.78032E-02
    9051.345     52.222   4.040  1.08659E+00  9.92213E-01  9.43798E-02
    9052.582     53.460   4.080  1.08061E+00  9.92252E-01  8.83563E-02
    9053.832     54.709   4.120  1.07158E+00  9.92333E-01  7.92445E-02
    9055.094     55.971   4.160  1.05972E+00  9.92453E-01  6.72678E-02
    9056.368     57.245   4.200  1.04571E+00  9.92611E-01  5.31033E-02
    9057.654     58.532   4.240  1.03045E+00  9.92808E-01  3.76374E-02
    9058.952     59.830   4.280  1.01473E+00  9.93043E-01  2.16869E-02
    9060.263     61.141   4.320  9.99177E-01  9.93313E-01  5.86447E-03
    9061.586     62.463   4.360  9.84228E-01  9.93596E-01 -9.36793E-03
    9062.921     63.798   4.400  9.70569E-01  9.93913E-01 -2.33435E-02
    9064.268     65.146   4.440  9.59311E-01  9.94261E-01 -3.49505E-02
    9065.627     66.505   4.480  9.51661E-01  9.94619E-01 -4.29573E-02
    9066.999     67.877   4.520  9.48369E-01  9.95006E-01 -4.66373E-02
    9068.383     69.260   4.560  9.49166E-01  9.95400E-01 -4.62348E-02
    9069.779     70.656   4.600  9.53064E-01  9.95800E-01 -4.27352E-02
    9071.187     72.065   4.640  9.59066E-01  9.96225E-01 -3.71595E-02
    9072.607     73.485   4.680  9.66555E-01  9.96654E-01 -3.00989E-02
    9074.040     74.918   4.720  9.75400E-01  9.97084E-01 -2.16838E-02
    9075.485     76.362   4.760  9.85659E-01  9.97514E-01 -1.18548E-02
    9076.942     77.819   4.800  9.97279E-01  9.97942E-01 -6.63480E-04
    9078.411     79.288   4.840  1.00991E+00  9.98369E-01  1.15457E-02
    9079.892     80.770   4.880  1.02283E+00  9.98793E-01  2.40413E-02
    9081.385     82.263   4.920  1.03492E+00  9.99212E-01  3.57094E-02
    9082.891     83.769   4.960  1.04477E+00  9.99602E-01  4.51633E-02
    9084.409     85.287   5.000  1.05107E+00  9.99986E-01  5.10794E-02
    9085.939     86.817   5.040  1.05300E+00  1.00036E+00  5.26430E-02
    9087.481     88.359   5.080  1.05045E+00  1.00071E+00  4.97405E-02
    9089.036     89.914   5.120  1.04370E+00  1.00104E+00  4.26649E-02
    9090.603     91.480   5.160  1.03309E+00  1.00134E+00  3.17546E-02
    9092.181     93.059   5.200  1.01903E+00  1.00160E+00  1.74301E-02
    9093.773     94.650   5.240  1.00221E+00  1.00185E+00  3.60117E-04
    9095.376     96.253   5.280  9.83759E-01  1.00207E+00 -1.83099E-02
    9096.991     97.869   5.320  9.65441E-01  1.00225E+00 -3.68083E-02
    9098.619     99.496   5.360  9.49479E-01  1.00242E+00 -5.29378E-02
    9100.259    101.136   5.400  9.37686E-01  1.00255E+00 -6.48605E-02
    9101.911    102.788   5.440  9.30796E-01  1.00264E+00 -7.18408E-02
    9103.575    104.453   5.480  9.28435E-01  1.00269E+00 -7.42522E-02
    9105.251    106.129   5.520  9.29741E-01  1.00270E+00 -7.29579E-02
    9106.940    107.817   5.560  9.33623E-01  1.00267E+00 -6.90498E-02
    9108.641    109.518   5.600  9.38792E-01  1.00263E+00 -6.38395E-02
    9110.354    111.231   5.640  9.43967E-01  1.00253E+00 -5.85616E-02
    9112.079    112.956   5.680  9.48555E-01  1.00241E+00 -5.38563E-02
    9113.816    114.694   5.720  9.52443E-01  1.00226E+00 -4.98132E-02
    9115.566    116.443   5.760  9.55756E-01  1.00206E+00 -4.63073E-02
    9117.327    118.205   5.800  9.58747E-01  1.00183E+00 -4.30873E-02
    9119.101    119.979   5.840  9.62032E-01  1.00159E+00 -3.95601E-02
    9120.887    121.765   5.880  9.66451E-01  1.00129E+00 -3.48419E-02
    9122.686    123.563   5.920  9.72854E-01  1.00098E+00 -2.81301E-02
    9124.496    125.374   5.960  9.81650E-01  1.00064E+00 -1.89931E-02
    9126.319    127.197   6.000  9.93297E-01  1.00025E+00 -6.94956E-03
