# # comment:                                                     FEFF 9.9.1  
# # Source:
# # Structure
# # Reduced
# # space
# # abc:
# # angles:
# # sites:
# # POT  SCF 100  7.0000   0, screened core-hole, AFOLP (folp(0)= 1.150)
# # Abs   Z=29 Rmt= 1.190 Rnm= 1.288 K  shell
# # Pot 1 Z=29 Rmt= 1.179 Rnm= 1.276
# # Pot 2 Z=15 Rmt= 0.939 Rnm= 1.156
# # Pot 3 Z= 8 Rmt= 0.883 Rnm= 1.043
# # Gam_ch=1.729E+00 H-L exch Vi= 0.000E+00 Vr= 0.000E+00
# # Mu=-6.548E+00eV kf=2.496E+00 Vint=-1.721E+01eV Rs_int= 1.453
# FMS rfms= 9.0000
# # PATH  Rmax=-1.000,  Keep_limit= 0.00, Heap_limit 0.00  Pwcrit= 2.50%
#  S02=0.950  Temp=   0.00  Debye_temp=   0.00  Global_sig2= 0.00000
#  Energy zero shift, vr, vi    0.00000E+00   0.00000E+00
#  Curved wave amplitude ratio filter   4.000%
#     file         sig2 tot  cw amp ratio   deg  nlegs   reff  inp sig2
#     0/   0 paths used
#  xsedge+ 50, used to normalize mu           2.4870E-04
#  -----------------------------------------------------------------------
#  omega    e    k    mu    mu0     chi     @#
    8983.314    -10.358  -1.000  4.24194E-02  5.14360E-02 -9.01658E-03
    8983.613    -10.059  -0.960  4.53341E-02  5.51670E-02 -9.83299E-03
    8983.899     -9.773  -0.920  4.85814E-02  5.93159E-02 -1.07344E-02
    8984.174     -9.498  -0.880  5.22127E-02  6.39444E-02 -1.17317E-02
    8984.436     -9.236  -0.840  5.62871E-02  6.91249E-02 -1.28379E-02
    8984.686     -8.986  -0.800  6.08730E-02  7.49413E-02 -1.40682E-02
    8984.923     -8.748  -0.760  6.60485E-02  8.14897E-02 -1.54412E-02
    8985.149     -8.523  -0.720  7.19007E-02  8.88791E-02 -1.69785E-02
    8985.362     -8.309  -0.680  7.85248E-02  9.72296E-02 -1.87049E-02
    8985.564     -8.108  -0.640  8.60206E-02  1.06668E-01 -2.06474E-02
    8985.752     -7.919  -0.600  9.44865E-02  1.17319E-01 -2.28326E-02
    8985.929     -7.743  -0.560  1.04009E-01  1.29290E-01 -2.52806E-02
    8986.094     -7.578  -0.520  1.14648E-01  1.42643E-01 -2.79957E-02
    8986.246     -7.426  -0.480  1.26414E-01  1.57367E-01 -3.09533E-02
    8986.386     -7.285  -0.440  1.39247E-01  1.73331E-01 -3.40842E-02
    8986.514     -7.157  -0.400  1.52991E-01  1.90256E-01 -3.72650E-02
    8986.630     -7.042  -0.360  1.67380E-01  2.07702E-01 -4.03219E-02
    8986.734     -6.938  -0.320  1.82040E-01  2.25098E-01 -4.30580E-02
    8986.825     -6.846  -0.280  1.96513E-01  2.41811E-01 -4.52979E-02
    8986.905     -6.767  -0.240  2.10295E-01  2.57231E-01 -4.69358E-02
    8986.972     -6.700  -0.200  2.22888E-01  2.70851E-01 -4.79634E-02
    8987.027     -6.645  -0.160  2.33837E-01  2.82302E-01 -4.84645E-02
    8987.069     -6.603  -0.120  2.42766E-01  2.91348E-01 -4.85818E-02
    8987.100     -6.572  -0.080  2.49387E-01  2.97862E-01 -4.84746E-02
    8987.124     -6.548   0.000  2.54907E-01  3.03093E-01 -4.81857E-02
    8987.179     -6.493   0.120  2.67034E-01  3.14881E-01 -4.78475E-02
    8987.222     -6.450   0.160  2.76755E-01  3.24045E-01 -4.72906E-02
    8987.276     -6.395   0.200  2.89547E-01  3.35724E-01 -4.61769E-02
    8987.344     -6.328   0.240  3.05564E-01  3.49746E-01 -4.41816E-02
    8987.423     -6.249   0.280  3.24798E-01  3.65816E-01 -4.10176E-02
    8987.514     -6.158   0.320  3.46945E-01  3.83505E-01 -3.65601E-02
    8987.618     -6.054   0.360  3.71170E-01  4.02284E-01 -3.11141E-02
    8987.734     -5.938   0.400  3.95804E-01  4.21589E-01 -2.57850E-02
    8987.862     -5.810   0.440  4.18229E-01  4.40887E-01 -2.26586E-02
    8988.002     -5.670   0.480  4.35245E-01  4.59765E-01 -2.45200E-02
    8988.154     -5.518   0.520  4.44050E-01  4.78010E-01 -3.39599E-02
    8988.319     -5.353   0.560  4.43089E-01  4.95447E-01 -5.23583E-02
    8988.496     -5.176   0.600  4.32573E-01  5.12110E-01 -7.95369E-02
    8988.685     -4.987   0.640  4.13970E-01  5.28017E-01 -1.14047E-01
    8988.886     -4.786   0.680  3.89880E-01  5.43245E-01 -1.53366E-01
    8989.099     -4.573   0.720  3.64072E-01  5.57946E-01 -1.93875E-01
    8989.325     -4.347   0.760  3.40703E-01  5.72169E-01 -2.31466E-01
    8989.562     -4.109   0.800  3.23313E-01  5.86015E-01 -2.62702E-01
    8989.812     -3.859   0.840  3.13899E-01  5.99592E-01 -2.85693E-01
    8990.075     -3.597   0.880  3.12754E-01  6.12917E-01 -3.00163E-01
    8990.349     -3.323   0.920  3.18644E-01  6.26072E-01 -3.07428E-01
    8990.635     -3.036   0.960  3.28906E-01  6.39090E-01 -3.10183E-01
    8990.934     -2.738   1.000  3.40152E-01  6.51991E-01 -3.11839E-01
    8991.245     -2.427   1.040  3.49294E-01  6.64786E-01 -3.15492E-01
    8991.568     -2.104   1.080  3.54518E-01  6.77521E-01 -3.23003E-01
    8991.903     -1.768   1.120  3.56670E-01  6.90133E-01 -3.33463E-01
    8992.251     -1.421   1.160  3.60123E-01  7.02695E-01 -3.42572E-01
    8992.610     -1.061   1.200  3.70696E-01  7.15136E-01 -3.44439E-01
    8992.982     -0.689   1.240  3.91769E-01  7.27480E-01 -3.35711E-01
    8993.366     -0.305   1.280  4.20813E-01  7.39730E-01 -3.18917E-01
    8993.763      0.091   1.320  4.50405E-01  7.51825E-01 -3.01420E-01
    8994.171      0.499   1.360  4.76647E-01  7.63782E-01 -2.87135E-01
    8994.592      0.920   1.400  5.04350E-01  7.75559E-01 -2.71209E-01
    8995.024      1.353   1.440  5.38238E-01  7.87170E-01 -2.48932E-01
    8995.469      1.798   1.480  5.73051E-01  7.98570E-01 -2.25519E-01
    8995.927      2.255   1.520  5.98155E-01  8.09752E-01 -2.11597E-01
    8996.396      2.724   1.560  6.10131E-01  8.20690E-01 -2.10560E-01
    8996.878      3.206   1.600  6.22485E-01  8.31360E-01 -2.08875E-01
    8997.371      3.700   1.640  6.56027E-01  8.41773E-01 -1.85746E-01
    8997.877      4.206   1.680  7.16940E-01  8.51883E-01 -1.34943E-01
    8998.396      4.724   1.720  7.98419E-01  8.61685E-01 -6.32666E-02
    8998.926      5.254   1.760  8.94295E-01  8.71174E-01  2.31203E-02
    8999.468      5.797   1.800  9.96586E-01  8.80326E-01  1.16260E-01
    9000.023      6.351   1.840  1.08526E+00  8.89136E-01  1.96122E-01
    9000.590      6.918   1.880  1.14948E+00  8.97622E-01  2.51858E-01
    9001.169      7.497   1.920  1.20396E+00  9.05719E-01  2.98236E-01
    9001.761      8.089   1.960  1.25004E+00  9.13467E-01  3.36572E-01
    9002.364      8.692   2.000  1.27082E+00  9.20864E-01  3.49961E-01
    9002.980      9.308   2.040  1.26867E+00  9.27869E-01  3.40802E-01
    9003.608      9.936   2.080  1.25732E+00  9.34523E-01  3.22795E-01
    9004.248     10.576   2.120  1.23881E+00  9.40786E-01  2.98024E-01
    9004.900     11.228   2.160  1.21765E+00  9.46701E-01  2.70948E-01
    9005.564     11.893   2.200  1.20367E+00  9.52249E-01  2.51419E-01
    9006.241     12.569   2.240  1.19856E+00  9.57453E-01  2.41103E-01
    9006.930     13.258   2.280  1.19841E+00  9.62296E-01  2.36115E-01
    9007.631     13.959   2.320  1.19998E+00  9.66783E-01  2.33202E-01
    9008.344     14.672   2.360  1.19829E+00  9.70957E-01  2.27329E-01
    9009.070     15.398   2.400  1.18971E+00  9.74781E-01  2.14925E-01
    9009.807     16.135   2.440  1.17862E+00  9.78282E-01  2.00337E-01
    9010.557     16.885   2.480  1.17055E+00  9.81485E-01  1.89063E-01
    9011.319     17.647   2.520  1.16723E+00  9.84398E-01  1.82837E-01
    9012.093     18.421   2.560  1.16652E+00  9.87024E-01  1.79499E-01
    9012.880     19.208   2.600  1.16239E+00  9.89370E-01  1.73024E-01
    9013.678     20.006   2.640  1.15049E+00  9.91461E-01  1.59025E-01
    9014.489     20.817   2.680  1.13026E+00  9.93285E-01  1.36979E-01
    9015.312     21.640   2.720  1.10449E+00  9.94887E-01  1.09603E-01
    9016.147     22.475   2.760  1.08099E+00  9.96257E-01  8.47291E-02
    9016.994     23.323   2.800  1.06262E+00  9.97438E-01  6.51787E-02
    9017.854     24.182   2.840  1.04435E+00  9.98397E-01  4.59507E-02
    9018.726     25.054   2.880  1.02380E+00  9.99180E-01  2.46239E-02
    9019.610     25.938   2.920  1.00039E+00  9.99775E-01  6.17098E-04
    9020.506     26.834   2.960  9.74447E-01  1.00023E+00 -2.57805E-02
    9021.414     27.742   3.000  9.49010E-01  1.00052E+00 -5.15133E-02
    9022.334     28.663   3.040  9.27214E-01  1.00069E+00 -7.34756E-02
    9023.267     29.595   3.080  9.09712E-01  1.00071E+00 -9.09987E-02
    9024.212     30.540   3.120  8.96013E-01  1.00063E+00 -1.04620E-01
    9025.169     31.497   3.160  8.85122E-01  1.00046E+00 -1.15341E-01
    9026.138     32.467   3.200  8.75796E-01  1.00018E+00 -1.24388E-01
    9027.120     33.448   3.240  8.67336E-01  9.99821E-01 -1.32485E-01
    9028.113     34.442   3.280  8.59992E-01  9.99380E-01 -1.39389E-01
    9029.119     35.447   3.320  8.53834E-01  9.98888E-01 -1.45054E-01
    9030.137     36.465   3.360  8.49098E-01  9.98347E-01 -1.49248E-01
    9031.167     37.496   3.400  8.46252E-01  9.97740E-01 -1.51487E-01
    9032.210     38.538   3.440  8.45809E-01  9.97111E-01 -1.51302E-01
    9033.265     39.593   3.480  8.48035E-01  9.96426E-01 -1.48391E-01
    9034.331     40.659   3.520  8.53204E-01  9.95749E-01 -1.42545E-01
    9035.410     41.738   3.560  8.61492E-01  9.95021E-01 -1.33529E-01
    9036.501     42.830   3.600  8.72642E-01  9.94308E-01 -1.21665E-01
    9037.605     43.933   3.640  8.86285E-01  9.93590E-01 -1.07306E-01
    9038.720     45.049   3.680  9.01758E-01  9.92852E-01 -9.10939E-02
    9039.848     46.176   3.720  9.18205E-01  9.92135E-01 -7.39295E-02
    9040.988     47.316   3.760  9.34624E-01  9.91421E-01 -5.67975E-02
    9042.140     48.468   3.800  9.50164E-01  9.90714E-01 -4.05497E-02
    9043.305     49.633   3.840  9.64171E-01  9.90037E-01 -2.58660E-02
    9044.481     50.809   3.880  9.76244E-01  9.89390E-01 -1.31460E-02
    9045.670     51.998   3.920  9.86351E-01  9.88754E-01 -2.40275E-03
    9046.871     53.199   3.960  9.94648E-01  9.88150E-01  6.49738E-03
    9048.084     54.412   4.000  1.00124E+00  9.87560E-01  1.36834E-02
    9049.309     55.637   4.040  1.00643E+00  9.87028E-01  1.93999E-02
    9050.547     56.875   4.080  1.01054E+00  9.86512E-01  2.40247E-02
    9051.796     58.124   4.120  1.01399E+00  9.86054E-01  2.79338E-02
    9053.058     59.386   4.160  1.01702E+00  9.85614E-01  3.14055E-02
    9054.332     60.660   4.200  1.01978E+00  9.85211E-01  3.45640E-02
    9055.618     61.947   4.240  1.02225E+00  9.84869E-01  3.73771E-02
    9056.917     63.245   4.280  1.02434E+00  9.84546E-01  3.97953E-02
    9058.228     64.556   4.320  1.02616E+00  9.84262E-01  4.18988E-02
    9059.550     65.879   4.360  1.02784E+00  9.84038E-01  4.37986E-02
    9060.885     67.214   4.400  1.02934E+00  9.83831E-01  4.55086E-02
    9062.233     68.561   4.440  1.03057E+00  9.83664E-01  4.69022E-02
    9063.592     69.920   4.480  1.03129E+00  9.83556E-01  4.77317E-02
    9064.964     71.292   4.520  1.03130E+00  9.83466E-01  4.78309E-02
    9066.347     72.676   4.560  1.03078E+00  9.83413E-01  4.73625E-02
    9067.743     74.072   4.600  1.03024E+00  9.83398E-01  4.68464E-02
    9069.152     75.480   4.640  1.03031E+00  9.83420E-01  4.68915E-02
    9070.572     76.900   4.680  1.03139E+00  9.83479E-01  4.79088E-02
    9072.004     78.333   4.720  1.03348E+00  9.83573E-01  4.99084E-02
    9073.449     79.777   4.760  1.03616E+00  9.83680E-01  5.24805E-02
    9074.906     81.234   4.800  1.03883E+00  9.83820E-01  5.50115E-02
    9076.375     82.703   4.840  1.04091E+00  9.83993E-01  5.69140E-02
    9077.857     84.185   4.880  1.04187E+00  9.84177E-01  5.76965E-02
    9079.350     85.678   4.920  1.04143E+00  9.84390E-01  5.70388E-02
    9080.856     87.184   4.960  1.03939E+00  9.84612E-01  5.47793E-02
    9082.374     88.702   5.000  1.03575E+00  9.84863E-01  5.08894E-02
    9083.904     90.232   5.040  1.03060E+00  9.85121E-01  4.54763E-02
    9085.446     91.774   5.080  1.02409E+00  9.85405E-01  3.86873E-02
    9087.001     93.329   5.120  1.01638E+00  9.85671E-01  3.07107E-02
    9088.567     94.895   5.160  1.00777E+00  9.85960E-01  2.18065E-02
    9090.146     96.474   5.200  9.98601E-01  9.86251E-01  1.23504E-02
    9091.737     98.065   5.240  9.89330E-01  9.86542E-01  2.78769E-03
    9093.340     99.669   5.280  9.80327E-01  9.86833E-01 -6.50616E-03
    9094.956    101.284   5.320  9.71861E-01  9.87121E-01 -1.52597E-02
    9096.583    102.912   5.360  9.64084E-01  9.87382E-01 -2.32987E-02
    9098.223    104.551   5.400  9.57085E-01  9.87662E-01 -3.05771E-02
    9099.875    106.203   5.440  9.50708E-01  9.87916E-01 -3.72078E-02
    9101.539    107.868   5.480  9.44832E-01  9.88162E-01 -4.33298E-02
    9103.216    109.544   5.520  9.39529E-01  9.88380E-01 -4.88510E-02
    9104.904    111.233   5.560  9.35302E-01  9.88613E-01 -5.33107E-02
    9106.605    112.933   5.600  9.32778E-01  9.88795E-01 -5.60166E-02
    9108.318    114.646   5.640  9.32522E-01  9.88987E-01 -5.64644E-02
    9110.043    116.371   5.680  9.34463E-01  9.89124E-01 -5.46610E-02
    9111.781    118.109   5.720  9.38078E-01  9.89252E-01 -5.11736E-02
    9113.530    119.858   5.760  9.42504E-01  9.89367E-01 -4.68632E-02
    9115.292    121.620   5.800  9.46847E-01  9.89426E-01 -4.25789E-02
    9117.066    123.394   5.840  9.50583E-01  9.89473E-01 -3.88898E-02
    9118.852    125.180   5.880  9.53526E-01  9.89509E-01 -3.59821E-02
    9120.650    126.978   5.920  9.55790E-01  9.89485E-01 -3.36951E-02
    9122.461    128.789   5.960  9.57797E-01  9.89447E-01 -3.16507E-02
    9124.284    130.612   6.000  9.60020E-01  9.89356E-01 -2.93355E-02
