# # comment:                                                     FEFF 9.9.1  
# # Source:
# # Structure
# # Reduced
# # space
# # abc:
# # angles:
# # sites:
# # POT  SCF 100  7.0000   0, screened core-hole, AFOLP (folp(0)= 1.150)
# # Abs   Z=29 Rmt= 1.191 Rnm= 1.308 K  shell
# # Pot 1 Z=29 Rmt= 1.191 Rnm= 1.308
# # Pot 2 Z= 6 Rmt= 0.672 Rnm= 0.925
# # Pot 3 Z= 8 Rmt= 1.006 Rnm= 1.120
# # Gam_ch=1.729E+00 H-L exch Vi= 0.000E+00 Vr= 0.000E+00
# # Mu=-7.825E+00eV kf=2.302E+00 Vint=-1.535E+01eV Rs_int= 1.576
# FMS rfms= 9.0000
# # PATH  Rmax=-1.000,  Keep_limit= 0.00, Heap_limit 0.00  Pwcrit= 2.50%
#  S02=0.950  Temp=   0.00  Debye_temp=   0.00  Global_sig2= 0.00000
#  Energy zero shift, vr, vi    0.00000E+00   0.00000E+00
#  Curved wave amplitude ratio filter   4.000%
#     file         sig2 tot  cw amp ratio   deg  nlegs   reff  inp sig2
#     0/   0 paths used
#  xsedge+ 50, used to normalize mu           2.4503E-04
#  -----------------------------------------------------------------------
#  omega    e    k    mu    mu0     chi     @#
    8983.426    -11.635  -1.000  3.24835E-02  5.41403E-02 -2.16567E-02
    8983.724    -11.336  -0.960  3.38704E-02  5.80289E-02 -2.41585E-02
    8984.011    -11.050  -0.920  3.53351E-02  6.23434E-02 -2.70083E-02
    8984.285    -10.776  -0.880  3.68849E-02  6.71455E-02 -3.02606E-02
    8984.547    -10.513  -0.840  3.85283E-02  7.25072E-02 -3.39790E-02
    8984.797    -10.263  -0.800  4.02753E-02  7.85117E-02 -3.82364E-02
    8985.035    -10.026  -0.760  4.21376E-02  8.52542E-02 -4.31166E-02
    8985.261     -9.800  -0.720  4.41286E-02  9.28422E-02 -4.87136E-02
    8985.474     -9.587  -0.680  4.62633E-02  1.01394E-01 -5.51307E-02
    8985.675     -9.386  -0.640  4.85575E-02  1.11034E-01 -6.24766E-02
    8985.864     -9.197  -0.600  5.10267E-02  1.21884E-01 -7.08578E-02
    8986.041     -9.020  -0.560  5.36830E-02  1.34049E-01 -8.03660E-02
    8986.205     -8.855  -0.520  5.65313E-02  1.47589E-01 -9.10574E-02
    8986.358     -8.703  -0.480  5.95631E-02  1.62488E-01 -1.02925E-01
    8986.498     -8.563  -0.440  6.27502E-02  1.78617E-01 -1.15867E-01
    8986.626     -8.435  -0.400  6.60385E-02  1.95698E-01 -1.29660E-01
    8986.742     -8.319  -0.360  6.93476E-02  2.13294E-01 -1.43946E-01
    8986.846     -8.215  -0.320  7.25769E-02  2.30837E-01 -1.58260E-01
    8986.937     -8.124  -0.280  7.56190E-02  2.47698E-01 -1.72079E-01
    8987.016     -8.045  -0.240  7.83763E-02  2.63268E-01 -1.84892E-01
    8987.083     -7.977  -0.200  8.07738E-02  2.77037E-01 -1.96263E-01
    8987.138     -7.923  -0.160  8.27644E-02  2.88628E-01 -2.05864E-01
    8987.181     -7.880  -0.120  8.43256E-02  2.97797E-01 -2.13472E-01
    8987.211     -7.849  -0.080  8.54507E-02  3.04407E-01 -2.18957E-01
    8987.236     -7.825   0.000  8.63761E-02  3.09721E-01 -2.23345E-01
    8987.291     -7.770   0.120  8.83834E-02  3.21702E-01 -2.33319E-01
    8987.333     -7.728   0.160  8.98750E-02  3.31046E-01 -2.41171E-01
    8987.388     -7.673   0.200  9.16977E-02  3.42977E-01 -2.51280E-01
    8987.455     -7.606   0.240  9.37890E-02  3.57351E-01 -2.63562E-01
    8987.534     -7.526   0.280  9.60515E-02  3.73921E-01 -2.77870E-01
    8987.626     -7.435   0.320  9.83477E-02  3.92256E-01 -2.93908E-01
    8987.729     -7.331   0.360  1.00585E-01  4.11886E-01 -3.11300E-01
    8987.845     -7.215   0.400  1.02655E-01  4.32265E-01 -3.29609E-01
    8987.973     -7.087   0.440  1.04566E-01  4.52913E-01 -3.48347E-01
    8988.113     -6.947   0.480  1.06399E-01  4.73438E-01 -3.67039E-01
    8988.266     -6.795   0.520  1.08393E-01  4.93603E-01 -3.85210E-01
    8988.430     -6.630   0.560  1.10774E-01  5.13254E-01 -4.02480E-01
    8988.607     -6.453   0.600  1.13848E-01  5.32400E-01 -4.18552E-01
    8988.796     -6.265   0.640  1.17860E-01  5.51049E-01 -4.33189E-01
    8988.997     -6.063   0.680  1.23038E-01  5.69262E-01 -4.46224E-01
    8989.211     -5.850   0.720  1.29666E-01  5.87135E-01 -4.57469E-01
    8989.436     -5.624   0.760  1.38059E-01  6.04718E-01 -4.66659E-01
    8989.674     -5.387   0.800  1.48632E-01  6.22092E-01 -4.73460E-01
    8989.924     -5.137   0.840  1.61843E-01  6.39267E-01 -4.77425E-01
    8990.186     -4.875   0.880  1.78333E-01  6.56299E-01 -4.77966E-01
    8990.460     -4.600   0.920  1.99069E-01  6.73210E-01 -4.74141E-01
    8990.747     -4.314   0.960  2.25645E-01  6.89970E-01 -4.64326E-01
    8991.046     -4.015   1.000  2.60707E-01  7.06602E-01 -4.45895E-01
    8991.357     -3.704   1.040  3.07449E-01  7.23097E-01 -4.15648E-01
    8991.680     -3.381   1.080  3.68466E-01  7.39380E-01 -3.70914E-01
    8992.015     -3.046   1.120  4.43684E-01  7.55473E-01 -3.11788E-01
    8992.362     -2.698   1.160  5.27030E-01  7.71329E-01 -2.44299E-01
    8992.722     -2.339   1.200  6.06462E-01  7.86901E-01 -1.80439E-01
    8993.094     -1.967   1.240  6.70613E-01  8.02178E-01 -1.31565E-01
    8993.478     -1.583   1.280  7.08767E-01  8.17089E-01 -1.08322E-01
    8993.874     -1.187   1.320  7.16737E-01  8.31600E-01 -1.14863E-01
    8994.283     -0.778   1.360  7.07389E-01  8.45698E-01 -1.38310E-01
    8994.703     -0.358   1.400  7.00302E-01  8.59332E-01 -1.59030E-01
    8995.136      0.075   1.440  6.99791E-01  8.72467E-01 -1.72676E-01
    8995.581      0.520   1.480  6.99056E-01  8.85094E-01 -1.86038E-01
    8996.038      0.977   1.520  7.00638E-01  8.97164E-01 -1.96526E-01
    8996.508      1.447   1.560  7.12485E-01  9.08687E-01 -1.96202E-01
    8996.989      1.928   1.600  7.41128E-01  9.19616E-01 -1.78488E-01
    8997.483      2.422   1.640  7.91418E-01  9.29948E-01 -1.38530E-01
    8997.989      2.928   1.680  8.63904E-01  9.39699E-01 -7.57944E-02
    8998.507      3.446   1.720  9.46616E-01  9.48808E-01 -2.19149E-03
    8999.037      3.977   1.760  1.02791E+00  9.57337E-01  7.05750E-02
    8999.580      4.519   1.800  1.11457E+00  9.65247E-01  1.49323E-01
    9000.135      5.074   1.840  1.19970E+00  9.72541E-01  2.27155E-01
    9000.702      5.641   1.880  1.25639E+00  9.79267E-01  2.77125E-01
    9001.281      6.220   1.920  1.28876E+00  9.85390E-01  3.03367E-01
    9001.872      6.811   1.960  1.32487E+00  9.90981E-01  3.33891E-01
    9002.476      7.415   2.000  1.36993E+00  9.96006E-01  3.73924E-01
    9003.091      8.031   2.040  1.41304E+00  1.00050E+00  4.12542E-01
    9003.719      8.658   2.080  1.43457E+00  1.00449E+00  4.30082E-01
    9004.359      9.298   2.120  1.41866E+00  1.00801E+00  4.10648E-01
    9005.012      9.951   2.160  1.38379E+00  1.01107E+00  3.72718E-01
    9005.676     10.615   2.200  1.34934E+00  1.01368E+00  3.35653E-01
    9006.353     11.292   2.240  1.31402E+00  1.01588E+00  2.98133E-01
    9007.041     11.981   2.280  1.27167E+00  1.01770E+00  2.53967E-01
    9007.743     12.682   2.320  1.22463E+00  1.01916E+00  2.05468E-01
    9008.456     13.395   2.360  1.18040E+00  1.02028E+00  1.60115E-01
    9009.181     14.120   2.400  1.14039E+00  1.02110E+00  1.19291E-01
    9009.919     14.858   2.440  1.10289E+00  1.02164E+00  8.12541E-02
    9010.669     15.608   2.480  1.06896E+00  1.02189E+00  4.70650E-02
    9011.431     16.370   2.520  1.03905E+00  1.02193E+00  1.71196E-02
    9012.205     17.144   2.560  1.01218E+00  1.02175E+00 -9.56978E-03
    9012.991     17.930   2.600  9.90410E-01  1.02138E+00 -3.09657E-02
    9013.790     18.729   2.640  9.80435E-01  1.02083E+00 -4.03947E-02
    9014.600     19.540   2.680  9.87620E-01  1.02013E+00 -3.25051E-02
    9015.423     20.363   2.720  1.00457E+00  1.01931E+00 -1.47416E-02
    9016.259     21.198   2.760  1.01224E+00  1.01836E+00 -6.11851E-03
    9017.106     22.045   2.800  1.01184E+00  1.01732E+00 -5.47774E-03
    9017.965     22.905   2.840  1.00820E+00  1.01621E+00 -8.01424E-03
    9018.837     23.776   2.880  1.00409E+00  1.01503E+00 -1.09444E-02
    9019.721     24.660   2.920  1.00056E+00  1.01378E+00 -1.32272E-02
    9020.617     25.556   2.960  9.97480E-01  1.01252E+00 -1.50361E-02
    9021.526     26.465   3.000  9.93499E-01  1.01122E+00 -1.77161E-02
    9022.446     27.385   3.040  9.87153E-01  1.00991E+00 -2.27545E-02
    9023.379     28.318   3.080  9.77653E-01  1.00860E+00 -3.09441E-02
    9024.324     29.263   3.120  9.65159E-01  1.00731E+00 -4.21516E-02
    9025.281     30.220   3.160  9.50507E-01  1.00601E+00 -5.55038E-02
    9026.250     31.189   3.200  9.35215E-01  1.00476E+00 -6.95489E-02
    9027.231     32.171   3.240  9.20806E-01  1.00353E+00 -8.27256E-02
    9028.225     33.164   3.280  9.08440E-01  1.00234E+00 -9.39002E-02
    9029.231     34.170   3.320  8.98904E-01  1.00121E+00 -1.02307E-01
    9030.249     35.188   3.360  8.92740E-01  1.00013E+00 -1.07387E-01
    9031.279     36.218   3.400  8.89977E-01  9.99090E-01 -1.09113E-01
    9032.321     37.261   3.440  8.90217E-01  9.98101E-01 -1.07884E-01
    9033.376     38.315   3.480  8.92787E-01  9.97207E-01 -1.04420E-01
    9034.443     39.382   3.520  8.96789E-01  9.96364E-01 -9.95747E-02
    9035.522     40.461   3.560  9.01532E-01  9.95574E-01 -9.40425E-02
    9036.613     41.552   3.600  9.06895E-01  9.94882E-01 -8.79872E-02
    9037.716     42.656   3.640  9.12994E-01  9.94245E-01 -8.12509E-02
    9038.832     43.771   3.680  9.20097E-01  9.93685E-01 -7.35879E-02
    9039.960     44.899   3.720  9.28388E-01  9.93202E-01 -6.48142E-02
    9041.100     46.039   3.760  9.37842E-01  9.92795E-01 -5.49536E-02
    9042.252     47.191   3.800  9.48103E-01  9.92446E-01 -4.43430E-02
    9043.416     48.355   3.840  9.58634E-01  9.92195E-01 -3.35606E-02
    9044.593     49.532   3.880  9.68993E-01  9.91999E-01 -2.30065E-02
    9045.781     50.721   3.920  9.78936E-01  9.91880E-01 -1.29440E-02
    9046.982     51.922   3.960  9.88293E-01  9.91837E-01 -3.54345E-03
    9048.195     53.135   4.000  9.96978E-01  9.91868E-01  5.11000E-03
    9049.421     54.360   4.040  1.00496E+00  9.91949E-01  1.30064E-02
    9050.658     55.597   4.080  1.01228E+00  9.92079E-01  2.02002E-02
    9051.908     56.847   4.120  1.01913E+00  9.92281E-01  2.68467E-02
    9053.170     58.109   4.160  1.02568E+00  9.92554E-01  3.31260E-02
    9054.444     59.383   4.200  1.03200E+00  9.92874E-01  3.91247E-02
    9055.730     60.669   4.240  1.03795E+00  9.93240E-01  4.47068E-02
    9057.028     61.968   4.280  1.04327E+00  9.93669E-01  4.96024E-02
    9058.339     63.278   4.320  1.04752E+00  9.94118E-01  5.33978E-02
    9059.662     64.601   4.360  1.05037E+00  9.94628E-01  5.57405E-02
    9060.997     65.936   4.400  1.05170E+00  9.95155E-01  5.65409E-02
    9062.344     67.283   4.440  1.05175E+00  9.95718E-01  5.60293E-02
    9063.704     68.643   4.480  1.05099E+00  9.96316E-01  5.46754E-02
    9065.075     70.014   4.520  1.05003E+00  9.96947E-01  5.30822E-02
    9066.459     71.398   4.560  1.04942E+00  9.97585E-01  5.18344E-02
    9067.855     72.794   4.600  1.04954E+00  9.98231E-01  5.13118E-02
    9069.263     74.202   4.640  1.05057E+00  9.98902E-01  5.16680E-02
    9070.683     75.623   4.680  1.05244E+00  9.99577E-01  5.28599E-02
    9072.116     77.055   4.720  1.05479E+00  1.00025E+00  5.45399E-02
    9073.561     78.500   4.760  1.05698E+00  1.00093E+00  5.60537E-02
    9075.018     79.957   4.800  1.05822E+00  1.00160E+00  5.66189E-02
    9076.487     81.426   4.840  1.05780E+00  1.00224E+00  5.55592E-02
    9077.968     82.907   4.880  1.05549E+00  1.00290E+00  5.25909E-02
    9079.462     84.401   4.920  1.05136E+00  1.00353E+00  4.78287E-02
    9080.967     85.907   4.960  1.04567E+00  1.00413E+00  4.15370E-02
    9082.485     87.425   5.000  1.03862E+00  1.00471E+00  3.39010E-02
    9084.015     88.955   5.040  1.03019E+00  1.00527E+00  2.49279E-02
    9085.558     90.497   5.080  1.02043E+00  1.00580E+00  1.46305E-02
    9087.112     92.051   5.120  1.00960E+00  1.00628E+00  3.32591E-03
    9088.679     93.618   5.160  9.98531E-01  1.00674E+00 -8.20747E-03
    9090.258     95.197   5.200  9.88340E-01  1.00716E+00 -1.88185E-02
    9091.849     96.788   5.240  9.80185E-01  1.00754E+00 -2.73551E-02
    9093.452     98.391   5.280  9.74773E-01  1.00788E+00 -3.31063E-02
    9095.067    100.007   5.320  9.72077E-01  1.00817E+00 -3.60983E-02
    9096.695    101.634   5.360  9.71407E-01  1.00843E+00 -3.70198E-02
    9098.335    103.274   5.400  9.71680E-01  1.00861E+00 -3.69332E-02
    9099.987    104.926   5.440  9.71914E-01  1.00878E+00 -3.68618E-02
    9101.651    106.590   5.480  9.71343E-01  1.00887E+00 -3.75294E-02
    9103.327    108.267   5.520  9.69721E-01  1.00892E+00 -3.92026E-02
    9105.016    109.955   5.560  9.67211E-01  1.00893E+00 -4.17195E-02
    9106.717    111.656   5.600  9.64228E-01  1.00887E+00 -4.46413E-02
    9108.430    113.369   5.640  9.61250E-01  1.00879E+00 -4.75366E-02
    9110.155    115.094   5.680  9.58399E-01  1.00864E+00 -5.02383E-02
    9111.892    116.831   5.720  9.55575E-01  1.00844E+00 -5.28670E-02
    9113.642    118.581   5.760  9.52682E-01  1.00818E+00 -5.54988E-02
    9115.404    120.343   5.800  9.50084E-01  1.00790E+00 -5.78197E-02
    9117.177    122.117   5.840  9.48486E-01  1.00759E+00 -5.90996E-02
    9118.964    123.903   5.880  9.48658E-01  1.00721E+00 -5.85485E-02
    9120.762    125.701   5.920  9.51190E-01  1.00681E+00 -5.56237E-02
    9122.572    127.512   5.960  9.56265E-01  1.00636E+00 -5.00943E-02
    9124.395    129.334   6.000  9.64151E-01  1.00586E+00 -4.17128E-02
