# # comment:                                                     FEFF 9.9.1  
# # Source:
# # Structure
# # Reduced
# # space
# # abc:
# # angles:103.681351
# # sites:
# # POT  SCF 100  7.0000   0, screened core-hole, AFOLP (folp(0)= 1.150)
# # Abs   Z=29 Rmt= 1.143 Rnm= 1.256 K  shell
# # Pot 1 Z= 3 Rmt= 1.258 Rnm= 1.333
# # Pot 2 Z=29 Rmt= 1.185 Rnm= 1.287
# # Pot 3 Z=51 Rmt= 1.319 Rnm= 1.455
# # Pot 4 Z= 8 Rmt= 1.010 Rnm= 1.094
# # Gam_ch=1.729E+00 H-L exch Vi= 0.000E+00 Vr= 0.000E+00
# # Mu=-6.651E+00eV kf=2.138E+00 Vint=-1.609E+01eV Rs_int= 1.697
# FMS rfms= 9.0000
# # PATH  Rmax=-1.000,  Keep_limit= 0.00, Heap_limit 0.00  Pwcrit= 2.50%
#  S02=0.950  Temp=   0.00  Debye_temp=   0.00  Global_sig2= 0.00000
#  Energy zero shift, vr, vi    0.00000E+00   0.00000E+00
#  Curved wave amplitude ratio filter   4.000%
#     file         sig2 tot  cw amp ratio   deg  nlegs   reff  inp sig2
#     0/   0 paths used
#  xsedge+ 50, used to normalize mu           2.4377E-04
#  -----------------------------------------------------------------------
#  omega    e    k    mu    mu0     chi     @#
    8984.046    -10.461  -1.000  4.06045E-02  5.70285E-02 -1.64240E-02
    8984.345    -10.162  -0.960  4.29286E-02  6.12524E-02 -1.83238E-02
    8984.631     -9.876  -0.920  4.54500E-02  6.59526E-02 -2.05026E-02
    8984.906     -9.601  -0.880  4.81908E-02  7.11996E-02 -2.30088E-02
    8985.168     -9.339  -0.840  5.11759E-02  7.70758E-02 -2.58999E-02
    8985.418     -9.089  -0.800  5.44330E-02  8.36766E-02 -2.92436E-02
    8985.655     -8.852  -0.760  5.79923E-02  9.11115E-02 -3.31191E-02
    8985.881     -8.626  -0.720  6.18866E-02  9.95043E-02 -3.76177E-02
    8986.094     -8.413  -0.680  6.61499E-02  1.08991E-01 -4.28416E-02
    8986.296     -8.211  -0.640  7.08162E-02  1.19717E-01 -4.89011E-02
    8986.484     -8.022  -0.600  7.59162E-02  1.31823E-01 -5.59071E-02
    8986.661     -7.846  -0.560  8.14729E-02  1.45431E-01 -6.39580E-02
    8986.826     -7.681  -0.520  8.74945E-02  1.60612E-01 -7.31178E-02
    8986.978     -7.529  -0.480  9.39656E-02  1.77353E-01 -8.33870E-02
    8987.118     -7.388  -0.440  1.00836E-01  1.95504E-01 -9.46678E-02
    8987.246     -7.260  -0.400  1.08014E-01  2.14750E-01 -1.06736E-01
    8987.362     -7.145  -0.360  1.15359E-01  2.34591E-01 -1.19232E-01
    8987.466     -7.041  -0.320  1.22687E-01  2.54377E-01 -1.31691E-01
    8987.557     -6.950  -0.280  1.29787E-01  2.73390E-01 -1.43603E-01
    8987.637     -6.870  -0.240  1.36438E-01  2.90937E-01 -1.54499E-01
    8987.704     -6.803  -0.200  1.42434E-01  3.06440E-01 -1.64006E-01
    8987.759     -6.748  -0.160  1.47592E-01  3.19476E-01 -1.71885E-01
    8987.801     -6.706  -0.120  1.51766E-01  3.29779E-01 -1.78013E-01
    8987.832     -6.675  -0.080  1.54844E-01  3.37198E-01 -1.82354E-01
    8987.856     -6.651   0.000  1.57403E-01  3.43158E-01 -1.85755E-01
    8987.911     -6.596   0.120  1.63137E-01  3.56587E-01 -1.93450E-01
    8987.954     -6.553   0.160  1.67657E-01  3.67014E-01 -1.99357E-01
    8988.008     -6.498   0.200  1.73582E-01  3.80334E-01 -2.06751E-01
    8988.076     -6.431   0.240  1.81005E-01  3.96336E-01 -2.15331E-01
    8988.155     -6.352   0.280  1.90017E-01  4.14691E-01 -2.24674E-01
    8988.246     -6.261   0.320  2.00716E-01  4.34920E-01 -2.34204E-01
    8988.350     -6.157   0.360  2.13097E-01  4.56388E-01 -2.43291E-01
    8988.466     -6.041   0.400  2.27232E-01  4.78501E-01 -2.51270E-01
    8988.594     -5.913   0.440  2.42947E-01  5.00642E-01 -2.57695E-01
    8988.734     -5.773   0.480  2.59956E-01  5.22365E-01 -2.62409E-01
    8988.886     -5.621   0.520  2.77737E-01  5.43385E-01 -2.65648E-01
    8989.051     -5.456   0.560  2.95687E-01  5.63530E-01 -2.67843E-01
    8989.228     -5.279   0.600  3.13621E-01  5.82784E-01 -2.69163E-01
    8989.417     -5.090   0.640  3.32303E-01  6.01212E-01 -2.68910E-01
    8989.618     -4.889   0.680  3.53542E-01  6.18877E-01 -2.65335E-01
    8989.831     -4.676   0.720  3.79456E-01  6.35875E-01 -2.56419E-01
    8990.057     -4.450   0.760  4.10930E-01  6.52346E-01 -2.41415E-01
    8990.294     -4.212   0.800  4.46392E-01  6.68335E-01 -2.21943E-01
    8990.544     -3.963   0.840  4.82199E-01  6.83956E-01 -2.01757E-01
    8990.807     -3.700   0.880  5.13560E-01  6.99226E-01 -1.85666E-01
    8991.081     -3.426   0.920  5.35416E-01  7.14208E-01 -1.78792E-01
    8991.367     -3.140   0.960  5.44848E-01  7.28913E-01 -1.84065E-01
    8991.666     -2.841   1.000  5.45143E-01  7.43400E-01 -1.98257E-01
    8991.977     -2.530   1.040  5.44444E-01  7.57637E-01 -2.13193E-01
    8992.300     -2.207   1.080  5.48270E-01  7.71625E-01 -2.23354E-01
    8992.635     -1.872   1.120  5.54658E-01  7.85377E-01 -2.30719E-01
    8992.983     -1.524   1.160  5.56715E-01  7.98864E-01 -2.42149E-01
    8993.342     -1.165   1.200  5.47579E-01  8.12090E-01 -2.64511E-01
    8993.714     -0.793   1.240  5.25644E-01  8.25014E-01 -2.99370E-01
    8994.098     -0.409   1.280  4.98459E-01  8.37617E-01 -3.39158E-01
    8994.495     -0.012   1.320  4.75783E-01  8.49873E-01 -3.74089E-01
    8994.903      0.396   1.360  4.61961E-01  8.61780E-01 -3.99820E-01
    8995.324      0.817   1.400  4.57278E-01  8.73313E-01 -4.16035E-01
    8995.756      1.249   1.440  4.62973E-01  8.84445E-01 -4.21472E-01
    8996.201      1.695   1.480  4.83083E-01  8.95151E-01 -4.12068E-01
    8996.659      2.152   1.520  5.20050E-01  9.05427E-01 -3.85377E-01
    8997.128      2.621   1.560  5.74044E-01  9.15248E-01 -3.41204E-01
    8997.610      3.103   1.600  6.46514E-01  9.24610E-01 -2.78096E-01
    8998.103      3.596   1.640  7.38029E-01  9.33492E-01 -1.95463E-01
    8998.609      4.102   1.680  8.45583E-01  9.41889E-01 -9.63060E-02
    8999.128      4.621   1.720  9.64457E-01  9.49825E-01  1.46323E-02
    8999.658      5.151   1.760  1.08520E+00  9.57258E-01  1.27947E-01
    9000.200      5.693   1.800  1.19749E+00  9.64208E-01  2.33282E-01
    9000.755      6.248   1.840  1.29515E+00  9.70681E-01  3.24470E-01
    9001.322      6.815   1.880  1.37381E+00  9.76658E-01  3.97156E-01
    9001.901      7.394   1.920  1.43084E+00  9.82186E-01  4.48650E-01
    9002.493      7.986   1.960  1.46186E+00  9.87250E-01  4.74607E-01
    9003.096      8.589   2.000  1.46395E+00  9.91855E-01  4.72093E-01
    9003.712      9.205   2.040  1.43398E+00  9.96029E-01  4.37949E-01
    9004.340      9.833   2.080  1.37397E+00  9.99759E-01  3.74206E-01
    9004.980     10.473   2.120  1.29528E+00  1.00312E+00  2.92159E-01
    9005.632     11.125   2.160  1.21356E+00  1.00607E+00  2.07494E-01
    9006.296     11.789   2.200  1.14462E+00  1.00864E+00  1.35976E-01
    9006.973     12.466   2.240  1.09948E+00  1.01085E+00  8.86273E-02
    9007.662     13.155   2.280  1.08067E+00  1.01274E+00  6.79308E-02
    9008.363     13.856   2.320  1.08490E+00  1.01430E+00  7.06011E-02
    9009.076     14.569   2.360  1.11017E+00  1.01557E+00  9.46021E-02
    9009.802     15.295   2.400  1.15596E+00  1.01655E+00  1.39414E-01
    9010.539     16.032   2.440  1.21114E+00  1.01727E+00  1.93872E-01
    9011.289     16.782   2.480  1.24885E+00  1.01775E+00  2.31106E-01
    9012.051     17.544   2.520  1.25197E+00  1.01801E+00  2.33968E-01
    9012.825     18.318   2.560  1.23210E+00  1.01806E+00  2.14037E-01
    9013.612     19.105   2.600  1.21396E+00  1.01794E+00  1.96025E-01
    9014.410     19.903   2.640  1.19788E+00  1.01765E+00  1.80238E-01
    9015.221     20.714   2.680  1.17829E+00  1.01720E+00  1.61094E-01
    9016.044     21.537   2.720  1.15463E+00  1.01662E+00  1.38013E-01
    9016.879     22.372   2.760  1.13001E+00  1.01593E+00  1.14076E-01
    9017.726     23.219   2.800  1.10537E+00  1.01514E+00  9.02325E-02
    9018.586     24.079   2.840  1.07964E+00  1.01425E+00  6.53945E-02
    9019.458     24.951   2.880  1.05147E+00  1.01328E+00  3.81893E-02
    9020.342     25.835   2.920  1.02092E+00  1.01225E+00  8.67521E-03
    9021.238     26.731   2.960  9.89462E-01  1.01118E+00 -2.17186E-02
    9022.146     27.639   3.000  9.59260E-01  1.01008E+00 -5.08172E-02
    9023.066     28.559   3.040  9.32139E-01  1.00894E+00 -7.67991E-02
    9023.999     29.492   3.080  9.09352E-01  1.00779E+00 -9.84386E-02
    9024.944     30.437   3.120  8.91346E-01  1.00664E+00 -1.15291E-01
    9025.901     31.394   3.160  8.77640E-01  1.00548E+00 -1.27845E-01
    9026.870     32.363   3.200  8.67031E-01  1.00434E+00 -1.37306E-01
    9027.852     33.345   3.240  8.58369E-01  1.00322E+00 -1.44851E-01
    9028.845     34.338   3.280  8.50749E-01  1.00214E+00 -1.51387E-01
    9029.851     35.344   3.320  8.43751E-01  1.00107E+00 -1.57316E-01
    9030.869     36.362   3.360  8.37502E-01  1.00006E+00 -1.62555E-01
    9031.899     37.393   3.400  8.32388E-01  9.99070E-01 -1.66682E-01
    9032.942     38.435   3.440  8.29094E-01  9.98148E-01 -1.69054E-01
    9033.997     39.490   3.480  8.28595E-01  9.97294E-01 -1.68699E-01
    9035.063     40.556   3.520  8.31926E-01  9.96469E-01 -1.64542E-01
    9036.142     41.635   3.560  8.39793E-01  9.95734E-01 -1.55942E-01
    9037.233     42.727   3.600  8.52200E-01  9.95051E-01 -1.42852E-01
    9038.337     43.830   3.640  8.68823E-01  9.94421E-01 -1.25598E-01
    9039.452     44.945   3.680  8.88960E-01  9.93887E-01 -1.04927E-01
    9040.580     46.073   3.720  9.11304E-01  9.93408E-01 -8.21040E-02
    9041.720     47.213   3.760  9.34398E-01  9.93003E-01 -5.86057E-02
    9042.872     48.365   3.800  9.56598E-01  9.92655E-01 -3.60562E-02
    9044.037     49.530   3.840  9.76367E-01  9.92404E-01 -1.60372E-02
    9045.213     50.706   3.880  9.92554E-01  9.92209E-01  3.44899E-04
    9046.402     51.895   3.920  1.00503E+00  9.92091E-01  1.29394E-02
    9047.603     53.096   3.960  1.01429E+00  9.92050E-01  2.22431E-02
    9048.816     54.309   4.000  1.02108E+00  9.92085E-01  2.89934E-02
    9050.041     55.534   4.040  1.02608E+00  9.92174E-01  3.39099E-02
    9051.279     56.772   4.080  1.02985E+00  9.92338E-01  3.75101E-02
    9052.528     58.021   4.120  1.03261E+00  9.92576E-01  4.00379E-02
    9053.790     59.283   4.160  1.03435E+00  9.92865E-01  4.14830E-02
    9055.064     60.557   4.200  1.03483E+00  9.93227E-01  4.16004E-02
    9056.350     61.843   4.240  1.03377E+00  9.93659E-01  4.01121E-02
    9057.649     63.142   4.280  1.03117E+00  9.94117E-01  3.70488E-02
    9058.960     64.453   4.320  1.02764E+00  9.94643E-01  3.29991E-02
    9060.282     65.775   4.360  1.02411E+00  9.95237E-01  2.88776E-02
    9061.617     67.110   4.400  1.02158E+00  9.95852E-01  2.57305E-02
    9062.965     68.458   4.440  1.02100E+00  9.96528E-01  2.44700E-02
    9064.324     69.817   4.480  1.02286E+00  9.97224E-01  2.56396E-02
    9065.696     71.189   4.520  1.02730E+00  9.97979E-01  2.93234E-02
    9067.079     72.572   4.560  1.03395E+00  9.98749E-01  3.52057E-02
    9068.475     73.968   4.600  1.04221E+00  9.99551E-01  4.26592E-02
    9069.884     75.377   4.640  1.05122E+00  1.00036E+00  5.08568E-02
    9071.304     76.797   4.680  1.06012E+00  1.00121E+00  5.89149E-02
    9072.736     78.229   4.720  1.06805E+00  1.00208E+00  6.59680E-02
    9074.181     79.674   4.760  1.07418E+00  1.00294E+00  7.12450E-02
    9075.638     81.131   4.800  1.07803E+00  1.00382E+00  7.42088E-02
    9077.107     82.600   4.840  1.07942E+00  1.00470E+00  7.47209E-02
    9078.589     84.082   4.880  1.07857E+00  1.00558E+00  7.29957E-02
    9080.082     85.575   4.920  1.07595E+00  1.00645E+00  6.94925E-02
    9081.588     87.081   4.960  1.07202E+00  1.00730E+00  6.47154E-02
    9083.106     88.599   5.000  1.06717E+00  1.00814E+00  5.90270E-02
    9084.636     90.129   5.040  1.06158E+00  1.00897E+00  5.26053E-02
    9086.178     91.671   5.080  1.05520E+00  1.00977E+00  4.54374E-02
    9087.733     93.226   5.120  1.04794E+00  1.01053E+00  3.74147E-02
    9089.299     94.792   5.160  1.03973E+00  1.01127E+00  2.84575E-02
    9090.878     96.371   5.200  1.03059E+00  1.01196E+00  1.86274E-02
    9092.469     97.962   5.240  1.02081E+00  1.01263E+00  8.18078E-03
    9094.072     99.565   5.280  1.01075E+00  1.01325E+00 -2.50079E-03
    9095.688    101.181   5.320  1.00084E+00  1.01384E+00 -1.29966E-02
    9097.315    102.808   5.360  9.91463E-01  1.01438E+00 -2.29162E-02
    9098.955    104.448   5.400  9.82964E-01  1.01485E+00 -3.18869E-02
    9100.607    106.100   5.440  9.75773E-01  1.01528E+00 -3.95041E-02
    9102.271    107.764   5.480  9.70338E-01  1.01566E+00 -4.53192E-02
    9103.948    109.441   5.520  9.67011E-01  1.01599E+00 -4.89791E-02
    9105.636    111.129   5.560  9.65771E-01  1.01625E+00 -5.04817E-02
    9107.337    112.830   5.600  9.66217E-01  1.01646E+00 -5.02483E-02
    9109.050    114.543   5.640  9.67675E-01  1.01661E+00 -4.89303E-02
    9110.775    116.268   5.680  9.69641E-01  1.01670E+00 -4.70556E-02
    9112.513    118.006   5.720  9.71834E-01  1.01672E+00 -4.48809E-02
    9114.262    119.755   5.760  9.74185E-01  1.01669E+00 -4.25010E-02
    9116.024    121.517   5.800  9.76571E-01  1.01661E+00 -4.00399E-02
    9117.798    123.291   5.840  9.78785E-01  1.01646E+00 -3.76777E-02
    9119.584    125.077   5.880  9.80703E-01  1.01624E+00 -3.55383E-02
    9121.382    126.875   5.920  9.82368E-01  1.01597E+00 -3.36062E-02
    9123.193    128.686   5.960  9.83942E-01  1.01566E+00 -3.17139E-02
    9125.015    130.509   6.000  9.85730E-01  1.01522E+00 -2.94891E-02
