# # comment:                                                     FEFF 9.9.1  
# # Source:
# # Structure
# # Reduced
# # space
# # abc:
# # angles:
# # sites:
# # POT  SCF 100  7.0000   0, screened core-hole, AFOLP (folp(0)= 1.150)
# # Abs   Z=29 Rmt= 1.151 Rnm= 1.284 K  shell
# # Pot 1 Z=11 Rmt= 1.614 Rnm= 1.667
# # Pot 2 Z=29 Rmt= 1.151 Rnm= 1.284
# # Pot 3 Z=42 Rmt= 1.130 Rnm= 1.354
# # Pot 4 Z= 8 Rmt= 0.999 Rnm= 1.120
# # Gam_ch=1.729E+00 H-L exch Vi= 0.000E+00 Vr= 0.000E+00
# # Mu=-7.610E+00eV kf=2.158E+00 Vint=-1.460E+01eV Rs_int= 1.681
# FMS rfms= 9.0000
# # PATH  Rmax=-1.000,  Keep_limit= 0.00, Heap_limit 0.00  Pwcrit= 2.50%
#  S02=0.950  Temp=   0.00  Debye_temp=   0.00  Global_sig2= 0.00000
#  Energy zero shift, vr, vi    0.00000E+00   0.00000E+00
#  Curved wave amplitude ratio filter   4.000%
#     file         sig2 tot  cw amp ratio   deg  nlegs   reff  inp sig2
#     0/   0 paths used
#  xsedge+ 50, used to normalize mu           2.4269E-04
#  -----------------------------------------------------------------------
#  omega    e    k    mu    mu0     chi     @#
    8983.627    -11.420  -1.000  3.20683E-02  5.52990E-02 -2.32307E-02
    8983.926    -11.122  -0.960  3.34172E-02  5.92569E-02 -2.58397E-02
    8984.212    -10.835  -0.920  3.48379E-02  6.36450E-02 -2.88071E-02
    8984.487    -10.561  -0.880  3.63359E-02  6.85252E-02 -3.21894E-02
    8984.749    -10.299  -0.840  3.79170E-02  7.39696E-02 -3.60526E-02
    8984.999    -10.049  -0.800  3.95881E-02  8.00614E-02 -4.04733E-02
    8985.236     -9.811  -0.760  4.13565E-02  8.68958E-02 -4.55393E-02
    8985.462     -9.585  -0.720  4.32303E-02  9.45804E-02 -5.13501E-02
    8985.675     -9.372  -0.680  4.52178E-02  1.03233E-01 -5.80152E-02
    8985.876     -9.171  -0.640  4.73272E-02  1.12978E-01 -6.56507E-02
    8986.065     -8.982  -0.600  4.95654E-02  1.23937E-01 -7.43712E-02
    8986.242     -8.805  -0.560  5.19363E-02  1.36212E-01 -8.42760E-02
    8986.407     -8.641  -0.520  5.44377E-02  1.49865E-01 -9.54274E-02
    8986.559     -8.488  -0.480  5.70583E-02  1.64879E-01 -1.07821E-01
    8986.699     -8.348  -0.440  5.97728E-02  1.81124E-01 -1.21351E-01
    8986.827     -8.220  -0.400  6.25392E-02  1.98320E-01 -1.35780E-01
    8986.943     -8.104  -0.360  6.52987E-02  2.16030E-01 -1.50731E-01
    8987.047     -8.000  -0.320  6.79803E-02  2.33687E-01 -1.65707E-01
    8987.138     -7.909  -0.280  7.05091E-02  2.50659E-01 -1.80150E-01
    8987.218     -7.830  -0.240  7.28165E-02  2.66336E-01 -1.93519E-01
    8987.285     -7.763  -0.200  7.48475E-02  2.80204E-01 -2.05357E-01
    8987.339     -7.708  -0.160  7.65623E-02  2.91884E-01 -2.15322E-01
    8987.382     -7.665  -0.120  7.79342E-02  3.01128E-01 -2.23194E-01
    8987.413     -7.635  -0.080  7.89449E-02  3.07795E-01 -2.28850E-01
    8987.437     -7.610   0.000  7.98045E-02  3.13157E-01 -2.33353E-01
    8987.492     -7.555   0.120  8.16813E-02  3.25250E-01 -2.43568E-01
    8987.535     -7.513   0.160  8.31117E-02  3.34681E-01 -2.51569E-01
    8987.589     -7.458   0.200  8.49048E-02  3.46739E-01 -2.61834E-01
    8987.656     -7.391   0.240  8.70872E-02  3.61284E-01 -2.74197E-01
    8987.736     -7.312   0.280  8.96339E-02  3.78061E-01 -2.88427E-01
    8987.827     -7.220   0.320  9.26030E-02  3.96689E-01 -3.04086E-01
    8987.931     -7.117   0.360  9.60168E-02  4.16665E-01 -3.20649E-01
    8988.047     -7.001   0.400  1.00026E-01  4.37499E-01 -3.37473E-01
    8988.175     -6.873   0.440  1.04695E-01  4.58655E-01 -3.53960E-01
    8988.315     -6.732   0.480  1.10331E-01  4.79810E-01 -3.69479E-01
    8988.467     -6.580   0.520  1.17195E-01  5.00688E-01 -3.83493E-01
    8988.632     -6.415   0.560  1.25648E-01  5.21179E-01 -3.95532E-01
    8988.809     -6.239   0.600  1.35896E-01  5.41228E-01 -4.05332E-01
    8988.998     -6.050   0.640  1.47958E-01  5.60881E-01 -4.12923E-01
    8989.199     -5.849   0.680  1.61086E-01  5.80195E-01 -4.19110E-01
    8989.412     -5.635   0.720  1.73727E-01  5.99220E-01 -4.25494E-01
    8989.638     -5.410   0.760  1.84457E-01  6.18042E-01 -4.33585E-01
    8989.875     -5.172   0.800  1.93622E-01  6.36696E-01 -4.43073E-01
    8990.125     -4.922   0.840  2.03703E-01  6.55224E-01 -4.51521E-01
    8990.387     -4.660   0.880  2.16925E-01  6.73636E-01 -4.56711E-01
    8990.662     -4.386   0.920  2.32786E-01  6.91927E-01 -4.59140E-01
    8990.948     -4.099   0.960  2.48706E-01  7.10121E-01 -4.61415E-01
    8991.247     -3.800   1.000  2.63486E-01  7.28172E-01 -4.64686E-01
    8991.558     -3.489   1.040  2.79552E-01  7.46044E-01 -4.66492E-01
    8991.881     -3.166   1.080  3.00216E-01  7.63738E-01 -4.63522E-01
    8992.216     -2.831   1.120  3.25842E-01  7.81164E-01 -4.55322E-01
    8992.564     -2.484   1.160  3.54804E-01  7.98332E-01 -4.43528E-01
    8992.923     -2.124   1.200  3.87920E-01  8.15147E-01 -4.27226E-01
    8993.295     -1.752   1.240  4.29824E-01  8.31572E-01 -4.01748E-01
    8993.679     -1.368   1.280  4.84304E-01  8.47570E-01 -3.63266E-01
    8994.076     -0.972   1.320  5.50423E-01  8.63082E-01 -3.12658E-01
    8994.484     -0.563   1.360  6.21672E-01  8.78071E-01 -2.56400E-01
    8994.905     -0.143   1.400  6.88031E-01  8.92503E-01 -2.04471E-01
    8995.337      0.290   1.440  7.47603E-01  9.06339E-01 -1.58736E-01
    8995.782      0.735   1.480  8.09874E-01  9.19527E-01 -1.09653E-01
    8996.240      1.192   1.520  8.68077E-01  9.32076E-01 -6.39987E-02
    8996.709      1.662   1.560  8.98699E-01  9.43914E-01 -4.52148E-02
    8997.191      2.143   1.600  9.03238E-01  9.55079E-01 -5.18405E-02
    8997.684      2.637   1.640  9.09302E-01  9.65524E-01 -5.62222E-02
    8998.190      3.143   1.680  9.35195E-01  9.75246E-01 -4.00507E-02
    8998.708      3.661   1.720  9.80277E-01  9.84246E-01 -3.96926E-03
    8999.239      4.192   1.760  1.03344E+00  9.92526E-01  4.09100E-02
    8999.781      4.734   1.800  1.08164E+00  1.00009E+00  8.15488E-02
    9000.336      5.289   1.840  1.11906E+00  1.00698E+00  1.12081E-01
    9000.903      5.856   1.880  1.15606E+00  1.01318E+00  1.42885E-01
    9001.482      6.435   1.920  1.20224E+00  1.01872E+00  1.83528E-01
    9002.073      7.026   1.960  1.25491E+00  1.02360E+00  2.31311E-01
    9002.677      7.630   2.000  1.31034E+00  1.02787E+00  2.82466E-01
    9003.293      8.245   2.040  1.36165E+00  1.03157E+00  3.30086E-01
    9003.921      8.873   2.080  1.39499E+00  1.03470E+00  3.60291E-01
    9004.561      9.513   2.120  1.40044E+00  1.03730E+00  3.63134E-01
    9005.213     10.166   2.160  1.37709E+00  1.03940E+00  3.37690E-01
    9005.877     10.830   2.200  1.32997E+00  1.04102E+00  2.88949E-01
    9006.554     11.507   2.240  1.27084E+00  1.04222E+00  2.28619E-01
    9007.243     12.196   2.280  1.21083E+00  1.04300E+00  1.67834E-01
    9007.944     12.897   2.320  1.15693E+00  1.04341E+00  1.13521E-01
    9008.657     13.610   2.360  1.11556E+00  1.04347E+00  7.20947E-02
    9009.383     14.335   2.400  1.09154E+00  1.04322E+00  4.83210E-02
    9010.120     15.073   2.440  1.08746E+00  1.04269E+00  4.47783E-02
    9010.870     15.823   2.480  1.10010E+00  1.04190E+00  5.82022E-02
    9011.632     16.585   2.520  1.11637E+00  1.04087E+00  7.55058E-02
    9012.406     17.359   2.560  1.12492E+00  1.03965E+00  8.52722E-02
    9013.193     18.145   2.600  1.13295E+00  1.03826E+00  9.46847E-02
    9013.991     18.944   2.640  1.14599E+00  1.03669E+00  1.09300E-01
    9014.802     19.755   2.680  1.15709E+00  1.03501E+00  1.22079E-01
    9015.625     20.577   2.720  1.15876E+00  1.03322E+00  1.25542E-01
    9016.460     21.413   2.760  1.14977E+00  1.03133E+00  1.18439E-01
    9017.307     22.260   2.800  1.13205E+00  1.02939E+00  1.02657E-01
    9018.167     23.120   2.840  1.10874E+00  1.02738E+00  8.13519E-02
    9019.039     23.991   2.880  1.08283E+00  1.02534E+00  5.74973E-02
    9019.922     24.875   2.920  1.05618E+00  1.02327E+00  3.29099E-02
    9020.819     25.771   2.960  1.02987E+00  1.02121E+00  8.66106E-03
    9021.727     26.680   3.000  1.00425E+00  1.01917E+00 -1.49272E-02
    9022.647     27.600   3.040  9.79207E-01  1.01712E+00 -3.79155E-02
    9023.580     28.533   3.080  9.55555E-01  1.01513E+00 -5.95733E-02
    9024.525     29.478   3.120  9.34290E-01  1.01317E+00 -7.88840E-02
    9025.482     30.435   3.160  9.16147E-01  1.01127E+00 -9.51185E-02
    9026.451     31.404   3.200  9.01581E-01  1.00940E+00 -1.07824E-01
    9027.433     32.385   3.240  8.90943E-01  1.00762E+00 -1.16674E-01
    9028.426     33.379   3.280  8.83970E-01  1.00591E+00 -1.21939E-01
    9029.432     34.385   3.320  8.80424E-01  1.00428E+00 -1.23857E-01
    9030.450     35.403   3.360  8.80055E-01  1.00274E+00 -1.22681E-01
    9031.480     36.433   3.400  8.82638E-01  1.00130E+00 -1.18661E-01
    9032.523     37.476   3.440  8.87950E-01  9.99927E-01 -1.11977E-01
    9033.577     38.530   3.480  8.95797E-01  9.98666E-01 -1.02869E-01
    9034.644     39.597   3.520  9.05735E-01  9.97518E-01 -9.17824E-02
    9035.723     40.676   3.560  9.16779E-01  9.96461E-01 -7.96823E-02
    9036.814     41.767   3.600  9.27848E-01  9.95518E-01 -6.76708E-02
    9037.918     42.870   3.640  9.37897E-01  9.94669E-01 -5.67725E-02
    9039.033     43.986   3.680  9.46242E-01  9.93934E-01 -4.76923E-02
    9040.161     45.114   3.720  9.52619E-01  9.93315E-01 -4.06958E-02
    9041.301     46.254   3.760  9.57183E-01  9.92788E-01 -3.56051E-02
    9042.453     47.406   3.800  9.60357E-01  9.92376E-01 -3.20193E-02
    9043.618     48.570   3.840  9.62497E-01  9.92057E-01 -2.95604E-02
    9044.794     49.747   3.880  9.63957E-01  9.91853E-01 -2.78958E-02
    9045.983     50.935   3.920  9.65147E-01  9.91762E-01 -2.66153E-02
    9047.184     52.136   3.960  9.66562E-01  9.91761E-01 -2.51987E-02
    9048.397     53.349   4.000  9.68827E-01  9.91849E-01 -2.30221E-02
    9049.622     54.575   4.040  9.72522E-01  9.92048E-01 -1.95260E-02
    9050.860     55.812   4.080  9.77854E-01  9.92332E-01 -1.44781E-02
    9052.109     57.062   4.120  9.84653E-01  9.92700E-01 -8.04672E-03
    9053.371     58.324   4.160  9.92507E-01  9.93153E-01 -6.46000E-04
    9054.645     59.598   4.200  1.00102E+00  9.93711E-01  7.31215E-03
    9055.931     60.884   4.240  1.00975E+00  9.94326E-01  1.54262E-02
    9057.230     62.183   4.280  1.01827E+00  9.95018E-01  2.32473E-02
    9058.540     63.493   4.320  1.02598E+00  9.95786E-01  3.01914E-02
    9059.863     64.816   4.360  1.03225E+00  9.96607E-01  3.56478E-02
    9061.198     66.151   4.400  1.03679E+00  9.97497E-01  3.92951E-02
    9062.546     67.498   4.440  1.03976E+00  9.98434E-01  4.13257E-02
    9063.905     68.858   4.480  1.04177E+00  9.99416E-01  4.23504E-02
    9065.277     70.229   4.520  1.04348E+00  1.00046E+00  4.30213E-02
    9066.660     71.613   4.560  1.04536E+00  1.00152E+00  4.38373E-02
    9068.056     73.009   4.600  1.04763E+00  1.00262E+00  4.50076E-02
    9069.464     74.417   4.640  1.05042E+00  1.00376E+00  4.66575E-02
    9070.885     75.838   4.680  1.05379E+00  1.00493E+00  4.88649E-02
    9072.317     77.270   4.720  1.05757E+00  1.00607E+00  5.14910E-02
    9073.762     78.715   4.760  1.06133E+00  1.00725E+00  5.40852E-02
    9075.219     80.172   4.800  1.06447E+00  1.00843E+00  5.60390E-02
    9076.688     81.641   4.840  1.06633E+00  1.00960E+00  5.67265E-02
    9078.169     83.122   4.880  1.06640E+00  1.01078E+00  5.56211E-02
    9079.663     84.616   4.920  1.06430E+00  1.01194E+00  5.23615E-02
    9081.169     86.121   4.960  1.05985E+00  1.01308E+00  4.67754E-02
    9082.687     87.639   5.000  1.05310E+00  1.01418E+00  3.89257E-02
    9084.217     89.169   5.040  1.04441E+00  1.01526E+00  2.91531E-02
    9085.759     90.712   5.080  1.03447E+00  1.01631E+00  1.81567E-02
    9087.313     92.266   5.120  1.02440E+00  1.01732E+00  7.08732E-03
    9088.880     93.833   5.160  1.01560E+00  1.01828E+00 -2.67692E-03
    9090.459     95.412   5.200  1.00924E+00  1.01920E+00 -9.96682E-03
    9092.050     97.003   5.240  1.00581E+00  1.02008E+00 -1.42627E-02
    9093.653     98.606   5.280  1.00510E+00  1.02088E+00 -1.57772E-02
    9095.269    100.221   5.320  1.00639E+00  1.02161E+00 -1.52159E-02
    9096.896    101.849   5.360  1.00893E+00  1.02230E+00 -1.33699E-02
    9098.536    103.489   5.400  1.01203E+00  1.02291E+00 -1.08768E-02
    9100.188    105.141   5.440  1.01524E+00  1.02345E+00 -8.21442E-03
    9101.852    106.805   5.480  1.01806E+00  1.02392E+00 -5.86424E-03
    9103.529    108.481   5.520  1.01985E+00  1.02431E+00 -4.45628E-03
    9105.217    110.170   5.560  1.01988E+00  1.02464E+00 -4.76438E-03
    9106.918    111.871   5.600  1.01742E+00  1.02487E+00 -7.45800E-03
    9108.631    113.584   5.640  1.01229E+00  1.02505E+00 -1.27607E-02
    9110.356    115.309   5.680  1.00496E+00  1.02514E+00 -2.01797E-02
    9112.094    117.046   5.720  9.96653E-01  1.02516E+00 -2.85061E-02
    9113.843    118.796   5.760  9.88943E-01  1.02509E+00 -3.61502E-02
    9115.605    120.558   5.800  9.83133E-01  1.02495E+00 -4.18135E-02
    9117.379    122.331   5.840  9.79736E-01  1.02472E+00 -4.49856E-02
    9119.165    124.118   5.880  9.78464E-01  1.02442E+00 -4.59565E-02
    9120.963    125.916   5.920  9.78650E-01  1.02407E+00 -4.54168E-02
    9122.774    127.726   5.960  9.79666E-01  1.02363E+00 -4.39654E-02
    9124.596    129.549   6.000  9.81298E-01  1.02306E+00 -4.17579E-02
