# # comment:                                                     FEFF 9.9.1  
# # Source:
# # Structure
# # Reduced
# # space
# # abc:
# # angles:
# # sites:
# # POT  SCF 100  7.0000   0, screened core-hole, AFOLP (folp(0)= 1.150)
# # Abs   Z=29 Rmt= 1.332 Rnm= 1.391 K  shell
# # Pot 1 Z= 3 Rmt= 1.251 Rnm= 1.311
# # Pot 2 Z=29 Rmt= 1.341 Rnm= 1.399
# # Pot 3 Z=15 Rmt= 0.945 Rnm= 1.155
# # Pot 4 Z= 8 Rmt= 0.939 Rnm= 1.042
# # Gam_ch=1.729E+00 H-L exch Vi= 0.000E+00 Vr= 0.000E+00
# # Mu=-6.673E+00eV kf=2.364E+00 Vint=-1.765E+01eV Rs_int= 1.534
# FMS rfms= 9.0000
# # PATH  Rmax=-1.000,  Keep_limit= 0.00, Heap_limit 0.00  Pwcrit= 2.50%
#  S02=0.950  Temp=   0.00  Debye_temp=   0.00  Global_sig2= 0.00000
#  Energy zero shift, vr, vi    0.00000E+00   0.00000E+00
#  Curved wave amplitude ratio filter   4.000%
#     file         sig2 tot  cw amp ratio   deg  nlegs   reff  inp sig2
#     0/   0 paths used
#  xsedge+ 50, used to normalize mu           2.4663E-04
#  -----------------------------------------------------------------------
#  omega    e    k    mu    mu0     chi     @#
    8983.896    -10.483  -1.000  5.06315E-02  5.52248E-02 -4.59340E-03
    8984.195    -10.184  -0.960  5.39895E-02  5.92829E-02 -5.29341E-03
    8984.482     -9.898  -0.920  5.76870E-02  6.37979E-02 -6.11092E-03
    8984.756     -9.623  -0.880  6.17703E-02  6.88376E-02 -7.06733E-03
    8985.018     -9.361  -0.840  6.62932E-02  7.44814E-02 -8.18816E-03
    8985.268     -9.111  -0.800  7.13172E-02  8.08209E-02 -9.50368E-03
    8985.506     -8.874  -0.760  7.69122E-02  8.79617E-02 -1.10495E-02
    8985.731     -8.648  -0.720  8.31563E-02  9.60231E-02 -1.28668E-02
    8985.945     -8.435  -0.680  9.01344E-02  1.05137E-01 -1.50023E-02
    8986.146     -8.233  -0.640  9.79352E-02  1.15442E-01 -1.75063E-02
    8986.335     -8.044  -0.600  1.06644E-01  1.27074E-01 -2.04301E-02
    8986.512     -7.868  -0.560  1.16333E-01  1.40152E-01 -2.38192E-02
    8986.676     -7.703  -0.520  1.27042E-01  1.54745E-01 -2.77030E-02
    8986.829     -7.551  -0.480  1.38758E-01  1.70839E-01 -3.20810E-02
    8986.969     -7.410  -0.440  1.51385E-01  1.88291E-01 -3.69064E-02
    8987.097     -7.282  -0.400  1.64725E-01  2.06797E-01 -4.20724E-02
    8987.213     -7.167  -0.360  1.78465E-01  2.25875E-01 -4.74097E-02
    8987.316     -7.063  -0.320  1.92196E-01  2.44899E-01 -5.27024E-02
    8987.408     -6.972  -0.280  2.05455E-01  2.63176E-01 -5.77202E-02
    8987.487     -6.892  -0.240  2.17782E-01  2.80039E-01 -6.22575E-02
    8987.554     -6.825  -0.200  2.28770E-01  2.94935E-01 -6.61643E-02
    8987.609     -6.770  -0.160  2.38100E-01  3.07457E-01 -6.93567E-02
    8987.652     -6.728  -0.120  2.45540E-01  3.17349E-01 -7.18092E-02
    8987.682     -6.697  -0.080  2.50938E-01  3.24471E-01 -7.35340E-02
    8987.706     -6.673   0.000  2.55295E-01  3.30191E-01 -7.48961E-02
    8987.761     -6.618   0.120  2.65215E-01  3.43079E-01 -7.78642E-02
    8987.804     -6.575   0.160  2.73025E-01  3.53096E-01 -8.00704E-02
    8987.859     -6.520   0.200  2.83093E-01  3.65842E-01 -8.27493E-02
    8987.926     -6.453   0.240  2.95444E-01  3.81173E-01 -8.57287E-02
    8988.005     -6.374   0.280  3.09981E-01  3.98742E-01 -8.87609E-02
    8988.097     -6.283   0.320  3.26525E-01  4.18079E-01 -9.15543E-02
    8988.200     -6.179   0.360  3.44815E-01  4.38580E-01 -9.37648E-02
    8988.316     -6.063   0.400  3.64607E-01  4.59649E-01 -9.50420E-02
    8988.444     -5.935   0.440  3.85599E-01  4.80683E-01 -9.50843E-02
    8988.584     -5.795   0.480  4.07583E-01  5.01267E-01 -9.36836E-02
    8988.737     -5.643   0.520  4.30355E-01  5.21126E-01 -9.07707E-02
    8988.901     -5.478   0.560  4.53489E-01  5.40095E-01 -8.66056E-02
    8989.078     -5.301   0.600  4.76237E-01  5.58184E-01 -8.19475E-02
    8989.267     -5.112   0.640  4.97173E-01  5.75438E-01 -7.82652E-02
    8989.468     -4.911   0.680  5.14235E-01  5.91942E-01 -7.77076E-02
    8989.682     -4.698   0.720  5.25022E-01  6.07818E-01 -8.27954E-02
    8989.907     -4.472   0.760  5.27923E-01  6.23164E-01 -9.52409E-02
    8990.145     -4.234   0.800  5.24203E-01  6.38092E-01 -1.13889E-01
    8990.395     -3.985   0.840  5.18923E-01  6.52679E-01 -1.33756E-01
    8990.657     -3.722   0.880  5.18900E-01  6.66987E-01 -1.48087E-01
    8990.931     -3.448   0.920  5.29043E-01  6.81083E-01 -1.52040E-01
    8991.218     -3.162   0.960  5.49184E-01  6.95004E-01 -1.45820E-01
    8991.516     -2.863   1.000  5.73500E-01  7.08752E-01 -1.35252E-01
    8991.827     -2.552   1.040  5.93776E-01  7.22362E-01 -1.28585E-01
    8992.150     -2.229   1.080  6.05017E-01  7.35859E-01 -1.30841E-01
    8992.486     -1.894   1.120  6.08908E-01  7.49223E-01 -1.40315E-01
    8992.833     -1.546   1.160  6.12705E-01  7.62465E-01 -1.49760E-01
    8993.193     -1.186   1.200  6.25708E-01  7.75553E-01 -1.49845E-01
    8993.565     -0.815   1.240  6.56104E-01  7.88491E-01 -1.32387E-01
    8993.949     -0.431   1.280  7.07347E-01  8.01239E-01 -9.38917E-02
    8994.345     -0.034   1.320  7.75454E-01  8.13817E-01 -3.83636E-02
    8994.753      0.374   1.360  8.50854E-01  8.26182E-01  2.46720E-02
    8995.174      0.795   1.400  9.24577E-01  8.38305E-01  8.62722E-02
    8995.607      1.228   1.440  9.91334E-01  8.50160E-01  1.41174E-01
    8996.052      1.673   1.480  1.05059E+00  8.61741E-01  1.88849E-01
    8996.509      2.130   1.520  1.10903E+00  8.73021E-01  2.36006E-01
    8996.978      2.599   1.560  1.17103E+00  8.83970E-01  2.87060E-01
    8997.460      3.081   1.600  1.22770E+00  8.94582E-01  3.33118E-01
    8997.954      3.574   1.640  1.27384E+00  9.04830E-01  3.69005E-01
    8998.460      4.080   1.680  1.31700E+00  9.14686E-01  4.02315E-01
    8998.978      4.599   1.720  1.35850E+00  9.24142E-01  4.34363E-01
    8999.508      5.129   1.760  1.37629E+00  9.33176E-01  4.43116E-01
    9000.051      5.671   1.800  1.33873E+00  9.41801E-01  3.96930E-01
    9000.605      6.226   1.840  1.26169E+00  9.49993E-01  3.11696E-01
    9001.172      6.793   1.880  1.18415E+00  9.57731E-01  2.26418E-01
    9001.752      7.372   1.920  1.12244E+00  9.65010E-01  1.57426E-01
    9002.343      7.964   1.960  1.08235E+00  9.71853E-01  1.10496E-01
    9002.946      8.567   2.000  1.06558E+00  9.78237E-01  8.73452E-02
    9003.562      9.183   2.040  1.06993E+00  9.84165E-01  8.57658E-02
    9004.190      9.811   2.080  1.08600E+00  9.89660E-01  9.63445E-02
    9004.830     10.451   2.120  1.09897E+00  9.94702E-01  1.04267E-01
    9005.482     11.103   2.160  1.09772E+00  9.99295E-01  9.84244E-02
    9006.147     11.767   2.200  1.07991E+00  1.00347E+00  7.64472E-02
    9006.823     12.444   2.240  1.05382E+00  1.00720E+00  4.66199E-02
    9007.512     13.133   2.280  1.03123E+00  1.01054E+00  2.06857E-02
    9008.213     13.834   2.320  1.01564E+00  1.01350E+00  2.13915E-03
    9008.926     14.547   2.360  1.00237E+00  1.01606E+00 -1.36923E-02
    9009.652     15.273   2.400  9.87759E-01  1.01825E+00 -3.04935E-02
    9010.390     16.010   2.440  9.72421E-01  1.02010E+00 -4.76835E-02
    9011.139     16.760   2.480  9.58838E-01  1.02163E+00 -6.27873E-02
    9011.901     17.522   2.520  9.49893E-01  1.02282E+00 -7.29299E-02
    9012.676     18.296   2.560  9.46910E-01  1.02373E+00 -7.68171E-02
    9013.462     19.083   2.600  9.48775E-01  1.02435E+00 -7.55707E-02
    9014.260     19.881   2.640  9.52749E-01  1.02471E+00 -7.19624E-02
    9015.071     20.692   2.680  9.55745E-01  1.02483E+00 -6.90863E-02
    9015.894     21.515   2.720  9.54511E-01  1.02474E+00 -7.02246E-02
    9016.729     22.350   2.760  9.45511E-01  1.02444E+00 -7.89240E-02
    9017.577     23.197   2.800  9.32976E-01  1.02394E+00 -9.09609E-02
    9018.436     24.057   2.840  9.22944E-01  1.02327E+00 -1.00323E-01
    9019.308     24.929   2.880  9.17636E-01  1.02244E+00 -1.04804E-01
    9020.192     25.813   2.920  9.17230E-01  1.02148E+00 -1.04252E-01
    9021.088     26.709   2.960  9.20230E-01  1.02040E+00 -1.00171E-01
    9021.996     27.617   3.000  9.25259E-01  1.01923E+00 -9.39679E-02
    9022.917     28.537   3.040  9.31222E-01  1.01797E+00 -8.67447E-02
    9023.849     29.470   3.080  9.37471E-01  1.01663E+00 -7.91562E-02
    9024.794     30.415   3.120  9.43829E-01  1.01522E+00 -7.13867E-02
    9025.751     31.372   3.160  9.50251E-01  1.01376E+00 -6.35066E-02
    9026.721     32.341   3.200  9.56476E-01  1.01228E+00 -5.58068E-02
    9027.702     33.323   3.240  9.62341E-01  1.01078E+00 -4.84346E-02
    9028.696     34.316   3.280  9.67568E-01  1.00926E+00 -4.16932E-02
    9029.702     35.322   3.320  9.71837E-01  1.00775E+00 -3.59092E-02
    9030.720     36.340   3.360  9.75011E-01  1.00623E+00 -3.12225E-02
    9031.750     37.371   3.400  9.77202E-01  1.00475E+00 -2.75486E-02
    9032.792     38.413   3.440  9.78594E-01  1.00328E+00 -2.46869E-02
    9033.847     39.468   3.480  9.79609E-01  1.00187E+00 -2.22580E-02
    9034.914     40.534   3.520  9.80699E-01  1.00047E+00 -1.97751E-02
    9035.993     41.613   3.560  9.82548E-01  9.99146E-01 -1.65976E-02
    9037.084     42.705   3.600  9.85834E-01  9.97864E-01 -1.20297E-02
    9038.187     43.808   3.640  9.91187E-01  9.96652E-01 -5.46562E-03
    9039.303     44.923   3.680  9.98964E-01  9.95493E-01  3.47098E-03
    9040.430     46.051   3.720  1.00919E+00  9.94408E-01  1.47778E-02
    9041.570     47.191   3.760  1.02151E+00  9.93400E-01  2.81120E-02
    9042.723     48.343   3.800  1.03534E+00  9.92469E-01  4.28751E-02
    9043.887     49.508   3.840  1.04980E+00  9.91619E-01  5.81791E-02
    9045.063     50.684   3.880  1.06382E+00  9.90848E-01  7.29753E-02
    9046.252     51.873   3.920  1.07643E+00  9.90136E-01  8.62895E-02
    9047.453     53.074   3.960  1.08689E+00  9.89549E-01  9.73379E-02
    9048.666     54.287   4.000  1.09453E+00  9.89023E-01  1.05506E-01
    9049.891     55.512   4.040  1.09905E+00  9.88578E-01  1.10469E-01
    9051.129     56.750   4.080  1.10025E+00  9.88216E-01  1.12032E-01
    9052.379     57.999   4.120  1.09807E+00  9.87956E-01  1.10114E-01
    9053.640     59.261   4.160  1.09251E+00  9.87755E-01  1.04758E-01
    9054.915     60.535   4.200  1.08385E+00  9.87658E-01  9.61926E-02
    9056.201     61.821   4.240  1.07232E+00  9.87618E-01  8.47041E-02
    9057.499     63.120   4.280  1.05842E+00  9.87678E-01  7.07395E-02
    9058.810     64.431   4.320  1.04276E+00  9.87793E-01  5.49635E-02
    9060.133     65.753   4.360  1.02614E+00  9.87980E-01  3.81551E-02
    9061.468     67.088   4.400  1.00938E+00  9.88220E-01  2.11610E-02
    9062.815     68.436   4.440  9.93355E-01  9.88534E-01  4.82184E-03
    9064.174     69.795   4.480  9.78679E-01  9.88918E-01 -1.02384E-02
    9065.546     71.167   4.520  9.65677E-01  9.89348E-01 -2.36714E-02
    9066.930     72.550   4.560  9.54450E-01  9.89825E-01 -3.53750E-02
    9068.326     73.946   4.600  9.44912E-01  9.90366E-01 -4.54546E-02
    9069.734     75.355   4.640  9.36860E-01  9.90926E-01 -5.40663E-02
    9071.154     76.775   4.680  9.30273E-01  9.91547E-01 -6.12738E-02
    9072.587     78.207   4.720  9.25037E-01  9.92182E-01 -6.71446E-02
    9074.032     79.652   4.760  9.21158E-01  9.92848E-01 -7.16902E-02
    9075.488     81.109   4.800  9.18691E-01  9.93526E-01 -7.48345E-02
    9076.958     82.578   4.840  9.17826E-01  9.94233E-01 -7.64073E-02
    9078.439     84.060   4.880  9.18845E-01  9.94968E-01 -7.61223E-02
    9079.932     85.553   4.920  9.21997E-01  9.95681E-01 -7.36836E-02
    9081.438     87.059   4.960  9.27375E-01  9.96392E-01 -6.90171E-02
    9082.956     88.577   5.000  9.34850E-01  9.97102E-01 -6.22520E-02
    9084.486     90.107   5.040  9.44055E-01  9.97807E-01 -5.37524E-02
    9086.028     91.649   5.080  9.54453E-01  9.98506E-01 -4.40528E-02
    9087.583     93.204   5.120  9.65441E-01  9.99173E-01 -3.37319E-02
    9089.150     94.770   5.160  9.76511E-01  9.99826E-01 -2.33157E-02
    9090.728     96.349   5.200  9.87220E-01  1.00042E+00 -1.32015E-02
    9092.319     97.940   5.240  9.97297E-01  1.00100E+00 -3.70388E-03
    9093.923     99.543   5.280  1.00644E+00  1.00154E+00  4.90247E-03
    9095.538    101.159   5.320  1.01444E+00  1.00204E+00  1.23950E-02
    9097.166    102.786   5.360  1.02110E+00  1.00250E+00  1.85988E-02
    9098.806    104.426   5.400  1.02623E+00  1.00291E+00  2.33251E-02
    9100.458    106.078   5.440  1.02959E+00  1.00325E+00  2.63344E-02
    9102.122    107.742   5.480  1.03098E+00  1.00355E+00  2.74335E-02
    9103.798    109.419   5.520  1.03046E+00  1.00380E+00  2.66615E-02
    9105.487    111.107   5.560  1.02832E+00  1.00397E+00  2.43494E-02
    9107.188    112.808   5.600  1.02514E+00  1.00408E+00  2.10584E-02
    9108.900    114.521   5.640  1.02159E+00  1.00415E+00  1.74368E-02
    9110.626    116.246   5.680  1.01823E+00  1.00414E+00  1.40953E-02
    9112.363    117.984   5.720  1.01558E+00  1.00406E+00  1.15203E-02
    9114.113    119.733   5.760  1.01391E+00  1.00392E+00  9.98508E-03
    9115.874    121.495   5.800  1.01319E+00  1.00374E+00  9.45903E-03
    9117.648    123.269   5.840  1.01309E+00  1.00350E+00  9.59217E-03
    9119.434    125.055   5.880  1.01306E+00  1.00320E+00  9.86746E-03
    9121.233    126.853   5.920  1.01266E+00  1.00282E+00  9.83905E-03
    9123.043    128.664   5.960  1.01166E+00  1.00240E+00  9.26331E-03
    9124.866    130.487   6.000  1.00992E+00  1.00186E+00  8.05854E-03
