# # comment:                                                     FEFF 9.9.1  
# # Source:
# # Structure
# # Reduced
# # space
# # abc:
# # angles:
# # sites:
# # POT  SCF 100  7.0000   0, screened core-hole, AFOLP (folp(0)= 1.150)
# # Abs   Z=29 Rmt= 1.359 Rnm= 1.415 K  shell
# # Pot 1 Z= 3 Rmt= 1.258 Rnm= 1.321
# # Pot 2 Z=29 Rmt= 1.292 Rnm= 1.385
# # Pot 3 Z=15 Rmt= 0.945 Rnm= 1.159
# # Pot 4 Z= 8 Rmt= 0.919 Rnm= 1.046
# # Gam_ch=1.729E+00 H-L exch Vi= 0.000E+00 Vr= 0.000E+00
# # Mu=-6.110E+00eV kf=2.353E+00 Vint=-1.704E+01eV Rs_int= 1.541
# FMS rfms= 9.0000
# # PATH  Rmax=-1.000,  Keep_limit= 0.00, Heap_limit 0.00  Pwcrit= 2.50%
#  S02=0.950  Temp=   0.00  Debye_temp=   0.00  Global_sig2= 0.00000
#  Energy zero shift, vr, vi    0.00000E+00   0.00000E+00
#  Curved wave amplitude ratio filter   4.000%
#     file         sig2 tot  cw amp ratio   deg  nlegs   reff  inp sig2
#     0/   0 paths used
#  xsedge+ 50, used to normalize mu           2.4673E-04
#  -----------------------------------------------------------------------
#  omega    e    k    mu    mu0     chi     @#
    8983.627     -9.920  -1.000  5.31069E-02  5.58608E-02 -2.75398E-03
    8983.926     -9.621  -0.960  5.67546E-02  5.99834E-02 -3.22884E-03
    8984.212     -9.335  -0.920  6.07903E-02  6.45715E-02 -3.78119E-03
    8984.487     -9.060  -0.880  6.52711E-02  6.96942E-02 -4.42307E-03
    8984.749     -8.798  -0.840  7.02641E-02  7.54323E-02 -5.16820E-03
    8984.999     -8.548  -0.800  7.58474E-02  8.18796E-02 -6.03214E-03
    8985.236     -8.311  -0.760  8.21112E-02  8.91436E-02 -7.03235E-03
    8985.462     -8.085  -0.720  8.91580E-02  9.73460E-02 -8.18806E-03
    8985.675     -7.872  -0.680  9.71012E-02  1.06621E-01 -9.51992E-03
    8985.876     -7.670  -0.640  1.06062E-01  1.17111E-01 -1.10491E-02
    8986.065     -7.481  -0.600  1.16159E-01  1.28955E-01 -1.27959E-02
    8986.242     -7.305  -0.560  1.27496E-01  1.42272E-01 -1.47766E-02
    8986.407     -7.140  -0.520  1.40135E-01  1.57135E-01 -1.69999E-02
    8986.559     -6.988  -0.480  1.54068E-01  1.73529E-01 -1.94611E-02
    8986.699     -6.847  -0.440  1.69172E-01  1.91308E-01 -2.21362E-02
    8986.827     -6.719  -0.400  1.85186E-01  2.10163E-01 -2.49766E-02
    8986.943     -6.604  -0.360  2.01692E-01  2.29601E-01 -2.79083E-02
    8987.047     -6.500  -0.320  2.18148E-01  2.48985E-01 -3.08371E-02
    8987.138     -6.409  -0.280  2.33948E-01  2.67608E-01 -3.36600E-02
    8987.218     -6.329  -0.240  2.48513E-01  2.84791E-01 -3.62784E-02
    8987.285     -6.262  -0.200  2.61360E-01  2.99968E-01 -3.86080E-02
    8987.339     -6.207  -0.160  2.72143E-01  3.12726E-01 -4.05829E-02
    8987.382     -6.165  -0.120  2.80650E-01  3.22804E-01 -4.21545E-02
    8987.413     -6.134  -0.080  2.86768E-01  3.30060E-01 -4.32919E-02
    8987.437     -6.110   0.000  2.91670E-01  3.35886E-01 -4.42159E-02
    8987.492     -6.055   0.120  3.02371E-01  3.49022E-01 -4.66502E-02
    8987.535     -6.012   0.160  3.10733E-01  3.59214E-01 -4.84816E-02
    8987.589     -5.957   0.200  3.21386E-01  3.72226E-01 -5.08402E-02
    8987.656     -5.890   0.240  3.34096E-01  3.87825E-01 -5.37295E-02
    8987.736     -5.811   0.280  3.48587E-01  4.05719E-01 -5.71322E-02
    8987.827     -5.720   0.320  3.64354E-01  4.25387E-01 -6.10333E-02
    8987.931     -5.616   0.360  3.80864E-01  4.46273E-01 -6.54088E-02
    8988.047     -5.500   0.400  3.97448E-01  4.67688E-01 -7.02397E-02
    8988.175     -5.372   0.440  4.13539E-01  4.89096E-01 -7.55569E-02
    8988.315     -5.232   0.480  4.28567E-01  5.10014E-01 -8.14467E-02
    8988.467     -5.080   0.520  4.42019E-01  5.30160E-01 -8.81412E-02
    8988.632     -4.915   0.560  4.53418E-01  5.49425E-01 -9.60076E-02
    8988.809     -4.738   0.600  4.62317E-01  5.67740E-01 -1.05423E-01
    8988.998     -4.549   0.640  4.68740E-01  5.85210E-01 -1.16470E-01
    8989.199     -4.348   0.680  4.73330E-01  6.01883E-01 -1.28553E-01
    8989.412     -4.135   0.720  4.77561E-01  6.17920E-01 -1.40359E-01
    8989.638     -3.909   0.760  4.83251E-01  6.33383E-01 -1.50133E-01
    8989.875     -3.671   0.800  4.92536E-01  6.48407E-01 -1.55871E-01
    8990.125     -3.422   0.840  5.07600E-01  6.63068E-01 -1.55468E-01
    8990.387     -3.159   0.880  5.29990E-01  6.77411E-01 -1.47421E-01
    8990.662     -2.885   0.920  5.59225E-01  6.91525E-01 -1.32300E-01
    8990.948     -2.599   0.960  5.91918E-01  7.05405E-01 -1.13487E-01
    8991.247     -2.300   1.000  6.23542E-01  7.19137E-01 -9.55955E-02
    8991.558     -1.989   1.040  6.52387E-01  7.32695E-01 -8.03085E-02
    8991.881     -1.666   1.080  6.82257E-01  7.46084E-01 -6.38265E-02
    8992.216     -1.331   1.120  7.18672E-01  7.59343E-01 -4.06710E-02
    8992.564     -0.983   1.160  7.62070E-01  7.72426E-01 -1.03556E-02
    8992.923     -0.623   1.200  8.07448E-01  7.85362E-01  2.20864E-02
    8993.295     -0.252   1.240  8.51025E-01  7.98115E-01  5.29104E-02
    8993.679      0.132   1.280  8.93258E-01  8.10664E-01  8.25937E-02
    8994.076      0.529   1.320  9.34098E-01  8.22989E-01  1.11109E-01
    8994.484      0.937   1.360  9.71891E-01  8.35088E-01  1.36803E-01
    8994.905      1.358   1.400  1.00789E+00  8.46934E-01  1.60953E-01
    8995.337      1.791   1.440  1.04479E+00  8.58503E-01  1.86287E-01
    8995.782      2.236   1.480  1.08371E+00  8.69767E-01  2.13938E-01
    8996.240      2.693   1.520  1.12634E+00  8.80721E-01  2.45624E-01
    8996.709      3.162   1.560  1.17229E+00  8.91315E-01  2.80978E-01
    8997.191      3.644   1.600  1.21684E+00  9.01565E-01  3.15276E-01
    8997.684      4.137   1.640  1.25462E+00  9.11424E-01  3.43198E-01
    8998.190      4.643   1.680  1.27902E+00  9.20907E-01  3.58110E-01
    8998.708      5.162   1.720  1.27784E+00  9.29967E-01  3.47876E-01
    8999.239      5.692   1.760  1.25007E+00  9.38620E-01  3.11449E-01
    8999.781      6.234   1.800  1.21305E+00  9.46843E-01  2.66210E-01
    9000.336      6.789   1.840  1.17698E+00  9.54634E-01  2.22349E-01
    9000.903      7.356   1.880  1.13873E+00  9.61971E-01  1.76756E-01
    9001.482      7.935   1.920  1.10365E+00  9.68871E-01  1.34780E-01
    9002.073      8.527   1.960  1.08725E+00  9.75315E-01  1.11935E-01
    9002.677      9.130   2.000  1.09613E+00  9.81325E-01  1.14810E-01
    9003.293      9.746   2.040  1.11858E+00  9.86883E-01  1.31700E-01
    9003.921     10.374   2.080  1.13666E+00  9.91992E-01  1.44664E-01
    9004.561     11.014   2.120  1.13968E+00  9.96675E-01  1.43006E-01
    9005.213     11.666   2.160  1.12592E+00  1.00094E+00  1.24980E-01
    9005.877     12.330   2.200  1.09776E+00  1.00479E+00  9.29760E-02
    9006.554     13.007   2.240  1.06255E+00  1.00823E+00  5.43254E-02
    9007.243     13.696   2.280  1.03137E+00  1.01128E+00  2.00859E-02
    9007.944     14.397   2.320  1.00768E+00  1.01397E+00 -6.28955E-03
    9008.657     15.110   2.360  9.85471E-01  1.01628E+00 -3.08123E-02
    9009.383     15.836   2.400  9.61320E-01  1.01826E+00 -5.69402E-02
    9010.120     16.573   2.440  9.39434E-01  1.01991E+00 -8.04725E-02
    9010.870     17.323   2.480  9.25250E-01  1.02123E+00 -9.59819E-02
    9011.632     18.085   2.520  9.17969E-01  1.02226E+00 -1.04293E-01
    9012.406     18.859   2.560  9.12128E-01  1.02301E+00 -1.10880E-01
    9013.193     19.646   2.600  9.05001E-01  1.02350E+00 -1.18500E-01
    9013.991     20.444   2.640  8.99318E-01  1.02375E+00 -1.24430E-01
    9014.802     21.255   2.680  8.98202E-01  1.02378E+00 -1.25578E-01
    9015.625     22.078   2.720  9.00091E-01  1.02358E+00 -1.23492E-01
    9016.460     22.913   2.760  9.02226E-01  1.02323E+00 -1.21003E-01
    9017.307     23.760   2.800  9.04592E-01  1.02267E+00 -1.18074E-01
    9018.167     24.620   2.840  9.09325E-01  1.02198E+00 -1.12659E-01
    9019.039     25.492   2.880  9.16538E-01  1.02115E+00 -1.04611E-01
    9019.922     26.376   2.920  9.24836E-01  1.02019E+00 -9.53519E-02
    9020.819     27.272   2.960  9.32627E-01  1.01911E+00 -8.64827E-02
    9021.727     28.180   3.000  9.38864E-01  1.01794E+00 -7.90800E-02
    9022.647     29.100   3.040  9.43051E-01  1.01670E+00 -7.36456E-02
    9023.580     30.033   3.080  9.45573E-01  1.01540E+00 -6.98233E-02
    9024.525     30.978   3.120  9.47536E-01  1.01405E+00 -6.65123E-02
    9025.482     31.935   3.160  9.50178E-01  1.01264E+00 -6.24598E-02
    9026.451     32.904   3.200  9.54338E-01  1.01121E+00 -5.68753E-02
    9027.433     33.886   3.240  9.60464E-01  1.00978E+00 -4.93156E-02
    9028.426     34.879   3.280  9.68481E-01  1.00834E+00 -3.98590E-02
    9029.432     35.885   3.320  9.77845E-01  1.00688E+00 -2.90374E-02
    9030.450     36.903   3.360  9.88030E-01  1.00545E+00 -1.74192E-02
    9031.480     37.934   3.400  9.98574E-01  1.00405E+00 -5.47217E-03
    9032.523     38.976   3.440  1.00912E+00  1.00266E+00  6.46674E-03
    9033.577     40.031   3.480  1.01958E+00  1.00133E+00  1.82534E-02
    9034.644     41.097   3.520  1.02981E+00  1.00001E+00  2.97985E-02
    9035.723     42.176   3.560  1.03970E+00  9.98768E-01  4.09272E-02
    9036.814     43.268   3.600  1.04902E+00  9.97568E-01  5.14490E-02
    9037.918     44.371   3.640  1.05763E+00  9.96438E-01  6.11942E-02
    9039.033     45.486   3.680  1.06539E+00  9.95358E-01  7.00310E-02
    9040.161     46.614   3.720  1.07217E+00  9.94351E-01  7.78158E-02
    9041.301     47.754   3.760  1.07791E+00  9.93419E-01  8.44922E-02
    9042.453     48.906   3.800  1.08241E+00  9.92541E-01  8.98644E-02
    9043.618     50.071   3.840  1.08524E+00  9.91741E-01  9.34995E-02
    9044.794     51.247   3.880  1.08597E+00  9.91040E-01  9.49263E-02
    9045.983     52.436   3.920  1.08415E+00  9.90396E-01  9.37513E-02
    9047.184     53.637   3.960  1.07962E+00  9.89832E-01  8.97906E-02
    9048.397     54.850   4.000  1.07246E+00  9.89346E-01  8.31125E-02
    9049.622     56.075   4.040  1.06305E+00  9.88942E-01  7.41033E-02
    9050.860     57.313   4.080  1.05183E+00  9.88639E-01  6.31904E-02
    9052.109     58.562   4.120  1.03925E+00  9.88393E-01  5.08604E-02
    9053.371     59.824   4.160  1.02589E+00  9.88222E-01  3.76722E-02
    9054.645     61.098   4.200  1.01233E+00  9.88107E-01  2.42222E-02
    9055.931     62.385   4.240  9.99124E-01  9.88088E-01  1.10360E-02
    9057.230     63.683   4.280  9.86713E-01  9.88125E-01 -1.41148E-03
    9058.540     64.994   4.320  9.75480E-01  9.88237E-01 -1.27564E-02
    9059.863     66.316   4.360  9.65678E-01  9.88422E-01 -2.27445E-02
    9061.198     67.651   4.400  9.57482E-01  9.88657E-01 -3.11755E-02
    9062.546     68.999   4.440  9.51002E-01  9.88960E-01 -3.79582E-02
    9063.905     70.358   4.480  9.46179E-01  9.89310E-01 -4.31314E-02
    9065.277     71.730   4.520  9.42930E-01  9.89704E-01 -4.67737E-02
    9066.660     73.113   4.560  9.41174E-01  9.90140E-01 -4.89661E-02
    9068.056     74.509   4.600  9.40864E-01  9.90638E-01 -4.97738E-02
    9069.464     75.918   4.640  9.41918E-01  9.91152E-01 -4.92348E-02
    9070.885     77.338   4.680  9.44316E-01  9.91704E-01 -4.73879E-02
    9072.317     78.770   4.720  9.47866E-01  9.92289E-01 -4.44230E-02
    9073.762     80.215   4.760  9.52249E-01  9.92885E-01 -4.06358E-02
    9075.219     81.672   4.800  9.57081E-01  9.93512E-01 -3.64313E-02
    9076.688     83.141   4.840  9.61878E-01  9.94167E-01 -3.22881E-02
    9078.169     84.623   4.880  9.66168E-01  9.94804E-01 -2.86359E-02
    9079.663     86.116   4.920  9.69770E-01  9.95462E-01 -2.56916E-02
    9081.169     87.622   4.960  9.72779E-01  9.96098E-01 -2.33195E-02
    9082.687     89.140   5.000  9.75693E-01  9.96753E-01 -2.10595E-02
    9084.217     90.670   5.040  9.79022E-01  9.97381E-01 -1.83583E-02
    9085.759     92.212   5.080  9.83221E-01  9.98000E-01 -1.47785E-02
    9087.313     93.767   5.120  9.88419E-01  9.98589E-01 -1.01700E-02
    9088.880     95.333   5.160  9.94359E-01  9.99166E-01 -4.80654E-03
    9090.459     96.912   5.200  1.00030E+00  9.99707E-01  5.89021E-04
    9092.050     98.503   5.240  1.00526E+00  1.00021E+00  5.04898E-03
    9093.653    100.106   5.280  1.00842E+00  1.00070E+00  7.71549E-03
    9095.269    101.722   5.320  1.00920E+00  1.00112E+00  8.07886E-03
    9096.896    103.349   5.360  1.00758E+00  1.00151E+00  6.06676E-03
    9098.536    104.989   5.400  1.00397E+00  1.00187E+00  2.09766E-03
    9100.188    106.641   5.440  9.99235E-01  1.00217E+00 -2.93521E-03
    9101.852    108.305   5.480  9.94608E-01  1.00242E+00 -7.81219E-03
    9103.529    109.982   5.520  9.91321E-01  1.00260E+00 -1.12812E-02
    9105.217    111.670   5.560  9.90368E-01  1.00274E+00 -1.23681E-02
    9106.918    113.371   5.600  9.92290E-01  1.00283E+00 -1.05361E-02
    9108.631    115.084   5.640  9.97147E-01  1.00287E+00 -5.72228E-03
    9110.356    116.809   5.680  1.00451E+00  1.00284E+00  1.66910E-03
    9112.094    118.547   5.720  1.01356E+00  1.00274E+00  1.08172E-02
    9113.843    120.296   5.760  1.02325E+00  1.00259E+00  2.06546E-02
    9115.605    122.058   5.800  1.03251E+00  1.00240E+00  3.01140E-02
    9117.379    123.832   5.840  1.04049E+00  1.00214E+00  3.83513E-02
    9119.165    125.618   5.880  1.04661E+00  1.00183E+00  4.47813E-02
    9120.963    127.416   5.920  1.05047E+00  1.00148E+00  4.89848E-02
    9122.774    129.227   5.960  1.05162E+00  1.00107E+00  5.05577E-02
    9124.596    131.050   6.000  1.04946E+00  1.00057E+00  4.88943E-02
