# # comment:                                                     FEFF 9.9.1  
# # Source:
# # Structure
# # Reduced
# # space
# # abc:
# # angles:117.086759
# # sites:
# # POT  SCF 100  7.0000   0, screened core-hole, AFOLP (folp(0)= 1.150)
# # Abs   Z=29 Rmt= 1.267 Rnm= 1.344 K  shell
# # Pot 1 Z=23 Rmt= 1.188 Rnm= 1.348
# # Pot 2 Z=29 Rmt= 1.268 Rnm= 1.345
# # Pot 3 Z= 8 Rmt= 0.987 Rnm= 1.095
# # Gam_ch=1.729E+00 H-L exch Vi= 0.000E+00 Vr= 0.000E+00
# # Mu=-9.785E+00eV kf=2.219E+00 Vint=-1.810E+01eV Rs_int= 1.634
# FMS rfms= 9.0000
# # PATH  Rmax=-1.000,  Keep_limit= 0.00, Heap_limit 0.00  Pwcrit= 2.50%
#  S02=0.950  Temp=   0.00  Debye_temp=   0.00  Global_sig2= 0.00000
#  Energy zero shift, vr, vi    0.00000E+00   0.00000E+00
#  Curved wave amplitude ratio filter   4.000%
#     file         sig2 tot  cw amp ratio   deg  nlegs   reff  inp sig2
#     0/   0 paths used
#  xsedge+ 50, used to normalize mu           2.4937E-04
#  -----------------------------------------------------------------------
#  omega    e    k    mu    mu0     chi     @#
    8984.098    -13.595  -1.000  3.62996E-02  4.80509E-02 -1.17513E-02
    8984.396    -13.296  -0.960  3.83268E-02  5.13810E-02 -1.30541E-02
    8984.683    -13.010  -0.920  4.05413E-02  5.50692E-02 -1.45278E-02
    8984.957    -12.735  -0.880  4.29700E-02  5.91673E-02 -1.61973E-02
    8985.219    -12.473  -0.840  4.56448E-02  6.37357E-02 -1.80909E-02
    8985.469    -12.223  -0.800  4.86031E-02  6.88439E-02 -2.02408E-02
    8985.707    -11.986  -0.760  5.18885E-02  7.45721E-02 -2.26836E-02
    8985.933    -11.760  -0.720  5.55508E-02  8.10102E-02 -2.54594E-02
    8986.146    -11.547  -0.680  5.96459E-02  8.82575E-02 -2.86116E-02
    8986.347    -11.345  -0.640  6.42335E-02  9.64184E-02 -3.21849E-02
    8986.536    -11.156  -0.600  6.93733E-02  1.05595E-01 -3.62221E-02
    8986.713    -10.980  -0.560  7.51176E-02  1.15875E-01 -4.07577E-02
    8986.878    -10.815  -0.520  8.14993E-02  1.27309E-01 -4.58101E-02
    8987.030    -10.663  -0.480  8.85158E-02  1.39884E-01 -5.13686E-02
    8987.170    -10.523  -0.440  9.61093E-02  1.53490E-01 -5.73810E-02
    8987.298    -10.395  -0.400  1.04150E-01  1.67893E-01 -6.37424E-02
    8987.414    -10.279  -0.360  1.12431E-01  1.82724E-01 -7.02929E-02
    8987.518    -10.175  -0.320  1.20678E-01  1.97506E-01 -7.68284E-02
    8987.609    -10.084  -0.280  1.28585E-01  2.11710E-01 -8.31251E-02
    8987.688    -10.004  -0.240  1.35856E-01  2.24823E-01 -8.89670E-02
    8987.755     -9.937  -0.200  1.42248E-01  2.36416E-01 -9.41688E-02
    8987.810     -9.882  -0.160  1.47591E-01  2.46174E-01 -9.85838E-02
    8987.853     -9.840  -0.120  1.51790E-01  2.53893E-01 -1.02103E-01
    8987.883     -9.809  -0.080  1.54807E-01  2.59457E-01 -1.04650E-01
    8987.908     -9.785   0.000  1.57242E-01  2.63930E-01 -1.06689E-01
    8987.963     -9.730   0.120  1.62326E-01  2.74017E-01 -1.11690E-01
    8988.005     -9.687   0.160  1.66237E-01  2.81864E-01 -1.15627E-01
    8988.060     -9.633   0.200  1.71113E-01  2.91896E-01 -1.20783E-01
    8988.127     -9.565   0.240  1.76751E-01  3.03988E-01 -1.27236E-01
    8988.206     -9.486   0.280  1.82875E-01  3.17913E-01 -1.35038E-01
    8988.298     -9.395   0.320  1.89019E-01  3.33317E-01 -1.44298E-01
    8988.402     -9.291   0.360  1.94715E-01  3.49804E-01 -1.55089E-01
    8988.517     -9.175   0.400  1.99453E-01  3.66932E-01 -1.67478E-01
    8988.645     -9.047   0.440  2.02866E-01  3.84253E-01 -1.81386E-01
    8988.786     -8.907   0.480  2.05005E-01  4.01474E-01 -1.96470E-01
    8988.938     -8.755   0.520  2.06341E-01  4.18398E-01 -2.12058E-01
    8989.103     -8.590   0.560  2.07816E-01  4.34913E-01 -2.27097E-01
    8989.279     -8.413   0.600  2.10627E-01  4.51037E-01 -2.40409E-01
    8989.468     -8.224   0.640  2.15696E-01  4.66755E-01 -2.51059E-01
    8989.670     -8.023   0.680  2.23640E-01  4.82183E-01 -2.58543E-01
    8989.883     -7.810   0.720  2.34627E-01  4.97370E-01 -2.62744E-01
    8990.108     -7.584   0.760  2.48666E-01  5.12421E-01 -2.63755E-01
    8990.346     -7.347   0.800  2.65417E-01  5.27372E-01 -2.61956E-01
    8990.596     -7.097   0.840  2.84147E-01  5.42273E-01 -2.58126E-01
    8990.858     -6.834   0.880  3.03747E-01  5.57198E-01 -2.53451E-01
    8991.133     -6.560   0.920  3.23556E-01  5.72153E-01 -2.48597E-01
    8991.419     -6.274   0.960  3.44997E-01  5.87173E-01 -2.42175E-01
    8991.718     -5.975   1.000  3.71588E-01  6.02242E-01 -2.30654E-01
    8992.029     -5.664   1.040  4.05538E-01  6.17382E-01 -2.11845E-01
    8992.352     -5.341   1.080  4.44676E-01  6.32603E-01 -1.87927E-01
    8992.687     -5.006   1.120  4.82745E-01  6.47852E-01 -1.65107E-01
    8993.034     -4.658   1.160  5.07766E-01  6.63131E-01 -1.55364E-01
    8993.394     -4.299   1.200  5.07261E-01  6.78396E-01 -1.71135E-01
    8993.766     -3.927   1.240  4.88102E-01  6.93663E-01 -2.05561E-01
    8994.150     -3.543   1.280  4.74543E-01  7.08885E-01 -2.34342E-01
    8994.546     -3.146   1.320  4.81597E-01  7.24010E-01 -2.42413E-01
    8994.955     -2.738   1.360  5.07585E-01  7.39047E-01 -2.31462E-01
    8995.375     -2.317   1.400  5.43514E-01  7.53923E-01 -2.10408E-01
    8995.808     -1.885   1.440  5.81785E-01  7.68604E-01 -1.86820E-01
    8996.253     -1.440   1.480  6.20209E-01  7.83077E-01 -1.62868E-01
    8996.710     -0.982   1.520  6.58453E-01  7.97305E-01 -1.38852E-01
    8997.180     -0.513   1.560  6.90916E-01  8.11256E-01 -1.20339E-01
    8997.661     -0.031   1.600  7.11168E-01  8.24874E-01 -1.13706E-01
    8998.155      0.462   1.640  7.24033E-01  8.38167E-01 -1.14134E-01
    8998.661      0.968   1.680  7.42917E-01  8.51080E-01 -1.08163E-01
    8999.179      1.487   1.720  7.82545E-01  8.63581E-01 -8.10359E-02
    8999.710      2.017   1.760  8.54662E-01  8.75661E-01 -2.09987E-02
    9000.252      2.559   1.800  9.61626E-01  8.87308E-01  7.43185E-02
    9000.807      3.114   1.840  1.09256E+00  8.98472E-01  1.94087E-01
    9001.374      3.681   1.880  1.23254E+00  9.09147E-01  3.23389E-01
    9001.953      4.260   1.920  1.36264E+00  9.19325E-01  4.43316E-01
    9002.544      4.852   1.960  1.44620E+00  9.29001E-01  5.17198E-01
    9003.148      5.455   2.000  1.46858E+00  9.38152E-01  5.30426E-01
    9003.763      6.071   2.040  1.45369E+00  9.46776E-01  5.06917E-01
    9004.391      6.699   2.080  1.41137E+00  9.54871E-01  4.56501E-01
    9005.031      7.339   2.120  1.33448E+00  9.62437E-01  3.72045E-01
    9005.684      7.991   2.160  1.24252E+00  9.69496E-01  2.73021E-01
    9006.348      8.655   2.200  1.17782E+00  9.76009E-01  2.01809E-01
    9007.025      9.332   2.240  1.16213E+00  9.82021E-01  1.80105E-01
    9007.714     10.021   2.280  1.17616E+00  9.87516E-01  1.88645E-01
    9008.415     10.722   2.320  1.18144E+00  9.92541E-01  1.88901E-01
    9009.128     11.435   2.360  1.16439E+00  9.97060E-01  1.67326E-01
    9009.853     12.161   2.400  1.13333E+00  1.00110E+00  1.32229E-01
    9010.591     12.898   2.440  1.08815E+00  1.00471E+00  8.34389E-02
    9011.341     13.648   2.480  1.03590E+00  1.00786E+00  2.80413E-02
    9012.103     14.410   2.520  9.89604E-01  1.01059E+00 -2.09872E-02
    9012.877     15.184   2.560  9.50634E-01  1.01294E+00 -6.23087E-02
    9013.663     15.971   2.600  9.22047E-01  1.01488E+00 -9.28328E-02
    9014.462     16.769   2.640  9.19210E-01  1.01647E+00 -9.72635E-02
    9015.273     17.580   2.680  9.29122E-01  1.01773E+00 -8.86126E-02
    9016.096     18.403   2.720  9.39834E-01  1.01865E+00 -7.88158E-02
    9016.931     19.238   2.760  9.47160E-01  1.01927E+00 -7.21116E-02
    9017.778     20.085   2.800  9.50314E-01  1.01961E+00 -6.92954E-02
    9018.638     20.945   2.840  9.50369E-01  1.01968E+00 -6.93060E-02
    9019.509     21.817   2.880  9.48890E-01  1.01952E+00 -7.06288E-02
    9020.393     22.701   2.920  9.47031E-01  1.01913E+00 -7.20979E-02
    9021.289     23.597   2.960  9.45723E-01  1.01854E+00 -7.28138E-02
    9022.198     24.505   3.000  9.44989E-01  1.01777E+00 -7.27809E-02
    9023.118     25.425   3.040  9.44430E-01  1.01682E+00 -7.23898E-02
    9024.051     26.358   3.080  9.43770E-01  1.01573E+00 -7.19635E-02
    9024.996     27.303   3.120  9.42620E-01  1.01452E+00 -7.19000E-02
    9025.953     28.260   3.160  9.40381E-01  1.01319E+00 -7.28067E-02
    9026.922     29.229   3.200  9.36609E-01  1.01174E+00 -7.51345E-02
    9027.903     30.211   3.240  9.31407E-01  1.01022E+00 -7.88098E-02
    9028.897     31.204   3.280  9.25358E-01  1.00864E+00 -8.32783E-02
    9029.903     32.210   3.320  9.19779E-01  1.00701E+00 -8.72271E-02
    9030.921     33.228   3.360  9.15997E-01  1.00531E+00 -8.93170E-02
    9031.951     34.259   3.400  9.14806E-01  1.00361E+00 -8.87999E-02
    9032.994     35.301   3.440  9.16163E-01  1.00187E+00 -8.57028E-02
    9034.048     36.356   3.480  9.19612E-01  1.00012E+00 -8.05101E-02
    9035.115     37.422   3.520  9.24599E-01  9.98401E-01 -7.38020E-02
    9036.194     38.501   3.560  9.30549E-01  9.96663E-01 -6.61141E-02
    9037.285     39.592   3.600  9.37232E-01  9.94977E-01 -5.77452E-02
    9038.389     40.696   3.640  9.44409E-01  9.93303E-01 -4.88943E-02
    9039.504     41.811   3.680  9.51861E-01  9.91646E-01 -3.97852E-02
    9040.632     42.939   3.720  9.59505E-01  9.90071E-01 -3.05663E-02
    9041.772     44.079   3.760  9.67267E-01  9.88519E-01 -2.12529E-02
    9042.924     45.231   3.800  9.75168E-01  9.87036E-01 -1.18687E-02
    9044.088     46.396   3.840  9.83043E-01  9.85601E-01 -2.55884E-03
    9045.265     47.572   3.880  9.90700E-01  9.84239E-01  6.46135E-03
    9046.454     48.761   3.920  9.98060E-01  9.82952E-01  1.51083E-02
    9047.654     49.962   3.960  1.00531E+00  9.81741E-01  2.35730E-02
    9048.868     51.175   4.000  1.01305E+00  9.80586E-01  3.24627E-02
    9050.093     52.400   4.040  1.02210E+00  9.79531E-01  4.25648E-02
    9051.330     53.638   4.080  1.03290E+00  9.78535E-01  5.43672E-02
    9052.580     54.887   4.120  1.04526E+00  9.77639E-01  6.76176E-02
    9053.842     56.149   4.160  1.05807E+00  9.76826E-01  8.12473E-02
    9055.116     57.423   4.200  1.06985E+00  9.76095E-01  9.37501E-02
    9056.402     58.709   4.240  1.07924E+00  9.75444E-01  1.03796E-01
    9057.701     60.008   4.280  1.08553E+00  9.74874E-01  1.10652E-01
    9059.011     61.319   4.320  1.08834E+00  9.74386E-01  1.13951E-01
    9060.334     62.641   4.360  1.08731E+00  9.74000E-01  1.13313E-01
    9061.669     63.976   4.400  1.08200E+00  9.73672E-01  1.08328E-01
    9063.016     65.324   4.440  1.07239E+00  9.73425E-01  9.89651E-02
    9064.376     66.683   4.480  1.05911E+00  9.73279E-01  8.58304E-02
    9065.747     68.055   4.520  1.04338E+00  9.73190E-01  7.01940E-02
    9067.131     69.438   4.560  1.02689E+00  9.73201E-01  5.36888E-02
    9068.527     70.834   4.600  1.01094E+00  9.73266E-01  3.76775E-02
    9069.935     72.243   4.640  9.96425E-01  9.73404E-01  2.30218E-02
    9071.356     73.663   4.680  9.83632E-01  9.73592E-01  1.00396E-02
    9072.788     75.095   4.720  9.72424E-01  9.73853E-01 -1.42887E-03
    9074.233     76.540   4.760  9.62397E-01  9.74184E-01 -1.17867E-02
    9075.690     77.997   4.800  9.53101E-01  9.74561E-01 -2.14602E-02
    9077.159     79.466   4.840  9.44282E-01  9.74982E-01 -3.07005E-02
    9078.640     80.948   4.880  9.36003E-01  9.75447E-01 -3.94433E-02
    9080.134     82.441   4.920  9.28557E-01  9.75973E-01 -4.74160E-02
    9081.639     83.947   4.960  9.22262E-01  9.76516E-01 -5.42544E-02
    9083.157     85.465   5.000  9.17608E-01  9.77097E-01 -5.94888E-02
    9084.687     86.995   5.040  9.15095E-01  9.77712E-01 -6.26175E-02
    9086.230     88.537   5.080  9.15213E-01  9.78360E-01 -6.31469E-02
    9087.784     90.092   5.120  9.18216E-01  9.79018E-01 -6.08023E-02
    9089.351     91.658   5.160  9.23991E-01  9.79703E-01 -5.57117E-02
    9090.930     93.237   5.200  9.32025E-01  9.80370E-01 -4.83451E-02
    9092.521     94.828   5.240  9.41636E-01  9.81060E-01 -3.94243E-02
    9094.124     96.431   5.280  9.52017E-01  9.81752E-01 -2.97344E-02
    9095.739     98.047   5.320  9.62358E-01  9.82443E-01 -2.00847E-02
    9097.367     99.674   5.360  9.71851E-01  9.83129E-01 -1.12774E-02
    9099.007    101.314   5.400  9.79739E-01  9.83786E-01 -4.04628E-03
    9100.659    102.966   5.440  9.85512E-01  9.84434E-01  1.07791E-03
    9102.323    104.630   5.480  9.88837E-01  9.85050E-01  3.78633E-03
    9104.000    106.307   5.520  9.89592E-01  9.85655E-01  3.93695E-03
    9105.688    107.995   5.560  9.87668E-01  9.86225E-01  1.44289E-03
    9107.389    109.696   5.600  9.83123E-01  9.86757E-01 -3.63368E-03
    9109.102    111.409   5.640  9.76436E-01  9.87250E-01 -1.08146E-02
    9110.827    113.134   5.680  9.68718E-01  9.87726E-01 -1.90082E-02
    9112.564    114.872   5.720  9.61306E-01  9.88139E-01 -2.68332E-02
    9114.314    116.621   5.760  9.55317E-01  9.88506E-01 -3.31884E-02
    9116.076    118.383   5.800  9.51282E-01  9.88806E-01 -3.75232E-02
    9117.850    120.157   5.840  9.49438E-01  9.89083E-01 -3.96445E-02
    9119.636    121.943   5.880  9.49886E-01  9.89293E-01 -3.94064E-02
    9121.434    123.741   5.920  9.52855E-01  9.89453E-01 -3.65983E-02
    9123.245    125.552   5.960  9.58483E-01  9.89532E-01 -3.10484E-02
    9125.067    127.375   6.000  9.67023E-01  9.89530E-01 -2.25066E-02
