# # comment:                                                     FEFF 9.9.1  
# # Source:
# # Structure
# # Reduced
# # space
# # abc:
# # angles:
# # sites:
# # POT  SCF 100  7.0000   0, screened core-hole, AFOLP (folp(0)= 1.150)
# # Abs   Z=29 Rmt= 1.236 Rnm= 1.326 K  shell
# # Pot 1 Z=29 Rmt= 1.229 Rnm= 1.335
# # Pot 2 Z= 8 Rmt= 0.979 Rnm= 1.112
# # Pot 3 Z= 9 Rmt= 1.050 Rnm= 1.135
# # Gam_ch=1.729E+00 H-L exch Vi= 0.000E+00 Vr= 0.000E+00
# # Mu=-6.991E+00eV kf=2.018E+00 Vint=-1.271E+01eV Rs_int= 1.797
# FMS rfms= 9.0000
# # PATH  Rmax=-1.000,  Keep_limit= 0.00, Heap_limit 0.00  Pwcrit= 2.50%
#  S02=0.950  Temp=   0.00  Debye_temp=   0.00  Global_sig2= 0.00000
#  Energy zero shift, vr, vi    0.00000E+00   0.00000E+00
#  Curved wave amplitude ratio filter   4.000%
#     file         sig2 tot  cw amp ratio   deg  nlegs   reff  inp sig2
#     0/   0 paths used
#  xsedge+ 50, used to normalize mu           2.4053E-04
#  -----------------------------------------------------------------------
#  omega    e    k    mu    mu0     chi     @#
    8983.341    -10.801  -1.000  3.19342E-02  5.60389E-02 -2.41047E-02
    8983.640    -10.502  -0.960  3.32307E-02  6.00162E-02 -2.67855E-02
    8983.927    -10.216  -0.920  3.45990E-02  6.44187E-02 -2.98197E-02
    8984.201     -9.942  -0.880  3.60469E-02  6.93065E-02 -3.32596E-02
    8984.463     -9.680  -0.840  3.75837E-02  7.47496E-02 -3.71659E-02
    8984.713     -9.430  -0.800  3.92203E-02  8.08283E-02 -4.16080E-02
    8984.951     -9.192  -0.760  4.09700E-02  8.76346E-02 -4.66646E-02
    8985.176     -8.966  -0.720  4.28480E-02  9.52720E-02 -5.24239E-02
    8985.390     -8.753  -0.680  4.48714E-02  1.03854E-01 -5.89822E-02
    8985.591     -8.552  -0.640  4.70588E-02  1.13499E-01 -6.64397E-02
    8985.780     -8.363  -0.600  4.94285E-02  1.24323E-01 -7.48943E-02
    8985.956     -8.186  -0.560  5.19956E-02  1.36424E-01 -8.44286E-02
    8986.121     -8.021  -0.520  5.47680E-02  1.49859E-01 -9.50914E-02
    8986.273     -7.869  -0.480  5.77393E-02  1.64611E-01 -1.06872E-01
    8986.414     -7.729  -0.440  6.08819E-02  1.80551E-01 -1.19669E-01
    8986.542     -7.601  -0.400  6.41409E-02  1.97410E-01 -1.33269E-01
    8986.658     -7.485  -0.360  6.74329E-02  2.14764E-01 -1.47331E-01
    8986.761     -7.381  -0.320  7.06521E-02  2.32065E-01 -1.61413E-01
    8986.853     -7.290  -0.280  7.36855E-02  2.48701E-01 -1.75015E-01
    8986.932     -7.211  -0.240  7.64305E-02  2.64079E-01 -1.87648E-01
    8986.999     -7.144  -0.200  7.88093E-02  2.77695E-01 -1.98886E-01
    8987.054     -7.089  -0.160  8.07738E-02  2.89176E-01 -2.08402E-01
    8987.096     -7.046  -0.120  8.23018E-02  2.98272E-01 -2.15970E-01
    8987.127     -7.016  -0.080  8.33884E-02  3.04839E-01 -2.21450E-01
    8987.151     -6.991   0.000  8.42547E-02  3.10125E-01 -2.25870E-01
    8987.206     -6.936   0.120  8.63172E-02  3.22077E-01 -2.35760E-01
    8987.249     -6.894   0.160  8.78082E-02  3.31381E-01 -2.43573E-01
    8987.304     -6.839   0.200  8.96440E-02  3.43326E-01 -2.53682E-01
    8987.371     -6.772   0.240  9.17069E-02  3.57774E-01 -2.66067E-01
    8987.450     -6.692   0.280  9.38867E-02  3.74500E-01 -2.80613E-01
    8987.541     -6.601   0.320  9.60344E-02  3.93163E-01 -2.97128E-01
    8987.645     -6.497   0.360  9.79927E-02  4.13307E-01 -3.15315E-01
    8987.761     -6.382   0.400  9.96589E-02  4.34463E-01 -3.34804E-01
    8987.889     -6.254   0.440  1.01037E-01  4.56198E-01 -3.55160E-01
    8988.029     -6.113   0.480  1.02248E-01  4.78131E-01 -3.75883E-01
    8988.182     -5.961   0.520  1.03502E-01  5.00045E-01 -3.96543E-01
    8988.346     -5.796   0.560  1.05119E-01  5.21815E-01 -4.16696E-01
    8988.523     -5.620   0.600  1.07326E-01  5.43401E-01 -4.36075E-01
    8988.712     -5.431   0.640  1.10353E-01  5.64818E-01 -4.54465E-01
    8988.913     -5.229   0.680  1.14365E-01  5.86088E-01 -4.71723E-01
    8989.126     -5.016   0.720  1.19474E-01  6.07241E-01 -4.87767E-01
    8989.352     -4.791   0.760  1.25850E-01  6.28343E-01 -5.02494E-01
    8989.590     -4.553   0.800  1.33566E-01  6.49367E-01 -5.15801E-01
    8989.840     -4.303   0.840  1.42761E-01  6.70357E-01 -5.27596E-01
    8990.102     -4.041   0.880  1.53442E-01  6.91280E-01 -5.37838E-01
    8990.376     -3.766   0.920  1.65596E-01  7.12090E-01 -5.46494E-01
    8990.663     -3.480   0.960  1.79470E-01  7.32769E-01 -5.53298E-01
    8990.961     -3.181   1.000  1.95922E-01  7.53252E-01 -5.57330E-01
    8991.272     -2.870   1.040  2.16090E-01  7.73485E-01 -5.57395E-01
    8991.595     -2.547   1.080  2.40863E-01  7.93387E-01 -5.52523E-01
    8991.931     -2.212   1.120  2.70426E-01  8.12893E-01 -5.42467E-01
    8992.278     -1.864   1.160  3.04310E-01  8.31938E-01 -5.27628E-01
    8992.638     -1.505   1.200  3.42463E-01  8.50453E-01 -5.07990E-01
    8993.010     -1.133   1.240  3.86461E-01  8.68348E-01 -4.81888E-01
    8993.394     -0.749   1.280  4.37857E-01  8.85578E-01 -4.47721E-01
    8993.790     -0.353   1.320  4.93282E-01  9.02077E-01 -4.08794E-01
    8994.198      0.056   1.360  5.44984E-01  9.17780E-01 -3.72796E-01
    8994.619      0.476   1.400  5.88830E-01  9.32671E-01 -3.43840E-01
    8995.052      0.909   1.440  6.27841E-01  9.46714E-01 -3.18873E-01
    8995.497      1.354   1.480  6.71201E-01  9.59833E-01 -2.88632E-01
    8995.954      1.811   1.520  7.34284E-01  9.72064E-01 -2.37780E-01
    8996.423      2.281   1.560  8.26568E-01  9.83363E-01 -1.56795E-01
    8996.905      2.762   1.600  9.33454E-01  9.93749E-01 -6.02955E-02
    8997.399      3.256   1.640  1.03450E+00  1.00320E+00  3.12983E-02
    8997.905      3.762   1.680  1.14095E+00  1.01174E+00  1.29208E-01
    8998.423      4.280   1.720  1.27578E+00  1.01940E+00  2.56377E-01
    8998.953      4.811   1.760  1.42798E+00  1.02619E+00  4.01798E-01
    8999.496      5.353   1.800  1.54946E+00  1.03215E+00  5.17312E-01
    9000.050      5.908   1.840  1.61210E+00  1.03729E+00  5.74808E-01
    9000.617      6.475   1.880  1.63527E+00  1.04169E+00  5.93587E-01
    9001.196      7.054   1.920  1.63916E+00  1.04534E+00  5.93820E-01
    9001.788      7.645   1.960  1.63430E+00  1.04832E+00  5.85986E-01
    9002.391      8.249   2.000  1.62781E+00  1.05065E+00  5.77157E-01
    9003.007      8.864   2.040  1.61387E+00  1.05238E+00  5.61490E-01
    9003.635      9.492   2.080  1.57380E+00  1.05357E+00  5.20227E-01
    9004.275     10.132   2.120  1.49922E+00  1.05423E+00  4.44985E-01
    9004.927     10.785   2.160  1.41848E+00  1.05446E+00  3.64021E-01
    9005.592     11.449   2.200  1.36551E+00  1.05424E+00  3.11271E-01
    9006.268     12.126   2.240  1.33111E+00  1.05366E+00  2.77455E-01
    9006.957     12.815   2.280  1.27219E+00  1.05272E+00  2.19471E-01
    9007.658     13.516   2.320  1.17365E+00  1.05151E+00  1.22139E-01
    9008.371     14.229   2.360  1.07606E+00  1.05002E+00  2.60386E-02
    9009.097     14.954   2.400  1.01606E+00  1.04830E+00 -3.22413E-02
    9009.834     15.692   2.440  9.97244E-01  1.04639E+00 -4.91434E-02
    9010.584     16.442   2.480  9.96295E-01  1.04433E+00 -4.80327E-02
    9011.346     17.204   2.520  1.00070E+00  1.04212E+00 -4.14131E-02
    9012.120     17.978   2.560  1.00570E+00  1.03981E+00 -3.41107E-02
    9012.907     18.764   2.600  1.00769E+00  1.03742E+00 -2.97228E-02
    9013.705     19.563   2.640  1.00501E+00  1.03498E+00 -2.99615E-02
    9014.516     20.374   2.680  9.97623E-01  1.03249E+00 -3.48709E-02
    9015.339     21.197   2.720  9.86747E-01  1.03000E+00 -4.32568E-02
    9016.174     22.032   2.760  9.74085E-01  1.02752E+00 -5.34299E-02
    9017.022     22.879   2.800  9.60745E-01  1.02504E+00 -6.42903E-02
    9017.881     23.739   2.840  9.47428E-01  1.02261E+00 -7.51846E-02
    9018.753     24.610   2.880  9.34330E-01  1.02021E+00 -8.58844E-02
    9019.637     25.494   2.920  9.21466E-01  1.01789E+00 -9.64223E-02
    9020.533     26.390   2.960  9.08776E-01  1.01564E+00 -1.06864E-01
    9021.441     27.299   3.000  8.96145E-01  1.01350E+00 -1.17352E-01
    9022.362     28.219   3.040  8.83239E-01  1.01142E+00 -1.28179E-01
    9023.294     29.152   3.080  8.70179E-01  1.00945E+00 -1.39273E-01
    9024.239     30.097   3.120  8.57584E-01  1.00758E+00 -1.49996E-01
    9025.196     31.054   3.160  8.46599E-01  1.00582E+00 -1.59226E-01
    9026.166     32.023   3.200  8.38673E-01  1.00421E+00 -1.65541E-01
    9027.147     33.004   3.240  8.35172E-01  1.00270E+00 -1.67533E-01
    9028.141     33.998   3.280  8.36665E-01  1.00132E+00 -1.64654E-01
    9029.146     35.004   3.320  8.43020E-01  1.00006E+00 -1.57040E-01
    9030.164     36.022   3.360  8.53296E-01  9.98950E-01 -1.45654E-01
    9031.195     37.052   3.400  8.66390E-01  9.97967E-01 -1.31577E-01
    9032.237     38.095   3.440  8.81212E-01  9.97111E-01 -1.15899E-01
    9033.292     39.149   3.480  8.96866E-01  9.96383E-01 -9.95165E-02
    9034.359     40.216   3.520  9.12771E-01  9.95781E-01 -8.30097E-02
    9035.438     41.295   3.560  9.28748E-01  9.95327E-01 -6.65791E-02
    9036.529     42.386   3.600  9.45013E-01  9.94980E-01 -4.99666E-02
    9037.632     43.490   3.640  9.61935E-01  9.94780E-01 -3.28448E-02
    9038.748     44.605   3.680  9.79533E-01  9.94704E-01 -1.51713E-02
    9039.875     45.733   3.720  9.97540E-01  9.94752E-01  2.78753E-03
    9041.015     46.873   3.760  1.01559E+00  9.94921E-01  2.06672E-02
    9042.167     48.025   3.800  1.03332E+00  9.95186E-01  3.81299E-02
    9043.332     49.189   3.840  1.05043E+00  9.95570E-01  5.48554E-02
    9044.508     50.366   3.880  1.06666E+00  9.96070E-01  7.05866E-02
    9045.697     51.555   3.920  1.08154E+00  9.96684E-01  8.48565E-02
    9046.898     52.755   3.960  1.09424E+00  9.97365E-01  9.68786E-02
    9048.111     53.969   4.000  1.10386E+00  9.98154E-01  1.05704E-01
    9049.336     55.194   4.040  1.10961E+00  9.99027E-01  1.10585E-01
    9050.574     56.431   4.080  1.11122E+00  9.99982E-01  1.11235E-01
    9051.823     57.681   4.120  1.10905E+00  1.00101E+00  1.08037E-01
    9053.085     58.943   4.160  1.10404E+00  1.00210E+00  1.01944E-01
    9054.359     60.217   4.200  1.09732E+00  1.00326E+00  9.40626E-02
    9055.646     61.503   4.240  1.08974E+00  1.00446E+00  8.52764E-02
    9056.944     62.802   4.280  1.08170E+00  1.00574E+00  7.59603E-02
    9058.255     64.112   4.320  1.07317E+00  1.00703E+00  6.61426E-02
    9059.578     65.435   4.360  1.06415E+00  1.00835E+00  5.57990E-02
    9060.913     66.770   4.400  1.05493E+00  1.00972E+00  4.52151E-02
    9062.260     68.117   4.440  1.04622E+00  1.01111E+00  3.51074E-02
    9063.619     69.477   4.480  1.03902E+00  1.01251E+00  2.65007E-02
    9064.991     70.848   4.520  1.03433E+00  1.01392E+00  2.04143E-02
    9066.375     72.232   4.560  1.03279E+00  1.01532E+00  1.74694E-02
    9067.771     73.628   4.600  1.03416E+00  1.01669E+00  1.74671E-02
    9069.179     75.036   4.640  1.03748E+00  1.01808E+00  1.94011E-02
    9070.599     76.457   4.680  1.04132E+00  1.01944E+00  2.18882E-02
    9072.032     77.889   4.720  1.04433E+00  1.02076E+00  2.35784E-02
    9073.476     79.334   4.760  1.04535E+00  1.02204E+00  2.33176E-02
    9074.933     80.791   4.800  1.04363E+00  1.02330E+00  2.03307E-02
    9076.402     82.260   4.840  1.03901E+00  1.02449E+00  1.45207E-02
    9077.884     83.741   4.880  1.03230E+00  1.02564E+00  6.66166E-03
    9079.377     85.235   4.920  1.02480E+00  1.02674E+00 -1.93449E-03
    9080.883     86.741   4.960  1.01769E+00  1.02777E+00 -1.00720E-02
    9082.401     88.258   5.000  1.01149E+00  1.02874E+00 -1.72506E-02
    9083.931     89.788   5.040  1.00581E+00  1.02964E+00 -2.38270E-02
    9085.473     91.331   5.080  9.99846E-01  1.03047E+00 -3.06276E-02
    9087.028     92.885   5.120  9.92972E-01  1.03121E+00 -3.82363E-02
    9088.594     94.452   5.160  9.85363E-01  1.03186E+00 -4.64965E-02
    9090.173     96.031   5.200  9.77929E-01  1.03245E+00 -5.45224E-02
    9091.764     97.622   5.240  9.71738E-01  1.03296E+00 -6.12225E-02
    9093.368     99.225   5.280  9.67616E-01  1.03336E+00 -6.57440E-02
    9094.983    100.841   5.320  9.65960E-01  1.03367E+00 -6.77136E-02
    9096.611    102.468   5.360  9.66717E-01  1.03393E+00 -6.72092E-02
    9098.250    104.108   5.400  9.69486E-01  1.03407E+00 -6.45855E-02
    9099.902    105.760   5.440  9.73894E-01  1.03413E+00 -6.02354E-02
    9101.567    107.424   5.480  9.79574E-01  1.03410E+00 -5.45282E-02
    9103.243    109.101   5.520  9.86103E-01  1.03399E+00 -4.78886E-02
    9104.932    110.789   5.560  9.93046E-01  1.03380E+00 -4.07518E-02
    9106.632    112.490   5.600  1.00005E+00  1.03352E+00 -3.34740E-02
    9108.345    114.203   5.640  1.00689E+00  1.03316E+00 -2.62758E-02
    9110.071    115.928   5.680  1.01358E+00  1.03272E+00 -1.91438E-02
    9111.808    117.665   5.720  1.02029E+00  1.03221E+00 -1.19157E-02
    9113.557    119.415   5.760  1.02717E+00  1.03164E+00 -4.46434E-03
    9115.319    121.177   5.800  1.03422E+00  1.03100E+00  3.21900E-03
    9117.093    122.951   5.840  1.04131E+00  1.03031E+00  1.09977E-02
    9118.879    124.737   5.880  1.04815E+00  1.02956E+00  1.85863E-02
    9120.678    126.535   5.920  1.05432E+00  1.02877E+00  2.55525E-02
    9122.488    128.346   5.960  1.05913E+00  1.02794E+00  3.11908E-02
    9124.311    130.168   6.000  1.06151E+00  1.02700E+00  3.45091E-02
