# # comment:                                                     FEFF 9.9.1  
# # Source:
# # Structure
# # Reduced
# # space
# # abc:
# # angles:100.330868
# # sites:
# # POT  SCF 100  7.0000   0, screened core-hole, AFOLP (folp(0)= 1.150)
# # Abs   Z=29 Rmt= 1.189 Rnm= 1.265 K  shell
# # Pot 1 Z= 3 Rmt= 1.159 Rnm= 1.217
# # Pot 2 Z=57 Rmt= 1.743 Rnm= 1.826
# # Pot 3 Z=29 Rmt= 1.169 Rnm= 1.253
# # Pot 4 Z= 8 Rmt= 1.045 Rnm= 1.091
# # Gam_ch=1.729E+00 H-L exch Vi= 0.000E+00 Vr= 0.000E+00
# # Mu=-8.220E+00eV kf=2.061E+00 Vint=-1.889E+01eV Rs_int= 1.760
# FMS rfms= 9.0000
# # PATH  Rmax=-1.000,  Keep_limit= 0.00, Heap_limit 0.00  Pwcrit= 2.50%
#  S02=0.950  Temp=   0.00  Debye_temp=   0.00  Global_sig2= 0.00000
#  Energy zero shift, vr, vi    0.00000E+00   0.00000E+00
#  Curved wave amplitude ratio filter   4.000%
#     file         sig2 tot  cw amp ratio   deg  nlegs   reff  inp sig2
#     0/   0 paths used
#  xsedge+ 50, used to normalize mu           2.4536E-04
#  -----------------------------------------------------------------------
#  omega    e    k    mu    mu0     chi     @#
    8985.330    -12.030  -1.000  4.12409E-02  5.81813E-02 -1.69404E-02
    8985.629    -11.731  -0.960  4.34633E-02  6.25603E-02 -1.90971E-02
    8985.916    -11.444  -0.920  4.58649E-02  6.74405E-02 -2.15756E-02
    8986.190    -11.170  -0.880  4.84684E-02  7.28970E-02 -2.44286E-02
    8986.452    -10.908  -0.840  5.12999E-02  7.90173E-02 -2.77174E-02
    8986.702    -10.658  -0.800  5.43900E-02  8.59031E-02 -3.15131E-02
    8986.940    -10.420  -0.760  5.77741E-02  9.36712E-02 -3.58971E-02
    8987.165    -10.195  -0.720  6.14923E-02  1.02454E-01 -4.09617E-02
    8987.379     -9.981  -0.680  6.55891E-02  1.12397E-01 -4.68080E-02
    8987.580     -9.780  -0.640  7.01119E-02  1.23655E-01 -5.35432E-02
    8987.769     -9.591  -0.600  7.51069E-02  1.36380E-01 -6.12727E-02
    8987.946     -9.414  -0.560  8.06131E-02  1.50701E-01 -7.00879E-02
    8988.110     -9.250  -0.520  8.66519E-02  1.66698E-01 -8.00457E-02
    8988.263     -9.097  -0.480  9.32127E-02  1.84355E-01 -9.11420E-02
    8988.403     -8.957  -0.440  1.00236E-01  2.03516E-01 -1.03280E-01
    8988.531     -8.829  -0.400  1.07601E-01  2.23845E-01 -1.16244E-01
    8988.647     -8.713  -0.360  1.15118E-01  2.44810E-01 -1.29692E-01
    8988.750     -8.610  -0.320  1.22544E-01  2.65720E-01 -1.43176E-01
    8988.842     -8.518  -0.280  1.29612E-01  2.85810E-01 -1.56198E-01
    8988.921     -8.439  -0.240  1.36070E-01  3.04346E-01 -1.68276E-01
    8988.988     -8.372  -0.200  1.41714E-01  3.20715E-01 -1.79000E-01
    8989.043     -8.317  -0.160  1.46409E-01  3.34472E-01 -1.88063E-01
    8989.086     -8.274  -0.120  1.50081E-01  3.45338E-01 -1.95257E-01
    8989.116     -8.244  -0.080  1.52701E-01  3.53160E-01 -2.00459E-01
    8989.140     -8.220   0.000  1.54785E-01  3.59440E-01 -2.04655E-01
    8989.195     -8.165   0.120  1.59421E-01  3.73582E-01 -2.14161E-01
    8989.238     -8.122   0.160  1.62958E-01  3.84572E-01 -2.21614E-01
    8989.293     -8.067   0.200  1.67343E-01  3.98549E-01 -2.31206E-01
    8989.360     -8.000   0.240  1.72474E-01  4.15344E-01 -2.42870E-01
    8989.439     -7.921   0.280  1.78118E-01  4.34569E-01 -2.56451E-01
    8989.531     -7.829   0.320  1.84036E-01  4.55698E-01 -2.71663E-01
    8989.634     -7.726   0.360  1.89969E-01  4.78061E-01 -2.88092E-01
    8989.750     -7.610   0.400  1.95782E-01  5.00965E-01 -3.05184E-01
    8989.878     -7.482   0.440  2.01538E-01  5.23762E-01 -3.22224E-01
    8990.018     -7.342   0.480  2.07530E-01  5.45987E-01 -3.38457E-01
    8990.171     -7.189   0.520  2.14147E-01  5.67290E-01 -3.53143E-01
    8990.335     -7.025   0.560  2.21784E-01  5.87507E-01 -3.65724E-01
    8990.512     -6.848   0.600  2.30761E-01  6.06646E-01 -3.75886E-01
    8990.701     -6.659   0.640  2.41337E-01  6.24757E-01 -3.83420E-01
    8990.902     -6.458   0.680  2.53960E-01  6.41912E-01 -3.87952E-01
    8991.116     -6.244   0.720  2.69333E-01  6.58264E-01 -3.88932E-01
    8991.341     -6.019   0.760  2.87993E-01  6.73884E-01 -3.85891E-01
    8991.579     -5.781   0.800  3.10041E-01  6.88933E-01 -3.78893E-01
    8991.829     -5.531   0.840  3.34113E-01  7.03457E-01 -3.69344E-01
    8992.091     -5.269   0.880  3.57167E-01  7.17546E-01 -3.60380E-01
    8992.365     -4.995   0.920  3.76338E-01  7.31235E-01 -3.54897E-01
    8992.652     -4.708   0.960  3.92110E-01  7.44603E-01 -3.52493E-01
    8992.950     -4.410   1.000  4.07596E-01  7.57661E-01 -3.50065E-01
    8993.261     -4.099   1.040  4.25140E-01  7.70405E-01 -3.45265E-01
    8993.584     -3.776   1.080  4.45679E-01  7.82905E-01 -3.37225E-01
    8993.920     -3.440   1.120  4.71684E-01  7.95102E-01 -3.23419E-01
    8994.267     -3.093   1.160  5.08752E-01  8.07037E-01 -2.98284E-01
    8994.627     -2.733   1.200  5.63494E-01  8.18697E-01 -2.55202E-01
    8994.999     -2.361   1.240  6.41325E-01  8.30070E-01 -1.88745E-01
    8995.383     -1.977   1.280  7.46510E-01  8.41143E-01 -9.46332E-02
    8995.779     -1.581   1.320  8.83283E-01  8.51897E-01  3.13859E-02
    8996.187     -1.173   1.360  1.04925E+00  8.62314E-01  1.86931E-01
    8996.608     -0.752   1.400  1.20419E+00  8.72413E-01  3.31779E-01
    8997.041     -0.319   1.440  1.26179E+00  8.82155E-01  3.79631E-01
    8997.486      0.126   1.480  1.20016E+00  8.91557E-01  3.08607E-01
    8997.943      0.583   1.520  1.09906E+00  9.00558E-01  1.98503E-01
    8998.412      1.052   1.560  1.02751E+00  9.09197E-01  1.18313E-01
    8998.894      1.534   1.600  1.01702E+00  9.17433E-01  9.95858E-02
    8999.388      2.028   1.640  1.07902E+00  9.25285E-01  1.53735E-01
    8999.894      2.534   1.680  1.20150E+00  9.32714E-01  2.68782E-01
    9000.412      3.052   1.720  1.33480E+00  9.39761E-01  3.95043E-01
    9000.942      3.582   1.760  1.40328E+00  9.46407E-01  4.56871E-01
    9001.485      4.125   1.800  1.38670E+00  9.52655E-01  4.34041E-01
    9002.040      4.680   1.840  1.32730E+00  9.58485E-01  3.68811E-01
    9002.606      5.246   1.880  1.25781E+00  9.63923E-01  2.93882E-01
    9003.186      5.826   1.920  1.19016E+00  9.68994E-01  2.21163E-01
    9003.777      6.417   1.960  1.12956E+00  9.73659E-01  1.55899E-01
    9004.380      7.020   2.000  1.08988E+00  9.77968E-01  1.11908E-01
    9004.996      7.636   2.040  1.08481E+00  9.81902E-01  1.02905E-01
    9005.624      8.264   2.080  1.10525E+00  9.85492E-01  1.19756E-01
    9006.264      8.904   2.120  1.13122E+00  9.88742E-01  1.42477E-01
    9006.916      9.556   2.160  1.14646E+00  9.91659E-01  1.54799E-01
    9007.581     10.221   2.200  1.14668E+00  9.94272E-01  1.52410E-01
    9008.257     10.897   2.240  1.13719E+00  9.96587E-01  1.40601E-01
    9008.946     11.586   2.280  1.11698E+00  9.98614E-01  1.18363E-01
    9009.647     12.287   2.320  1.08425E+00  1.00036E+00  8.38946E-02
    9010.361     13.001   2.360  1.04771E+00  1.00187E+00  4.58440E-02
    9011.086     13.726   2.400  1.02270E+00  1.00314E+00  1.95603E-02
    9011.824     14.464   2.440  1.01974E+00  1.00419E+00  1.55523E-02
    9012.573     15.213   2.480  1.03804E+00  1.00503E+00  3.30065E-02
    9013.335     15.975   2.520  1.05807E+00  1.00567E+00  5.23929E-02
    9014.110     16.750   2.560  1.06926E+00  1.00614E+00  6.31203E-02
    9014.896     17.536   2.600  1.07221E+00  1.00644E+00  6.57640E-02
    9015.695     18.335   2.640  1.06935E+00  1.00661E+00  6.27406E-02
    9016.505     19.145   2.680  1.06325E+00  1.00664E+00  5.66109E-02
    9017.328     19.968   2.720  1.05494E+00  1.00653E+00  4.84070E-02
    9018.163     20.803   2.760  1.04421E+00  1.00635E+00  3.78662E-02
    9019.011     21.651   2.800  1.03003E+00  1.00603E+00  2.40000E-02
    9019.870     22.510   2.840  1.01205E+00  1.00565E+00  6.40097E-03
    9020.742     23.382   2.880  9.91012E-01  1.00521E+00 -1.41949E-02
    9021.626     24.266   2.920  9.68447E-01  1.00469E+00 -3.62478E-02
    9022.522     25.162   2.960  9.46040E-01  1.00411E+00 -5.80743E-02
    9023.430     26.070   3.000  9.25819E-01  1.00351E+00 -7.76913E-02
    9024.351     26.991   3.040  9.09264E-01  1.00287E+00 -9.36037E-02
    9025.283     27.923   3.080  8.96927E-01  1.00221E+00 -1.05288E-01
    9026.228     28.868   3.120  8.88540E-01  1.00153E+00 -1.12992E-01
    9027.185     29.825   3.160  8.83285E-01  1.00084E+00 -1.17559E-01
    9028.155     30.795   3.200  8.80420E-01  1.00017E+00 -1.19755E-01
    9029.136     31.776   3.240  8.79729E-01  9.99487E-01 -1.19759E-01
    9030.130     32.770   3.280  8.81324E-01  9.98825E-01 -1.17501E-01
    9031.136     33.776   3.320  8.85187E-01  9.98169E-01 -1.12982E-01
    9032.154     34.794   3.360  8.91058E-01  9.97545E-01 -1.06487E-01
    9033.184     35.824   3.400  8.98275E-01  9.96953E-01 -9.86778E-02
    9034.226     36.866   3.440  9.05636E-01  9.96374E-01 -9.07387E-02
    9035.281     37.921   3.480  9.12304E-01  9.95833E-01 -8.35285E-02
    9036.348     38.988   3.520  9.18013E-01  9.95350E-01 -7.73369E-02
    9037.427     40.067   3.560  9.22993E-01  9.94885E-01 -7.18923E-02
    9038.518     41.158   3.600  9.27768E-01  9.94461E-01 -6.66932E-02
    9039.621     42.261   3.640  9.32953E-01  9.94100E-01 -6.11466E-02
    9040.737     43.377   3.680  9.38825E-01  9.93760E-01 -5.49350E-02
    9041.865     44.505   3.720  9.45375E-01  9.93484E-01 -4.81083E-02
    9043.004     45.644   3.760  9.52516E-01  9.93252E-01 -4.07366E-02
    9044.157     46.797   3.800  9.60331E-01  9.93085E-01 -3.27538E-02
    9045.321     47.961   3.840  9.68786E-01  9.92941E-01 -2.41550E-02
    9046.497     49.137   3.880  9.77919E-01  9.92861E-01 -1.49421E-02
    9047.686     50.326   3.920  9.87708E-01  9.92825E-01 -5.11704E-03
    9048.887     51.527   3.960  9.98003E-01  9.92833E-01  5.17074E-03
    9050.100     52.740   4.000  1.00846E+00  9.92904E-01  1.55591E-02
    9051.325     53.965   4.040  1.01844E+00  9.92996E-01  2.54492E-02
    9052.563     55.203   4.080  1.02728E+00  9.93148E-01  3.41273E-02
    9053.813     56.453   4.120  1.03422E+00  9.93322E-01  4.08995E-02
    9055.075     57.715   4.160  1.03911E+00  9.93557E-01  4.55529E-02
    9056.349     58.989   4.200  1.04231E+00  9.93830E-01  4.84827E-02
    9057.635     60.275   4.240  1.04454E+00  9.94118E-01  5.04186E-02
    9058.933     61.573   4.280  1.04641E+00  9.94443E-01  5.19699E-02
    9060.244     62.884   4.320  1.04832E+00  9.94825E-01  5.34974E-02
    9061.567     64.207   4.360  1.05025E+00  9.95199E-01  5.50510E-02
    9062.902     65.542   4.400  1.05199E+00  9.95628E-01  5.63594E-02
    9064.249     66.889   4.440  1.05323E+00  9.96066E-01  5.71595E-02
    9065.608     68.248   4.480  1.05399E+00  9.96534E-01  5.74586E-02
    9066.980     69.620   4.520  1.05469E+00  9.96987E-01  5.77054E-02
    9068.364     71.004   4.560  1.05609E+00  9.97488E-01  5.85989E-02
    9069.760     72.400   4.600  1.05862E+00  9.97972E-01  6.06529E-02
    9071.168     73.808   4.640  1.06233E+00  9.98481E-01  6.38467E-02
    9072.588     75.228   4.680  1.06661E+00  9.98993E-01  6.76134E-02
    9074.021     76.661   4.720  1.07050E+00  9.99505E-01  7.09960E-02
    9075.466     78.106   4.760  1.07286E+00  1.00001E+00  7.28403E-02
    9076.922     79.562   4.800  1.07258E+00  1.00052E+00  7.20611E-02
    9078.392     81.032   4.840  1.06882E+00  1.00103E+00  6.77929E-02
    9079.873     82.513   4.880  1.06110E+00  1.00150E+00  5.96042E-02
    9081.366     84.006   4.920  1.04980E+00  1.00197E+00  4.78320E-02
    9082.872     85.512   4.960  1.03601E+00  1.00243E+00  3.35829E-02
    9084.390     87.030   5.000  1.02121E+00  1.00286E+00  1.83523E-02
    9085.920     88.560   5.040  1.00680E+00  1.00327E+00  3.52269E-03
    9087.462     90.102   5.080  9.93777E-01  1.00366E+00 -9.88004E-03
    9089.017     91.657   5.120  9.82967E-01  1.00401E+00 -2.10390E-02
    9090.584     93.224   5.160  9.74925E-01  1.00434E+00 -2.94160E-02
    9092.162     94.802   5.200  9.69856E-01  1.00464E+00 -3.47830E-02
    9093.753     96.393   5.240  9.67493E-01  1.00490E+00 -3.74088E-02
    9095.357     97.997   5.280  9.67115E-01  1.00515E+00 -3.80316E-02
    9096.972     99.612   5.320  9.67731E-01  1.00533E+00 -3.76016E-02
    9098.600    101.240   5.360  9.68502E-01  1.00550E+00 -3.69998E-02
    9100.240    102.880   5.400  9.68682E-01  1.00563E+00 -3.69511E-02
    9101.892    104.532   5.440  9.67679E-01  1.00572E+00 -3.80447E-02
    9103.556    106.196   5.480  9.65246E-01  1.00577E+00 -4.05282E-02
    9105.232    107.872   5.520  9.61783E-01  1.00578E+00 -4.40010E-02
    9106.921    109.561   5.560  9.58185E-01  1.00575E+00 -4.75674E-02
    9108.622    111.262   5.600  9.55165E-01  1.00568E+00 -5.05150E-02
    9110.335    112.975   5.640  9.52873E-01  1.00557E+00 -5.26949E-02
    9112.060    114.700   5.680  9.51036E-01  1.00541E+00 -5.43787E-02
    9113.797    116.437   5.720  9.49324E-01  1.00522E+00 -5.59012E-02
    9115.547    118.187   5.760  9.47744E-01  1.00502E+00 -5.72746E-02
    9117.308    119.948   5.800  9.46764E-01  1.00475E+00 -5.79879E-02
    9119.082    121.722   5.840  9.47311E-01  1.00445E+00 -5.71351E-02
    9120.868    123.508   5.880  9.50202E-01  1.00413E+00 -5.39278E-02
    9122.667    125.307   5.920  9.55468E-01  1.00378E+00 -4.83140E-02
    9124.477    127.117   5.960  9.62320E-01  1.00340E+00 -4.10815E-02
    9126.300    128.940   6.000  9.69874E-01  1.00296E+00 -3.30866E-02
