# # comment:                                                     FEFF 9.9.1  
# # Source:
# # Structure
# # Reduced
# # space
# # abc:
# # angles:
# # sites:
# # POT  SCF 100  7.0000   0, screened core-hole, AFOLP (folp(0)= 1.150)
# # Abs   Z=29 Rmt= 1.272 Rnm= 1.342 K  shell
# # Pot 1 Z=11 Rmt= 1.570 Rnm= 1.626
# # Pot 2 Z=29 Rmt= 1.272 Rnm= 1.342
# # Pot 3 Z=15 Rmt= 0.937 Rnm= 1.155
# # Pot 4 Z= 8 Rmt= 0.877 Rnm= 1.041
# # Gam_ch=1.729E+00 H-L exch Vi= 0.000E+00 Vr= 0.000E+00
# # Mu=-6.462E+00eV kf=2.491E+00 Vint=-1.733E+01eV Rs_int= 1.456
# FMS rfms= 9.0000
# # PATH  Rmax=-1.000,  Keep_limit= 0.00, Heap_limit 0.00  Pwcrit= 2.50%
#  S02=0.950  Temp=   0.00  Debye_temp=   0.00  Global_sig2= 0.00000
#  Energy zero shift, vr, vi    0.00000E+00   0.00000E+00
#  Curved wave amplitude ratio filter   4.000%
#     file         sig2 tot  cw amp ratio   deg  nlegs   reff  inp sig2
#     0/   0 paths used
#  xsedge+ 50, used to normalize mu           2.4835E-04
#  -----------------------------------------------------------------------
#  omega    e    k    mu    mu0     chi     @#
    8983.491    -10.272  -1.000  4.39052E-02  5.35124E-02 -9.60718E-03
    8983.790     -9.973  -0.960  4.64628E-02  5.74294E-02 -1.09665E-02
    8984.076     -9.686  -0.920  4.92332E-02  6.17869E-02 -1.25537E-02
    8984.351     -9.412  -0.880  5.22400E-02  6.66506E-02 -1.44106E-02
    8984.613     -9.150  -0.840  5.55098E-02  7.20968E-02 -1.65870E-02
    8984.863     -8.900  -0.800  5.90725E-02  7.82141E-02 -1.91416E-02
    8985.100     -8.662  -0.760  6.29613E-02  8.51043E-02 -2.21430E-02
    8985.326     -8.437  -0.720  6.72126E-02  9.28826E-02 -2.56700E-02
    8985.539     -8.223  -0.680  7.18648E-02  1.01676E-01 -2.98111E-02
    8985.740     -8.022  -0.640  7.69567E-02  1.11618E-01 -3.46616E-02
    8985.929     -7.833  -0.600  8.25243E-02  1.22842E-01 -4.03176E-02
    8986.106     -7.656  -0.560  8.85945E-02  1.35460E-01 -4.68653E-02
    8986.271     -7.492  -0.520  9.51767E-02  1.49539E-01 -5.43626E-02
    8986.423     -7.339  -0.480  1.02251E-01  1.65067E-01 -6.28158E-02
    8986.563     -7.199  -0.440  1.09756E-01  1.81906E-01 -7.21503E-02
    8986.691     -7.071  -0.400  1.17574E-01  1.99761E-01 -8.21869E-02
    8986.807     -6.955  -0.360  1.25533E-01  2.18167E-01 -9.26341E-02
    8986.911     -6.852  -0.320  1.33413E-01  2.36522E-01 -1.03109E-01
    8987.002     -6.760  -0.280  1.40969E-01  2.54155E-01 -1.13186E-01
    8987.082     -6.681  -0.240  1.47963E-01  2.70425E-01 -1.22462E-01
    8987.149     -6.614  -0.200  1.54185E-01  2.84795E-01 -1.30610E-01
    8987.203     -6.559  -0.160  1.59468E-01  2.96875E-01 -1.37407E-01
    8987.246     -6.517  -0.120  1.63692E-01  3.06418E-01 -1.42726E-01
    8987.277     -6.486  -0.080  1.66771E-01  3.13289E-01 -1.46518E-01
    8987.301     -6.462   0.000  1.69288E-01  3.18807E-01 -1.49519E-01
    8987.356     -6.407   0.120  1.74944E-01  3.31248E-01 -1.56304E-01
    8987.398     -6.364   0.160  1.79378E-01  3.40907E-01 -1.61529E-01
    8987.453     -6.309   0.200  1.85119E-01  3.53207E-01 -1.68088E-01
    8987.520     -6.242   0.240  1.92241E-01  3.67989E-01 -1.75748E-01
    8987.600     -6.163   0.280  2.00773E-01  3.84939E-01 -1.84166E-01
    8987.691     -6.071   0.320  2.10755E-01  4.03580E-01 -1.92825E-01
    8987.795     -5.968   0.360  2.22241E-01  4.23332E-01 -2.01091E-01
    8987.911     -5.852   0.400  2.35341E-01  4.43637E-01 -2.08297E-01
    8988.039     -5.724   0.440  2.50141E-01  4.63913E-01 -2.13772E-01
    8988.179     -5.584   0.480  2.66669E-01  4.83759E-01 -2.17090E-01
    8988.331     -5.431   0.520  2.84722E-01  5.02869E-01 -2.18147E-01
    8988.496     -5.267   0.560  3.03898E-01  5.21144E-01 -2.17246E-01
    8988.673     -5.090   0.600  3.23572E-01  5.38532E-01 -2.14960E-01
    8988.862     -4.901   0.640  3.43481E-01  5.55138E-01 -2.11656E-01
    8989.063     -4.700   0.680  3.64039E-01  5.71002E-01 -2.06963E-01
    8989.276     -4.487   0.720  3.86510E-01  5.86263E-01 -1.99753E-01
    8989.502     -4.261   0.760  4.12155E-01  6.00997E-01 -1.88842E-01
    8989.739     -4.023   0.800  4.41698E-01  6.15350E-01 -1.73651E-01
    8989.989     -3.773   0.840  4.74884E-01  6.29337E-01 -1.54453E-01
    8990.251     -3.511   0.880  5.10558E-01  6.43078E-01 -1.32520E-01
    8990.526     -3.237   0.920  5.46768E-01  6.56599E-01 -1.09830E-01
    8990.812     -2.950   0.960  5.81893E-01  6.69955E-01 -8.80620E-02
    8991.111     -2.652   1.000  6.15280E-01  6.83169E-01 -6.78891E-02
    8991.422     -2.341   1.040  6.46989E-01  6.96255E-01 -4.92657E-02
    8991.745     -2.018   1.080  6.77738E-01  7.09217E-01 -3.14799E-02
    8992.080     -1.682   1.120  7.08733E-01  7.22077E-01 -1.33435E-02
    8992.428     -1.335   1.160  7.40948E-01  7.34807E-01  6.14094E-03
    8992.787     -0.975   1.200  7.74107E-01  7.47415E-01  2.66920E-02
    8993.159     -0.603   1.240  8.03622E-01  7.59907E-01  4.37149E-02
    8993.543     -0.219   1.280  8.20396E-01  7.72245E-01  4.81507E-02
    8993.939      0.177   1.320  8.19687E-01  7.84408E-01  3.52787E-02
    8994.348      0.585   1.360  8.09046E-01  7.96394E-01  1.26512E-02
    8994.769      1.006   1.400  8.01567E-01  8.08180E-01 -6.61288E-03
    8995.201      1.439   1.440  8.07821E-01  8.19760E-01 -1.19388E-02
    8995.646      1.884   1.480  8.35870E-01  8.31088E-01  4.78192E-03
    8996.104      2.341   1.520  8.89299E-01  8.42159E-01  4.71401E-02
    8996.573      2.810   1.560  9.56977E-01  8.52946E-01  1.04031E-01
    8997.055      3.292   1.600  1.00949E+00  8.63442E-01  1.46045E-01
    8997.548      3.786   1.640  1.02311E+00  8.73621E-01  1.49488E-01
    8998.054      4.292   1.680  1.00454E+00  8.83476E-01  1.21065E-01
    8998.572      4.810   1.720  9.79319E-01  8.92984E-01  8.63357E-02
    8999.103      5.340   1.760  9.62077E-01  9.02137E-01  5.99399E-02
    8999.645      5.883   1.800  9.59742E-01  9.10913E-01  4.88293E-02
    9000.200      6.437   1.840  9.79338E-01  9.19327E-01  6.00114E-02
    9000.767      7.004   1.880  1.02200E+00  9.27336E-01  9.46669E-02
    9001.346      7.583   1.920  1.07941E+00  9.34959E-01  1.44454E-01
    9001.937      8.175   1.960  1.13520E+00  9.42193E-01  1.93011E-01
    9002.541      8.778   2.000  1.17767E+00  9.49017E-01  2.28651E-01
    9003.157      9.394   2.040  1.20378E+00  9.55433E-01  2.48348E-01
    9003.784     10.022   2.080  1.20992E+00  9.61462E-01  2.48459E-01
    9004.425     10.662   2.120  1.19736E+00  9.67083E-01  2.30281E-01
    9005.077     11.314   2.160  1.18000E+00  9.72322E-01  2.07681E-01
    9005.741     11.979   2.200  1.16924E+00  9.77161E-01  1.92079E-01
    9006.418     12.655   2.240  1.16364E+00  9.81623E-01  1.82015E-01
    9007.107     13.344   2.280  1.15880E+00  9.85714E-01  1.73089E-01
    9007.808     14.045   2.320  1.15360E+00  9.89459E-01  1.64146E-01
    9008.521     14.758   2.360  1.14588E+00  9.92821E-01  1.53063E-01
    9009.246     15.484   2.400  1.13505E+00  9.95869E-01  1.39182E-01
    9009.984     16.221   2.440  1.12688E+00  9.98567E-01  1.28314E-01
    9010.734     16.971   2.480  1.12758E+00  1.00096E+00  1.26621E-01
    9011.496     17.733   2.520  1.13390E+00  1.00304E+00  1.30857E-01
    9012.270     18.507   2.560  1.13655E+00  1.00483E+00  1.31726E-01
    9013.056     19.294   2.600  1.12938E+00  1.00633E+00  1.23042E-01
    9013.855     20.092   2.640  1.10704E+00  1.00759E+00  9.94584E-02
    9014.666     20.903   2.680  1.06560E+00  1.00859E+00  5.70104E-02
    9015.489     21.726   2.720  1.01072E+00  1.00936E+00  1.36072E-03
    9016.324     22.561   2.760  9.54763E-01  1.00991E+00 -5.51494E-02
    9017.171     23.409   2.800  9.08756E-01  1.01026E+00 -1.01508E-01
    9018.031     24.268   2.840  8.78981E-01  1.01042E+00 -1.31438E-01
    9018.902     25.140   2.880  8.70633E-01  1.01042E+00 -1.39791E-01
    9019.786     26.024   2.920  8.77930E-01  1.01025E+00 -1.32317E-01
    9020.683     26.920   2.960  8.89956E-01  1.00994E+00 -1.19979E-01
    9021.591     27.828   3.000  9.00614E-01  1.00947E+00 -1.08859E-01
    9022.511     28.749   3.040  9.07019E-01  1.00891E+00 -1.01893E-01
    9023.444     29.681   3.080  9.09099E-01  1.00824E+00 -9.91372E-02
    9024.389     30.626   3.120  9.08171E-01  1.00747E+00 -9.92995E-02
    9025.346     31.583   3.160  9.05595E-01  1.00662E+00 -1.01027E-01
    9026.315     32.553   3.200  9.02243E-01  1.00570E+00 -1.03454E-01
    9027.297     33.534   3.240  8.98910E-01  1.00472E+00 -1.05809E-01
    9028.290     34.528   3.280  8.96610E-01  1.00368E+00 -1.07065E-01
    9029.296     35.534   3.320  8.95988E-01  1.00261E+00 -1.06624E-01
    9030.314     36.552   3.360  8.97639E-01  1.00151E+00 -1.03873E-01
    9031.344     37.582   3.400  9.02154E-01  1.00038E+00 -9.82257E-02
    9032.387     38.624   3.440  9.09579E-01  9.99261E-01 -8.96824E-02
    9033.441     39.679   3.480  9.19093E-01  9.98119E-01 -7.90255E-02
    9034.508     40.746   3.520  9.29520E-01  9.96976E-01 -6.74556E-02
    9035.587     41.825   3.560  9.39680E-01  9.95858E-01 -5.61776E-02
    9036.678     42.916   3.600  9.48448E-01  9.94747E-01 -4.62982E-02
    9037.782     44.019   3.640  9.55566E-01  9.93645E-01 -3.80796E-02
    9038.897     45.135   3.680  9.61362E-01  9.92597E-01 -3.12353E-02
    9040.025     46.262   3.720  9.66291E-01  9.91564E-01 -2.52724E-02
    9041.165     47.402   3.760  9.70936E-01  9.90568E-01 -1.96319E-02
    9042.317     48.555   3.800  9.75840E-01  9.89613E-01 -1.37727E-02
    9043.481     49.719   3.840  9.81446E-01  9.88719E-01 -7.27317E-03
    9044.658     50.895   3.880  9.88034E-01  9.87849E-01  1.85218E-04
    9045.847     52.084   3.920  9.95786E-01  9.87042E-01  8.74316E-03
    9047.048     53.285   3.960  1.00453E+00  9.86283E-01  1.82488E-02
    9048.261     54.498   4.000  1.01390E+00  9.85591E-01  2.83135E-02
    9049.486     55.723   4.040  1.02351E+00  9.84948E-01  3.85663E-02
    9050.723     56.961   4.080  1.03307E+00  9.84373E-01  4.86975E-02
    9051.973     58.211   4.120  1.04223E+00  9.83846E-01  5.83854E-02
    9053.235     59.472   4.160  1.05073E+00  9.83366E-01  6.73607E-02
    9054.509     60.746   4.200  1.05838E+00  9.82956E-01  7.54272E-02
    9055.795     62.033   4.240  1.06502E+00  9.82618E-01  8.24065E-02
    9057.094     63.331   4.280  1.07043E+00  9.82327E-01  8.80985E-02
    9058.404     64.642   4.320  1.07444E+00  9.82085E-01  9.23573E-02
    9059.727     65.965   4.360  1.07676E+00  9.81913E-01  9.48520E-02
    9061.062     67.300   4.400  1.07696E+00  9.81810E-01  9.51485E-02
    9062.409     68.647   4.440  1.07462E+00  9.81753E-01  9.28702E-02
    9063.769     70.006   4.480  1.06949E+00  9.81740E-01  8.77499E-02
    9065.140     71.378   4.520  1.06161E+00  9.81774E-01  7.98332E-02
    9066.524     72.762   4.560  1.05148E+00  9.81874E-01  6.96061E-02
    9067.920     74.158   4.600  1.03988E+00  9.82015E-01  5.78635E-02
    9069.328     75.566   4.640  1.02766E+00  9.82199E-01  4.54658E-02
    9070.749     76.986   4.680  1.01551E+00  9.82423E-01  3.30879E-02
    9072.181     78.419   4.720  1.00374E+00  9.82686E-01  2.10588E-02
    9073.626     79.863   4.760  9.92482E-01  9.82988E-01  9.49412E-03
    9075.083     81.320   4.800  9.81830E-01  9.83327E-01 -1.49752E-03
    9076.552     82.790   4.840  9.71985E-01  9.83701E-01 -1.17158E-02
    9078.033     84.271   4.880  9.63288E-01  9.84086E-01 -2.07976E-02
    9079.527     85.764   4.920  9.56213E-01  9.84501E-01 -2.82887E-02
    9081.033     87.270   4.960  9.51071E-01  9.84925E-01 -3.38541E-02
    9082.551     88.788   5.000  9.47886E-01  9.85379E-01 -3.74932E-02
    9084.081     90.318   5.040  9.46197E-01  9.85838E-01 -3.96405E-02
    9085.623     91.860   5.080  9.45360E-01  9.86300E-01 -4.09393E-02
    9087.177     93.415   5.120  9.44877E-01  9.86786E-01 -4.19097E-02
    9088.744     94.981   5.160  9.44433E-01  9.87252E-01 -4.28191E-02
    9090.323     96.560   5.200  9.44000E-01  9.87738E-01 -4.37376E-02
    9091.914     98.151   5.240  9.43469E-01  9.88201E-01 -4.47311E-02
    9093.517     99.755   5.280  9.42845E-01  9.88679E-01 -4.58340E-02
    9095.133    101.370   5.320  9.42111E-01  9.89109E-01 -4.69972E-02
    9096.760    102.998   5.360  9.41514E-01  9.89551E-01 -4.80373E-02
    9098.400    104.637   5.400  9.41298E-01  9.89963E-01 -4.86657E-02
    9100.052    106.290   5.440  9.41779E-01  9.90343E-01 -4.85640E-02
    9101.716    107.954   5.480  9.43288E-01  9.90710E-01 -4.74227E-02
    9103.393    109.630   5.520  9.46081E-01  9.91046E-01 -4.49645E-02
    9105.081    111.319   5.560  9.50342E-01  9.91369E-01 -4.10267E-02
    9106.782    113.019   5.600  9.55982E-01  9.91655E-01 -3.56730E-02
    9108.495    114.732   5.640  9.62626E-01  9.91901E-01 -2.92748E-02
    9110.220    116.458   5.680  9.69649E-01  9.92084E-01 -2.24358E-02
    9111.958    118.195   5.720  9.76418E-01  9.92251E-01 -1.58325E-02
    9113.707    119.944   5.760  9.82376E-01  9.92379E-01 -1.00022E-02
    9115.469    121.706   5.800  9.87260E-01  9.92467E-01 -5.20715E-03
    9117.243    123.480   5.840  9.91100E-01  9.92516E-01 -1.41633E-03
    9119.029    125.266   5.880  9.94082E-01  9.92525E-01  1.55673E-03
    9120.827    127.065   5.920  9.96413E-01  9.92491E-01  3.92228E-03
    9122.638    128.875   5.960  9.98225E-01  9.92385E-01  5.83988E-03
    9124.460    130.698   6.000  9.99787E-01  9.92237E-01  7.54946E-03
