# # comment:                                                     FEFF 9.9.1  
# # Source:
# # Structure
# # Reduced
# # space
# # abc:
# # angles:109.471221
# # sites:
# # POT  SCF 100  7.0000   0, screened core-hole, AFOLP (folp(0)= 1.150)
# # Abs   Z=29 Rmt= 1.224 Rnm= 1.311 K  shell
# # Pot 1 Z=20 Rmt= 1.730 Rnm= 1.771
# # Pot 2 Z=29 Rmt= 1.224 Rnm= 1.311
# # Pot 3 Z=44 Rmt= 1.301 Rnm= 1.396
# # Pot 4 Z= 8 Rmt= 1.021 Rnm= 1.083
# # Gam_ch=1.729E+00 H-L exch Vi= 0.000E+00 Vr= 0.000E+00
# # Mu=-7.593E+00eV kf=2.258E+00 Vint=-1.678E+01eV Rs_int= 1.606
# FMS rfms= 9.0000
# # PATH  Rmax=-1.000,  Keep_limit= 0.00, Heap_limit 0.00  Pwcrit= 2.50%
#  S02=0.950  Temp=   0.00  Debye_temp=   0.00  Global_sig2= 0.00000
#  Energy zero shift, vr, vi    0.00000E+00   0.00000E+00
#  Curved wave amplitude ratio filter   4.000%
#     file         sig2 tot  cw amp ratio   deg  nlegs   reff  inp sig2
#     0/   0 paths used
#  xsedge+ 50, used to normalize mu           2.4661E-04
#  -----------------------------------------------------------------------
#  omega    e    k    mu    mu0     chi     @#
    8983.888    -11.403  -1.000  3.95042E-02  5.42911E-02 -1.47870E-02
    8984.187    -11.105  -0.960  4.15821E-02  5.82508E-02 -1.66687E-02
    8984.473    -10.818  -0.920  4.38042E-02  6.26524E-02 -1.88483E-02
    8984.748    -10.544  -0.880  4.61818E-02  6.75611E-02 -2.13793E-02
    8985.010    -10.282  -0.840  4.87273E-02  7.30528E-02 -2.43255E-02
    8985.260    -10.032  -0.800  5.14538E-02  7.92155E-02 -2.77617E-02
    8985.498     -9.794  -0.760  5.43747E-02  8.61502E-02 -3.17755E-02
    8985.723     -9.569  -0.720  5.75038E-02  9.39710E-02 -3.64672E-02
    8985.937     -9.355  -0.680  6.08544E-02  1.02804E-01 -4.19492E-02
    8986.138     -9.154  -0.640  6.44383E-02  1.12781E-01 -4.83425E-02
    8986.327     -8.965  -0.600  6.82638E-02  1.24033E-01 -5.57692E-02
    8986.503     -8.788  -0.560  7.23331E-02  1.36671E-01 -6.43383E-02
    8986.668     -8.624  -0.520  7.66377E-02  1.50762E-01 -7.41247E-02
    8986.820     -8.471  -0.480  8.11531E-02  1.66292E-01 -8.51384E-02
    8986.961     -8.331  -0.440  8.58325E-02  1.83122E-01 -9.72898E-02
    8987.089     -8.203  -0.400  9.06026E-02  2.00961E-01 -1.10359E-01
    8987.204     -8.087  -0.360  9.53639E-02  2.19347E-01 -1.23983E-01
    8987.308     -7.984  -0.320  9.99976E-02  2.37681E-01 -1.37684E-01
    8987.400     -7.892  -0.280  1.04379E-01  2.55298E-01 -1.50919E-01
    8987.479     -7.813  -0.240  1.08390E-01  2.71557E-01 -1.63167E-01
    8987.546     -7.746  -0.200  1.11934E-01  2.85925E-01 -1.73991E-01
    8987.601     -7.691  -0.160  1.14932E-01  2.98009E-01 -1.83077E-01
    8987.643     -7.648  -0.120  1.17324E-01  3.07560E-01 -1.90236E-01
    8987.674     -7.618  -0.080  1.19066E-01  3.14440E-01 -1.95374E-01
    8987.698     -7.593   0.000  1.20487E-01  3.19966E-01 -1.99480E-01
    8987.753     -7.539   0.120  1.23891E-01  3.32437E-01 -2.08546E-01
    8987.796     -7.496   0.160  1.26514E-01  3.42123E-01 -2.15610E-01
    8987.851     -7.441   0.200  1.29934E-01  3.54481E-01 -2.24548E-01
    8987.918     -7.374   0.240  1.34188E-01  3.69340E-01 -2.35152E-01
    8987.997     -7.295   0.280  1.39365E-01  3.86400E-01 -2.47036E-01
    8988.088     -7.203   0.320  1.45594E-01  4.05223E-01 -2.59629E-01
    8988.192     -7.100   0.360  1.53030E-01  4.25244E-01 -2.72214E-01
    8988.308     -6.984   0.400  1.61971E-01  4.45885E-01 -2.83914E-01
    8988.436     -6.856   0.440  1.72839E-01  4.66620E-01 -2.93781E-01
    8988.576     -6.716   0.480  1.86190E-01  4.86997E-01 -3.00807E-01
    8988.728     -6.563   0.520  2.02861E-01  5.06798E-01 -3.03937E-01
    8988.893     -6.399   0.560  2.23731E-01  5.25863E-01 -3.02132E-01
    8989.070     -6.222   0.600  2.49808E-01  5.44160E-01 -2.94352E-01
    8989.259     -6.033   0.640  2.81764E-01  5.61748E-01 -2.79984E-01
    8989.460     -5.832   0.680  3.19100E-01  5.78702E-01 -2.59602E-01
    8989.673     -5.618   0.720  3.59231E-01  5.95130E-01 -2.35900E-01
    8989.899     -5.393   0.760  3.97846E-01  6.11101E-01 -2.13255E-01
    8990.137     -5.155   0.800  4.32005E-01  6.26713E-01 -1.94708E-01
    8990.387     -4.905   0.840  4.63310E-01  6.42032E-01 -1.78722E-01
    8990.649     -4.643   0.880  4.96813E-01  6.57090E-01 -1.60277E-01
    8990.923     -4.369   0.920  5.36261E-01  6.71964E-01 -1.35703E-01
    8991.210     -4.082   0.960  5.79362E-01  6.86660E-01 -1.07298E-01
    8991.508     -3.783   1.000  6.19384E-01  7.01173E-01 -8.17892E-02
    8991.819     -3.473   1.040  6.57958E-01  7.15549E-01 -5.75909E-02
    8992.142     -3.149   1.080  7.07935E-01  7.29745E-01 -2.18107E-02
    8992.477     -2.814   1.120  7.65213E-01  7.43776E-01  2.14367E-02
    8992.825     -2.467   1.160  7.85364E-01  7.57606E-01  2.77580E-02
    8993.185     -2.107   1.200  7.29193E-01  7.71240E-01 -4.20468E-02
    8993.556     -1.735   1.240  6.31260E-01  7.84655E-01 -1.53394E-01
    8993.941     -1.351   1.280  5.53891E-01  7.97829E-01 -2.43938E-01
    8994.337     -0.955   1.320  5.21064E-01  8.10719E-01 -2.89655E-01
    8994.745     -0.546   1.360  5.29877E-01  8.23316E-01 -2.93439E-01
    8995.166     -0.126   1.400  5.72651E-01  8.35594E-01 -2.62943E-01
    8995.599      0.307   1.440  6.33780E-01  8.47527E-01 -2.13747E-01
    8996.044      0.752   1.480  6.91695E-01  8.59107E-01 -1.67412E-01
    8996.501      1.209   1.520  7.44863E-01  8.70287E-01 -1.25424E-01
    8996.970      1.679   1.560  7.99664E-01  8.81079E-01 -8.14149E-02
    8997.452      2.160   1.600  8.42807E-01  8.91438E-01 -4.86307E-02
    8997.946      2.654   1.640  8.66036E-01  9.01359E-01 -3.53232E-02
    8998.452      3.160   1.680  8.78615E-01  9.10838E-01 -3.22227E-02
    8998.970      3.678   1.720  8.79917E-01  9.19850E-01 -3.99333E-02
    8999.500      4.208   1.760  8.80610E-01  9.28396E-01 -4.77858E-02
    9000.043      4.751   1.800  8.98236E-01  9.36493E-01 -3.82566E-02
    9000.597      5.306   1.840  9.16568E-01  9.44102E-01 -2.75343E-02
    9001.164      5.873   1.880  9.36081E-01  9.51245E-01 -1.51642E-02
    9001.743      6.452   1.920  9.99109E-01  9.57943E-01  4.11664E-02
    9002.335      7.043   1.960  1.10046E+00  9.64159E-01  1.36300E-01
    9002.938      7.647   2.000  1.19027E+00  9.69919E-01  2.20349E-01
    9003.554      8.262   2.040  1.26460E+00  9.75246E-01  2.89358E-01
    9004.182      8.890   2.080  1.34679E+00  9.80125E-01  3.66666E-01
    9004.822      9.530   2.120  1.43384E+00  9.84585E-01  4.49258E-01
    9005.474     10.182   2.160  1.48397E+00  9.88632E-01  4.95338E-01
    9006.139     10.847   2.200  1.43636E+00  9.92273E-01  4.44087E-01
    9006.815     11.524   2.240  1.32804E+00  9.95557E-01  3.32483E-01
    9007.504     12.212   2.280  1.25973E+00  9.98452E-01  2.61279E-01
    9008.205     12.913   2.320  1.26967E+00  1.00101E+00  2.68663E-01
    9008.918     13.627   2.360  1.32914E+00  1.00323E+00  3.25908E-01
    9009.644     14.352   2.400  1.37024E+00  1.00515E+00  3.65083E-01
    9010.381     15.090   2.440  1.33323E+00  1.00676E+00  3.26466E-01
    9011.131     15.840   2.480  1.23510E+00  1.00811E+00  2.26988E-01
    9011.893     16.602   2.520  1.13670E+00  1.00919E+00  1.27511E-01
    9012.667     17.376   2.560  1.06386E+00  1.01003E+00  5.38232E-02
    9013.454     18.162   2.600  1.01033E+00  1.01065E+00 -3.21599E-04
    9014.252     18.961   2.640  9.66558E-01  1.01106E+00 -4.44967E-02
    9015.063     19.771   2.680  9.39152E-01  1.01128E+00 -7.21319E-02
    9015.886     20.594   2.720  9.29567E-01  1.01134E+00 -8.17762E-02
    9016.721     21.430   2.760  9.31047E-01  1.01122E+00 -8.01750E-02
    9017.569     22.277   2.800  9.34800E-01  1.01099E+00 -7.61872E-02
    9018.428     23.136   2.840  9.33914E-01  1.01060E+00 -7.66910E-02
    9019.300     24.008   2.880  9.27048E-01  1.01010E+00 -8.30554E-02
    9020.184     24.892   2.920  9.17764E-01  1.00953E+00 -9.17688E-02
    9021.080     25.788   2.960  9.09618E-01  1.00886E+00 -9.92372E-02
    9021.988     26.696   3.000  9.03204E-01  1.00810E+00 -1.04896E-01
    9022.909     27.617   3.040  8.96997E-01  1.00729E+00 -1.10294E-01
    9023.841     28.550   3.080  8.89276E-01  1.00644E+00 -1.17161E-01
    9024.786     29.494   3.120  8.80245E-01  1.00554E+00 -1.25297E-01
    9025.743     30.452   3.160  8.71503E-01  1.00461E+00 -1.33107E-01
    9026.712     31.421   3.200  8.64677E-01  1.00367E+00 -1.38992E-01
    9027.694     32.402   3.240  8.60400E-01  1.00272E+00 -1.42319E-01
    9028.688     33.396   3.280  8.58638E-01  1.00174E+00 -1.43107E-01
    9029.693     34.402   3.320  8.59604E-01  1.00079E+00 -1.41187E-01
    9030.711     35.420   3.360  8.63852E-01  9.99844E-01 -1.35992E-01
    9031.742     36.450   3.400  8.71940E-01  9.98902E-01 -1.26962E-01
    9032.784     37.492   3.440  8.83726E-01  9.97989E-01 -1.14263E-01
    9033.839     38.547   3.480  8.99099E-01  9.97111E-01 -9.80115E-02
    9034.905     39.614   3.520  9.17781E-01  9.96248E-01 -7.84661E-02
    9035.984     40.693   3.560  9.38770E-01  9.95442E-01 -5.66719E-02
    9037.076     41.784   3.600  9.59814E-01  9.94656E-01 -3.48416E-02
    9038.179     42.887   3.640  9.78172E-01  9.93932E-01 -1.57604E-02
    9039.295     44.003   3.680  9.91501E-01  9.93250E-01 -1.74900E-03
    9040.422     45.131   3.720  9.98558E-01  9.92612E-01  5.94639E-03
    9041.562     46.271   3.760  9.99157E-01  9.92018E-01  7.13884E-03
    9042.714     47.423   3.800  9.94044E-01  9.91490E-01  2.55445E-03
    9043.879     48.587   3.840  9.85188E-01  9.91007E-01 -5.81957E-03
    9045.055     49.764   3.880  9.75674E-01  9.90571E-01 -1.48975E-02
    9046.244     50.952   3.920  9.68646E-01  9.90202E-01 -2.15554E-02
    9047.445     52.153   3.960  9.66441E-01  9.89879E-01 -2.34382E-02
    9048.658     53.366   4.000  9.70186E-01  9.89602E-01 -1.94157E-02
    9049.883     54.592   4.040  9.79948E-01  9.89392E-01 -9.44446E-03
    9051.121     55.829   4.080  9.94834E-01  9.89228E-01  5.60642E-03
    9052.370     57.079   4.120  1.01358E+00  9.89110E-01  2.44662E-02
    9053.632     58.341   4.160  1.03509E+00  9.89059E-01  4.60310E-02
    9054.906     59.615   4.200  1.05796E+00  9.89052E-01  6.89086E-02
    9056.193     60.901   4.240  1.08010E+00  9.89090E-01  9.10127E-02
    9057.491     62.199   4.280  1.09886E+00  9.89191E-01  1.09665E-01
    9058.802     63.510   4.320  1.11151E+00  9.89313E-01  1.22196E-01
    9060.125     64.833   4.360  1.11602E+00  9.89496E-01  1.26525E-01
    9061.460     66.168   4.400  1.11135E+00  9.89697E-01  1.21657E-01
    9062.807     67.515   4.440  1.09837E+00  9.89958E-01  1.08407E-01
    9064.166     68.874   4.480  1.07960E+00  9.90234E-01  8.93683E-02
    9065.538     70.246   4.520  1.05919E+00  9.90547E-01  6.86405E-02
    9066.922     71.630   4.560  1.04143E+00  9.90895E-01  5.05312E-02
    9068.318     73.026   4.600  1.02912E+00  9.91277E-01  3.78445E-02
    9069.726     74.434   4.640  1.02288E+00  9.91669E-01  3.12097E-02
    9071.146     75.854   4.680  1.02137E+00  9.92091E-01  2.92827E-02
    9072.579     77.287   4.720  1.02194E+00  9.92519E-01  2.94175E-02
    9074.023     78.732   4.760  1.02158E+00  9.92952E-01  2.86321E-02
    9075.480     80.189   4.800  1.01815E+00  9.93412E-01  2.47342E-02
    9076.949     81.658   4.840  1.01131E+00  9.93875E-01  1.74367E-02
    9078.431     83.139   4.880  1.00296E+00  9.94340E-01  8.61557E-03
    9079.924     84.633   4.920  9.95807E-01  9.94803E-01  1.00398E-03
    9081.430     86.138   4.960  9.91754E-01  9.95262E-01 -3.50834E-03
    9082.948     87.656   5.000  9.90949E-01  9.95698E-01 -4.74910E-03
    9084.478     89.186   5.040  9.92044E-01  9.96151E-01 -4.10692E-03
    9086.020     90.729   5.080  9.92837E-01  9.96578E-01 -3.74167E-03
    9087.575     92.283   5.120  9.91244E-01  9.97020E-01 -5.77597E-03
    9089.141     93.850   5.160  9.85729E-01  9.97411E-01 -1.16823E-02
    9090.720     95.429   5.200  9.76057E-01  9.97792E-01 -2.17342E-02
    9092.311     97.020   5.240  9.63439E-01  9.98162E-01 -3.47230E-02
    9093.915     98.623   5.280  9.49999E-01  9.98502E-01 -4.85035E-02
    9095.530    100.238   5.320  9.37943E-01  9.98831E-01 -6.08876E-02
    9097.158    101.866   5.360  9.28942E-01  9.99122E-01 -7.01806E-02
    9098.797    103.506   5.400  9.24059E-01  9.99376E-01 -7.53174E-02
    9100.449    105.158   5.440  9.23671E-01  9.99592E-01 -7.59209E-02
    9102.114    106.822   5.480  9.27498E-01  9.99770E-01 -7.22718E-02
    9103.790    108.498   5.520  9.34883E-01  9.99933E-01 -6.50498E-02
    9105.479    110.187   5.560  9.44956E-01  1.00006E+00 -5.51021E-02
    9107.179    111.888   5.600  9.56698E-01  1.00012E+00 -4.34220E-02
    9108.892    113.601   5.640  9.69127E-01  1.00017E+00 -3.10381E-02
    9110.617    115.326   5.680  9.81565E-01  1.00017E+00 -1.86066E-02
    9112.355    117.063   5.720  9.94073E-01  1.00014E+00 -6.06719E-03
    9114.104    118.813   5.760  1.00721E+00  1.00007E+00  7.14089E-03
    9115.866    120.574   5.800  1.02099E+00  9.99958E-01  2.10290E-02
    9117.640    122.348   5.840  1.03359E+00  9.99812E-01  3.37827E-02
    9119.426    124.134   5.880  1.04117E+00  9.99651E-01  4.15227E-02
    9121.224    125.933   5.920  1.03961E+00  9.99428E-01  4.01861E-02
    9123.035    127.743   5.960  1.02771E+00  9.99166E-01  2.85468E-02
    9124.858    129.566   6.000  1.00811E+00  9.98869E-01  9.23809E-03
