# # comment:                                                     FEFF 9.9.1  
# # Source:
# # Structure
# # Reduced
# # space
# # abc:
# # angles:
# # sites:
# # POT  SCF 100  7.0000   0, screened core-hole, AFOLP (folp(0)= 1.150)
# # Abs   Z=29 Rmt= 1.245 Rnm= 1.322 K  shell
# # Pot 1 Z=57 Rmt= 1.700 Rnm= 1.794
# # Pot 2 Z=60 Rmt= 1.674 Rnm= 1.767
# # Pot 3 Z=29 Rmt= 1.245 Rnm= 1.322
# # Pot 4 Z= 8 Rmt= 1.072 Rnm= 1.123
# # Gam_ch=1.729E+00 H-L exch Vi= 0.000E+00 Vr= 0.000E+00
# # Mu=-8.334E+00eV kf=2.058E+00 Vint=-1.757E+01eV Rs_int= 1.763
# FMS rfms= 9.0000
# # PATH  Rmax=-1.000,  Keep_limit= 0.00, Heap_limit 0.00  Pwcrit= 2.50%
#  S02=0.950  Temp=   0.00  Debye_temp=   0.00  Global_sig2= 0.00000
#  Energy zero shift, vr, vi    0.00000E+00   0.00000E+00
#  Curved wave amplitude ratio filter   4.000%
#     file         sig2 tot  cw amp ratio   deg  nlegs   reff  inp sig2
#     0/   0 paths used
#  xsedge+ 50, used to normalize mu           2.4571E-04
#  -----------------------------------------------------------------------
#  omega    e    k    mu    mu0     chi     @#
    8984.832    -12.144  -1.000  3.86324E-02  5.55224E-02 -1.68900E-02
    8985.131    -11.845  -0.960  4.07086E-02  5.96149E-02 -1.89062E-02
    8985.418    -11.559  -0.920  4.29638E-02  6.41675E-02 -2.12037E-02
    8985.692    -11.284  -0.880  4.54227E-02  6.92486E-02 -2.38259E-02
    8985.954    -11.022  -0.840  4.81145E-02  7.49375E-02 -2.68231E-02
    8986.204    -10.772  -0.800  5.10734E-02  8.13263E-02 -3.02529E-02
    8986.442    -10.535  -0.760  5.43395E-02  8.85207E-02 -3.41812E-02
    8986.667    -10.309  -0.720  5.79586E-02  9.66403E-02 -3.86816E-02
    8986.881    -10.096  -0.680  6.19819E-02  1.05817E-01 -4.38346E-02
    8987.082     -9.895  -0.640  6.64641E-02  1.16189E-01 -4.97245E-02
    8987.271     -9.706  -0.600  7.14591E-02  1.27893E-01 -5.64342E-02
    8987.448     -9.529  -0.560  7.70121E-02  1.41047E-01 -6.40351E-02
    8987.612     -9.364  -0.520  8.31473E-02  1.55720E-01 -7.25730E-02
    8987.765     -9.212  -0.480  8.98500E-02  1.71898E-01 -8.20477E-02
    8987.905     -9.072  -0.440  9.70474E-02  1.89437E-01 -9.23898E-02
    8988.033     -8.944  -0.400  1.04592E-01  2.08033E-01 -1.03440E-01
    8988.149     -8.828  -0.360  1.12262E-01  2.27201E-01 -1.14940E-01
    8988.252     -8.724  -0.320  1.19776E-01  2.46318E-01 -1.26542E-01
    8988.344     -8.633  -0.280  1.26844E-01  2.64686E-01 -1.37843E-01
    8988.423     -8.553  -0.240  1.33207E-01  2.81639E-01 -1.48432E-01
    8988.490     -8.486  -0.200  1.38681E-01  2.96617E-01 -1.57937E-01
    8988.545     -8.432  -0.160  1.43159E-01  3.09214E-01 -1.66055E-01
    8988.588     -8.389  -0.120  1.46600E-01  3.19167E-01 -1.72567E-01
    8988.618     -8.358  -0.080  1.49009E-01  3.26336E-01 -1.77327E-01
    8988.642     -8.334   0.000  1.50860E-01  3.32093E-01 -1.81233E-01
    8988.697     -8.279   0.120  1.55404E-01  3.45078E-01 -1.89674E-01
    8988.740     -8.236   0.160  1.58787E-01  3.55162E-01 -1.96375E-01
    8988.795     -8.182   0.200  1.62991E-01  3.68045E-01 -2.05054E-01
    8988.862     -8.115   0.240  1.67806E-01  3.83507E-01 -2.15701E-01
    8988.941     -8.035   0.280  1.73062E-01  4.01252E-01 -2.28190E-01
    8989.033     -7.944   0.320  1.78558E-01  4.20816E-01 -2.42257E-01
    8989.136     -7.840   0.360  1.84176E-01  4.41607E-01 -2.57430E-01
    8989.252     -7.724   0.400  1.89934E-01  4.63017E-01 -2.73082E-01
    8989.380     -7.596   0.440  1.96068E-01  4.84469E-01 -2.88400E-01
    8989.520     -7.456   0.480  2.03004E-01  5.05533E-01 -3.02529E-01
    8989.673     -7.304   0.520  2.11148E-01  5.25916E-01 -3.14768E-01
    8989.837     -7.139   0.560  2.20714E-01  5.45490E-01 -3.24776E-01
    8990.014     -6.962   0.600  2.31428E-01  5.64222E-01 -3.32794E-01
    8990.203     -6.773   0.640  2.42564E-01  5.82151E-01 -3.39587E-01
    8990.404     -6.572   0.680  2.53342E-01  5.99357E-01 -3.46015E-01
    8990.618     -6.359   0.720  2.63532E-01  6.15954E-01 -3.52422E-01
    8990.843     -6.133   0.760  2.73364E-01  6.32033E-01 -3.58669E-01
    8991.081     -5.896   0.800  2.83015E-01  6.47678E-01 -3.64663E-01
    8991.331     -5.646   0.840  2.92245E-01  6.62960E-01 -3.70715E-01
    8991.593     -5.384   0.880  3.00983E-01  6.77911E-01 -3.76928E-01
    8991.867     -5.109   0.920  3.10325E-01  6.92613E-01 -3.82288E-01
    8992.154     -4.823   0.960  3.22416E-01  7.07053E-01 -3.84637E-01
    8992.452     -4.524   1.000  3.39187E-01  7.21269E-01 -3.82082E-01
    8992.763     -4.213   1.040  3.60772E-01  7.35250E-01 -3.74478E-01
    8993.086     -3.890   1.080  3.84301E-01  7.49013E-01 -3.64712E-01
    8993.422     -3.555   1.120  4.05157E-01  7.62553E-01 -3.57396E-01
    8993.769     -3.207   1.160  4.23029E-01  7.75839E-01 -3.52810E-01
    8994.129     -2.848   1.200  4.44313E-01  7.88875E-01 -3.44562E-01
    8994.501     -2.476   1.240  4.72992E-01  8.01622E-01 -3.28630E-01
    8994.885     -2.092   1.280  5.06642E-01  8.14078E-01 -3.07436E-01
    8995.281     -1.696   1.320  5.46747E-01  8.26202E-01 -2.79455E-01
    8995.689     -1.287   1.360  5.98486E-01  8.37989E-01 -2.39503E-01
    8996.110     -0.866   1.400  6.60235E-01  8.49414E-01 -1.89179E-01
    8996.543     -0.434   1.440  7.28899E-01  8.60474E-01 -1.31574E-01
    8996.988      0.011   1.480  8.08596E-01  8.71143E-01 -6.25462E-02
    8997.445      0.469   1.520  9.03383E-01  8.81376E-01  2.20068E-02
    8997.914      0.938   1.560  1.01000E+00  8.91209E-01  1.18795E-01
    8998.396      1.420   1.600  1.12002E+00  9.00580E-01  2.19435E-01
    8998.890      1.913   1.640  1.23759E+00  9.09528E-01  3.28058E-01
    8999.396      2.419   1.680  1.38419E+00  9.18029E-01  4.66163E-01
    8999.914      2.937   1.720  1.53530E+00  9.26065E-01  6.09239E-01
    9000.444      3.468   1.760  1.59098E+00  9.33635E-01  6.57345E-01
    9000.987      4.010   1.800  1.54117E+00  9.40761E-01  6.00412E-01
    9001.542      4.565   1.840  1.47229E+00  9.47426E-01  5.24860E-01
    9002.108      5.132   1.880  1.41273E+00  9.53655E-01  4.59076E-01
    9002.688      5.711   1.920  1.34855E+00  9.59429E-01  3.89124E-01
    9003.279      6.302   1.960  1.28566E+00  9.64777E-01  3.20881E-01
    9003.882      6.906   2.000  1.23686E+00  9.69704E-01  2.67155E-01
    9004.498      7.522   2.040  1.19815E+00  9.74216E-01  2.23937E-01
    9005.126      8.149   2.080  1.15801E+00  9.78342E-01  1.79664E-01
    9005.766      8.790   2.120  1.11055E+00  9.82090E-01  1.28458E-01
    9006.418      9.442   2.160  1.05412E+00  9.85489E-01  6.86314E-02
    9007.083     10.106   2.200  9.92475E-01  9.88503E-01  3.97172E-03
    9007.759     10.783   2.240  9.35896E-01  9.91206E-01 -5.53092E-02
    9008.448     11.472   2.280  8.95553E-01  9.93606E-01 -9.80522E-02
    9009.149     12.173   2.320  8.82875E-01  9.95690E-01 -1.12815E-01
    9009.863     12.886   2.360  9.08720E-01  9.97509E-01 -8.87885E-02
    9010.588     13.611   2.400  9.73363E-01  9.99051E-01 -2.56882E-02
    9011.326     14.349   2.440  1.05965E+00  1.00037E+00  5.92787E-02
    9012.075     15.099   2.480  1.12891E+00  1.00145E+00  1.27461E-01
    9012.837     15.861   2.520  1.15293E+00  1.00231E+00  1.50618E-01
    9013.612     16.635   2.560  1.14644E+00  1.00298E+00  1.43464E-01
    9014.398     17.421   2.600  1.12539E+00  1.00348E+00  1.21914E-01
    9015.197     18.220   2.640  1.09695E+00  1.00383E+00  9.31247E-02
    9016.007     19.031   2.680  1.06473E+00  1.00403E+00  6.07005E-02
    9016.830     19.854   2.720  1.03189E+00  1.00410E+00  2.77951E-02
    9017.665     20.689   2.760  1.00061E+00  1.00405E+00 -3.43508E-03
    9018.513     21.536   2.800  9.71153E-01  1.00390E+00 -3.27490E-02
    9019.372     22.396   2.840  9.43332E-01  1.00365E+00 -6.03179E-02
    9020.244     23.268   2.880  9.17538E-01  1.00334E+00 -8.58013E-02
    9021.128     24.151   2.920  8.94223E-01  1.00297E+00 -1.08751E-01
    9022.024     25.048   2.960  8.74295E-01  1.00254E+00 -1.28245E-01
    9022.932     25.956   3.000  8.58292E-01  1.00206E+00 -1.43769E-01
    9023.853     26.876   3.040  8.45787E-01  1.00154E+00 -1.55755E-01
    9024.786     27.809   3.080  8.36219E-01  1.00101E+00 -1.64790E-01
    9025.730     28.754   3.120  8.29232E-01  1.00045E+00 -1.71216E-01
    9026.687     29.711   3.160  8.25111E-01  9.99880E-01 -1.74768E-01
    9027.657     30.680   3.200  8.24648E-01  9.99331E-01 -1.74683E-01
    9028.638     31.662   3.240  8.28695E-01  9.98763E-01 -1.70068E-01
    9029.632     32.655   3.280  8.37195E-01  9.98219E-01 -1.61024E-01
    9030.638     33.661   3.320  8.49902E-01  9.97682E-01 -1.47781E-01
    9031.656     34.679   3.360  8.66560E-01  9.97174E-01 -1.30614E-01
    9032.686     35.709   3.400  8.86636E-01  9.96677E-01 -1.10041E-01
    9033.728     36.752   3.440  9.09180E-01  9.96214E-01 -8.70339E-02
    9034.783     37.806   3.480  9.32909E-01  9.95788E-01 -6.28789E-02
    9035.850     38.873   3.520  9.56089E-01  9.95400E-01 -3.93110E-02
    9036.929     39.952   3.560  9.76968E-01  9.95050E-01 -1.80818E-02
    9038.020     41.043   3.600  9.94734E-01  9.94739E-01 -5.05074E-06
    9039.123     42.147   3.640  1.00978E+00  9.94467E-01  1.53079E-02
    9040.239     43.262   3.680  1.02300E+00  9.94235E-01  2.87675E-02
    9041.367     44.390   3.720  1.03530E+00  9.94045E-01  4.12501E-02
    9042.507     45.530   3.760  1.04703E+00  9.93895E-01  5.31352E-02
    9043.659     46.682   3.800  1.05782E+00  9.93786E-01  6.40320E-02
    9044.823     47.846   3.840  1.06698E+00  9.93740E-01  7.32409E-02
    9046.000     49.023   3.880  1.07397E+00  9.93715E-01  8.02538E-02
    9047.188     50.212   3.920  1.07855E+00  9.93751E-01  8.47947E-02
    9048.389     51.413   3.960  1.08033E+00  9.93807E-01  8.65242E-02
    9049.602     52.626   4.000  1.07894E+00  9.93923E-01  8.50159E-02
    9050.828     53.851   4.040  1.07394E+00  9.94079E-01  7.98642E-02
    9052.065     55.088   4.080  1.06535E+00  9.94252E-01  7.11020E-02
    9053.315     56.338   4.120  1.05402E+00  9.94483E-01  5.95373E-02
    9054.577     57.600   4.160  1.04150E+00  9.94729E-01  4.67667E-02
    9055.851     58.874   4.200  1.02971E+00  9.95010E-01  3.47031E-02
    9057.137     60.160   4.240  1.02027E+00  9.95325E-01  2.49417E-02
    9058.435     61.459   4.280  1.01397E+00  9.95650E-01  1.83178E-02
    9059.746     62.769   4.320  1.01098E+00  9.96009E-01  1.49708E-02
    9061.069     64.092   4.360  1.01112E+00  9.96399E-01  1.47218E-02
    9062.404     65.427   4.400  1.01427E+00  9.96796E-01  1.74757E-02
    9063.751     66.774   4.440  1.02053E+00  9.97199E-01  2.33355E-02
    9065.110     68.134   4.480  1.02990E+00  9.97629E-01  3.22745E-02
    9066.482     69.505   4.520  1.04168E+00  9.98063E-01  4.36216E-02
    9067.866     70.889   4.560  1.05417E+00  9.98501E-01  5.56640E-02
    9069.262     72.285   4.600  1.06464E+00  9.98961E-01  6.56739E-02
    9070.670     73.693   4.640  1.06992E+00  9.99398E-01  7.05190E-02
    9072.090     75.114   4.680  1.06768E+00  9.99832E-01  6.78487E-02
    9073.523     76.546   4.720  1.05760E+00  1.00026E+00  5.73389E-02
    9074.968     77.991   4.760  1.04175E+00  1.00069E+00  4.10549E-02
    9076.425     79.448   4.800  1.02352E+00  1.00112E+00  2.24067E-02
    9077.894     80.917   4.840  1.00616E+00  1.00154E+00  4.62537E-03
    9079.375     82.398   4.880  9.91824E-01  1.00193E+00 -1.01016E-02
    9080.868     83.892   4.920  9.81421E-01  1.00230E+00 -2.08838E-02
    9082.374     85.398   4.960  9.74626E-01  1.00265E+00 -2.80228E-02
    9083.892     86.916   5.000  9.70359E-01  1.00296E+00 -3.26018E-02
    9085.422     88.446   5.040  9.67194E-01  1.00326E+00 -3.60692E-02
    9086.964     89.988   5.080  9.63979E-01  1.00355E+00 -3.95751E-02
    9088.519     91.542   5.120  9.60138E-01  1.00381E+00 -4.36713E-02
    9090.086     93.109   5.160  9.55618E-01  1.00403E+00 -4.84094E-02
    9091.664     94.688   5.200  9.50660E-01  1.00421E+00 -5.35493E-02
    9093.255     96.279   5.240  9.45674E-01  1.00437E+00 -5.87002E-02
    9094.859     97.882   5.280  9.41303E-01  1.00448E+00 -6.31778E-02
    9096.474     99.498   5.320  9.38496E-01  1.00457E+00 -6.60771E-02
    9098.102    101.125   5.360  9.38185E-01  1.00465E+00 -6.64635E-02
    9099.742    102.765   5.400  9.40803E-01  1.00466E+00 -6.38620E-02
    9101.394    104.417   5.440  9.46052E-01  1.00464E+00 -5.85885E-02
    9103.058    106.081   5.480  9.52827E-01  1.00460E+00 -5.17708E-02
    9104.734    107.758   5.520  9.59672E-01  1.00450E+00 -4.48253E-02
    9106.423    109.446   5.560  9.65689E-01  1.00438E+00 -3.86896E-02
    9108.124    111.147   5.600  9.71060E-01  1.00422E+00 -3.31638E-02
    9109.837    112.860   5.640  9.76854E-01  1.00403E+00 -2.71788E-02
    9111.562    114.585   5.680  9.84014E-01  1.00383E+00 -1.98122E-02
    9113.299    116.323   5.720  9.92491E-01  1.00356E+00 -1.10703E-02
    9115.049    118.072   5.760  1.00155E+00  1.00328E+00 -1.72612E-03
    9116.810    119.834   5.800  1.01031E+00  1.00297E+00  7.34131E-03
    9118.584    121.608   5.840  1.01809E+00  1.00261E+00  1.54768E-02
    9120.370    123.394   5.880  1.02423E+00  1.00223E+00  2.20014E-02
    9122.169    125.192   5.920  1.02792E+00  1.00184E+00  2.60797E-02
    9123.979    127.003   5.960  1.02876E+00  1.00142E+00  2.73384E-02
    9125.802    128.825   6.000  1.02761E+00  1.00099E+00  2.66289E-02
