# # comment:                                                     FEFF 9.9.1  
# # Source:
# # Structure
# # Reduced
# # space
# # abc:
# # angles:
# # sites:
# # POT  SCF 100  7.0000   0, screened core-hole, AFOLP (folp(0)= 1.150)
# # Abs   Z=29 Rmt= 1.228 Rnm= 1.284 K  shell
# # Pot 1 Z=27 Rmt= 1.222 Rnm= 1.325
# # Pot 2 Z=29 Rmt= 1.228 Rnm= 1.285
# # Pot 3 Z= 8 Rmt= 1.032 Rnm= 1.088
# # Gam_ch=1.729E+00 H-L exch Vi= 0.000E+00 Vr= 0.000E+00
# # Mu=-1.166E+01eV kf=2.283E+00 Vint=-1.956E+01eV Rs_int= 1.589
# FMS rfms= 9.0000
# # PATH  Rmax=-1.000,  Keep_limit= 0.00, Heap_limit 0.00  Pwcrit= 2.50%
#  S02=0.950  Temp=   0.00  Debye_temp=   0.00  Global_sig2= 0.00000
#  Energy zero shift, vr, vi    0.00000E+00   0.00000E+00
#  Curved wave amplitude ratio filter   4.000%
#     file         sig2 tot  cw amp ratio   deg  nlegs   reff  inp sig2
#     0/   0 paths used
#  xsedge+ 50, used to normalize mu           2.5029E-04
#  -----------------------------------------------------------------------
#  omega    e    k    mu    mu0     chi     @#
    8984.928    -15.472  -1.000  2.74611E-02  4.67343E-02 -1.92732E-02
    8985.226    -15.173  -0.960  2.85207E-02  4.99481E-02 -2.14274E-02
    8985.513    -14.887  -0.920  2.96374E-02  5.35056E-02 -2.38683E-02
    8985.787    -14.613  -0.880  3.08171E-02  5.74563E-02 -2.66391E-02
    8986.049    -14.350  -0.840  3.20672E-02  6.18577E-02 -2.97905E-02
    8986.299    -14.100  -0.800  3.33959E-02  6.67764E-02 -3.33805E-02
    8986.537    -13.863  -0.760  3.48130E-02  7.22888E-02 -3.74757E-02
    8986.763    -13.637  -0.720  3.63297E-02  7.84808E-02 -4.21511E-02
    8986.976    -13.424  -0.680  3.79581E-02  8.54470E-02 -4.74889E-02
    8987.177    -13.223  -0.640  3.97113E-02  9.32871E-02 -5.35759E-02
    8987.366    -13.034  -0.600  4.16017E-02  1.02099E-01 -6.04969E-02
    8987.543    -12.857  -0.560  4.36397E-02  1.11964E-01 -6.83247E-02
    8987.707    -12.692  -0.520  4.58303E-02  1.22933E-01 -7.71026E-02
    8987.860    -12.540  -0.480  4.81691E-02  1.34991E-01 -8.68220E-02
    8988.000    -12.400  -0.440  5.06381E-02  1.48034E-01 -9.73958E-02
    8988.128    -12.272  -0.400  5.32012E-02  1.61837E-01 -1.08636E-01
    8988.244    -12.156  -0.360  5.58031E-02  1.76049E-01 -1.20246E-01
    8988.348    -12.052  -0.320  5.83729E-02  1.90213E-01 -1.31840E-01
    8988.439    -11.961  -0.280  6.08313E-02  2.03823E-01 -1.42992E-01
    8988.518    -11.882  -0.240  6.31011E-02  2.16390E-01 -1.53289E-01
    8988.585    -11.814  -0.200  6.51158E-02  2.27502E-01 -1.62387E-01
    8988.640    -11.760  -0.160  6.68226E-02  2.36857E-01 -1.70034E-01
    8988.683    -11.717  -0.120  6.81821E-02  2.44258E-01 -1.76076E-01
    8988.713    -11.686  -0.080  6.91677E-02  2.49594E-01 -1.80426E-01
    8988.738    -11.662   0.000  6.99674E-02  2.53884E-01 -1.83917E-01
    8988.793    -11.607   0.120  7.19752E-02  2.63565E-01 -1.91589E-01
    8988.835    -11.565   0.160  7.34975E-02  2.71102E-01 -1.97605E-01
    8988.890    -11.510   0.200  7.54276E-02  2.80737E-01 -2.05310E-01
    8988.957    -11.443   0.240  7.77529E-02  2.92353E-01 -2.14600E-01
    8989.036    -11.363   0.280  8.04202E-02  3.05736E-01 -2.25316E-01
    8989.128    -11.272   0.320  8.33240E-02  3.20554E-01 -2.37230E-01
    8989.231    -11.168   0.360  8.64217E-02  3.36451E-01 -2.50029E-01
    8989.347    -11.052   0.400  8.95079E-02  3.52968E-01 -2.63460E-01
    8989.475    -10.924   0.440  9.23922E-02  3.69720E-01 -2.77328E-01
    8989.616    -10.784   0.480  9.48380E-02  3.86413E-01 -2.91575E-01
    8989.768    -10.632   0.520  9.66710E-02  4.02857E-01 -3.06186E-01
    8989.933    -10.467   0.560  9.78267E-02  4.18948E-01 -3.21121E-01
    8990.109    -10.291   0.600  9.84413E-02  4.34700E-01 -3.36258E-01
    8990.298    -10.102   0.640  9.87704E-02  4.50118E-01 -3.51347E-01
    8990.499     -9.900   0.680  9.92943E-02  4.65272E-01 -3.65978E-01
    8990.713     -9.687   0.720  1.00524E-01  4.80245E-01 -3.79721E-01
    8990.938     -9.461   0.760  1.02853E-01  4.95096E-01 -3.92243E-01
    8991.176     -9.224   0.800  1.06581E-01  5.09880E-01 -4.03299E-01
    8991.426     -8.974   0.840  1.11819E-01  5.24657E-01 -4.12837E-01
    8991.688     -8.712   0.880  1.18421E-01  5.39459E-01 -4.21038E-01
    8991.962     -8.437   0.920  1.26268E-01  5.54308E-01 -4.28040E-01
    8992.249     -8.151   0.960  1.35498E-01  5.69235E-01 -4.33737E-01
    8992.548     -7.852   1.000  1.46819E-01  5.84224E-01 -4.37405E-01
    8992.859     -7.541   1.040  1.61394E-01  5.99290E-01 -4.37896E-01
    8993.182     -7.218   1.080  1.80069E-01  6.14423E-01 -4.34354E-01
    8993.517     -6.883   1.120  2.02852E-01  6.29588E-01 -4.26736E-01
    8993.864     -6.535   1.160  2.29095E-01  6.44785E-01 -4.15689E-01
    8994.224     -6.176   1.200  2.57240E-01  6.59990E-01 -4.02750E-01
    8994.596     -5.804   1.240  2.84434E-01  6.75157E-01 -3.90723E-01
    8994.980     -5.420   1.280  3.09316E-01  6.90257E-01 -3.80941E-01
    8995.376     -5.024   1.320  3.34253E-01  7.05279E-01 -3.71026E-01
    8995.785     -4.615   1.360  3.62569E-01  7.20192E-01 -3.57623E-01
    8996.205     -4.195   1.400  3.98824E-01  7.34942E-01 -3.36119E-01
    8996.638     -3.762   1.440  4.45477E-01  7.49497E-01 -3.04019E-01
    8997.083     -3.317   1.480  5.00687E-01  7.63841E-01 -2.63154E-01
    8997.540     -2.860   1.520  5.63376E-01  7.77922E-01 -2.14546E-01
    8998.010     -2.390   1.560  6.35085E-01  7.91725E-01 -1.56641E-01
    8998.491     -1.909   1.600  7.12820E-01  8.05218E-01 -9.23979E-02
    8998.985     -1.415   1.640  7.78906E-01  8.18367E-01 -3.94612E-02
    8999.491     -0.909   1.680  8.20155E-01  8.31142E-01 -1.09867E-02
    9000.009     -0.391   1.720  8.54796E-01  8.43509E-01  1.12869E-02
    9000.540      0.140   1.760  9.12819E-01  8.55479E-01  5.73400E-02
    9001.082      0.682   1.800  1.00220E+00  8.67005E-01  1.35191E-01
    9001.637      1.237   1.840  1.11343E+00  8.78078E-01  2.35348E-01
    9002.204      1.804   1.880  1.23644E+00  8.88671E-01  3.47768E-01
    9002.783      2.383   1.920  1.38125E+00  8.98801E-01  4.82448E-01
    9003.374      2.974   1.960  1.58018E+00  9.08463E-01  6.71721E-01
    9003.978      3.578   2.000  1.80371E+00  9.17614E-01  8.86098E-01
    9004.593      4.194   2.040  1.92266E+00  9.26274E-01  9.96390E-01
    9005.221      4.821   2.080  1.88364E+00  9.34422E-01  9.49215E-01
    9005.861      5.461   2.120  1.75799E+00  9.42097E-01  8.15896E-01
    9006.514      6.114   2.160  1.57117E+00  9.49262E-01  6.21909E-01
    9007.178      6.778   2.200  1.35251E+00  9.55942E-01  3.96568E-01
    9007.855      7.455   2.240  1.17631E+00  9.62141E-01  2.14169E-01
    9008.544      8.144   2.280  1.06853E+00  9.67881E-01  1.00652E-01
    9009.245      8.845   2.320  1.00436E+00  9.73170E-01  3.11946E-02
    9009.958      9.558   2.360  9.60284E-01  9.77994E-01 -1.77096E-02
    9010.683     10.283   2.400  9.31309E-01  9.82399E-01 -5.10892E-02
    9011.421     11.021   2.440  9.13562E-01  9.86372E-01 -7.28095E-02
    9012.171     11.771   2.480  8.94092E-01  9.89941E-01 -9.58484E-02
    9012.933     12.533   2.520  8.66043E-01  9.93134E-01 -1.27091E-01
    9013.707     13.307   2.560  8.53414E-01  9.95961E-01 -1.42548E-01
    9014.493     14.093   2.600  8.85793E-01  9.98411E-01 -1.12618E-01
    9015.292     14.892   2.640  9.59355E-01  1.00055E+00 -4.11968E-02
    9016.103     15.703   2.680  1.02772E+00  1.00237E+00  2.53432E-02
    9016.926     16.526   2.720  1.05253E+00  1.00388E+00  4.86530E-02
    9017.761     17.361   2.760  1.05033E+00  1.00511E+00  4.52205E-02
    9018.608     18.208   2.800  1.03194E+00  1.00608E+00  2.58568E-02
    9019.468     19.068   2.840  1.00271E+00  1.00682E+00 -4.10918E-03
    9020.339     19.939   2.880  9.68637E-01  1.00731E+00 -3.86736E-02
    9021.223     20.823   2.920  9.34473E-01  1.00760E+00 -7.31258E-02
    9022.119     21.719   2.960  9.03603E-01  1.00769E+00 -1.04087E-01
    9023.028     22.628   3.000  8.77381E-01  1.00761E+00 -1.30231E-01
    9023.948     23.548   3.040  8.55619E-01  1.00737E+00 -1.51752E-01
    9024.881     24.481   3.080  8.38177E-01  1.00697E+00 -1.68798E-01
    9025.826     25.426   3.120  8.24135E-01  1.00645E+00 -1.82316E-01
    9026.783     26.383   3.160  8.12929E-01  1.00581E+00 -1.92879E-01
    9027.752     27.352   3.200  8.04726E-01  1.00505E+00 -2.00325E-01
    9028.733     28.334   3.240  8.00050E-01  1.00423E+00 -2.04178E-01
    9029.727     29.327   3.280  7.99525E-01  1.00330E+00 -2.03779E-01
    9030.733     30.333   3.320  8.04000E-01  1.00232E+00 -1.98325E-01
    9031.751     31.351   3.360  8.13787E-01  1.00128E+00 -1.87489E-01
    9032.781     32.381   3.400  8.27581E-01  1.00018E+00 -1.72602E-01
    9033.824     33.424   3.440  8.43635E-01  9.99051E-01 -1.55416E-01
    9034.878     34.478   3.480  8.60327E-01  9.97905E-01 -1.37578E-01
    9035.945     35.545   3.520  8.76750E-01  9.96730E-01 -1.19981E-01
    9037.024     36.624   3.560  8.93213E-01  9.95571E-01 -1.02358E-01
    9038.115     37.715   3.600  9.10668E-01  9.94387E-01 -8.37189E-02
    9039.218     38.819   3.640  9.29990E-01  9.93203E-01 -6.32125E-02
    9040.334     39.934   3.680  9.51487E-01  9.92024E-01 -4.05369E-02
    9041.462     41.062   3.720  9.75107E-01  9.90873E-01 -1.57658E-02
    9042.602     42.202   3.760  1.00033E+00  9.89753E-01  1.05718E-02
    9043.754     43.354   3.800  1.02585E+00  9.88646E-01  3.71995E-02
    9044.918     44.518   3.840  1.04998E+00  9.87573E-01  6.24115E-02
    9046.095     45.695   3.880  1.07111E+00  9.86540E-01  8.45693E-02
    9047.283     46.884   3.920  1.08848E+00  9.85566E-01  1.02911E-01
    9048.484     48.085   3.960  1.10276E+00  9.84612E-01  1.18152E-01
    9049.697     49.298   4.000  1.11586E+00  9.83698E-01  1.32165E-01
    9050.923     50.523   4.040  1.12958E+00  9.82848E-01  1.46728E-01
    9052.160     51.760   4.080  1.14418E+00  9.82020E-01  1.62163E-01
    9053.410     53.010   4.120  1.15808E+00  9.81279E-01  1.76805E-01
    9054.672     54.272   4.160  1.16792E+00  9.80563E-01  1.87361E-01
    9055.946     55.546   4.200  1.17025E+00  9.79912E-01  1.90338E-01
    9057.232     56.832   4.240  1.16296E+00  9.79309E-01  1.83654E-01
    9058.531     58.131   4.280  1.14629E+00  9.78773E-01  1.67512E-01
    9059.841     59.441   4.320  1.12242E+00  9.78283E-01  1.44139E-01
    9061.164     60.764   4.360  1.09475E+00  9.77838E-01  1.16907E-01
    9062.499     62.099   4.400  1.06668E+00  9.77462E-01  8.92181E-02
    9063.846     63.446   4.440  1.04049E+00  9.77133E-01  6.33612E-02
    9065.206     64.806   4.480  1.01708E+00  9.76870E-01  4.02094E-02
    9066.577     66.177   4.520  9.96139E-01  9.76651E-01  1.94882E-02
    9067.961     67.561   4.560  9.76895E-01  9.76476E-01  4.18873E-04
    9069.357     68.957   4.600  9.58848E-01  9.76344E-01 -1.74968E-02
    9070.765     70.365   4.640  9.42320E-01  9.76276E-01 -3.39554E-02
    9072.186     71.786   4.680  9.28105E-01  9.76228E-01 -4.81229E-02
    9073.618     73.218   4.720  9.16874E-01  9.76242E-01 -5.93676E-02
    9075.063     74.663   4.760  9.08670E-01  9.76297E-01 -6.76279E-02
    9076.520     76.120   4.800  9.03057E-01  9.76391E-01 -7.33335E-02
    9077.989     77.589   4.840  8.99433E-01  9.76499E-01 -7.70657E-02
    9079.470     79.070   4.880  8.97513E-01  9.76665E-01 -7.91525E-02
    9080.964     80.564   4.920  8.97369E-01  9.76846E-01 -7.94768E-02
    9082.469     82.070   4.960  8.99416E-01  9.77061E-01 -7.76451E-02
    9083.987     83.588   5.000  9.03766E-01  9.77309E-01 -7.35422E-02
    9085.517     85.118   5.040  9.09856E-01  9.77566E-01 -6.77105E-02
    9087.060     86.660   5.080  9.16768E-01  9.77852E-01 -6.10837E-02
    9088.614     88.214   5.120  9.23673E-01  9.78145E-01 -5.44721E-02
    9090.181     89.781   5.160  9.30380E-01  9.78444E-01 -4.80644E-02
    9091.760     91.360   5.200  9.37284E-01  9.78769E-01 -4.14849E-02
    9093.351     92.951   5.240  9.45043E-01  9.79098E-01 -3.40548E-02
    9094.954     94.554   5.280  9.54277E-01  9.79427E-01 -2.51497E-02
    9096.569     96.170   5.320  9.65156E-01  9.79757E-01 -1.46011E-02
    9098.197     97.797   5.360  9.77304E-01  9.80086E-01 -2.78208E-03
    9099.837     99.437   5.400  9.89867E-01  9.80412E-01  9.45512E-03
    9101.489    101.089   5.440  1.00169E+00  9.80735E-01  2.09517E-02
    9103.153    102.753   5.480  1.01145E+00  9.81032E-01  3.04195E-02
    9104.829    104.430   5.520  1.01788E+00  9.81344E-01  3.65347E-02
    9106.518    106.118   5.560  1.01970E+00  9.81605E-01  3.80939E-02
    9108.219    107.819   5.600  1.01647E+00  9.81881E-01  3.45868E-02
    9109.932    109.532   5.640  1.00861E+00  9.82126E-01  2.64846E-02
    9111.657    111.257   5.680  9.96805E-01  9.82337E-01  1.44684E-02
    9113.394    112.994   5.720  9.81094E-01  9.82537E-01 -1.44274E-03
    9115.144    114.744   5.760  9.61194E-01  9.82703E-01 -2.15089E-02
    9116.906    116.506   5.800  9.37958E-01  9.82834E-01 -4.48760E-02
    9118.680    118.280   5.840  9.14244E-01  9.82955E-01 -6.87106E-02
    9120.466    120.066   5.880  8.93989E-01  9.83040E-01 -8.90504E-02
    9122.264    121.864   5.920  8.80710E-01  9.83085E-01 -1.02376E-01
    9124.074    123.675   5.960  8.76441E-01  9.83090E-01 -1.06649E-01
    9125.897    125.497   6.000  8.82466E-01  9.83039E-01 -1.00573E-01
