# # comment:                                                     FEFF 9.9.1  
# # Source:
# # Structure
# # Reduced
# # space
# # abc:
# # angles:
# # sites:
# # POT  SCF 100  7.0000   0, screened core-hole, AFOLP (folp(0)= 1.150)
# # Abs   Z=29 Rmt= 1.396 Rnm= 1.445 K  shell
# # Pot 1 Z=22 Rmt= 1.287 Rnm= 1.406
# # Pot 2 Z=29 Rmt= 1.247 Rnm= 1.309
# # Pot 3 Z=15 Rmt= 0.931 Rnm= 1.149
# # Pot 4 Z= 8 Rmt= 0.910 Rnm= 1.044
# # Gam_ch=1.729E+00 H-L exch Vi= 0.000E+00 Vr= 0.000E+00
# # Mu=-7.556E+00eV kf=2.503E+00 Vint=-1.825E+01eV Rs_int= 1.449
# FMS rfms= 9.0000
# # PATH  Rmax=-1.000,  Keep_limit= 0.00, Heap_limit 0.00  Pwcrit= 2.50%
#  S02=0.950  Temp=   0.00  Debye_temp=   0.00  Global_sig2= 0.00000
#  Energy zero shift, vr, vi    0.00000E+00   0.00000E+00
#  Curved wave amplitude ratio filter   4.000%
#     file         sig2 tot  cw amp ratio   deg  nlegs   reff  inp sig2
#     0/   0 paths used
#  xsedge+ 50, used to normalize mu           2.4427E-04
#  -----------------------------------------------------------------------
#  omega    e    k    mu    mu0     chi     @#
    8983.556    -11.366  -1.000  4.34549E-02  5.08608E-02 -7.40597E-03
    8983.855    -11.067  -0.960  4.58701E-02  5.44102E-02 -8.54007E-03
    8984.141    -10.781  -0.920  4.84785E-02  5.83438E-02 -9.86523E-03
    8984.416    -10.506  -0.880  5.13020E-02  6.27176E-02 -1.14157E-02
    8984.678    -10.244  -0.840  5.43651E-02  6.75968E-02 -1.32318E-02
    8984.928     -9.994  -0.800  5.76959E-02  7.30569E-02 -1.53610E-02
    8985.166     -9.757  -0.760  6.13256E-02  7.91844E-02 -1.78588E-02
    8985.391     -9.531  -0.720  6.52887E-02  8.60770E-02 -2.07883E-02
    8985.605     -9.318  -0.680  6.96220E-02  9.38425E-02 -2.42205E-02
    8985.806     -9.117  -0.640  7.43630E-02  1.02594E-01 -2.82313E-02
    8985.995     -8.928  -0.600  7.95472E-02  1.12444E-01 -3.28967E-02
    8986.171     -8.751  -0.560  8.52024E-02  1.23486E-01 -3.82838E-02
    8986.336     -8.586  -0.520  9.13415E-02  1.35777E-01 -4.44356E-02
    8986.488     -8.434  -0.480  9.79522E-02  1.49303E-01 -5.13509E-02
    8986.629     -8.294  -0.440  1.04984E-01  1.63945E-01 -5.89610E-02
    8986.757     -8.166  -0.400  1.12341E-01  1.79450E-01 -6.71097E-02
    8986.872     -8.050  -0.360  1.19870E-01  1.95419E-01 -7.55497E-02
    8986.976     -7.946  -0.320  1.27374E-01  2.11336E-01 -8.39622E-02
    8987.068     -7.855  -0.280  1.34624E-01  2.26625E-01 -9.20014E-02
    8987.147     -7.775  -0.240  1.41387E-01  2.40736E-01 -9.93493E-02
    8987.214     -7.708  -0.200  1.47446E-01  2.53205E-01 -1.05758E-01
    8987.269     -7.654  -0.160  1.52624E-01  2.63693E-01 -1.11069E-01
    8987.311     -7.611  -0.120  1.56782E-01  2.71984E-01 -1.15202E-01
    8987.342     -7.580  -0.080  1.59825E-01  2.77957E-01 -1.18131E-01
    8987.366     -7.556   0.000  1.62327E-01  2.82755E-01 -1.20428E-01
    8987.421     -7.501   0.120  1.67910E-01  2.93590E-01 -1.25680E-01
    8987.464     -7.458   0.160  1.72290E-01  3.02000E-01 -1.29711E-01
    8987.519     -7.404   0.200  1.77972E-01  3.12756E-01 -1.34784E-01
    8987.586     -7.337   0.240  1.84930E-01  3.25672E-01 -1.40742E-01
    8987.665     -7.257   0.280  1.93192E-01  3.40531E-01 -1.47339E-01
    8987.756     -7.166   0.320  2.02661E-01  3.56939E-01 -1.54278E-01
    8987.860     -7.062   0.360  2.13231E-01  3.74451E-01 -1.61220E-01
    8987.976     -6.946   0.400  2.24723E-01  3.92553E-01 -1.67830E-01
    8988.104     -6.818   0.440  2.37003E-01  4.10776E-01 -1.73773E-01
    8988.244     -6.678   0.480  2.50012E-01  4.28814E-01 -1.78802E-01
    8988.396     -6.526   0.520  2.63694E-01  4.46428E-01 -1.82734E-01
    8988.561     -6.361   0.560  2.77939E-01  4.63501E-01 -1.85563E-01
    8988.738     -6.184   0.600  2.92576E-01  4.80052E-01 -1.87476E-01
    8988.927     -5.995   0.640  3.07393E-01  4.96138E-01 -1.88745E-01
    8989.128     -5.794   0.680  3.22071E-01  5.11806E-01 -1.89735E-01
    8989.341     -5.581   0.720  3.36461E-01  5.27203E-01 -1.90741E-01
    8989.567     -5.355   0.760  3.50867E-01  5.42408E-01 -1.91541E-01
    8989.805     -5.118   0.800  3.66398E-01  5.57493E-01 -1.91095E-01
    8990.055     -4.868   0.840  3.84547E-01  5.72563E-01 -1.88016E-01
    8990.317     -4.606   0.880  4.05739E-01  5.87645E-01 -1.81906E-01
    8990.591     -4.331   0.920  4.29013E-01  6.02818E-01 -1.73805E-01
    8990.878     -4.045   0.960  4.53718E-01  6.18088E-01 -1.64370E-01
    8991.176     -3.746   1.000  4.81698E-01  6.33493E-01 -1.51794E-01
    8991.487     -3.435   1.040  5.16442E-01  6.49080E-01 -1.32638E-01
    8991.810     -3.112   1.080  5.59972E-01  6.64809E-01 -1.04838E-01
    8992.146     -2.777   1.120  6.10491E-01  6.80694E-01 -7.02027E-02
    8992.493     -2.429   1.160  6.61821E-01  6.96742E-01 -3.49215E-02
    8992.853     -2.070   1.200  7.05078E-01  7.12916E-01 -7.83832E-03
    8993.224     -1.698   1.240  7.37479E-01  7.29213E-01  8.26501E-03
    8993.609     -1.314   1.280  7.70057E-01  7.45587E-01  2.44696E-02
    8994.005     -0.918   1.320  8.16838E-01  7.62028E-01  5.48104E-02
    8994.413     -0.509   1.360  8.76200E-01  7.78484E-01  9.77157E-02
    8994.834     -0.088   1.400  9.28654E-01  7.94918E-01  1.33735E-01
    8995.267      0.344   1.440  9.54775E-01  8.11293E-01  1.43482E-01
    8995.712      0.789   1.480  9.62971E-01  8.27568E-01  1.35404E-01
    8996.169      1.247   1.520  9.81659E-01  8.43683E-01  1.37976E-01
    8996.638      1.716   1.560  1.02741E+00  8.59593E-01  1.67818E-01
    8997.120      2.198   1.600  1.10252E+00  8.75236E-01  2.27289E-01
    8997.614      2.691   1.640  1.20867E+00  8.90587E-01  3.18082E-01
    8998.120      3.197   1.680  1.35714E+00  9.05580E-01  4.51564E-01
    8998.638      3.715   1.720  1.55552E+00  9.20152E-01  6.35364E-01
    8999.168      4.246   1.760  1.75032E+00  9.34277E-01  8.16045E-01
    8999.711      4.788   1.800  1.80418E+00  9.47895E-01  8.56281E-01
    9000.265      5.343   1.840  1.67735E+00  9.60939E-01  7.16415E-01
    9000.832      5.910   1.880  1.48907E+00  9.73411E-01  5.15660E-01
    9001.411      6.489   1.920  1.32590E+00  9.85230E-01  3.40669E-01
    9002.003      7.080   1.960  1.19221E+00  9.96401E-01  1.95811E-01
    9002.606      7.684   2.000  1.07350E+00  1.00685E+00  6.66554E-02
    9003.222      8.300   2.040  9.76737E-01  1.01660E+00 -3.98598E-02
    9003.850      8.927   2.080  9.16380E-01  1.02558E+00 -1.09199E-01
    9004.490      9.568   2.120  8.96788E-01  1.03381E+00 -1.37019E-01
    9005.142     10.220   2.160  9.13414E-01  1.04126E+00 -1.27842E-01
    9005.807     10.884   2.200  9.58450E-01  1.04794E+00 -8.94921E-02
    9006.483     11.561   2.240  1.02023E+00  1.05383E+00 -3.35955E-02
    9007.172     12.250   2.280  1.07926E+00  1.05898E+00  2.02837E-02
    9007.873     12.951   2.320  1.11567E+00  1.06336E+00  5.23131E-02
    9008.586     13.664   2.360  1.11969E+00  1.06700E+00  5.26902E-02
    9009.312     14.389   2.400  1.09649E+00  1.06990E+00  2.65823E-02
    9010.049     15.127   2.440  1.05614E+00  1.07213E+00 -1.59870E-02
    9010.799     15.877   2.480  1.00123E+00  1.07369E+00 -7.24654E-02
    9011.561     16.639   2.520  9.32779E-01  1.07461E+00 -1.41834E-01
    9012.335     17.413   2.560  8.63677E-01  1.07494E+00 -2.11265E-01
    9013.122     18.199   2.600  8.13829E-01  1.07470E+00 -2.60872E-01
    9013.920     18.998   2.640  7.91721E-01  1.07395E+00 -2.82229E-01
    9014.731     19.809   2.680  7.88905E-01  1.07271E+00 -2.83803E-01
    9015.554     20.632   2.720  7.93222E-01  1.07102E+00 -2.77794E-01
    9016.389     21.467   2.760  8.02483E-01  1.06892E+00 -2.66433E-01
    9017.237     22.314   2.800  8.26349E-01  1.06647E+00 -2.40122E-01
    9018.096     23.174   2.840  8.72742E-01  1.06370E+00 -1.90957E-01
    9018.968     24.045   2.880  9.33795E-01  1.06064E+00 -1.26846E-01
    9019.852     24.929   2.920  9.78809E-01  1.05734E+00 -7.85300E-02
    9020.748     25.826   2.960  9.98763E-01  1.05385E+00 -5.50891E-02
    9021.656     26.734   3.000  1.00686E+00  1.05018E+00 -4.33127E-02
    9022.577     27.654   3.040  1.01115E+00  1.04640E+00 -3.52492E-02
    9023.509     28.587   3.080  1.01519E+00  1.04250E+00 -2.73151E-02
    9024.454     29.532   3.120  1.02045E+00  1.03853E+00 -1.80837E-02
    9025.411     30.489   3.160  1.02722E+00  1.03455E+00 -7.32379E-03
    9026.381     31.458   3.200  1.03534E+00  1.03056E+00  4.78196E-03
    9027.362     32.440   3.240  1.04448E+00  1.02658E+00  1.79025E-02
    9028.356     33.433   3.280  1.05398E+00  1.02266E+00  3.13203E-02
    9029.361     34.439   3.320  1.06311E+00  1.01880E+00  4.43166E-02
    9030.379     35.457   3.360  1.07139E+00  1.01501E+00  5.63730E-02
    9031.410     36.487   3.400  1.07832E+00  1.01134E+00  6.69772E-02
    9032.452     37.530   3.440  1.08345E+00  1.00780E+00  7.56498E-02
    9033.507     38.584   3.480  1.08629E+00  1.00440E+00  8.18840E-02
    9034.573     39.651   3.520  1.08663E+00  1.00115E+00  8.54775E-02
    9035.652     40.730   3.560  1.08468E+00  9.98073E-01  8.66106E-02
    9036.744     41.821   3.600  1.08142E+00  9.95170E-01  8.62479E-02
    9037.847     42.925   3.640  1.07802E+00  9.92447E-01  8.55708E-02
    9038.963     44.040   3.680  1.07564E+00  9.89923E-01  8.57158E-02
    9040.090     45.168   3.720  1.07501E+00  9.87595E-01  8.74155E-02
    9041.230     46.308   3.760  1.07617E+00  9.85491E-01  9.06839E-02
    9042.382     47.460   3.800  1.07822E+00  9.83579E-01  9.46360E-02
    9043.547     48.624   3.840  1.07945E+00  9.81895E-01  9.75537E-02
    9044.723     49.801   3.880  1.07794E+00  9.80419E-01  9.75236E-02
    9045.912     50.990   3.920  1.07207E+00  9.79151E-01  9.29198E-02
    9047.113     52.191   3.960  1.06115E+00  9.78093E-01  8.30586E-02
    9048.326     53.404   4.000  1.04596E+00  9.77265E-01  6.86989E-02
    9049.551     54.629   4.040  1.02834E+00  9.76644E-01  5.16999E-02
    9050.789     55.866   4.080  1.01035E+00  9.76231E-01  3.41209E-02
    9052.038     57.116   4.120  9.93587E-01  9.76021E-01  1.75654E-02
    9053.300     58.378   4.160  9.78797E-01  9.76013E-01  2.78467E-03
    9054.574     59.652   4.200  9.65811E-01  9.76204E-01 -1.03931E-02
    9055.861     60.938   4.240  9.53939E-01  9.76567E-01 -2.26278E-02
    9057.159     62.237   4.280  9.42438E-01  9.77100E-01 -3.46624E-02
    9058.470     63.547   4.320  9.30822E-01  9.77823E-01 -4.70017E-02
    9059.793     64.870   4.360  9.19155E-01  9.78710E-01 -5.95550E-02
    9061.128     66.205   4.400  9.08109E-01  9.79732E-01 -7.16228E-02
    9062.475     67.552   4.440  8.98616E-01  9.80909E-01 -8.22931E-02
    9063.834     68.912   4.480  8.91516E-01  9.82235E-01 -9.07189E-02
    9065.206     70.283   4.520  8.87344E-01  9.83662E-01 -9.63184E-02
    9066.590     71.667   4.560  8.86419E-01  9.85204E-01 -9.87851E-02
    9067.986     73.063   4.600  8.88946E-01  9.86835E-01 -9.78889E-02
    9069.394     74.471   4.640  8.95223E-01  9.88570E-01 -9.33472E-02
    9070.814     75.892   4.680  9.05418E-01  9.90360E-01 -8.49418E-02
    9072.247     77.324   4.720  9.19517E-01  9.92198E-01 -7.26807E-02
    9073.691     78.769   4.760  9.37131E-01  9.94100E-01 -5.69689E-02
    9075.148     80.226   4.800  9.57248E-01  9.96016E-01 -3.87680E-02
    9076.617     81.695   4.840  9.78422E-01  9.97963E-01 -1.95411E-02
    9078.099     83.176   4.880  9.98839E-01  9.99912E-01 -1.07288E-03
    9079.592     84.670   4.920  1.01666E+00  1.00186E+00  1.48064E-02
    9081.098     86.176   4.960  1.03042E+00  1.00377E+00  2.66584E-02
    9082.616     87.694   5.000  1.03945E+00  1.00563E+00  3.38161E-02
    9084.146     89.224   5.040  1.04401E+00  1.00746E+00  3.65488E-02
    9085.688     90.766   5.080  1.04500E+00  1.00921E+00  3.57881E-02
    9087.243     92.320   5.120  1.04358E+00  1.01091E+00  3.26750E-02
    9088.809     93.887   5.160  1.04075E+00  1.01252E+00  2.82302E-02
    9090.388     95.466   5.200  1.03733E+00  1.01402E+00  2.33070E-02
    9091.979     97.057   5.240  1.03420E+00  1.01543E+00  1.87668E-02
    9093.583     98.660   5.280  1.03218E+00  1.01673E+00  1.54509E-02
    9095.198    100.276   5.320  1.03187E+00  1.01789E+00  1.39750E-02
    9096.826    101.903   5.360  1.03344E+00  1.01894E+00  1.45040E-02
    9098.465    103.543   5.400  1.03659E+00  1.01983E+00  1.67618E-02
    9100.117    105.195   5.440  1.04083E+00  1.02059E+00  2.02476E-02
    9101.782    106.859   5.480  1.04561E+00  1.02122E+00  2.43906E-02
    9103.458    108.536   5.520  1.05028E+00  1.02169E+00  2.85851E-02
    9105.147    110.224   5.560  1.05423E+00  1.02204E+00  3.21912E-02
    9106.847    111.925   5.600  1.05678E+00  1.02222E+00  3.45572E-02
    9108.560    113.638   5.640  1.05740E+00  1.02225E+00  3.51447E-02
    9110.285    115.363   5.680  1.05582E+00  1.02215E+00  3.36777E-02
    9112.023    117.101   5.720  1.05211E+00  1.02189E+00  3.02140E-02
    9113.772    118.850   5.760  1.04658E+00  1.02151E+00  2.50691E-02
    9115.534    120.612   5.800  1.03973E+00  1.02101E+00  1.87266E-02
    9117.308    122.386   5.840  1.03209E+00  1.02038E+00  1.17088E-02
    9119.094    124.172   5.880  1.02419E+00  1.01962E+00  4.57120E-03
    9120.892    125.970   5.920  1.01678E+00  1.01876E+00 -1.98761E-03
    9122.703    127.781   5.960  1.01070E+00  1.01782E+00 -7.12671E-03
    9124.526    129.603   6.000  1.00658E+00  1.01670E+00 -1.01153E-02
