# # comment:                                                     FEFF 9.9.1  
# # Source:
# # Structure
# # Reduced
# # space
# # abc:
# # angles:
# # sites:
# # POT  SCF 100  7.0000   0, screened core-hole, AFOLP (folp(0)= 1.150)
# # Abs   Z=29 Rmt= 1.119 Rnm= 1.257 K  shell
# # Pot 1 Z=29 Rmt= 1.119 Rnm= 1.257
# # Pot 2 Z= 7 Rmt= 0.634 Rnm= 0.877
# # Pot 3 Z= 8 Rmt= 0.984 Rnm= 1.119
# # Gam_ch=1.729E+00 H-L exch Vi= 0.000E+00 Vr= 0.000E+00
# # Mu=-7.359E+00eV kf=2.317E+00 Vint=-1.520E+01eV Rs_int= 1.565
# FMS rfms= 9.0000
# # PATH  Rmax=-1.000,  Keep_limit= 0.00, Heap_limit 0.00  Pwcrit= 2.50%
#  S02=0.950  Temp=   0.00  Debye_temp=   0.00  Global_sig2= 0.00000
#  Energy zero shift, vr, vi    0.00000E+00   0.00000E+00
#  Curved wave amplitude ratio filter   4.000%
#     file         sig2 tot  cw amp ratio   deg  nlegs   reff  inp sig2
#     0/   0 paths used
#  xsedge+ 50, used to normalize mu           2.4476E-04
#  -----------------------------------------------------------------------
#  omega    e    k    mu    mu0     chi     @#
    8983.507    -11.169  -1.000  3.13718E-02  5.49180E-02 -2.35462E-02
    8983.806    -10.870  -0.960  3.27154E-02  5.88540E-02 -2.61386E-02
    8984.093    -10.583  -0.920  3.41394E-02  6.32203E-02 -2.90809E-02
    8984.367    -10.309  -0.880  3.56516E-02  6.80791E-02 -3.24275E-02
    8984.629    -10.047  -0.840  3.72613E-02  7.35032E-02 -3.62419E-02
    8984.879     -9.797  -0.800  3.89791E-02  7.95764E-02 -4.05973E-02
    8985.117     -9.559  -0.760  4.08172E-02  8.63951E-02 -4.55779E-02
    8985.342     -9.334  -0.720  4.27891E-02  9.40679E-02 -5.12788E-02
    8985.556     -9.120  -0.680  4.49097E-02  1.02714E-01 -5.78044E-02
    8985.757     -8.919  -0.640  4.71945E-02  1.12460E-01 -6.52652E-02
    8985.946     -8.730  -0.600  4.96582E-02  1.23428E-01 -7.37698E-02
    8986.122     -8.553  -0.560  5.23123E-02  1.35724E-01 -8.34113E-02
    8986.287     -8.389  -0.520  5.51618E-02  1.49408E-01 -9.42466E-02
    8986.439     -8.236  -0.480  5.81999E-02  1.64467E-01 -1.06267E-01
    8986.580     -8.096  -0.440  6.14023E-02  1.80767E-01 -1.19365E-01
    8986.708     -7.968  -0.400  6.47224E-02  1.98029E-01 -1.33306E-01
    8986.824     -7.852  -0.360  6.80892E-02  2.15809E-01 -1.47720E-01
    8986.927     -7.749  -0.320  7.14115E-02  2.33536E-01 -1.62125E-01
    8987.019     -7.657  -0.280  7.45871E-02  2.50572E-01 -1.75985E-01
    8987.098     -7.578  -0.240  7.75164E-02  2.66304E-01 -1.88787E-01
    8987.165     -7.511  -0.200  8.01135E-02  2.80214E-01 -2.00100E-01
    8987.220     -7.456  -0.160  8.23127E-02  2.91923E-01 -2.09610E-01
    8987.262     -7.414  -0.120  8.40694E-02  3.01185E-01 -2.17115E-01
    8987.293     -7.383  -0.080  8.53548E-02  3.07861E-01 -2.22506E-01
    8987.317     -7.359   0.000  8.64262E-02  3.13227E-01 -2.26801E-01
    8987.372     -7.304   0.120  8.88187E-02  3.25334E-01 -2.36516E-01
    8987.415     -7.261   0.160  9.06335E-02  3.34769E-01 -2.44136E-01
    8987.470     -7.206   0.200  9.28935E-02  3.46800E-01 -2.53907E-01
    8987.537     -7.139   0.240  9.55809E-02  3.61320E-01 -2.65739E-01
    8987.616     -7.060   0.280  9.86603E-02  3.78037E-01 -2.79377E-01
    8987.707     -6.969   0.320  1.02006E-01  3.96555E-01 -2.94549E-01
    8987.811     -6.865   0.360  1.05524E-01  4.16354E-01 -3.10830E-01
    8987.927     -6.749   0.400  1.09108E-01  4.36903E-01 -3.27795E-01
    8988.055     -6.621   0.440  1.12699E-01  4.57716E-01 -3.45017E-01
    8988.195     -6.481   0.480  1.16291E-01  4.78394E-01 -3.62103E-01
    8988.348     -6.328   0.520  1.19948E-01  4.98700E-01 -3.78751E-01
    8988.512     -6.164   0.560  1.23790E-01  5.18521E-01 -3.94730E-01
    8988.689     -5.987   0.600  1.27889E-01  5.37784E-01 -4.09895E-01
    8988.878     -5.798   0.640  1.32505E-01  5.56583E-01 -4.24078E-01
    8989.079     -5.597   0.680  1.37951E-01  5.74962E-01 -4.37011E-01
    8989.292     -5.384   0.720  1.44741E-01  5.92980E-01 -4.48238E-01
    8989.518     -5.158   0.760  1.53611E-01  6.10751E-01 -4.57140E-01
    8989.756     -4.920   0.800  1.65285E-01  6.28321E-01 -4.63036E-01
    8990.006     -4.670   0.840  1.80059E-01  6.45743E-01 -4.65684E-01
    8990.268     -4.408   0.880  1.97241E-01  6.63034E-01 -4.65793E-01
    8990.542     -4.134   0.920  2.14854E-01  6.80242E-01 -4.65389E-01
    8990.829     -3.847   0.960  2.31028E-01  6.97381E-01 -4.66353E-01
    8991.127     -3.549   1.000  2.46414E-01  7.14413E-01 -4.67998E-01
    8991.438     -3.238   1.040  2.64630E-01  7.31353E-01 -4.66723E-01
    8991.761     -2.915   1.080  2.89654E-01  7.48168E-01 -4.58514E-01
    8992.097     -2.579   1.120  3.24143E-01  7.64839E-01 -4.40696E-01
    8992.444     -2.232   1.160  3.69196E-01  7.81322E-01 -4.12126E-01
    8992.804     -1.872   1.200  4.22891E-01  7.97589E-01 -3.74698E-01
    8993.176     -1.500   1.240  4.78775E-01  8.13609E-01 -3.34833E-01
    8993.560     -1.116   1.280  5.30744E-01  8.29328E-01 -2.98584E-01
    8993.956     -0.720   1.320  5.76467E-01  8.44693E-01 -2.68226E-01
    8994.364     -0.312   1.360  6.16370E-01  8.59689E-01 -2.43319E-01
    8994.785      0.109   1.400  6.53681E-01  8.74259E-01 -2.20578E-01
    8995.218      0.542   1.440  6.91576E-01  8.88389E-01 -1.96814E-01
    8995.663      0.987   1.480  7.26332E-01  9.02026E-01 -1.75695E-01
    8996.120      1.444   1.520  7.47226E-01  9.15135E-01 -1.67909E-01
    8996.589      1.913   1.560  7.53830E-01  9.27683E-01 -1.73853E-01
    8997.071      2.395   1.600  7.59687E-01  9.39681E-01 -1.79995E-01
    8997.565      2.889   1.640  7.69877E-01  9.51061E-01 -1.81184E-01
    8998.071      3.395   1.680  7.81759E-01  9.61833E-01 -1.80074E-01
    8998.589      3.913   1.720  7.98826E-01  9.71992E-01 -1.73166E-01
    8999.119      4.443   1.760  8.27661E-01  9.81496E-01 -1.53836E-01
    8999.662      4.986   1.800  8.68867E-01  9.90364E-01 -1.21497E-01
    9000.216      5.540   1.840  9.19095E-01  9.98594E-01 -7.94991E-02
    9000.783      6.107   1.880  9.80618E-01  1.00617E+00 -2.55502E-02
    9001.362      6.686   1.920  1.05463E+00  1.01311E+00  4.15226E-02
    9001.954      7.278   1.960  1.13619E+00  1.01945E+00  1.16740E-01
    9002.557      7.881   2.000  1.22110E+00  1.02515E+00  1.95947E-01
    9003.173      8.497   2.040  1.30589E+00  1.03025E+00  2.75631E-01
    9003.801      9.125   2.080  1.40021E+00  1.03478E+00  3.65433E-01
    9004.441      9.765   2.120  1.50396E+00  1.03875E+00  4.65205E-01
    9005.093     10.417   2.160  1.59588E+00  1.04216E+00  5.53716E-01
    9005.758     11.082   2.200  1.64404E+00  1.04507E+00  5.98978E-01
    9006.434     11.758   2.240  1.60221E+00  1.04747E+00  5.54741E-01
    9007.123     12.447   2.280  1.47652E+00  1.04941E+00  4.27101E-01
    9007.824     13.148   2.320  1.33204E+00  1.05091E+00  2.81132E-01
    9008.537     13.861   2.360  1.21526E+00  1.05196E+00  1.63304E-01
    9009.263     14.587   2.400  1.13543E+00  1.05265E+00  8.27792E-02
    9010.000     15.324   2.440  1.08173E+00  1.05295E+00  2.87833E-02
    9010.750     16.074   2.480  1.04478E+00  1.05291E+00 -8.12724E-03
    9011.512     16.836   2.520  1.02710E+00  1.05255E+00 -2.54439E-02
    9012.286     17.610   2.560  1.03307E+00  1.05192E+00 -1.88477E-02
    9013.073     18.397   2.600  1.05635E+00  1.05101E+00  5.34344E-03
    9013.871     19.195   2.640  1.08442E+00  1.04985E+00  3.45614E-02
    9014.682     20.006   2.680  1.11082E+00  1.04849E+00  6.23303E-02
    9015.505     20.829   2.720  1.13283E+00  1.04694E+00  8.58907E-02
    9016.340     21.664   2.760  1.15110E+00  1.04520E+00  1.05898E-01
    9017.188     22.512   2.800  1.16778E+00  1.04333E+00  1.24456E-01
    9018.047     23.371   2.840  1.18090E+00  1.04130E+00  1.39596E-01
    9018.919     24.243   2.880  1.18690E+00  1.03918E+00  1.47722E-01
    9019.803     25.127   2.920  1.18274E+00  1.03695E+00  1.45795E-01
    9020.699     26.023   2.960  1.16732E+00  1.03465E+00  1.32666E-01
    9021.607     26.931   3.000  1.14256E+00  1.03231E+00  1.10252E-01
    9022.528     27.852   3.040  1.11157E+00  1.02990E+00  8.16758E-02
    9023.460     28.784   3.080  1.07796E+00  1.02745E+00  5.05081E-02
    9024.405     29.729   3.120  1.04437E+00  1.02502E+00  1.93551E-02
    9025.362     30.686   3.160  1.01217E+00  1.02256E+00 -1.03808E-02
    9026.332     31.656   3.200  9.82111E-01  1.02010E+00 -3.79874E-02
    9027.313     32.637   3.240  9.54692E-01  1.01767E+00 -6.29812E-02
    9028.307     33.631   3.280  9.30254E-01  1.01528E+00 -8.50262E-02
    9029.312     34.636   3.320  9.08992E-01  1.01292E+00 -1.03929E-01
    9030.330     35.655   3.360  8.91227E-01  1.01061E+00 -1.19380E-01
    9031.361     36.685   3.400  8.77048E-01  1.00834E+00 -1.31295E-01
    9032.403     37.727   3.440  8.66406E-01  1.00615E+00 -1.39740E-01
    9033.458     38.782   3.480  8.59214E-01  1.00401E+00 -1.44792E-01
    9034.525     39.849   3.520  8.55452E-01  1.00197E+00 -1.46515E-01
    9035.603     40.928   3.560  8.54586E-01  9.99977E-01 -1.45391E-01
    9036.695     42.019   3.600  8.56149E-01  9.98094E-01 -1.41945E-01
    9037.798     43.122   3.640  8.59558E-01  9.96285E-01 -1.36726E-01
    9038.914     44.238   3.680  8.64296E-01  9.94599E-01 -1.30302E-01
    9040.041     45.365   3.720  8.69974E-01  9.92976E-01 -1.23002E-01
    9041.181     46.505   3.760  8.76664E-01  9.91463E-01 -1.14800E-01
    9042.333     47.657   3.800  8.84602E-01  9.90042E-01 -1.05440E-01
    9043.498     48.822   3.840  8.93876E-01  9.88735E-01 -9.48585E-02
    9044.674     49.998   3.880  9.04439E-01  9.87542E-01 -8.31028E-02
    9045.863     51.187   3.920  9.16069E-01  9.86441E-01 -7.03716E-02
    9047.064     52.388   3.960  9.28431E-01  9.85455E-01 -5.70239E-02
    9048.277     53.601   4.000  9.41083E-01  9.84584E-01 -4.35009E-02
    9049.502     54.826   4.040  9.53650E-01  9.83805E-01 -3.01545E-02
    9050.740     56.064   4.080  9.65809E-01  9.83139E-01 -1.73298E-02
    9051.989     57.314   4.120  9.77262E-01  9.82565E-01 -5.30277E-03
    9053.251     58.575   4.160  9.87856E-01  9.82103E-01  5.75282E-03
    9054.525     59.849   4.200  9.97412E-01  9.81732E-01  1.56799E-02
    9055.812     61.136   4.240  1.00563E+00  9.81474E-01  2.41531E-02
    9057.110     62.434   4.280  1.01212E+00  9.81327E-01  3.07905E-02
    9058.421     63.745   4.320  1.01641E+00  9.81246E-01  3.51602E-02
    9059.744     65.068   4.360  1.01829E+00  9.81274E-01  3.70191E-02
    9061.079     66.403   4.400  1.01786E+00  9.81410E-01  3.64489E-02
    9062.426     67.750   4.440  1.01556E+00  9.81609E-01  3.39523E-02
    9063.785     69.109   4.480  1.01228E+00  9.81913E-01  3.03654E-02
    9065.157     70.481   4.520  1.00901E+00  9.82297E-01  2.67166E-02
    9066.541     71.865   4.560  1.00689E+00  9.82739E-01  2.41538E-02
    9067.937     73.261   4.600  1.00699E+00  9.83281E-01  2.37100E-02
    9069.345     74.669   4.640  1.00998E+00  9.83875E-01  2.61056E-02
    9070.765     76.089   4.680  1.01610E+00  9.84522E-01  3.15753E-02
    9072.198     77.522   4.720  1.02499E+00  9.85261E-01  3.97311E-02
    9073.642     78.966   4.760  1.03558E+00  9.86027E-01  4.95484E-02
    9075.099     80.423   4.800  1.04659E+00  9.86863E-01  5.97306E-02
    9076.568     81.892   4.840  1.05674E+00  9.87764E-01  6.89732E-02
    9078.050     83.374   4.880  1.06504E+00  9.88684E-01  7.63584E-02
    9079.543     84.867   4.920  1.07118E+00  9.89642E-01  8.15423E-02
    9081.049     86.373   4.960  1.07533E+00  9.90635E-01  8.46935E-02
    9082.567     87.891   5.000  1.07790E+00  9.91639E-01  8.62603E-02
    9084.097     89.421   5.040  1.07931E+00  9.92677E-01  8.66365E-02
    9085.639     90.963   5.080  1.07958E+00  9.93745E-01  8.58330E-02
    9087.194     92.518   5.120  1.07834E+00  9.94819E-01  8.35183E-02
    9088.760     94.084   5.160  1.07502E+00  9.95893E-01  7.91281E-02
    9090.339     95.663   5.200  1.06910E+00  9.96968E-01  7.21369E-02
    9091.930     97.254   5.240  1.06036E+00  9.98039E-01  6.23181E-02
    9093.534     98.858   5.280  1.04897E+00  9.99083E-01  4.98847E-02
    9095.149    100.473   5.320  1.03570E+00  1.00014E+00  3.55545E-02
    9096.777    102.101   5.360  1.02148E+00  1.00115E+00  2.03284E-02
    9098.416    103.740   5.400  1.00735E+00  1.00217E+00  5.18557E-03
    9100.068    105.392   5.440  9.94014E-01  1.00312E+00 -9.11028E-03
    9101.733    107.057   5.480  9.81900E-01  1.00406E+00 -2.21651E-02
    9103.409    108.733   5.520  9.70927E-01  1.00494E+00 -3.40175E-02
    9105.098    110.422   5.560  9.60861E-01  1.00581E+00 -4.49445E-02
    9106.798    112.122   5.600  9.51530E-01  1.00662E+00 -5.50940E-02
    9108.511    113.835   5.640  9.43037E-01  1.00737E+00 -6.43363E-02
    9110.237    115.561   5.680  9.35723E-01  1.00808E+00 -7.23539E-02
    9111.974    117.298   5.720  9.29882E-01  1.00873E+00 -7.88498E-02
    9113.723    119.047   5.760  9.25687E-01  1.00931E+00 -8.36251E-02
    9115.485    120.809   5.800  9.23235E-01  1.00982E+00 -8.65851E-02
    9117.259    122.583   5.840  9.22719E-01  1.01030E+00 -8.75798E-02
    9119.045    124.369   5.880  9.24349E-01  1.01068E+00 -8.63286E-02
    9120.844    126.168   5.920  9.28509E-01  1.01100E+00 -8.24878E-02
    9122.654    127.978   5.960  9.35347E-01  1.01122E+00 -7.58725E-02
    9124.477    129.801   6.000  9.45009E-01  1.01131E+00 -6.63040E-02
