# # comment:                                                     FEFF 9.9.1  
# # Source:
# # Structure
# # Reduced
# # space
# # abc:
# # angles:
# # sites:
# # POT  SCF 100  7.0000   0, screened core-hole, AFOLP (folp(0)= 1.150)
# # Abs   Z=29 Rmt= 1.291 Rnm= 1.360 K  shell
# # Pot 1 Z=29 Rmt= 1.259 Rnm= 1.333
# # Pot 2 Z= 1 Rmt= 0.917 Rnm= 0.985
# # Pot 3 Z= 6 Rmt= 0.722 Rnm= 0.947
# # Pot 4 Z= 8 Rmt= 0.933 Rnm= 1.040
# # Gam_ch=1.729E+00 H-L exch Vi= 0.000E+00 Vr= 0.000E+00
# # Mu=-7.103E+00eV kf=2.627E+00 Vint=-1.714E+01eV Rs_int= 1.381
# FMS rfms= 9.0000
# # PATH  Rmax=-1.000,  Keep_limit= 0.00, Heap_limit 0.00  Pwcrit= 2.50%
#  S02=0.950  Temp=   0.00  Debye_temp=   0.00  Global_sig2= 0.00000
#  Energy zero shift, vr, vi    0.00000E+00   0.00000E+00
#  Curved wave amplitude ratio filter   4.000%
#     file         sig2 tot  cw amp ratio   deg  nlegs   reff  inp sig2
#     0/   0 paths used
#  xsedge+ 50, used to normalize mu           2.5003E-04
#  -----------------------------------------------------------------------
#  omega    e    k    mu    mu0     chi     @#
    8983.249    -10.913  -1.000  3.56453E-02  4.86531E-02 -1.30078E-02
    8983.547    -10.614  -0.960  3.74733E-02  5.20896E-02 -1.46163E-02
    8983.834    -10.328  -0.920  3.94406E-02  5.59034E-02 -1.64628E-02
    8984.108    -10.053  -0.880  4.15629E-02  6.01498E-02 -1.85869E-02
    8984.370     -9.791  -0.840  4.38584E-02  6.48935E-02 -2.10351E-02
    8984.620     -9.541  -0.800  4.63474E-02  7.02092E-02 -2.38618E-02
    8984.858     -9.303  -0.760  4.90533E-02  7.61828E-02 -2.71295E-02
    8985.084     -9.078  -0.720  5.20016E-02  8.29114E-02 -3.09099E-02
    8985.297     -8.865  -0.680  5.52198E-02  9.05018E-02 -3.52820E-02
    8985.498     -8.663  -0.640  5.87363E-02  9.90669E-02 -4.03305E-02
    8985.687     -8.474  -0.600  6.25781E-02  1.08717E-01 -4.61393E-02
    8985.864     -8.298  -0.560  6.67664E-02  1.19548E-01 -5.27816E-02
    8986.029     -8.133  -0.520  7.13113E-02  1.31615E-01 -6.03034E-02
    8986.181     -7.981  -0.480  7.62032E-02  1.44905E-01 -6.87017E-02
    8986.321     -7.840  -0.440  8.14039E-02  1.59302E-01 -7.78978E-02
    8986.449     -7.712  -0.400  8.68382E-02  1.74555E-01 -8.77164E-02
    8986.565     -7.597  -0.360  9.23907E-02  1.90270E-01 -9.78795E-02
    8986.669     -7.493  -0.320  9.79109E-02  2.05937E-01 -1.08026E-01
    8986.760     -7.402  -0.280  1.03228E-01  2.20988E-01 -1.17760E-01
    8986.839     -7.322  -0.240  1.08170E-01  2.34878E-01 -1.26708E-01
    8986.906     -7.255  -0.200  1.12583E-01  2.47150E-01 -1.34567E-01
    8986.961     -7.200  -0.160  1.16343E-01  2.57472E-01 -1.41129E-01
    8987.004     -7.158  -0.120  1.19356E-01  2.65630E-01 -1.46273E-01
    8987.034     -7.127  -0.080  1.21561E-01  2.71506E-01 -1.49946E-01
    8987.059     -7.103   0.000  1.23378E-01  2.76228E-01 -1.52851E-01
    8987.114     -7.048   0.120  1.27423E-01  2.86867E-01 -1.59444E-01
    8987.156     -7.005   0.160  1.30563E-01  2.95128E-01 -1.64564E-01
    8987.211     -6.950   0.200  1.34639E-01  3.05700E-01 -1.71060E-01
    8987.278     -6.883   0.240  1.39603E-01  3.18377E-01 -1.78774E-01
    8987.357     -6.804   0.280  1.45477E-01  3.32963E-01 -1.87487E-01
    8987.449     -6.713   0.320  1.52154E-01  3.49021E-01 -1.96867E-01
    8987.553     -6.609   0.360  1.59606E-01  3.66148E-01 -2.06542E-01
    8987.668     -6.493   0.400  1.67651E-01  3.83790E-01 -2.16138E-01
    8987.796     -6.365   0.440  1.76169E-01  4.01516E-01 -2.25347E-01
    8987.937     -6.225   0.480  1.85022E-01  4.18980E-01 -2.33958E-01
    8988.089     -6.073   0.520  1.94022E-01  4.35944E-01 -2.41921E-01
    8988.254     -5.908   0.560  2.03047E-01  4.52326E-01 -2.49279E-01
    8988.430     -5.731   0.600  2.11943E-01  4.68082E-01 -2.56139E-01
    8988.619     -5.542   0.640  2.20698E-01  4.83286E-01 -2.62588E-01
    8988.821     -5.341   0.680  2.29428E-01  4.98002E-01 -2.68574E-01
    8989.034     -5.128   0.720  2.38485E-01  5.12331E-01 -2.73846E-01
    8989.259     -4.902   0.760  2.48445E-01  5.26371E-01 -2.77926E-01
    8989.497     -4.664   0.800  2.60112E-01  5.40170E-01 -2.80058E-01
    8989.747     -4.414   0.840  2.74719E-01  5.53828E-01 -2.79109E-01
    8990.009     -4.152   0.880  2.93529E-01  5.67372E-01 -2.73843E-01
    8990.284     -3.878   0.920  3.17076E-01  5.80878E-01 -2.63802E-01
    8990.570     -3.592   0.960  3.44660E-01  5.94350E-01 -2.49689E-01
    8990.869     -3.293   1.000  3.75066E-01  6.07843E-01 -2.32777E-01
    8991.180     -2.982   1.040  4.07267E-01  6.21346E-01 -2.14079E-01
    8991.503     -2.659   1.080  4.40278E-01  6.34858E-01 -1.94580E-01
    8991.838     -2.324   1.120  4.72735E-01  6.48394E-01 -1.75658E-01
    8992.185     -1.976   1.160  5.02950E-01  6.61963E-01 -1.59013E-01
    8992.545     -1.616   1.200  5.28828E-01  6.75531E-01 -1.46703E-01
    8992.917     -1.245   1.240  5.48528E-01  6.89100E-01 -1.40571E-01
    8993.301     -0.861   1.280  5.63396E-01  7.02629E-01 -1.39233E-01
    8993.697     -0.464   1.320  5.79702E-01  7.16134E-01 -1.36432E-01
    8994.106     -0.056   1.360  6.04020E-01  7.29569E-01 -1.25550E-01
    8994.526      0.365   1.400  6.37769E-01  7.42908E-01 -1.05140E-01
    8994.959      0.798   1.440  6.77800E-01  7.56142E-01 -7.83417E-02
    8995.404      1.243   1.480  7.20964E-01  7.69223E-01 -4.82585E-02
    8995.861      1.700   1.520  7.68286E-01  7.82159E-01 -1.38732E-02
    8996.331      2.169   1.560  8.22885E-01  7.94901E-01  2.79849E-02
    8996.812      2.651   1.600  8.82899E-01  8.07417E-01  7.54819E-02
    8997.306      3.145   1.640  9.39054E-01  8.19698E-01  1.19356E-01
    8997.812      3.650   1.680  9.83802E-01  8.31712E-01  1.52090E-01
    8998.330      4.169   1.720  1.02105E+00  8.43431E-01  1.77621E-01
    8998.861      4.699   1.760  1.05713E+00  8.54861E-01  2.02271E-01
    8999.403      5.242   1.800  1.08857E+00  8.65936E-01  2.22632E-01
    8999.958      5.796   1.840  1.10958E+00  8.76665E-01  2.32918E-01
    9000.525      6.363   1.880  1.12223E+00  8.87022E-01  2.35208E-01
    9001.104      6.942   1.920  1.13133E+00  8.96998E-01  2.34327E-01
    9001.695      7.534   1.960  1.14399E+00  9.06567E-01  2.37418E-01
    9002.299      8.137   2.000  1.16572E+00  9.15723E-01  2.50000E-01
    9002.914      8.753   2.040  1.19116E+00  9.24461E-01  2.66703E-01
    9003.542      9.381   2.080  1.21167E+00  9.32759E-01  2.78909E-01
    9004.182     10.021   2.120  1.22450E+00  9.40633E-01  2.83869E-01
    9004.835     10.673   2.160  1.22751E+00  9.48062E-01  2.79447E-01
    9005.499     11.338   2.200  1.21896E+00  9.55023E-01  2.63941E-01
    9006.176     12.014   2.240  1.20247E+00  9.61557E-01  2.40909E-01
    9006.865     12.703   2.280  1.18180E+00  9.67648E-01  2.14155E-01
    9007.566     13.404   2.320  1.15812E+00  9.73293E-01  1.84828E-01
    9008.279     14.117   2.360  1.13553E+00  9.78518E-01  1.57008E-01
    9009.004     14.843   2.400  1.12102E+00  9.83287E-01  1.37730E-01
    9009.742     15.580   2.440  1.11494E+00  9.87661E-01  1.27284E-01
    9010.492     16.330   2.480  1.10943E+00  9.91605E-01  1.17823E-01
    9011.254     17.092   2.520  1.09662E+00  9.95147E-01  1.01473E-01
    9012.028     17.866   2.560  1.07386E+00  9.98314E-01  7.55463E-02
    9012.814     18.653   2.600  1.04333E+00  1.00109E+00  4.22426E-02
    9013.613     19.451   2.640  1.00931E+00  1.00352E+00  5.78991E-03
    9014.424     20.262   2.680  9.76118E-01  1.00560E+00 -2.94804E-02
    9015.247     21.085   2.720  9.46634E-01  1.00733E+00 -6.06926E-02
    9016.082     21.920   2.760  9.21083E-01  1.00876E+00 -8.76726E-02
    9016.929     22.767   2.800  8.98180E-01  1.00989E+00 -1.11713E-01
    9017.789     23.627   2.840  8.78043E-01  1.01073E+00 -1.32684E-01
    9018.660     24.499   2.880  8.63439E-01  1.01131E+00 -1.47868E-01
    9019.544     25.383   2.920  8.57268E-01  1.01164E+00 -1.54372E-01
    9020.440     26.279   2.960  8.59636E-01  1.01174E+00 -1.52101E-01
    9021.349     27.187   3.000  8.69253E-01  1.01162E+00 -1.42370E-01
    9022.269     28.108   3.040  8.79055E-01  1.01131E+00 -1.32254E-01
    9023.202     29.040   3.080  8.85310E-01  1.01080E+00 -1.25493E-01
    9024.147     29.985   3.120  8.89336E-01  1.01015E+00 -1.20817E-01
    9025.104     30.942   3.160  8.92144E-01  1.00933E+00 -1.17181E-01
    9026.073     31.911   3.200  8.94470E-01  1.00839E+00 -1.13920E-01
    9027.054     32.893   3.240  8.96921E-01  1.00731E+00 -1.10394E-01
    9028.048     33.887   3.280  9.00121E-01  1.00614E+00 -1.06024E-01
    9029.054     34.892   3.320  9.04454E-01  1.00489E+00 -1.00436E-01
    9030.072     35.910   3.360  9.10281E-01  1.00355E+00 -9.32739E-02
    9031.102     36.941   3.400  9.17932E-01  1.00214E+00 -8.42123E-02
    9032.145     37.983   3.440  9.27359E-01  1.00069E+00 -7.33290E-02
    9033.199     39.038   3.480  9.38431E-01  9.99191E-01 -6.07600E-02
    9034.266     40.104   3.520  9.50985E-01  9.97679E-01 -4.66947E-02
    9035.345     41.183   3.560  9.64557E-01  9.96137E-01 -3.15799E-02
    9036.436     42.275   3.600  9.78356E-01  9.94568E-01 -1.62119E-02
    9037.540     43.378   3.640  9.91643E-01  9.93021E-01 -1.37777E-03
    9038.655     44.494   3.680  1.00370E+00  9.91500E-01  1.22026E-02
    9039.783     45.621   3.720  1.01400E+00  9.89988E-01  2.40106E-02
    9040.923     46.761   3.760  1.02234E+00  9.88487E-01  3.38523E-02
    9042.075     47.913   3.800  1.02883E+00  9.87042E-01  4.17888E-02
    9043.239     49.078   3.840  1.03355E+00  9.85615E-01  4.79363E-02
    9044.416     50.254   3.880  1.03681E+00  9.84251E-01  5.25583E-02
    9045.605     51.443   3.920  1.03880E+00  9.82933E-01  5.58693E-02
    9046.805     52.644   3.960  1.03964E+00  9.81660E-01  5.79835E-02
    9048.019     53.857   4.000  1.03943E+00  9.80458E-01  5.89689E-02
    9049.244     55.082   4.040  1.03827E+00  9.79328E-01  5.89377E-02
    9050.481     56.320   4.080  1.03628E+00  9.78250E-01  5.80348E-02
    9051.731     57.569   4.120  1.03367E+00  9.77247E-01  5.64257E-02
    9052.993     58.831   4.160  1.03070E+00  9.76320E-01  5.43786E-02
    9054.267     60.105   4.200  1.02756E+00  9.75471E-01  5.20932E-02
    9055.553     61.392   4.240  1.02440E+00  9.74703E-01  4.97013E-02
    9056.852     62.690   4.280  1.02130E+00  9.74011E-01  4.72932E-02
    9058.162     64.001   4.320  1.01832E+00  9.73399E-01  4.49212E-02
    9059.485     65.323   4.360  1.01545E+00  9.72867E-01  4.25808E-02
    9060.820     66.658   4.400  1.01265E+00  9.72413E-01  4.02345E-02
    9062.167     68.006   4.440  1.00992E+00  9.72037E-01  3.78826E-02
    9063.527     69.365   4.480  1.00721E+00  9.71741E-01  3.54676E-02
    9064.898     70.737   4.520  1.00445E+00  9.71520E-01  3.29281E-02
    9066.282     72.120   4.560  1.00156E+00  9.71355E-01  3.02072E-02
    9067.678     73.516   4.600  9.98519E-01  9.71288E-01  2.72315E-02
    9069.086     74.925   4.640  9.95182E-01  9.71275E-01  2.39065E-02
    9070.507     76.345   4.680  9.91472E-01  9.71337E-01  2.01351E-02
    9071.939     77.778   4.720  9.87295E-01  9.71473E-01  1.58215E-02
    9073.384     79.222   4.760  9.82610E-01  9.71680E-01  1.09298E-02
    9074.841     80.679   4.800  9.77428E-01  9.71915E-01  5.51332E-03
    9076.310     82.148   4.840  9.71925E-01  9.72238E-01 -3.12465E-04
    9077.791     83.630   4.880  9.66212E-01  9.72586E-01 -6.37391E-03
    9079.285     85.123   4.920  9.60530E-01  9.72998E-01 -1.24680E-02
    9080.790     86.629   4.960  9.55083E-01  9.73453E-01 -1.83701E-02
    9082.308     88.147   5.000  9.50111E-01  9.73948E-01 -2.38372E-02
    9083.838     89.677   5.040  9.45832E-01  9.74483E-01 -2.86510E-02
    9085.381     91.219   5.080  9.42430E-01  9.75054E-01 -3.26243E-02
    9086.935     92.774   5.120  9.40038E-01  9.75658E-01 -3.56201E-02
    9088.502     94.340   5.160  9.38709E-01  9.76272E-01 -3.75622E-02
    9090.081     95.919   5.200  9.38488E-01  9.76893E-01 -3.84052E-02
    9091.672     97.510   5.240  9.39343E-01  9.77541E-01 -3.81981E-02
    9093.275     99.113   5.280  9.41094E-01  9.78195E-01 -3.71018E-02
    9094.890    100.729   5.320  9.43454E-01  9.78873E-01 -3.54183E-02
    9096.518    102.357   5.360  9.46043E-01  9.79527E-01 -3.34840E-02
    9098.158    103.996   5.400  9.48606E-01  9.80177E-01 -3.15713E-02
    9099.810    105.648   5.440  9.51038E-01  9.80822E-01 -2.97843E-02
    9101.474    107.313   5.480  9.53382E-01  9.81437E-01 -2.80555E-02
    9103.151    108.989   5.520  9.55822E-01  9.82042E-01 -2.62201E-02
    9104.839    110.678   5.560  9.58468E-01  9.82617E-01 -2.41490E-02
    9106.540    112.378   5.600  9.61391E-01  9.83178E-01 -2.17874E-02
    9108.253    114.091   5.640  9.64571E-01  9.83704E-01 -1.91334E-02
    9109.978    115.816   5.680  9.68015E-01  9.84193E-01 -1.61775E-02
    9111.715    117.554   5.720  9.71735E-01  9.84641E-01 -1.29060E-02
    9113.465    119.303   5.760  9.75705E-01  9.85048E-01 -9.34286E-03
    9115.227    121.065   5.800  9.79775E-01  9.85413E-01 -5.63817E-03
    9117.001    122.839   5.840  9.83644E-01  9.85735E-01 -2.09076E-03
    9118.787    124.625   5.880  9.86907E-01  9.85990E-01  9.17349E-04
    9120.585    126.423   5.920  9.89276E-01  9.86220E-01  3.05622E-03
    9122.396    128.234   5.960  9.90557E-01  9.86371E-01  4.18538E-03
    9124.218    130.057   6.000  9.90872E-01  9.86416E-01  4.45611E-03
