# # comment:                                                     FEFF 9.9.1  
# # Source:
# # Structure
# # Reduced
# # space
# # abc:
# # angles:
# # sites:
# # POT  SCF 100  7.0000   0, screened core-hole, AFOLP (folp(0)= 1.150)
# # Abs   Z=29 Rmt= 1.280 Rnm= 1.332 K  shell
# # Pot 1 Z=22 Rmt= 1.507 Rnm= 1.571
# # Pot 2 Z=29 Rmt= 1.280 Rnm= 1.332
# # Pot 3 Z= 8 Rmt= 0.977 Rnm= 1.049
# # Gam_ch=1.729E+00 H-L exch Vi= 0.000E+00 Vr= 0.000E+00
# # Mu=-1.387E+01eV kf=2.034E+00 Vint=-2.309E+01eV Rs_int= 1.783
# FMS rfms= 9.0000
# # PATH  Rmax=-1.000,  Keep_limit= 0.00, Heap_limit 0.00  Pwcrit= 2.50%
#  S02=0.950  Temp=   0.00  Debye_temp=   0.00  Global_sig2= 0.00000
#  Energy zero shift, vr, vi    0.00000E+00   0.00000E+00
#  Curved wave amplitude ratio filter   4.000%
#     file         sig2 tot  cw amp ratio   deg  nlegs   reff  inp sig2
#     0/   0 paths used
#  xsedge+ 50, used to normalize mu           2.4567E-04
#  -----------------------------------------------------------------------
#  omega    e    k    mu    mu0     chi     @#
    8988.732    -17.684  -1.000  4.58957E-02  5.52779E-02 -9.38224E-03
    8989.031    -17.386  -0.960  4.89590E-02  5.93550E-02 -1.03961E-02
    8989.317    -17.099  -0.920  5.23515E-02  6.38911E-02 -1.15397E-02
    8989.591    -16.825  -0.880  5.61220E-02  6.89542E-02 -1.28322E-02
    8989.854    -16.563  -0.840  6.03275E-02  7.46235E-02 -1.42960E-02
    8990.103    -16.313  -0.800  6.50337E-02  8.09909E-02 -1.59572E-02
    8990.341    -16.075  -0.760  7.03166E-02  8.81620E-02 -1.78454E-02
    8990.567    -15.849  -0.720  7.62614E-02  9.62559E-02 -1.99944E-02
    8990.780    -15.636  -0.680  8.29626E-02  1.05404E-01 -2.24414E-02
    8990.981    -15.435  -0.640  9.05195E-02  1.15745E-01 -2.52257E-02
    8991.170    -15.246  -0.600  9.90302E-02  1.27416E-01 -2.83858E-02
    8991.347    -15.069  -0.560  1.08579E-01  1.40533E-01 -3.19535E-02
    8991.512    -14.905  -0.520  1.19220E-01  1.55166E-01 -3.59460E-02
    8991.664    -14.752  -0.480  1.30946E-01  1.71300E-01 -4.03532E-02
    8991.804    -14.612  -0.440  1.43668E-01  1.88793E-01 -4.51245E-02
    8991.932    -14.484  -0.400  1.57181E-01  2.07340E-01 -5.01584E-02
    8992.048    -14.368  -0.360  1.71158E-01  2.26459E-01 -5.53008E-02
    8992.152    -14.264  -0.320  1.85167E-01  2.45527E-01 -6.03598E-02
    8992.243    -14.173  -0.280  1.98715E-01  2.63848E-01 -6.51335E-02
    8992.322    -14.094  -0.240  2.11314E-01  2.80757E-01 -6.94432E-02
    8992.389    -14.027  -0.200  2.22539E-01  2.95697E-01 -7.31579E-02
    8992.444    -13.972  -0.160  2.32059E-01  3.08260E-01 -7.62018E-02
    8992.487    -13.929  -0.120  2.39644E-01  3.18189E-01 -7.85442E-02
    8992.517    -13.899  -0.080  2.45160E-01  3.25339E-01 -8.01786E-02
    8992.542    -13.874   0.000  2.49692E-01  3.31081E-01 -8.13889E-02
    8992.597    -13.819   0.120  2.60121E-01  3.44042E-01 -8.39213E-02
    8992.639    -13.777   0.160  2.68076E-01  3.54087E-01 -8.60115E-02
    8992.694    -13.722   0.200  2.78249E-01  3.66925E-01 -8.86759E-02
    8992.761    -13.655   0.240  2.90501E-01  3.82356E-01 -9.18552E-02
    8992.841    -13.576   0.280  3.04589E-01  4.00045E-01 -9.54556E-02
    8992.932    -13.484   0.320  3.20169E-01  4.19548E-01 -9.93793E-02
    8993.036    -13.381   0.360  3.36731E-01  4.40275E-01 -1.03544E-01
    8993.151    -13.265   0.400  3.53660E-01  4.61617E-01 -1.07957E-01
    8993.279    -13.137   0.440  3.70158E-01  4.82978E-01 -1.12820E-01
    8993.420    -12.996   0.480  3.85405E-01  5.03970E-01 -1.18565E-01
    8993.572    -12.844   0.520  3.98392E-01  5.24259E-01 -1.25867E-01
    8993.737    -12.679   0.560  4.08256E-01  5.43737E-01 -1.35481E-01
    8993.913    -12.503   0.600  4.14396E-01  5.62370E-01 -1.47974E-01
    8994.102    -12.314   0.640  4.16550E-01  5.80198E-01 -1.63648E-01
    8994.304    -12.113   0.680  4.14717E-01  5.97299E-01 -1.82582E-01
    8994.517    -11.899   0.720  4.09324E-01  6.13769E-01 -2.04444E-01
    8994.743    -11.674   0.760  4.02126E-01  6.29719E-01 -2.27593E-01
    8994.980    -11.436   0.800  3.96870E-01  6.45231E-01 -2.48361E-01
    8995.230    -11.186   0.840  3.98476E-01  6.60352E-01 -2.61877E-01
    8995.492    -10.924   0.880  4.10930E-01  6.75140E-01 -2.64210E-01
    8995.767    -10.650   0.920  4.35701E-01  6.89674E-01 -2.53974E-01
    8996.053    -10.363   0.960  4.71335E-01  7.03944E-01 -2.32608E-01
    8996.352    -10.064   1.000  5.14272E-01  7.17964E-01 -2.03693E-01
    8996.663     -9.753   1.040  5.59164E-01  7.31764E-01 -1.72599E-01
    8996.986     -9.430   1.080  5.98341E-01  7.45322E-01 -1.46981E-01
    8997.321     -9.095   1.120  6.22621E-01  7.58655E-01 -1.36034E-01
    8997.669     -8.748   1.160  6.25136E-01  7.71730E-01 -1.46594E-01
    8998.028     -8.388   1.200  6.06432E-01  7.84531E-01 -1.78099E-01
    8998.400     -8.016   1.240  5.77091E-01  7.97041E-01 -2.19950E-01
    8998.784     -7.632   1.280  5.53286E-01  8.09259E-01 -2.55973E-01
    8999.180     -7.236   1.320  5.47372E-01  8.21163E-01 -2.73791E-01
    8999.589     -6.827   1.360  5.63812E-01  8.32708E-01 -2.68896E-01
    9000.009     -6.407   1.400  6.01038E-01  8.43914E-01 -2.42876E-01
    9000.442     -5.974   1.440  6.54728E-01  8.54734E-01 -2.00007E-01
    9000.887     -5.529   1.480  7.22142E-01  8.65165E-01 -1.43023E-01
    9001.344     -5.072   1.520  8.01099E-01  8.75182E-01 -7.40833E-02
    9001.814     -4.602   1.560  8.82055E-01  8.84783E-01 -2.72865E-03
    9002.295     -4.121   1.600  9.49583E-01  8.93967E-01  5.56166E-02
    9002.789     -3.627   1.640  9.96647E-01  9.02689E-01  9.39581E-02
    9003.295     -3.121   1.680  1.02885E+00  9.10992E-01  1.17857E-01
    9003.813     -2.603   1.720  1.05091E+00  9.18855E-01  1.32057E-01
    9004.344     -2.072   1.760  1.05871E+00  9.26258E-01  1.32448E-01
    9004.886     -1.530   1.800  1.05244E+00  9.33226E-01  1.19213E-01
    9005.441     -0.975   1.840  1.04938E+00  9.39761E-01  1.09620E-01
    9006.008     -0.408   1.880  1.06867E+00  9.45868E-01  1.22800E-01
    9006.587      0.171   1.920  1.11594E+00  9.51550E-01  1.64385E-01
    9007.178      0.762   1.960  1.18194E+00  9.56813E-01  2.25130E-01
    9007.782      1.366   2.000  1.24038E+00  9.61664E-01  2.78717E-01
    9008.398      1.981   2.040  1.25479E+00  9.66129E-01  2.88660E-01
    9009.025      2.609   2.080  1.20738E+00  9.70217E-01  2.37168E-01
    9009.665      3.249   2.120  1.12256E+00  9.73958E-01  1.48601E-01
    9010.318      3.902   2.160  1.03919E+00  9.77338E-01  6.18527E-02
    9010.982      4.566   2.200  9.72899E-01  9.80405E-01 -7.50620E-03
    9011.659      5.243   2.240  9.19934E-01  9.83148E-01 -6.32142E-02
    9012.348      5.932   2.280  8.85552E-01  9.85597E-01 -1.00045E-01
    9013.049      6.633   2.320  8.69422E-01  9.87762E-01 -1.18340E-01
    9013.762      7.346   2.360  8.60797E-01  9.89670E-01 -1.28872E-01
    9014.487      8.071   2.400  8.53382E-01  9.91350E-01 -1.37968E-01
    9015.225      8.809   2.440  8.50441E-01  9.92771E-01 -1.42330E-01
    9015.975      9.559   2.480  8.57652E-01  9.94004E-01 -1.36352E-01
    9016.737     10.321   2.520  8.69766E-01  9.95034E-01 -1.25268E-01
    9017.511     11.095   2.560  8.84964E-01  9.95892E-01 -1.10929E-01
    9018.297     11.881   2.600  9.02932E-01  9.96586E-01 -9.36547E-02
    9019.096     12.680   2.640  9.23493E-01  9.97143E-01 -7.36499E-02
    9019.907     13.491   2.680  9.46164E-01  9.97549E-01 -5.13847E-02
    9020.730     14.313   2.720  9.70024E-01  9.97832E-01 -2.78084E-02
    9021.565     15.149   2.760  9.93854E-01  9.98020E-01 -4.16605E-03
    9022.412     15.996   2.800  1.01627E+00  9.98121E-01  1.81468E-02
    9023.272     16.856   2.840  1.03603E+00  9.98139E-01  3.78928E-02
    9024.143     17.727   2.880  1.05221E+00  9.98100E-01  5.41091E-02
    9025.027     18.611   2.920  1.06437E+00  9.97969E-01  6.63980E-02
    9025.923     19.507   2.960  1.07312E+00  9.97814E-01  7.53043E-02
    9026.832     20.416   3.000  1.07887E+00  9.97617E-01  8.12572E-02
    9027.752     21.336   3.040  1.08164E+00  9.97403E-01  8.42329E-02
    9028.685     22.269   3.080  1.08103E+00  9.97137E-01  8.38970E-02
    9029.630     23.214   3.120  1.07701E+00  9.96882E-01  8.01330E-02
    9030.587     24.171   3.160  1.06993E+00  9.96602E-01  7.33277E-02
    9031.556     25.140   3.200  1.06052E+00  9.96342E-01  6.41765E-02
    9032.538     26.121   3.240  1.04965E+00  9.96061E-01  5.35846E-02
    9033.531     27.115   3.280  1.03843E+00  9.95805E-01  4.26247E-02
    9034.537     28.121   3.320  1.02796E+00  9.95576E-01  3.23869E-02
    9035.555     29.139   3.360  1.01881E+00  9.95334E-01  2.34725E-02
    9036.585     30.169   3.400  1.01104E+00  9.95144E-01  1.58979E-02
    9037.628     31.212   3.440  1.00416E+00  9.94964E-01  9.19868E-03
    9038.682     32.266   3.480  9.97694E-01  9.94796E-01  2.89814E-03
    9039.749     33.333   3.520  9.91407E-01  9.94683E-01 -3.27578E-03
    9040.828     34.412   3.560  9.85228E-01  9.94588E-01 -9.35972E-03
    9041.919     35.503   3.600  9.79160E-01  9.94549E-01 -1.53891E-02
    9043.023     36.606   3.640  9.73168E-01  9.94525E-01 -2.13569E-02
    9044.138     37.722   3.680  9.67644E-01  9.94537E-01 -2.68932E-02
    9045.266     38.850   3.720  9.63510E-01  9.94586E-01 -3.10761E-02
    9046.406     39.990   3.760  9.61658E-01  9.94652E-01 -3.29937E-02
    9047.558     41.142   3.800  9.62230E-01  9.94774E-01 -3.25440E-02
    9048.722     42.306   3.840  9.64017E-01  9.94912E-01 -3.08952E-02
    9049.899     43.483   3.880  9.65038E-01  9.95108E-01 -3.00702E-02
    9051.088     44.671   3.920  9.63480E-01  9.95320E-01 -3.18403E-02
    9052.289     45.872   3.960  9.58907E-01  9.95567E-01 -3.66601E-02
    9053.502     47.085   4.000  9.52476E-01  9.95847E-01 -4.33713E-02
    9054.727     48.311   4.040  9.46337E-01  9.96139E-01 -4.98025E-02
    9055.964     49.548   4.080  9.42681E-01  9.96463E-01 -5.37824E-02
    9057.214     50.798   4.120  9.42868E-01  9.96820E-01 -5.39514E-02
    9058.476     52.060   4.160  9.47305E-01  9.97184E-01 -4.98786E-02
    9059.750     53.334   4.200  9.55624E-01  9.97556E-01 -4.19316E-02
    9061.036     54.620   4.240  9.66887E-01  9.97957E-01 -3.10696E-02
    9062.335     55.919   4.280  9.79741E-01  9.98384E-01 -1.86437E-02
    9063.645     57.229   4.320  9.92472E-01  9.98796E-01 -6.32315E-03
    9064.968     58.552   4.360  1.00353E+00  9.99232E-01  4.29769E-03
    9066.303     59.887   4.400  1.01183E+00  9.99670E-01  1.21631E-02
    9067.650     61.234   4.440  1.01698E+00  1.00011E+00  1.68693E-02
    9069.010     62.594   4.480  1.01915E+00  1.00057E+00  1.85839E-02
    9070.381     63.965   4.520  1.01906E+00  1.00101E+00  1.80522E-02
    9071.765     65.349   4.560  1.01805E+00  1.00144E+00  1.66096E-02
    9073.161     66.745   4.600  1.01779E+00  1.00184E+00  1.59431E-02
    9074.569     68.153   4.640  1.01981E+00  1.00226E+00  1.75440E-02
    9075.990     69.573   4.680  1.02481E+00  1.00266E+00  2.21486E-02
    9077.422     71.006   4.720  1.03235E+00  1.00304E+00  2.93072E-02
    9078.867     72.451   4.760  1.04059E+00  1.00340E+00  3.71941E-02
    9080.324     73.908   4.800  1.04704E+00  1.00374E+00  4.33006E-02
    9081.793     75.377   4.840  1.04963E+00  1.00407E+00  4.55572E-02
    9083.274     76.858   4.880  1.04748E+00  1.00435E+00  4.31347E-02
    9084.768     78.352   4.920  1.04122E+00  1.00461E+00  3.66087E-02
    9086.274     79.857   4.960  1.03243E+00  1.00486E+00  2.75639E-02
    9087.791     81.375   5.000  1.02286E+00  1.00505E+00  1.78029E-02
    9089.322     82.905   5.040  1.01382E+00  1.00523E+00  8.58821E-03
    9090.864     84.448   5.080  1.00599E+00  1.00539E+00  5.99858E-04
    9092.418     86.002   5.120  1.00000E+00  1.00549E+00 -5.49318E-03
    9093.985     87.569   5.160  9.96934E-01  1.00556E+00 -8.62393E-03
    9095.564     89.148   5.200  9.97975E-01  1.00560E+00 -7.62996E-03
    9097.155     90.739   5.240  1.00358E+00  1.00561E+00 -2.03903E-03
    9098.758     92.342   5.280  1.01295E+00  1.00558E+00  7.36674E-03
    9100.374     93.957   5.320  1.02398E+00  1.00552E+00  1.84640E-02
    9102.001     95.585   5.360  1.03342E+00  1.00541E+00  2.80119E-02
    9103.641     97.225   5.400  1.03763E+00  1.00528E+00  3.23418E-02
    9105.293     98.877   5.440  1.03387E+00  1.00510E+00  2.87673E-02
    9106.957    100.541   5.480  1.02162E+00  1.00490E+00  1.67153E-02
    9108.634    102.217   5.520  1.00216E+00  1.00466E+00 -2.50032E-03
    9110.322    103.906   5.560  9.78008E-01  1.00439E+00 -2.63829E-02
    9112.023    105.607   5.600  9.52622E-01  1.00410E+00 -5.14803E-02
    9113.736    107.320   5.640  9.29948E-01  1.00375E+00 -7.38073E-02
    9115.461    109.045   5.680  9.13615E-01  1.00339E+00 -8.97791E-02
    9117.198    110.782   5.720  9.05697E-01  1.00300E+00 -9.73032E-02
    9118.948    112.532   5.760  9.06350E-01  1.00260E+00 -9.62465E-02
    9120.710    114.294   5.800  9.14461E-01  1.00216E+00 -8.76978E-02
    9122.484    116.067   5.840  9.28757E-01  1.00169E+00 -7.29332E-02
    9124.270    117.854   5.880  9.48355E-01  1.00122E+00 -5.28609E-02
    9126.068    119.652   5.920  9.72770E-01  1.00072E+00 -2.79469E-02
    9127.879    121.462   5.960  1.00095E+00  1.00022E+00  7.31345E-04
    9129.701    123.285   6.000  1.02973E+00  9.99678E-01  3.00479E-02
