# # comment:                                                     FEFF 9.9.1  
# # Source:
# # Structure
# # Reduced
# # space
# # abc:
# # angles:
# # sites:
# # POT  SCF 100  7.0000   0, screened core-hole, AFOLP (folp(0)= 1.150)
# # Abs   Z=29 Rmt= 1.227 Rnm= 1.407 K  shell
# # Pot 1 Z=29 Rmt= 1.292 Rnm= 1.361
# # Pot 2 Z=83 Rmt= 1.668 Rnm= 1.738
# # Pot 3 Z=51 Rmt= 1.302 Rnm= 1.466
# # Pot 4 Z= 8 Rmt= 1.054 Rnm= 1.133
# # Gam_ch=1.729E+00 H-L exch Vi= 0.000E+00 Vr= 0.000E+00
# # Mu=-5.190E+00eV kf=2.083E+00 Vint=-1.445E+01eV Rs_int= 1.741
# FMS rfms= 9.0000
# # PATH  Rmax=-1.000,  Keep_limit= 0.00, Heap_limit 0.00  Pwcrit= 2.50%
#  S02=0.950  Temp=   0.00  Debye_temp=   0.00  Global_sig2= 0.00000
#  Energy zero shift, vr, vi    0.00000E+00   0.00000E+00
#  Curved wave amplitude ratio filter   4.000%
#     file         sig2 tot  cw amp ratio   deg  nlegs   reff  inp sig2
#     0/   0 paths used
#  xsedge+ 50, used to normalize mu           2.4461E-04
#  -----------------------------------------------------------------------
#  omega    e    k    mu    mu0     chi     @#
    8983.260     -9.000  -1.000  5.36462E-02  5.94710E-02 -5.82480E-03
    8983.558     -8.701  -0.960  5.70204E-02  6.39320E-02 -6.91164E-03
    8983.845     -8.415  -0.920  6.06772E-02  6.88996E-02 -8.22244E-03
    8984.119     -8.140  -0.880  6.46454E-02  7.44492E-02 -9.80383E-03
    8984.381     -7.878  -0.840  6.89568E-02  8.06685E-02 -1.17117E-02
    8984.631     -7.628  -0.800  7.36469E-02  8.76594E-02 -1.40125E-02
    8984.869     -7.391  -0.760  7.87543E-02  9.55388E-02 -1.67845E-02
    8985.095     -7.165  -0.720  8.43206E-02  1.04439E-01 -2.01182E-02
    8985.308     -6.952  -0.680  9.03895E-02  1.14505E-01 -2.41157E-02
    8985.509     -6.751  -0.640  9.70043E-02  1.25892E-01 -2.88876E-02
    8985.698     -6.562  -0.600  1.04204E-01  1.38750E-01 -3.45463E-02
    8985.875     -6.385  -0.560  1.12017E-01  1.53210E-01 -4.11933E-02
    8986.039     -6.220  -0.520  1.20449E-01  1.69348E-01 -4.88993E-02
    8986.192     -6.068  -0.480  1.29474E-01  1.87150E-01 -5.76762E-02
    8986.332     -5.928  -0.440  1.39012E-01  2.06457E-01 -6.74452E-02
    8986.460     -5.800  -0.400  1.48924E-01  2.26933E-01 -7.80092E-02
    8986.576     -5.684  -0.360  1.59000E-01  2.48045E-01 -8.90454E-02
    8986.680     -5.580  -0.320  1.68972E-01  2.69102E-01 -1.00130E-01
    8986.771     -5.489  -0.280  1.78541E-01  2.89336E-01 -1.10795E-01
    8986.850     -5.409  -0.240  1.87407E-01  3.08010E-01 -1.20602E-01
    8986.917     -5.342  -0.200  1.95305E-01  3.24508E-01 -1.29203E-01
    8986.972     -5.288  -0.160  2.02020E-01  3.38381E-01 -1.36361E-01
    8987.015     -5.245  -0.120  2.07392E-01  3.49343E-01 -1.41951E-01
    8987.045     -5.214  -0.080  2.11313E-01  3.57238E-01 -1.45925E-01
    8987.070     -5.190   0.000  2.14528E-01  3.63578E-01 -1.49051E-01
    8987.125     -5.135   0.120  2.21702E-01  3.77875E-01 -1.56174E-01
    8987.167     -5.092   0.160  2.27302E-01  3.88978E-01 -1.61676E-01
    8987.222     -5.038   0.200  2.34551E-01  4.03136E-01 -1.68585E-01
    8987.289     -4.971   0.240  2.43453E-01  4.20148E-01 -1.76695E-01
    8987.368     -4.891   0.280  2.54001E-01  4.39660E-01 -1.85660E-01
    8987.460     -4.800   0.320  2.66118E-01  4.61141E-01 -1.95022E-01
    8987.563     -4.696   0.360  2.79717E-01  4.83973E-01 -2.04257E-01
    8987.679     -4.580   0.400  2.94614E-01  5.07419E-01 -2.12805E-01
    8987.807     -4.452   0.440  3.10772E-01  5.30904E-01 -2.20131E-01
    8987.947     -4.312   0.480  3.28230E-01  5.53907E-01 -2.25676E-01
    8988.100     -4.160   0.520  3.47263E-01  5.76103E-01 -2.28840E-01
    8988.264     -3.995   0.560  3.68446E-01  5.97351E-01 -2.28905E-01
    8988.441     -3.818   0.600  3.92488E-01  6.17633E-01 -2.25145E-01
    8988.630     -3.629   0.640  4.20166E-01  6.36954E-01 -2.16788E-01
    8988.831     -3.428   0.680  4.52821E-01  6.55422E-01 -2.02601E-01
    8989.045     -3.215   0.720  4.93009E-01  6.73162E-01 -1.80153E-01
    8989.270     -2.989   0.760  5.44828E-01  6.90257E-01 -1.45429E-01
    8989.508     -2.752   0.800  6.13619E-01  7.06798E-01 -9.31787E-02
    8989.758     -2.502   0.840  7.04513E-01  7.22844E-01 -1.83307E-02
    8990.020     -2.240   0.880  8.19291E-01  7.38496E-01  8.07949E-02
    8990.294     -1.965   0.920  9.50647E-01  7.53759E-01  1.96887E-01
    8990.581     -1.679   0.960  1.07596E+00  7.68667E-01  3.07294E-01
    8990.880     -1.380   1.000  1.15978E+00  7.83239E-01  3.76538E-01
    8991.191     -1.069   1.040  1.18242E+00  7.97485E-01  3.84934E-01
    8991.514     -0.746   1.080  1.17250E+00  8.11409E-01  3.61088E-01
    8991.849     -0.411   1.120  1.18453E+00  8.25005E-01  3.59527E-01
    8992.196     -0.063   1.160  1.24541E+00  8.38241E-01  4.07174E-01
    8992.556      0.296   1.200  1.33601E+00  8.51104E-01  4.84903E-01
    8992.928      0.668   1.240  1.41216E+00  8.63576E-01  5.48589E-01
    8993.312      1.052   1.280  1.41629E+00  8.75657E-01  5.40633E-01
    8993.708      1.449   1.320  1.30316E+00  8.87326E-01  4.15836E-01
    8994.117      1.857   1.360  1.11489E+00  8.98539E-01  2.16347E-01
    8994.537      2.278   1.400  9.44227E-01  9.09274E-01  3.49531E-02
    8994.970      2.710   1.440  8.35104E-01  9.19549E-01 -8.44445E-02
    8995.415      3.155   1.480  7.78131E-01  9.29341E-01 -1.51210E-01
    8995.872      3.613   1.520  7.46798E-01  9.38628E-01 -1.91830E-01
    8996.342      4.082   1.560  7.24954E-01  9.47409E-01 -2.22455E-01
    8996.823      4.564   1.600  7.11155E-01  9.55663E-01 -2.44508E-01
    8997.317      5.057   1.640  7.03581E-01  9.63413E-01 -2.59832E-01
    8997.823      5.563   1.680  7.06602E-01  9.70640E-01 -2.64038E-01
    8998.341      6.081   1.720  7.31275E-01  9.77345E-01 -2.46070E-01
    8998.871      6.612   1.760  7.82915E-01  9.83534E-01 -2.00619E-01
    8999.414      7.154   1.800  8.63832E-01  9.89212E-01 -1.25380E-01
    8999.969      7.709   1.840  9.59326E-01  9.94406E-01 -3.50806E-02
    9000.536      8.276   1.880  1.02537E+00  9.99124E-01  2.62495E-02
    9001.115      8.855   1.920  1.02933E+00  1.00337E+00  2.59618E-02
    9001.706      9.446   1.960  1.00107E+00  1.00716E+00 -6.09044E-03
    9002.310     10.050   2.000  9.91816E-01  1.01049E+00 -1.86778E-02
    9002.925     10.666   2.040  1.01225E+00  1.01343E+00 -1.18230E-03
    9003.553     11.294   2.080  1.04280E+00  1.01597E+00  2.68269E-02
    9004.193     11.934   2.120  1.07037E+00  1.01812E+00  5.22541E-02
    9004.846     12.586   2.160  1.09662E+00  1.01991E+00  7.67014E-02
    9005.510     13.250   2.200  1.13380E+00  1.02137E+00  1.12432E-01
    9006.187     13.927   2.240  1.17880E+00  1.02250E+00  1.56300E-01
    9006.875     14.616   2.280  1.19816E+00  1.02336E+00  1.74801E-01
    9007.577     15.317   2.320  1.16314E+00  1.02391E+00  1.39229E-01
    9008.290     16.030   2.360  1.08902E+00  1.02423E+00  6.47872E-02
    9009.015     16.756   2.400  1.01637E+00  1.02433E+00 -7.96052E-03
    9009.753     17.493   2.440  9.80239E-01  1.02420E+00 -4.39596E-02
    9010.503     18.243   2.480  9.92930E-01  1.02389E+00 -3.09557E-02
    9011.265     19.005   2.520  1.03781E+00  1.02340E+00  1.44109E-02
    9012.039     19.779   2.560  1.09120E+00  1.02276E+00  6.84458E-02
    9012.825     20.565   2.600  1.14583E+00  1.02198E+00  1.23858E-01
    9013.624     21.364   2.640  1.18952E+00  1.02107E+00  1.68450E-01
    9014.434     22.175   2.680  1.21357E+00  1.02006E+00  1.93515E-01
    9015.257     22.998   2.720  1.21661E+00  1.01897E+00  1.97638E-01
    9016.093     23.833   2.760  1.20412E+00  1.01781E+00  1.86313E-01
    9016.940     24.680   2.800  1.18235E+00  1.01657E+00  1.65773E-01
    9017.799     25.540   2.840  1.15445E+00  1.01532E+00  1.39131E-01
    9018.671     26.412   2.880  1.12068E+00  1.01402E+00  1.06662E-01
    9019.555     27.295   2.920  1.08105E+00  1.01269E+00  6.83627E-02
    9020.451     28.192   2.960  1.03839E+00  1.01138E+00  2.70177E-02
    9021.360     29.100   3.000  9.97640E-01  1.01004E+00 -1.23996E-02
    9022.280     30.020   3.040  9.63725E-01  1.00873E+00 -4.50007E-02
    9023.213     30.953   3.080  9.39146E-01  1.00742E+00 -6.82733E-02
    9024.158     31.898   3.120  9.23068E-01  1.00612E+00 -8.30541E-02
    9025.115     32.855   3.160  9.12441E-01  1.00488E+00 -9.24416E-02
    9026.084     33.824   3.200  9.03383E-01  1.00368E+00 -1.00301E-01
    9027.065     34.806   3.240  8.92656E-01  1.00253E+00 -1.09870E-01
    9028.059     35.799   3.280  8.79268E-01  1.00141E+00 -1.22143E-01
    9029.065     36.805   3.320  8.64651E-01  1.00034E+00 -1.35691E-01
    9030.083     37.823   3.360  8.51851E-01  9.99344E-01 -1.47493E-01
    9031.113     38.853   3.400  8.43446E-01  9.98418E-01 -1.54972E-01
    9032.155     39.896   3.440  8.40547E-01  9.97543E-01 -1.56996E-01
    9033.210     40.950   3.480  8.43224E-01  9.96741E-01 -1.53517E-01
    9034.277     42.017   3.520  8.50986E-01  9.95994E-01 -1.45008E-01
    9035.356     43.096   3.560  8.62998E-01  9.95343E-01 -1.32345E-01
    9036.447     44.187   3.600  8.78414E-01  9.94749E-01 -1.16335E-01
    9037.550     45.291   3.640  8.96390E-01  9.94232E-01 -9.78413E-02
    9038.666     46.406   3.680  9.15893E-01  9.93791E-01 -7.78975E-02
    9039.794     47.534   3.720  9.35910E-01  9.93428E-01 -5.75174E-02
    9040.934     48.674   3.760  9.55895E-01  9.93120E-01 -3.72245E-02
    9042.086     49.826   3.800  9.75852E-01  9.92910E-01 -1.70583E-02
    9043.250     50.991   3.840  9.95818E-01  9.92756E-01  3.06187E-03
    9044.427     52.167   3.880  1.01552E+00  9.92678E-01  2.28446E-02
    9045.615     53.356   3.920  1.03402E+00  9.92674E-01  4.13471E-02
    9046.816     54.557   3.960  1.04999E+00  9.92721E-01  5.72694E-02
    9048.029     55.770   4.000  1.06247E+00  9.92840E-01  6.96288E-02
    9049.255     56.995   4.040  1.07092E+00  9.93010E-01  7.79112E-02
    9050.492     58.233   4.080  1.07509E+00  9.93251E-01  8.18393E-02
    9051.742     59.482   4.120  1.07497E+00  9.93562E-01  8.14119E-02
    9053.004     60.744   4.160  1.07117E+00  9.93896E-01  7.72757E-02
    9054.278     62.018   4.200  1.06496E+00  9.94294E-01  7.06622E-02
    9055.564     63.304   4.240  1.05778E+00  9.94737E-01  6.30397E-02
    9056.862     64.603   4.280  1.05084E+00  9.95221E-01  5.56189E-02
    9058.173     65.913   4.320  1.04471E+00  9.95744E-01  4.89637E-02
    9059.496     67.236   4.360  1.03944E+00  9.96305E-01  4.31371E-02
    9060.831     68.571   4.400  1.03500E+00  9.96901E-01  3.81031E-02
    9062.178     69.919   4.440  1.03153E+00  9.97510E-01  3.40183E-02
    9063.538     71.278   4.480  1.02941E+00  9.98150E-01  3.12560E-02
    9064.909     72.650   4.520  1.02923E+00  9.98820E-01  3.04050E-02
    9066.293     74.033   4.560  1.03137E+00  9.99476E-01  3.18940E-02
    9067.689     75.429   4.600  1.03566E+00  1.00018E+00  3.54823E-02
    9069.097     76.837   4.640  1.04102E+00  1.00086E+00  4.01537E-02
    9070.517     78.258   4.680  1.04602E+00  1.00154E+00  4.44742E-02
    9071.950     79.690   4.720  1.04920E+00  1.00223E+00  4.69742E-02
    9073.395     81.135   4.760  1.04935E+00  1.00293E+00  4.64266E-02
    9074.852     82.592   4.800  1.04559E+00  1.00360E+00  4.19894E-02
    9076.321     84.061   4.840  1.03765E+00  1.00424E+00  3.34050E-02
    9077.802     85.542   4.880  1.02619E+00  1.00488E+00  2.13134E-02
    9079.296     87.036   4.920  1.01276E+00  1.00551E+00  7.24875E-03
    9080.801     88.542   4.960  9.99320E-01  1.00610E+00 -6.78079E-03
    9082.319     90.060   5.000  9.87790E-01  1.00668E+00 -1.88930E-02
    9083.849     91.590   5.040  9.79413E-01  1.00723E+00 -2.78162E-02
    9085.392     93.132   5.080  9.74518E-01  1.00773E+00 -3.32167E-02
    9086.946     94.686   5.120  9.72349E-01  1.00820E+00 -3.58516E-02
    9088.513     96.253   5.160  9.71372E-01  1.00863E+00 -3.72546E-02
    9090.092     97.832   5.200  9.70027E-01  1.00901E+00 -3.89835E-02
    9091.683     99.423   5.240  9.67376E-01  1.00936E+00 -4.19791E-02
    9093.286    101.026   5.280  9.63393E-01  1.00968E+00 -4.62879E-02
    9094.901    102.642   5.320  9.58742E-01  1.00994E+00 -5.11975E-02
    9096.529    104.269   5.360  9.54568E-01  1.01015E+00 -5.55845E-02
    9098.169    105.909   5.400  9.51915E-01  1.01030E+00 -5.83828E-02
    9099.821    107.561   5.440  9.51605E-01  1.01042E+00 -5.88158E-02
    9101.485    109.225   5.480  9.54005E-01  1.01048E+00 -5.64727E-02
    9103.161    110.902   5.520  9.59210E-01  1.01049E+00 -5.12785E-02
    9104.850    112.590   5.560  9.66930E-01  1.01046E+00 -4.35259E-02
    9106.551    114.291   5.600  9.76592E-01  1.01038E+00 -3.37854E-02
    9108.264    116.004   5.640  9.87612E-01  1.01023E+00 -2.26213E-02
    9109.989    117.729   5.680  9.99728E-01  1.01004E+00 -1.03166E-02
    9111.726    119.467   5.720  1.01284E+00  1.00984E+00  3.00852E-03
    9113.476    121.216   5.760  1.02659E+00  1.00956E+00  1.70332E-02
    9115.238    122.978   5.800  1.04020E+00  1.00922E+00  3.09782E-02
    9117.011    124.752   5.840  1.05255E+00  1.00886E+00  4.36825E-02
    9118.798    126.538   5.880  1.06228E+00  1.00847E+00  5.38029E-02
    9120.596    128.336   5.920  1.06799E+00  1.00805E+00  5.99483E-02
    9122.406    130.147   5.960  1.06845E+00  1.00758E+00  6.08650E-02
    9124.229    131.969   6.000  1.06265E+00  1.00706E+00  5.55916E-02
