# # comment:                                                     FEFF 9.9.1  
# # Source:
# # Structure
# # Reduced
# # space
# # abc:
# # angles:114.077447
# # sites:
# # POT  SCF 100  7.0000   0, screened core-hole, AFOLP (folp(0)= 1.150)
# # Abs   Z=29 Rmt= 1.131 Rnm= 1.287 K  shell
# # Pot 1 Z=56 Rmt= 1.971 Rnm= 2.025
# # Pot 2 Z=39 Rmt= 1.640 Rnm= 1.717
# # Pot 3 Z=29 Rmt= 1.131 Rnm= 1.287
# # Pot 4 Z= 8 Rmt= 1.079 Rnm= 1.135
# # Gam_ch=1.729E+00 H-L exch Vi= 0.000E+00 Vr= 0.000E+00
# # Mu=-8.778E+00eV kf=1.985E+00 Vint=-1.725E+01eV Rs_int= 1.827
# FMS rfms= 9.0000
# # PATH  Rmax=-1.000,  Keep_limit= 0.00, Heap_limit 0.00  Pwcrit= 2.50%
#  S02=0.950  Temp=   0.00  Debye_temp=   0.00  Global_sig2= 0.00000
#  Energy zero shift, vr, vi    0.00000E+00   0.00000E+00
#  Curved wave amplitude ratio filter   4.000%
#     file         sig2 tot  cw amp ratio   deg  nlegs   reff  inp sig2
#     0/   0 paths used
#  xsedge+ 50, used to normalize mu           2.4533E-04
#  -----------------------------------------------------------------------
#  omega    e    k    mu    mu0     chi     @#
    8984.843    -12.588  -1.000  3.75249E-02  5.53102E-02 -1.77853E-02
    8985.142    -12.289  -0.960  3.95582E-02  5.93338E-02 -1.97756E-02
    8985.429    -12.003  -0.920  4.17676E-02  6.38037E-02 -2.20361E-02
    8985.703    -11.729  -0.880  4.41768E-02  6.87853E-02 -2.46085E-02
    8985.965    -11.466  -0.840  4.68136E-02  7.43549E-02 -2.75413E-02
    8986.215    -11.216  -0.800  4.97103E-02  8.06007E-02 -3.08904E-02
    8986.453    -10.979  -0.760  5.29044E-02  8.76237E-02 -3.47194E-02
    8986.678    -10.753  -0.720  5.64384E-02  9.55385E-02 -3.91001E-02
    8986.892    -10.540  -0.680  6.03595E-02  1.04471E-01 -4.41111E-02
    8987.093    -10.339  -0.640  6.47177E-02  1.14553E-01 -4.98350E-02
    8987.282    -10.150  -0.600  6.95625E-02  1.25915E-01 -5.63528E-02
    8987.459     -9.973  -0.560  7.49358E-02  1.38669E-01 -6.37334E-02
    8987.623     -9.808  -0.520  8.08619E-02  1.52880E-01 -7.20184E-02
    8987.776     -9.656  -0.480  8.73331E-02  1.68533E-01 -8.12003E-02
    8987.916     -9.516  -0.440  9.42932E-02  1.85491E-01 -9.11982E-02
    8988.044     -9.388  -0.400  1.01623E-01  2.03460E-01 -1.01837E-01
    8988.160     -9.272  -0.360  1.09137E-01  2.21976E-01 -1.12839E-01
    8988.263     -9.168  -0.320  1.16593E-01  2.40439E-01 -1.23846E-01
    8988.355     -9.077  -0.280  1.23725E-01  2.58181E-01 -1.34456E-01
    8988.434     -8.998  -0.240  1.30279E-01  2.74561E-01 -1.44282E-01
    8988.501     -8.930  -0.200  1.36047E-01  2.89039E-01 -1.52992E-01
    8988.556     -8.876  -0.160  1.40879E-01  3.01220E-01 -1.60341E-01
    8988.599     -8.833  -0.120  1.44684E-01  3.10851E-01 -1.66167E-01
    8988.629     -8.802  -0.080  1.47416E-01  3.17791E-01 -1.70375E-01
    8988.653     -8.778   0.000  1.49610E-01  3.23367E-01 -1.73758E-01
    8988.708     -8.723   0.120  1.54670E-01  3.35954E-01 -1.81284E-01
    8988.751     -8.681   0.160  1.58507E-01  3.45731E-01 -1.87224E-01
    8988.806     -8.626   0.200  1.63349E-01  3.58219E-01 -1.94870E-01
    8988.873     -8.559   0.240  1.69077E-01  3.73253E-01 -2.04176E-01
    8988.952     -8.479   0.280  1.75488E-01  3.90521E-01 -2.15033E-01
    8989.044     -8.388   0.320  1.82383E-01  4.09612E-01 -2.27228E-01
    8989.147     -8.284   0.360  1.89455E-01  4.29971E-01 -2.40516E-01
    8989.263     -8.169   0.400  1.96435E-01  4.51027E-01 -2.54592E-01
    8989.391     -8.040   0.440  2.03004E-01  4.72218E-01 -2.69214E-01
    8989.531     -7.900   0.480  2.08965E-01  4.93182E-01 -2.84216E-01
    8989.684     -7.748   0.520  2.14110E-01  5.13619E-01 -2.99509E-01
    8989.848     -7.583   0.560  2.18394E-01  5.33391E-01 -3.14997E-01
    8990.025     -7.407   0.600  2.22142E-01  5.52485E-01 -3.30343E-01
    8990.214     -7.218   0.640  2.25948E-01  5.70935E-01 -3.44987E-01
    8990.415     -7.016   0.680  2.30652E-01  5.88814E-01 -3.58162E-01
    8990.628     -6.803   0.720  2.36986E-01  6.06227E-01 -3.69241E-01
    8990.854     -6.577   0.760  2.45476E-01  6.23237E-01 -3.77761E-01
    8991.092     -6.340   0.800  2.56682E-01  6.39918E-01 -3.83236E-01
    8991.342     -6.090   0.840  2.71360E-01  6.56351E-01 -3.84990E-01
    8991.604     -5.828   0.880  2.90301E-01  6.72560E-01 -3.82259E-01
    8991.878     -5.553   0.920  3.13683E-01  6.88559E-01 -3.74876E-01
    8992.165     -5.267   0.960  3.40483E-01  7.04409E-01 -3.63926E-01
    8992.463     -4.968   1.000  3.68650E-01  7.20078E-01 -3.51428E-01
    8992.774     -4.657   1.040  3.97107E-01  7.35588E-01 -3.38482E-01
    8993.097     -4.334   1.080  4.28187E-01  7.50911E-01 -3.22724E-01
    8993.433     -3.999   1.120  4.68293E-01  7.66014E-01 -2.97722E-01
    8993.780     -3.651   1.160  5.25020E-01  7.80899E-01 -2.55879E-01
    8994.140     -3.292   1.200  5.99114E-01  7.95523E-01 -1.96409E-01
    8994.512     -2.920   1.240  6.73285E-01  8.09883E-01 -1.36598E-01
    8994.896     -2.536   1.280  7.14303E-01  8.23910E-01 -1.09607E-01
    8995.292     -2.140   1.320  7.10939E-01  8.37595E-01 -1.26655E-01
    8995.700     -1.731   1.360  6.92444E-01  8.50930E-01 -1.58486E-01
    8996.121     -1.311   1.400  6.90882E-01  8.63824E-01 -1.72942E-01
    8996.554     -0.878   1.440  7.19295E-01  8.76308E-01 -1.57013E-01
    8996.999     -0.433   1.480  7.64036E-01  8.88334E-01 -1.24298E-01
    8997.456      0.024   1.520  7.91217E-01  8.99892E-01 -1.08675E-01
    8997.925      0.494   1.560  7.85491E-01  9.10934E-01 -1.25443E-01
    8998.407      0.975   1.600  7.67677E-01  9.21476E-01 -1.53799E-01
    8998.901      1.469   1.640  7.59849E-01  9.31470E-01 -1.71621E-01
    8999.407      1.975   1.680  7.73443E-01  9.40934E-01 -1.67491E-01
    8999.925      2.493   1.720  8.09726E-01  9.49846E-01 -1.40120E-01
    9000.455      3.024   1.760  8.63319E-01  9.58205E-01 -9.48856E-02
    9000.998      3.566   1.800  9.34375E-01  9.66012E-01 -3.16364E-02
    9001.552      4.121   1.840  1.02747E+00  9.73269E-01  5.41968E-02
    9002.119      4.688   1.880  1.12978E+00  9.79980E-01  1.49795E-01
    9002.698      5.267   1.920  1.20576E+00  9.86170E-01  2.19587E-01
    9003.290      5.858   1.960  1.23407E+00  9.91803E-01  2.42270E-01
    9003.893      6.462   2.000  1.23075E+00  9.96948E-01  2.33804E-01
    9004.509      7.078   2.040  1.21699E+00  1.00157E+00  2.15422E-01
    9005.137      7.705   2.080  1.20695E+00  1.00572E+00  2.01232E-01
    9005.777      8.345   2.120  1.20555E+00  1.00939E+00  1.96156E-01
    9006.429      8.998   2.160  1.20608E+00  1.01263E+00  1.93454E-01
    9007.094      9.662   2.200  1.19770E+00  1.01544E+00  1.82253E-01
    9007.770     10.339   2.240  1.17800E+00  1.01785E+00  1.60154E-01
    9008.459     11.028   2.280  1.15764E+00  1.01985E+00  1.37788E-01
    9009.160     11.729   2.320  1.15111E+00  1.02151E+00  1.29601E-01
    9009.873     12.442   2.360  1.16398E+00  1.02283E+00  1.41148E-01
    9010.599     13.167   2.400  1.19379E+00  1.02383E+00  1.69963E-01
    9011.336     13.905   2.440  1.22552E+00  1.02453E+00  2.00987E-01
    9012.086     14.655   2.480  1.24261E+00  1.02495E+00  2.17660E-01
    9012.848     15.417   2.520  1.23876E+00  1.02512E+00  2.13636E-01
    9013.622     16.191   2.560  1.21455E+00  1.02507E+00  1.89480E-01
    9014.409     16.977   2.600  1.17783E+00  1.02479E+00  1.53044E-01
    9015.207     17.776   2.640  1.13815E+00  1.02433E+00  1.13820E-01
    9016.018     18.587   2.680  1.10210E+00  1.02370E+00  7.84008E-02
    9016.841     19.410   2.720  1.07298E+00  1.02294E+00  5.00403E-02
    9017.676     20.245   2.760  1.05128E+00  1.02202E+00  2.92640E-02
    9018.524     21.092   2.800  1.03589E+00  1.02098E+00  1.49134E-02
    9019.383     21.952   2.840  1.02535E+00  1.01985E+00  5.50221E-03
    9020.255     22.823   2.880  1.01775E+00  1.01863E+00 -8.78006E-04
    9021.139     23.707   2.920  1.01074E+00  1.01734E+00 -6.60134E-03
    9022.035     24.603   2.960  1.00278E+00  1.01599E+00 -1.32185E-02
    9022.943     25.512   3.000  9.93606E-01  1.01461E+00 -2.10019E-02
    9023.864     26.432   3.040  9.83903E-01  1.01318E+00 -2.92807E-02
    9024.796     27.365   3.080  9.74721E-01  1.01175E+00 -3.70278E-02
    9025.741     28.310   3.120  9.66981E-01  1.01031E+00 -4.33257E-02
    9026.698     29.267   3.160  9.60853E-01  1.00884E+00 -4.79911E-02
    9027.668     30.236   3.200  9.55625E-01  1.00741E+00 -5.17825E-02
    9028.649     31.218   3.240  9.49992E-01  1.00600E+00 -5.60079E-02
    9029.643     32.211   3.280  9.42573E-01  1.00460E+00 -6.20321E-02
    9030.649     33.217   3.320  9.32689E-01  1.00325E+00 -7.05570E-02
    9031.667     34.235   3.360  9.20773E-01  1.00195E+00 -8.11744E-02
    9032.697     35.265   3.400  9.08263E-01  1.00067E+00 -9.24098E-02
    9033.739     36.308   3.440  8.96982E-01  9.99462E-01 -1.02480E-01
    9034.794     37.362   3.480  8.88501E-01  9.98298E-01 -1.09796E-01
    9035.861     38.429   3.520  8.83760E-01  9.97183E-01 -1.13423E-01
    9036.940     39.508   3.560  8.82913E-01  9.96163E-01 -1.13250E-01
    9038.031     40.599   3.600  8.85378E-01  9.95196E-01 -1.09818E-01
    9039.134     41.703   3.640  8.90443E-01  9.94282E-01 -1.03839E-01
    9040.250     42.818   3.680  8.97465E-01  9.93465E-01 -9.59998E-02
    9041.377     43.946   3.720  9.05609E-01  9.92707E-01 -8.70978E-02
    9042.517     45.086   3.760  9.14148E-01  9.92047E-01 -7.78986E-02
    9043.670     46.238   3.800  9.22320E-01  9.91443E-01 -6.91230E-02
    9044.834     47.402   3.840  9.29739E-01  9.90919E-01 -6.11798E-02
    9046.010     48.579   3.880  9.36526E-01  9.90473E-01 -5.39477E-02
    9047.199     49.768   3.920  9.43416E-01  9.90107E-01 -4.66901E-02
    9048.400     50.969   3.960  9.51376E-01  9.89818E-01 -3.84428E-02
    9049.613     52.182   4.000  9.61146E-01  9.89607E-01 -2.84611E-02
    9050.838     53.407   4.040  9.72919E-01  9.89453E-01 -1.65340E-02
    9052.076     54.644   4.080  9.86108E-01  9.89397E-01 -3.28974E-03
    9053.326     55.894   4.120  9.99106E-01  9.89396E-01  9.71001E-03
    9054.587     57.156   4.160  1.00986E+00  9.89470E-01  2.03924E-02
    9055.861     58.430   4.200  1.01670E+00  9.89619E-01  2.70847E-02
    9057.148     59.716   4.240  1.01917E+00  9.89819E-01  2.93555E-02
    9058.446     61.015   4.280  1.01829E+00  9.90089E-01  2.81964E-02
    9059.757     62.325   4.320  1.01583E+00  9.90406E-01  2.54210E-02
    9061.080     63.648   4.360  1.01366E+00  9.90771E-01  2.28920E-02
    9062.415     64.983   4.400  1.01335E+00  9.91203E-01  2.21453E-02
    9063.762     66.330   4.440  1.01591E+00  9.91678E-01  2.42307E-02
    9065.121     67.690   4.480  1.02184E+00  9.92198E-01  2.96453E-02
    9066.493     69.061   4.520  1.03100E+00  9.92782E-01  3.82159E-02
    9067.877     70.445   4.560  1.04249E+00  9.93383E-01  4.91032E-02
    9069.273     71.841   4.600  1.05482E+00  9.94019E-01  6.08027E-02
    9070.681     73.249   4.640  1.06598E+00  9.94689E-01  7.12887E-02
    9072.101     74.670   4.680  1.07388E+00  9.95370E-01  7.85092E-02
    9073.534     76.102   4.720  1.07713E+00  9.96082E-01  8.10481E-02
    9074.978     77.547   4.760  1.07543E+00  9.96801E-01  7.86296E-02
    9076.435     79.004   4.800  1.06970E+00  9.97548E-01  7.21495E-02
    9077.905     80.473   4.840  1.06120E+00  9.98300E-01  6.29042E-02
    9079.386     81.954   4.880  1.05087E+00  9.99052E-01  5.18162E-02
    9080.879     83.448   4.920  1.03933E+00  9.99802E-01  3.95230E-02
    9082.385     84.954   4.960  1.02743E+00  1.00055E+00  2.68822E-02
    9083.903     86.472   5.000  1.01640E+00  1.00127E+00  1.51347E-02
    9085.433     88.002   5.040  1.00761E+00  1.00198E+00  5.63350E-03
    9086.975     89.544   5.080  1.00219E+00  1.00269E+00 -4.98135E-04
    9088.530     91.098   5.120  1.00084E+00  1.00339E+00 -2.54880E-03
    9090.096     92.665   5.160  1.00354E+00  1.00405E+00 -5.11867E-04
    9091.675     94.244   5.200  1.00930E+00  1.00468E+00  4.61873E-03
    9093.266     95.835   5.240  1.01608E+00  1.00527E+00  1.08128E-02
    9094.870     97.438   5.280  1.02149E+00  1.00584E+00  1.56448E-02
    9096.485     99.054   5.320  1.02374E+00  1.00635E+00  1.73819E-02
    9098.113    100.681   5.360  1.02241E+00  1.00685E+00  1.55580E-02
    9099.752    102.321   5.400  1.01856E+00  1.00728E+00  1.12826E-02
    9101.405    103.973   5.440  1.01360E+00  1.00768E+00  5.91841E-03
    9103.069    105.637   5.480  1.00839E+00  1.00803E+00  3.68718E-04
    9104.745    107.314   5.520  1.00320E+00  1.00832E+00 -5.11728E-03
    9106.434    109.002   5.560  9.97992E-01  1.00857E+00 -1.05794E-02
    9108.134    110.703   5.600  9.92870E-01  1.00875E+00 -1.58825E-02
    9109.847    112.416   5.640  9.88194E-01  1.00889E+00 -2.06926E-02
    9111.573    114.141   5.680  9.84211E-01  1.00897E+00 -2.47631E-02
    9113.310    115.878   5.720  9.80451E-01  1.00899E+00 -2.85426E-02
    9115.059    117.628   5.760  9.76156E-01  1.00899E+00 -3.28326E-02
    9116.821    119.390   5.800  9.70675E-01  1.00889E+00 -3.82152E-02
    9118.595    121.164   5.840  9.64313E-01  1.00875E+00 -4.44326E-02
    9120.381    122.950   5.880  9.58134E-01  1.00856E+00 -5.04216E-02
    9122.180    124.748   5.920  9.53431E-01  1.00832E+00 -5.48916E-02
    9123.990    126.559   5.960  9.51261E-01  1.00802E+00 -5.67552E-02
    9125.813    128.381   6.000  9.52459E-01  1.00762E+00 -5.51626E-02
