# # comment:                                                     FEFF 9.9.1  
# # Source:
# # Structure
# # Reduced
# # space
# # abc:
# # angles:
# # sites:
# # POT  SCF 100  7.0000   0, screened core-hole, AFOLP (folp(0)= 1.150)
# # Abs   Z=29 Rmt= 1.251 Rnm= 1.341 K  shell
# # Pot 1 Z=29 Rmt= 1.233 Rnm= 1.337
# # Pot 2 Z=42 Rmt= 1.141 Rnm= 1.356
# # Pot 3 Z=16 Rmt= 0.859 Rnm= 1.105
# # Pot 4 Z= 8 Rmt= 1.002 Rnm= 1.101
# # Gam_ch=1.729E+00 H-L exch Vi= 0.000E+00 Vr= 0.000E+00
# # Mu=-7.153E+00eV kf=2.296E+00 Vint=-1.600E+01eV Rs_int= 1.579
# FMS rfms= 9.0000
# # PATH  Rmax=-1.000,  Keep_limit= 0.00, Heap_limit 0.00  Pwcrit= 2.50%
#  S02=0.950  Temp=   0.00  Debye_temp=   0.00  Global_sig2= 0.00000
#  Energy zero shift, vr, vi    0.00000E+00   0.00000E+00
#  Curved wave amplitude ratio filter   4.000%
#     file         sig2 tot  cw amp ratio   deg  nlegs   reff  inp sig2
#     0/   0 paths used
#  xsedge+ 50, used to normalize mu           2.4738E-04
#  -----------------------------------------------------------------------
#  omega    e    k    mu    mu0     chi     @#
    8983.428    -10.963  -1.000  3.31000E-02  5.05425E-02 -1.74425E-02
    8983.727    -10.664  -0.960  3.45563E-02  5.41418E-02 -1.95855E-02
    8984.014    -10.378  -0.920  3.60940E-02  5.81366E-02 -2.20426E-02
    8984.288    -10.103  -0.880  3.77194E-02  6.25847E-02 -2.48653E-02
    8984.550     -9.841  -0.840  3.94395E-02  6.75537E-02 -2.81142E-02
    8984.800     -9.591  -0.800  4.12620E-02  7.31215E-02 -3.18595E-02
    8985.038     -9.354  -0.760  4.31954E-02  7.93776E-02 -3.61822E-02
    8985.263     -9.128  -0.720  4.52489E-02  8.64232E-02 -4.11743E-02
    8985.477     -8.915  -0.680  4.74320E-02  9.43697E-02 -4.69377E-02
    8985.678     -8.713  -0.640  4.97539E-02  1.03334E-01 -5.35806E-02
    8985.867     -8.525  -0.600  5.22224E-02  1.13433E-01 -6.12104E-02
    8986.044     -8.348  -0.560  5.48425E-02  1.24763E-01 -6.99205E-02
    8986.208     -8.183  -0.520  5.76132E-02  1.37383E-01 -7.97701E-02
    8986.361     -8.031  -0.480  6.05242E-02  1.51280E-01 -9.07557E-02
    8986.501     -7.891  -0.440  6.35521E-02  1.66331E-01 -1.02779E-01
    8986.629     -7.763  -0.400  6.66566E-02  1.82276E-01 -1.15619E-01
    8986.745     -7.647  -0.360  6.97798E-02  1.98703E-01 -1.28924E-01
    8986.848     -7.543  -0.320  7.28482E-02  2.15081E-01 -1.42233E-01
    8986.940     -7.452  -0.280  7.57797E-02  2.30818E-01 -1.55038E-01
    8987.019     -7.372  -0.240  7.84924E-02  2.45344E-01 -1.66852E-01
    8987.086     -7.305  -0.200  8.09119E-02  2.58183E-01 -1.77271E-01
    8987.141     -7.250  -0.160  8.29757E-02  2.68984E-01 -1.86008E-01
    8987.184     -7.208  -0.120  8.46343E-02  2.77523E-01 -1.92889E-01
    8987.214     -7.177  -0.080  8.58505E-02  2.83675E-01 -1.97825E-01
    8987.238     -7.153   0.000  8.68570E-02  2.88619E-01 -2.01762E-01
    8987.293     -7.098   0.120  8.92573E-02  2.99778E-01 -2.10520E-01
    8987.336     -7.055   0.160  9.10586E-02  3.08433E-01 -2.17375E-01
    8987.391     -7.001   0.200  9.34086E-02  3.19497E-01 -2.26088E-01
    8987.458     -6.933   0.240  9.63123E-02  3.32822E-01 -2.36509E-01
    8987.537     -6.854   0.280  9.97807E-02  3.48147E-01 -2.48366E-01
    8987.629     -6.763   0.320  1.03782E-01  3.65047E-01 -2.61265E-01
    8987.732     -6.659   0.360  1.08406E-01  3.83088E-01 -2.74682E-01
    8987.848     -6.543   0.400  1.13610E-01  4.01723E-01 -2.88113E-01
    8987.976     -6.415   0.440  1.19464E-01  4.20507E-01 -3.01044E-01
    8988.116     -6.275   0.480  1.25958E-01  4.39064E-01 -3.13105E-01
    8988.269     -6.123   0.520  1.33035E-01  4.57144E-01 -3.24109E-01
    8988.433     -5.958   0.560  1.40538E-01  4.74665E-01 -3.34127E-01
    8988.610     -5.781   0.600  1.48173E-01  4.91599E-01 -3.43426E-01
    8988.799     -5.592   0.640  1.55599E-01  5.07977E-01 -3.52379E-01
    8989.000     -5.391   0.680  1.62716E-01  5.23884E-01 -3.61168E-01
    8989.213     -5.178   0.720  1.69981E-01  5.39398E-01 -3.69417E-01
    8989.439     -4.952   0.760  1.78341E-01  5.54596E-01 -3.76255E-01
    8989.677     -4.715   0.800  1.88715E-01  5.69563E-01 -3.80848E-01
    8989.927     -4.465   0.840  2.01601E-01  5.84356E-01 -3.82755E-01
    8990.189     -4.202   0.880  2.17198E-01  5.99039E-01 -3.81841E-01
    8990.463     -3.928   0.920  2.35632E-01  6.13602E-01 -3.77970E-01
    8990.750     -3.642   0.960  2.57300E-01  6.28108E-01 -3.70808E-01
    8991.048     -3.343   1.000  2.83335E-01  6.42564E-01 -3.59229E-01
    8991.359     -3.032   1.040  3.15856E-01  6.56954E-01 -3.41099E-01
    8991.682     -2.709   1.080  3.56166E-01  6.71294E-01 -3.15129E-01
    8992.018     -2.374   1.120  4.02178E-01  6.85553E-01 -2.83375E-01
    8992.365     -2.026   1.160  4.49951E-01  6.99757E-01 -2.49805E-01
    8992.725     -1.667   1.200  4.96830E-01  7.13844E-01 -2.17014E-01
    8993.097     -1.295   1.240  5.41424E-01  7.27794E-01 -1.86370E-01
    8993.481     -0.911   1.280  5.86105E-01  7.41622E-01 -1.55517E-01
    8993.877     -0.514   1.320  6.38174E-01  7.55259E-01 -1.17085E-01
    8994.285     -0.106   1.360  7.01335E-01  7.68699E-01 -6.73635E-02
    8994.706      0.315   1.400  7.67131E-01  7.81912E-01 -1.47810E-02
    8995.139      0.747   1.440  8.17915E-01  7.94869E-01  2.30452E-02
    8995.584      1.192   1.480  8.46404E-01  8.07540E-01  3.88636E-02
    8996.041      1.650   1.520  8.67517E-01  8.19915E-01  4.76016E-02
    8996.510      2.119   1.560  9.00388E-01  8.31965E-01  6.84230E-02
    8996.992      2.601   1.600  9.56096E-01  8.43638E-01  1.12458E-01
    8997.486      3.094   1.640  1.03847E+00  8.54969E-01  1.83499E-01
    8997.992      3.600   1.680  1.13611E+00  8.65889E-01  2.70220E-01
    8998.510      4.119   1.720  1.21507E+00  8.76410E-01  3.38659E-01
    8999.040      4.649   1.760  1.25240E+00  8.86488E-01  3.65914E-01
    8999.583      5.191   1.800  1.25998E+00  8.96158E-01  3.63820E-01
    9000.137      5.746   1.840  1.24327E+00  9.05376E-01  3.37890E-01
    9000.704      6.313   1.880  1.19948E+00  9.14159E-01  2.85323E-01
    9001.283      6.892   1.920  1.15331E+00  9.22466E-01  2.30840E-01
    9001.875      7.484   1.960  1.13829E+00  9.30337E-01  2.07955E-01
    9002.478      8.087   2.000  1.16656E+00  9.37731E-01  2.28825E-01
    9003.094      8.703   2.040  1.21467E+00  9.44692E-01  2.69981E-01
    9003.722      9.331   2.080  1.24025E+00  9.51202E-01  2.89049E-01
    9004.362      9.971   2.120  1.23052E+00  9.57263E-01  2.73256E-01
    9005.014     10.623   2.160  1.20379E+00  9.62900E-01  2.40890E-01
    9005.679     11.287   2.200  1.17684E+00  9.68099E-01  2.08742E-01
    9006.355     11.964   2.240  1.15524E+00  9.72883E-01  1.82356E-01
    9007.044     12.653   2.280  1.13265E+00  9.77281E-01  1.55366E-01
    9007.745     13.354   2.320  1.10918E+00  9.81279E-01  1.27898E-01
    9008.458     14.067   2.360  1.09091E+00  9.84883E-01  1.06030E-01
    9009.184     14.793   2.400  1.07055E+00  9.88142E-01  8.24035E-02
    9009.921     15.530   2.440  1.04012E+00  9.91064E-01  4.90512E-02
    9010.671     16.280   2.480  9.99347E-01  9.93638E-01  5.70943E-03
    9011.433     17.042   2.520  9.51559E-01  9.95912E-01 -4.43529E-02
    9012.207     17.816   2.560  9.08220E-01  9.97894E-01 -8.96741E-02
    9012.994     18.603   2.600  8.82171E-01  9.99594E-01 -1.17422E-01
    9013.792     19.401   2.640  8.78644E-01  1.00104E+00 -1.22395E-01
    9014.603     20.212   2.680  8.92423E-01  1.00222E+00 -1.09793E-01
    9015.426     21.035   2.720  9.12908E-01  1.00318E+00 -9.02672E-02
    9016.261     21.870   2.760  9.23699E-01  1.00393E+00 -8.02272E-02
    9017.109     22.717   2.800  9.26337E-01  1.00447E+00 -7.81381E-02
    9017.968     23.577   2.840  9.25106E-01  1.00483E+00 -7.97242E-02
    9018.840     24.449   2.880  9.22941E-01  1.00504E+00 -8.20999E-02
    9019.724     25.333   2.920  9.21101E-01  1.00509E+00 -8.39917E-02
    9020.620     26.229   2.960  9.20175E-01  1.00499E+00 -8.48185E-02
    9021.528     27.137   3.000  9.20368E-01  1.00479E+00 -8.44242E-02
    9022.449     28.057   3.040  9.21482E-01  1.00447E+00 -8.29917E-02
    9023.381     28.990   3.080  9.23385E-01  1.00404E+00 -8.06604E-02
    9024.326     29.935   3.120  9.26119E-01  1.00355E+00 -7.74331E-02
    9025.283     30.892   3.160  9.29559E-01  1.00298E+00 -7.34220E-02
    9026.253     31.861   3.200  9.33719E-01  1.00234E+00 -6.86170E-02
    9027.234     32.843   3.240  9.38701E-01  1.00165E+00 -6.29450E-02
    9028.228     33.836   3.280  9.44396E-01  1.00091E+00 -5.65179E-02
    9029.234     34.842   3.320  9.50723E-01  1.00016E+00 -4.94410E-02
    9030.252     35.860   3.360  9.57465E-01  9.99380E-01 -4.19145E-02
    9031.282     36.891   3.400  9.64215E-01  9.98566E-01 -3.43505E-02
    9032.324     37.933   3.440  9.70513E-01  9.97747E-01 -2.72335E-02
    9033.379     38.988   3.480  9.76207E-01  9.96947E-01 -2.07408E-02
    9034.446     40.054   3.520  9.81457E-01  9.96129E-01 -1.46723E-02
    9035.525     41.133   3.560  9.86711E-01  9.95335E-01 -8.62363E-03
    9036.616     42.224   3.600  9.92331E-01  9.94549E-01 -2.21740E-03
    9037.719     43.328   3.640  9.98324E-01  9.93793E-01  4.53113E-03
    9038.835     44.443   3.680  1.00419E+00  9.93070E-01  1.11239E-02
    9039.962     45.571   3.720  1.00926E+00  9.92361E-01  1.68984E-02
    9041.102     46.711   3.760  1.01307E+00  9.91689E-01  2.13826E-02
    9042.255     47.863   3.800  1.01564E+00  9.91076E-01  2.45682E-02
    9043.419     49.028   3.840  1.01741E+00  9.90481E-01  2.69299E-02
    9044.595     50.204   3.880  1.01913E+00  9.89924E-01  2.92022E-02
    9045.784     51.393   3.920  1.02136E+00  9.89408E-01  3.19563E-02
    9046.985     52.594   3.960  1.02428E+00  9.88956E-01  3.53215E-02
    9048.198     53.807   4.000  1.02758E+00  9.88547E-01  3.90372E-02
    9049.423     55.032   4.040  1.03074E+00  9.88159E-01  4.25832E-02
    9050.661     56.270   4.080  1.03322E+00  9.87834E-01  4.53895E-02
    9051.911     57.519   4.120  1.03453E+00  9.87575E-01  4.69594E-02
    9053.172     58.781   4.160  1.03422E+00  9.87338E-01  4.68789E-02
    9054.446     60.055   4.200  1.03195E+00  9.87167E-01  4.47818E-02
    9055.733     61.341   4.240  1.02745E+00  9.87037E-01  4.04146E-02
    9057.031     62.640   4.280  1.02076E+00  9.86949E-01  3.38142E-02
    9058.342     63.951   4.320  1.01228E+00  9.86903E-01  2.53794E-02
    9059.665     65.273   4.360  1.00274E+00  9.86898E-01  1.58444E-02
    9061.000     66.608   4.400  9.93106E-01  9.86955E-01  6.15094E-03
    9062.347     67.956   4.440  9.84262E-01  9.87031E-01 -2.76909E-03
    9063.706     69.315   4.480  9.76958E-01  9.87146E-01 -1.01879E-02
    9065.078     70.687   4.520  9.71610E-01  9.87322E-01 -1.57116E-02
    9066.462     72.070   4.560  9.68152E-01  9.87513E-01 -1.93617E-02
    9067.858     73.466   4.600  9.66242E-01  9.87739E-01 -2.14974E-02
    9069.266     74.875   4.640  9.65450E-01  9.87999E-01 -2.25488E-02
    9070.686     76.295   4.680  9.65532E-01  9.88271E-01 -2.27392E-02
    9072.119     77.727   4.720  9.66585E-01  9.88574E-01 -2.19891E-02
    9073.563     79.172   4.760  9.68835E-01  9.88886E-01 -2.00515E-02
    9075.020     80.629   4.800  9.72454E-01  9.89230E-01 -1.67763E-02
    9076.490     82.098   4.840  9.77375E-01  9.89604E-01 -1.22294E-02
    9077.971     83.580   4.880  9.83341E-01  9.89984E-01 -6.64310E-03
    9079.464     85.073   4.920  9.90028E-01  9.90366E-01 -3.37933E-04
    9080.970     86.579   4.960  9.97091E-01  9.90749E-01  6.34205E-03
    9082.488     88.097   5.000  1.00418E+00  9.91135E-01  1.30427E-02
    9084.018     89.627   5.040  1.01093E+00  9.91542E-01  1.93841E-02
    9085.560     91.169   5.080  1.01685E+00  9.91926E-01  2.49215E-02
    9087.115     92.724   5.120  1.02145E+00  9.92309E-01  2.91386E-02
    9088.681     94.290   5.160  1.02424E+00  9.92687E-01  3.15548E-02
    9090.260     95.869   5.200  1.02494E+00  9.93061E-01  3.18755E-02
    9091.851     97.460   5.240  1.02354E+00  9.93430E-01  3.01096E-02
    9093.455     99.063   5.280  1.02024E+00  9.93769E-01  2.64722E-02
    9095.070    100.679   5.320  1.01532E+00  9.94098E-01  2.12199E-02
    9096.698    102.306   5.360  1.00898E+00  9.94394E-01  1.45815E-02
    9098.338    103.946   5.400  1.00153E+00  9.94659E-01  6.86927E-03
    9099.990    105.598   5.440  9.93519E-01  9.94935E-01 -1.41551E-03
    9101.654    107.262   5.480  9.85477E-01  9.95155E-01 -9.67848E-03
    9103.330    108.939   5.520  9.77901E-01  9.95362E-01 -1.74617E-02
    9105.019    110.627   5.560  9.71013E-01  9.95533E-01 -2.45194E-02
    9106.719    112.328   5.600  9.64995E-01  9.95667E-01 -3.06714E-02
    9108.432    114.041   5.640  9.60130E-01  9.95786E-01 -3.56557E-02
    9110.158    115.766   5.680  9.56703E-01  9.95846E-01 -3.91429E-02
    9111.895    117.504   5.720  9.54999E-01  9.95890E-01 -4.08906E-02
    9113.644    119.253   5.760  9.55054E-01  9.95897E-01 -4.08428E-02
    9115.406    121.015   5.800  9.56734E-01  9.95866E-01 -3.91326E-02
    9117.180    122.789   5.840  9.59796E-01  9.95797E-01 -3.60010E-02
    9118.966    124.575   5.880  9.63913E-01  9.95692E-01 -3.17786E-02
    9120.765    126.373   5.920  9.68689E-01  9.95575E-01 -2.68854E-02
    9122.575    128.184   5.960  9.73664E-01  9.95393E-01 -2.17293E-02
    9124.398    130.007   6.000  9.78828E-01  9.95179E-01 -1.63515E-02
