# # comment:                                                     FEFF 9.9.1  
# # Source:
# # Structure
# # Reduced
# # space
# # abc:
# # angles:
# # sites:
# # POT  SCF 100  7.0000   0, screened core-hole, AFOLP (folp(0)= 1.150)
# # Abs   Z=29 Rmt= 1.234 Rnm= 1.315 K  shell
# # Pot 1 Z=20 Rmt= 1.615 Rnm= 1.682
# # Pot 2 Z=29 Rmt= 1.234 Rnm= 1.315
# # Pot 3 Z= 8 Rmt= 1.055 Rnm= 1.111
# # Gam_ch=1.729E+00 H-L exch Vi= 0.000E+00 Vr= 0.000E+00
# # Mu=-9.184E+00eV kf=2.098E+00 Vint=-1.761E+01eV Rs_int= 1.729
# FMS rfms= 9.0000
# # PATH  Rmax=-1.000,  Keep_limit= 0.00, Heap_limit 0.00  Pwcrit= 2.50%
#  S02=0.950  Temp=   0.00  Debye_temp=   0.00  Global_sig2= 0.00000
#  Energy zero shift, vr, vi    0.00000E+00   0.00000E+00
#  Curved wave amplitude ratio filter   4.000%
#     file         sig2 tot  cw amp ratio   deg  nlegs   reff  inp sig2
#     0/   0 paths used
#  xsedge+ 50, used to normalize mu           2.4499E-04
#  -----------------------------------------------------------------------
#  omega    e    k    mu    mu0     chi     @#
    8985.091    -12.994  -1.000  4.07928E-02  5.53412E-02 -1.45485E-02
    8985.390    -12.695  -0.960  4.31735E-02  5.93798E-02 -1.62063E-02
    8985.676    -12.408  -0.920  4.57666E-02  6.38675E-02 -1.81009E-02
    8985.951    -12.134  -0.880  4.85977E-02  6.88705E-02 -2.02728E-02
    8986.213    -11.872  -0.840  5.16953E-02  7.44656E-02 -2.27702E-02
    8986.463    -11.622  -0.800  5.50913E-02  8.07416E-02 -2.56503E-02
    8986.700    -11.384  -0.760  5.88208E-02  8.78007E-02 -2.89799E-02
    8986.926    -11.159  -0.720  6.29217E-02  9.57581E-02 -3.28364E-02
    8987.139    -10.945  -0.680  6.74336E-02  1.04741E-01 -3.73072E-02
    8987.340    -10.744  -0.640  7.23959E-02  1.14883E-01 -4.24867E-02
    8987.529    -10.555  -0.600  7.78448E-02  1.26315E-01 -4.84702E-02
    8987.706    -10.378  -0.560  8.38073E-02  1.39150E-01 -5.53426E-02
    8987.871    -10.214  -0.520  9.02945E-02  1.53454E-01 -6.31597E-02
    8988.023    -10.061  -0.480  9.72905E-02  1.69212E-01 -7.19220E-02
    8988.163     -9.921  -0.440  1.04742E-01  1.86287E-01 -8.15449E-02
    8988.291     -9.793  -0.400  1.12547E-01  2.04380E-01 -9.18333E-02
    8988.407     -9.677  -0.360  1.20551E-01  2.23026E-01 -1.02475E-01
    8988.511     -9.574  -0.320  1.28554E-01  2.41620E-01 -1.13066E-01
    8988.602     -9.482  -0.280  1.36321E-01  2.59488E-01 -1.23167E-01
    8988.682     -9.403  -0.240  1.43612E-01  2.75983E-01 -1.32371E-01
    8988.749     -9.336  -0.200  1.50195E-01  2.90562E-01 -1.40367E-01
    8988.803     -9.281  -0.160  1.55869E-01  3.02828E-01 -1.46959E-01
    8988.846     -9.239  -0.120  1.60466E-01  3.12525E-01 -1.52059E-01
    8988.877     -9.208  -0.080  1.63859E-01  3.19512E-01 -1.55653E-01
    8988.901     -9.184   0.000  1.66676E-01  3.25125E-01 -1.58449E-01
    8988.956     -9.129   0.120  1.73149E-01  3.37802E-01 -1.64653E-01
    8988.999     -9.086   0.160  1.78217E-01  3.47630E-01 -1.69413E-01
    8989.053     -9.031   0.200  1.84921E-01  3.60208E-01 -1.75286E-01
    8989.120     -8.964   0.240  1.93348E-01  3.75329E-01 -1.81981E-01
    8989.200     -8.885   0.280  2.03660E-01  3.92717E-01 -1.89057E-01
    8989.291     -8.794   0.320  2.15995E-01  4.11917E-01 -1.95922E-01
    8989.395     -8.690   0.360  2.30521E-01  4.32388E-01 -2.01866E-01
    8989.511     -8.574   0.400  2.47371E-01  4.53553E-01 -2.06181E-01
    8989.639     -8.446   0.440  2.66557E-01  4.74844E-01 -2.08287E-01
    8989.779     -8.306   0.480  2.87975E-01  4.95873E-01 -2.07897E-01
    8989.931     -8.153   0.520  3.11215E-01  5.16339E-01 -2.05125E-01
    8990.096     -7.989   0.560  3.35652E-01  5.36142E-01 -2.00490E-01
    8990.273     -7.812   0.600  3.60515E-01  5.55228E-01 -1.94713E-01
    8990.462     -7.623   0.640  3.85128E-01  5.73651E-01 -1.88523E-01
    8990.663     -7.422   0.680  4.09037E-01  5.91485E-01 -1.82448E-01
    8990.876     -7.209   0.720  4.31858E-01  6.08815E-01 -1.76956E-01
    8991.102     -6.983   0.760  4.52822E-01  6.25724E-01 -1.72902E-01
    8991.339     -6.745   0.800  4.69650E-01  6.42267E-01 -1.72617E-01
    8991.589     -6.495   0.840  4.77682E-01  6.58525E-01 -1.80843E-01
    8991.851     -6.233   0.880  4.72261E-01  6.74544E-01 -2.02283E-01
    8992.126     -5.959   0.920  4.54589E-01  6.90359E-01 -2.35770E-01
    8992.412     -5.672   0.960  4.31903E-01  7.05947E-01 -2.74044E-01
    8992.711     -5.374   1.000  4.11220E-01  7.21362E-01 -3.10142E-01
    8993.022     -5.063   1.040  3.96431E-01  7.36563E-01 -3.40132E-01
    8993.345     -4.740   1.080  3.88759E-01  7.51564E-01 -3.62805E-01
    8993.680     -4.404   1.120  3.86136E-01  7.66353E-01 -3.80217E-01
    8994.028     -4.057   1.160  3.84400E-01  7.80871E-01 -3.96471E-01
    8994.387     -3.697   1.200  3.79638E-01  7.95118E-01 -4.15480E-01
    8994.759     -3.325   1.240  3.72430E-01  8.09070E-01 -4.36640E-01
    8995.143     -2.941   1.280  3.70960E-01  8.22700E-01 -4.51740E-01
    8995.540     -2.545   1.320  3.85326E-01  8.35961E-01 -4.50635E-01
    8995.948     -2.137   1.360  4.19358E-01  8.48846E-01 -4.29488E-01
    8996.369     -1.716   1.400  4.66757E-01  8.61305E-01 -3.94548E-01
    8996.801     -1.283   1.440  5.14430E-01  8.73329E-01 -3.58899E-01
    8997.246     -0.838   1.480  5.56531E-01  8.84893E-01 -3.28362E-01
    8997.704     -0.381   1.520  6.03285E-01  8.95989E-01 -2.92703E-01
    8998.173      0.088   1.560  6.66396E-01  9.06590E-01 -2.40193E-01
    8998.655      0.570   1.600  7.42794E-01  9.16670E-01 -1.73876E-01
    8999.148      1.064   1.640  8.23787E-01  9.26229E-01 -1.02442E-01
    8999.654      1.570   1.680  9.11797E-01  9.35263E-01 -2.34656E-02
    9000.172      2.088   1.720  1.01627E+00  9.43752E-01  7.25141E-02
    9000.703      2.618   1.760  1.14947E+00  9.51715E-01  1.97751E-01
    9001.245      3.161   1.800  1.32957E+00  9.59156E-01  3.70418E-01
    9001.800      3.715   1.840  1.56141E+00  9.66036E-01  5.95371E-01
    9002.367      4.282   1.880  1.78141E+00  9.72422E-01  8.08989E-01
    9002.946      4.861   1.920  1.88178E+00  9.78279E-01  9.03497E-01
    9003.537      5.453   1.960  1.82413E+00  9.83654E-01  8.40472E-01
    9004.141      6.056   2.000  1.67225E+00  9.88533E-01  6.83714E-01
    9004.757      6.672   2.040  1.53185E+00  9.92924E-01  5.38928E-01
    9005.385      7.300   2.080  1.43331E+00  9.96879E-01  4.36431E-01
    9006.025      7.940   2.120  1.35152E+00  1.00039E+00  3.51135E-01
    9006.677      8.592   2.160  1.27596E+00  1.00348E+00  2.72482E-01
    9007.341      9.257   2.200  1.19930E+00  1.00618E+00  1.93118E-01
    9008.018      9.933   2.240  1.12150E+00  1.00851E+00  1.12990E-01
    9008.707     10.622   2.280  1.06110E+00  1.01047E+00  5.06246E-02
    9009.408     11.323   2.320  1.03128E+00  1.01210E+00  1.91733E-02
    9010.121     12.036   2.360  1.02233E+00  1.01343E+00  8.89875E-03
    9010.846     12.762   2.400  1.01115E+00  1.01447E+00 -3.32198E-03
    9011.584     13.499   2.440  9.88049E-01  1.01525E+00 -2.72024E-02
    9012.334     14.249   2.480  9.59775E-01  1.01576E+00 -5.59871E-02
    9013.096     15.011   2.520  9.40512E-01  1.01605E+00 -7.55427E-02
    9013.870     15.785   2.560  9.33651E-01  1.01614E+00 -8.24887E-02
    9014.656     16.572   2.600  9.35254E-01  1.01605E+00 -8.07936E-02
    9015.455     17.370   2.640  9.43095E-01  1.01579E+00 -7.26954E-02
    9016.266     18.181   2.680  9.55169E-01  1.01537E+00 -6.02041E-02
    9017.089     19.004   2.720  9.69211E-01  1.01482E+00 -4.56141E-02
    9017.924     19.839   2.760  9.82008E-01  1.01416E+00 -3.21475E-02
    9018.771     20.687   2.800  9.90906E-01  1.01339E+00 -2.24890E-02
    9019.631     21.546   2.840  9.94229E-01  1.01253E+00 -1.82997E-02
    9020.503     22.418   2.880  9.91417E-01  1.01163E+00 -2.02091E-02
    9021.386     23.302   2.920  9.82867E-01  1.01065E+00 -2.77851E-02
    9022.283     24.198   2.960  9.70076E-01  1.00961E+00 -3.95359E-02
    9023.191     25.106   3.000  9.55106E-01  1.00856E+00 -5.34504E-02
    9024.111     26.027   3.040  9.39970E-01  1.00749E+00 -6.75186E-02
    9025.044     26.959   3.080  9.25876E-01  1.00639E+00 -8.05176E-02
    9025.989     27.904   3.120  9.13071E-01  1.00532E+00 -9.22478E-02
    9026.946     28.861   3.160  9.01254E-01  1.00425E+00 -1.02991E-01
    9027.915     29.831   3.200  8.90611E-01  1.00318E+00 -1.12567E-01
    9028.897     30.812   3.240  8.81662E-01  1.00212E+00 -1.20458E-01
    9029.890     31.806   3.280  8.74614E-01  1.00112E+00 -1.26503E-01
    9030.896     32.811   3.320  8.69171E-01  1.00013E+00 -1.30959E-01
    9031.914     33.830   3.360  8.65165E-01  9.99204E-01 -1.34039E-01
    9032.944     34.860   3.400  8.62813E-01  9.98299E-01 -1.35486E-01
    9033.987     35.902   3.440  8.62808E-01  9.97459E-01 -1.34651E-01
    9035.041     36.957   3.480  8.66085E-01  9.96667E-01 -1.30582E-01
    9036.108     38.024   3.520  8.73291E-01  9.95941E-01 -1.22650E-01
    9037.187     39.103   3.560  8.84317E-01  9.95265E-01 -1.10948E-01
    9038.278     40.194   3.600  8.98488E-01  9.94639E-01 -9.61512E-02
    9039.382     41.297   3.640  9.15000E-01  9.94106E-01 -7.91055E-02
    9040.497     42.413   3.680  9.33124E-01  9.93625E-01 -6.05012E-02
    9041.625     43.540   3.720  9.52355E-01  9.93195E-01 -4.08398E-02
    9042.765     44.680   3.760  9.72707E-01  9.92838E-01 -2.01304E-02
    9043.917     45.832   3.800  9.94429E-01  9.92554E-01  1.87505E-03
    9045.081     46.997   3.840  1.01781E+00  9.92323E-01  2.54858E-02
    9046.258     48.173   3.880  1.04295E+00  9.92188E-01  5.07637E-02
    9047.447     49.362   3.920  1.06911E+00  9.92082E-01  7.70251E-02
    9048.648     50.563   3.960  1.09452E+00  9.92068E-01  1.02454E-01
    9049.861     51.776   4.000  1.11640E+00  9.92085E-01  1.24313E-01
    9051.086     53.001   4.040  1.13160E+00  9.92191E-01  1.39406E-01
    9052.324     54.239   4.080  1.13726E+00  9.92325E-01  1.44934E-01
    9053.573     55.489   4.120  1.13227E+00  9.92528E-01  1.39745E-01
    9054.835     56.750   4.160  1.11830E+00  9.92799E-01  1.25503E-01
    9056.109     58.024   4.200  1.09915E+00  9.93113E-01  1.06035E-01
    9057.395     59.311   4.240  1.07894E+00  9.93448E-01  8.54931E-02
    9058.694     60.609   4.280  1.06066E+00  9.93847E-01  6.68128E-02
    9060.004     61.920   4.320  1.04589E+00  9.94286E-01  5.16013E-02
    9061.327     63.243   4.360  1.03537E+00  9.94765E-01  4.06049E-02
    9062.662     64.578   4.400  1.02929E+00  9.95282E-01  3.40125E-02
    9064.009     65.925   4.440  1.02742E+00  9.95834E-01  3.15884E-02
    9065.369     67.284   4.480  1.02888E+00  9.96395E-01  3.24874E-02
    9066.740     68.656   4.520  1.03230E+00  9.96966E-01  3.53378E-02
    9068.124     70.040   4.560  1.03585E+00  9.97589E-01  3.82632E-02
    9069.520     71.436   4.600  1.03739E+00  9.98198E-01  3.91906E-02
    9070.928     72.844   4.640  1.03552E+00  9.98830E-01  3.66923E-02
    9072.349     74.264   4.680  1.03006E+00  9.99468E-01  3.05958E-02
    9073.781     75.697   4.720  1.02177E+00  1.00011E+00  2.16583E-02
    9075.226     77.141   4.760  1.01168E+00  1.00077E+00  1.09074E-02
    9076.683     78.598   4.800  1.00067E+00  1.00141E+00 -7.40794E-04
    9078.152     80.067   4.840  9.89491E-01  1.00204E+00 -1.25456E-02
    9079.633     81.549   4.880  9.78687E-01  1.00264E+00 -2.39536E-02
    9081.127     83.042   4.920  9.68519E-01  1.00326E+00 -3.47395E-02
    9082.633     84.548   4.960  9.59043E-01  1.00385E+00 -4.48036E-02
    9084.151     86.066   5.000  9.50931E-01  1.00440E+00 -5.34700E-02
    9085.681     87.596   5.040  9.45863E-01  1.00494E+00 -5.90808E-02
    9087.223     89.138   5.080  9.45769E-01  1.00545E+00 -5.96800E-02
    9088.777     90.693   5.120  9.51530E-01  1.00592E+00 -5.43881E-02
    9090.344     92.259   5.160  9.62106E-01  1.00637E+00 -4.42659E-02
    9091.923     93.838   5.200  9.74974E-01  1.00677E+00 -3.17912E-02
    9093.514     95.429   5.240  9.87411E-01  1.00714E+00 -1.97290E-02
    9095.117     97.033   5.280  9.97647E-01  1.00747E+00 -9.82714E-03
    9096.733     98.648   5.320  1.00518E+00  1.00774E+00 -2.56715E-03
    9098.360    100.276   5.360  1.01034E+00  1.00800E+00  2.34808E-03
    9100.000    101.915   5.400  1.01332E+00  1.00820E+00  5.11983E-03
    9101.652    103.567   5.440  1.01384E+00  1.00835E+00  5.49612E-03
    9103.316    105.232   5.480  1.01171E+00  1.00847E+00  3.23756E-03
    9104.993    106.908   5.520  1.00712E+00  1.00853E+00 -1.40919E-03
    9106.681    108.597   5.560  1.00067E+00  1.00854E+00 -7.86485E-03
    9108.382    110.297   5.600  9.92877E-01  1.00851E+00 -1.56286E-02
    9110.095    112.010   5.640  9.84176E-01  1.00843E+00 -2.42528E-02
    9111.820    113.736   5.680  9.75307E-01  1.00829E+00 -3.29808E-02
    9113.558    115.473   5.720  9.67223E-01  1.00813E+00 -4.09028E-02
    9115.307    117.222   5.760  9.60399E-01  1.00790E+00 -4.75012E-02
    9117.069    118.984   5.800  9.54882E-01  1.00766E+00 -5.27748E-02
    9118.843    120.758   5.840  9.50634E-01  1.00735E+00 -5.67166E-02
    9120.629    122.544   5.880  9.48066E-01  1.00700E+00 -5.89372E-02
    9122.427    124.343   5.920  9.47768E-01  1.00662E+00 -5.88510E-02
    9124.238    126.153   5.960  9.50289E-01  1.00620E+00 -5.59106E-02
    9126.060    127.976   6.000  9.56615E-01  1.00574E+00 -4.91280E-02
