# # comment:                                                     FEFF 9.9.1  
# # Source:
# # Structure
# # Reduced
# # space
# # abc:
# # angles:
# # sites:
# # POT  SCF 100  7.0000   0, screened core-hole, AFOLP (folp(0)= 1.150)
# # Abs   Z=29 Rmt= 1.349 Rnm= 1.415 K  shell
# # Pot 1 Z=66 Rmt= 1.571 Rnm= 1.687
# # Pot 2 Z=29 Rmt= 1.349 Rnm= 1.415
# # Pot 3 Z=34 Rmt= 1.511 Rnm= 1.586
# # Pot 4 Z= 8 Rmt= 1.020 Rnm= 1.100
# # Gam_ch=1.729E+00 H-L exch Vi= 0.000E+00 Vr= 0.000E+00
# # Mu=-6.540E+00eV kf=1.946E+00 Vint=-1.600E+01eV Rs_int= 1.864
# FMS rfms= 9.0000
# # PATH  Rmax=-1.000,  Keep_limit= 0.00, Heap_limit 0.00  Pwcrit= 2.50%
#  S02=0.950  Temp=   0.00  Debye_temp=   0.00  Global_sig2= 0.00000
#  Energy zero shift, vr, vi    0.00000E+00   0.00000E+00
#  Curved wave amplitude ratio filter   4.000%
#     file         sig2 tot  cw amp ratio   deg  nlegs   reff  inp sig2
#     0/   0 paths used
#  xsedge+ 50, used to normalize mu           2.4557E-04
#  -----------------------------------------------------------------------
#  omega    e    k    mu    mu0     chi     @#
    8983.842    -10.350  -1.000  5.35504E-02  5.97652E-02 -6.21480E-03
    8984.141    -10.051  -0.960  5.70398E-02  6.42858E-02 -7.24601E-03
    8984.427     -9.765  -0.920  6.08473E-02  6.93238E-02 -8.47651E-03
    8984.702     -9.491  -0.880  6.50093E-02  7.49565E-02 -9.94720E-03
    8984.964     -9.228  -0.840  6.95666E-02  8.12740E-02 -1.17074E-02
    8985.214     -8.978  -0.800  7.45649E-02  8.83808E-02 -1.38159E-02
    8985.451     -8.741  -0.760  8.00545E-02  9.63971E-02 -1.63427E-02
    8985.677     -8.515  -0.720  8.60901E-02  1.05459E-01 -1.93688E-02
    8985.890     -8.302  -0.680  9.27293E-02  1.15716E-01 -2.29866E-02
    8986.091     -8.101  -0.640  1.00030E-01  1.27327E-01 -2.72969E-02
    8986.280     -7.912  -0.600  1.08044E-01  1.40447E-01 -3.24027E-02
    8986.457     -7.735  -0.560  1.16812E-01  1.55211E-01 -3.83985E-02
    8986.622     -7.570  -0.520  1.26346E-01  1.71698E-01 -4.53514E-02
    8986.774     -7.418  -0.480  1.36616E-01  1.89892E-01 -5.32758E-02
    8986.914     -7.278  -0.440  1.47531E-01  2.09634E-01 -6.21038E-02
    8987.042     -7.150  -0.400  1.58918E-01  2.30577E-01 -7.16592E-02
    8987.158     -7.034  -0.360  1.70525E-01  2.52175E-01 -8.16496E-02
    8987.262     -6.930  -0.320  1.82030E-01  2.73718E-01 -9.16880E-02
    8987.353     -6.839  -0.280  1.93073E-01  2.94418E-01 -1.01345E-01
    8987.433     -6.760  -0.240  2.03303E-01  3.13520E-01 -1.10217E-01
    8987.500     -6.692  -0.200  2.12412E-01  3.30394E-01 -1.17982E-01
    8987.554     -6.638  -0.160  2.20152E-01  3.44579E-01 -1.24427E-01
    8987.597     -6.595  -0.120  2.26340E-01  3.55786E-01 -1.29446E-01
    8987.628     -6.564  -0.080  2.30847E-01  3.63854E-01 -1.33007E-01
    8987.652     -6.540   0.000  2.34512E-01  3.70333E-01 -1.35821E-01
    8987.707     -6.485   0.120  2.42876E-01  3.84939E-01 -1.42062E-01
    8987.750     -6.443   0.160  2.49467E-01  3.96285E-01 -1.46818E-01
    8987.804     -6.388   0.200  2.58041E-01  4.10739E-01 -1.52698E-01
    8987.871     -6.321   0.240  2.68688E-01  4.28090E-01 -1.59402E-01
    8987.951     -6.241   0.280  2.81515E-01  4.47991E-01 -1.66476E-01
    8988.042     -6.150   0.320  2.96602E-01  4.69868E-01 -1.73265E-01
    8988.146     -6.046   0.360  3.14149E-01  4.93060E-01 -1.78911E-01
    8988.262     -5.930   0.400  3.34450E-01  5.16847E-01 -1.82397E-01
    8988.390     -5.802   0.440  3.57977E-01  5.40609E-01 -1.82632E-01
    8988.530     -5.662   0.480  3.85280E-01  5.63808E-01 -1.78528E-01
    8988.682     -5.510   0.520  4.16931E-01  5.86130E-01 -1.69199E-01
    8988.847     -5.345   0.560  4.53227E-01  6.07385E-01 -1.54158E-01
    8989.024     -5.168   0.600  4.93877E-01  6.27556E-01 -1.33679E-01
    8989.213     -4.980   0.640  5.37502E-01  6.46690E-01 -1.09188E-01
    8989.414     -4.778   0.680  5.81440E-01  6.64900E-01 -8.34598E-02
    8989.627     -4.565   0.720  6.22169E-01  6.82254E-01 -6.00846E-02
    8989.853     -4.339   0.760  6.56670E-01  6.98880E-01 -4.22091E-02
    8990.090     -4.102   0.800  6.83896E-01  7.14896E-01 -3.10003E-02
    8990.340     -3.852   0.840  7.05410E-01  7.30344E-01 -2.49341E-02
    8990.602     -3.590   0.880  7.24591E-01  7.45290E-01 -2.06986E-02
    8990.877     -3.315   0.920  7.44593E-01  7.59804E-01 -1.52109E-02
    8991.163     -3.029   0.960  7.67381E-01  7.73923E-01 -6.54210E-03
    8991.462     -2.730   1.000  7.94636E-01  7.87630E-01  7.00581E-03
    8991.773     -2.419   1.040  8.28193E-01  8.00982E-01  2.72112E-02
    8992.096     -2.096   1.080  8.68774E-01  8.13942E-01  5.48320E-02
    8992.431     -1.761   1.120  9.15950E-01  8.26550E-01  8.94003E-02
    8992.779     -1.413   1.160  9.66761E-01  8.38758E-01  1.28003E-01
    8993.138     -1.054   1.200  1.01361E+00  8.50577E-01  1.63037E-01
    8993.510     -0.682   1.240  1.04709E+00  8.61993E-01  1.85097E-01
    8993.894     -0.298   1.280  1.06313E+00  8.72989E-01  1.90140E-01
    8994.290      0.098   1.320  1.06755E+00  8.83569E-01  1.83984E-01
    8994.699      0.507   1.360  1.06658E+00  8.93713E-01  1.72864E-01
    8995.120      0.927   1.400  1.05553E+00  9.03382E-01  1.52152E-01
    8995.552      1.360   1.440  1.02754E+00  9.12618E-01  1.14926E-01
    8995.997      1.805   1.480  9.87666E-01  9.21360E-01  6.63064E-02
    8996.455      2.263   1.520  9.49614E-01  9.29650E-01  1.99640E-02
    8996.924      2.732   1.560  9.22932E-01  9.37450E-01 -1.45186E-02
    8997.406      3.213   1.600  9.11513E-01  9.44764E-01 -3.32508E-02
    8997.899      3.707   1.640  9.18402E-01  9.51615E-01 -3.32133E-02
    8998.405      4.213   1.680  9.45450E-01  9.58007E-01 -1.25571E-02
    8998.923      4.731   1.720  9.91086E-01  9.63926E-01  2.71601E-02
    8999.454      5.262   1.760  1.05013E+00  9.69378E-01  8.07559E-02
    8999.996      5.804   1.800  1.11863E+00  9.74388E-01  1.44247E-01
    9000.551      6.359   1.840  1.19507E+00  9.78965E-01  2.16107E-01
    9001.118      6.926   1.880  1.26543E+00  9.83140E-01  2.82290E-01
    9001.697      7.505   1.920  1.29265E+00  9.86898E-01  3.05751E-01
    9002.288      8.096   1.960  1.24863E+00  9.90270E-01  2.58357E-01
    9002.892      8.700   2.000  1.15095E+00  9.93264E-01  1.57686E-01
    9003.508      9.316   2.040  1.03971E+00  9.95912E-01  4.37963E-02
    9004.135      9.943   2.080  9.48562E-01  9.98222E-01 -4.96598E-02
    9004.776     10.584   2.120  8.94609E-01  1.00020E+00 -1.05595E-01
    9005.428     11.236   2.160  8.79960E-01  1.00191E+00 -1.21952E-01
    9006.092     11.900   2.200  8.95758E-01  1.00333E+00 -1.07577E-01
    9006.769     12.577   2.240  9.33523E-01  1.00450E+00 -7.09802E-02
    9007.458     13.266   2.280  9.84072E-01  1.00545E+00 -2.13742E-02
    9008.159     13.967   2.320  1.03353E+00  1.00616E+00  2.73716E-02
    9008.872     14.680   2.360  1.05423E+00  1.00668E+00  4.75490E-02
    9009.597     15.405   2.400  1.03596E+00  1.00703E+00  2.89367E-02
    9010.335     16.143   2.440  1.00605E+00  1.00719E+00 -1.13450E-03
    9011.085     16.893   2.480  9.78346E-01  1.00721E+00 -2.88658E-02
    9011.847     17.655   2.520  9.56126E-01  1.00713E+00 -5.10017E-02
    9012.621     18.429   2.560  9.39302E-01  1.00690E+00 -6.76003E-02
    9013.407     19.215   2.600  9.27830E-01  1.00658E+00 -7.87529E-02
    9014.206     20.014   2.640  9.21790E-01  1.00618E+00 -8.43875E-02
    9015.017     20.825   2.680  9.21720E-01  1.00571E+00 -8.39927E-02
    9015.840     21.648   2.720  9.28238E-01  1.00518E+00 -7.69383E-02
    9016.675     22.483   2.760  9.41804E-01  1.00459E+00 -6.27899E-02
    9017.522     23.330   2.800  9.61991E-01  1.00397E+00 -4.19783E-02
    9018.382     24.190   2.840  9.86517E-01  1.00333E+00 -1.68134E-02
    9019.254     25.061   2.880  1.01147E+00  1.00266E+00  8.81351E-03
    9020.137     25.945   2.920  1.03317E+00  1.00198E+00  3.11886E-02
    9021.034     26.841   2.960  1.04911E+00  1.00131E+00  4.78007E-02
    9021.942     27.750   3.000  1.05802E+00  1.00065E+00  5.73698E-02
    9022.862     28.670   3.040  1.06010E+00  1.00000E+00  6.00978E-02
    9023.795     29.603   3.080  1.05657E+00  9.99365E-01  5.72046E-02
    9024.740     30.548   3.120  1.04896E+00  9.98778E-01  5.01820E-02
    9025.697     31.505   3.160  1.03851E+00  9.98204E-01  4.03108E-02
    9026.666     32.474   3.200  1.02616E+00  9.97644E-01  2.85115E-02
    9027.648     33.456   3.240  1.01283E+00  9.97144E-01  1.56839E-02
    9028.641     34.449   3.280  9.99417E-01  9.96684E-01  2.73276E-03
    9029.647     35.455   3.320  9.86730E-01  9.96265E-01 -9.53529E-03
    9030.665     36.473   3.360  9.75425E-01  9.95890E-01 -2.04650E-02
    9031.695     37.503   3.400  9.66146E-01  9.95580E-01 -2.94338E-02
    9032.738     38.546   3.440  9.59434E-01  9.95313E-01 -3.58790E-02
    9033.792     39.600   3.480  9.55769E-01  9.95088E-01 -3.93192E-02
    9034.859     40.667   3.520  9.55495E-01  9.94907E-01 -3.94125E-02
    9035.938     41.746   3.560  9.58658E-01  9.94770E-01 -3.61124E-02
    9037.029     42.837   3.600  9.64961E-01  9.94698E-01 -2.97373E-02
    9038.133     43.941   3.640  9.73592E-01  9.94670E-01 -2.10781E-02
    9039.248     45.056   3.680  9.83437E-01  9.94685E-01 -1.12488E-02
    9040.376     46.184   3.720  9.93169E-01  9.94744E-01 -1.57539E-03
    9041.516     47.324   3.760  1.00155E+00  9.94867E-01  6.68367E-03
    9042.668     48.476   3.800  1.00763E+00  9.95030E-01  1.25981E-02
    9043.832     49.640   3.840  1.01084E+00  9.95212E-01  1.56295E-02
    9045.009     50.817   3.880  1.01111E+00  9.95453E-01  1.56554E-02
    9046.198     52.006   3.920  1.00867E+00  9.95712E-01  1.29559E-02
    9047.399     53.207   3.960  1.00402E+00  9.96030E-01  7.99218E-03
    9048.612     54.420   4.000  9.97801E-01  9.96362E-01  1.43882E-03
    9049.837     55.645   4.040  9.90879E-01  9.96727E-01 -5.84828E-03
    9051.075     56.882   4.080  9.84379E-01  9.97126E-01 -1.27470E-02
    9052.324     58.132   4.120  9.79499E-01  9.97536E-01 -1.80377E-02
    9053.586     59.394   4.160  9.77196E-01  9.97974E-01 -2.07784E-02
    9054.860     60.668   4.200  9.77582E-01  9.98418E-01 -2.08358E-02
    9056.146     61.954   4.240  9.80113E-01  9.98868E-01 -1.87547E-02
    9057.445     63.253   4.280  9.84049E-01  9.99343E-01 -1.52940E-02
    9058.755     64.563   4.320  9.88890E-01  9.99821E-01 -1.09314E-02
    9060.078     65.886   4.360  9.94510E-01  1.00030E+00 -5.79084E-03
    9061.413     67.221   4.400  1.00088E+00  1.00078E+00  1.04999E-04
    9062.760     68.568   4.440  1.00783E+00  1.00126E+00  6.56932E-03
    9064.120     69.928   4.480  1.01501E+00  1.00173E+00  1.32807E-02
    9065.491     71.299   4.520  1.02219E+00  1.00217E+00  2.00185E-02
    9066.875     72.683   4.560  1.02933E+00  1.00264E+00  2.66950E-02
    9068.271     74.079   4.600  1.03620E+00  1.00307E+00  3.31358E-02
    9069.679     75.487   4.640  1.04234E+00  1.00347E+00  3.88746E-02
    9071.100     76.908   4.680  1.04711E+00  1.00388E+00  4.32313E-02
    9072.532     78.340   4.720  1.04993E+00  1.00424E+00  4.56907E-02
    9073.977     79.785   4.760  1.05081E+00  1.00459E+00  4.62266E-02
    9075.434     81.242   4.800  1.05010E+00  1.00492E+00  4.51812E-02
    9076.903     82.711   4.840  1.04793E+00  1.00520E+00  4.27302E-02
    9078.384     84.192   4.880  1.04389E+00  1.00546E+00  3.84268E-02
    9079.878     85.686   4.920  1.03703E+00  1.00571E+00  3.13220E-02
    9081.384     87.192   4.960  1.02657E+00  1.00590E+00  2.06699E-02
    9082.902     88.710   5.000  1.01269E+00  1.00607E+00  6.62213E-03
    9084.432     90.240   5.040  9.96431E-01  1.00620E+00 -9.77260E-03
    9085.974     91.782   5.080  9.79277E-01  1.00628E+00 -2.69979E-02
    9087.528     93.336   5.120  9.62892E-01  1.00635E+00 -4.34600E-02
    9089.095     94.903   5.160  9.48712E-01  1.00637E+00 -5.76553E-02
    9090.674     96.482   5.200  9.38092E-01  1.00634E+00 -6.82493E-02
    9092.265     98.073   5.240  9.31987E-01  1.00628E+00 -7.42911E-02
    9093.868     99.676   5.280  9.30723E-01  1.00620E+00 -7.54762E-02
    9095.484    101.292   5.320  9.33736E-01  1.00608E+00 -7.23434E-02
    9097.111    102.919   5.360  9.39661E-01  1.00590E+00 -6.62377E-02
    9098.751    104.559   5.400  9.47058E-01  1.00570E+00 -5.86458E-02
    9100.403    106.211   5.440  9.55211E-01  1.00549E+00 -5.02820E-02
    9102.067    107.875   5.480  9.64488E-01  1.00522E+00 -4.07335E-02
    9103.744    109.552   5.520  9.75863E-01  1.00491E+00 -2.90504E-02
    9105.432    111.240   5.560  9.90014E-01  1.00459E+00 -1.45787E-02
    9107.133    112.941   5.600  1.00678E+00  1.00426E+00  2.52393E-03
    9108.846    114.654   5.640  1.02498E+00  1.00387E+00  2.11081E-02
    9110.571    116.379   5.680  1.04256E+00  1.00347E+00  3.90973E-02
    9112.309    118.117   5.720  1.05702E+00  1.00303E+00  5.39840E-02
    9114.058    119.866   5.760  1.06612E+00  1.00259E+00  6.35278E-02
    9115.820    121.628   5.800  1.06880E+00  1.00212E+00  6.66881E-02
    9117.594    123.402   5.840  1.06600E+00  1.00164E+00  6.43571E-02
    9119.380    125.188   5.880  1.06016E+00  1.00116E+00  5.90041E-02
    9121.178    126.986   5.920  1.05389E+00  1.00066E+00  5.32324E-02
    9122.989    128.797   5.960  1.04870E+00  1.00013E+00  4.85643E-02
    9124.811    130.619   6.000  1.04459E+00  9.99624E-01  4.49652E-02
