# # comment:                                                     FEFF 9.9.1  
# # Source:
# # Structure
# # Reduced
# # space
# # abc:
# # angles:
# # sites:
# # POT  SCF 100  7.0000   0, screened core-hole, AFOLP (folp(0)= 1.150)
# # Abs   Z=29 Rmt= 1.251 Rnm= 1.340 K  shell
# # Pot 1 Z= 3 Rmt= 1.381 Rnm= 1.454
# # Pot 2 Z=29 Rmt= 1.251 Rnm= 1.340
# # Pot 3 Z=14 Rmt= 1.002 Rnm= 1.219
# # Pot 4 Z= 8 Rmt= 0.916 Rnm= 1.084
# # Gam_ch=1.729E+00 H-L exch Vi= 0.000E+00 Vr= 0.000E+00
# # Mu=-7.582E+00eV kf=2.340E+00 Vint=-1.683E+01eV Rs_int= 1.550
# FMS rfms= 9.0000
# # PATH  Rmax=-1.000,  Keep_limit= 0.00, Heap_limit 0.00  Pwcrit= 2.50%
#  S02=0.950  Temp=   0.00  Debye_temp=   0.00  Global_sig2= 0.00000
#  Energy zero shift, vr, vi    0.00000E+00   0.00000E+00
#  Curved wave amplitude ratio filter   4.000%
#     file         sig2 tot  cw amp ratio   deg  nlegs   reff  inp sig2
#     0/   0 paths used
#  xsedge+ 50, used to normalize mu           2.4784E-04
#  -----------------------------------------------------------------------
#  omega    e    k    mu    mu0     chi     @#
    8983.464    -11.392  -1.000  3.62427E-02  5.16908E-02 -1.54481E-02
    8983.762    -11.093  -0.960  3.80555E-02  5.54026E-02 -1.73471E-02
    8984.049    -10.806  -0.920  3.99945E-02  5.95249E-02 -1.95304E-02
    8984.323    -10.532  -0.880  4.20718E-02  6.41179E-02 -2.20461E-02
    8984.585    -10.270  -0.840  4.43009E-02  6.92519E-02 -2.49510E-02
    8984.835    -10.020  -0.800  4.66970E-02  7.50082E-02 -2.83111E-02
    8985.073     -9.782  -0.760  4.92768E-02  8.14802E-02 -3.22034E-02
    8985.299     -9.557  -0.720  5.20585E-02  8.87735E-02 -3.67150E-02
    8985.512     -9.343  -0.680  5.50609E-02  9.70042E-02 -4.19433E-02
    8985.713     -9.142  -0.640  5.83031E-02  1.06295E-01 -4.79919E-02
    8985.902     -8.953  -0.600  6.18021E-02  1.16766E-01 -5.49642E-02
    8986.079     -8.776  -0.560  6.55700E-02  1.28521E-01 -6.29509E-02
    8986.244     -8.612  -0.520  6.96093E-02  1.41620E-01 -7.20104E-02
    8986.396     -8.459  -0.480  7.39072E-02  1.56049E-01 -8.21419E-02
    8986.536     -8.319  -0.440  7.84280E-02  1.71682E-01 -9.32543E-02
    8986.664     -8.191  -0.400  8.31075E-02  1.88247E-01 -1.05140E-01
    8986.780     -8.075  -0.360  8.78508E-02  2.05317E-01 -1.17466E-01
    8986.884     -7.972  -0.320  9.25367E-02  2.22336E-01 -1.29799E-01
    8986.975     -7.880  -0.280  9.70289E-02  2.38688E-01 -1.41660E-01
    8987.054     -7.801  -0.240  1.01191E-01  2.53781E-01 -1.52590E-01
    8987.121     -7.734  -0.200  1.04903E-01  2.67119E-01 -1.62216E-01
    8987.176     -7.679  -0.160  1.08064E-01  2.78337E-01 -1.70274E-01
    8987.219     -7.636  -0.120  1.10601E-01  2.87205E-01 -1.76605E-01
    8987.249     -7.606  -0.080  1.12462E-01  2.93594E-01 -1.81132E-01
    8987.274     -7.582   0.000  1.14007E-01  2.98726E-01 -1.84719E-01
    8987.329     -7.527   0.120  1.17442E-01  3.10303E-01 -1.92861E-01
    8987.371     -7.484   0.160  1.20091E-01  3.19297E-01 -1.99206E-01
    8987.426     -7.429   0.200  1.23510E-01  3.30770E-01 -2.07259E-01
    8987.493     -7.362   0.240  1.27717E-01  3.44584E-01 -2.16867E-01
    8987.572     -7.283   0.280  1.32706E-01  3.60445E-01 -2.27739E-01
    8987.664     -7.191   0.320  1.38454E-01  3.77946E-01 -2.39493E-01
    8987.768     -7.088   0.360  1.44980E-01  3.96590E-01 -2.51611E-01
    8987.883     -6.972   0.400  1.52278E-01  4.15842E-01 -2.63564E-01
    8988.011     -6.844   0.440  1.60359E-01  4.35173E-01 -2.74814E-01
    8988.152     -6.704   0.480  1.69355E-01  4.54250E-01 -2.84895E-01
    8988.304     -6.551   0.520  1.79361E-01  4.72795E-01 -2.93434E-01
    8988.469     -6.387   0.560  1.90505E-01  4.90696E-01 -3.00191E-01
    8988.645     -6.210   0.600  2.02903E-01  5.07945E-01 -3.05041E-01
    8988.834     -6.021   0.640  2.16612E-01  5.24577E-01 -3.07965E-01
    8989.035     -5.820   0.680  2.31634E-01  5.40663E-01 -3.09029E-01
    8989.249     -5.606   0.720  2.48053E-01  5.56304E-01 -3.08251E-01
    8989.474     -5.381   0.760  2.66046E-01  5.71583E-01 -3.05537E-01
    8989.712     -5.143   0.800  2.86214E-01  5.86591E-01 -3.00377E-01
    8989.962     -4.893   0.840  3.09615E-01  6.01369E-01 -2.91755E-01
    8990.224     -4.631   0.880  3.37520E-01  6.16007E-01 -2.78486E-01
    8990.499     -4.357   0.920  3.70418E-01  6.30497E-01 -2.60079E-01
    8990.785     -4.070   0.960  4.06999E-01  6.44902E-01 -2.37904E-01
    8991.084     -3.772   1.000  4.43852E-01  6.59219E-01 -2.15368E-01
    8991.395     -3.461   1.040  4.77286E-01  6.73452E-01 -1.96166E-01
    8991.718     -3.138   1.080  5.06128E-01  6.87616E-01 -1.81488E-01
    8992.053     -2.802   1.120  5.31485E-01  7.01685E-01 -1.70200E-01
    8992.400     -2.455   1.160  5.53607E-01  7.15667E-01 -1.62059E-01
    8992.760     -2.095   1.200  5.71939E-01  7.29541E-01 -1.57602E-01
    8993.132     -1.723   1.240  5.89725E-01  7.43267E-01 -1.53542E-01
    8993.516     -1.339   1.280  6.12327E-01  7.56823E-01 -1.44495E-01
    8993.912     -0.943   1.320  6.40015E-01  7.70221E-01 -1.30206E-01
    8994.321     -0.535   1.360  6.68661E-01  7.83395E-01 -1.14735E-01
    8994.741     -0.114   1.400  6.98396E-01  7.96338E-01 -9.79421E-02
    8995.174      0.319   1.440  7.34707E-01  8.09020E-01 -7.43125E-02
    8995.619      0.764   1.480  7.79248E-01  8.21411E-01 -4.21635E-02
    8996.076      1.221   1.520  8.23872E-01  8.33505E-01 -9.63246E-03
    8996.546      1.690   1.560  8.56371E-01  8.45248E-01  1.11224E-02
    8997.027      2.172   1.600  8.73988E-01  8.56657E-01  1.73313E-02
    8997.521      2.666   1.640  8.88309E-01  8.67681E-01  2.06280E-02
    8998.027      3.172   1.680  9.10272E-01  8.78312E-01  3.19600E-02
    8998.545      3.690   1.720  9.35419E-01  8.88547E-01  4.68725E-02
    8999.076      4.220   1.760  9.59074E-01  8.98357E-01  6.07174E-02
    8999.618      4.763   1.800  9.86840E-01  9.07738E-01  7.91020E-02
    9000.173      5.318   1.840  1.02389E+00  9.16668E-01  1.07222E-01
    9000.740      5.884   1.880  1.06821E+00  9.25143E-01  1.43071E-01
    9001.319      6.464   1.920  1.11135E+00  9.33184E-01  1.78166E-01
    9001.910      7.055   1.960  1.14701E+00  9.40768E-01  2.06244E-01
    9002.514      7.658   2.000  1.17517E+00  9.47897E-01  2.27269E-01
    9003.129      8.274   2.040  1.19785E+00  9.54571E-01  2.43277E-01
    9003.757      8.902   2.080  1.21985E+00  9.60795E-01  2.59055E-01
    9004.397      9.542   2.120  1.24300E+00  9.66570E-01  2.76431E-01
    9005.050     10.194   2.160  1.26265E+00  9.71923E-01  2.90728E-01
    9005.714     10.859   2.200  1.27302E+00  9.76857E-01  2.96162E-01
    9006.391     11.535   2.240  1.27173E+00  9.81358E-01  2.90374E-01
    9007.080     12.224   2.280  1.26309E+00  9.85474E-01  2.77621E-01
    9007.781     12.925   2.320  1.25143E+00  9.89190E-01  2.62238E-01
    9008.494     13.639   2.360  1.23363E+00  9.92532E-01  2.41093E-01
    9009.219     14.364   2.400  1.20516E+00  9.95531E-01  2.09630E-01
    9009.957     15.102   2.440  1.16797E+00  9.98154E-01  1.69815E-01
    9010.707     15.851   2.480  1.12974E+00  1.00047E+00  1.29269E-01
    9011.469     16.613   2.520  1.09922E+00  1.00248E+00  9.67391E-02
    9012.243     17.388   2.560  1.08114E+00  1.00419E+00  7.69491E-02
    9013.029     18.174   2.600  1.07111E+00  1.00561E+00  6.54986E-02
    9013.828     18.972   2.640  1.05498E+00  1.00678E+00  4.82082E-02
    9014.639     19.783   2.680  1.02291E+00  1.00770E+00  1.52094E-02
    9015.462     20.606   2.720  9.77900E-01  1.00840E+00 -3.05036E-02
    9016.297     21.441   2.760  9.39158E-01  1.00888E+00 -6.97224E-02
    9017.144     22.289   2.800  9.15632E-01  1.00918E+00 -9.35452E-02
    9018.004     23.148   2.840  9.02499E-01  1.00928E+00 -1.06782E-01
    9018.875     24.020   2.880  8.95533E-01  1.00922E+00 -1.13687E-01
    9019.759     24.904   2.920  8.91025E-01  1.00902E+00 -1.17999E-01
    9020.655     25.800   2.960  8.87563E-01  1.00868E+00 -1.21114E-01
    9021.564     26.708   3.000  8.85214E-01  1.00821E+00 -1.22994E-01
    9022.484     27.629   3.040  8.84140E-01  1.00764E+00 -1.23504E-01
    9023.417     28.561   3.080  8.84380E-01  1.00699E+00 -1.22611E-01
    9024.362     29.506   3.120  8.85882E-01  1.00624E+00 -1.20353E-01
    9025.319     30.463   3.160  8.88433E-01  1.00542E+00 -1.16991E-01
    9026.288     31.433   3.200  8.91840E-01  1.00456E+00 -1.12724E-01
    9027.269     32.414   3.240  8.96146E-01  1.00364E+00 -1.07492E-01
    9028.263     33.408   3.280  9.01227E-01  1.00269E+00 -1.01466E-01
    9029.269     34.414   3.320  9.06974E-01  1.00171E+00 -9.47392E-02
    9030.287     35.432   3.360  9.13392E-01  1.00072E+00 -8.73307E-02
    9031.317     36.462   3.400  9.20361E-01  9.99704E-01 -7.93429E-02
    9032.360     37.504   3.440  9.27617E-01  9.98682E-01 -7.10649E-02
    9033.414     38.559   3.480  9.34937E-01  9.97682E-01 -6.27454E-02
    9034.481     39.626   3.520  9.42090E-01  9.96667E-01 -5.45769E-02
    9035.560     40.705   3.560  9.48968E-01  9.95701E-01 -4.67330E-02
    9036.651     41.796   3.600  9.55469E-01  9.94744E-01 -3.92745E-02
    9037.755     42.899   3.640  9.61609E-01  9.93798E-01 -3.21891E-02
    9038.870     44.015   3.680  9.67362E-01  9.92889E-01 -2.55276E-02
    9039.998     45.143   3.720  9.72708E-01  9.92038E-01 -1.93307E-02
    9041.138     46.282   3.760  9.77690E-01  9.91206E-01 -1.35156E-02
    9042.290     47.435   3.800  9.82547E-01  9.90436E-01 -7.88825E-03
    9043.454     48.599   3.840  9.87469E-01  9.89686E-01 -2.21756E-03
    9044.631     49.775   3.880  9.92725E-01  9.89001E-01  3.72370E-03
    9045.819     50.964   3.920  9.98439E-01  9.88361E-01  1.00789E-02
    9047.020     52.165   3.960  1.00457E+00  9.87787E-01  1.67815E-02
    9048.233     53.378   4.000  1.01090E+00  9.87260E-01  2.36391E-02
    9049.459     54.603   4.040  1.01724E+00  9.86777E-01  3.04619E-02
    9050.696     55.841   4.080  1.02349E+00  9.86339E-01  3.71526E-02
    9051.946     57.091   4.120  1.02969E+00  9.85970E-01  4.37213E-02
    9053.208     58.352   4.160  1.03601E+00  9.85670E-01  5.03398E-02
    9054.482     59.627   4.200  1.04249E+00  9.85394E-01  5.70953E-02
    9055.768     60.913   4.240  1.04903E+00  9.85187E-01  6.38381E-02
    9057.067     62.211   4.280  1.05522E+00  9.85048E-01  7.01708E-02
    9058.377     63.522   4.320  1.06050E+00  9.84955E-01  7.55482E-02
    9059.700     64.845   4.360  1.06429E+00  9.84905E-01  7.93892E-02
    9061.035     66.180   4.400  1.06610E+00  9.84898E-01  8.12015E-02
    9062.382     67.527   4.440  1.06565E+00  9.84954E-01  8.06934E-02
    9063.742     68.886   4.480  1.06274E+00  9.85031E-01  7.77119E-02
    9065.113     70.258   4.520  1.05747E+00  9.85171E-01  7.22960E-02
    9066.497     71.642   4.560  1.05006E+00  9.85329E-01  6.47336E-02
    9067.893     73.038   4.600  1.04100E+00  9.85547E-01  5.54508E-02
    9069.301     74.446   4.640  1.03077E+00  9.85803E-01  4.49715E-02
    9070.722     75.866   4.680  1.01996E+00  9.86073E-01  3.38818E-02
    9072.154     77.299   4.720  1.00909E+00  9.86379E-01  2.27114E-02
    9073.599     78.744   4.760  9.98621E-01  9.86717E-01  1.19036E-02
    9075.056     80.200   4.800  9.88839E-01  9.87066E-01  1.77344E-03
    9076.525     81.670   4.840  9.79916E-01  9.87446E-01 -7.53052E-03
    9078.006     83.151   4.880  9.71899E-01  9.87855E-01 -1.59565E-02
    9079.500     84.644   4.920  9.64813E-01  9.88249E-01 -2.34363E-02
    9081.005     86.150   4.960  9.58862E-01  9.88669E-01 -2.98073E-02
    9082.523     87.668   5.000  9.54316E-01  9.89114E-01 -3.47983E-02
    9084.053     89.198   5.040  9.51326E-01  9.89539E-01 -3.82136E-02
    9085.596     90.740   5.080  9.49931E-01  9.89964E-01 -4.00327E-02
    9087.150     92.295   5.120  9.49963E-01  9.90409E-01 -4.04452E-02
    9088.717     93.862   5.160  9.51041E-01  9.90829E-01 -3.97879E-02
    9090.296     95.440   5.200  9.52820E-01  9.91244E-01 -3.84240E-02
    9091.887     97.031   5.240  9.54881E-01  9.91630E-01 -3.67487E-02
    9093.490     98.635   5.280  9.56940E-01  9.92033E-01 -3.50922E-02
    9095.105    100.250   5.320  9.58741E-01  9.92405E-01 -3.36644E-02
    9096.733    101.878   5.360  9.60263E-01  9.92745E-01 -3.24820E-02
    9098.373    103.518   5.400  9.61668E-01  9.93074E-01 -3.14056E-02
    9100.025    105.170   5.440  9.63174E-01  9.93370E-01 -3.01961E-02
    9101.689    106.834   5.480  9.65021E-01  9.93652E-01 -2.86313E-02
    9103.365    108.510   5.520  9.67297E-01  9.93878E-01 -2.65811E-02
    9105.054    110.199   5.560  9.70043E-01  9.94112E-01 -2.40686E-02
    9106.755    111.900   5.600  9.73036E-01  9.94287E-01 -2.12508E-02
    9108.468    113.613   5.640  9.76004E-01  9.94422E-01 -1.84182E-02
    9110.193    115.338   5.680  9.78651E-01  9.94542E-01 -1.58907E-02
    9111.930    117.075   5.720  9.80727E-01  9.94600E-01 -1.38732E-02
    9113.680    118.825   5.760  9.82327E-01  9.94641E-01 -1.23142E-02
    9115.442    120.586   5.800  9.83684E-01  9.94621E-01 -1.09365E-02
    9117.216    122.360   5.840  9.85170E-01  9.94584E-01 -9.41376E-03
    9119.002    124.146   5.880  9.86913E-01  9.94509E-01 -7.59666E-03
    9120.800    125.945   5.920  9.88791E-01  9.94372E-01 -5.58102E-03
    9122.610    127.755   5.960  9.90597E-01  9.94216E-01 -3.61947E-03
    9124.433    129.578   6.000  9.92075E-01  9.93999E-01 -1.92396E-03
