# # comment:                                                     FEFF 9.9.1  
# # Source:
# # Structure
# # Reduced
# # space
# # abc:
# # angles:
# # sites:
# # POT  SCF 100  7.0000   0, screened core-hole, AFOLP (folp(0)= 1.150)
# # Abs   Z=29 Rmt= 1.238 Rnm= 1.318 K  shell
# # Pot 1 Z=12 Rmt= 1.473 Rnm= 1.556
# # Pot 2 Z=29 Rmt= 1.238 Rnm= 1.318
# # Pot 3 Z=15 Rmt= 0.895 Rnm= 1.147
# # Pot 4 Z= 8 Rmt= 1.021 Rnm= 1.126
# # Gam_ch=1.729E+00 H-L exch Vi= 0.000E+00 Vr= 0.000E+00
# # Mu=-7.822E+00eV kf=2.297E+00 Vint=-1.551E+01eV Rs_int= 1.579
# FMS rfms= 9.0000
# # PATH  Rmax=-1.000,  Keep_limit= 0.00, Heap_limit 0.00  Pwcrit= 2.50%
#  S02=0.950  Temp=   0.00  Debye_temp=   0.00  Global_sig2= 0.00000
#  Energy zero shift, vr, vi    0.00000E+00   0.00000E+00
#  Curved wave amplitude ratio filter   4.000%
#     file         sig2 tot  cw amp ratio   deg  nlegs   reff  inp sig2
#     0/   0 paths used
#  xsedge+ 50, used to normalize mu           2.4559E-04
#  -----------------------------------------------------------------------
#  omega    e    k    mu    mu0     chi     @#
    8983.475    -11.632  -1.000  3.01227E-02  5.24869E-02 -2.23642E-02
    8983.773    -11.333  -0.960  3.13046E-02  5.62296E-02 -2.49250E-02
    8984.060    -11.046  -0.920  3.25451E-02  6.03809E-02 -2.78358E-02
    8984.334    -10.772  -0.880  3.38496E-02  6.50003E-02 -3.11506E-02
    8984.596    -10.510  -0.840  3.52245E-02  7.01566E-02 -3.49321E-02
    8984.846    -10.260  -0.800  3.66772E-02  7.59296E-02 -3.92525E-02
    8985.084    -10.022  -0.760  3.82166E-02  8.24109E-02 -4.41944E-02
    8985.310     -9.797  -0.720  3.98529E-02  8.97037E-02 -4.98507E-02
    8985.523     -9.583  -0.680  4.15978E-02  9.79213E-02 -5.63235E-02
    8985.724     -9.382  -0.640  4.34635E-02  1.07183E-01 -6.37199E-02
    8985.913     -9.193  -0.600  4.54619E-02  1.17607E-01 -7.21451E-02
    8986.090     -9.017  -0.560  4.76026E-02  1.29292E-01 -8.16894E-02
    8986.254     -8.852  -0.520  4.98892E-02  1.42297E-01 -9.24077E-02
    8986.407     -8.700  -0.480  5.23148E-02  1.56607E-01 -1.04292E-01
    8986.547     -8.559  -0.440  5.48568E-02  1.72097E-01 -1.17240E-01
    8986.675     -8.431  -0.400  5.74721E-02  1.88500E-01 -1.31028E-01
    8986.791     -8.315  -0.360  6.00965E-02  2.05397E-01 -1.45300E-01
    8986.894     -8.212  -0.320  6.26497E-02  2.22242E-01 -1.59592E-01
    8986.986     -8.120  -0.280  6.50467E-02  2.38431E-01 -1.73385E-01
    8987.065     -8.041  -0.240  6.72107E-02  2.53380E-01 -1.86170E-01
    8987.132     -7.974  -0.200  6.90843E-02  2.66599E-01 -1.97515E-01
    8987.187     -7.919  -0.160  7.06331E-02  2.77726E-01 -2.07093E-01
    8987.230     -7.877  -0.120  7.18415E-02  2.86528E-01 -2.14686E-01
    8987.260     -7.846  -0.080  7.27061E-02  2.92873E-01 -2.20167E-01
    8987.285     -7.822   0.000  7.34066E-02  2.97973E-01 -2.24567E-01
    8987.339     -7.767   0.120  7.50216E-02  3.09491E-01 -2.34469E-01
    8987.382     -7.724   0.160  7.61901E-02  3.18432E-01 -2.42242E-01
    8987.437     -7.669   0.200  7.76203E-02  3.29877E-01 -2.52257E-01
    8987.504     -7.602   0.240  7.92834E-02  3.43684E-01 -2.64400E-01
    8987.583     -7.523   0.280  8.10576E-02  3.59576E-01 -2.78518E-01
    8987.675     -7.432   0.320  8.28639E-02  3.77156E-01 -2.94292E-01
    8987.778     -7.328   0.360  8.46624E-02  3.95991E-01 -3.11328E-01
    8987.894     -7.212   0.400  8.63974E-02  4.15516E-01 -3.29118E-01
    8988.022     -7.084   0.440  8.81566E-02  4.35309E-01 -3.47152E-01
    8988.162     -6.944   0.480  8.99973E-02  4.54971E-01 -3.64974E-01
    8988.315     -6.791   0.520  9.20713E-02  4.74275E-01 -3.82204E-01
    8988.479     -6.627   0.560  9.45055E-02  4.93095E-01 -3.98589E-01
    8988.656     -6.450   0.600  9.74932E-02  5.11418E-01 -4.13925E-01
    8988.845     -6.261   0.640  1.01137E-01  5.29274E-01 -4.28137E-01
    8989.046     -6.060   0.680  1.05546E-01  5.46722E-01 -4.41176E-01
    8989.260     -5.847   0.720  1.10865E-01  5.63856E-01 -4.52991E-01
    8989.485     -5.621   0.760  1.17172E-01  5.80705E-01 -4.63533E-01
    8989.723     -5.383   0.800  1.24768E-01  5.97369E-01 -4.72601E-01
    8989.973     -5.133   0.840  1.34022E-01  6.13898E-01 -4.79877E-01
    8990.235     -4.871   0.880  1.45390E-01  6.30287E-01 -4.84897E-01
    8990.509     -4.597   0.920  1.59091E-01  6.46580E-01 -4.87489E-01
    8990.796     -4.310   0.960  1.74776E-01  6.62788E-01 -4.88011E-01
    8991.095     -4.012   1.000  1.92166E-01  6.78914E-01 -4.86748E-01
    8991.406     -3.701   1.040  2.11877E-01  6.94933E-01 -4.83055E-01
    8991.729     -3.378   1.080  2.35041E-01  7.10810E-01 -4.75769E-01
    8992.064     -3.042   1.120  2.62359E-01  7.26548E-01 -4.64188E-01
    8992.411     -2.695   1.160  2.93992E-01  7.42103E-01 -4.48111E-01
    8992.771     -2.335   1.200  3.29880E-01  7.57448E-01 -4.27568E-01
    8993.143     -1.963   1.240  3.69082E-01  7.72536E-01 -4.03454E-01
    8993.527     -1.579   1.280  4.10236E-01  7.87356E-01 -3.77120E-01
    8993.923     -1.183   1.320  4.55338E-01  8.01855E-01 -3.46517E-01
    8994.332     -0.775   1.360  5.08375E-01  8.16021E-01 -3.07646E-01
    8994.752     -0.354   1.400  5.73563E-01  8.29780E-01 -2.56217E-01
    8995.185      0.079   1.440  6.55761E-01  8.43120E-01 -1.87358E-01
    8995.630      0.524   1.480  7.51632E-01  8.56010E-01 -1.04378E-01
    8996.087      0.981   1.520  8.45994E-01  8.68438E-01 -2.24439E-02
    8996.557      1.450   1.560  9.31440E-01  8.80376E-01  5.10641E-02
    8997.038      1.932   1.600  1.01584E+00  8.91776E-01  1.24066E-01
    8997.532      2.426   1.640  1.09211E+00  9.02649E-01  1.89458E-01
    8998.038      2.932   1.680  1.13997E+00  9.12993E-01  2.26980E-01
    8998.556      3.450   1.720  1.14975E+00  9.22762E-01  2.26988E-01
    8999.086      3.980   1.760  1.14011E+00  9.31975E-01  2.08134E-01
    8999.629      4.523   1.800  1.14033E+00  9.40613E-01  1.99720E-01
    9000.184      5.077   1.840  1.15593E+00  9.48716E-01  2.07213E-01
    9000.751      5.644   1.880  1.19355E+00  9.56227E-01  2.37323E-01
    9001.330      6.223   1.920  1.26487E+00  9.63210E-01  3.01662E-01
    9001.921      6.815   1.960  1.35603E+00  9.69631E-01  3.86403E-01
    9002.525      7.418   2.000  1.44150E+00  9.75538E-01  4.65966E-01
    9003.140      8.034   2.040  1.49779E+00  9.80917E-01  5.16870E-01
    9003.768      8.662   2.080  1.50702E+00  9.85818E-01  5.21203E-01
    9004.408      9.302   2.120  1.47395E+00  9.90230E-01  4.83717E-01
    9005.060      9.954   2.160  1.42440E+00  9.94161E-01  4.30241E-01
    9005.725     10.619   2.200  1.37245E+00  9.97665E-01  3.74787E-01
    9006.402     11.295   2.240  1.30811E+00  1.00075E+00  3.07361E-01
    9007.090     11.984   2.280  1.23132E+00  1.00343E+00  2.27888E-01
    9007.791     12.685   2.320  1.16154E+00  1.00574E+00  1.55807E-01
    9008.505     13.398   2.360  1.11766E+00  1.00768E+00  1.09979E-01
    9009.230     14.124   2.400  1.10677E+00  1.00931E+00  9.74579E-02
    9009.968     14.861   2.440  1.11946E+00  1.01062E+00  1.08833E-01
    9010.718     15.611   2.480  1.13484E+00  1.01165E+00  1.23190E-01
    9011.480     16.373   2.520  1.13387E+00  1.01239E+00  1.21477E-01
    9012.254     17.147   2.560  1.11268E+00  1.01291E+00  9.97683E-02
    9013.040     17.934   2.600  1.07886E+00  1.01322E+00  6.56354E-02
    9013.839     18.732   2.640  1.03926E+00  1.01330E+00  2.59565E-02
    9014.649     19.543   2.680  9.97956E-01  1.01324E+00 -1.52794E-02
    9015.472     20.366   2.720  9.60020E-01  1.01298E+00 -5.29608E-02
    9016.308     21.201   2.760  9.28720E-01  1.01259E+00 -8.38719E-02
    9017.155     22.049   2.800  9.02865E-01  1.01208E+00 -1.09211E-01
    9018.014     22.908   2.840  8.82320E-01  1.01144E+00 -1.29123E-01
    9018.886     23.780   2.880  8.65812E-01  1.01072E+00 -1.44908E-01
    9019.770     24.664   2.920  8.52430E-01  1.00992E+00 -1.57486E-01
    9020.666     25.560   2.960  8.41948E-01  1.00906E+00 -1.67111E-01
    9021.574     26.468   3.000  8.34105E-01  1.00813E+00 -1.74029E-01
    9022.495     27.389   3.040  8.28574E-01  1.00719E+00 -1.78614E-01
    9023.428     28.321   3.080  8.25474E-01  1.00620E+00 -1.80730E-01
    9024.373     29.266   3.120  8.24577E-01  1.00519E+00 -1.80614E-01
    9025.330     30.223   3.160  8.25906E-01  1.00417E+00 -1.78266E-01
    9026.299     31.193   3.200  8.29692E-01  1.00317E+00 -1.73479E-01
    9027.280     32.174   3.240  8.35988E-01  1.00215E+00 -1.66166E-01
    9028.274     33.168   3.280  8.44809E-01  1.00117E+00 -1.56358E-01
    9029.280     34.173   3.320  8.56065E-01  1.00021E+00 -1.44146E-01
    9030.298     35.191   3.360  8.69520E-01  9.99291E-01 -1.29770E-01
    9031.328     36.222   3.400  8.84415E-01  9.98386E-01 -1.13971E-01
    9032.370     37.264   3.440  9.00308E-01  9.97542E-01 -9.72335E-02
    9033.425     38.319   3.480  9.16918E-01  9.96718E-01 -7.97997E-02
    9034.492     39.386   3.520  9.34102E-01  9.95959E-01 -6.18568E-02
    9035.571     40.465   3.560  9.51732E-01  9.95246E-01 -4.35137E-02
    9036.662     41.556   3.600  9.69682E-01  9.94602E-01 -2.49202E-02
    9037.765     42.659   3.640  9.87588E-01  9.94008E-01 -6.42005E-03
    9038.881     43.775   3.680  1.00504E+00  9.93483E-01  1.15585E-02
    9040.009     44.902   3.720  1.02166E+00  9.93007E-01  2.86500E-02
    9041.149     46.042   3.760  1.03707E+00  9.92603E-01  4.44675E-02
    9042.301     47.194   3.800  1.05062E+00  9.92250E-01  5.83694E-02
    9043.465     48.359   3.840  1.06161E+00  9.91967E-01  6.96462E-02
    9044.642     49.535   3.880  1.06932E+00  9.91735E-01  7.75880E-02
    9045.830     50.724   3.920  1.07326E+00  9.91575E-01  8.16875E-02
    9047.031     51.925   3.960  1.07345E+00  9.91486E-01  8.19631E-02
    9048.244     53.138   4.000  1.07056E+00  9.91446E-01  7.91178E-02
    9049.470     54.363   4.040  1.06577E+00  9.91455E-01  7.43181E-02
    9050.707     55.601   4.080  1.06036E+00  9.91533E-01  6.88308E-02
    9051.957     56.850   4.120  1.05553E+00  9.91679E-01  6.38496E-02
    9053.219     58.112   4.160  1.05205E+00  9.91851E-01  6.02026E-02
    9054.493     59.386   4.200  1.05034E+00  9.92088E-01  5.82504E-02
    9055.779     60.673   4.240  1.05030E+00  9.92369E-01  5.79312E-02
    9057.077     61.971   4.280  1.05153E+00  9.92713E-01  5.88155E-02
    9058.388     63.282   4.320  1.05320E+00  9.93077E-01  6.01209E-02
    9059.711     64.605   4.360  1.05433E+00  9.93478E-01  6.08491E-02
    9061.046     65.940   4.400  1.05396E+00  9.93917E-01  6.00444E-02
    9062.393     67.287   4.440  1.05140E+00  9.94393E-01  5.70034E-02
    9063.753     68.646   4.480  1.04642E+00  9.94902E-01  5.15156E-02
    9065.124     70.018   4.520  1.03940E+00  9.95424E-01  4.39720E-02
    9066.508     71.402   4.560  1.03115E+00  9.95974E-01  3.51726E-02
    9067.904     72.798   4.600  1.02248E+00  9.96531E-01  2.59476E-02
    9069.312     74.206   4.640  1.01399E+00  9.97094E-01  1.68968E-02
    9070.732     75.626   4.680  1.00606E+00  9.97682E-01  8.38333E-03
    9072.165     77.059   4.720  9.98966E-01  9.98274E-01  6.92455E-04
    9073.610     78.503   4.760  9.93025E-01  9.98866E-01 -5.84153E-03
    9075.067     79.960   4.800  9.88513E-01  9.99456E-01 -1.09426E-02
    9076.536     81.429   4.840  9.85520E-01  1.00004E+00 -1.45219E-02
    9078.017     82.911   4.880  9.83859E-01  1.00060E+00 -1.67452E-02
    9079.511     84.404   4.920  9.83038E-01  1.00118E+00 -1.81424E-02
    9081.016     85.910   4.960  9.82299E-01  1.00173E+00 -1.94281E-02
    9082.534     87.428   5.000  9.81069E-01  1.00224E+00 -2.11733E-02
    9084.064     88.958   5.040  9.79228E-01  1.00275E+00 -2.35190E-02
    9085.607     90.500   5.080  9.77090E-01  1.00324E+00 -2.61484E-02
    9087.161     92.055   5.120  9.75121E-01  1.00367E+00 -2.85519E-02
    9088.728     93.621   5.160  9.73869E-01  1.00409E+00 -3.02238E-02
    9090.307     95.200   5.200  9.73572E-01  1.00448E+00 -3.09046E-02
    9091.898     96.791   5.240  9.74043E-01  1.00484E+00 -3.08001E-02
    9093.501     98.395   5.280  9.74611E-01  1.00515E+00 -3.05379E-02
    9095.116    100.010   5.320  9.74552E-01  1.00541E+00 -3.08602E-02
    9096.744    101.638   5.360  9.73489E-01  1.00566E+00 -3.21693E-02
    9098.384    103.277   5.400  9.71512E-01  1.00584E+00 -3.43290E-02
    9100.036    104.929   5.440  9.69276E-01  1.00600E+00 -3.67272E-02
    9101.700    106.594   5.480  9.67465E-01  1.00610E+00 -3.86342E-02
    9103.376    108.270   5.520  9.66670E-01  1.00615E+00 -3.94825E-02
    9105.065    109.959   5.560  9.67236E-01  1.00616E+00 -3.89283E-02
    9106.766    111.659   5.600  9.69399E-01  1.00613E+00 -3.67346E-02
    9108.479    113.372   5.640  9.73219E-01  1.00606E+00 -3.28385E-02
    9110.204    115.098   5.680  9.78350E-01  1.00592E+00 -2.75671E-02
    9111.941    116.835   5.720  9.84074E-01  1.00576E+00 -2.16840E-02
    9113.691    118.584   5.760  9.89443E-01  1.00556E+00 -1.61152E-02
    9115.452    120.346   5.800  9.93720E-01  1.00529E+00 -1.15728E-02
    9117.226    122.120   5.840  9.96686E-01  1.00499E+00 -8.30283E-03
    9119.013    123.906   5.880  9.98666E-01  1.00467E+00 -6.00418E-03
    9120.811    125.705   5.920  1.00036E+00  1.00429E+00 -3.93150E-03
    9122.621    127.515   5.960  1.00266E+00  1.00387E+00 -1.21094E-03
    9124.444    129.338   6.000  1.00637E+00  1.00342E+00  2.95113E-03
