# # comment:                                                     FEFF 9.9.1  
# # Source:
# # Structure
# # Reduced
# # space
# # abc:
# # angles:
# # sites:
# # POT  SCF 100  7.0000   0, screened core-hole, AFOLP (folp(0)= 1.150)
# # Abs   Z=29 Rmt= 1.244 Rnm= 1.313 K  shell
# # Pot 1 Z=66 Rmt= 1.668 Rnm= 1.714
# # Pot 2 Z=22 Rmt= 1.270 Rnm= 1.398
# # Pot 3 Z=29 Rmt= 1.227 Rnm= 1.303
# # Pot 4 Z= 8 Rmt= 1.031 Rnm= 1.100
# # Gam_ch=1.729E+00 H-L exch Vi= 0.000E+00 Vr= 0.000E+00
# # Mu=-1.045E+01eV kf=2.192E+00 Vint=-1.931E+01eV Rs_int= 1.654
# FMS rfms= 9.0000
# # PATH  Rmax=-1.000,  Keep_limit= 0.00, Heap_limit 0.00  Pwcrit= 2.50%
#  S02=0.950  Temp=   0.00  Debye_temp=   0.00  Global_sig2= 0.00000
#  Energy zero shift, vr, vi    0.00000E+00   0.00000E+00
#  Curved wave amplitude ratio filter   4.000%
#     file         sig2 tot  cw amp ratio   deg  nlegs   reff  inp sig2
#     0/   0 paths used
#  xsedge+ 50, used to normalize mu           2.4874E-04
#  -----------------------------------------------------------------------
#  omega    e    k    mu    mu0     chi     @#
    8984.958    -14.264  -1.000  3.57149E-02  4.89892E-02 -1.32743E-02
    8985.256    -13.965  -0.960  3.74780E-02  5.24289E-02 -1.49509E-02
    8985.543    -13.679  -0.920  3.93562E-02  5.62429E-02 -1.68867E-02
    8985.817    -13.405  -0.880  4.13590E-02  6.04857E-02 -1.91267E-02
    8986.079    -13.142  -0.840  4.34968E-02  6.52208E-02 -2.17240E-02
    8986.329    -12.892  -0.800  4.57809E-02  7.05217E-02 -2.47408E-02
    8986.567    -12.655  -0.760  4.82234E-02  7.64726E-02 -2.82492E-02
    8986.793    -12.429  -0.720  5.08371E-02  8.31688E-02 -3.23317E-02
    8987.006    -12.216  -0.680  5.36351E-02  9.07150E-02 -3.70799E-02
    8987.207    -12.015  -0.640  5.66296E-02  9.92217E-02 -4.25920E-02
    8987.396    -11.826  -0.600  5.98312E-02  1.08797E-01 -4.89659E-02
    8987.573    -11.649  -0.560  6.32459E-02  1.19534E-01 -5.62877E-02
    8987.737    -11.484  -0.520  6.68724E-02  1.31486E-01 -6.46132E-02
    8987.890    -11.332  -0.480  7.06977E-02  1.44640E-01 -7.39422E-02
    8988.030    -11.192  -0.440  7.46917E-02  1.58881E-01 -8.41895E-02
    8988.158    -11.064  -0.400  7.88036E-02  1.73963E-01 -9.51594E-02
    8988.274    -10.948  -0.360  8.29591E-02  1.89498E-01 -1.06539E-01
    8988.378    -10.844  -0.320  8.70633E-02  2.04985E-01 -1.17921E-01
    8988.469    -10.753  -0.280  9.10076E-02  2.19864E-01 -1.28856E-01
    8988.548    -10.674  -0.240  9.46798E-02  2.33599E-01 -1.38919E-01
    8988.615    -10.606  -0.200  9.79741E-02  2.45738E-01 -1.47764E-01
    8988.670    -10.552  -0.160  1.00799E-01  2.55952E-01 -1.55153E-01
    8988.713    -10.509  -0.120  1.03081E-01  2.64028E-01 -1.60947E-01
    8988.743    -10.478  -0.080  1.04764E-01  2.69847E-01 -1.65083E-01
    8988.768    -10.454   0.000  1.06169E-01  2.74522E-01 -1.68354E-01
    8988.823    -10.399   0.120  1.09303E-01  2.85073E-01 -1.75770E-01
    8988.865    -10.357   0.160  1.11770E-01  2.93289E-01 -1.81519E-01
    8988.920    -10.302   0.200  1.14928E-01  3.03755E-01 -1.88827E-01
    8988.987    -10.235   0.240  1.18873E-01  3.16373E-01 -1.97499E-01
    8989.066    -10.155   0.280  1.23615E-01  3.30878E-01 -2.07263E-01
    8989.158    -10.064   0.320  1.29172E-01  3.46913E-01 -2.17741E-01
    8989.261     -9.960   0.360  1.35525E-01  3.64031E-01 -2.28505E-01
    8989.377     -9.844   0.400  1.42673E-01  3.81754E-01 -2.39082E-01
    8989.505     -9.716   0.440  1.50532E-01  3.99633E-01 -2.49101E-01
    8989.645     -9.576   0.480  1.58979E-01  4.17331E-01 -2.58352E-01
    8989.798     -9.424   0.520  1.67874E-01  4.34636E-01 -2.66762E-01
    8989.962     -9.259   0.560  1.77065E-01  4.51451E-01 -2.74386E-01
    8990.139     -9.082   0.600  1.86343E-01  4.67730E-01 -2.81387E-01
    8990.328     -8.893   0.640  1.95819E-01  4.83563E-01 -2.87744E-01
    8990.529     -8.692   0.680  2.06072E-01  4.98972E-01 -2.92900E-01
    8990.743     -8.479   0.720  2.18863E-01  5.14090E-01 -2.95227E-01
    8990.968     -8.253   0.760  2.36924E-01  5.28949E-01 -2.92025E-01
    8991.206     -8.016   0.800  2.63561E-01  5.43672E-01 -2.80112E-01
    8991.456     -7.766   0.840  3.01497E-01  5.58272E-01 -2.56775E-01
    8991.718     -7.504   0.880  3.51208E-01  5.72809E-01 -2.21602E-01
    8991.992     -7.229   0.920  4.07816E-01  5.87335E-01 -1.79519E-01
    8992.279     -6.943   0.960  4.61851E-01  6.01846E-01 -1.39995E-01
    8992.578     -6.644   1.000  5.08911E-01  6.16392E-01 -1.07481E-01
    8992.889     -6.333   1.040  5.54083E-01  6.30936E-01 -7.68532E-02
    8993.212     -6.010   1.080  6.01821E-01  6.45514E-01 -4.36921E-02
    8993.547     -5.675   1.120  6.50598E-01  6.60092E-01 -9.49377E-03
    8993.894     -5.327   1.160  6.99509E-01  6.74656E-01  2.48529E-02
    8994.254     -4.968   1.200  7.42460E-01  6.89207E-01  5.32533E-02
    8994.626     -4.596   1.240  7.50373E-01  7.03702E-01  4.66706E-02
    8995.010     -4.212   1.280  7.04110E-01  7.18115E-01 -1.40053E-02
    8995.406     -3.816   1.320  6.33997E-01  7.32439E-01 -9.84418E-02
    8995.815     -3.407   1.360  5.78573E-01  7.46644E-01 -1.68071E-01
    8996.235     -2.986   1.400  5.59921E-01  7.60680E-01 -2.00759E-01
    8996.668     -2.554   1.440  5.88687E-01  7.74515E-01 -1.85828E-01
    8997.113     -2.109   1.480  6.63358E-01  7.88157E-01 -1.24800E-01
    8997.570     -1.651   1.520  7.63591E-01  8.01535E-01 -3.79438E-02
    8998.040     -1.182   1.560  8.52572E-01  8.14635E-01  3.79372E-02
    8998.521     -0.700   1.600  9.14752E-01  8.27428E-01  8.73240E-02
    8999.015     -0.207   1.640  9.44442E-01  8.39899E-01  1.04543E-01
    8999.521      0.299   1.680  9.22962E-01  8.52019E-01  7.09434E-02
    9000.039      0.817   1.720  8.55175E-01  8.63737E-01 -8.56159E-03
    9000.569      1.348   1.760  7.85429E-01  8.75084E-01 -8.96551E-02
    9001.112      1.890   1.800  7.57725E-01  8.85993E-01 -1.28267E-01
    9001.667      2.445   1.840  7.78641E-01  8.96473E-01 -1.17832E-01
    9002.234      3.012   1.880  8.32086E-01  9.06500E-01 -7.44144E-02
    9002.813      3.591   1.920  9.04507E-01  9.16069E-01 -1.15619E-02
    9003.404      4.182   1.960  9.87561E-01  9.25155E-01  6.24056E-02
    9004.008      4.786   2.000  1.06708E+00  9.33776E-01  1.33305E-01
    9004.623      5.402   2.040  1.12274E+00  9.41929E-01  1.80811E-01
    9005.251      6.029   2.080  1.16063E+00  9.49574E-01  2.11058E-01
    9005.891      6.670   2.120  1.20352E+00  9.56731E-01  2.46792E-01
    9006.544      7.322   2.160  1.26094E+00  9.63422E-01  2.97513E-01
    9007.208      7.986   2.200  1.33175E+00  9.69631E-01  3.62118E-01
    9007.885      8.663   2.240  1.38719E+00  9.75380E-01  4.11812E-01
    9008.573      9.352   2.280  1.38568E+00  9.80652E-01  4.05025E-01
    9009.275     10.053   2.320  1.34653E+00  9.85476E-01  3.61054E-01
    9009.988     10.766   2.360  1.32376E+00  9.89874E-01  3.33891E-01
    9010.713     11.491   2.400  1.31692E+00  9.93813E-01  3.23103E-01
    9011.451     12.229   2.440  1.27975E+00  9.97362E-01  2.82392E-01
    9012.201     12.979   2.480  1.19552E+00  1.00051E+00  1.95016E-01
    9012.963     13.741   2.520  1.09776E+00  1.00326E+00  9.45062E-02
    9013.737     14.515   2.560  1.01817E+00  1.00564E+00  1.25287E-02
    9014.523     15.301   2.600  9.71865E-01  1.00769E+00 -3.58206E-02
    9015.322     16.100   2.640  9.50819E-01  1.00940E+00 -5.85831E-02
    9016.132     16.911   2.680  9.37725E-01  1.01078E+00 -7.30515E-02
    9016.955     17.734   2.720  9.28437E-01  1.01188E+00 -8.34441E-02
    9017.791     18.569   2.760  9.23269E-01  1.01268E+00 -8.94150E-02
    9018.638     19.416   2.800  9.22051E-01  1.01326E+00 -9.12047E-02
    9019.497     20.276   2.840  9.23204E-01  1.01356E+00 -9.03584E-02
    9020.369     21.147   2.880  9.23671E-01  1.01366E+00 -8.99844E-02
    9021.253     22.031   2.920  9.20723E-01  1.01354E+00 -9.28204E-02
    9022.149     22.927   2.960  9.13352E-01  1.01323E+00 -9.98823E-02
    9023.058     23.836   3.000  9.02307E-01  1.01276E+00 -1.10449E-01
    9023.978     24.756   3.040  8.89306E-01  1.01212E+00 -1.22813E-01
    9024.911     25.689   3.080  8.76341E-01  1.01133E+00 -1.34990E-01
    9025.856     26.634   3.120  8.65477E-01  1.01044E+00 -1.44961E-01
    9026.813     27.591   3.160  8.58059E-01  1.00943E+00 -1.51370E-01
    9027.782     28.560   3.200  8.55228E-01  1.00833E+00 -1.53105E-01
    9028.763     29.542   3.240  8.57617E-01  1.00715E+00 -1.49537E-01
    9029.757     30.535   3.280  8.64986E-01  1.00590E+00 -1.40913E-01
    9030.763     31.541   3.320  8.76452E-01  1.00457E+00 -1.28120E-01
    9031.781     32.559   3.360  8.90864E-01  1.00322E+00 -1.12360E-01
    9032.811     33.589   3.400  9.06674E-01  1.00184E+00 -9.51651E-02
    9033.853     34.632   3.440  9.21957E-01  1.00042E+00 -7.84662E-02
    9034.908     35.686   3.480  9.35636E-01  9.99020E-01 -6.33832E-02
    9035.975     36.753   3.520  9.47628E-01  9.97593E-01 -4.99651E-02
    9037.054     37.832   3.560  9.58785E-01  9.96168E-01 -3.73827E-02
    9038.145     38.923   3.600  9.70272E-01  9.94769E-01 -2.44969E-02
    9039.248     40.027   3.640  9.82919E-01  9.93379E-01 -1.04597E-02
    9040.364     41.142   3.680  9.96883E-01  9.92022E-01  4.86082E-03
    9041.492     42.270   3.720  1.01150E+00  9.90703E-01  2.08015E-02
    9042.632     43.410   3.760  1.02550E+00  9.89422E-01  3.60777E-02
    9043.784     44.562   3.800  1.03693E+00  9.88182E-01  4.87478E-02
    9044.948     45.726   3.840  1.04342E+00  9.86987E-01  5.64295E-02
    9046.125     46.903   3.880  1.04312E+00  9.85860E-01  5.72621E-02
    9047.313     48.092   3.920  1.03542E+00  9.84781E-01  5.06409E-02
    9048.514     49.293   3.960  1.02161E+00  9.83774E-01  3.78379E-02
    9049.727     50.506   4.000  1.00466E+00  9.82840E-01  2.18173E-02
    9050.953     51.731   4.040  9.88266E-01  9.81958E-01  6.30782E-03
    9052.190     52.968   4.080  9.76058E-01  9.81150E-01 -5.09159E-03
    9053.440     54.218   4.120  9.70708E-01  9.80415E-01 -9.70766E-03
    9054.702     55.480   4.160  9.73592E-01  9.79736E-01 -6.14434E-03
    9055.976     56.754   4.200  9.84627E-01  9.79154E-01  5.47239E-03
    9057.262     58.040   4.240  1.00217E+00  9.78628E-01  2.35443E-02
    9058.560     59.339   4.280  1.02340E+00  9.78176E-01  4.52242E-02
    9059.871     60.649   4.320  1.04476E+00  9.77799E-01  6.69658E-02
    9061.194     61.972   4.360  1.06279E+00  9.77477E-01  8.53133E-02
    9062.529     63.307   4.400  1.07484E+00  9.77252E-01  9.75850E-02
    9063.876     64.654   4.440  1.07951E+00  9.77080E-01  1.02429E-01
    9065.236     66.014   4.480  1.07660E+00  9.76981E-01  9.96214E-02
    9066.607     67.385   4.520  1.06711E+00  9.76933E-01  9.01728E-02
    9067.991     68.769   4.560  1.05340E+00  9.76958E-01  7.64438E-02
    9069.387     70.165   4.600  1.03873E+00  9.77055E-01  6.16782E-02
    9070.795     71.573   4.640  1.02615E+00  9.77202E-01  4.89441E-02
    9072.215     72.994   4.680  1.01750E+00  9.77417E-01  4.00868E-02
    9073.648     74.426   4.720  1.01288E+00  9.77677E-01  3.52039E-02
    9075.093     75.871   4.760  1.01101E+00  9.77980E-01  3.30283E-02
    9076.550     77.328   4.800  1.01009E+00  9.78326E-01  3.17631E-02
    9078.019     78.797   4.840  1.00859E+00  9.78734E-01  2.98521E-02
    9079.500     80.278   4.880  1.00557E+00  9.79160E-01  2.64097E-02
    9080.994     81.772   4.920  1.00062E+00  9.79623E-01  2.09924E-02
    9082.499     83.278   4.960  9.93487E-01  9.80123E-01  1.33645E-02
    9084.017     84.796   5.000  9.84162E-01  9.80658E-01  3.50318E-03
    9085.547     86.326   5.040  9.72816E-01  9.81226E-01 -8.41030E-03
    9087.090     87.868   5.080  9.59763E-01  9.81802E-01 -2.20385E-02
    9088.644     89.422   5.120  9.45470E-01  9.82382E-01 -3.69113E-02
    9090.211     90.989   5.160  9.30594E-01  9.82965E-01 -5.23715E-02
    9091.790     92.568   5.200  9.16003E-01  9.83576E-01 -6.75725E-02
    9093.381     94.159   5.240  9.02579E-01  9.84188E-01 -8.16093E-02
    9094.984     95.762   5.280  8.91188E-01  9.84798E-01 -9.36102E-02
    9096.599     97.378   5.320  8.82596E-01  9.85382E-01 -1.02786E-01
    9098.227     99.005   5.360  8.77551E-01  9.85985E-01 -1.08434E-01
    9099.867    100.645   5.400  8.76490E-01  9.86557E-01 -1.10068E-01
    9101.519    102.297   5.440  8.79506E-01  9.87098E-01 -1.07592E-01
    9103.183    103.961   5.480  8.86217E-01  9.87631E-01 -1.01414E-01
    9104.859    105.638   5.520  8.95975E-01  9.88155E-01 -9.21795E-02
    9106.548    107.326   5.560  9.08471E-01  9.88643E-01 -8.01715E-02
    9108.249    109.027   5.600  9.24167E-01  9.89093E-01 -6.49264E-02
    9109.962    110.740   5.640  9.43879E-01  9.89504E-01 -4.56256E-02
    9111.687    112.465   5.680  9.67898E-01  9.89875E-01 -2.19773E-02
    9113.424    114.203   5.720  9.95193E-01  9.90206E-01  4.98738E-03
    9115.174    115.952   5.760  1.02346E+00  9.90496E-01  3.29662E-02
    9116.936    117.714   5.800  1.04995E+00  9.90745E-01  5.92022E-02
    9118.709    119.488   5.840  1.07230E+00  9.90951E-01  8.13519E-02
    9120.496    121.274   5.880  1.08887E+00  9.91113E-01  9.77614E-02
    9122.294    123.072   5.920  1.09833E+00  9.91205E-01  1.07125E-01
    9124.104    124.883   5.960  1.09919E+00  9.91244E-01  1.07947E-01
    9125.927    126.705   6.000  1.08960E+00  9.91209E-01  9.83929E-02
