# # comment:                                                     FEFF 9.9.1  
# # Source:
# # Structure
# # Reduced
# # space
# # abc:
# # angles:
# # sites:
# # POT  SCF 100  7.0000   0, screened core-hole, AFOLP (folp(0)= 1.150)
# # Abs   Z=29 Rmt= 1.220 Rnm= 1.286 K  shell
# # Pot 1 Z=12 Rmt= 1.394 Rnm= 1.469
# # Pot 2 Z=29 Rmt= 1.220 Rnm= 1.286
# # Pot 3 Z= 8 Rmt= 1.009 Rnm= 1.103
# # Gam_ch=1.729E+00 H-L exch Vi= 0.000E+00 Vr= 0.000E+00
# # Mu=-9.444E+00eV kf=2.132E+00 Vint=-1.723E+01eV Rs_int= 1.701
# FMS rfms= 9.0000
# # PATH  Rmax=-1.000,  Keep_limit= 0.00, Heap_limit 0.00  Pwcrit= 2.50%
#  S02=0.950  Temp=   0.00  Debye_temp=   0.00  Global_sig2= 0.00000
#  Energy zero shift, vr, vi    0.00000E+00   0.00000E+00
#  Curved wave amplitude ratio filter   4.000%
#     file         sig2 tot  cw amp ratio   deg  nlegs   reff  inp sig2
#     0/   0 paths used
#  xsedge+ 50, used to normalize mu           2.4620E-04
#  -----------------------------------------------------------------------
#  omega    e    k    mu    mu0     chi     @#
    8984.247    -13.254  -1.000  2.89396E-02  5.23458E-02 -2.34061E-02
    8984.546    -12.955  -0.960  3.00541E-02  5.60762E-02 -2.60220E-02
    8984.833    -12.669  -0.920  3.12281E-02  6.02139E-02 -2.89858E-02
    8985.107    -12.394  -0.880  3.24683E-02  6.48180E-02 -3.23497E-02
    8985.369    -12.132  -0.840  3.37833E-02  6.99574E-02 -3.61741E-02
    8985.619    -11.882  -0.800  3.51829E-02  7.57116E-02 -4.05287E-02
    8985.857    -11.644  -0.760  3.66794E-02  8.21719E-02 -4.54925E-02
    8986.082    -11.419  -0.720  3.82868E-02  8.94411E-02 -5.11543E-02
    8986.296    -11.206  -0.680  4.00214E-02  9.76325E-02 -5.76112E-02
    8986.497    -11.004  -0.640  4.19005E-02  1.06865E-01 -6.49648E-02
    8986.686    -10.815  -0.600  4.39419E-02  1.17256E-01 -7.33146E-02
    8986.863    -10.639  -0.560  4.61604E-02  1.28905E-01 -8.27450E-02
    8987.027    -10.474  -0.520  4.85638E-02  1.41870E-01 -9.33067E-02
    8987.180    -10.322  -0.480  5.11468E-02  1.56137E-01 -1.04990E-01
    8987.320    -10.181  -0.440  5.38842E-02  1.71581E-01 -1.17696E-01
    8987.448    -10.053  -0.400  5.67251E-02  1.87935E-01 -1.31210E-01
    8987.564     -9.938  -0.360  5.95917E-02  2.04781E-01 -1.45189E-01
    8987.667     -9.834  -0.320  6.23871E-02  2.21576E-01 -1.59189E-01
    8987.759     -9.742  -0.280  6.50089E-02  2.37716E-01 -1.72708E-01
    8987.838     -9.663  -0.240  6.73669E-02  2.52620E-01 -1.85254E-01
    8987.905     -9.596  -0.200  6.93959E-02  2.65799E-01 -1.96403E-01
    8987.960     -9.541  -0.160  7.10602E-02  2.76891E-01 -2.05831E-01
    8988.003     -9.499  -0.120  7.23473E-02  2.85666E-01 -2.13318E-01
    8988.033     -9.468  -0.080  7.32595E-02  2.91990E-01 -2.18731E-01
    8988.057     -9.444   0.000  7.39861E-02  2.97074E-01 -2.23088E-01
    8988.112     -9.389   0.120  7.56748E-02  3.08552E-01 -2.32877E-01
    8988.155     -9.346   0.160  7.68871E-02  3.17479E-01 -2.40592E-01
    8988.210     -9.291   0.200  7.83598E-02  3.28883E-01 -2.50523E-01
    8988.277     -9.224   0.240  7.99841E-02  3.42622E-01 -2.62638E-01
    8988.356     -9.145   0.280  8.16909E-02  3.58463E-01 -2.76772E-01
    8988.448     -9.054   0.320  8.32965E-02  3.75985E-01 -2.92688E-01
    8988.551     -8.950   0.360  8.47250E-02  3.94737E-01 -3.10012E-01
    8988.667     -8.834   0.400  8.58646E-02  4.14193E-01 -3.28329E-01
    8988.795     -8.706   0.440  8.67000E-02  4.33873E-01 -3.47173E-01
    8988.935     -8.566   0.480  8.73352E-02  4.53439E-01 -3.66104E-01
    8989.088     -8.414   0.520  8.79177E-02  4.72643E-01 -3.84725E-01
    8989.252     -8.249   0.560  8.86541E-02  4.91360E-01 -4.02706E-01
    8989.429     -8.072   0.600  8.96788E-02  5.09577E-01 -4.19898E-01
    8989.618     -7.883   0.640  9.11589E-02  5.27325E-01 -4.36166E-01
    8989.819     -7.682   0.680  9.31368E-02  5.44643E-01 -4.51507E-01
    8990.033     -7.469   0.720  9.57137E-02  5.61646E-01 -4.65933E-01
    8990.258     -7.243   0.760  9.89739E-02  5.78404E-01 -4.79430E-01
    8990.496     -7.005   0.800  1.02992E-01  5.94957E-01 -4.91965E-01
    8990.746     -6.755   0.840  1.07903E-01  6.11355E-01 -5.03452E-01
    8991.008     -6.493   0.880  1.13913E-01  6.27635E-01 -5.13722E-01
    8991.282     -6.219   0.920  1.21345E-01  6.43842E-01 -5.22497E-01
    8991.569     -5.933   0.960  1.30611E-01  6.59946E-01 -5.29335E-01
    8991.867     -5.634   1.000  1.42345E-01  6.75973E-01 -5.33628E-01
    8992.178     -5.323   1.040  1.57295E-01  6.91917E-01 -5.34621E-01
    8992.501     -5.000   1.080  1.76222E-01  7.07744E-01 -5.31522E-01
    8992.837     -4.665   1.120  1.99667E-01  7.23418E-01 -5.23751E-01
    8993.184     -4.317   1.160  2.28322E-01  7.38937E-01 -5.10615E-01
    8993.544     -3.957   1.200  2.64212E-01  7.54253E-01 -4.90041E-01
    8993.916     -3.586   1.240  3.10721E-01  7.69340E-01 -4.58619E-01
    8994.300     -3.202   1.280  3.69559E-01  7.84165E-01 -4.14606E-01
    8994.696     -2.805   1.320  4.36443E-01  7.98678E-01 -3.62235E-01
    8995.104     -2.397   1.360  5.00463E-01  8.12867E-01 -3.12404E-01
    8995.525     -1.976   1.400  5.49447E-01  8.26676E-01 -2.77229E-01
    8995.958     -1.543   1.440  5.79764E-01  8.40095E-01 -2.60332E-01
    8996.403     -1.098   1.480  6.02391E-01  8.53074E-01 -2.50683E-01
    8996.860     -0.641   1.520  6.27805E-01  8.65600E-01 -2.37795E-01
    8997.329     -0.172   1.560  6.58573E-01  8.77643E-01 -2.19069E-01
    8997.811      0.310   1.600  7.04802E-01  8.89173E-01 -1.84371E-01
    8998.305      0.804   1.640  7.82465E-01  9.00205E-01 -1.17740E-01
    8998.811      1.310   1.680  8.99125E-01  9.10673E-01 -1.15476E-02
    8999.329      1.828   1.720  1.04341E+00  9.20612E-01  1.22799E-01
    8999.859      2.358   1.760  1.18090E+00  9.30000E-01  2.50897E-01
    9000.402      2.901   1.800  1.27406E+00  9.38817E-01  3.35239E-01
    9000.957      3.455   1.840  1.34334E+00  9.47081E-01  3.96256E-01
    9001.523      4.022   1.880  1.45057E+00  9.54797E-01  4.95774E-01
    9002.103      4.601   1.920  1.60969E+00  9.61948E-01  6.47741E-01
    9002.694      5.193   1.960  1.75978E+00  9.68578E-01  7.91199E-01
    9003.297      5.796   2.000  1.81540E+00  9.74673E-01  8.40724E-01
    9003.913      6.412   2.040  1.78924E+00  9.80239E-01  8.08997E-01
    9004.541      7.040   2.080  1.75060E+00  9.85305E-01  7.65293E-01
    9005.181      7.680   2.120  1.69990E+00  9.89881E-01  7.10023E-01
    9005.833      8.332   2.160  1.59875E+00  9.93997E-01  6.04752E-01
    9006.498      8.997   2.200  1.44265E+00  9.97682E-01  4.44968E-01
    9007.174      9.673   2.240  1.27930E+00  1.00093E+00  2.78370E-01
    9007.863     10.362   2.280  1.14594E+00  1.00376E+00  1.42176E-01
    9008.564     11.063   2.320  1.04867E+00  1.00620E+00  4.24702E-02
    9009.278     11.776   2.360  9.77679E-01  1.00828E+00 -3.06042E-02
    9010.003     12.502   2.400  9.18365E-01  1.01004E+00 -9.16702E-02
    9010.741     13.239   2.440  8.66908E-01  1.01146E+00 -1.44556E-01
    9011.490     13.989   2.480  8.30691E-01  1.01258E+00 -1.81889E-01
    9012.252     14.751   2.520  8.16118E-01  1.01343E+00 -1.97316E-01
    9013.027     15.525   2.560  8.34567E-01  1.01404E+00 -1.79472E-01
    9013.813     16.312   2.600  8.66777E-01  1.01442E+00 -1.47647E-01
    9014.611     17.110   2.640  9.03992E-01  1.01458E+00 -1.10587E-01
    9015.422     17.921   2.680  9.41925E-01  1.01456E+00 -7.26313E-02
    9016.245     18.744   2.720  9.76439E-01  1.01434E+00 -3.79033E-02
    9017.080     19.579   2.760  1.00389E+00  1.01399E+00 -1.00963E-02
    9017.928     20.426   2.800  1.02183E+00  1.01348E+00  8.34511E-03
    9018.787     21.286   2.840  1.02829E+00  1.01285E+00  1.54350E-02
    9019.659     22.158   2.880  1.02318E+00  1.01213E+00  1.10469E-02
    9020.543     23.042   2.920  1.00783E+00  1.01132E+00 -3.49142E-03
    9021.439     23.938   2.960  9.84938E-01  1.01043E+00 -2.54967E-02
    9022.347     24.846   3.000  9.58384E-01  1.00950E+00 -5.11113E-02
    9023.268     25.767   3.040  9.31398E-01  1.00849E+00 -7.70908E-02
    9024.200     26.699   3.080  9.06406E-01  1.00746E+00 -1.01058E-01
    9025.145     27.644   3.120  8.85156E-01  1.00640E+00 -1.21248E-01
    9026.102     28.601   3.160  8.68229E-01  1.00533E+00 -1.37105E-01
    9027.072     29.570   3.200  8.55383E-01  1.00424E+00 -1.48857E-01
    9028.053     30.552   3.240  8.46651E-01  1.00317E+00 -1.56517E-01
    9029.047     31.546   3.280  8.41798E-01  1.00210E+00 -1.60302E-01
    9030.053     32.551   3.320  8.40713E-01  1.00106E+00 -1.60347E-01
    9031.071     33.569   3.360  8.43364E-01  1.00003E+00 -1.56669E-01
    9032.101     34.600   3.400  8.49580E-01  9.99039E-01 -1.49458E-01
    9033.143     35.642   3.440  8.58712E-01  9.98082E-01 -1.39371E-01
    9034.198     36.697   3.480  8.70074E-01  9.97166E-01 -1.27092E-01
    9035.265     37.763   3.520  8.83044E-01  9.96291E-01 -1.13247E-01
    9036.344     38.842   3.560  8.97133E-01  9.95459E-01 -9.83264E-02
    9037.435     39.934   3.600  9.12223E-01  9.94694E-01 -8.24708E-02
    9038.538     41.037   3.640  9.28364E-01  9.93976E-01 -6.56119E-02
    9039.654     42.153   3.680  9.45263E-01  9.93307E-01 -4.80444E-02
    9040.782     43.280   3.720  9.62490E-01  9.92728E-01 -3.02386E-02
    9041.921     44.420   3.760  9.79897E-01  9.92178E-01 -1.22807E-02
    9043.074     45.572   3.800  9.97893E-01  9.91698E-01  6.19534E-03
    9044.238     46.737   3.840  1.01667E+00  9.91289E-01  2.53796E-02
    9045.414     47.913   3.880  1.03601E+00  9.90932E-01  4.50799E-02
    9046.603     49.102   3.920  1.05541E+00  9.90645E-01  6.47627E-02
    9047.804     50.303   3.960  1.07426E+00  9.90407E-01  8.38528E-02
    9049.017     51.516   4.000  1.09232E+00  9.90241E-01  1.02076E-01
    9050.242     52.741   4.040  1.10926E+00  9.90123E-01  1.19138E-01
    9051.480     53.979   4.080  1.12423E+00  9.90075E-01  1.34151E-01
    9052.730     55.228   4.120  1.13557E+00  9.90076E-01  1.45494E-01
    9053.991     56.490   4.160  1.14168E+00  9.90145E-01  1.51538E-01
    9055.266     57.764   4.200  1.14165E+00  9.90259E-01  1.51388E-01
    9056.552     59.051   4.240  1.13574E+00  9.90417E-01  1.45320E-01
    9057.850     60.349   4.280  1.12507E+00  9.90618E-01  1.34452E-01
    9059.161     61.660   4.320  1.11091E+00  9.90882E-01  1.20031E-01
    9060.484     62.982   4.360  1.09410E+00  9.91166E-01  1.02931E-01
    9061.819     64.318   4.400  1.07531E+00  9.91510E-01  8.37966E-02
    9063.166     65.665   4.440  1.05519E+00  9.91870E-01  6.33171E-02
    9064.525     67.024   4.480  1.03442E+00  9.92266E-01  4.21579E-02
    9065.897     68.396   4.520  1.01361E+00  9.92698E-01  2.09145E-02
    9067.281     69.779   4.560  9.93429E-01  9.93164E-01  2.65340E-04
    9068.677     71.175   4.600  9.74775E-01  9.93640E-01 -1.88649E-02
    9070.085     72.584   4.640  9.58776E-01  9.94144E-01 -3.53677E-02
    9071.505     74.004   4.680  9.46432E-01  9.94655E-01 -4.82234E-02
    9072.938     75.437   4.720  9.38341E-01  9.95171E-01 -5.68295E-02
    9074.383     76.881   4.760  9.34636E-01  9.95710E-01 -6.10742E-02
    9075.839     78.338   4.800  9.34999E-01  9.96228E-01 -6.12293E-02
    9077.309     79.807   4.840  9.38939E-01  9.96768E-01 -5.78290E-02
    9078.790     81.289   4.880  9.45714E-01  9.97286E-01 -5.15722E-02
    9080.283     82.782   4.920  9.54459E-01  9.97821E-01 -4.33627E-02
    9081.789     84.288   4.960  9.64095E-01  9.98331E-01 -3.42355E-02
    9083.307     85.806   5.000  9.73694E-01  9.98834E-01 -2.51401E-02
    9084.837     87.336   5.040  9.82346E-01  9.99330E-01 -1.69844E-02
    9086.379     88.878   5.080  9.89053E-01  9.99793E-01 -1.07402E-02
    9087.934     90.433   5.120  9.92857E-01  1.00022E+00 -7.36430E-03
    9089.501     91.999   5.160  9.93314E-01  1.00064E+00 -7.32407E-03
    9091.079     93.578   5.200  9.90870E-01  1.00102E+00 -1.01520E-02
    9092.670     95.169   5.240  9.86919E-01  1.00139E+00 -1.44746E-02
    9094.274     96.772   5.280  9.83243E-01  1.00173E+00 -1.84827E-02
    9095.889     98.388   5.320  9.81416E-01  1.00200E+00 -2.05823E-02
    9097.517    100.016   5.360  9.82483E-01  1.00228E+00 -1.97931E-02
    9099.157    101.655   5.400  9.86594E-01  1.00249E+00 -1.58991E-02
    9100.809    103.307   5.440  9.93149E-01  1.00267E+00 -9.51939E-03
    9102.473    104.972   5.480  1.00072E+00  1.00280E+00 -2.07988E-03
    9104.149    106.648   5.520  1.00747E+00  1.00289E+00  4.57949E-03
    9105.838    108.337   5.560  1.01169E+00  1.00295E+00  8.73935E-03
    9107.539    110.037   5.600  1.01207E+00  1.00296E+00  9.11390E-03
    9109.252    111.750   5.640  1.00791E+00  1.00296E+00  4.95563E-03
    9110.977    113.475   5.680  9.99213E-01  1.00289E+00 -3.67239E-03
    9112.714    115.213   5.720  9.87100E-01  1.00277E+00 -1.56720E-02
    9114.464    116.962   5.760  9.73448E-01  1.00259E+00 -2.91455E-02
    9116.225    118.724   5.800  9.60339E-01  1.00240E+00 -4.20589E-02
    9117.999    120.498   5.840  9.49396E-01  1.00217E+00 -5.27710E-02
    9119.785    122.284   5.880  9.41654E-01  1.00190E+00 -6.02429E-02
    9121.584    124.082   5.920  9.37712E-01  1.00159E+00 -6.38790E-02
    9123.394    125.893   5.960  9.38064E-01  1.00125E+00 -6.31837E-02
    9125.217    127.716   6.000  9.43638E-01  1.00084E+00 -5.72023E-02
