# # comment:                                                     FEFF 9.9.1  
# # Source:
# # Structure
# # Reduced
# # space
# # abc:
# # angles:
# # sites:
# # POT  SCF 100  7.0000   0, screened core-hole, AFOLP (folp(0)= 1.150)
# # Abs   Z=29 Rmt= 1.231 Rnm= 1.325 K  shell
# # Pot 1 Z=29 Rmt= 1.231 Rnm= 1.325
# # Pot 2 Z=78 Rmt= 1.349 Rnm= 1.466
# # Pot 3 Z= 8 Rmt= 1.015 Rnm= 1.091
# # Gam_ch=1.729E+00 H-L exch Vi= 0.000E+00 Vr= 0.000E+00
# # Mu=-6.279E+00eV kf=2.198E+00 Vint=-1.506E+01eV Rs_int= 1.650
# FMS rfms= 9.0000
# # PATH  Rmax=-1.000,  Keep_limit= 0.00, Heap_limit 0.00  Pwcrit= 2.50%
#  S02=0.950  Temp=   0.00  Debye_temp=   0.00  Global_sig2= 0.00000
#  Energy zero shift, vr, vi    0.00000E+00   0.00000E+00
#  Curved wave amplitude ratio filter   4.000%
#     file         sig2 tot  cw amp ratio   deg  nlegs   reff  inp sig2
#     0/   0 paths used
#  xsedge+ 50, used to normalize mu           2.4454E-04
#  -----------------------------------------------------------------------
#  omega    e    k    mu    mu0     chi     @#
    8983.494    -10.089  -1.000  4.18427E-02  5.55136E-02 -1.36709E-02
    8983.792     -9.790  -0.960  4.43936E-02  5.95844E-02 -1.51908E-02
    8984.079     -9.503  -0.920  4.71897E-02  6.41103E-02 -1.69207E-02
    8984.353     -9.229  -0.880  5.02629E-02  6.91587E-02 -1.88957E-02
    8984.615     -8.967  -0.840  5.36497E-02  7.48075E-02 -2.11578E-02
    8984.865     -8.717  -0.800  5.73907E-02  8.11474E-02 -2.37566E-02
    8985.103     -8.479  -0.760  6.15315E-02  8.82823E-02 -2.67507E-02
    8985.329     -8.254  -0.720  6.61216E-02  9.63296E-02 -3.02080E-02
    8985.542     -8.040  -0.680  7.12133E-02  1.05419E-01 -3.42055E-02
    8985.743     -7.839  -0.640  7.68597E-02  1.15686E-01 -3.88266E-02
    8985.932     -7.650  -0.600  8.31105E-02  1.27266E-01 -4.41560E-02
    8986.109     -7.474  -0.560  9.00052E-02  1.40273E-01 -5.02683E-02
    8986.273     -7.309  -0.520  9.75644E-02  1.54776E-01 -5.72112E-02
    8986.426     -7.157  -0.480  1.05777E-01  1.70758E-01 -6.49808E-02
    8986.566     -7.016  -0.440  1.14587E-01  1.88080E-01 -7.34931E-02
    8986.694     -6.888  -0.400  1.23880E-01  2.06441E-01 -8.25613E-02
    8986.810     -6.772  -0.360  1.33474E-01  2.25365E-01 -9.18907E-02
    8986.914     -6.669  -0.320  1.43131E-01  2.44236E-01 -1.01105E-01
    8987.005     -6.577  -0.280  1.52566E-01  2.62371E-01 -1.09805E-01
    8987.084     -6.498  -0.240  1.61477E-01  2.79110E-01 -1.17633E-01
    8987.151     -6.431  -0.200  1.69569E-01  2.93902E-01 -1.24333E-01
    8987.206     -6.376  -0.160  1.76577E-01  3.06345E-01 -1.29768E-01
    8987.249     -6.334  -0.120  1.82279E-01  3.16180E-01 -1.33901E-01
    8987.279     -6.303  -0.080  1.86503E-01  3.23265E-01 -1.36763E-01
    8987.304     -6.279   0.000  1.90024E-01  3.28956E-01 -1.38932E-01
    8987.359     -6.224   0.120  1.98015E-01  3.41796E-01 -1.43782E-01
    8987.401     -6.181   0.160  2.04352E-01  3.51770E-01 -1.47418E-01
    8987.456     -6.126   0.200  2.12722E-01  3.64500E-01 -1.51779E-01
    8987.523     -6.059   0.240  2.23302E-01  3.79814E-01 -1.56512E-01
    8987.602     -5.980   0.280  2.36311E-01  3.97404E-01 -1.61093E-01
    8987.694     -5.889   0.320  2.51926E-01  4.16802E-01 -1.64876E-01
    8987.797     -5.785   0.360  2.70365E-01  4.37474E-01 -1.67108E-01
    8987.913     -5.669   0.400  2.91714E-01  4.58784E-01 -1.67070E-01
    8988.041     -5.541   0.440  3.15902E-01  4.80191E-01 -1.64289E-01
    8988.181     -5.401   0.480  3.42493E-01  5.01275E-01 -1.58783E-01
    8988.334     -5.248   0.520  3.70302E-01  5.21751E-01 -1.51449E-01
    8988.498     -5.084   0.560  3.96987E-01  5.41473E-01 -1.44486E-01
    8988.675     -4.907   0.600  4.19048E-01  5.60428E-01 -1.41381E-01
    8988.864     -4.718   0.640  4.32776E-01  5.78654E-01 -1.45878E-01
    8989.065     -4.517   0.680  4.36369E-01  5.96246E-01 -1.59877E-01
    8989.279     -4.304   0.720  4.31296E-01  6.13252E-01 -1.81956E-01
    8989.504     -4.078   0.760  4.21589E-01  6.29801E-01 -2.08212E-01
    8989.742     -3.840   0.800  4.11196E-01  6.45953E-01 -2.34757E-01
    8989.992     -3.590   0.840  4.01898E-01  6.61792E-01 -2.59894E-01
    8990.254     -3.328   0.880  3.92517E-01  6.77346E-01 -2.84830E-01
    8990.528     -3.054   0.920  3.80660E-01  6.92655E-01 -3.11995E-01
    8990.815     -2.767   0.960  3.65771E-01  7.07741E-01 -3.41970E-01
    8991.114     -2.469   1.000  3.49818E-01  7.22619E-01 -3.72802E-01
    8991.425     -2.158   1.040  3.35105E-01  7.37293E-01 -4.02188E-01
    8991.748     -1.835   1.080  3.23651E-01  7.51736E-01 -4.28086E-01
    8992.083     -1.499   1.120  3.18358E-01  7.65963E-01 -4.47604E-01
    8992.430     -1.152   1.160  3.21940E-01  7.79915E-01 -4.57976E-01
    8992.790     -0.792   1.200  3.35717E-01  7.93616E-01 -4.57899E-01
    8993.162     -0.420   1.240  3.59541E-01  8.07025E-01 -4.47484E-01
    8993.546     -0.036   1.280  3.91905E-01  8.20116E-01 -4.28211E-01
    8993.942      0.360   1.320  4.29548E-01  8.32864E-01 -4.03315E-01
    8994.351      0.768   1.360  4.68643E-01  8.45264E-01 -3.76621E-01
    8994.771      1.189   1.400  5.08439E-01  8.57246E-01 -3.48808E-01
    8995.204      1.622   1.440  5.54062E-01  8.68826E-01 -3.14764E-01
    8995.649      2.067   1.480  6.13925E-01  8.79978E-01 -2.66053E-01
    8996.106      2.524   1.520  6.94304E-01  8.90675E-01 -1.96371E-01
    8996.576      2.993   1.560  7.93162E-01  9.00912E-01 -1.07750E-01
    8997.057      3.475   1.600  9.04574E-01  9.10664E-01 -6.09033E-03
    8997.551      3.969   1.640  1.03220E+00  9.19951E-01  1.12248E-01
    8998.057      4.475   1.680  1.17612E+00  9.28709E-01  2.47410E-01
    8998.575      4.993   1.720  1.31291E+00  9.36977E-01  3.75929E-01
    8999.105      5.523   1.760  1.41685E+00  9.44755E-01  4.72096E-01
    8999.648      6.066   1.800  1.48137E+00  9.52028E-01  5.29342E-01
    9000.203      6.620   1.840  1.50430E+00  9.58797E-01  5.45503E-01
    9000.770      7.187   1.880  1.49442E+00  9.65085E-01  5.29331E-01
    9001.349      7.766   1.920  1.46364E+00  9.70879E-01  4.92758E-01
    9001.940      8.358   1.960  1.41536E+00  9.76204E-01  4.39160E-01
    9002.544      8.961   2.000  1.36850E+00  9.81067E-01  3.87429E-01
    9003.159      9.577   2.040  1.33849E+00  9.85498E-01  3.52993E-01
    9003.787     10.205   2.080  1.30710E+00  9.89483E-01  3.17620E-01
    9004.427     10.845   2.120  1.24780E+00  9.93072E-01  2.54731E-01
    9005.080     11.497   2.160  1.16771E+00  9.96253E-01  1.71456E-01
    9005.744     12.162   2.200  1.09522E+00  9.99059E-01  9.61637E-02
    9006.421     12.838   2.240  1.04664E+00  1.00152E+00  4.51272E-02
    9007.110     13.527   2.280  1.03119E+00  1.00362E+00  2.75694E-02
    9007.811     14.228   2.320  1.05231E+00  1.00541E+00  4.68971E-02
    9008.524     14.941   2.360  1.09380E+00  1.00691E+00  8.68852E-02
    9009.249     15.667   2.400  1.12356E+00  1.00813E+00  1.15427E-01
    9009.987     16.404   2.440  1.12031E+00  1.00909E+00  1.11223E-01
    9010.737     17.154   2.480  1.08948E+00  1.00980E+00  7.96737E-02
    9011.499     17.916   2.520  1.05249E+00  1.01031E+00  4.21822E-02
    9012.273     18.690   2.560  1.02850E+00  1.01062E+00  1.78760E-02
    9013.059     19.477   2.600  1.02113E+00  1.01075E+00  1.03845E-02
    9013.858     20.275   2.640  1.02425E+00  1.01070E+00  1.35491E-02
    9014.669     21.086   2.680  1.03129E+00  1.01050E+00  2.07916E-02
    9015.491     21.909   2.720  1.03825E+00  1.01019E+00  2.80600E-02
    9016.327     22.744   2.760  1.04032E+00  1.00974E+00  3.05747E-02
    9017.174     23.592   2.800  1.03456E+00  1.00922E+00  2.53353E-02
    9018.033     24.451   2.840  1.02087E+00  1.00859E+00  1.22756E-02
    9018.905     25.323   2.880  1.00160E+00  1.00791E+00 -6.30978E-03
    9019.789     26.207   2.920  9.79525E-01  1.00715E+00 -2.76262E-02
    9020.685     27.103   2.960  9.57119E-01  1.00637E+00 -4.92509E-02
    9021.594     28.011   3.000  9.35985E-01  1.00553E+00 -6.95432E-02
    9022.514     28.932   3.040  9.16940E-01  1.00467E+00 -8.77338E-02
    9023.447     29.864   3.080  9.00016E-01  1.00381E+00 -1.03795E-01
    9024.392     30.809   3.120  8.85200E-01  1.00294E+00 -1.17743E-01
    9025.349     31.766   3.160  8.72127E-01  1.00206E+00 -1.29928E-01
    9026.318     32.736   3.200  8.60642E-01  1.00119E+00 -1.40551E-01
    9027.299     33.717   3.240  8.51210E-01  1.00036E+00 -1.49149E-01
    9028.293     34.711   3.280  8.44350E-01  9.99536E-01 -1.55186E-01
    9029.299     35.716   3.320  8.40556E-01  9.98749E-01 -1.58193E-01
    9030.317     36.734   3.360  8.40254E-01  9.98001E-01 -1.57747E-01
    9031.347     37.765   3.400  8.43790E-01  9.97314E-01 -1.53524E-01
    9032.390     38.807   3.440  8.51130E-01  9.96647E-01 -1.45518E-01
    9033.444     39.862   3.480  8.62281E-01  9.96023E-01 -1.33741E-01
    9034.511     40.929   3.520  8.76997E-01  9.95464E-01 -1.18467E-01
    9035.590     42.008   3.560  8.94420E-01  9.94954E-01 -1.00534E-01
    9036.681     43.099   3.600  9.13485E-01  9.94512E-01 -8.10268E-02
    9037.784     44.202   3.640  9.33091E-01  9.94117E-01 -6.10269E-02
    9038.900     45.318   3.680  9.52417E-01  9.93771E-01 -4.13545E-02
    9040.028     46.445   3.720  9.71031E-01  9.93497E-01 -2.24665E-02
    9041.168     47.585   3.760  9.88736E-01  9.93293E-01 -4.55698E-03
    9042.320     48.737   3.800  1.00506E+00  9.93140E-01  1.19194E-02
    9043.484     49.902   3.840  1.01917E+00  9.93037E-01  2.61286E-02
    9044.661     51.078   3.880  1.03021E+00  9.93025E-01  3.71900E-02
    9045.849     52.267   3.920  1.03760E+00  9.93040E-01  4.45606E-02
    9047.050     53.468   3.960  1.04149E+00  9.93127E-01  4.83653E-02
    9048.263     54.681   4.000  1.04290E+00  9.93283E-01  4.96185E-02
    9049.489     55.906   4.040  1.04341E+00  9.93485E-01  4.99278E-02
    9050.726     57.144   4.080  1.04473E+00  9.93733E-01  5.10012E-02
    9051.976     58.393   4.120  1.04813E+00  9.94026E-01  5.41027E-02
    9053.238     59.655   4.160  1.05417E+00  9.94384E-01  5.97873E-02
    9054.512     60.929   4.200  1.06236E+00  9.94785E-01  6.75712E-02
    9055.798     62.216   4.240  1.07131E+00  9.95225E-01  7.60810E-02
    9057.096     63.514   4.280  1.07931E+00  9.95683E-01  8.36303E-02
    9058.407     64.825   4.320  1.08525E+00  9.96201E-01  8.90464E-02
    9059.730     66.148   4.360  1.08874E+00  9.96757E-01  9.19818E-02
    9061.065     67.483   4.400  1.08984E+00  9.97325E-01  9.25115E-02
    9062.412     68.830   4.440  1.08851E+00  9.97925E-01  9.05843E-02
    9063.772     70.189   4.480  1.08423E+00  9.98535E-01  8.56945E-02
    9065.143     71.561   4.520  1.07659E+00  9.99176E-01  7.74100E-02
    9066.527     72.945   4.560  1.06568E+00  9.99845E-01  6.58374E-02
    9067.923     74.341   4.600  1.05225E+00  1.00050E+00  5.17498E-02
    9069.331     75.749   4.640  1.03763E+00  1.00117E+00  3.64601E-02
    9070.751     77.169   4.680  1.02336E+00  1.00185E+00  2.15114E-02
    9072.184     78.602   4.720  1.01090E+00  1.00253E+00  8.37443E-03
    9073.629     80.046   4.760  1.00141E+00  1.00320E+00 -1.79488E-03
    9075.086     81.503   4.800  9.95465E-01  1.00387E+00 -8.40859E-03
    9076.555     82.972   4.840  9.92953E-01  1.00452E+00 -1.15630E-02
    9078.036     84.454   4.880  9.93250E-01  1.00515E+00 -1.18996E-02
    9079.530     85.947   4.920  9.95437E-01  1.00578E+00 -1.03380E-02
    9081.035     87.453   4.960  9.98532E-01  1.00637E+00 -7.83571E-03
    9082.553     88.971   5.000  1.00165E+00  1.00692E+00 -5.27832E-03
    9084.083     90.501   5.040  1.00405E+00  1.00747E+00 -3.41900E-03
    9085.626     92.043   5.080  1.00520E+00  1.00798E+00 -2.77681E-03
    9087.180     93.598   5.120  1.00481E+00  1.00845E+00 -3.63522E-03
    9088.747     95.164   5.160  1.00263E+00  1.00890E+00 -6.27546E-03
    9090.326     96.743   5.200  9.98254E-01  1.00929E+00 -1.10393E-02
    9091.917     98.334   5.240  9.91690E-01  1.00967E+00 -1.79759E-02
    9093.520     99.938   5.280  9.83608E-01  1.00998E+00 -2.63676E-02
    9095.135    101.553   5.320  9.75357E-01  1.01026E+00 -3.49054E-02
    9096.763    103.181   5.360  9.68287E-01  1.01048E+00 -4.21975E-02
    9098.403    104.820   5.400  9.63431E-01  1.01066E+00 -4.72312E-02
    9100.055    106.472   5.440  9.61269E-01  1.01080E+00 -4.95276E-02
    9101.719    108.137   5.480  9.61723E-01  1.01089E+00 -4.91649E-02
    9103.395    109.813   5.520  9.64251E-01  1.01093E+00 -4.66839E-02
    9105.084    111.502   5.560  9.67892E-01  1.01091E+00 -4.30224E-02
    9106.785    113.202   5.600  9.71721E-01  1.01087E+00 -3.91528E-02
    9108.498    114.915   5.640  9.75129E-01  1.01076E+00 -3.56361E-02
    9110.223    116.641   5.680  9.78328E-01  1.01061E+00 -3.22838E-02
    9111.960    118.378   5.720  9.82030E-01  1.01042E+00 -2.83854E-02
    9113.710    120.127   5.760  9.86756E-01  1.01015E+00 -2.33977E-02
    9115.472    121.889   5.800  9.92148E-01  1.00987E+00 -1.77265E-02
    9117.245    123.663   5.840  9.96675E-01  1.00956E+00 -1.28822E-02
    9119.032    125.449   5.880  9.98346E-01  1.00918E+00 -1.08317E-02
    9120.830    127.248   5.920  9.96005E-01  1.00878E+00 -1.27789E-02
    9122.640    129.058   5.960  9.90181E-01  1.00833E+00 -1.81487E-02
    9124.463    130.881   6.000  9.83270E-01  1.00784E+00 -2.45659E-02
