# # comment:                                                     FEFF 9.9.1  
# # Source:
# # Structure
# # Reduced
# # space
# # abc:
# # angles:
# # sites:
# # POT  SCF 100  7.0000   0, screened core-hole, AFOLP (folp(0)= 1.150)
# # Abs   Z=29 Rmt= 1.315 Rnm= 1.417 K  shell
# # Pot 1 Z=29 Rmt= 1.315 Rnm= 1.417
# # Pot 2 Z=15 Rmt= 0.946 Rnm= 1.159
# # Pot 3 Z= 8 Rmt= 0.894 Rnm= 1.035
# # Gam_ch=1.729E+00 H-L exch Vi= 0.000E+00 Vr= 0.000E+00
# # Mu=-6.363E+00eV kf=2.465E+00 Vint=-1.756E+01eV Rs_int= 1.471
# FMS rfms= 9.0000
# # PATH  Rmax=-1.000,  Keep_limit= 0.00, Heap_limit 0.00  Pwcrit= 2.50%
#  S02=0.950  Temp=   0.00  Debye_temp=   0.00  Global_sig2= 0.00000
#  Energy zero shift, vr, vi    0.00000E+00   0.00000E+00
#  Curved wave amplitude ratio filter   4.000%
#     file         sig2 tot  cw amp ratio   deg  nlegs   reff  inp sig2
#     0/   0 paths used
#  xsedge+ 50, used to normalize mu           2.4800E-04
#  -----------------------------------------------------------------------
#  omega    e    k    mu    mu0     chi     @#
    8983.260    -10.173  -1.000  4.32088E-02  5.05068E-02 -7.29797E-03
    8983.558     -9.874  -0.960  4.58651E-02  5.40921E-02 -8.22691E-03
    8983.845     -9.588  -0.920  4.87793E-02  5.80722E-02 -9.29286E-03
    8984.119     -9.313  -0.880  5.19873E-02  6.25053E-02 -1.05180E-02
    8984.381     -9.051  -0.840  5.55311E-02  6.74591E-02 -1.19280E-02
    8984.631     -8.801  -0.800  5.94594E-02  7.30122E-02 -1.35528E-02
    8984.869     -8.563  -0.760  6.38282E-02  7.92546E-02 -1.54265E-02
    8985.095     -8.338  -0.720  6.87010E-02  8.62884E-02 -1.75874E-02
    8985.308     -8.125  -0.680  7.41479E-02  9.42257E-02 -2.00778E-02
    8985.509     -7.923  -0.640  8.02430E-02  1.03185E-01 -2.29422E-02
    8985.698     -7.734  -0.600  8.70588E-02  1.13283E-01 -2.62246E-02
    8985.875     -7.558  -0.560  9.46567E-02  1.24620E-01 -2.99630E-02
    8986.039     -7.393  -0.520  1.03071E-01  1.37253E-01 -3.41820E-02
    8986.192     -7.241  -0.480  1.12290E-01  1.51171E-01 -3.88814E-02
    8986.332     -7.100  -0.440  1.22226E-01  1.66251E-01 -4.40242E-02
    8986.460     -6.972  -0.400  1.32704E-01  1.82229E-01 -4.95247E-02
    8986.576     -6.857  -0.360  1.43448E-01  1.98693E-01 -5.52450E-02
    8986.680     -6.753  -0.320  1.54105E-01  2.15106E-01 -6.10014E-02
    8986.771     -6.662  -0.280  1.64289E-01  2.30873E-01 -6.65846E-02
    8986.850     -6.582  -0.240  1.73635E-01  2.45422E-01 -7.17869E-02
    8986.917     -6.515  -0.200  1.81848E-01  2.58274E-01 -7.64263E-02
    8986.972     -6.460  -0.160  1.88719E-01  2.69082E-01 -8.03624E-02
    8987.015     -6.418  -0.120  1.94121E-01  2.77622E-01 -8.35003E-02
    8987.045     -6.387  -0.080  1.97990E-01  2.83772E-01 -8.57822E-02
    8987.070     -6.363   0.000  2.01066E-01  2.88713E-01 -8.76463E-02
    8987.125     -6.308   0.120  2.08214E-01  2.99859E-01 -9.16451E-02
    8987.167     -6.265   0.160  2.13717E-01  3.08508E-01 -9.47904E-02
    8987.222     -6.210   0.200  2.20699E-01  3.19536E-01 -9.88369E-02
    8987.289     -6.143   0.240  2.29060E-01  3.32808E-01 -1.03748E-01
    8987.368     -6.064   0.280  2.38576E-01  3.48030E-01 -1.09454E-01
    8987.460     -5.973   0.320  2.48979E-01  3.64805E-01 -1.15825E-01
    8987.563     -5.869   0.360  2.59975E-01  3.82660E-01 -1.22685E-01
    8987.679     -5.753   0.400  2.71212E-01  4.01032E-01 -1.29819E-01
    8987.807     -5.625   0.440  2.82457E-01  4.19464E-01 -1.37007E-01
    8987.947     -5.485   0.480  2.93553E-01  4.37590E-01 -1.44037E-01
    8988.100     -5.333   0.520  3.04401E-01  4.55160E-01 -1.50759E-01
    8988.264     -5.168   0.560  3.15022E-01  4.72090E-01 -1.57068E-01
    8988.441     -4.991   0.600  3.25456E-01  4.88333E-01 -1.62877E-01
    8988.630     -4.802   0.640  3.35897E-01  5.03970E-01 -1.68073E-01
    8988.831     -4.601   0.680  3.46654E-01  5.19092E-01 -1.72437E-01
    8989.045     -4.388   0.720  3.58171E-01  5.33785E-01 -1.75614E-01
    8989.270     -4.162   0.760  3.70960E-01  5.48154E-01 -1.77195E-01
    8989.508     -3.924   0.800  3.85466E-01  5.62277E-01 -1.76811E-01
    8989.758     -3.675   0.840  4.02104E-01  5.76239E-01 -1.74134E-01
    8990.020     -3.412   0.880  4.21152E-01  5.90092E-01 -1.68940E-01
    8990.294     -3.138   0.920  4.42713E-01  6.03920E-01 -1.61207E-01
    8990.581     -2.852   0.960  4.66620E-01  6.17729E-01 -1.51109E-01
    8990.880     -2.553   1.000  4.92902E-01  6.31560E-01 -1.38658E-01
    8991.191     -2.242   1.040  5.21825E-01  6.45423E-01 -1.23598E-01
    8991.514     -1.919   1.080  5.53796E-01  6.59342E-01 -1.05545E-01
    8991.849     -1.584   1.120  5.88832E-01  6.73313E-01 -8.44811E-02
    8992.196     -1.236   1.160  6.26110E-01  6.87327E-01 -6.12173E-02
    8992.556     -0.876   1.200  6.63917E-01  7.01372E-01 -3.74546E-02
    8992.928     -0.505   1.240  7.00033E-01  7.15449E-01 -1.54159E-02
    8993.312     -0.121   1.280  7.31640E-01  7.29537E-01  2.10259E-03
    8993.708      0.276   1.320  7.54740E-01  7.43615E-01  1.11254E-02
    8994.117      0.684   1.360  7.65908E-01  7.57633E-01  8.27502E-03
    8994.537      1.105   1.400  7.66433E-01  7.71606E-01 -5.17312E-03
    8994.970      1.538   1.440  7.64297E-01  7.85503E-01 -2.12062E-02
    8995.415      1.983   1.480  7.70479E-01  7.99252E-01 -2.87734E-02
    8995.872      2.440   1.520  7.90543E-01  8.12881E-01 -2.23383E-02
    8996.342      2.909   1.560  8.20734E-01  8.26296E-01 -5.56245E-03
    8996.823      3.391   1.600  8.52733E-01  8.39504E-01  1.32283E-02
    8997.317      3.884   1.640  8.81032E-01  8.52472E-01  2.85601E-02
    8997.823      4.390   1.680  9.05611E-01  8.65165E-01  4.04457E-02
    8998.341      4.909   1.720  9.30255E-01  8.77549E-01  5.27060E-02
    8998.871      5.439   1.760  9.61972E-01  8.89590E-01  7.23819E-02
    8999.414      5.981   1.800  1.00538E+00  9.01254E-01  1.04122E-01
    8999.969      6.536   1.840  1.05716E+00  9.12530E-01  1.44635E-01
    9000.536      7.103   1.880  1.11125E+00  9.23385E-01  1.87862E-01
    9001.115      7.682   1.920  1.15804E+00  9.33808E-01  2.24232E-01
    9001.706      8.274   1.960  1.18589E+00  9.43750E-01  2.42141E-01
    9002.310      8.877   2.000  1.19285E+00  9.53222E-01  2.39626E-01
    9002.925      9.493   2.040  1.18107E+00  9.62175E-01  2.18893E-01
    9003.553     10.121   2.080  1.15221E+00  9.70646E-01  1.81565E-01
    9004.193     10.761   2.120  1.11646E+00  9.78568E-01  1.37892E-01
    9004.846     11.413   2.160  1.08876E+00  9.85977E-01  1.02779E-01
    9005.510     12.077   2.200  1.07677E+00  9.92831E-01  8.39362E-02
    9006.187     12.754   2.240  1.07985E+00  9.99171E-01  8.06780E-02
    9006.875     13.443   2.280  1.09252E+00  1.00496E+00  8.75601E-02
    9007.577     14.144   2.320  1.10814E+00  1.01021E+00  9.79288E-02
    9008.290     14.857   2.360  1.12029E+00  1.01496E+00  1.05335E-01
    9009.015     15.583   2.400  1.12383E+00  1.01916E+00  1.04675E-01
    9009.753     16.320   2.440  1.11616E+00  1.02288E+00  9.32769E-02
    9010.503     17.070   2.480  1.09712E+00  1.02609E+00  7.10308E-02
    9011.265     17.832   2.520  1.06921E+00  1.02884E+00  4.03684E-02
    9012.039     18.606   2.560  1.03703E+00  1.03111E+00  5.91663E-03
    9012.825     19.393   2.600  1.00548E+00  1.03294E+00 -2.74570E-02
    9013.624     20.191   2.640  9.78071E-01  1.03435E+00 -5.62827E-02
    9014.434     21.002   2.680  9.55589E-01  1.03538E+00 -7.97933E-02
    9015.257     21.825   2.720  9.37073E-01  1.03602E+00 -9.89445E-02
    9016.093     22.660   2.760  9.23586E-01  1.03629E+00 -1.12705E-01
    9016.940     23.507   2.800  9.20013E-01  1.03623E+00 -1.16221E-01
    9017.799     24.367   2.840  9.31276E-01  1.03586E+00 -1.04582E-01
    9018.671     25.239   2.880  9.53613E-01  1.03522E+00 -8.16041E-02
    9019.555     26.123   2.920  9.73106E-01  1.03430E+00 -6.11973E-02
    9020.451     27.019   2.960  9.87556E-01  1.03315E+00 -4.55908E-02
    9021.360     27.927   3.000  9.96773E-01  1.03178E+00 -3.50075E-02
    9022.280     28.847   3.040  1.00172E+00  1.03022E+00 -2.85003E-02
    9023.213     29.780   3.080  1.00318E+00  1.02851E+00 -2.53268E-02
    9024.158     30.725   3.120  1.00170E+00  1.02662E+00 -2.49236E-02
    9025.115     31.682   3.160  9.98019E-01  1.02463E+00 -2.66140E-02
    9026.084     32.651   3.200  9.93015E-01  1.02253E+00 -2.95140E-02
    9027.065     33.633   3.240  9.87699E-01  1.02034E+00 -3.26418E-02
    9028.059     34.626   3.280  9.82878E-01  1.01808E+00 -3.52014E-02
    9029.065     35.632   3.320  9.78953E-01  1.01579E+00 -3.68394E-02
    9030.083     36.650   3.360  9.76195E-01  1.01347E+00 -3.72757E-02
    9031.113     37.681   3.400  9.74752E-01  1.01112E+00 -3.63667E-02
    9032.155     38.723   3.440  9.74576E-01  1.00877E+00 -3.41901E-02
    9033.210     39.778   3.480  9.75428E-01  1.00644E+00 -3.10127E-02
    9034.277     40.844   3.520  9.76987E-01  1.00415E+00 -2.71636E-02
    9035.356     41.923   3.560  9.78984E-01  1.00190E+00 -2.29177E-02
    9036.447     43.015   3.600  9.81253E-01  9.99697E-01 -1.84443E-02
    9037.550     44.118   3.640  9.83870E-01  9.97563E-01 -1.36928E-02
    9038.666     45.233   3.680  9.86941E-01  9.95484E-01 -8.54303E-03
    9039.794     46.361   3.720  9.90549E-01  9.93506E-01 -2.95745E-03
    9040.934     47.501   3.760  9.94544E-01  9.91613E-01  2.93096E-03
    9042.086     48.653   3.800  9.98652E-01  9.89808E-01  8.84368E-03
    9043.250     49.818   3.840  1.00254E+00  9.88114E-01  1.44269E-02
    9044.427     50.994   3.880  1.00592E+00  9.86535E-01  1.93856E-02
    9045.615     52.183   3.920  1.00856E+00  9.85051E-01  2.35083E-02
    9046.816     53.384   3.960  1.01031E+00  9.83706E-01  2.66085E-02
    9048.029     54.597   4.000  1.01094E+00  9.82460E-01  2.84790E-02
    9049.255     55.822   4.040  1.01034E+00  9.81357E-01  2.89854E-02
    9050.492     57.060   4.080  1.00846E+00  9.80355E-01  2.81092E-02
    9051.742     58.309   4.120  1.00549E+00  9.79496E-01  2.59906E-02
    9053.004     59.571   4.160  1.00169E+00  9.78759E-01  2.29352E-02
    9054.278     60.845   4.200  9.97512E-01  9.78145E-01  1.93670E-02
    9055.564     62.132   4.240  9.93398E-01  9.77655E-01  1.57422E-02
    9056.862     63.430   4.280  9.89791E-01  9.77309E-01  1.24828E-02
    9058.173     64.741   4.320  9.87023E-01  9.77060E-01  9.96301E-03
    9059.496     66.063   4.360  9.85377E-01  9.76929E-01  8.44801E-03
    9060.831     67.398   4.400  9.85019E-01  9.76917E-01  8.10193E-03
    9062.178     68.746   4.440  9.86023E-01  9.77022E-01  9.00010E-03
    9063.538     70.105   4.480  9.88386E-01  9.77243E-01  1.11437E-02
    9064.909     71.477   4.520  9.91995E-01  9.77554E-01  1.44412E-02
    9066.293     72.860   4.560  9.96616E-01  9.77975E-01  1.86404E-02
    9067.689     74.256   4.600  1.00170E+00  9.78482E-01  2.32225E-02
    9069.097     75.665   4.640  1.00644E+00  9.79070E-01  2.73710E-02
    9070.517     77.085   4.680  1.00988E+00  9.79740E-01  3.01408E-02
    9071.950     78.517   4.720  1.01122E+00  9.80488E-01  3.07357E-02
    9073.395     79.962   4.760  1.01008E+00  9.81310E-01  2.87673E-02
    9074.852     81.419   4.800  1.00657E+00  9.82184E-01  2.43871E-02
    9076.321     82.888   4.840  1.00130E+00  9.83125E-01  1.81774E-02
    9077.802     84.370   4.880  9.95022E-01  9.84109E-01  1.09130E-02
    9079.296     85.863   4.920  9.88466E-01  9.85131E-01  3.33505E-03
    9080.801     87.369   4.960  9.82164E-01  9.86168E-01 -4.00356E-03
    9082.319     88.887   5.000  9.76493E-01  9.87236E-01 -1.07426E-02
    9083.849     90.417   5.040  9.71685E-01  9.88334E-01 -1.66486E-02
    9085.392     91.959   5.080  9.67877E-01  9.89434E-01 -2.15570E-02
    9086.946     93.514   5.120  9.65178E-01  9.90511E-01 -2.53328E-02
    9088.513     95.080   5.160  9.63681E-01  9.91606E-01 -2.79250E-02
    9090.092     96.659   5.200  9.63256E-01  9.92670E-01 -2.94147E-02
    9091.683     98.250   5.240  9.63684E-01  9.93701E-01 -3.00172E-02
    9093.286     99.853   5.280  9.64749E-01  9.94716E-01 -2.99667E-02
    9094.901    101.469   5.320  9.66315E-01  9.95670E-01 -2.93551E-02
    9096.529    103.096   5.360  9.68518E-01  9.96603E-01 -2.80843E-02
    9098.169    104.736   5.400  9.71515E-01  9.97468E-01 -2.59525E-02
    9099.821    106.388   5.440  9.75473E-01  9.98284E-01 -2.28104E-02
    9101.485    108.052   5.480  9.80345E-01  9.99025E-01 -1.86800E-02
    9103.161    109.729   5.520  9.85925E-01  9.99691E-01 -1.37664E-02
    9104.850    111.417   5.560  9.91949E-01  1.00030E+00 -8.35296E-03
    9106.551    113.118   5.600  9.98094E-01  1.00081E+00 -2.71643E-03
    9108.264    114.831   5.640  1.00409E+00  1.00126E+00  2.83225E-03
    9109.989    116.556   5.680  1.00945E+00  1.00160E+00  7.85146E-03
    9111.726    118.294   5.720  1.01363E+00  1.00186E+00  1.17679E-02
    9113.476    120.043   5.760  1.01610E+00  1.00204E+00  1.40570E-02
    9115.238    121.805   5.800  1.01661E+00  1.00213E+00  1.44750E-02
    9117.011    123.579   5.840  1.01528E+00  1.00212E+00  1.31668E-02
    9118.798    125.365   5.880  1.01262E+00  1.00202E+00  1.06066E-02
    9120.596    127.163   5.920  1.00927E+00  1.00183E+00  7.43777E-03
    9122.406    128.974   5.960  1.00580E+00  1.00153E+00  4.26655E-03
    9124.229    130.797   6.000  1.00251E+00  1.00110E+00  1.40526E-03
