# # comment:                                                     FEFF 9.9.1  
# # Source:
# # Structure
# # Reduced
# # space
# # abc:
# # angles:
# # sites:
# # POT  SCF 100  7.0000   0, screened core-hole, AFOLP (folp(0)= 1.150)
# # Abs   Z=29 Rmt= 1.178 Rnm= 1.314 K  shell
# # Pot 1 Z=29 Rmt= 1.220 Rnm= 1.329
# # Pot 2 Z= 8 Rmt= 1.001 Rnm= 1.124
# # Pot 3 Z= 9 Rmt= 1.038 Rnm= 1.131
# # Gam_ch=1.729E+00 H-L exch Vi= 0.000E+00 Vr= 0.000E+00
# # Mu=-6.773E+00eV kf=2.009E+00 Vint=-1.271E+01eV Rs_int= 1.805
# FMS rfms= 9.0000
# # PATH  Rmax=-1.000,  Keep_limit= 0.00, Heap_limit 0.00  Pwcrit= 2.50%
#  S02=0.950  Temp=   0.00  Debye_temp=   0.00  Global_sig2= 0.00000
#  Energy zero shift, vr, vi    0.00000E+00   0.00000E+00
#  Curved wave amplitude ratio filter   4.000%
#     file         sig2 tot  cw amp ratio   deg  nlegs   reff  inp sig2
#     0/   0 paths used
#  xsedge+ 50, used to normalize mu           2.4087E-04
#  -----------------------------------------------------------------------
#  omega    e    k    mu    mu0     chi     @#
    8983.320    -10.583  -1.000  3.37735E-02  5.74594E-02 -2.36858E-02
    8983.618    -10.285  -0.960  3.51743E-02  6.15830E-02 -2.64087E-02
    8983.905     -9.998  -0.920  3.66446E-02  6.61518E-02 -2.95072E-02
    8984.179     -9.724  -0.880  3.81893E-02  7.12291E-02 -3.30397E-02
    8984.441     -9.462  -0.840  3.98142E-02  7.68884E-02 -3.70742E-02
    8984.691     -9.212  -0.800  4.15258E-02  8.32148E-02 -4.16890E-02
    8984.929     -8.974  -0.760  4.33316E-02  9.03053E-02 -4.69737E-02
    8985.154     -8.749  -0.720  4.52400E-02  9.82691E-02 -5.30291E-02
    8985.368     -8.535  -0.680  4.72602E-02  1.07226E-01 -5.99658E-02
    8985.569     -8.334  -0.640  4.94016E-02  1.17302E-01 -6.79002E-02
    8985.758     -8.145  -0.600  5.16728E-02  1.28620E-01 -7.69468E-02
    8985.935     -7.968  -0.560  5.40793E-02  1.41283E-01 -8.72038E-02
    8986.099     -7.804  -0.520  5.66208E-02  1.55353E-01 -9.87318E-02
    8986.252     -7.651  -0.480  5.92868E-02  1.70811E-01 -1.11524E-01
    8986.392     -7.511  -0.440  6.20514E-02  1.87523E-01 -1.25472E-01
    8986.520     -7.383  -0.400  6.48699E-02  2.05205E-01 -1.40335E-01
    8986.636     -7.267  -0.360  6.76785E-02  2.23412E-01 -1.55734E-01
    8986.739     -7.164  -0.320  7.03990E-02  2.41565E-01 -1.71166E-01
    8986.831     -7.072  -0.280  7.29502E-02  2.59020E-01 -1.86069E-01
    8986.910     -6.993  -0.240  7.52589E-02  2.75152E-01 -1.99893E-01
    8986.977     -6.926  -0.200  7.72690E-02  2.89434E-01 -2.12165E-01
    8987.032     -6.871  -0.160  7.89435E-02  3.01472E-01 -2.22528E-01
    8987.075     -6.828  -0.120  8.02614E-02  3.11007E-01 -2.30746E-01
    8987.105     -6.798  -0.080  8.12124E-02  3.17889E-01 -2.36677E-01
    8987.130     -6.773   0.000  8.19935E-02  3.23429E-01 -2.41435E-01
    8987.184     -6.719   0.120  8.38434E-02  3.35935E-01 -2.52092E-01
    8987.227     -6.676   0.160  8.52009E-02  3.45686E-01 -2.60485E-01
    8987.282     -6.621   0.200  8.68639E-02  3.58171E-01 -2.71307E-01
    8987.349     -6.554   0.240  8.88384E-02  3.73284E-01 -2.84446E-01
    8987.428     -6.475   0.280  9.10716E-02  3.90761E-01 -2.99690E-01
    8987.520     -6.383   0.320  9.34975E-02  4.10214E-01 -3.16717E-01
    8987.623     -6.280   0.360  9.61462E-02  4.31195E-01 -3.35049E-01
    8987.739     -6.164   0.400  9.89938E-02  4.53182E-01 -3.54188E-01
    8987.867     -6.036   0.440  1.02058E-01  4.75671E-01 -3.73613E-01
    8988.007     -5.896   0.480  1.05489E-01  4.98320E-01 -3.92831E-01
    8988.160     -5.743   0.520  1.09410E-01  5.20875E-01 -4.11464E-01
    8988.324     -5.579   0.560  1.13940E-01  5.43160E-01 -4.29220E-01
    8988.501     -5.402   0.600  1.19270E-01  5.65199E-01 -4.45929E-01
    8988.690     -5.213   0.640  1.25504E-01  5.86945E-01 -4.61441E-01
    8988.891     -5.012   0.680  1.32815E-01  6.08466E-01 -4.75652E-01
    8989.105     -4.798   0.720  1.41361E-01  6.29778E-01 -4.88417E-01
    8989.330     -4.573   0.760  1.51366E-01  6.50951E-01 -4.99585E-01
    8989.568     -4.335   0.800  1.63073E-01  6.71988E-01 -5.08915E-01
    8989.818     -4.085   0.840  1.76820E-01  6.92915E-01 -5.16094E-01
    8990.080     -3.823   0.880  1.93158E-01  7.13682E-01 -5.20524E-01
    8990.354     -3.549   0.920  2.13086E-01  7.34289E-01 -5.21202E-01
    8990.641     -3.262   0.960  2.37950E-01  7.54704E-01 -5.16754E-01
    8990.940     -2.963   1.000  2.69204E-01  7.74842E-01 -5.05638E-01
    8991.250     -2.653   1.040  3.08256E-01  7.94695E-01 -4.86439E-01
    8991.573     -2.329   1.080  3.55609E-01  8.14163E-01 -4.58554E-01
    8991.909     -1.994   1.120  4.10937E-01  8.33187E-01 -4.22250E-01
    8992.256     -1.647   1.160  4.74104E-01  8.51723E-01 -3.77619E-01
    8992.616     -1.287   1.200  5.44547E-01  8.69665E-01 -3.25118E-01
    8992.988     -0.915   1.240  6.16819E-01  8.86968E-01 -2.70149E-01
    8993.372     -0.531   1.280  6.79798E-01  9.03569E-01 -2.23771E-01
    8993.768     -0.135   1.320  7.23385E-01  9.19425E-01 -1.96040E-01
    8994.176      0.274   1.360  7.42379E-01  9.34497E-01 -1.92118E-01
    8994.597      0.694   1.400  7.41506E-01  9.48707E-01 -2.07201E-01
    8995.030      1.127   1.440  7.39052E-01  9.62064E-01 -2.23012E-01
    8995.475      1.572   1.480  7.54835E-01  9.74517E-01 -2.19682E-01
    8995.932      2.029   1.520  7.97947E-01  9.86081E-01 -1.88134E-01
    8996.402      2.499   1.560  8.63659E-01  9.96712E-01 -1.33053E-01
    8996.883      2.980   1.600  9.34747E-01  1.00642E+00 -7.16689E-02
    8997.377      3.474   1.640  9.98140E-01  1.01522E+00 -1.70771E-02
    8997.883      3.980   1.680  1.06426E+00  1.02314E+00  4.11119E-02
    8998.401      4.498   1.720  1.14917E+00  1.03019E+00  1.18983E-01
    8998.931      5.028   1.760  1.24990E+00  1.03636E+00  2.13535E-01
    8999.474      5.571   1.800  1.35125E+00  1.04175E+00  3.09499E-01
    9000.029      6.126   1.840  1.44597E+00  1.04634E+00  3.99621E-01
    9000.596      6.693   1.880  1.52542E+00  1.05021E+00  4.75210E-01
    9001.175      7.272   1.920  1.57403E+00  1.05336E+00  5.20666E-01
    9001.766      7.863   1.960  1.58627E+00  1.05585E+00  5.30425E-01
    9002.369      8.467   2.000  1.57176E+00  1.05773E+00  5.14034E-01
    9002.985      9.082   2.040  1.53186E+00  1.05903E+00  4.72832E-01
    9003.613      9.710   2.080  1.46428E+00  1.05981E+00  4.04466E-01
    9004.253     10.350   2.120  1.38419E+00  1.06010E+00  3.24092E-01
    9004.905     11.002   2.160  1.31993E+00  1.05996E+00  2.59976E-01
    9005.570     11.667   2.200  1.28201E+00  1.05940E+00  2.22609E-01
    9006.247     12.344   2.240  1.24424E+00  1.05850E+00  1.85745E-01
    9006.935     13.032   2.280  1.17836E+00  1.05727E+00  1.21091E-01
    9007.636     13.733   2.320  1.09622E+00  1.05577E+00  4.04505E-02
    9008.350     14.447   2.360  1.03527E+00  1.05400E+00 -1.87327E-02
    9009.075     15.172   2.400  1.01358E+00  1.05204E+00 -3.84638E-02
    9009.813     15.910   2.440  1.02559E+00  1.04991E+00 -2.43178E-02
    9010.562     16.660   2.480  1.04464E+00  1.04762E+00 -2.97707E-03
    9011.324     17.422   2.520  1.06244E+00  1.04522E+00  1.72122E-02
    9012.099     18.196   2.560  1.07444E+00  1.04272E+00  3.17242E-02
    9012.885     18.982   2.600  1.07867E+00  1.04016E+00  3.85121E-02
    9013.684     19.781   2.640  1.07565E+00  1.03753E+00  3.81172E-02
    9014.494     20.591   2.680  1.06716E+00  1.03489E+00  3.22693E-02
    9015.317     21.414   2.720  1.05557E+00  1.03226E+00  2.33056E-02
    9016.152     22.250   2.760  1.04282E+00  1.02962E+00  1.32042E-02
    9017.000     23.097   2.800  1.03045E+00  1.02701E+00  3.43658E-03
    9017.859     23.956   2.840  1.01953E+00  1.02445E+00 -4.91687E-03
    9018.731     24.828   2.880  1.01031E+00  1.02195E+00 -1.16456E-02
    9019.615     25.712   2.920  1.00224E+00  1.01953E+00 -1.72841E-02
    9020.511     26.608   2.960  9.94311E-01  1.01717E+00 -2.28540E-02
    9021.419     27.516   3.000  9.85481E-01  1.01491E+00 -2.94262E-02
    9022.340     28.437   3.040  9.74652E-01  1.01272E+00 -3.80651E-02
    9023.273     29.370   3.080  9.61461E-01  1.01066E+00 -4.92003E-02
    9024.217     30.314   3.120  9.46284E-01  1.00870E+00 -6.24191E-02
    9025.175     31.272   3.160  9.30184E-01  1.00686E+00 -7.66789E-02
    9026.144     32.241   3.200  9.14435E-01  1.00514E+00 -9.07101E-02
    9027.125     33.222   3.240  9.00380E-01  1.00355E+00 -1.03171E-01
    9028.119     34.216   3.280  8.89009E-01  1.00208E+00 -1.13073E-01
    9029.125     35.222   3.320  8.81119E-01  1.00076E+00 -1.19644E-01
    9030.143     36.240   3.360  8.77009E-01  9.99549E-01 -1.22540E-01
    9031.173     37.270   3.400  8.76795E-01  9.98484E-01 -1.21689E-01
    9032.215     38.312   3.440  8.80121E-01  9.97547E-01 -1.17425E-01
    9033.270     39.367   3.480  8.86333E-01  9.96738E-01 -1.10404E-01
    9034.337     40.434   3.520  8.94502E-01  9.96077E-01 -1.01576E-01
    9035.416     41.513   3.560  9.03656E-01  9.95545E-01 -9.18888E-02
    9036.507     42.604   3.600  9.13229E-01  9.95116E-01 -8.18870E-02
    9037.610     43.707   3.640  9.23127E-01  9.94834E-01 -7.17072E-02
    9038.726     44.823   3.680  9.33305E-01  9.94677E-01 -6.13718E-02
    9039.854     45.951   3.720  9.43672E-01  9.94642E-01 -5.09698E-02
    9040.994     47.091   3.760  9.53965E-01  9.94730E-01 -4.07648E-02
    9042.146     48.243   3.800  9.63725E-01  9.94937E-01 -3.12121E-02
    9043.310     49.407   3.840  9.72452E-01  9.95239E-01 -2.27865E-02
    9044.487     50.584   3.880  9.80000E-01  9.95655E-01 -1.56547E-02
    9045.675     51.772   3.920  9.86603E-01  9.96162E-01 -9.55909E-03
    9046.876     52.973   3.960  9.92814E-01  9.96781E-01 -3.96650E-03
    9048.089     54.186   4.000  9.99208E-01  9.97487E-01  1.72093E-03
    9049.315     55.412   4.040  1.00623E+00  9.98275E-01  7.95931E-03
    9050.552     56.649   4.080  1.01406E+00  9.99146E-01  1.49155E-02
    9051.802     57.899   4.120  1.02251E+00  1.00009E+00  2.24193E-02
    9053.064     59.161   4.160  1.03113E+00  1.00109E+00  3.00406E-02
    9054.338     60.435   4.200  1.03938E+00  1.00217E+00  3.72116E-02
    9055.624     61.721   4.240  1.04667E+00  1.00329E+00  4.33805E-02
    9056.922     63.019   4.280  1.05251E+00  1.00447E+00  4.80326E-02
    9058.233     64.330   4.320  1.05644E+00  1.00568E+00  5.07551E-02
    9059.556     65.653   4.360  1.05834E+00  1.00695E+00  5.13921E-02
    9060.891     66.988   4.400  1.05846E+00  1.00823E+00  5.02340E-02
    9062.238     68.335   4.440  1.05752E+00  1.00951E+00  4.80036E-02
    9063.597     69.694   4.480  1.05653E+00  1.01083E+00  4.57034E-02
    9064.969     71.066   4.520  1.05650E+00  1.01214E+00  4.43591E-02
    9066.353     72.450   4.560  1.05830E+00  1.01346E+00  4.48423E-02
    9067.749     73.846   4.600  1.06234E+00  1.01478E+00  4.75655E-02
    9069.157     75.254   4.640  1.06842E+00  1.01609E+00  5.23329E-02
    9070.577     76.674   4.680  1.07574E+00  1.01736E+00  5.83824E-02
    9072.010     78.107   4.720  1.08320E+00  1.01862E+00  6.45774E-02
    9073.455     79.552   4.760  1.08957E+00  1.01983E+00  6.97433E-02
    9074.912     81.009   4.800  1.09397E+00  1.02101E+00  7.29658E-02
    9076.381     82.478   4.840  1.09584E+00  1.02215E+00  7.36897E-02
    9077.862     83.959   4.880  1.09493E+00  1.02325E+00  7.16856E-02
    9079.356     85.453   4.920  1.09134E+00  1.02428E+00  6.70664E-02
    9080.861     86.958   4.960  1.08542E+00  1.02525E+00  6.01719E-02
    9082.379     88.476   5.000  1.07755E+00  1.02618E+00  5.13769E-02
    9083.909     90.006   5.040  1.06795E+00  1.02703E+00  4.09214E-02
    9085.451     91.549   5.080  1.05682E+00  1.02780E+00  2.90152E-02
    9087.006     93.103   5.120  1.04468E+00  1.02851E+00  1.61654E-02
    9088.573     94.670   5.160  1.03235E+00  1.02913E+00  3.22499E-03
    9090.151     96.249   5.200  1.02080E+00  1.02968E+00 -8.88350E-03
    9091.743     97.840   5.240  1.01060E+00  1.03015E+00 -1.95457E-02
    9093.346     99.443   5.280  1.00199E+00  1.03054E+00 -2.85493E-02
    9094.961    101.058   5.320  9.94937E-01  1.03085E+00 -3.59090E-02
    9096.589    102.686   5.360  9.89285E-01  1.03107E+00 -4.17834E-02
    9098.229    104.326   5.400  9.84726E-01  1.03121E+00 -4.64812E-02
    9099.881    105.978   5.440  9.80795E-01  1.03126E+00 -5.04671E-02
    9101.545    107.642   5.480  9.77010E-01  1.03124E+00 -5.42253E-02
    9103.221    109.318   5.520  9.73163E-01  1.03112E+00 -5.79615E-02
    9104.910    111.007   5.560  9.69648E-01  1.03093E+00 -6.12856E-02
    9106.611    112.708   5.600  9.67272E-01  1.03066E+00 -6.33906E-02
    9108.324    114.421   5.640  9.66795E-01  1.03034E+00 -6.35415E-02
    9110.049    116.146   5.680  9.68575E-01  1.02993E+00 -6.13590E-02
    9111.786    117.883   5.720  9.72571E-01  1.02945E+00 -5.68814E-02
    9113.536    119.633   5.760  9.78342E-01  1.02890E+00 -5.05547E-02
    9115.297    121.394   5.800  9.85213E-01  1.02829E+00 -4.30811E-02
    9117.071    123.168   5.840  9.92480E-01  1.02765E+00 -3.51665E-02
    9118.857    124.954   5.880  9.99438E-01  1.02693E+00 -2.74961E-02
    9120.656    126.753   5.920  1.00543E+00  1.02618E+00 -2.07560E-02
    9122.466    128.563   5.960  1.00991E+00  1.02540E+00 -1.54884E-02
    9124.289    130.386   6.000  1.01268E+00  1.02454E+00 -1.18564E-02
