# # comment:                                                     FEFF 9.9.1  
# # Source:
# # Structure
# # Reduced
# # space
# # abc:
# # angles:
# # sites:
# # POT  SCF 100  7.0000   0, screened core-hole, AFOLP (folp(0)= 1.150)
# # Abs   Z=29 Rmt= 1.181 Rnm= 1.275 K  shell
# # Pot 1 Z=23 Rmt= 1.091 Rnm= 1.309
# # Pot 2 Z=30 Rmt= 1.315 Rnm= 1.411
# # Pot 3 Z=29 Rmt= 1.184 Rnm= 1.280
# # Pot 4 Z= 8 Rmt= 0.979 Rnm= 1.105
# # Gam_ch=1.729E+00 H-L exch Vi= 0.000E+00 Vr= 0.000E+00
# # Mu=-1.082E+01eV kf=2.187E+00 Vint=-1.668E+01eV Rs_int= 1.658
# FMS rfms= 9.0000
# # PATH  Rmax=-1.000,  Keep_limit= 0.00, Heap_limit 0.00  Pwcrit= 2.50%
#  S02=0.950  Temp=   0.00  Debye_temp=   0.00  Global_sig2= 0.00000
#  Energy zero shift, vr, vi    0.00000E+00   0.00000E+00
#  Curved wave amplitude ratio filter   4.000%
#     file         sig2 tot  cw amp ratio   deg  nlegs   reff  inp sig2
#     0/   0 paths used
#  xsedge+ 50, used to normalize mu           2.4579E-04
#  -----------------------------------------------------------------------
#  omega    e    k    mu    mu0     chi     @#
    8984.318    -14.632  -1.000  2.73968E-02  4.90309E-02 -2.16341E-02
    8984.617    -14.334  -0.960  2.84372E-02  5.23607E-02 -2.39236E-02
    8984.903    -14.047  -0.920  2.95290E-02  5.60369E-02 -2.65079E-02
    8985.178    -13.773  -0.880  3.06764E-02  6.01079E-02 -2.94315E-02
    8985.440    -13.511  -0.840  3.18842E-02  6.46299E-02 -3.27457E-02
    8985.690    -13.261  -0.800  3.31577E-02  6.96678E-02 -3.65100E-02
    8985.928    -13.023  -0.760  3.45028E-02  7.52955E-02 -4.07927E-02
    8986.153    -12.797  -0.720  3.59259E-02  8.15963E-02 -4.56704E-02
    8986.366    -12.584  -0.680  3.74337E-02  8.86613E-02 -5.12276E-02
    8986.568    -12.383  -0.640  3.90328E-02  9.65861E-02 -5.75533E-02
    8986.757    -12.194  -0.600  4.07289E-02  1.05464E-01 -6.47348E-02
    8986.933    -12.017  -0.560  4.25257E-02  1.15373E-01 -7.28471E-02
    8987.098    -11.853  -0.520  4.44228E-02  1.26358E-01 -8.19351E-02
    8987.250    -11.700  -0.480  4.64135E-02  1.38404E-01 -9.19909E-02
    8987.391    -11.560  -0.440  4.84815E-02  1.51408E-01 -1.02926E-01
    8987.519    -11.432  -0.400  5.05990E-02  1.65149E-01 -1.14550E-01
    8987.634    -11.316  -0.360  5.27258E-02  1.79285E-01 -1.26559E-01
    8987.738    -11.213  -0.320  5.48116E-02  1.93371E-01 -1.38559E-01
    8987.829    -11.121  -0.280  5.68008E-02  2.06912E-01 -1.50111E-01
    8987.909    -11.042  -0.240  5.86389E-02  2.19427E-01 -1.60788E-01
    8987.976    -10.975  -0.200  6.02783E-02  2.30508E-01 -1.70230E-01
    8988.031    -10.920  -0.160  6.16806E-02  2.39851E-01 -1.78170E-01
    8988.073    -10.877  -0.120  6.28178E-02  2.47254E-01 -1.84437E-01
    8988.104    -10.847  -0.080  6.36700E-02  2.52600E-01 -1.88930E-01
    8988.128    -10.822   0.000  6.44246E-02  2.56903E-01 -1.92479E-01
    8988.183    -10.768   0.120  6.60815E-02  2.66626E-01 -2.00544E-01
    8988.226    -10.725   0.160  6.72862E-02  2.74218E-01 -2.06932E-01
    8988.281    -10.670   0.200  6.87902E-02  2.83947E-01 -2.15156E-01
    8988.348    -10.603   0.240  7.05869E-02  2.95719E-01 -2.25132E-01
    8988.427    -10.524   0.280  7.26763E-02  3.09353E-01 -2.36677E-01
    8988.518    -10.432   0.320  7.50604E-02  3.24596E-01 -2.49536E-01
    8988.622    -10.329   0.360  7.77496E-02  3.41057E-01 -2.63308E-01
    8988.738    -10.213   0.400  8.07822E-02  3.58379E-01 -2.77597E-01
    8988.866    -10.085   0.440  8.42627E-02  3.76217E-01 -2.91954E-01
    8989.006     -9.945   0.480  8.82702E-02  3.94260E-01 -3.05990E-01
    8989.158     -9.792   0.520  9.30507E-02  4.12379E-01 -3.19328E-01
    8989.323     -9.628   0.560  9.87867E-02  4.30432E-01 -3.31646E-01
    8989.500     -9.451   0.600  1.05700E-01  4.48453E-01 -3.42752E-01
    8989.689     -9.262   0.640  1.13844E-01  4.66414E-01 -3.52570E-01
    8989.890     -9.061   0.680  1.23120E-01  4.84377E-01 -3.61257E-01
    8990.103     -8.847   0.720  1.33292E-01  5.02405E-01 -3.69113E-01
    8990.329     -8.622   0.760  1.43888E-01  5.20522E-01 -3.76634E-01
    8990.567     -8.384   0.800  1.54233E-01  5.38780E-01 -3.84547E-01
    8990.817     -8.134   0.840  1.63513E-01  5.57162E-01 -3.93649E-01
    8991.079     -7.872   0.880  1.71454E-01  5.75700E-01 -4.04246E-01
    8991.353     -7.598   0.920  1.77908E-01  5.94375E-01 -4.16467E-01
    8991.639     -7.311   0.960  1.82478E-01  6.13156E-01 -4.30679E-01
    8991.938     -7.012   1.000  1.85404E-01  6.32047E-01 -4.46643E-01
    8992.249     -6.702   1.040  1.87658E-01  6.50982E-01 -4.63324E-01
    8992.572     -6.378   1.080  1.90734E-01  6.69910E-01 -4.79176E-01
    8992.907     -6.043   1.120  1.96271E-01  6.88794E-01 -4.92524E-01
    8993.255     -5.696   1.160  2.05231E-01  7.07575E-01 -5.02344E-01
    8993.615     -5.336   1.200  2.17078E-01  7.26190E-01 -5.09112E-01
    8993.986     -4.964   1.240  2.30741E-01  7.44574E-01 -5.13834E-01
    8994.370     -4.580   1.280  2.45670E-01  7.62681E-01 -5.17011E-01
    8994.767     -4.184   1.320  2.62869E-01  7.80425E-01 -5.17557E-01
    8995.175     -3.775   1.360  2.83316E-01  7.97780E-01 -5.14464E-01
    8995.596     -3.355   1.400  3.07701E-01  8.14661E-01 -5.06960E-01
    8996.029     -2.922   1.440  3.39579E-01  8.31045E-01 -4.91466E-01
    8996.474     -2.477   1.480  3.82250E-01  8.46870E-01 -4.64621E-01
    8996.931     -2.020   1.520  4.35950E-01  8.62095E-01 -4.26145E-01
    8997.400     -1.550   1.560  5.01616E-01  8.76663E-01 -3.75047E-01
    8997.882     -1.069   1.600  5.82045E-01  8.90580E-01 -3.08535E-01
    8998.376     -0.575   1.640  6.80171E-01  9.03793E-01 -2.23623E-01
    8998.881     -0.069   1.680  8.00382E-01  9.16295E-01 -1.15913E-01
    8999.400      0.449   1.720  9.45963E-01  9.28056E-01  1.79073E-02
    8999.930      0.979   1.760  1.10535E+00  9.39075E-01  1.66277E-01
    9000.473      1.522   1.800  1.23677E+00  9.49350E-01  2.87420E-01
    9001.027      2.077   1.840  1.30745E+00  9.58905E-01  3.48543E-01
    9001.594      2.644   1.880  1.33608E+00  9.67723E-01  3.68353E-01
    9002.173      3.223   1.920  1.36168E+00  9.75809E-01  3.85869E-01
    9002.765      3.814   1.960  1.40739E+00  9.83192E-01  4.24200E-01
    9003.368      4.418   2.000  1.47231E+00  9.89901E-01  4.82407E-01
    9003.984      5.033   2.040  1.54093E+00  9.95928E-01  5.45006E-01
    9004.612      5.661   2.080  1.59053E+00  1.00131E+00  5.89226E-01
    9005.252      6.301   2.120  1.60984E+00  1.00609E+00  6.03753E-01
    9005.904      6.953   2.160  1.57495E+00  1.01027E+00  5.64675E-01
    9006.569      7.618   2.200  1.47338E+00  1.01391E+00  4.59469E-01
    9007.245      8.295   2.240  1.34344E+00  1.01701E+00  3.26425E-01
    9007.934      8.983   2.280  1.22913E+00  1.01965E+00  2.09478E-01
    9008.635      9.684   2.320  1.14861E+00  1.02179E+00  1.26824E-01
    9009.348     10.398   2.360  1.09478E+00  1.02352E+00  7.12556E-02
    9010.074     11.123   2.400  1.05030E+00  1.02483E+00  2.54724E-02
    9010.811     11.861   2.440  1.00804E+00  1.02579E+00 -1.77548E-02
    9011.561     12.611   2.480  9.74046E-01  1.02640E+00 -5.23517E-02
    9012.323     13.373   2.520  9.55939E-01  1.02671E+00 -7.07663E-02
    9013.097     14.147   2.560  9.60963E-01  1.02673E+00 -6.57659E-02
    9013.884     14.933   2.600  9.91212E-01  1.02650E+00 -3.52908E-02
    9014.682     15.732   2.640  1.02389E+00  1.02604E+00 -2.14663E-03
    9015.493     16.542   2.680  1.04882E+00  1.02539E+00  2.34290E-02
    9016.316     17.365   2.720  1.06500E+00  1.02456E+00  4.04486E-02
    9017.151     18.201   2.760  1.07115E+00  1.02358E+00  4.75760E-02
    9017.998     19.048   2.800  1.06629E+00  1.02245E+00  4.38345E-02
    9018.858     19.907   2.840  1.05112E+00  1.02123E+00  2.98951E-02
    9019.730     20.779   2.880  1.02877E+00  1.01989E+00  8.87898E-03
    9020.614     21.663   2.920  1.00373E+00  1.01848E+00 -1.47422E-02
    9021.510     22.559   2.960  9.80024E-01  1.01701E+00 -3.69857E-02
    9022.418     23.467   3.000  9.59450E-01  1.01552E+00 -5.60719E-02
    9023.339     24.388   3.040  9.41835E-01  1.01398E+00 -7.21414E-02
    9024.271     25.321   3.080  9.26545E-01  1.01242E+00 -8.58774E-02
    9025.216     26.266   3.120  9.12716E-01  1.01087E+00 -9.81495E-02
    9026.173     27.223   3.160  8.99967E-01  1.00931E+00 -1.09344E-01
    9027.142     28.192   3.200  8.88857E-01  1.00779E+00 -1.18929E-01
    9028.124     29.173   3.240  8.80364E-01  1.00627E+00 -1.25909E-01
    9029.118     30.167   3.280  8.75395E-01  1.00482E+00 -1.29421E-01
    9030.123     31.173   3.320  8.74614E-01  1.00338E+00 -1.28768E-01
    9031.141     32.191   3.360  8.78153E-01  1.00201E+00 -1.23858E-01
    9032.172     33.221   3.400  8.85233E-01  1.00069E+00 -1.15453E-01
    9033.214     34.263   3.440  8.94661E-01  9.99410E-01 -1.04749E-01
    9034.269     35.318   3.480  9.05230E-01  9.98206E-01 -9.29767E-02
    9035.335     36.385   3.520  9.16007E-01  9.97079E-01 -8.10717E-02
    9036.414     37.464   3.560  9.26492E-01  9.96029E-01 -6.95364E-02
    9037.506     38.555   3.600  9.36700E-01  9.95056E-01 -5.83554E-02
    9038.609     39.658   3.640  9.46856E-01  9.94140E-01 -4.72843E-02
    9039.725     40.774   3.680  9.57280E-01  9.93323E-01 -3.60434E-02
    9040.852     41.902   3.720  9.68151E-01  9.92565E-01 -2.44138E-02
    9041.992     43.042   3.760  9.79539E-01  9.91887E-01 -1.23486E-02
    9043.144     44.194   3.800  9.91274E-01  9.91311E-01 -3.72177E-05
    9044.309     45.358   3.840  1.00288E+00  9.90794E-01  1.20864E-02
    9045.485     46.535   3.880  1.01390E+00  9.90379E-01  2.35169E-02
    9046.674     47.723   3.920  1.02390E+00  9.90022E-01  3.38768E-02
    9047.875     48.924   3.960  1.03295E+00  9.89765E-01  4.31848E-02
    9049.088     50.137   4.000  1.04159E+00  9.89566E-01  5.20241E-02
    9050.313     51.363   4.040  1.05066E+00  9.89442E-01  6.12157E-02
    9051.551     52.600   4.080  1.06053E+00  9.89393E-01  7.11392E-02
    9052.800     53.850   4.120  1.07058E+00  9.89399E-01  8.11815E-02
    9054.062     55.112   4.160  1.07915E+00  9.89500E-01  8.96544E-02
    9055.336     56.386   4.200  1.08395E+00  9.89631E-01  9.43210E-02
    9056.623     57.672   4.240  1.08318E+00  9.89852E-01  9.33230E-02
    9057.921     58.970   4.280  1.07620E+00  9.90100E-01  8.61043E-02
    9059.232     60.281   4.320  1.06384E+00  9.90416E-01  7.34235E-02
    9060.554     61.604   4.360  1.04780E+00  9.90798E-01  5.70030E-02
    9061.889     62.939   4.400  1.03007E+00  9.91200E-01  3.88683E-02
    9063.237     64.286   4.440  1.01242E+00  9.91642E-01  2.07749E-02
    9064.596     65.646   4.480  9.96066E-01  9.92145E-01  3.92138E-03
    9065.968     67.017   4.520  9.81618E-01  9.92663E-01 -1.10450E-02
    9067.351     68.401   4.560  9.69317E-01  9.93214E-01 -2.38971E-02
    9068.747     69.797   4.600  9.59185E-01  9.93775E-01 -3.45898E-02
    9070.156     71.205   4.640  9.51355E-01  9.94366E-01 -4.30112E-02
    9071.576     72.625   4.680  9.46077E-01  9.94965E-01 -4.88877E-02
    9073.009     74.058   4.720  9.43744E-01  9.95592E-01 -5.18480E-02
    9074.453     75.503   4.760  9.44628E-01  9.96222E-01 -5.15943E-02
    9075.910     76.960   4.800  9.48700E-01  9.96852E-01 -4.81515E-02
    9077.379     78.429   4.840  9.55662E-01  9.97481E-01 -4.18190E-02
    9078.861     79.910   4.880  9.64980E-01  9.98108E-01 -3.31280E-02
    9080.354     81.404   4.920  9.75821E-01  9.98708E-01 -2.28868E-02
    9081.860     82.909   4.960  9.87182E-01  9.99323E-01 -1.21414E-02
    9083.378     84.427   5.000  9.97925E-01  9.99909E-01 -1.98371E-03
    9084.908     85.957   5.040  1.00720E+00  1.00046E+00  6.73844E-03
    9086.450     87.500   5.080  1.01455E+00  1.00100E+00  1.35453E-02
    9088.005     89.054   5.120  1.01977E+00  1.00151E+00  1.82583E-02
    9089.571     90.621   5.160  1.02298E+00  1.00200E+00  2.09813E-02
    9091.150     92.200   5.200  1.02462E+00  1.00243E+00  2.21843E-02
    9092.741     93.791   5.240  1.02547E+00  1.00285E+00  2.26200E-02
    9094.344     95.394   5.280  1.02628E+00  1.00323E+00  2.30533E-02
    9095.960     97.009   5.320  1.02764E+00  1.00357E+00  2.40790E-02
    9097.588     98.637   5.360  1.02984E+00  1.00386E+00  2.59838E-02
    9099.227    100.277   5.400  1.03269E+00  1.00412E+00  2.85733E-02
    9100.879    101.929   5.440  1.03542E+00  1.00433E+00  3.10954E-02
    9102.544    103.593   5.480  1.03692E+00  1.00447E+00  3.24461E-02
    9104.220    105.269   5.520  1.03621E+00  1.00459E+00  3.16181E-02
    9105.909    106.958   5.560  1.03272E+00  1.00465E+00  2.80736E-02
    9107.609    108.659   5.600  1.02638E+00  1.00466E+00  2.17204E-02
    9109.322    110.372   5.640  1.01710E+00  1.00463E+00  1.24752E-02
    9111.047    112.097   5.680  1.00476E+00  1.00455E+00  2.10026E-04
    9112.785    113.834   5.720  9.89833E-01  1.00444E+00 -1.46038E-02
    9114.534    115.584   5.760  9.73946E-01  1.00425E+00 -3.03069E-02
    9116.296    117.345   5.800  9.59620E-01  1.00403E+00 -4.44073E-02
    9118.070    119.119   5.840  9.49175E-01  1.00379E+00 -5.46108E-02
    9119.856    120.906   5.880  9.43917E-01  1.00348E+00 -5.95653E-02
    9121.654    122.704   5.920  9.44195E-01  1.00314E+00 -5.89443E-02
    9123.465    124.514   5.960  9.49625E-01  1.00276E+00 -5.31320E-02
    9125.288    126.337   6.000  9.59759E-01  1.00231E+00 -4.25490E-02
