# # comment:                                                     FEFF 9.9.1  
# # Source:
# # Structure
# # Reduced
# # space
# # abc:
# # angles:
# # sites:
# # POT  SCF 100  7.0000   0, screened core-hole, AFOLP (folp(0)= 1.150)
# # Abs   Z=29 Rmt= 1.207 Rnm= 1.298 K  shell
# # Pot 1 Z=57 Rmt= 1.738 Rnm= 1.814
# # Pot 2 Z=29 Rmt= 1.207 Rnm= 1.298
# # Pot 3 Z= 8 Rmt= 1.039 Rnm= 1.096
# # Gam_ch=1.729E+00 H-L exch Vi= 0.000E+00 Vr= 0.000E+00
# # Mu=-8.147E+00eV kf=2.111E+00 Vint=-1.709E+01eV Rs_int= 1.718
# FMS rfms= 9.0000
# # PATH  Rmax=-1.000,  Keep_limit= 0.00, Heap_limit 0.00  Pwcrit= 2.50%
#  S02=0.950  Temp=   0.00  Debye_temp=   0.00  Global_sig2= 0.00000
#  Energy zero shift, vr, vi    0.00000E+00   0.00000E+00
#  Curved wave amplitude ratio filter   4.000%
#     file         sig2 tot  cw amp ratio   deg  nlegs   reff  inp sig2
#     0/   0 paths used
#  xsedge+ 50, used to normalize mu           2.4574E-04
#  -----------------------------------------------------------------------
#  omega    e    k    mu    mu0     chi     @#
    8984.416    -11.957  -1.000  3.91896E-02  5.41350E-02 -1.49454E-02
    8984.715    -11.658  -0.960  4.15259E-02  5.80774E-02 -1.65515E-02
    8985.001    -11.372  -0.920  4.40989E-02  6.24591E-02 -1.83602E-02
    8985.276    -11.098  -0.880  4.69455E-02  6.73447E-02 -2.03993E-02
    8985.538    -10.835  -0.840  5.01091E-02  7.28097E-02 -2.27007E-02
    8985.788    -10.585  -0.800  5.36412E-02  7.89414E-02 -2.53002E-02
    8986.025    -10.348  -0.760  5.76024E-02  8.58399E-02 -2.82376E-02
    8986.251    -10.122  -0.720  6.20621E-02  9.36185E-02 -3.15564E-02
    8986.464     -9.909  -0.680  6.70989E-02  1.02402E-01 -3.53030E-02
    8986.666     -9.708  -0.640  7.27971E-02  1.12322E-01 -3.95247E-02
    8986.855     -9.519  -0.600  7.92406E-02  1.23507E-01 -4.42667E-02
    8987.031     -9.342  -0.560  8.65014E-02  1.36069E-01 -4.95674E-02
    8987.196     -9.177  -0.520  9.46207E-02  1.50072E-01 -5.54515E-02
    8987.348     -9.025  -0.480  1.03582E-01  1.65503E-01 -6.19202E-02
    8987.489     -8.885  -0.440  1.13284E-01  1.82225E-01 -6.89409E-02
    8987.617     -8.757  -0.400  1.23513E-01  1.99948E-01 -7.64346E-02
    8987.732     -8.641  -0.360  1.33946E-01  2.18213E-01 -8.42675E-02
    8987.836     -8.537  -0.320  1.44179E-01  2.36427E-01 -9.22474E-02
    8987.927     -8.446  -0.280  1.53796E-01  2.53928E-01 -1.00132E-01
    8988.007     -8.367  -0.240  1.62435E-01  2.70083E-01 -1.07648E-01
    8988.074     -8.299  -0.200  1.69840E-01  2.84358E-01 -1.14518E-01
    8988.129     -8.245  -0.160  1.75878E-01  2.96367E-01 -1.20489E-01
    8988.171     -8.202  -0.120  1.80508E-01  3.05859E-01 -1.25351E-01
    8988.202     -8.171  -0.080  1.83743E-01  3.12696E-01 -1.28953E-01
    8988.226     -8.147   0.000  1.86216E-01  3.18190E-01 -1.31974E-01
    8988.281     -8.092   0.120  1.91768E-01  3.30562E-01 -1.38794E-01
    8988.324     -8.050   0.160  1.96044E-01  3.40192E-01 -1.44148E-01
    8988.379     -7.995   0.200  2.01332E-01  3.52475E-01 -1.51144E-01
    8988.446     -7.928   0.240  2.07408E-01  3.67263E-01 -1.59855E-01
    8988.525     -7.848   0.280  2.13957E-01  3.84239E-01 -1.70282E-01
    8988.616     -7.757   0.320  2.20634E-01  4.02972E-01 -1.82338E-01
    8988.720     -7.653   0.360  2.27052E-01  4.22904E-01 -1.95852E-01
    8988.836     -7.537   0.400  2.32987E-01  4.43461E-01 -2.10475E-01
    8988.964     -7.409   0.440  2.38463E-01  4.64145E-01 -2.25682E-01
    8989.104     -7.269   0.480  2.43701E-01  4.84509E-01 -2.40807E-01
    8989.256     -7.117   0.520  2.49204E-01  5.04276E-01 -2.55072E-01
    8989.421     -6.952   0.560  2.55632E-01  5.23348E-01 -2.67716E-01
    8989.598     -6.775   0.600  2.63498E-01  5.41692E-01 -2.78194E-01
    8989.787     -6.587   0.640  2.72981E-01  5.59326E-01 -2.86345E-01
    8989.988     -6.385   0.680  2.83867E-01  5.76362E-01 -2.92495E-01
    8990.201     -6.172   0.720  2.95580E-01  5.92869E-01 -2.97289E-01
    8990.427     -5.946   0.760  3.07972E-01  6.08952E-01 -3.00981E-01
    8990.665     -5.709   0.800  3.21519E-01  6.24688E-01 -3.03169E-01
    8990.914     -5.459   0.840  3.36962E-01  6.40119E-01 -3.03157E-01
    8991.177     -5.197   0.880  3.54591E-01  6.55335E-01 -3.00744E-01
    8991.451     -4.922   0.920  3.73316E-01  6.70335E-01 -2.97019E-01
    8991.737     -4.636   0.960  3.91102E-01  6.85159E-01 -2.94057E-01
    8992.036     -4.337   1.000  4.06547E-01  6.99822E-01 -2.93276E-01
    8992.347     -4.026   1.040  4.19044E-01  7.14309E-01 -2.95265E-01
    8992.670     -3.703   1.080  4.26893E-01  7.28636E-01 -3.01743E-01
    8993.005     -3.368   1.120  4.27551E-01  7.42774E-01 -3.15223E-01
    8993.353     -3.020   1.160  4.22671E-01  7.56731E-01 -3.34059E-01
    8993.713     -2.661   1.200  4.18523E-01  7.70465E-01 -3.51942E-01
    8994.084     -2.289   1.240  4.19818E-01  7.83978E-01 -3.64159E-01
    8994.468     -1.905   1.280  4.26738E-01  7.97203E-01 -3.70465E-01
    8994.865     -1.509   1.320  4.40083E-01  8.10177E-01 -3.70094E-01
    8995.273     -1.100   1.360  4.63848E-01  8.22812E-01 -3.58964E-01
    8995.694     -0.680   1.400  4.97879E-01  8.35121E-01 -3.37242E-01
    8996.127     -0.247   1.440  5.35907E-01  8.47076E-01 -3.11169E-01
    8996.572      0.198   1.480  5.74691E-01  8.58650E-01 -2.83959E-01
    8997.029      0.655   1.520  6.14343E-01  8.69818E-01 -2.55475E-01
    8997.498      1.125   1.560  6.57738E-01  8.80571E-01 -2.22833E-01
    8997.980      1.606   1.600  7.11556E-01  8.90903E-01 -1.79347E-01
    8998.473      2.100   1.640  7.76171E-01  9.00771E-01 -1.24601E-01
    8998.979      2.606   1.680  8.48675E-01  9.10190E-01 -6.15155E-02
    8999.498      3.124   1.720  9.37905E-01  9.19117E-01  1.87884E-02
    9000.028      3.655   1.760  1.05493E+00  9.27592E-01  1.27342E-01
    9000.570      4.197   1.800  1.19011E+00  9.35594E-01  2.54515E-01
    9001.125      4.752   1.840  1.30994E+00  9.43103E-01  3.66842E-01
    9001.692      5.319   1.880  1.38881E+00  9.50141E-01  4.38664E-01
    9002.271      5.898   1.920  1.43648E+00  9.56712E-01  4.79765E-01
    9002.863      6.489   1.960  1.46503E+00  9.62820E-01  5.02211E-01
    9003.466      7.093   2.000  1.47775E+00  9.68468E-01  5.09278E-01
    9004.082      7.709   2.040  1.48265E+00  9.73684E-01  5.08969E-01
    9004.710      8.336   2.080  1.47660E+00  9.78433E-01  4.98168E-01
    9005.350      8.977   2.120  1.43090E+00  9.82782E-01  4.48114E-01
    9006.002      9.629   2.160  1.33931E+00  9.86719E-01  3.52591E-01
    9006.666     10.293   2.200  1.23685E+00  9.90274E-01  2.46577E-01
    9007.343     10.970   2.240  1.15851E+00  9.93454E-01  1.65054E-01
    9008.032     11.659   2.280  1.11283E+00  9.96267E-01  1.16567E-01
    9008.733     12.360   2.320  1.09239E+00  9.98723E-01  9.36709E-02
    9009.446     13.073   2.360  1.09060E+00  1.00087E+00  8.97330E-02
    9010.172     13.798   2.400  1.10325E+00  1.00272E+00  1.00524E-01
    9010.909     14.536   2.440  1.12153E+00  1.00429E+00  1.17244E-01
    9011.659     15.286   2.480  1.12931E+00  1.00557E+00  1.23737E-01
    9012.421     16.048   2.520  1.11163E+00  1.00663E+00  1.05008E-01
    9013.195     16.822   2.560  1.07754E+00  1.00742E+00  7.01147E-02
    9013.982     17.608   2.600  1.04560E+00  1.00803E+00  3.75780E-02
    9014.780     18.407   2.640  1.01994E+00  1.00843E+00  1.15067E-02
    9015.591     19.218   2.680  9.99825E-01  1.00866E+00 -8.83684E-03
    9016.414     20.041   2.720  9.83831E-01  1.00873E+00 -2.48975E-02
    9017.249     20.876   2.760  9.70751E-01  1.00864E+00 -3.78871E-02
    9018.096     21.723   2.800  9.59411E-01  1.00842E+00 -4.90093E-02
    9018.956     22.583   2.840  9.49373E-01  1.00810E+00 -5.87280E-02
    9019.828     23.454   2.880  9.40645E-01  1.00767E+00 -6.70230E-02
    9020.712     24.338   2.920  9.33220E-01  1.00713E+00 -7.39073E-02
    9021.608     25.234   2.960  9.27079E-01  1.00653E+00 -7.94470E-02
    9022.516     26.143   3.000  9.22138E-01  1.00587E+00 -8.37354E-02
    9023.436     27.063   3.040  9.18136E-01  1.00515E+00 -8.70166E-02
    9024.369     27.996   3.080  9.14645E-01  1.00441E+00 -8.97653E-02
    9025.314     28.941   3.120  9.10990E-01  1.00361E+00 -9.26194E-02
    9026.271     29.898   3.160  9.06432E-01  1.00282E+00 -9.63860E-02
    9027.240     30.867   3.200  9.00694E-01  1.00200E+00 -1.01302E-01
    9028.222     31.849   3.240  8.94492E-01  1.00115E+00 -1.06658E-01
    9029.215     32.842   3.280  8.88934E-01  1.00032E+00 -1.11391E-01
    9030.221     33.848   3.320  8.85027E-01  9.99524E-01 -1.14498E-01
    9031.239     34.866   3.360  8.83457E-01  9.98709E-01 -1.15253E-01
    9032.270     35.896   3.400  8.84729E-01  9.97923E-01 -1.13195E-01
    9033.312     36.939   3.440  8.88547E-01  9.97171E-01 -1.08625E-01
    9034.367     37.993   3.480  8.94516E-01  9.96457E-01 -1.01941E-01
    9035.433     39.060   3.520  9.02091E-01  9.95779E-01 -9.36877E-02
    9036.512     40.139   3.560  9.10549E-01  9.95138E-01 -8.45894E-02
    9037.604     41.230   3.600  9.19130E-01  9.94518E-01 -7.53877E-02
    9038.707     42.334   3.640  9.27323E-01  9.93959E-01 -6.66368E-02
    9039.822     43.449   3.680  9.34827E-01  9.93445E-01 -5.86188E-02
    9040.950     44.577   3.720  9.41604E-01  9.92996E-01 -5.13925E-02
    9042.090     45.717   3.760  9.47963E-01  9.92571E-01 -4.46078E-02
    9043.242     46.869   3.800  9.54513E-01  9.92212E-01 -3.76990E-02
    9044.407     48.033   3.840  9.61811E-01  9.91920E-01 -3.01084E-02
    9045.583     49.210   3.880  9.70324E-01  9.91652E-01 -2.13280E-02
    9046.772     50.399   3.920  9.80431E-01  9.91453E-01 -1.10221E-02
    9047.973     51.600   3.960  9.92056E-01  9.91321E-01  7.34675E-04
    9049.186     52.813   4.000  1.00459E+00  9.91213E-01  1.33764E-02
    9050.411     54.038   4.040  1.01720E+00  9.91172E-01  2.60258E-02
    9051.649     55.275   4.080  1.02897E+00  9.91197E-01  3.77750E-02
    9052.898     56.525   4.120  1.03910E+00  9.91246E-01  4.78546E-02
    9054.160     57.787   4.160  1.04737E+00  9.91359E-01  5.60149E-02
    9055.434     59.061   4.200  1.05388E+00  9.91514E-01  6.23635E-02
    9056.721     60.347   4.240  1.05896E+00  9.91711E-01  6.72455E-02
    9058.019     61.646   4.280  1.06299E+00  9.91947E-01  7.10443E-02
    9059.330     62.956   4.320  1.06630E+00  9.92220E-01  7.40841E-02
    9060.652     64.279   4.360  1.06906E+00  9.92511E-01  7.65504E-02
    9061.987     65.614   4.400  1.07134E+00  9.92861E-01  7.84792E-02
    9063.335     66.961   4.440  1.07321E+00  9.93248E-01  7.99667E-02
    9064.694     68.321   4.480  1.07466E+00  9.93646E-01  8.10152E-02
    9066.066     69.692   4.520  1.07574E+00  9.94077E-01  8.16613E-02
    9067.449     71.076   4.560  1.07647E+00  9.94518E-01  8.19488E-02
    9068.845     72.472   4.600  1.07677E+00  9.94989E-01  8.17775E-02
    9070.254     73.880   4.640  1.07629E+00  9.95489E-01  8.07976E-02
    9071.674     75.301   4.680  1.07448E+00  9.95972E-01  7.85061E-02
    9073.106     76.733   4.720  1.07077E+00  9.96480E-01  7.42914E-02
    9074.551     78.178   4.760  1.06448E+00  9.96991E-01  6.74839E-02
    9076.008     79.635   4.800  1.05504E+00  9.97505E-01  5.75351E-02
    9077.477     81.104   4.840  1.04239E+00  9.98040E-01  4.43503E-02
    9078.959     82.585   4.880  1.02718E+00  9.98549E-01  2.86317E-02
    9080.452     84.079   4.920  1.01084E+00  9.99054E-01  1.17864E-02
    9081.958     85.585   4.960  9.94845E-01  9.99532E-01 -4.68748E-03
    9083.476     87.103   5.000  9.80315E-01  1.00003E+00 -1.97103E-02
    9085.006     88.633   5.040  9.67754E-01  1.00049E+00 -3.27344E-02
    9086.548     90.175   5.080  9.57433E-01  1.00092E+00 -4.34862E-02
    9088.103     91.729   5.120  9.49647E-01  1.00134E+00 -5.16951E-02
    9089.669     93.296   5.160  9.44642E-01  1.00176E+00 -5.71134E-02
    9091.248     94.875   5.200  9.42581E-01  1.00213E+00 -5.95518E-02
    9092.839     96.466   5.240  9.43406E-01  1.00247E+00 -5.90678E-02
    9094.442     98.069   5.280  9.46806E-01  1.00278E+00 -5.59723E-02
    9096.058     99.685   5.320  9.52251E-01  1.00307E+00 -5.08172E-02
    9097.685    101.312   5.360  9.58986E-01  1.00332E+00 -4.43356E-02
    9099.325    102.952   5.400  9.66102E-01  1.00354E+00 -3.74337E-02
    9100.977    104.604   5.440  9.72601E-01  1.00371E+00 -3.11081E-02
    9102.641    106.268   5.480  9.77607E-01  1.00384E+00 -2.62371E-02
    9104.318    107.945   5.520  9.80612E-01  1.00394E+00 -2.33284E-02
    9106.006    109.633   5.560  9.81640E-01  1.00402E+00 -2.23779E-02
    9107.707    111.334   5.600  9.81188E-01  1.00403E+00 -2.28453E-02
    9109.420    113.047   5.640  9.80224E-01  1.00401E+00 -2.37832E-02
    9111.145    114.772   5.680  9.79884E-01  1.00396E+00 -2.40798E-02
    9112.883    116.509   5.720  9.80972E-01  1.00386E+00 -2.28857E-02
    9114.632    118.259   5.760  9.83737E-01  1.00371E+00 -1.99734E-02
    9116.394    120.021   5.800  9.87708E-01  1.00355E+00 -1.58409E-02
    9118.168    121.795   5.840  9.91867E-01  1.00333E+00 -1.14588E-02
    9119.954    123.581   5.880  9.95254E-01  1.00309E+00 -7.83294E-03
    9121.752    125.379   5.920  9.97123E-01  1.00279E+00 -5.66643E-03
    9123.563    127.190   5.960  9.97155E-01  1.00248E+00 -5.32492E-03
    9125.386    129.012   6.000  9.94936E-01  1.00208E+00 -7.14313E-03
