# # comment:                                                     FEFF 9.9.1  
# # Source:
# # Structure
# # Reduced
# # space
# # abc:
# # angles:
# # sites:
# # POT  SCF 100  7.0000   0, screened core-hole, AFOLP (folp(0)= 1.150)
# # Abs   Z=29 Rmt= 1.194 Rnm= 1.334 K  shell
# # Pot 1 Z= 3 Rmt= 1.192 Rnm= 1.301
# # Pot 2 Z=29 Rmt= 1.205 Rnm= 1.341
# # Pot 3 Z= 8 Rmt= 0.953 Rnm= 1.096
# # Pot 4 Z= 9 Rmt= 1.025 Rnm= 1.146
# # Gam_ch=1.729E+00 H-L exch Vi= 0.000E+00 Vr= 0.000E+00
# # Mu=-6.795E+00eV kf=1.922E+00 Vint=-1.289E+01eV Rs_int= 1.887
# FMS rfms= 9.0000
# # PATH  Rmax=-1.000,  Keep_limit= 0.00, Heap_limit 0.00  Pwcrit= 2.50%
#  S02=0.950  Temp=   0.00  Debye_temp=   0.00  Global_sig2= 0.00000
#  Energy zero shift, vr, vi    0.00000E+00   0.00000E+00
#  Curved wave amplitude ratio filter   4.000%
#     file         sig2 tot  cw amp ratio   deg  nlegs   reff  inp sig2
#     0/   0 paths used
#  xsedge+ 50, used to normalize mu           2.4113E-04
#  -----------------------------------------------------------------------
#  omega    e    k    mu    mu0     chi     @#
    8983.488    -10.605  -1.000  3.55826E-02  5.56561E-02 -2.00735E-02
    8983.787    -10.306  -0.960  3.71578E-02  5.96207E-02 -2.24629E-02
    8984.073    -10.019  -0.920  3.88169E-02  6.40120E-02 -2.51951E-02
    8984.348     -9.745  -0.880  4.05654E-02  6.88909E-02 -2.83254E-02
    8984.610     -9.483  -0.840  4.24095E-02  7.43279E-02 -3.19184E-02
    8984.860     -9.233  -0.800  4.43556E-02  8.04045E-02 -3.60490E-02
    8985.098     -8.995  -0.760  4.64111E-02  8.72140E-02 -4.08030E-02
    8985.323     -8.770  -0.720  4.85837E-02  9.48612E-02 -4.62775E-02
    8985.537     -8.556  -0.680  5.08815E-02  1.03461E-01 -5.25797E-02
    8985.738     -8.355  -0.640  5.33121E-02  1.13135E-01 -5.98226E-02
    8985.927     -8.166  -0.600  5.58819E-02  1.24000E-01 -6.81180E-02
    8986.103     -7.989  -0.560  5.85938E-02  1.36157E-01 -7.75628E-02
    8986.268     -7.825  -0.520  6.14448E-02  1.49663E-01 -8.82180E-02
    8986.420     -7.672  -0.480  6.44218E-02  1.64502E-01 -1.00080E-01
    8986.561     -7.532  -0.440  6.74974E-02  1.80544E-01 -1.13047E-01
    8986.689     -7.404  -0.400  7.06262E-02  1.97518E-01 -1.26891E-01
    8986.804     -7.288  -0.360  7.37443E-02  2.14994E-01 -1.41249E-01
    8986.908     -7.185  -0.320  7.67734E-02  2.32417E-01 -1.55643E-01
    8987.000     -7.093  -0.280  7.96294E-02  2.49167E-01 -1.69538E-01
    8987.079     -7.014  -0.240  8.22334E-02  2.64647E-01 -1.82414E-01
    8987.146     -6.947  -0.200  8.45199E-02  2.78350E-01 -1.93830E-01
    8987.201     -6.892  -0.160  8.64411E-02  2.89897E-01 -2.03456E-01
    8987.243     -6.850  -0.120  8.79648E-02  2.99043E-01 -2.11078E-01
    8987.274     -6.819  -0.080  8.90708E-02  3.05642E-01 -2.16572E-01
    8987.298     -6.795   0.000  8.99775E-02  3.10953E-01 -2.20975E-01
    8987.353     -6.740   0.120  9.20482E-02  3.22949E-01 -2.30900E-01
    8987.396     -6.697   0.160  9.35912E-02  3.32289E-01 -2.38697E-01
    8987.451     -6.642   0.200  9.55733E-02  3.44259E-01 -2.48686E-01
    8987.518     -6.575   0.240  9.79705E-02  3.58756E-01 -2.60786E-01
    8987.597     -6.496   0.280  1.00748E-01  3.75482E-01 -2.74734E-01
    8987.688     -6.405   0.320  1.03907E-01  3.94121E-01 -2.90213E-01
    8987.792     -6.301   0.360  1.07461E-01  4.14179E-01 -3.06718E-01
    8987.908     -6.185   0.400  1.11452E-01  4.35192E-01 -3.23740E-01
    8988.036     -6.057   0.440  1.16011E-01  4.56693E-01 -3.40682E-01
    8988.176     -5.917   0.480  1.21271E-01  4.78313E-01 -3.57041E-01
    8988.328     -5.764   0.520  1.27469E-01  4.99805E-01 -3.72336E-01
    8988.493     -5.600   0.560  1.34846E-01  5.21063E-01 -3.86217E-01
    8988.670     -5.423   0.600  1.43627E-01  5.42049E-01 -3.98422E-01
    8988.859     -5.234   0.640  1.54003E-01  5.62760E-01 -4.08757E-01
    8989.060     -5.033   0.680  1.66081E-01  5.83245E-01 -4.17165E-01
    8989.273     -4.820   0.720  1.79973E-01  6.03541E-01 -4.23568E-01
    8989.499     -4.594   0.760  1.96055E-01  6.23720E-01 -4.27666E-01
    8989.737     -4.356   0.800  2.15058E-01  6.43785E-01 -4.28728E-01
    8989.987     -4.106   0.840  2.38175E-01  6.63786E-01 -4.25611E-01
    8990.249     -3.844   0.880  2.66582E-01  6.83656E-01 -4.17074E-01
    8990.523     -3.570   0.920  3.01171E-01  7.03440E-01 -4.02268E-01
    8990.810     -3.283   0.960  3.41922E-01  7.23087E-01 -3.81166E-01
    8991.108     -2.985   1.000  3.88247E-01  7.42540E-01 -3.54293E-01
    8991.419     -2.674   1.040  4.40036E-01  7.61771E-01 -3.21735E-01
    8991.742     -2.351   1.080  4.98118E-01  7.80728E-01 -2.82610E-01
    8992.077     -2.015   1.120  5.62272E-01  7.99312E-01 -2.37040E-01
    8992.425     -1.668   1.160  6.28099E-01  8.17525E-01 -1.89426E-01
    8992.785     -1.308   1.200  6.85209E-01  8.35262E-01 -1.50053E-01
    8993.156     -0.936   1.240  7.18869E-01  8.52459E-01 -1.33590E-01
    8993.541     -0.552   1.280  7.21381E-01  8.69074E-01 -1.47693E-01
    8993.937     -0.156   1.320  7.03593E-01  8.85066E-01 -1.81473E-01
    8994.345      0.252   1.360  6.83702E-01  9.00373E-01 -2.16671E-01
    8994.766      0.673   1.400  6.76701E-01  9.14938E-01 -2.38236E-01
    8995.199      1.106   1.440  6.91517E-01  9.28766E-01 -2.37249E-01
    8995.644      1.551   1.480  7.28605E-01  9.41784E-01 -2.13179E-01
    8996.101      2.008   1.520  7.83470E-01  9.53983E-01 -1.70513E-01
    8996.570      2.477   1.560  8.49650E-01  9.65379E-01 -1.15729E-01
    8997.052      2.959   1.600  9.20152E-01  9.75906E-01 -5.57545E-02
    8997.546      3.453   1.640  9.94172E-01  9.85630E-01  8.54229E-03
    8998.052      3.959   1.680  1.07519E+00  9.94492E-01  8.06968E-02
    8998.570      4.477   1.720  1.15637E+00  1.00256E+00  1.53812E-01
    8999.100      5.007   1.760  1.22611E+00  1.00980E+00  2.16305E-01
    8999.643      5.550   1.800  1.28698E+00  1.01627E+00  2.70707E-01
    9000.197      6.104   1.840  1.34865E+00  1.02199E+00  3.26666E-01
    9000.764      6.671   1.880  1.40793E+00  1.02698E+00  3.80947E-01
    9001.343      7.250   1.920  1.44663E+00  1.03129E+00  4.15344E-01
    9001.935      7.842   1.960  1.45715E+00  1.03493E+00  4.22225E-01
    9002.538      8.445   2.000  1.45078E+00  1.03794E+00  4.12837E-01
    9003.154      9.061   2.040  1.43562E+00  1.04037E+00  3.95257E-01
    9003.782      9.689   2.080  1.41558E+00  1.04227E+00  3.73314E-01
    9004.422     10.329   2.120  1.39907E+00  1.04364E+00  3.55426E-01
    9005.074     10.981   2.160  1.38499E+00  1.04455E+00  3.40443E-01
    9005.739     11.646   2.200  1.35808E+00  1.04503E+00  3.13050E-01
    9006.415     12.322   2.240  1.30433E+00  1.04513E+00  2.59199E-01
    9007.104     13.011   2.280  1.22799E+00  1.04486E+00  1.83130E-01
    9007.805     13.712   2.320  1.14658E+00  1.04429E+00  1.02297E-01
    9008.518     14.425   2.360  1.08742E+00  1.04342E+00  4.40010E-02
    9009.244     15.151   2.400  1.05923E+00  1.04231E+00  1.69265E-02
    9009.981     15.888   2.440  1.04801E+00  1.04097E+00  7.03239E-03
    9010.731     16.638   2.480  1.04442E+00  1.03946E+00  4.95907E-03
    9011.493     17.400   2.520  1.04365E+00  1.03776E+00  5.88056E-03
    9012.267     18.174   2.560  1.04321E+00  1.03596E+00  7.25302E-03
    9013.054     18.961   2.600  1.04111E+00  1.03403E+00  7.08174E-03
    9013.852     19.759   2.640  1.03594E+00  1.03202E+00  3.91606E-03
    9014.663     20.570   2.680  1.02734E+00  1.02996E+00 -2.61133E-03
    9015.486     21.393   2.720  1.01634E+00  1.02782E+00 -1.14841E-02
    9016.321     22.228   2.760  1.00416E+00  1.02568E+00 -2.15209E-02
    9017.169     23.076   2.800  9.92083E-01  1.02353E+00 -3.14464E-02
    9018.028     23.935   2.840  9.81082E-01  1.02138E+00 -4.03002E-02
    9018.900     24.807   2.880  9.71383E-01  1.01927E+00 -4.78847E-02
    9019.784     25.691   2.920  9.62672E-01  1.01719E+00 -5.45181E-02
    9020.680     26.587   2.960  9.54415E-01  1.01516E+00 -6.07406E-02
    9021.588     27.495   3.000  9.46181E-01  1.01317E+00 -6.69890E-02
    9022.509     28.416   3.040  9.37752E-01  1.01126E+00 -7.35080E-02
    9023.441     29.348   3.080  9.29018E-01  1.00943E+00 -8.04100E-02
    9024.386     30.293   3.120  9.20024E-01  1.00768E+00 -8.76565E-02
    9025.343     31.250   3.160  9.10862E-01  1.00604E+00 -9.51802E-02
    9026.312     32.220   3.200  9.01661E-01  1.00449E+00 -1.02831E-01
    9027.294     33.201   3.240  8.92774E-01  1.00303E+00 -1.10258E-01
    9028.288     34.195   3.280  8.84703E-01  1.00169E+00 -1.16985E-01
    9029.293     35.201   3.320  8.78076E-01  1.00044E+00 -1.22363E-01
    9030.311     36.219   3.360  8.73185E-01  9.99328E-01 -1.26144E-01
    9031.342     37.249   3.400  8.70308E-01  9.98317E-01 -1.28008E-01
    9032.384     38.291   3.440  8.69760E-01  9.97426E-01 -1.27666E-01
    9033.439     39.346   3.480  8.71847E-01  9.96655E-01 -1.24809E-01
    9034.505     40.413   3.520  8.76668E-01  9.96006E-01 -1.19338E-01
    9035.584     41.492   3.560  8.84243E-01  9.95476E-01 -1.11233E-01
    9036.676     42.583   3.600  8.94407E-01  9.95044E-01 -1.00636E-01
    9037.779     43.686   3.640  9.06862E-01  9.94732E-01 -8.78697E-02
    9038.895     44.802   3.680  9.21083E-01  9.94560E-01 -7.34773E-02
    9040.022     45.929   3.720  9.36405E-01  9.94485E-01 -5.80801E-02
    9041.162     47.069   3.760  9.52339E-01  9.94505E-01 -4.21661E-02
    9042.314     48.222   3.800  9.68521E-01  9.94638E-01 -2.61172E-02
    9043.479     49.386   3.840  9.84577E-01  9.94887E-01 -1.03102E-02
    9044.655     50.562   3.880  1.00004E+00  9.95228E-01  4.80750E-03
    9045.844     51.751   3.920  1.01437E+00  9.95678E-01  1.86918E-02
    9047.045     52.952   3.960  1.02695E+00  9.96192E-01  3.07539E-02
    9048.258     54.165   4.000  1.03750E+00  9.96812E-01  4.06887E-02
    9049.483     55.390   4.040  1.04623E+00  9.97515E-01  4.87179E-02
    9050.721     56.628   4.080  1.05380E+00  9.98298E-01  5.55074E-02
    9051.970     57.878   4.120  1.06088E+00  9.99134E-01  6.17452E-02
    9053.232     59.139   4.160  1.06781E+00  1.00005E+00  6.77627E-02
    9054.506     60.413   4.200  1.07438E+00  1.00103E+00  7.33473E-02
    9055.793     61.700   4.240  1.08002E+00  1.00206E+00  7.79537E-02
    9057.091     62.998   4.280  1.08396E+00  1.00314E+00  8.08242E-02
    9058.402     64.309   4.320  1.08564E+00  1.00425E+00  8.13932E-02
    9059.725     65.632   4.360  1.08506E+00  1.00541E+00  7.96544E-02
    9061.060     66.967   4.400  1.08282E+00  1.00660E+00  7.62254E-02
    9062.407     68.314   4.440  1.07984E+00  1.00780E+00  7.20390E-02
    9063.766     69.673   4.480  1.07699E+00  1.00903E+00  6.79626E-02
    9065.138     71.045   4.520  1.07480E+00  1.01026E+00  6.45385E-02
    9066.522     72.429   4.560  1.07342E+00  1.01150E+00  6.19202E-02
    9067.918     73.825   4.600  1.07267E+00  1.01276E+00  5.99103E-02
    9069.326     75.233   4.640  1.07208E+00  1.01399E+00  5.80944E-02
    9070.746     76.653   4.680  1.07127E+00  1.01519E+00  5.60752E-02
    9072.179     78.086   4.720  1.06998E+00  1.01640E+00  5.35779E-02
    9073.623     79.530   4.760  1.06795E+00  1.01756E+00  5.03888E-02
    9075.080     80.987   4.800  1.06497E+00  1.01870E+00  4.62630E-02
    9076.549     82.456   4.840  1.06075E+00  1.01981E+00  4.09491E-02
    9078.031     83.938   4.880  1.05525E+00  1.02087E+00  3.43880E-02
    9079.524     85.431   4.920  1.04874E+00  1.02188E+00  2.68570E-02
    9081.030     86.937   4.960  1.04169E+00  1.02285E+00  1.88345E-02
    9082.548     88.455   5.000  1.03450E+00  1.02375E+00  1.07492E-02
    9084.078     89.985   5.040  1.02732E+00  1.02459E+00  2.72125E-03
    9085.620     91.527   5.080  1.01995E+00  1.02537E+00 -5.41953E-03
    9087.175     93.082   5.120  1.01223E+00  1.02609E+00 -1.38583E-02
    9088.741     94.648   5.160  1.00416E+00  1.02673E+00 -2.25659E-02
    9090.320     96.227   5.200  9.96046E-01  1.02729E+00 -3.12448E-02
    9091.911     97.818   5.240  9.88315E-01  1.02780E+00 -3.94835E-02
    9093.514     99.422   5.280  9.81501E-01  1.02823E+00 -4.67264E-02
    9095.130    101.037   5.320  9.76317E-01  1.02858E+00 -5.22588E-02
    9096.758    102.665   5.360  9.73436E-01  1.02884E+00 -5.54060E-02
    9098.397    104.304   5.400  9.73059E-01  1.02903E+00 -5.59683E-02
    9100.049    105.956   5.440  9.74678E-01  1.02915E+00 -5.44761E-02
    9101.714    107.621   5.480  9.77200E-01  1.02918E+00 -5.19791E-02
    9103.390    109.297   5.520  9.79577E-01  1.02915E+00 -4.95689E-02
    9105.079    110.986   5.560  9.81150E-01  1.02903E+00 -4.78820E-02
    9106.779    112.686   5.600  9.81879E-01  1.02884E+00 -4.69602E-02
    9108.492    114.399   5.640  9.82205E-01  1.02857E+00 -4.63610E-02
    9110.217    116.125   5.680  9.82804E-01  1.02822E+00 -4.54124E-02
    9111.955    117.862   5.720  9.84270E-01  1.02782E+00 -4.35468E-02
    9113.704    119.611   5.760  9.86807E-01  1.02737E+00 -4.05626E-02
    9115.466    121.373   5.800  9.90172E-01  1.02685E+00 -3.66758E-02
    9117.240    123.147   5.840  9.93892E-01  1.02626E+00 -3.23638E-02
    9119.026    124.933   5.880  9.97450E-01  1.02562E+00 -2.81728E-02
    9120.824    126.732   5.920  1.00039E+00  1.02495E+00 -2.45601E-02
    9122.635    128.542   5.960  1.00251E+00  1.02425E+00 -2.17400E-02
    9124.458    130.365   6.000  1.00412E+00  1.02347E+00 -1.93510E-02
