# # comment:                                                     FEFF 9.9.1  
# # Source:
# # Structure
# # Reduced
# # space
# # abc:
# # angles:117.708472
# # sites:
# # POT  SCF 100  7.0000   0, screened core-hole, AFOLP (folp(0)= 1.150)
# # Abs   Z=29 Rmt= 1.158 Rnm= 1.280 K  shell
# # Pot 1 Z=27 Rmt= 1.144 Rnm= 1.286
# # Pot 2 Z=29 Rmt= 1.148 Rnm= 1.270
# # Pot 3 Z= 8 Rmt= 1.011 Rnm= 1.111
# # Gam_ch=1.729E+00 H-L exch Vi= 0.000E+00 Vr= 0.000E+00
# # Mu=-8.545E+00eV kf=2.202E+00 Vint=-1.613E+01eV Rs_int= 1.647
# FMS rfms= 9.0000
# # PATH  Rmax=-1.000,  Keep_limit= 0.00, Heap_limit 0.00  Pwcrit= 2.50%
#  S02=0.950  Temp=   0.00  Debye_temp=   0.00  Global_sig2= 0.00000
#  Energy zero shift, vr, vi    0.00000E+00   0.00000E+00
#  Curved wave amplitude ratio filter   4.000%
#     file         sig2 tot  cw amp ratio   deg  nlegs   reff  inp sig2
#     0/   0 paths used
#  xsedge+ 50, used to normalize mu           2.4505E-04
#  -----------------------------------------------------------------------
#  omega    e    k    mu    mu0     chi     @#
    8983.926    -12.355  -1.000  3.40292E-02  5.34153E-02 -1.93861E-02
    8984.225    -12.057  -0.960  3.57065E-02  5.72241E-02 -2.15176E-02
    8984.512    -11.770  -0.920  3.75077E-02  6.14478E-02 -2.39401E-02
    8984.786    -11.496  -0.880  3.94465E-02  6.61466E-02 -2.67002E-02
    8985.048    -11.234  -0.840  4.15382E-02  7.13902E-02 -2.98520E-02
    8985.298    -10.984  -0.800  4.38006E-02  7.72595E-02 -3.34589E-02
    8985.536    -10.746  -0.760  4.62537E-02  8.38471E-02 -3.75934E-02
    8985.761    -10.521  -0.720  4.89195E-02  9.12573E-02 -4.23378E-02
    8985.975    -10.307  -0.680  5.18221E-02  9.96050E-02 -4.77828E-02
    8986.176    -10.106  -0.640  5.49860E-02  1.09011E-01 -5.40250E-02
    8986.365     -9.917  -0.600  5.84342E-02  1.19594E-01 -6.11596E-02
    8986.542     -9.740  -0.560  6.21842E-02  1.31454E-01 -6.92699E-02
    8986.706     -9.576  -0.520  6.62418E-02  1.44651E-01 -7.84092E-02
    8986.859     -9.423  -0.480  7.05927E-02  1.59169E-01 -8.85766E-02
    8986.999     -9.283  -0.440  7.51931E-02  1.74882E-01 -9.96892E-02
    8987.127     -9.155  -0.400  7.99615E-02  1.91519E-01 -1.11558E-01
    8987.243     -9.039  -0.360  8.47780E-02  2.08656E-01 -1.23878E-01
    8987.346     -8.936  -0.320  8.94933E-02  2.25740E-01 -1.36247E-01
    8987.438     -8.844  -0.280  9.39480E-02  2.42159E-01 -1.48211E-01
    8987.517     -8.765  -0.240  9.79971E-02  2.57321E-01 -1.59324E-01
    8987.584     -8.698  -0.200  1.01527E-01  2.70730E-01 -1.69203E-01
    8987.639     -8.643  -0.160  1.04464E-01  2.82019E-01 -1.77555E-01
    8987.681     -8.600  -0.120  1.06764E-01  2.90950E-01 -1.84186E-01
    8987.712     -8.570  -0.080  1.08412E-01  2.97389E-01 -1.88977E-01
    8987.736     -8.545   0.000  1.09737E-01  3.02566E-01 -1.92829E-01
    8987.791     -8.491   0.120  1.12921E-01  3.14252E-01 -2.01331E-01
    8987.834     -8.448   0.160  1.15281E-01  3.23340E-01 -2.08059E-01
    8987.889     -8.393   0.200  1.18238E-01  3.34956E-01 -2.16718E-01
    8987.956     -8.326   0.240  1.21734E-01  3.48980E-01 -2.27246E-01
    8988.035     -8.247   0.280  1.25675E-01  3.65114E-01 -2.39439E-01
    8988.126     -8.155   0.320  1.30010E-01  3.83000E-01 -2.52990E-01
    8988.230     -8.052   0.360  1.34709E-01  4.02161E-01 -2.67452E-01
    8988.346     -7.936   0.400  1.39837E-01  4.22049E-01 -2.82212E-01
    8988.474     -7.808   0.440  1.45665E-01  4.42240E-01 -2.96575E-01
    8988.614     -7.668   0.480  1.52503E-01  4.62311E-01 -3.09808E-01
    8988.767     -7.515   0.520  1.60876E-01  4.82054E-01 -3.21178E-01
    8988.931     -7.351   0.560  1.71356E-01  5.01341E-01 -3.29985E-01
    8989.108     -7.174   0.600  1.84607E-01  5.20161E-01 -3.35553E-01
    8989.297     -6.985   0.640  2.01310E-01  5.38522E-01 -3.37211E-01
    8989.498     -6.784   0.680  2.22182E-01  5.56505E-01 -3.34323E-01
    8989.711     -6.570   0.720  2.47498E-01  5.74182E-01 -3.26683E-01
    8989.937     -6.345   0.760  2.76515E-01  5.91623E-01 -3.15108E-01
    8990.175     -6.107   0.800  3.07125E-01  6.08888E-01 -3.01763E-01
    8990.425     -5.857   0.840  3.36147E-01  6.26006E-01 -2.89859E-01
    8990.687     -5.595   0.880  3.60500E-01  6.43032E-01 -2.82532E-01
    8990.961     -5.321   0.920  3.79461E-01  6.59966E-01 -2.80505E-01
    8991.248     -5.034   0.960  3.95826E-01  6.76821E-01 -2.80995E-01
    8991.546     -4.735   1.000  4.11460E-01  6.93597E-01 -2.82137E-01
    8991.857     -4.425   1.040  4.22392E-01  7.10266E-01 -2.87874E-01
    8992.180     -4.101   1.080  4.23272E-01  7.26813E-01 -3.03541E-01
    8992.516     -3.766   1.120  4.16741E-01  7.43198E-01 -3.26457E-01
    8992.863     -3.419   1.160  4.12224E-01  7.59396E-01 -3.47172E-01
    8993.223     -3.059   1.200  4.16621E-01  7.75378E-01 -3.58757E-01
    8993.595     -2.687   1.240  4.29731E-01  7.91092E-01 -3.61361E-01
    8993.979     -2.303   1.280  4.45712E-01  8.06506E-01 -3.60793E-01
    8994.375     -1.907   1.320  4.59368E-01  8.21565E-01 -3.62197E-01
    8994.783     -1.498   1.360  4.71038E-01  8.36234E-01 -3.65196E-01
    8995.204     -1.078   1.400  4.82657E-01  8.50499E-01 -3.67842E-01
    8995.637     -0.645   1.440  4.95585E-01  8.64306E-01 -3.68721E-01
    8996.082     -0.200   1.480  5.11542E-01  8.77622E-01 -3.66079E-01
    8996.539      0.257   1.520  5.31306E-01  8.90432E-01 -3.59126E-01
    8997.008      0.727   1.560  5.57999E-01  9.02688E-01 -3.44689E-01
    8997.490      1.208   1.600  5.98115E-01  9.14360E-01 -3.16245E-01
    8997.984      1.702   1.640  6.47511E-01  9.25480E-01 -2.77970E-01
    8998.490      2.208   1.680  6.98444E-01  9.35982E-01 -2.37538E-01
    8999.008      2.726   1.720  7.59849E-01  9.45884E-01 -1.86034E-01
    8999.538      3.256   1.760  8.39707E-01  9.55163E-01 -1.15456E-01
    9000.081      3.799   1.800  9.25493E-01  9.63839E-01 -3.83458E-02
    9000.635      4.354   1.840  9.99708E-01  9.71893E-01  2.78144E-02
    9001.202      4.921   1.880  1.06163E+00  9.79349E-01  8.22769E-02
    9001.781      5.500   1.920  1.11278E+00  9.86192E-01  1.26588E-01
    9002.373      6.091   1.960  1.14880E+00  9.92448E-01  1.56349E-01
    9002.976      6.695   2.000  1.17191E+00  9.98124E-01  1.73785E-01
    9003.592      7.310   2.040  1.19852E+00  1.00325E+00  1.95265E-01
    9004.220      7.938   2.080  1.24546E+00  1.00781E+00  2.37642E-01
    9004.860      8.578   2.120  1.31784E+00  1.01187E+00  3.05976E-01
    9005.512      9.230   2.160  1.41207E+00  1.01542E+00  3.96649E-01
    9006.177      9.895   2.200  1.52060E+00  1.01851E+00  5.02087E-01
    9006.853     10.572   2.240  1.63712E+00  1.02113E+00  6.15995E-01
    9007.542     11.260   2.280  1.72478E+00  1.02332E+00  7.01463E-01
    9008.243     11.961   2.320  1.70553E+00  1.02512E+00  6.80405E-01
    9008.956     12.675   2.360  1.56449E+00  1.02653E+00  5.37962E-01
    9009.682     13.400   2.400  1.38899E+00  1.02760E+00  3.61398E-01
    9010.419     14.138   2.440  1.25156E+00  1.02833E+00  2.23232E-01
    9011.169     14.888   2.480  1.15987E+00  1.02875E+00  1.31118E-01
    9011.931     15.650   2.520  1.09636E+00  1.02891E+00  6.74525E-02
    9012.705     16.424   2.560  1.04976E+00  1.02881E+00  2.09480E-02
    9013.492     17.210   2.600  1.01862E+00  1.02847E+00 -9.85397E-03
    9014.290     18.009   2.640  1.00441E+00  1.02792E+00 -2.35177E-02
    9015.101     18.819   2.680  9.96752E-01  1.02718E+00 -3.04283E-02
    9015.924     19.642   2.720  9.90952E-01  1.02629E+00 -3.53375E-02
    9016.759     20.478   2.760  9.86118E-01  1.02524E+00 -3.91251E-02
    9017.607     21.325   2.800  9.83251E-01  1.02407E+00 -4.08208E-02
    9018.466     22.184   2.840  9.83201E-01  1.02278E+00 -3.95810E-02
    9019.338     23.056   2.880  9.85839E-01  1.02140E+00 -3.55646E-02
    9020.222     23.940   2.920  9.90084E-01  1.01997E+00 -2.98824E-02
    9021.118     24.836   2.960  9.94314E-01  1.01846E+00 -2.41446E-02
    9022.026     25.744   3.000  9.96835E-01  1.01690E+00 -2.00692E-02
    9022.947     26.665   3.040  9.96247E-01  1.01531E+00 -1.90652E-02
    9023.879     27.598   3.080  9.92054E-01  1.01371E+00 -2.16550E-02
    9024.824     28.542   3.120  9.84556E-01  1.01208E+00 -2.75241E-02
    9025.781     29.500   3.160  9.74446E-01  1.01047E+00 -3.60255E-02
    9026.751     30.469   3.200  9.62210E-01  1.00887E+00 -4.66597E-02
    9027.732     31.450   3.240  9.48287E-01  1.00730E+00 -5.90130E-02
    9028.726     32.444   3.280  9.33088E-01  1.00576E+00 -7.26765E-02
    9029.732     33.450   3.320  9.17342E-01  1.00425E+00 -8.69042E-02
    9030.750     34.468   3.360  9.02123E-01  1.00279E+00 -1.00667E-01
    9031.780     35.498   3.400  8.88205E-01  1.00138E+00 -1.13174E-01
    9032.822     36.540   3.440  8.76108E-01  1.00002E+00 -1.23908E-01
    9033.877     37.595   3.480  8.66198E-01  9.98724E-01 -1.32526E-01
    9034.944     38.662   3.520  8.58902E-01  9.97506E-01 -1.38604E-01
    9036.023     39.741   3.560  8.54249E-01  9.96341E-01 -1.42092E-01
    9037.114     40.832   3.600  8.52340E-01  9.95254E-01 -1.42914E-01
    9038.217     41.935   3.640  8.53204E-01  9.94247E-01 -1.41044E-01
    9039.333     43.051   3.680  8.56826E-01  9.93341E-01 -1.36515E-01
    9040.460     44.179   3.720  8.63208E-01  9.92495E-01 -1.29287E-01
    9041.600     45.319   3.760  8.72555E-01  9.91729E-01 -1.19174E-01
    9042.753     46.471   3.800  8.84912E-01  9.91045E-01 -1.06132E-01
    9043.917     47.635   3.840  8.99847E-01  9.90464E-01 -9.06177E-02
    9045.093     48.812   3.880  9.16506E-01  9.89945E-01 -7.34392E-02
    9046.282     50.000   3.920  9.33905E-01  9.89531E-01 -5.56255E-02
    9047.483     51.201   3.960  9.50914E-01  9.89199E-01 -3.82851E-02
    9048.696     52.414   4.000  9.66703E-01  9.88948E-01 -2.22447E-02
    9049.921     53.640   4.040  9.80979E-01  9.88755E-01 -7.77655E-03
    9051.159     54.877   4.080  9.94083E-01  9.88665E-01  5.41791E-03
    9052.409     56.127   4.120  1.00667E+00  9.88655E-01  1.80130E-02
    9053.670     57.389   4.160  1.01942E+00  9.88723E-01  3.06939E-02
    9054.944     58.663   4.200  1.03261E+00  9.88846E-01  4.37654E-02
    9056.231     59.949   4.240  1.04598E+00  9.89045E-01  5.69358E-02
    9057.529     61.247   4.280  1.05887E+00  9.89320E-01  6.95538E-02
    9058.840     62.558   4.320  1.07046E+00  9.89669E-01  8.07906E-02
    9060.163     63.881   4.360  1.08004E+00  9.90071E-01  8.99679E-02
    9061.498     65.216   4.400  1.08742E+00  9.90540E-01  9.68846E-02
    9062.845     66.563   4.440  1.09289E+00  9.91056E-01  1.01832E-01
    9064.204     67.922   4.480  1.09691E+00  9.91617E-01  1.05291E-01
    9065.576     69.294   4.520  1.09980E+00  9.92220E-01  1.07575E-01
    9066.960     70.678   4.560  1.10158E+00  9.92886E-01  1.08692E-01
    9068.356     72.074   4.600  1.10163E+00  9.93570E-01  1.08059E-01
    9069.764     73.482   4.640  1.09899E+00  9.94291E-01  1.04694E-01
    9071.184     74.902   4.680  1.09272E+00  9.95048E-01  9.76714E-02
    9072.617     76.335   4.720  1.08243E+00  9.95839E-01  8.65916E-02
    9074.061     77.780   4.760  1.06848E+00  9.96639E-01  7.18391E-02
    9075.518     79.237   4.800  1.05207E+00  9.97469E-01  5.46047E-02
    9076.988     80.706   4.840  1.03478E+00  9.98303E-01  3.64741E-02
    9078.469     82.187   4.880  1.01824E+00  9.99139E-01  1.91018E-02
    9079.962     83.681   4.920  1.00391E+00  9.99975E-01  3.93284E-03
    9081.468     85.186   4.960  9.92888E-01  1.00081E+00 -7.92175E-03
    9082.986     86.704   5.000  9.85883E-01  1.00164E+00 -1.57566E-02
    9084.516     88.234   5.040  9.83045E-01  1.00244E+00 -1.93971E-02
    9086.058     89.777   5.080  9.84046E-01  1.00326E+00 -1.92128E-02
    9087.613     91.331   5.120  9.88035E-01  1.00402E+00 -1.59896E-02
    9089.179     92.898   5.160  9.93887E-01  1.00480E+00 -1.09119E-02
    9090.758     94.477   5.200  9.99950E-01  1.00552E+00 -5.56688E-03
    9092.349     96.068   5.240  1.00445E+00  1.00622E+00 -1.76780E-03
    9093.953     97.671   5.280  1.00585E+00  1.00689E+00 -1.03611E-03
    9095.568     99.286   5.320  1.00356E+00  1.00751E+00 -3.94725E-03
    9097.196    100.914   5.360  9.98254E-01  1.00809E+00 -9.83933E-03
    9098.835    102.554   5.400  9.91506E-01  1.00863E+00 -1.71255E-02
    9100.487    104.206   5.440  9.85202E-01  1.00910E+00 -2.39033E-02
    9102.152    105.870   5.480  9.80932E-01  1.00956E+00 -2.86229E-02
    9103.828    107.546   5.520  9.79261E-01  1.00994E+00 -3.06757E-02
    9105.517    109.235   5.560  9.79473E-01  1.01027E+00 -3.07981E-02
    9107.217    110.936   5.600  9.79875E-01  1.01054E+00 -3.06615E-02
    9108.930    112.649   5.640  9.78838E-01  1.01078E+00 -3.19382E-02
    9110.656    114.374   5.680  9.75608E-01  1.01092E+00 -3.53127E-02
    9112.393    116.111   5.720  9.70800E-01  1.01102E+00 -4.02159E-02
    9114.142    117.861   5.760  9.65842E-01  1.01106E+00 -4.52220E-02
    9115.904    119.622   5.800  9.62318E-01  1.01104E+00 -4.87216E-02
    9117.678    121.396   5.840  9.61627E-01  1.01097E+00 -4.93411E-02
    9119.464    123.182   5.880  9.64599E-01  1.01083E+00 -4.62268E-02
    9121.263    124.981   5.920  9.71331E-01  1.01064E+00 -3.93066E-02
    9123.073    126.791   5.960  9.80922E-01  1.01040E+00 -2.94734E-02
    9124.896    128.614   6.000  9.91667E-01  1.01004E+00 -1.83684E-02
