# # comment:                                                     FEFF 9.9.1  
# # Source:
# # Structure
# # Reduced
# # space
# # abc:
# # angles:
# # sites:
# # POT  SCF 100  7.0000   0, screened core-hole, AFOLP (folp(0)= 1.150)
# # Abs   Z=29 Rmt= 1.281 Rnm= 1.350 K  shell
# # Pot 1 Z= 3 Rmt= 1.261 Rnm= 1.326
# # Pot 2 Z=29 Rmt= 1.281 Rnm= 1.350
# # Pot 3 Z=15 Rmt= 0.937 Rnm= 1.153
# # Pot 4 Z= 8 Rmt= 0.918 Rnm= 1.045
# # Gam_ch=1.729E+00 H-L exch Vi= 0.000E+00 Vr= 0.000E+00
# # Mu=-6.912E+00eV kf=2.425E+00 Vint=-1.726E+01eV Rs_int= 1.496
# FMS rfms= 9.0000
# # PATH  Rmax=-1.000,  Keep_limit= 0.00, Heap_limit 0.00  Pwcrit= 2.50%
#  S02=0.950  Temp=   0.00  Debye_temp=   0.00  Global_sig2= 0.00000
#  Energy zero shift, vr, vi    0.00000E+00   0.00000E+00
#  Curved wave amplitude ratio filter   4.000%
#     file         sig2 tot  cw amp ratio   deg  nlegs   reff  inp sig2
#     0/   0 paths used
#  xsedge+ 50, used to normalize mu           2.4812E-04
#  -----------------------------------------------------------------------
#  omega    e    k    mu    mu0     chi     @#
    8983.518    -10.722  -1.000  4.18709E-02  5.37772E-02 -1.19063E-02
    8983.817    -10.423  -0.960  4.42321E-02  5.77069E-02 -1.34748E-02
    8984.103    -10.137  -0.920  4.67843E-02  6.20774E-02 -1.52932E-02
    8984.378     -9.862  -0.880  4.95479E-02  6.69541E-02 -1.74061E-02
    8984.640     -9.600  -0.840  5.25462E-02  7.24130E-02 -1.98668E-02
    8984.890     -9.350  -0.800  5.58049E-02  7.85427E-02 -2.27378E-02
    8985.128     -9.112  -0.760  5.93522E-02  8.54445E-02 -2.60923E-02
    8985.353     -8.887  -0.720  6.32187E-02  9.32332E-02 -3.00145E-02
    8985.566     -8.674  -0.680  6.74363E-02  1.02035E-01 -3.45991E-02
    8985.768     -8.472  -0.640  7.20368E-02  1.11985E-01 -3.99478E-02
    8985.957     -8.283  -0.600  7.70492E-02  1.23212E-01 -4.61631E-02
    8986.133     -8.107  -0.560  8.24952E-02  1.35831E-01 -5.33356E-02
    8986.298     -7.942  -0.520  8.83828E-02  1.49907E-01 -6.15246E-02
    8986.450     -7.790  -0.480  9.46979E-02  1.65428E-01 -7.07302E-02
    8986.591     -7.649  -0.440  1.01394E-01  1.82256E-01 -8.08619E-02
    8986.719     -7.521  -0.400  1.08385E-01  2.00097E-01 -9.17122E-02
    8986.834     -7.406  -0.360  1.15538E-01  2.18488E-01 -1.02950E-01
    8986.938     -7.302  -0.320  1.22679E-01  2.36827E-01 -1.14148E-01
    8987.029     -7.211  -0.280  1.29604E-01  2.54446E-01 -1.24842E-01
    8987.109     -7.131  -0.240  1.36099E-01  2.70704E-01 -1.34604E-01
    8987.176     -7.064  -0.200  1.41961E-01  2.85066E-01 -1.43105E-01
    8987.231     -7.009  -0.160  1.47009E-01  2.97141E-01 -1.50132E-01
    8987.273     -6.967  -0.120  1.51097E-01  3.06682E-01 -1.55585E-01
    8987.304     -6.936  -0.080  1.54115E-01  3.13553E-01 -1.59438E-01
    8987.328     -6.912   0.000  1.56629E-01  3.19073E-01 -1.62443E-01
    8987.383     -6.857   0.120  1.62212E-01  3.31506E-01 -1.69293E-01
    8987.426     -6.814   0.160  1.66611E-01  3.41153E-01 -1.74543E-01
    8987.481     -6.759   0.200  1.72372E-01  3.53472E-01 -1.81100E-01
    8987.548     -6.692   0.240  1.79578E-01  3.68285E-01 -1.88707E-01
    8987.627     -6.613   0.280  1.88241E-01  3.85243E-01 -1.97002E-01
    8987.718     -6.522   0.320  1.98411E-01  4.03935E-01 -2.05523E-01
    8987.822     -6.418   0.360  2.10001E-01  4.23764E-01 -2.13763E-01
    8987.938     -6.302   0.400  2.22898E-01  4.44160E-01 -2.21262E-01
    8988.066     -6.174   0.440  2.36895E-01  4.64565E-01 -2.27670E-01
    8988.206     -6.034   0.480  2.51749E-01  4.84562E-01 -2.32813E-01
    8988.358     -5.882   0.520  2.67345E-01  5.03870E-01 -2.36525E-01
    8988.523     -5.717   0.560  2.83801E-01  5.22366E-01 -2.38565E-01
    8988.700     -5.540   0.600  3.01585E-01  5.40041E-01 -2.38456E-01
    8988.889     -5.351   0.640  3.21219E-01  5.56937E-01 -2.35718E-01
    8989.090     -5.150   0.680  3.42958E-01  5.73134E-01 -2.30176E-01
    8989.303     -4.937   0.720  3.66377E-01  5.88766E-01 -2.22388E-01
    8989.529     -4.711   0.760  3.90081E-01  6.03887E-01 -2.13806E-01
    8989.767     -4.473   0.800  4.12156E-01  6.18624E-01 -2.06467E-01
    8990.016     -4.224   0.840  4.30864E-01  6.33046E-01 -2.02183E-01
    8990.279     -3.961   0.880  4.46268E-01  6.47213E-01 -2.00945E-01
    8990.553     -3.687   0.920  4.61486E-01  6.61189E-01 -1.99703E-01
    8990.839     -3.401   0.960  4.81366E-01  6.74985E-01 -1.93619E-01
    8991.138     -3.102   1.000  5.09294E-01  6.88642E-01 -1.79348E-01
    8991.449     -2.791   1.040  5.44665E-01  7.02172E-01 -1.57507E-01
    8991.772     -2.468   1.080  5.82978E-01  7.15557E-01 -1.32579E-01
    8992.107     -2.133   1.120  6.18634E-01  7.28837E-01 -1.10203E-01
    8992.455     -1.785   1.160  6.47504E-01  7.42001E-01 -9.44971E-02
    8992.815     -1.425   1.200  6.67434E-01  7.54997E-01 -8.75624E-02
    8993.186     -1.054   1.240  6.79782E-01  7.67868E-01 -8.80862E-02
    8993.570     -0.670   1.280  6.89630E-01  7.80556E-01 -9.09263E-02
    8993.967     -0.273   1.320  7.02786E-01  7.93057E-01 -9.02714E-02
    8994.375      0.135   1.360  7.24038E-01  8.05347E-01 -8.13086E-02
    8994.796      0.556   1.400  7.56938E-01  8.17402E-01 -6.04646E-02
    8995.229      0.989   1.440  8.05314E-01  8.29197E-01 -2.38836E-02
    8995.674      1.434   1.480  8.71893E-01  8.40744E-01  3.11488E-02
    8996.131      1.891   1.520  9.49537E-01  8.51977E-01  9.75607E-02
    8996.600      2.360   1.560  1.02355E+00  8.62907E-01  1.60641E-01
    8997.082      2.842   1.600  1.07794E+00  8.73509E-01  2.04432E-01
    8997.576      3.335   1.640  1.10355E+00  8.83736E-01  2.19814E-01
    8998.081      3.841   1.680  1.10615E+00  8.93622E-01  2.12525E-01
    8998.600      4.360   1.720  1.09734E+00  9.03122E-01  1.94216E-01
    8999.130      4.890   1.760  1.07936E+00  9.12231E-01  1.67133E-01
    8999.673      5.433   1.800  1.05091E+00  9.20925E-01  1.29987E-01
    9000.227      5.987   1.840  1.02284E+00  9.29221E-01  9.36210E-02
    9000.794      6.554   1.880  1.00917E+00  9.37096E-01  7.20765E-02
    9001.373      7.133   1.920  1.01634E+00  9.44530E-01  7.18136E-02
    9001.965      7.725   1.960  1.04305E+00  9.51561E-01  9.14918E-02
    9002.568      8.328   2.000  1.08373E+00  9.58171E-01  1.25558E-01
    9003.184      8.944   2.040  1.13085E+00  9.64341E-01  1.66506E-01
    9003.812      9.572   2.080  1.17909E+00  9.70093E-01  2.08999E-01
    9004.452     10.212   2.120  1.22695E+00  9.75430E-01  2.51517E-01
    9005.104     10.864   2.160  1.26844E+00  9.80375E-01  2.88065E-01
    9005.768     11.528   2.200  1.29335E+00  9.84894E-01  3.08451E-01
    9006.445     12.205   2.240  1.29736E+00  9.89030E-01  3.08328E-01
    9007.134     12.894   2.280  1.28443E+00  9.92790E-01  2.91638E-01
    9007.835     13.595   2.320  1.25877E+00  9.96181E-01  2.62586E-01
    9008.548     14.308   2.360  1.22139E+00  9.99207E-01  2.22181E-01
    9009.274     15.034   2.400  1.17745E+00  1.00190E+00  1.75550E-01
    9010.011     15.771   2.440  1.13753E+00  1.00424E+00  1.33294E-01
    9010.761     16.521   2.480  1.10864E+00  1.00627E+00  1.02363E-01
    9011.523     17.283   2.520  1.08822E+00  1.00802E+00  8.01997E-02
    9012.297     18.057   2.560  1.06871E+00  1.00947E+00  5.92344E-02
    9013.084     18.844   2.600  1.04586E+00  1.01065E+00  3.52019E-02
    9013.882     19.642   2.640  1.01991E+00  1.01158E+00  8.32980E-03
    9014.693     20.453   2.680  9.92146E-01  1.01227E+00 -2.01241E-02
    9015.516     21.276   2.720  9.63946E-01  1.01274E+00 -4.87969E-02
    9016.351     22.111   2.760  9.38289E-01  1.01301E+00 -7.47215E-02
    9017.198     22.958   2.800  9.17792E-01  1.01308E+00 -9.52890E-02
    9018.058     23.818   2.840  9.03547E-01  1.01298E+00 -1.09433E-01
    9018.930     24.690   2.880  8.90823E-01  1.01272E+00 -1.21895E-01
    9019.814     25.574   2.920  8.79643E-01  1.01232E+00 -1.32677E-01
    9020.710     26.470   2.960  8.70784E-01  1.01177E+00 -1.40988E-01
    9021.618     27.378   3.000  8.64290E-01  1.01110E+00 -1.46814E-01
    9022.539     28.299   3.040  8.59737E-01  1.01034E+00 -1.50605E-01
    9023.471     29.231   3.080  8.56846E-01  1.00949E+00 -1.52648E-01
    9024.416     30.176   3.120  8.56142E-01  1.00856E+00 -1.52421E-01
    9025.373     31.133   3.160  8.58624E-01  1.00756E+00 -1.48932E-01
    9026.342     32.102   3.200  8.64564E-01  1.00650E+00 -1.41935E-01
    9027.324     33.084   3.240  8.73851E-01  1.00538E+00 -1.31527E-01
    9028.318     34.077   3.280  8.85910E-01  1.00424E+00 -1.18328E-01
    9029.323     35.083   3.320  8.99636E-01  1.00308E+00 -1.03447E-01
    9030.341     36.101   3.360  9.13800E-01  1.00190E+00 -8.80996E-02
    9031.372     37.132   3.400  9.27146E-01  1.00069E+00 -7.35417E-02
    9032.414     38.174   3.440  9.38666E-01  9.99497E-01 -6.08311E-02
    9033.469     39.229   3.480  9.47764E-01  9.98309E-01 -5.05453E-02
    9034.535     40.295   3.520  9.54573E-01  9.97147E-01 -4.25739E-02
    9035.614     41.374   3.560  9.59763E-01  9.95993E-01 -3.62306E-02
    9036.706     42.466   3.600  9.64427E-01  9.94851E-01 -3.04236E-02
    9037.809     43.569   3.640  9.69763E-01  9.93763E-01 -2.40004E-02
    9038.924     44.684   3.680  9.76529E-01  9.92692E-01 -1.61633E-02
    9040.052     45.812   3.720  9.84975E-01  9.91661E-01 -6.68570E-03
    9041.192     46.952   3.760  9.94853E-01  9.90693E-01  4.16025E-03
    9042.344     48.104   3.800  1.00562E+00  9.89768E-01  1.58504E-02
    9043.509     49.269   3.840  1.01657E+00  9.88887E-01  2.76830E-02
    9044.685     50.445   3.880  1.02706E+00  9.88050E-01  3.90149E-02
    9045.874     51.634   3.920  1.03667E+00  9.87282E-01  4.93888E-02
    9047.075     52.835   3.960  1.04510E+00  9.86562E-01  5.85410E-02
    9048.288     54.048   4.000  1.05227E+00  9.85912E-01  6.63553E-02
    9049.513     55.273   4.040  1.05821E+00  9.85333E-01  7.28775E-02
    9050.751     56.511   4.080  1.06288E+00  9.84782E-01  7.80989E-02
    9052.000     57.760   4.120  1.06620E+00  9.84322E-01  8.18804E-02
    9053.262     59.022   4.160  1.06792E+00  9.83912E-01  8.40035E-02
    9054.536     60.296   4.200  1.06784E+00  9.83552E-01  8.42834E-02
    9055.823     61.583   4.240  1.06591E+00  9.83262E-01  8.26475E-02
    9057.121     62.881   4.280  1.06225E+00  9.83042E-01  7.92067E-02
    9058.432     64.192   4.320  1.05714E+00  9.82872E-01  7.42669E-02
    9059.754     65.514   4.360  1.05091E+00  9.82771E-01  6.81354E-02
    9061.089     66.849   4.400  1.04375E+00  9.82694E-01  6.10524E-02
    9062.437     68.197   4.440  1.03599E+00  9.82706E-01  5.32839E-02
    9063.796     69.556   4.480  1.02788E+00  9.82743E-01  4.51331E-02
    9065.168     70.928   4.520  1.01981E+00  9.82845E-01  3.69640E-02
    9066.551     72.311   4.560  1.01216E+00  9.82992E-01  2.91676E-02
    9067.947     73.707   4.600  1.00525E+00  9.83202E-01  2.20524E-02
    9069.356     75.116   4.640  9.99188E-01  9.83431E-01  1.57569E-02
    9070.776     76.536   4.680  9.93946E-01  9.83698E-01  1.02484E-02
    9072.209     77.969   4.720  9.89320E-01  9.84003E-01  5.31701E-03
    9073.653     79.413   4.760  9.84955E-01  9.84346E-01  6.08677E-04
    9075.110     80.870   4.800  9.80503E-01  9.84724E-01 -4.22127E-03
    9076.579     82.339   4.840  9.75705E-01  9.85136E-01 -9.43095E-03
    9078.061     83.821   4.880  9.70401E-01  9.85558E-01 -1.51573E-02
    9079.554     85.314   4.920  9.64596E-01  9.85987E-01 -2.13912E-02
    9081.060     86.820   4.960  9.58477E-01  9.86446E-01 -2.79681E-02
    9082.578     88.338   5.000  9.52459E-01  9.86932E-01 -3.44737E-02
    9084.108     89.868   5.040  9.47104E-01  9.87401E-01 -4.02967E-02
    9085.650     91.410   5.080  9.43069E-01  9.87892E-01 -4.48230E-02
    9087.205     92.965   5.120  9.40790E-01  9.88383E-01 -4.75935E-02
    9088.771     94.531   5.160  9.40383E-01  9.88852E-01 -4.84688E-02
    9090.350     96.110   5.200  9.41807E-01  9.89338E-01 -4.75308E-02
    9091.941     97.701   5.240  9.44757E-01  9.89798E-01 -4.50416E-02
    9093.544     99.304   5.280  9.48896E-01  9.90253E-01 -4.13572E-02
    9095.160    100.920   5.320  9.53794E-01  9.90701E-01 -3.69069E-02
    9096.787    102.547   5.360  9.58969E-01  9.91119E-01 -3.21499E-02
    9098.427    104.187   5.400  9.64043E-01  9.91525E-01 -2.74817E-02
    9100.079    105.839   5.440  9.68696E-01  9.91897E-01 -2.32016E-02
    9101.744    107.504   5.480  9.72680E-01  9.92235E-01 -1.95546E-02
    9103.420    109.180   5.520  9.75762E-01  9.92557E-01 -1.67949E-02
    9105.108    110.868   5.560  9.77670E-01  9.92821E-01 -1.51512E-02
    9106.809    112.569   5.600  9.78390E-01  9.93071E-01 -1.46810E-02
    9108.522    114.282   5.640  9.78154E-01  9.93307E-01 -1.51530E-02
    9110.247    116.007   5.680  9.77399E-01  9.93479E-01 -1.60796E-02
    9111.985    117.745   5.720  9.76713E-01  9.93610E-01 -1.68969E-02
    9113.734    119.494   5.760  9.76554E-01  9.93700E-01 -1.71456E-02
    9115.496    121.256   5.800  9.77166E-01  9.93751E-01 -1.65843E-02
    9117.270    123.030   5.840  9.78605E-01  9.93761E-01 -1.51558E-02
    9119.056    124.816   5.880  9.80868E-01  9.93729E-01 -1.28613E-02
    9120.854    126.614   5.920  9.83979E-01  9.93656E-01 -9.67666E-03
    9122.665    128.425   5.960  9.87886E-01  9.93512E-01 -5.62540E-03
    9124.488    130.248   6.000  9.92500E-01  9.93325E-01 -8.25246E-04
