# # comment:                                                     FEFF 9.9.1  
# # Source:
# # Structure
# # Reduced
# # space
# # abc:
# # angles:
# # sites:
# # POT  SCF 100  7.0000   0, screened core-hole, AFOLP (folp(0)= 1.150)
# # Abs   Z=29 Rmt= 1.172 Rnm= 1.339 K  shell
# # Pot 1 Z=26 Rmt= 1.331 Rnm= 1.414
# # Pot 2 Z=29 Rmt= 1.172 Rnm= 1.339
# # Pot 3 Z= 8 Rmt= 1.000 Rnm= 1.088
# # Gam_ch=1.729E+00 H-L exch Vi= 0.000E+00 Vr= 0.000E+00
# # Mu=-1.003E+01eV kf=2.130E+00 Vint=-1.747E+01eV Rs_int= 1.703
# FMS rfms= 9.0000
# # PATH  Rmax=-1.000,  Keep_limit= 0.00, Heap_limit 0.00  Pwcrit= 2.50%
#  S02=0.950  Temp=   0.00  Debye_temp=   0.00  Global_sig2= 0.00000
#  Energy zero shift, vr, vi    0.00000E+00   0.00000E+00
#  Curved wave amplitude ratio filter   4.000%
#     file         sig2 tot  cw amp ratio   deg  nlegs   reff  inp sig2
#     0/   0 paths used
#  xsedge+ 50, used to normalize mu           2.4908E-04
#  -----------------------------------------------------------------------
#  omega    e    k    mu    mu0     chi     @#
    8984.027    -13.843  -1.000  4.09342E-02  4.82965E-02 -7.36229E-03
    8984.326    -13.544  -0.960  4.35130E-02  5.16285E-02 -8.11541E-03
    8984.612    -13.257  -0.920  4.63419E-02  5.53158E-02 -8.97394E-03
    8984.887    -12.983  -0.880  4.94517E-02  5.94096E-02 -9.95789E-03
    8985.149    -12.721  -0.840  5.28772E-02  6.39690E-02 -1.10918E-02
    8985.399    -12.471  -0.800  5.66569E-02  6.90626E-02 -1.24057E-02
    8985.636    -12.233  -0.760  6.08325E-02  7.47686E-02 -1.39361E-02
    8985.862    -12.008  -0.720  6.54491E-02  8.11756E-02 -1.57266E-02
    8986.075    -11.794  -0.680  7.05529E-02  8.83807E-02 -1.78278E-02
    8986.276    -11.593  -0.640  7.61898E-02  9.64860E-02 -2.02962E-02
    8986.465    -11.404  -0.600  8.24012E-02  1.05592E-01 -2.31903E-02
    8986.642    -11.227  -0.560  8.92189E-02  1.15782E-01 -2.65633E-02
    8986.807    -11.063  -0.520  9.66573E-02  1.27107E-01 -3.04501E-02
    8986.959    -10.910  -0.480  1.04704E-01  1.39554E-01 -3.48494E-02
    8987.099    -10.770  -0.440  1.13309E-01  1.53012E-01 -3.97031E-02
    8987.227    -10.642  -0.400  1.22373E-01  1.67252E-01 -4.48792E-02
    8987.343    -10.526  -0.360  1.31742E-01  1.81913E-01 -5.01705E-02
    8987.447    -10.423  -0.320  1.41207E-01  1.96524E-01 -5.53171E-02
    8987.538    -10.331  -0.280  1.50513E-01  2.10566E-01 -6.00528E-02
    8987.618    -10.252  -0.240  1.59373E-01  2.23533E-01 -6.41596E-02
    8987.685    -10.185  -0.200  1.67494E-01  2.35002E-01 -6.75080E-02
    8987.739    -10.130  -0.160  1.74592E-01  2.44660E-01 -7.00681E-02
    8987.782    -10.087  -0.120  1.80414E-01  2.52303E-01 -7.18895E-02
    8987.813    -10.057  -0.080  1.84751E-01  2.57815E-01 -7.30645E-02
    8987.837    -10.033   0.000  1.88378E-01  2.62249E-01 -7.38707E-02
    8987.892     -9.978   0.120  1.96749E-01  2.72259E-01 -7.55107E-02
    8987.935     -9.935   0.160  2.03460E-01  2.80048E-01 -7.65885E-02
    8987.989     -9.880   0.200  2.12405E-01  2.89999E-01 -7.75944E-02
    8988.056     -9.813   0.240  2.23858E-01  3.02019E-01 -7.81608E-02
    8988.136     -9.734   0.280  2.38107E-01  3.15893E-01 -7.77862E-02
    8988.227     -9.642   0.320  2.55364E-01  3.31282E-01 -7.59183E-02
    8988.331     -9.539   0.360  2.75768E-01  3.47788E-01 -7.20205E-02
    8988.447     -9.423   0.400  2.99187E-01  3.64987E-01 -6.58004E-02
    8988.575     -9.295   0.440  3.25093E-01  3.82466E-01 -5.73736E-02
    8988.715     -9.155   0.480  3.52615E-01  3.99946E-01 -4.73316E-02
    8988.867     -9.002   0.520  3.80678E-01  4.17216E-01 -3.65385E-02
    8989.032     -8.838   0.560  4.08388E-01  4.34188E-01 -2.58002E-02
    8989.209     -8.661   0.600  4.35062E-01  4.50834E-01 -1.57720E-02
    8989.398     -8.472   0.640  4.59990E-01  4.67180E-01 -7.18966E-03
    8989.599     -8.271   0.680  4.82139E-01  4.83316E-01 -1.17704E-03
    8989.812     -8.058   0.720  4.99591E-01  4.99283E-01  3.07858E-04
    8990.038     -7.832   0.760  5.08678E-01  5.15160E-01 -6.48249E-03
    8990.275     -7.594   0.800  5.03209E-01  5.30998E-01 -2.77894E-02
    8990.525     -7.344   0.840  4.78161E-01  5.46838E-01 -6.86763E-02
    8990.787     -7.082   0.880  4.37766E-01  5.62707E-01 -1.24941E-01
    8991.062     -6.808   0.920  3.95421E-01  5.78646E-01 -1.83225E-01
    8991.348     -6.521   0.960  3.63495E-01  5.94662E-01 -2.31168E-01
    8991.647     -6.223   1.000  3.47481E-01  6.10716E-01 -2.63235E-01
    8991.958     -5.912   1.040  3.47733E-01  6.26838E-01 -2.79105E-01
    8992.281     -5.589   1.080  3.61566E-01  6.42975E-01 -2.81409E-01
    8992.616     -5.253   1.120  3.83775E-01  6.59147E-01 -2.75372E-01
    8992.964     -4.906   1.160  4.06947E-01  6.75291E-01 -2.68343E-01
    8993.323     -4.546   1.200  4.24865E-01  6.91398E-01 -2.66533E-01
    8993.695     -4.174   1.240  4.36030E-01  7.07400E-01 -2.71370E-01
    8994.079     -3.790   1.280  4.43112E-01  7.23301E-01 -2.80189E-01
    8994.476     -3.394   1.320  4.50845E-01  7.39030E-01 -2.88184E-01
    8994.884     -2.986   1.360  4.63920E-01  7.54569E-01 -2.90650E-01
    8995.305     -2.565   1.400  4.83474E-01  7.69863E-01 -2.86389E-01
    8995.737     -2.132   1.440  5.09266E-01  7.84877E-01 -2.75611E-01
    8996.182     -1.687   1.480  5.47414E-01  7.99594E-01 -2.52180E-01
    8996.640     -1.230   1.520  6.06635E-01  8.13939E-01 -2.07304E-01
    8997.109     -0.761   1.560  6.88547E-01  8.27916E-01 -1.39368E-01
    8997.591     -0.279   1.600  7.84810E-01  8.41470E-01 -5.66597E-02
    8998.084      0.215   1.640  8.79301E-01  8.54571E-01  2.47299E-02
    8998.590      0.721   1.680  9.56836E-01  8.67225E-01  8.96109E-02
    8999.108      1.239   1.720  1.01078E+00  8.79363E-01  1.31421E-01
    8999.639      1.769   1.760  1.03441E+00  8.91015E-01  1.43399E-01
    9000.181      2.312   1.800  1.01899E+00  9.02115E-01  1.16875E-01
    9000.736      2.866   1.840  9.75487E-01  9.12676E-01  6.28113E-02
    9001.303      3.433   1.880  9.42283E-01  9.22695E-01  1.95884E-02
    9001.882      4.013   1.920  9.44766E-01  9.32169E-01  1.25972E-02
    9002.473      4.604   1.960  9.78456E-01  9.41056E-01  3.74008E-02
    9003.077      5.207   2.000  1.02976E+00  9.49398E-01  8.03664E-02
    9003.693      5.823   2.040  1.09692E+00  9.57176E-01  1.39746E-01
    9004.321      6.451   2.080  1.18489E+00  9.64414E-01  2.20481E-01
    9004.961      7.091   2.120  1.26914E+00  9.71095E-01  2.98045E-01
    9005.613      7.743   2.160  1.29584E+00  9.77266E-01  3.18570E-01
    9006.277      8.408   2.200  1.25107E+00  9.82891E-01  2.68179E-01
    9006.954      9.084   2.240  1.16987E+00  9.88020E-01  1.81853E-01
    9007.643      9.773   2.280  1.08808E+00  9.92660E-01  9.54217E-02
    9008.344     10.474   2.320  1.02608E+00  9.96819E-01  2.92580E-02
    9009.057     11.187   2.360  9.88189E-01  1.00053E+00 -1.23387E-02
    9009.783     11.913   2.400  9.70496E-01  1.00382E+00 -3.33206E-02
    9010.520     12.651   2.440  9.61467E-01  1.00667E+00 -4.52063E-02
    9011.270     13.400   2.480  9.44433E-01  1.00913E+00 -6.46937E-02
    9012.032     14.162   2.520  9.22718E-01  1.01121E+00 -8.84938E-02
    9012.806     14.937   2.560  9.30858E-01  1.01294E+00 -8.20795E-02
    9013.593     15.723   2.600  9.64104E-01  1.01433E+00 -5.02307E-02
    9014.391     16.521   2.640  1.00772E+00  1.01543E+00 -7.71516E-03
    9015.202     17.332   2.680  1.05079E+00  1.01623E+00  3.45653E-02
    9016.025     18.155   2.720  1.08752E+00  1.01676E+00  7.07565E-02
    9016.860     18.990   2.760  1.11730E+00  1.01705E+00  1.00247E-01
    9017.707     19.838   2.800  1.14254E+00  1.01711E+00  1.25430E-01
    9018.567     20.697   2.840  1.16475E+00  1.01693E+00  1.47819E-01
    9019.439     21.569   2.880  1.18295E+00  1.01658E+00  1.66371E-01
    9020.322     22.453   2.920  1.19271E+00  1.01606E+00  1.76650E-01
    9021.219     23.349   2.960  1.18701E+00  1.01538E+00  1.71628E-01
    9022.127     24.257   3.000  1.16291E+00  1.01457E+00  1.48339E-01
    9023.047     25.178   3.040  1.12427E+00  1.01364E+00  1.10624E-01
    9023.980     26.110   3.080  1.07971E+00  1.01260E+00  6.71073E-02
    9024.925     27.055   3.120  1.03672E+00  1.01147E+00  2.52522E-02
    9025.882     28.012   3.160  9.99013E-01  1.01025E+00 -1.12368E-02
    9026.851     28.982   3.200  9.67199E-01  1.00896E+00 -4.17613E-02
    9027.833     29.963   3.240  9.40966E-01  1.00762E+00 -6.66574E-02
    9028.826     30.957   3.280  9.19485E-01  1.00625E+00 -8.67603E-02
    9029.832     31.963   3.320  9.02046E-01  1.00485E+00 -1.02805E-01
    9030.850     32.981   3.360  8.88312E-01  1.00343E+00 -1.15114E-01
    9031.880     34.011   3.400  8.78242E-01  1.00197E+00 -1.23732E-01
    9032.923     35.053   3.440  8.71840E-01  1.00054E+00 -1.28698E-01
    9033.977     36.108   3.480  8.69049E-01  9.99105E-01 -1.30056E-01
    9035.044     37.175   3.520  8.69840E-01  9.97678E-01 -1.27838E-01
    9036.123     38.254   3.560  8.73997E-01  9.96280E-01 -1.22283E-01
    9037.214     39.345   3.600  8.81263E-01  9.94894E-01 -1.13631E-01
    9038.318     40.448   3.640  8.91401E-01  9.93544E-01 -1.02142E-01
    9039.433     41.564   3.680  9.04092E-01  9.92253E-01 -8.81610E-02
    9040.561     42.691   3.720  9.18817E-01  9.90982E-01 -7.21648E-02
    9041.701     43.831   3.760  9.35095E-01  9.89773E-01 -5.46783E-02
    9042.853     44.984   3.800  9.52114E-01  9.88588E-01 -3.64740E-02
    9044.018     46.148   3.840  9.68807E-01  9.87489E-01 -1.86823E-02
    9045.194     47.324   3.880  9.83800E-01  9.86417E-01 -2.61781E-03
    9046.383     48.513   3.920  9.95924E-01  9.85415E-01  1.05090E-02
    9047.584     49.714   3.960  1.00425E+00  9.84484E-01  1.97618E-02
    9048.797     50.927   4.000  1.00843E+00  9.83603E-01  2.48229E-02
    9050.022     52.152   4.040  1.00895E+00  9.82795E-01  2.61594E-02
    9051.260     53.390   4.080  1.00691E+00  9.82059E-01  2.48540E-02
    9052.509     54.640   4.120  1.00359E+00  9.81375E-01  2.22123E-02
    9053.771     55.901   4.160  1.00024E+00  9.80765E-01  1.94782E-02
    9055.045     57.176   4.200  9.97713E-01  9.80226E-01  1.74872E-02
    9056.331     58.462   4.240  9.96176E-01  9.79738E-01  1.64381E-02
    9057.630     59.760   4.280  9.95220E-01  9.79321E-01  1.58994E-02
    9058.940     61.071   4.320  9.94042E-01  9.78953E-01  1.50882E-02
    9060.263     62.394   4.360  9.92102E-01  9.78657E-01  1.34450E-02
    9061.598     63.729   4.400  9.89398E-01  9.78410E-01  1.09880E-02
    9062.946     65.076   4.440  9.86217E-01  9.78234E-01  7.98232E-03
    9064.305     66.435   4.480  9.82695E-01  9.78130E-01  4.56578E-03
    9065.677     67.807   4.520  9.78992E-01  9.78071E-01  9.21102E-04
    9067.060     69.191   4.560  9.75737E-01  9.78058E-01 -2.32089E-03
    9068.456     70.587   4.600  9.73942E-01  9.78109E-01 -4.16724E-03
    9069.864     71.995   4.640  9.74539E-01  9.78183E-01 -3.64422E-03
    9071.285     73.415   4.680  9.78236E-01  9.78320E-01 -8.49235E-05
    9072.717     74.848   4.720  9.85241E-01  9.78500E-01  6.74086E-03
    9074.162     76.292   4.760  9.95145E-01  9.78719E-01  1.64258E-02
    9075.619     77.749   4.800  1.00688E+00  9.78977E-01  2.79027E-02
    9077.088     79.219   4.840  1.01882E+00  9.79274E-01  3.95493E-02
    9078.570     80.700   4.880  1.02888E+00  9.79604E-01  4.92782E-02
    9080.063     82.193   4.920  1.03501E+00  9.79947E-01  5.50617E-02
    9081.569     83.699   4.960  1.03632E+00  9.80323E-01  5.59988E-02
    9083.087     85.217   5.000  1.03357E+00  9.80728E-01  5.28379E-02
    9084.617     86.747   5.040  1.02856E+00  9.81120E-01  4.74419E-02
    9086.159     88.289   5.080  1.02319E+00  9.81560E-01  4.16338E-02
    9087.713     89.844   5.120  1.01868E+00  9.81984E-01  3.66937E-02
    9089.280     91.411   5.160  1.01583E+00  9.82432E-01  3.34008E-02
    9090.859     92.989   5.200  1.01502E+00  9.82884E-01  3.21346E-02
    9092.450     94.580   5.240  1.01597E+00  9.83336E-01  3.26360E-02
    9094.053     96.184   5.280  1.01732E+00  9.83786E-01  3.35369E-02
    9095.669     97.799   5.320  1.01711E+00  9.84233E-01  3.28762E-02
    9097.296     99.427   5.360  1.01406E+00  9.84655E-01  2.94032E-02
    9098.936    101.067   5.400  1.00853E+00  9.85093E-01  2.34348E-02
    9100.588    102.719   5.440  1.00139E+00  9.85501E-01  1.58905E-02
    9102.252    104.383   5.480  9.92747E-01  9.85879E-01  6.86816E-03
    9103.929    106.059   5.520  9.82001E-01  9.86248E-01 -4.24705E-03
    9105.617    107.748   5.560  9.69067E-01  9.86608E-01 -1.75404E-02
    9107.318    109.448   5.600  9.54905E-01  9.86934E-01 -3.20288E-02
    9109.031    111.161   5.640  9.40871E-01  9.87223E-01 -4.63526E-02
    9110.756    112.887   5.680  9.28105E-01  9.87478E-01 -5.93721E-02
    9112.494    114.624   5.720  9.17600E-01  9.87719E-01 -7.01188E-02
    9114.243    116.374   5.760  9.10409E-01  9.87924E-01 -7.75152E-02
    9116.005    118.135   5.800  9.07512E-01  9.88091E-01 -8.05798E-02
    9117.779    119.909   5.840  9.09303E-01  9.88219E-01 -7.89164E-02
    9119.565    121.695   5.880  9.15270E-01  9.88309E-01 -7.30391E-02
    9121.363    123.494   5.920  9.24245E-01  9.88384E-01 -6.41384E-02
    9123.174    125.304   5.960  9.34903E-01  9.88389E-01 -5.34866E-02
    9124.996    127.127   6.000  9.46833E-01  9.88330E-01 -4.14971E-02
