# # comment:                                                     FEFF 9.9.1  
# # Source:
# # Structure
# # Reduced
# # space
# # abc:
# # angles:117.185245
# # sites:
# # POT  SCF 100  7.0000   0, screened core-hole, AFOLP (folp(0)= 1.150)
# # Abs   Z=29 Rmt= 1.273 Rnm= 1.370 K  shell
# # Pot 1 Z=29 Rmt= 1.409 Rnm= 1.472
# # Pot 2 Z=74 Rmt= 1.297 Rnm= 1.466
# # Pot 3 Z= 8 Rmt= 0.966 Rnm= 1.071
# # Gam_ch=1.729E+00 H-L exch Vi= 0.000E+00 Vr= 0.000E+00
# # Mu=-6.966E+00eV kf=2.154E+00 Vint=-1.566E+01eV Rs_int= 1.684
# FMS rfms= 9.0000
# # PATH  Rmax=-1.000,  Keep_limit= 0.00, Heap_limit 0.00  Pwcrit= 2.50%
#  S02=0.950  Temp=   0.00  Debye_temp=   0.00  Global_sig2= 0.00000
#  Energy zero shift, vr, vi    0.00000E+00   0.00000E+00
#  Curved wave amplitude ratio filter   4.000%
#     file         sig2 tot  cw amp ratio   deg  nlegs   reff  inp sig2
#     0/   0 paths used
#  xsedge+ 50, used to normalize mu           2.4614E-04
#  -----------------------------------------------------------------------
#  omega    e    k    mu    mu0     chi     @#
    8983.472    -10.776  -1.000  4.26757E-02  5.49271E-02 -1.22514E-02
    8983.771    -10.477  -0.960  4.52059E-02  5.89346E-02 -1.37287E-02
    8984.057    -10.191  -0.920  4.79700E-02  6.33883E-02 -1.54183E-02
    8984.331     -9.916  -0.880  5.09996E-02  6.83540E-02 -1.73544E-02
    8984.594     -9.654  -0.840  5.43310E-02  7.39081E-02 -1.95771E-02
    8984.844     -9.404  -0.800  5.80065E-02  8.01392E-02 -2.21327E-02
    8985.081     -9.167  -0.760  6.20742E-02  8.71489E-02 -2.50747E-02
    8985.307     -8.941  -0.720  6.65884E-02  9.50520E-02 -2.84636E-02
    8985.520     -8.728  -0.680  7.16088E-02  1.03975E-01 -3.23661E-02
    8985.721     -8.526  -0.640  7.71981E-02  1.14051E-01 -3.68530E-02
    8985.910     -8.338  -0.600  8.34172E-02  1.25411E-01 -4.19943E-02
    8986.087     -8.161  -0.560  9.03169E-02  1.38168E-01 -4.78509E-02
    8986.252     -7.996  -0.520  9.79250E-02  1.52387E-01 -5.44616E-02
    8986.404     -7.844  -0.480  1.06228E-01  1.68053E-01 -6.18245E-02
    8986.544     -7.704  -0.440  1.15152E-01  1.85029E-01 -6.98769E-02
    8986.672     -7.576  -0.400  1.24544E-01  2.03020E-01 -7.84766E-02
    8986.788     -7.460  -0.360  1.34165E-01  2.21562E-01 -8.73965E-02
    8986.892     -7.356  -0.320  1.43713E-01  2.40051E-01 -9.63385E-02
    8986.983     -7.265  -0.280  1.52849E-01  2.57818E-01 -1.04969E-01
    8987.062     -7.185  -0.240  1.61255E-01  2.74219E-01 -1.12964E-01
    8987.130     -7.118  -0.200  1.68664E-01  2.88714E-01 -1.20050E-01
    8987.184     -7.063  -0.160  1.74884E-01  3.00908E-01 -1.26023E-01
    8987.227     -7.021  -0.120  1.79792E-01  3.10548E-01 -1.30755E-01
    8987.258     -6.990  -0.080  1.83318E-01  3.17493E-01 -1.34175E-01
    8987.282     -6.966   0.000  1.86125E-01  3.23074E-01 -1.36949E-01
    8987.337     -6.911   0.120  1.92557E-01  3.35650E-01 -1.43093E-01
    8987.379     -6.868   0.160  1.97580E-01  3.45437E-01 -1.47857E-01
    8987.434     -6.814   0.200  2.03989E-01  3.57925E-01 -1.53936E-01
    8987.501     -6.746   0.240  2.11703E-01  3.72946E-01 -1.61243E-01
    8987.581     -6.667   0.280  2.20593E-01  3.90203E-01 -1.69610E-01
    8987.672     -6.576   0.320  2.30447E-01  4.09238E-01 -1.78792E-01
    8987.776     -6.472   0.360  2.41088E-01  4.29552E-01 -1.88464E-01
    8987.892     -6.356   0.400  2.52260E-01  4.50485E-01 -1.98225E-01
    8988.020     -6.228   0.440  2.63885E-01  4.71571E-01 -2.07686E-01
    8988.160     -6.088   0.480  2.75912E-01  4.92342E-01 -2.16430E-01
    8988.312     -5.936   0.520  2.88443E-01  5.12557E-01 -2.24114E-01
    8988.477     -5.771   0.560  3.01582E-01  5.32076E-01 -2.30494E-01
    8988.654     -5.594   0.600  3.15384E-01  5.50866E-01 -2.35481E-01
    8988.842     -5.405   0.640  3.29749E-01  5.68962E-01 -2.39213E-01
    8989.044     -5.204   0.680  3.44351E-01  5.86459E-01 -2.42109E-01
    8989.257     -4.991   0.720  3.58678E-01  6.03424E-01 -2.44746E-01
    8989.483     -4.765   0.760  3.72385E-01  6.19983E-01 -2.47598E-01
    8989.720     -4.528   0.800  3.85493E-01  6.36169E-01 -2.50677E-01
    8989.970     -4.278   0.840  3.98578E-01  6.52068E-01 -2.53490E-01
    8990.232     -4.015   0.880  4.12112E-01  6.67727E-01 -2.55615E-01
    8990.507     -3.741   0.920  4.25960E-01  6.83161E-01 -2.57201E-01
    8990.793     -3.455   0.960  4.40173E-01  6.98413E-01 -2.58240E-01
    8991.092     -3.156   1.000  4.56184E-01  7.13495E-01 -2.57310E-01
    8991.403     -2.845   1.040  4.76254E-01  7.28369E-01 -2.52114E-01
    8991.726     -2.522   1.080  5.01017E-01  7.43071E-01 -2.42054E-01
    8992.061     -2.187   1.120  5.27523E-01  7.57551E-01 -2.30028E-01
    8992.409     -1.839   1.160  5.51557E-01  7.71813E-01 -2.20255E-01
    8992.768     -1.480   1.200  5.72141E-01  7.85837E-01 -2.13696E-01
    8993.140     -1.108   1.240  5.91544E-01  7.99579E-01 -2.08035E-01
    8993.524     -0.724   1.280  6.12681E-01  8.13016E-01 -2.00335E-01
    8993.920     -0.327   1.320  6.39870E-01  8.26142E-01 -1.86272E-01
    8994.329      0.081   1.360  6.76124E-01  8.38908E-01 -1.62783E-01
    8994.749      0.502   1.400  7.19818E-01  8.51307E-01 -1.31489E-01
    8995.182      0.934   1.440  7.68910E-01  8.63312E-01 -9.44014E-02
    8995.627      1.379   1.480  8.25687E-01  8.74873E-01 -4.91861E-02
    8996.084      1.837   1.520  8.95586E-01  8.86005E-01  9.58084E-03
    8996.554      2.306   1.560  9.81675E-01  8.96660E-01  8.50155E-02
    8997.035      2.788   1.600  1.07851E+00  9.06854E-01  1.71654E-01
    8997.529      3.281   1.640  1.17168E+00  9.16544E-01  2.55139E-01
    8998.035      3.787   1.680  1.24267E+00  9.25746E-01  3.16923E-01
    8998.553      4.306   1.720  1.27410E+00  9.34438E-01  3.39662E-01
    8999.084      4.836   1.760  1.26369E+00  9.42641E-01  3.21048E-01
    8999.626      5.378   1.800  1.22920E+00  9.50314E-01  2.78885E-01
    9000.181      5.933   1.840  1.19136E+00  9.57480E-01  2.33879E-01
    9000.748      6.500   1.880  1.16061E+00  9.64163E-01  1.96446E-01
    9001.327      7.079   1.920  1.13948E+00  9.70325E-01  1.69158E-01
    9001.918      7.671   1.960  1.12781E+00  9.76016E-01  1.51793E-01
    9002.522      8.274   2.000  1.12756E+00  9.81238E-01  1.46323E-01
    9003.138      8.890   2.040  1.14327E+00  9.86000E-01  1.57267E-01
    9003.765      9.518   2.080  1.17349E+00  9.90310E-01  1.83184E-01
    9004.406     10.158   2.120  1.20751E+00  9.94175E-01  2.13338E-01
    9005.058     10.810   2.160  1.23123E+00  9.97647E-01  2.33587E-01
    9005.722     11.474   2.200  1.23507E+00  1.00071E+00  2.34355E-01
    9006.399     12.151   2.240  1.21618E+00  1.00340E+00  2.12773E-01
    9007.088     12.840   2.280  1.17599E+00  1.00573E+00  1.70259E-01
    9007.789     13.541   2.320  1.12282E+00  1.00774E+00  1.15081E-01
    9008.502     14.254   2.360  1.07194E+00  1.00941E+00  6.25382E-02
    9009.227     14.980   2.400  1.03282E+00  1.01080E+00  2.20254E-02
    9009.965     15.717   2.440  1.00369E+00  1.01191E+00 -8.21918E-03
    9010.715     16.467   2.480  9.82835E-01  1.01274E+00 -2.99080E-02
    9011.477     17.229   2.520  9.74625E-01  1.01335E+00 -3.87301E-02
    9012.251     18.003   2.560  9.81055E-01  1.01375E+00 -3.26983E-02
    9013.037     18.790   2.600  9.92808E-01  1.01393E+00 -2.11203E-02
    9013.836     19.588   2.640  1.00022E+00  1.01395E+00 -1.37293E-02
    9014.647     20.399   2.680  1.00174E+00  1.01379E+00 -1.20455E-02
    9015.470     21.222   2.720  9.98508E-01  1.01349E+00 -1.49779E-02
    9016.305     22.057   2.760  9.92466E-01  1.01306E+00 -2.05925E-02
    9017.152     22.904   2.800  9.85022E-01  1.01251E+00 -2.74893E-02
    9018.012     23.764   2.840  9.76894E-01  1.01187E+00 -3.49762E-02
    9018.883     24.636   2.880  9.68370E-01  1.01115E+00 -4.27758E-02
    9019.767     25.520   2.920  9.59493E-01  1.01034E+00 -5.08490E-02
    9020.663     26.416   2.960  9.50617E-01  1.00946E+00 -5.88478E-02
    9021.572     27.324   3.000  9.41946E-01  1.00854E+00 -6.65959E-02
    9022.492     28.244   3.040  9.33704E-01  1.00760E+00 -7.38952E-02
    9023.425     29.177   3.080  9.26466E-01  1.00662E+00 -8.01576E-02
    9024.370     30.122   3.120  9.20733E-01  1.00564E+00 -8.49052E-02
    9025.327     31.079   3.160  9.16859E-01  1.00463E+00 -8.77672E-02
    9026.296     32.048   3.200  9.15243E-01  1.00363E+00 -8.83912E-02
    9027.278     33.030   3.240  9.16214E-01  1.00262E+00 -8.64080E-02
    9028.271     34.023   3.280  9.19638E-01  1.00166E+00 -8.20213E-02
    9029.277     35.029   3.320  9.25039E-01  1.00069E+00 -7.56473E-02
    9030.295     36.047   3.360  9.31727E-01  9.99766E-01 -6.80387E-02
    9031.325     37.077   3.400  9.38744E-01  9.98862E-01 -6.01175E-02
    9032.368     38.120   3.440  9.45267E-01  9.98016E-01 -5.27496E-02
    9033.422     39.175   3.480  9.50712E-01  9.97190E-01 -4.64780E-02
    9034.489     40.241   3.520  9.54975E-01  9.96425E-01 -4.14504E-02
    9035.568     41.320   3.560  9.58140E-01  9.95683E-01 -3.75432E-02
    9036.659     42.411   3.600  9.60677E-01  9.95008E-01 -3.43303E-02
    9037.763     43.515   3.640  9.63037E-01  9.94399E-01 -3.13616E-02
    9038.878     44.630   3.680  9.65546E-01  9.93837E-01 -2.82912E-02
    9040.006     45.758   3.720  9.68439E-01  9.93321E-01 -2.48823E-02
    9041.146     46.898   3.760  9.71853E-01  9.92852E-01 -2.09985E-02
    9042.298     48.050   3.800  9.75892E-01  9.92453E-01 -1.65608E-02
    9043.462     49.215   3.840  9.80592E-01  9.92123E-01 -1.15311E-02
    9044.639     50.391   3.880  9.85987E-01  9.91841E-01 -5.85375E-03
    9045.828     51.580   3.920  9.92201E-01  9.91607E-01  5.94180E-04
    9047.029     52.781   3.960  9.99319E-01  9.91441E-01  7.87782E-03
    9048.242     53.994   4.000  1.00727E+00  9.91324E-01  1.59451E-02
    9049.467     55.219   4.040  1.01586E+00  9.91274E-01  2.45832E-02
    9050.704     56.457   4.080  1.02473E+00  9.91269E-01  3.34617E-02
    9051.954     57.706   4.120  1.03357E+00  9.91309E-01  4.22597E-02
    9053.216     58.968   4.160  1.04220E+00  9.91392E-01  5.08043E-02
    9054.490     60.242   4.200  1.05049E+00  9.91540E-01  5.89499E-02
    9055.776     61.528   4.240  1.05811E+00  9.91730E-01  6.63777E-02
    9057.075     62.827   4.280  1.06449E+00  9.91938E-01  7.25482E-02
    9058.385     64.138   4.320  1.06903E+00  9.92207E-01  7.68182E-02
    9059.708     65.460   4.360  1.07121E+00  9.92514E-01  7.86935E-02
    9061.043     66.795   4.400  1.07087E+00  9.92836E-01  7.80333E-02
    9062.390     68.143   4.440  1.06826E+00  9.93192E-01  7.50679E-02
    9063.750     69.502   4.480  1.06377E+00  9.93583E-01  7.01913E-02
    9065.121     70.874   4.520  1.05787E+00  9.94007E-01  6.38612E-02
    9066.505     72.257   4.560  1.05101E+00  9.94439E-01  5.65702E-02
    9067.901     73.653   4.600  1.04359E+00  9.94878E-01  4.87079E-02
    9069.309     75.062   4.640  1.03580E+00  9.95344E-01  4.04585E-02
    9070.730     76.482   4.680  1.02767E+00  9.95814E-01  3.18552E-02
    9072.162     77.914   4.720  1.01915E+00  9.96288E-01  2.28656E-02
    9073.607     79.359   4.760  1.01032E+00  9.96786E-01  1.35295E-02
    9075.064     80.816   4.800  1.00127E+00  9.97262E-01  4.00691E-03
    9076.533     82.285   4.840  9.92276E-01  9.97758E-01 -5.48242E-03
    9078.014     83.767   4.880  9.83556E-01  9.98228E-01 -1.46723E-02
    9079.508     85.260   4.920  9.75466E-01  9.98694E-01 -2.32275E-02
    9081.014     86.766   4.960  9.68387E-01  9.99152E-01 -3.07649E-02
    9082.532     88.284   5.000  9.62733E-01  9.99582E-01 -3.68496E-02
    9084.062     89.814   5.040  9.58871E-01  1.00000E+00 -4.11339E-02
    9085.604     91.356   5.080  9.56935E-01  1.00042E+00 -4.34829E-02
    9087.158     92.911   5.120  9.56774E-01  1.00080E+00 -4.40228E-02
    9088.725     94.477   5.160  9.58061E-01  1.00114E+00 -4.30819E-02
    9090.304     96.056   5.200  9.60446E-01  1.00147E+00 -4.10285E-02
    9091.895     97.647   5.240  9.63580E-01  1.00177E+00 -3.81922E-02
    9093.498     99.250   5.280  9.67251E-01  1.00203E+00 -3.47814E-02
    9095.114    100.866   5.320  9.71342E-01  1.00228E+00 -3.09349E-02
    9096.741    102.493   5.360  9.75677E-01  1.00246E+00 -2.67841E-02
    9098.381    104.133   5.400  9.80120E-01  1.00263E+00 -2.25094E-02
    9100.033    105.785   5.440  9.84415E-01  1.00276E+00 -1.83434E-02
    9101.697    107.449   5.480  9.88240E-01  1.00285E+00 -1.46085E-02
    9103.374    109.126   5.520  9.91175E-01  1.00290E+00 -1.17232E-02
    9105.062    110.814   5.560  9.92845E-01  1.00291E+00 -1.00628E-02
    9106.763    112.515   5.600  9.93127E-01  1.00288E+00 -9.74810E-03
    9108.476    114.228   5.640  9.92180E-01  1.00280E+00 -1.06231E-02
    9110.201    115.953   5.680  9.90335E-01  1.00269E+00 -1.23555E-02
    9111.938    117.691   5.720  9.87988E-01  1.00254E+00 -1.45498E-02
    9113.688    119.440   5.760  9.85592E-01  1.00235E+00 -1.67535E-02
    9115.450    121.202   5.800  9.83656E-01  1.00211E+00 -1.84583E-02
    9117.224    122.976   5.840  9.82651E-01  1.00185E+00 -1.91968E-02
    9119.010    124.762   5.880  9.82852E-01  1.00157E+00 -1.87171E-02
    9120.808    126.560   5.920  9.84208E-01  1.00123E+00 -1.70244E-02
    9122.619    128.371   5.960  9.86588E-01  1.00089E+00 -1.42974E-02
    9124.441    130.193   6.000  9.89802E-01  1.00048E+00 -1.06781E-02
