# # comment:                                                     FEFF 9.9.1  
# # Source:
# # Structure
# # Reduced
# # space
# # abc:
# # angles:109.581391
# # sites:
# # POT  SCF 100  7.0000   0, screened core-hole, AFOLP (folp(0)= 1.150)
# # Abs   Z=29 Rmt= 1.322 Rnm= 1.390 K  shell
# # Pot 1 Z=13 Rmt= 1.686 Rnm= 1.702
# # Pot 2 Z=29 Rmt= 1.320 Rnm= 1.391
# # Pot 3 Z=74 Rmt= 1.340 Rnm= 1.476
# # Pot 4 Z= 8 Rmt= 1.009 Rnm= 1.085
# # Gam_ch=1.729E+00 H-L exch Vi= 0.000E+00 Vr= 0.000E+00
# # Mu=-5.992E+00eV kf=2.223E+00 Vint=-1.583E+01eV Rs_int= 1.631
# FMS rfms= 9.0000
# # PATH  Rmax=-1.000,  Keep_limit= 0.00, Heap_limit 0.00  Pwcrit= 2.50%
#  S02=0.950  Temp=   0.00  Debye_temp=   0.00  Global_sig2= 0.00000
#  Energy zero shift, vr, vi    0.00000E+00   0.00000E+00
#  Curved wave amplitude ratio filter   4.000%
#     file         sig2 tot  cw amp ratio   deg  nlegs   reff  inp sig2
#     0/   0 paths used
#  xsedge+ 50, used to normalize mu           2.4551E-04
#  -----------------------------------------------------------------------
#  omega    e    k    mu    mu0     chi     @#
    8983.466     -9.802  -1.000  5.29472E-02  5.77898E-02 -4.84260E-03
    8983.765     -9.504  -0.960  5.63803E-02  6.20967E-02 -5.71638E-03
    8984.052     -9.217  -0.920  6.01255E-02  6.68917E-02 -6.76617E-03
    8984.326     -8.943  -0.880  6.42184E-02  7.22474E-02 -8.02903E-03
    8984.588     -8.681  -0.840  6.86988E-02  7.82485E-02 -9.54975E-03
    8984.838     -8.431  -0.800  7.36111E-02  8.49932E-02 -1.13821E-02
    8985.076     -8.193  -0.760  7.90044E-02  9.25941E-02 -1.35897E-02
    8985.301     -7.967  -0.720  8.49318E-02  1.01179E-01 -1.62471E-02
    8985.515     -7.754  -0.680  9.14492E-02  1.10888E-01 -1.94389E-02
    8985.716     -7.553  -0.640  9.86125E-02  1.21870E-01 -2.32578E-02
    8985.905     -7.364  -0.600  1.06473E-01  1.34272E-01 -2.77991E-02
    8986.082     -7.187  -0.560  1.15067E-01  1.48217E-01 -3.31502E-02
    8986.246     -7.022  -0.520  1.24407E-01  1.63782E-01 -3.93750E-02
    8986.399     -6.870  -0.480  1.34460E-01  1.80950E-01 -4.64898E-02
    8986.539     -6.730  -0.440  1.45133E-01  1.99571E-01 -5.44376E-02
    8986.667     -6.602  -0.400  1.56255E-01  2.19318E-01 -6.30638E-02
    8986.783     -6.486  -0.360  1.67569E-01  2.39679E-01 -7.21094E-02
    8986.886     -6.382  -0.320  1.78756E-01  2.59984E-01 -8.12286E-02
    8986.978     -6.291  -0.280  1.89460E-01  2.79495E-01 -9.00348E-02
    8987.057     -6.212  -0.240  1.99339E-01  2.97499E-01 -9.81602E-02
    8987.124     -6.145  -0.200  2.08098E-01  3.13404E-01 -1.05306E-01
    8987.179     -6.090  -0.160  2.15509E-01  3.26777E-01 -1.11268E-01
    8987.222     -6.047  -0.120  2.21410E-01  3.37342E-01 -1.15932E-01
    8987.252     -6.017  -0.080  2.25695E-01  3.44950E-01 -1.19254E-01
    8987.276     -5.992   0.000  2.29176E-01  3.51059E-01 -1.21883E-01
    8987.331     -5.937   0.120  2.37005E-01  3.64840E-01 -1.27835E-01
    8987.374     -5.895   0.160  2.43127E-01  3.75533E-01 -1.32406E-01
    8987.429     -5.840   0.200  2.51068E-01  3.89172E-01 -1.38104E-01
    8987.496     -5.773   0.240  2.60821E-01  4.05541E-01 -1.44720E-01
    8987.575     -5.694   0.280  2.72478E-01  4.24336E-01 -1.51858E-01
    8987.667     -5.602   0.320  2.86057E-01  4.44998E-01 -1.58941E-01
    8987.770     -5.498   0.360  3.01766E-01  4.66950E-01 -1.65184E-01
    8987.886     -5.383   0.400  3.19939E-01  4.89494E-01 -1.69555E-01
    8988.014     -5.255   0.440  3.41254E-01  5.12033E-01 -1.70779E-01
    8988.154     -5.114   0.480  3.66767E-01  5.34084E-01 -1.67317E-01
    8988.307     -4.962   0.520  3.97909E-01  5.55352E-01 -1.57442E-01
    8988.471     -4.797   0.560  4.36126E-01  5.75700E-01 -1.39574E-01
    8988.648     -4.621   0.600  4.82303E-01  5.95095E-01 -1.12793E-01
    8988.837     -4.432   0.640  5.36035E-01  6.13562E-01 -7.75270E-02
    8989.038     -4.230   0.680  5.95685E-01  6.31208E-01 -3.55226E-02
    8989.252     -4.017   0.720  6.58699E-01  6.48156E-01  1.05427E-02
    8989.477     -3.792   0.760  7.20504E-01  6.64491E-01  5.60130E-02
    8989.715     -3.554   0.800  7.72814E-01  6.80322E-01  9.24912E-02
    8989.965     -3.304   0.840  8.06626E-01  6.95710E-01  1.10916E-01
    8990.227     -3.042   0.880  8.19961E-01  7.10735E-01  1.09225E-01
    8990.501     -2.767   0.920  8.18265E-01  7.25424E-01  9.28405E-02
    8990.788     -2.481   0.960  8.05267E-01  7.39834E-01  6.54336E-02
    8991.086     -2.182   1.000  7.79564E-01  7.53985E-01  2.55797E-02
    8991.397     -1.871   1.040  7.43834E-01  7.67847E-01 -2.40137E-02
    8991.720     -1.548   1.080  7.10753E-01  7.81488E-01 -7.07350E-02
    8992.056     -1.213   1.120  6.94103E-01  7.94841E-01 -1.00738E-01
    8992.403     -0.866   1.160  7.01321E-01  8.07938E-01 -1.06618E-01
    8992.763     -0.506   1.200  7.34819E-01  8.20747E-01 -8.59274E-02
    8993.135     -0.134   1.240  7.93680E-01  8.33249E-01 -3.95683E-02
    8993.519      0.250   1.280  8.76216E-01  8.45446E-01  3.07704E-02
    8993.915      0.646   1.320  9.74856E-01  8.57316E-01  1.17540E-01
    8994.323      1.055   1.360  1.06652E+00  8.68816E-01  1.97708E-01
    8994.744      1.475   1.400  1.12044E+00  8.79923E-01  2.40513E-01
    8995.177      1.908   1.440  1.11827E+00  8.90672E-01  2.27594E-01
    8995.622      2.353   1.480  1.07617E+00  9.00979E-01  1.75191E-01
    8996.079      2.810   1.520  1.02743E+00  9.10882E-01  1.16545E-01
    8996.548      3.280   1.560  9.84528E-01  9.20334E-01  6.41944E-02
    8997.030      3.761   1.600  9.54147E-01  9.29334E-01  2.48133E-02
    8997.524      4.255   1.640  9.46134E-01  9.37881E-01  8.25233E-03
    8998.030      4.761   1.680  9.59881E-01  9.45973E-01  1.39080E-02
    8998.548      5.279   1.720  9.89228E-01  9.53569E-01  3.56589E-02
    8999.078      5.810   1.760  1.03410E+00  9.60713E-01  7.33844E-02
    8999.621      6.352   1.800  1.09181E+00  9.67383E-01  1.24427E-01
    9000.176      6.907   1.840  1.13676E+00  9.73583E-01  1.63180E-01
    9000.742      7.474   1.880  1.15214E+00  9.79339E-01  1.72803E-01
    9001.322      8.053   1.920  1.15542E+00  9.84613E-01  1.70807E-01
    9001.913      8.644   1.960  1.16294E+00  9.89451E-01  1.73484E-01
    9002.516      9.248   2.000  1.17594E+00  9.93860E-01  1.82078E-01
    9003.132      9.863   2.040  1.19207E+00  9.97847E-01  1.94224E-01
    9003.760     10.491   2.080  1.20487E+00  1.00142E+00  2.03451E-01
    9004.400     11.131   2.120  1.21005E+00  1.00461E+00  2.05448E-01
    9005.052     11.784   2.160  1.21551E+00  1.00739E+00  2.08122E-01
    9005.717     12.448   2.200  1.23129E+00  1.00983E+00  2.21461E-01
    9006.393     13.125   2.240  1.25330E+00  1.01193E+00  2.41364E-01
    9007.082     13.814   2.280  1.26469E+00  1.01373E+00  2.50967E-01
    9007.783     14.515   2.320  1.24563E+00  1.01520E+00  2.30432E-01
    9008.497     15.228   2.360  1.19107E+00  1.01638E+00  1.74687E-01
    9009.222     15.953   2.400  1.11796E+00  1.01728E+00  1.00678E-01
    9009.960     16.691   2.440  1.04696E+00  1.01795E+00  2.90130E-02
    9010.709     17.441   2.480  9.86623E-01  1.01838E+00 -3.17580E-02
    9011.471     18.203   2.520  9.37684E-01  1.01860E+00 -8.09157E-02
    9012.246     18.977   2.560  9.00987E-01  1.01862E+00 -1.17629E-01
    9013.032     19.763   2.600  8.77832E-01  1.01848E+00 -1.40651E-01
    9013.831     20.562   2.640  8.74832E-01  1.01816E+00 -1.43332E-01
    9014.641     21.373   2.680  8.81214E-01  1.01771E+00 -1.36496E-01
    9015.464     22.196   2.720  8.84675E-01  1.01713E+00 -1.32454E-01
    9016.299     23.031   2.760  8.80539E-01  1.01643E+00 -1.35891E-01
    9017.147     23.878   2.800  8.71795E-01  1.01564E+00 -1.43846E-01
    9018.006     24.738   2.840  8.63740E-01  1.01479E+00 -1.51048E-01
    9018.878     25.609   2.880  8.59018E-01  1.01383E+00 -1.54817E-01
    9019.762     26.493   2.920  8.57610E-01  1.01283E+00 -1.55222E-01
    9020.658     27.389   2.960  8.58858E-01  1.01179E+00 -1.52929E-01
    9021.566     28.298   3.000  8.62172E-01  1.01072E+00 -1.48551E-01
    9022.487     29.218   3.040  8.67224E-01  1.00963E+00 -1.42401E-01
    9023.420     30.151   3.080  8.74127E-01  1.00850E+00 -1.34374E-01
    9024.364     31.096   3.120  8.83553E-01  1.00739E+00 -1.23839E-01
    9025.321     32.053   3.160  8.96129E-01  1.00629E+00 -1.10156E-01
    9026.291     33.022   3.200  9.12335E-01  1.00518E+00 -9.28487E-02
    9027.272     34.003   3.240  9.31991E-01  1.00411E+00 -7.21211E-02
    9028.266     34.997   3.280  9.53843E-01  1.00305E+00 -4.92104E-02
    9029.272     36.003   3.320  9.76305E-01  1.00205E+00 -2.57452E-02
    9030.290     37.021   3.360  9.97725E-01  1.00107E+00 -3.34134E-03
    9031.320     38.051   3.400  1.01690E+00  1.00015E+00  1.67580E-02
    9032.362     39.094   3.440  1.03349E+00  9.99266E-01  3.42209E-02
    9033.417     40.148   3.480  1.04763E+00  9.98431E-01  4.91976E-02
    9034.484     41.215   3.520  1.05918E+00  9.97643E-01  6.15368E-02
    9035.563     42.294   3.560  1.06733E+00  9.96924E-01  7.04098E-02
    9036.654     43.385   3.600  1.07095E+00  9.96254E-01  7.46921E-02
    9037.757     44.489   3.640  1.06943E+00  9.95677E-01  7.37508E-02
    9038.873     45.604   3.680  1.06279E+00  9.95130E-01  6.76575E-02
    9040.001     46.732   3.720  1.05213E+00  9.94656E-01  5.74718E-02
    9041.140     47.872   3.760  1.03926E+00  9.94254E-01  4.50093E-02
    9042.293     49.024   3.800  1.02647E+00  9.93927E-01  3.25455E-02
    9043.457     50.188   3.840  1.01626E+00  9.93652E-01  2.26076E-02
    9044.633     51.365   3.880  1.01072E+00  9.93448E-01  1.72742E-02
    9045.822     52.554   3.920  1.01112E+00  9.93295E-01  1.78239E-02
    9047.023     53.754   3.960  1.01770E+00  9.93215E-01  2.44896E-02
    9048.236     54.968   4.000  1.02939E+00  9.93206E-01  3.61800E-02
    9049.462     56.193   4.040  1.04381E+00  9.93245E-01  5.05668E-02
    9050.699     57.430   4.080  1.05796E+00  9.93332E-01  6.46278E-02
    9051.949     58.680   4.120  1.06906E+00  9.93488E-01  7.55765E-02
    9053.211     59.942   4.160  1.07538E+00  9.93690E-01  8.16939E-02
    9054.485     61.216   4.200  1.07624E+00  9.93958E-01  8.22839E-02
    9055.771     62.502   4.240  1.07160E+00  9.94248E-01  7.73542E-02
    9057.069     63.801   4.280  1.06206E+00  9.94601E-01  6.74555E-02
    9058.380     65.111   4.320  1.04861E+00  9.94994E-01  5.36153E-02
    9059.703     66.434   4.360  1.03273E+00  9.95404E-01  3.73240E-02
    9061.038     67.769   4.400  1.01642E+00  9.95872E-01  2.05514E-02
    9062.385     69.116   4.440  1.00169E+00  9.96354E-01  5.34016E-03
    9063.744     70.476   4.480  9.90109E-01  9.96870E-01 -6.76118E-03
    9065.116     71.847   4.520  9.82484E-01  9.97419E-01 -1.49354E-02
    9066.500     73.231   4.560  9.78801E-01  9.97976E-01 -1.91743E-02
    9067.896     74.627   4.600  9.78463E-01  9.98537E-01 -2.00739E-02
    9069.304     76.035   4.640  9.80488E-01  9.99125E-01 -1.86370E-02
    9070.724     77.456   4.680  9.83463E-01  9.99717E-01 -1.62537E-02
    9072.157     78.888   4.720  9.85775E-01  1.00031E+00 -1.45340E-02
    9073.602     80.333   4.760  9.85976E-01  1.00090E+00 -1.49211E-02
    9075.059     81.790   4.800  9.83124E-01  1.00146E+00 -1.83357E-02
    9076.528     83.259   4.840  9.77080E-01  1.00204E+00 -2.49623E-02
    9078.009     84.740   4.880  9.68356E-01  1.00260E+00 -3.42396E-02
    9079.502     86.234   4.920  9.58128E-01  1.00314E+00 -4.50143E-02
    9081.008     87.739   4.960  9.47885E-01  1.00368E+00 -5.57934E-02
    9082.526     89.257   5.000  9.39040E-01  1.00416E+00 -6.51200E-02
    9084.056     90.787   5.040  9.32753E-01  1.00465E+00 -7.18967E-02
    9085.598     92.330   5.080  9.29591E-01  1.00508E+00 -7.54923E-02
    9087.153     93.884   5.120  9.29761E-01  1.00550E+00 -7.57393E-02
    9088.720     95.451   5.160  9.33100E-01  1.00588E+00 -7.27803E-02
    9090.298     97.030   5.200  9.39353E-01  1.00622E+00 -6.68664E-02
    9091.889     98.621   5.240  9.48239E-01  1.00652E+00 -5.82783E-02
    9093.493    100.224   5.280  9.59480E-01  1.00678E+00 -4.72950E-02
    9095.108    101.839   5.320  9.72781E-01  1.00699E+00 -3.42102E-02
    9096.736    103.467   5.360  9.87748E-01  1.00716E+00 -1.94160E-02
    9098.376    105.107   5.400  1.00376E+00  1.00729E+00 -3.53687E-03
    9100.028    106.759   5.440  1.01971E+00  1.00735E+00  1.23564E-02
    9101.692    108.423   5.480  1.03419E+00  1.00740E+00  2.67974E-02
    9103.368    110.100   5.520  1.04591E+00  1.00737E+00  3.85345E-02
    9105.057    111.788   5.560  1.05460E+00  1.00730E+00  4.72982E-02
    9106.758    113.489   5.600  1.06094E+00  1.00719E+00  5.37546E-02
    9108.471    115.202   5.640  1.06563E+00  1.00703E+00  5.85986E-02
    9110.196    116.927   5.680  1.06843E+00  1.00683E+00  6.15978E-02
    9111.933    118.664   5.720  1.06810E+00  1.00657E+00  6.15259E-02
    9113.683    120.414   5.760  1.06340E+00  1.00629E+00  5.71130E-02
    9115.444    122.176   5.800  1.05423E+00  1.00594E+00  4.82927E-02
    9117.218    123.950   5.840  1.04210E+00  1.00555E+00  3.65474E-02
    9119.004    125.736   5.880  1.02919E+00  1.00513E+00  2.40688E-02
    9120.803    127.534   5.920  1.01728E+00  1.00469E+00  1.25854E-02
    9122.613    129.344   5.960  1.00704E+00  1.00420E+00  2.83982E-03
    9124.436    131.167   6.000  9.98309E-01  1.00367E+00 -5.36361E-03
