# # comment:                                                     FEFF 9.9.1  
# # Source:
# # Structure
# # Reduced
# # space
# # abc:
# # angles:
# # sites:
# # POT  SCF 100  7.0000   0, screened core-hole, AFOLP (folp(0)= 1.150)
# # Abs   Z=29 Rmt= 1.182 Rnm= 1.278 K  shell
# # Pot 1 Z=39 Rmt= 1.668 Rnm= 1.715
# # Pot 2 Z=25 Rmt= 1.265 Rnm= 1.378
# # Pot 3 Z=29 Rmt= 1.246 Rnm= 1.319
# # Pot 4 Z= 8 Rmt= 1.033 Rnm= 1.097
# # Gam_ch=1.729E+00 H-L exch Vi= 0.000E+00 Vr= 0.000E+00
# # Mu=-1.011E+01eV kf=2.189E+00 Vint=-1.807E+01eV Rs_int= 1.657
# FMS rfms= 9.0000
# # PATH  Rmax=-1.000,  Keep_limit= 0.00, Heap_limit 0.00  Pwcrit= 2.50%
#  S02=0.950  Temp=   0.00  Debye_temp=   0.00  Global_sig2= 0.00000
#  Energy zero shift, vr, vi    0.00000E+00   0.00000E+00
#  Curved wave amplitude ratio filter   4.000%
#     file         sig2 tot  cw amp ratio   deg  nlegs   reff  inp sig2
#     0/   0 paths used
#  xsedge+ 50, used to normalize mu           2.4771E-04
#  -----------------------------------------------------------------------
#  omega    e    k    mu    mu0     chi     @#
    8984.517    -13.921  -1.000  3.42649E-02  5.13851E-02 -1.71201E-02
    8984.816    -13.623  -0.960  3.59114E-02  5.50248E-02 -1.91134E-02
    8985.102    -13.336  -0.920  3.76658E-02  5.90607E-02 -2.13949E-02
    8985.376    -13.062  -0.880  3.95377E-02  6.35502E-02 -2.40125E-02
    8985.639    -12.800  -0.840  4.15379E-02  6.85602E-02 -2.70223E-02
    8985.888    -12.550  -0.800  4.36782E-02  7.41680E-02 -3.04898E-02
    8986.126    -12.312  -0.760  4.59717E-02  8.04622E-02 -3.44905E-02
    8986.352    -12.087  -0.720  4.84326E-02  8.75430E-02 -3.91104E-02
    8986.565    -11.873  -0.680  5.10757E-02  9.55203E-02 -4.44446E-02
    8986.766    -11.672  -0.640  5.39156E-02  1.04510E-01 -5.05945E-02
    8986.955    -11.483  -0.600  5.69650E-02  1.14626E-01 -5.76609E-02
    8987.132    -11.306  -0.560  6.02322E-02  1.25965E-01 -6.57324E-02
    8987.297    -11.142  -0.520  6.37164E-02  1.38583E-01 -7.48662E-02
    8987.449    -10.989  -0.480  6.74027E-02  1.52466E-01 -8.50634E-02
    8987.589    -10.849  -0.440  7.12550E-02  1.67493E-01 -9.62384E-02
    8987.717    -10.721  -0.400  7.52114E-02  1.83405E-01 -1.08194E-01
    8987.833    -10.605  -0.360  7.91839E-02  1.99795E-01 -1.20611E-01
    8987.937    -10.502  -0.320  8.30643E-02  2.16134E-01 -1.33069E-01
    8988.028    -10.410  -0.280  8.67374E-02  2.31835E-01 -1.45097E-01
    8988.107    -10.331  -0.240  9.00962E-02  2.46332E-01 -1.56236E-01
    8988.174    -10.264  -0.200  9.30530E-02  2.59150E-01 -1.66097E-01
    8988.229    -10.209  -0.160  9.55432E-02  2.69940E-01 -1.74396E-01
    8988.272    -10.166  -0.120  9.75216E-02  2.78474E-01 -1.80952E-01
    8988.302    -10.136  -0.080  9.89581E-02  2.84626E-01 -1.85668E-01
    8988.327    -10.111   0.000  1.00132E-01  2.89572E-01 -1.89440E-01
    8988.382    -10.057   0.120  1.02878E-01  3.00732E-01 -1.97854E-01
    8988.424    -10.014   0.160  1.04978E-01  3.09416E-01 -2.04438E-01
    8988.479     -9.959   0.200  1.07672E-01  3.20500E-01 -2.12828E-01
    8988.546     -9.892   0.240  1.10998E-01  3.33886E-01 -2.22889E-01
    8988.626     -9.813   0.280  1.14932E-01  3.49264E-01 -2.34332E-01
    8988.717     -9.721   0.320  1.19570E-01  3.66306E-01 -2.46737E-01
    8988.821     -9.618   0.360  1.25003E-01  3.84532E-01 -2.59529E-01
    8988.936     -9.502   0.400  1.31388E-01  4.03450E-01 -2.72062E-01
    8989.064     -9.374   0.440  1.38903E-01  4.22591E-01 -2.83688E-01
    8989.205     -9.234   0.480  1.47733E-01  4.41606E-01 -2.93873E-01
    8989.357     -9.081   0.520  1.57913E-01  4.60277E-01 -3.02364E-01
    8989.522     -8.917   0.560  1.69185E-01  4.78479E-01 -3.09294E-01
    8989.698     -8.740   0.600  1.80990E-01  4.96184E-01 -3.15194E-01
    8989.887     -8.551   0.640  1.92715E-01  5.13440E-01 -3.20726E-01
    8990.089     -8.350   0.680  2.04111E-01  5.30329E-01 -3.26219E-01
    8990.302     -8.136   0.720  2.15378E-01  5.46903E-01 -3.31525E-01
    8990.527     -7.911   0.760  2.27085E-01  5.63230E-01 -3.36145E-01
    8990.765     -7.673   0.800  2.40057E-01  5.79412E-01 -3.39356E-01
    8991.015     -7.423   0.840  2.55764E-01  5.95460E-01 -3.39696E-01
    8991.277     -7.161   0.880  2.77611E-01  6.11430E-01 -3.33819E-01
    8991.552     -6.887   0.920  3.10932E-01  6.27326E-01 -3.16394E-01
    8991.838     -6.600   0.960  3.60452E-01  6.43203E-01 -2.82751E-01
    8992.137     -6.302   1.000  4.24404E-01  6.59025E-01 -2.34621E-01
    8992.448     -5.991   1.040  4.89927E-01  6.74788E-01 -1.84861E-01
    8992.771     -5.668   1.080  5.46013E-01  6.90502E-01 -1.44489E-01
    8993.106     -5.332   1.120  6.06140E-01  7.06130E-01 -9.99890E-02
    8993.454     -4.985   1.160  6.92186E-01  7.21629E-01 -2.94423E-02
    8993.813     -4.625   1.200  7.87528E-01  7.36996E-01  5.05319E-02
    8994.185     -4.253   1.240  8.21764E-01  7.52183E-01  6.95812E-02
    8994.569     -3.869   1.280  7.51180E-01  7.67159E-01 -1.59787E-02
    8994.965     -3.473   1.320  6.28192E-01  7.81893E-01 -1.53701E-01
    8995.374     -3.065   1.360  5.25491E-01  7.96354E-01 -2.70863E-01
    8995.794     -2.644   1.400  4.72418E-01  8.10507E-01 -3.38089E-01
    8996.227     -2.211   1.440  4.67449E-01  8.24300E-01 -3.56851E-01
    8996.672     -1.766   1.480  4.98589E-01  8.37720E-01 -3.39130E-01
    8997.129     -1.309   1.520  5.49719E-01  8.50734E-01 -3.01015E-01
    8997.599     -0.840   1.560  6.02001E-01  8.63332E-01 -2.61331E-01
    8998.080     -0.358   1.600  6.46781E-01  8.75443E-01 -2.28662E-01
    8998.574      0.136   1.640  6.88630E-01  8.87097E-01 -1.98467E-01
    8999.080      0.642   1.680  7.22252E-01  8.98248E-01 -1.75995E-01
    8999.598      1.160   1.720  7.42893E-01  9.08868E-01 -1.65976E-01
    9000.129      1.690   1.760  7.71555E-01  9.18973E-01 -1.47418E-01
    9000.671      2.233   1.800  8.28101E-01  9.28539E-01 -1.00438E-01
    9001.226      2.788   1.840  9.00476E-01  9.37583E-01 -3.71079E-02
    9001.793      3.355   1.880  9.53467E-01  9.46066E-01  7.40083E-03
    9002.372      3.934   1.920  9.78764E-01  9.54010E-01  2.47539E-02
    9002.963      4.525   1.960  1.02429E+00  9.61415E-01  6.28745E-02
    9003.567      5.128   2.000  1.11666E+00  9.68284E-01  1.48377E-01
    9004.182      5.744   2.040  1.20875E+00  9.74624E-01  2.34125E-01
    9004.810      6.372   2.080  1.24852E+00  9.80458E-01  2.68063E-01
    9005.450      7.012   2.120  1.25187E+00  9.85774E-01  2.66093E-01
    9006.103      7.664   2.160  1.26622E+00  9.90622E-01  2.75594E-01
    9006.767      8.329   2.200  1.32808E+00  9.94987E-01  3.33093E-01
    9007.444      9.005   2.240  1.42966E+00  9.98897E-01  4.30760E-01
    9008.133      9.694   2.280  1.50353E+00  1.00237E+00  5.01166E-01
    9008.834     10.395   2.320  1.50342E+00  1.00542E+00  4.97997E-01
    9009.547     11.109   2.360  1.46053E+00  1.00809E+00  4.52432E-01
    9010.272     11.834   2.400  1.40643E+00  1.01037E+00  3.96056E-01
    9011.010     12.572   2.440  1.34540E+00  1.01231E+00  3.33084E-01
    9011.760     13.321   2.480  1.28090E+00  1.01390E+00  2.67006E-01
    9012.522     14.083   2.520  1.22130E+00  1.01518E+00  2.06115E-01
    9013.296     14.858   2.560  1.16801E+00  1.01616E+00  1.51858E-01
    9014.082     15.644   2.600  1.11800E+00  1.01687E+00  1.01131E-01
    9014.881     16.443   2.640  1.07088E+00  1.01734E+00  5.35413E-02
    9015.692     17.253   2.680  1.02730E+00  1.01757E+00  9.73469E-03
    9016.515     18.076   2.720  9.91301E-01  1.01759E+00 -2.62871E-02
    9017.350     18.911   2.760  9.65394E-01  1.01741E+00 -5.20136E-02
    9018.197     19.759   2.800  9.49655E-01  1.01706E+00 -6.74014E-02
    9019.057     20.618   2.840  9.42080E-01  1.01654E+00 -7.44654E-02
    9019.928     21.490   2.880  9.38391E-01  1.01590E+00 -7.75097E-02
    9020.812     22.374   2.920  9.34508E-01  1.01511E+00 -8.06043E-02
    9021.708     23.270   2.960  9.28224E-01  1.01423E+00 -8.60032E-02
    9022.617     24.178   3.000  9.19202E-01  1.01325E+00 -9.40516E-02
    9023.537     25.099   3.040  9.08611E-01  1.01220E+00 -1.03588E-01
    9024.470     26.032   3.080  8.98208E-01  1.01107E+00 -1.12861E-01
    9025.415     26.976   3.120  8.89445E-01  1.00989E+00 -1.20443E-01
    9026.372     27.933   3.160  8.83033E-01  1.00867E+00 -1.25633E-01
    9027.341     28.903   3.200  8.79383E-01  1.00741E+00 -1.28023E-01
    9028.323     29.884   3.240  8.78382E-01  1.00611E+00 -1.27730E-01
    9029.316     30.878   3.280  8.79057E-01  1.00483E+00 -1.25776E-01
    9030.322     31.884   3.320  8.80390E-01  1.00353E+00 -1.23140E-01
    9031.340     32.902   3.360  8.82003E-01  1.00223E+00 -1.20224E-01
    9032.370     33.932   3.400  8.83746E-01  1.00095E+00 -1.17206E-01
    9033.413     34.974   3.440  8.85325E-01  9.99707E-01 -1.14382E-01
    9034.467     36.029   3.480  8.86627E-01  9.98472E-01 -1.11844E-01
    9035.534     37.096   3.520  8.88033E-01  9.97250E-01 -1.09217E-01
    9036.613     38.175   3.560  8.90487E-01  9.96087E-01 -1.05600E-01
    9037.704     39.266   3.600  8.95305E-01  9.94965E-01 -9.96607E-02
    9038.808     40.369   3.640  9.03658E-01  9.93886E-01 -9.02274E-02
    9039.923     41.485   3.680  9.16283E-01  9.92850E-01 -7.65669E-02
    9041.051     42.613   3.720  9.33216E-01  9.91879E-01 -5.86632E-02
    9042.191     43.753   3.760  9.53632E-01  9.90955E-01 -3.73232E-02
    9043.343     44.905   3.800  9.75409E-01  9.90078E-01 -1.46692E-02
    9044.507     46.069   3.840  9.95423E-01  9.89270E-01  6.15337E-03
    9045.684     47.246   3.880  1.01056E+00  9.88510E-01  2.20545E-02
    9046.873     48.434   3.920  1.01884E+00  9.87823E-01  3.10202E-02
    9048.073     49.635   3.960  1.01980E+00  9.87207E-01  3.25957E-02
    9049.287     50.848   4.000  1.01451E+00  9.86642E-01  2.78657E-02
    9050.512     52.074   4.040  1.00531E+00  9.86125E-01  1.91897E-02
    9051.749     53.311   4.080  9.95456E-01  9.85701E-01  9.75580E-03
    9052.999     54.561   4.120  9.88097E-01  9.85308E-01  2.78925E-03
    9054.261     55.823   4.160  9.85767E-01  9.85006E-01  7.61088E-04
    9055.535     57.097   4.200  9.89377E-01  9.84753E-01  4.62378E-03
    9056.821     58.383   4.240  9.98029E-01  9.84548E-01  1.34813E-02
    9058.120     59.681   4.280  1.00945E+00  9.84410E-01  2.50351E-02
    9059.430     60.992   4.320  1.02099E+00  9.84319E-01  3.66729E-02
    9060.753     62.315   4.360  1.03088E+00  9.84275E-01  4.66085E-02
    9062.088     63.650   4.400  1.03865E+00  9.84296E-01  5.43559E-02
    9063.435     64.997   4.440  1.04462E+00  9.84362E-01  6.02612E-02
    9064.795     66.356   4.480  1.04888E+00  9.84469E-01  6.44069E-02
    9066.166     67.728   4.520  1.05092E+00  9.84618E-01  6.63073E-02
    9067.550     69.112   4.560  1.05043E+00  9.84808E-01  6.56253E-02
    9068.946     70.508   4.600  1.04812E+00  9.85059E-01  6.30636E-02
    9070.354     71.916   4.640  1.04566E+00  9.85326E-01  6.03369E-02
    9071.775     73.336   4.680  1.04488E+00  9.85627E-01  5.92502E-02
    9073.207     74.769   4.720  1.04664E+00  9.85942E-01  6.06990E-02
    9074.652     76.214   4.760  1.05081E+00  9.86312E-01  6.45018E-02
    9076.109     77.671   4.800  1.05637E+00  9.86693E-01  6.96780E-02
    9077.578     79.140   4.840  1.06190E+00  9.87081E-01  7.48224E-02
    9079.059     80.621   4.880  1.06594E+00  9.87497E-01  7.84420E-02
    9080.553     82.115   4.920  1.06708E+00  9.87918E-01  7.91593E-02
    9082.059     83.620   4.960  1.06425E+00  9.88344E-01  7.59099E-02
    9083.576     85.138   5.000  1.05704E+00  9.88795E-01  6.82431E-02
    9085.107     86.668   5.040  1.04575E+00  9.89247E-01  5.65017E-02
    9086.649     88.210   5.080  1.03142E+00  9.89675E-01  4.17479E-02
    9088.203     89.765   5.120  1.01538E+00  9.90123E-01  2.52530E-02
    9089.770     91.332   5.160  9.98549E-01  9.90545E-01  8.00308E-03
    9091.349     92.910   5.200  9.81562E-01  9.90963E-01 -9.40177E-03
    9092.940     94.502   5.240  9.64683E-01  9.91377E-01 -2.66940E-02
    9094.543     96.105   5.280  9.48062E-01  9.91784E-01 -4.37226E-02
    9096.159     97.720   5.320  9.31998E-01  9.92161E-01 -6.01632E-02
    9097.786     99.348   5.360  9.17227E-01  9.92528E-01 -7.53010E-02
    9099.426    100.988   5.400  9.04620E-01  9.92861E-01 -8.82414E-02
    9101.078    102.640   5.440  8.94949E-01  9.93160E-01 -9.82107E-02
    9102.742    104.304   5.480  8.88811E-01  9.93446E-01 -1.04634E-01
    9104.419    105.980   5.520  8.86646E-01  9.93697E-01 -1.07051E-01
    9106.107    107.669   5.560  8.88788E-01  9.93912E-01 -1.05124E-01
    9107.808    109.370   5.600  8.95374E-01  9.94114E-01 -9.87401E-02
    9109.521    111.083   5.640  9.06315E-01  9.94276E-01 -8.79616E-02
    9111.246    112.808   5.680  9.21372E-01  9.94378E-01 -7.30052E-02
    9112.983    114.545   5.720  9.40145E-01  9.94463E-01 -5.43177E-02
    9114.733    116.295   5.760  9.61967E-01  9.94511E-01 -3.25434E-02
    9116.495    118.056   5.800  9.85805E-01  9.94522E-01 -8.71738E-03
    9118.269    119.830   5.840  1.01000E+00  9.94519E-01  1.54836E-02
    9120.055    121.616   5.880  1.03205E+00  9.94454E-01  3.75977E-02
    9121.853    123.415   5.920  1.04894E+00  9.94349E-01  5.45868E-02
    9123.664    125.225   5.960  1.05785E+00  9.94228E-01  6.36246E-02
    9125.486    127.048   6.000  1.05694E+00  9.94019E-01  6.29216E-02
