# # comment:                                                     FEFF 9.9.1  
# # Source:
# # Structure
# # Reduced
# # space
# # abc:
# # angles:
# # sites:
# # POT  SCF 100  7.0000   0, screened core-hole, AFOLP (folp(0)= 1.150)
# # Abs   Z=29 Rmt= 1.219 Rnm= 1.308 K  shell
# # Pot 1 Z=38 Rmt= 1.788 Rnm= 1.843
# # Pot 2 Z=29 Rmt= 1.219 Rnm= 1.308
# # Pot 3 Z= 8 Rmt= 1.075 Rnm= 1.124
# # Gam_ch=1.729E+00 H-L exch Vi= 0.000E+00 Vr= 0.000E+00
# # Mu=-8.783E+00eV kf=1.971E+00 Vint=-1.714E+01eV Rs_int= 1.840
# FMS rfms= 9.0000
# # PATH  Rmax=-1.000,  Keep_limit= 0.00, Heap_limit 0.00  Pwcrit= 2.50%
#  S02=0.950  Temp=   0.00  Debye_temp=   0.00  Global_sig2= 0.00000
#  Energy zero shift, vr, vi    0.00000E+00   0.00000E+00
#  Curved wave amplitude ratio filter   4.000%
#     file         sig2 tot  cw amp ratio   deg  nlegs   reff  inp sig2
#     0/   0 paths used
#  xsedge+ 50, used to normalize mu           2.4410E-04
#  -----------------------------------------------------------------------
#  omega    e    k    mu    mu0     chi     @#
    8984.854    -12.593  -1.000  4.31609E-02  5.82170E-02 -1.50561E-02
    8985.153    -12.294  -0.960  4.58547E-02  6.25286E-02 -1.66738E-02
    8985.439    -12.008  -0.920  4.88343E-02  6.73239E-02 -1.84896E-02
    8985.714    -11.733  -0.880  5.21445E-02  7.26743E-02 -2.05298E-02
    8985.976    -11.471  -0.840  5.58389E-02  7.86628E-02 -2.28239E-02
    8986.226    -11.221  -0.800  5.99798E-02  8.53856E-02 -2.54058E-02
    8986.464    -10.983  -0.760  6.46402E-02  9.29531E-02 -2.83128E-02
    8986.689    -10.758  -0.720  6.99033E-02  1.01490E-01 -3.15865E-02
    8986.903    -10.545  -0.680  7.58619E-02  1.11133E-01 -3.52713E-02
    8987.104    -10.343  -0.640  8.26154E-02  1.22028E-01 -3.94125E-02
    8987.293    -10.154  -0.600  9.02635E-02  1.34316E-01 -4.40528E-02
    8987.469     -9.978  -0.560  9.88949E-02  1.48120E-01 -4.92251E-02
    8987.634     -9.813  -0.520  1.08569E-01  1.63511E-01 -5.49420E-02
    8987.786     -9.661  -0.480  1.19292E-01  1.80474E-01 -6.11817E-02
    8987.927     -9.520  -0.440  1.30987E-01  1.98859E-01 -6.78716E-02
    8988.055     -9.392  -0.400  1.43471E-01  2.18347E-01 -7.48757E-02
    8988.170     -9.277  -0.360  1.56441E-01  2.38434E-01 -8.19933E-02
    8988.274     -9.173  -0.320  1.69491E-01  2.58467E-01 -8.89762E-02
    8988.366     -9.082  -0.280  1.82156E-01  2.77719E-01 -9.55632E-02
    8988.445     -9.002  -0.240  1.93970E-01  2.95492E-01 -1.01522E-01
    8988.512     -8.935  -0.200  2.04522E-01  3.11200E-01 -1.06678E-01
    8988.567     -8.880  -0.160  2.13489E-01  3.24415E-01 -1.10926E-01
    8988.609     -8.838  -0.120  2.20644E-01  3.34862E-01 -1.14218E-01
    8988.640     -8.807  -0.080  2.25845E-01  3.42389E-01 -1.16544E-01
    8988.664     -8.783   0.000  2.30067E-01  3.48436E-01 -1.18369E-01
    8988.719     -8.728   0.120  2.39371E-01  3.62070E-01 -1.22699E-01
    8988.762     -8.685   0.160  2.46694E-01  3.72680E-01 -1.25985E-01
    8988.817     -8.630   0.200  2.56067E-01  3.86205E-01 -1.30138E-01
    8988.884     -8.563   0.240  2.67398E-01  4.02486E-01 -1.35088E-01
    8988.963     -8.484   0.280  2.80370E-01  4.21201E-01 -1.40831E-01
    8989.054     -8.393   0.320  2.94396E-01  4.41858E-01 -1.47462E-01
    8989.158     -8.289   0.360  3.08495E-01  4.63851E-01 -1.55356E-01
    8989.274     -8.173   0.400  3.21244E-01  4.86553E-01 -1.65309E-01
    8989.402     -8.045   0.440  3.30814E-01  5.09394E-01 -1.78579E-01
    8989.542     -7.905   0.480  3.35293E-01  5.31908E-01 -1.96615E-01
    8989.694     -7.753   0.520  3.33463E-01  5.53773E-01 -2.20310E-01
    8989.859     -7.588   0.560  3.25603E-01  5.74897E-01 -2.49294E-01
    8990.036     -7.411   0.600  3.13425E-01  5.95180E-01 -2.81755E-01
    8990.225     -7.222   0.640  2.99469E-01  6.14702E-01 -3.15233E-01
    8990.426     -7.021   0.680  2.85988E-01  6.33540E-01 -3.47552E-01
    8990.639     -6.808   0.720  2.74347E-01  6.51766E-01 -3.77419E-01
    8990.865     -6.582   0.760  2.65266E-01  6.69470E-01 -4.04204E-01
    8991.103     -6.344   0.800  2.59222E-01  6.86733E-01 -4.27511E-01
    8991.353     -6.094   0.840  2.56744E-01  7.03619E-01 -4.46875E-01
    8991.615     -5.832   0.880  2.58644E-01  7.20158E-01 -4.61515E-01
    8991.889     -5.558   0.920  2.65928E-01  7.36408E-01 -4.70481E-01
    8992.176     -5.272   0.960  2.79515E-01  7.52349E-01 -4.72835E-01
    8992.474     -4.973   1.000  3.00102E-01  7.67994E-01 -4.67892E-01
    8992.785     -4.662   1.040  3.27908E-01  7.83344E-01 -4.55436E-01
    8993.108     -4.339   1.080  3.62422E-01  7.98393E-01 -4.35971E-01
    8993.443     -4.004   1.120  4.02606E-01  8.13110E-01 -4.10504E-01
    8993.791     -3.656   1.160  4.47241E-01  8.27478E-01 -3.80236E-01
    8994.151     -3.296   1.200  4.96944E-01  8.41474E-01 -3.44531E-01
    8994.522     -2.925   1.240  5.55764E-01  8.55057E-01 -2.99293E-01
    8994.907     -2.541   1.280  6.21058E-01  8.68201E-01 -2.47143E-01
    8995.303     -2.144   1.320  6.73815E-01  8.80901E-01 -2.07086E-01
    8995.711     -1.736   1.360  7.04253E-01  8.93110E-01 -1.88857E-01
    8996.132     -1.315   1.400  7.37208E-01  9.04820E-01 -1.67612E-01
    8996.565     -0.882   1.440  7.96770E-01  9.15988E-01 -1.19219E-01
    8997.010     -0.437   1.480  8.67924E-01  9.26628E-01 -5.87039E-02
    8997.467      0.020   1.520  9.21445E-01  9.36695E-01 -1.52498E-02
    8997.936      0.489   1.560  9.53428E-01  9.46208E-01  7.22001E-03
    8998.418      0.971   1.600  9.72164E-01  9.55125E-01  1.70385E-02
    8998.912      1.465   1.640  1.00157E+00  9.63466E-01  3.81016E-02
    8999.418      1.970   1.680  1.07960E+00  9.71234E-01  1.08370E-01
    8999.936      2.489   1.720  1.23579E+00  9.78412E-01  2.57374E-01
    9000.466      3.019   1.760  1.45144E+00  9.85025E-01  4.66420E-01
    9001.009      3.562   1.800  1.59366E+00  9.91078E-01  6.02584E-01
    9001.563      4.116   1.840  1.55777E+00  9.96578E-01  5.61190E-01
    9002.130      4.683   1.880  1.46381E+00  1.00153E+00  4.62280E-01
    9002.709      5.262   1.920  1.39890E+00  1.00598E+00  3.92927E-01
    9003.301      5.854   1.960  1.35699E+00  1.00991E+00  3.47074E-01
    9003.904      6.457   2.000  1.32665E+00  1.01338E+00  3.13271E-01
    9004.520      7.073   2.040  1.29739E+00  1.01639E+00  2.81003E-01
    9005.148      7.701   2.080  1.25605E+00  1.01896E+00  2.37088E-01
    9005.788      8.341   2.120  1.20298E+00  1.02110E+00  1.81874E-01
    9006.440      8.993   2.160  1.15527E+00  1.02288E+00  1.32394E-01
    9007.105      9.658   2.200  1.12933E+00  1.02428E+00  1.05045E-01
    9007.781     10.334   2.240  1.12970E+00  1.02533E+00  1.04371E-01
    9008.470     11.023   2.280  1.14657E+00  1.02609E+00  1.20477E-01
    9009.171     11.724   2.320  1.16149E+00  1.02654E+00  1.34952E-01
    9009.884     12.437   2.360  1.16428E+00  1.02673E+00  1.37552E-01
    9010.610     13.163   2.400  1.15213E+00  1.02667E+00  1.25459E-01
    9011.347     13.900   2.440  1.12977E+00  1.02640E+00  1.03370E-01
    9012.097     14.650   2.480  1.10861E+00  1.02594E+00  8.26658E-02
    9012.859     15.412   2.520  1.09507E+00  1.02530E+00  6.97747E-02
    9013.633     16.186   2.560  1.08709E+00  1.02448E+00  6.26097E-02
    9014.420     16.973   2.600  1.07872E+00  1.02356E+00  5.51609E-02
    9015.218     17.771   2.640  1.06361E+00  1.02249E+00  4.11191E-02
    9016.029     18.582   2.680  1.03827E+00  1.02133E+00  1.69325E-02
    9016.852     19.405   2.720  1.00376E+00  1.02009E+00 -1.63267E-02
    9017.687     20.240   2.760  9.64689E-01  1.01879E+00 -5.41013E-02
    9018.535     21.087   2.800  9.25593E-01  1.01742E+00 -9.18305E-02
    9019.394     21.947   2.840  8.90450E-01  1.01603E+00 -1.25584E-01
    9020.266     22.819   2.880  8.61985E-01  1.01461E+00 -1.52626E-01
    9021.150     23.703   2.920  8.41831E-01  1.01318E+00 -1.71348E-01
    9022.046     24.599   2.960  8.30629E-01  1.01172E+00 -1.81095E-01
    9022.954     25.507   3.000  8.28283E-01  1.01029E+00 -1.82009E-01
    9023.875     26.428   3.040  8.33930E-01  1.00889E+00 -1.74960E-01
    9024.807     27.360   3.080  8.46263E-01  1.00750E+00 -1.61239E-01
    9025.752     28.305   3.120  8.63521E-01  1.00617E+00 -1.42650E-01
    9026.709     29.262   3.160  8.83242E-01  1.00486E+00 -1.21617E-01
    9027.678     30.231   3.200  9.02737E-01  1.00361E+00 -1.00875E-01
    9028.660     31.213   3.240  9.19423E-01  1.00239E+00 -8.29668E-02
    9029.654     32.207   3.280  9.31665E-01  1.00126E+00 -6.95933E-02
    9030.659     33.212   3.320  9.39494E-01  1.00018E+00 -6.06850E-02
    9031.677     34.230   3.360  9.44349E-01  9.99175E-01 -5.48259E-02
    9032.708     35.261   3.400  9.47866E-01  9.98247E-01 -5.03814E-02
    9033.750     36.303   3.440  9.51102E-01  9.97374E-01 -4.62725E-02
    9034.805     37.358   3.480  9.54721E-01  9.96579E-01 -4.18584E-02
    9035.871     38.424   3.520  9.58852E-01  9.95886E-01 -3.70344E-02
    9036.950     39.503   3.560  9.62908E-01  9.95252E-01 -3.23438E-02
    9038.042     40.595   3.600  9.66194E-01  9.94698E-01 -2.85039E-02
    9039.145     41.698   3.640  9.68461E-01  9.94246E-01 -2.57853E-02
    9040.261     42.814   3.680  9.70057E-01  9.93856E-01 -2.37988E-02
    9041.388     43.941   3.720  9.71577E-01  9.93565E-01 -2.19888E-02
    9042.528     45.081   3.760  9.73439E-01  9.93333E-01 -1.98942E-02
    9043.680     46.233   3.800  9.75924E-01  9.93180E-01 -1.72568E-02
    9044.845     47.398   3.840  9.79257E-01  9.93107E-01 -1.38502E-02
    9046.021     48.574   3.880  9.83716E-01  9.93133E-01 -9.41698E-03
    9047.210     49.763   3.920  9.89612E-01  9.93192E-01 -3.58065E-03
    9048.411     50.964   3.960  9.97319E-01  9.93348E-01  3.97055E-03
    9049.624     52.177   4.000  1.00689E+00  9.93560E-01  1.33263E-02
    9050.849     53.402   4.040  1.01787E+00  9.93845E-01  2.40285E-02
    9052.087     54.640   4.080  1.02949E+00  9.94201E-01  3.52839E-02
    9053.336     55.889   4.120  1.04100E+00  9.94605E-01  4.63924E-02
    9054.598     57.151   4.160  1.05199E+00  9.95055E-01  5.69339E-02
    9055.872     58.425   4.200  1.06217E+00  9.95550E-01  6.66237E-02
    9057.159     59.712   4.240  1.07142E+00  9.96110E-01  7.53123E-02
    9058.457     61.010   4.280  1.07982E+00  9.96710E-01  8.31095E-02
    9059.768     62.321   4.320  1.08770E+00  9.97329E-01  9.03680E-02
    9061.091     63.643   4.360  1.09513E+00  9.98005E-01  9.71262E-02
    9062.426     64.978   4.400  1.10133E+00  9.98697E-01  1.02636E-01
    9063.773     66.326   4.440  1.10488E+00  9.99423E-01  1.05454E-01
    9065.132     67.685   4.480  1.10436E+00  1.00018E+00  1.04182E-01
    9066.504     69.057   4.520  1.09910E+00  1.00094E+00  9.81566E-02
    9067.888     70.440   4.560  1.08961E+00  1.00171E+00  8.78958E-02
    9069.284     71.836   4.600  1.07718E+00  1.00248E+00  7.46990E-02
    9070.692     73.245   4.640  1.06349E+00  1.00327E+00  6.02125E-02
    9072.112     74.665   4.680  1.04967E+00  1.00404E+00  4.56251E-02
    9073.545     76.098   4.720  1.03600E+00  1.00483E+00  3.11708E-02
    9074.989     77.542   4.760  1.02193E+00  1.00559E+00  1.63379E-02
    9076.446     78.999   4.800  1.00701E+00  1.00632E+00  6.88498E-04
    9077.915     80.468   4.840  9.91441E-01  1.00707E+00 -1.56269E-02
    9079.397     81.950   4.880  9.75962E-01  1.00776E+00 -3.17953E-02
    9080.890     83.443   4.920  9.61987E-01  1.00846E+00 -4.64697E-02
    9082.396     84.949   4.960  9.51229E-01  1.00910E+00 -5.78679E-02
    9083.914     86.467   5.000  9.45693E-01  1.00972E+00 -6.40285E-02
    9085.444     87.997   5.040  9.46809E-01  1.01028E+00 -6.34749E-02
    9086.986     89.539   5.080  9.54903E-01  1.01083E+00 -5.59251E-02
    9088.541     91.094   5.120  9.68509E-01  1.01133E+00 -4.28234E-02
    9090.107     92.660   5.160  9.84822E-01  1.01179E+00 -2.69705E-02
    9091.686     94.239   5.200  1.00065E+00  1.01219E+00 -1.15382E-02
    9093.277     95.830   5.240  1.01325E+00  1.01256E+00  6.90717E-04
    9094.881     97.433   5.280  1.02045E+00  1.01286E+00  7.59209E-03
    9096.496     99.049   5.320  1.02093E+00  1.01311E+00  7.81594E-03
    9098.124    100.677   5.360  1.01443E+00  1.01330E+00  1.13151E-03
    9099.763    102.316   5.400  1.00208E+00  1.01344E+00 -1.13586E-02
    9101.415    103.968   5.440  9.86224E-01  1.01353E+00 -2.73034E-02
    9103.080    105.633   5.480  9.70010E-01  1.01357E+00 -4.35619E-02
    9104.756    107.309   5.520  9.56592E-01  1.01355E+00 -5.69556E-02
    9106.445    108.998   5.560  9.48276E-01  1.01348E+00 -6.52006E-02
    9108.145    110.698   5.600  9.45871E-01  1.01336E+00 -6.74873E-02
    9109.858    112.411   5.640  9.48639E-01  1.01317E+00 -6.45303E-02
    9111.583    114.136   5.680  9.54926E-01  1.01294E+00 -5.80104E-02
    9113.321    115.874   5.720  9.62695E-01  1.01266E+00 -4.99646E-02
    9115.070    117.623   5.760  9.69771E-01  1.01234E+00 -4.25679E-02
    9116.832    119.385   5.800  9.73969E-01  1.01195E+00 -3.79853E-02
    9118.606    121.159   5.840  9.74327E-01  1.01155E+00 -3.72243E-02
    9120.392    122.945   5.880  9.72380E-01  1.01109E+00 -3.87050E-02
    9122.190    124.743   5.920  9.72052E-01  1.01058E+00 -3.85328E-02
    9124.001    126.554   5.960  9.77151E-01  1.01008E+00 -3.29251E-02
    9125.824    128.377   6.000  9.90232E-01  1.00947E+00 -1.92401E-02
