# # comment:                                                     FEFF 9.9.1  
# # Source:
# # Structure
# # Reduced
# # space
# # abc:
# # angles:
# # sites:
# # POT  SCF 100  7.0000   0, screened core-hole, AFOLP (folp(0)= 1.150)
# # Abs   Z=29 Rmt= 1.302 Rnm= 1.366 K  shell
# # Pot 1 Z= 3 Rmt= 1.162 Rnm= 1.252
# # Pot 2 Z=29 Rmt= 1.282 Rnm= 1.340
# # Pot 3 Z= 5 Rmt= 0.774 Rnm= 0.988
# # Pot 4 Z= 8 Rmt= 0.926 Rnm= 1.049
# # Gam_ch=1.729E+00 H-L exch Vi= 0.000E+00 Vr= 0.000E+00
# # Mu=-6.416E+00eV kf=2.307E+00 Vint=-1.806E+01eV Rs_int= 1.572
# FMS rfms= 9.0000
# # PATH  Rmax=-1.000,  Keep_limit= 0.00, Heap_limit 0.00  Pwcrit= 2.50%
#  S02=0.950  Temp=   0.00  Debye_temp=   0.00  Global_sig2= 0.00000
#  Energy zero shift, vr, vi    0.00000E+00   0.00000E+00
#  Curved wave amplitude ratio filter   4.000%
#     file         sig2 tot  cw amp ratio   deg  nlegs   reff  inp sig2
#     0/   0 paths used
#  xsedge+ 50, used to normalize mu           2.4812E-04
#  -----------------------------------------------------------------------
#  omega    e    k    mu    mu0     chi     @#
    8983.935    -10.226  -1.000  5.40716E-02  5.67349E-02 -2.66333E-03
    8984.233     -9.927  -0.960  5.78099E-02  6.09725E-02 -3.16265E-03
    8984.520     -9.641  -0.920  6.19405E-02  6.56934E-02 -3.75288E-03
    8984.794     -9.366  -0.880  6.65191E-02  7.09699E-02 -4.45086E-03
    8985.056     -9.104  -0.840  7.16100E-02  7.68867E-02 -5.27667E-03
    8985.306     -8.854  -0.800  7.72874E-02  8.35416E-02 -6.25419E-03
    8985.544     -8.617  -0.760  8.36358E-02  9.10474E-02 -7.41155E-03
    8985.769     -8.391  -0.720  9.07502E-02  9.95316E-02 -8.78144E-03
    8985.983     -8.178  -0.680  9.87342E-02  1.09135E-01 -1.04008E-02
    8986.184     -7.976  -0.640  1.07697E-01  1.20006E-01 -1.23097E-02
    8986.373     -7.787  -0.600  1.17744E-01  1.32292E-01 -1.45483E-02
    8986.550     -7.611  -0.560  1.28968E-01  1.46119E-01 -1.71510E-02
    8986.714     -7.446  -0.520  1.41424E-01  1.61561E-01 -2.01374E-02
    8986.867     -7.294  -0.480  1.55106E-01  1.78605E-01 -2.34987E-02
    8987.007     -7.154  -0.440  1.69916E-01  1.97099E-01 -2.71837E-02
    8987.135     -7.025  -0.400  1.85632E-01  2.16719E-01 -3.10872E-02
    8987.251     -6.910  -0.360  2.01901E-01  2.36952E-01 -3.50514E-02
    8987.354     -6.806  -0.320  2.18245E-01  2.57130E-01 -3.88851E-02
    8987.446     -6.715  -0.280  2.34116E-01  2.76516E-01 -4.23994E-02
    8987.525     -6.635  -0.240  2.48953E-01  2.94399E-01 -4.54463E-02
    8987.592     -6.568  -0.200  2.62248E-01  3.10191E-01 -4.79429E-02
    8987.647     -6.513  -0.160  2.73590E-01  3.23462E-01 -4.98726E-02
    8987.690     -6.471  -0.120  2.82678E-01  3.33943E-01 -5.12649E-02
    8987.720     -6.440  -0.080  2.89314E-01  3.41487E-01 -5.21726E-02
    8987.745     -6.416   0.000  2.94750E-01  3.47543E-01 -5.27937E-02
    8987.799     -6.361   0.120  3.06601E-01  3.61181E-01 -5.45802E-02
    8987.842     -6.318   0.160  3.15951E-01  3.71775E-01 -5.58241E-02
    8987.897     -6.263   0.200  3.28035E-01  3.85267E-01 -5.72327E-02
    8987.964     -6.196   0.240  3.42807E-01  4.01451E-01 -5.86445E-02
    8988.043     -6.117   0.280  3.60082E-01  4.19972E-01 -5.98900E-02
    8988.135     -6.026   0.320  3.79524E-01  4.40318E-01 -6.07942E-02
    8988.238     -5.922   0.360  4.00554E-01  4.61859E-01 -6.13050E-02
    8988.354     -5.806   0.400  4.22383E-01  4.83903E-01 -6.15205E-02
    8988.482     -5.678   0.440  4.44098E-01  5.05844E-01 -6.17464E-02
    8988.622     -5.538   0.480  4.64740E-01  5.27191E-01 -6.24507E-02
    8988.775     -5.386   0.520  4.83501E-01  5.47666E-01 -6.41648E-02
    8988.939     -5.221   0.560  4.99687E-01  5.67112E-01 -6.74250E-02
    8989.116     -5.044   0.600  5.12727E-01  5.85477E-01 -7.27503E-02
    8989.305     -4.855   0.640  5.22338E-01  6.02874E-01 -8.05355E-02
    8989.506     -4.654   0.680  5.28572E-01  6.19353E-01 -9.07813E-02
    8989.720     -4.441   0.720  5.32240E-01  6.35068E-01 -1.02828E-01
    8989.945     -4.215   0.760  5.34854E-01  6.50149E-01 -1.15295E-01
    8990.183     -3.978   0.800  5.38133E-01  6.64653E-01 -1.26520E-01
    8990.433     -3.728   0.840  5.43546E-01  6.78710E-01 -1.35164E-01
    8990.695     -3.465   0.880  5.51985E-01  6.92410E-01 -1.40425E-01
    8990.969     -3.191   0.920  5.63662E-01  7.05766E-01 -1.42104E-01
    8991.256     -2.905   0.960  5.78514E-01  7.18862E-01 -1.40348E-01
    8991.554     -2.606   1.000  5.97243E-01  7.31708E-01 -1.34464E-01
    8991.865     -2.295   1.040  6.21634E-01  7.44361E-01 -1.22727E-01
    8992.188     -1.972   1.080  6.52509E-01  7.56815E-01 -1.04306E-01
    8992.524     -1.637   1.120  6.90117E-01  7.69073E-01 -7.89559E-02
    8992.871     -1.289   1.160  7.35317E-01  7.81131E-01 -4.58141E-02
    8993.231     -0.930   1.200  7.86135E-01  7.93021E-01 -6.88623E-03
    8993.603     -0.558   1.240  8.36503E-01  8.04694E-01  3.18095E-02
    8993.987     -0.174   1.280  8.85756E-01  8.16173E-01  6.95822E-02
    8994.383      0.223   1.320  9.43623E-01  8.27422E-01  1.16201E-01
    8994.791      0.631   1.360  1.01612E+00  8.38440E-01  1.77675E-01
    8995.212      1.052   1.400  1.09306E+00  8.49205E-01  2.43851E-01
    8995.645      1.484   1.440  1.16091E+00  8.59697E-01  3.01217E-01
    8996.090      1.929   1.480  1.21740E+00  8.69934E-01  3.47463E-01
    8996.547      2.387   1.520  1.26072E+00  8.79848E-01  3.80873E-01
    8997.016      2.856   1.560  1.28399E+00  8.89458E-01  3.94532E-01
    8997.498      3.338   1.600  1.28439E+00  8.98761E-01  3.85632E-01
    8997.992      3.831   1.640  1.26345E+00  9.07711E-01  3.55741E-01
    8998.498      4.337   1.680  1.22430E+00  9.16305E-01  3.07996E-01
    8999.016      4.856   1.720  1.16879E+00  9.24561E-01  2.44231E-01
    8999.546      5.386   1.760  1.11217E+00  9.32436E-01  1.79738E-01
    9000.089      5.928   1.800  1.08042E+00  9.39928E-01  1.40492E-01
    9000.644      6.483   1.840  1.07464E+00  9.47056E-01  1.27585E-01
    9001.211      7.050   1.880  1.06873E+00  9.53798E-01  1.14929E-01
    9001.790      7.629   1.920  1.05463E+00  9.60135E-01  9.44928E-02
    9002.381      8.221   1.960  1.04846E+00  9.66108E-01  8.23470E-02
    9002.984      8.824   2.000  1.05927E+00  9.71699E-01  8.75755E-02
    9003.600      9.440   2.040  1.07901E+00  9.76889E-01  1.02123E-01
    9004.228     10.068   2.080  1.10052E+00  9.81701E-01  1.18815E-01
    9004.868     10.708   2.120  1.12591E+00  9.86160E-01  1.39750E-01
    9005.520     11.360   2.160  1.15351E+00  9.90249E-01  1.63263E-01
    9006.185     12.024   2.200  1.17078E+00  9.93970E-01  1.76813E-01
    9006.861     12.701   2.240  1.16786E+00  9.97350E-01  1.70511E-01
    9007.550     13.390   2.280  1.14555E+00  1.00037E+00  1.45179E-01
    9008.251     14.091   2.320  1.10960E+00  1.00309E+00  1.06514E-01
    9008.965     14.804   2.360  1.06741E+00  1.00548E+00  6.19278E-02
    9009.690     15.530   2.400  1.02513E+00  1.00758E+00  1.75524E-02
    9010.428     16.267   2.440  9.86602E-01  1.00936E+00 -2.27623E-02
    9011.177     17.017   2.480  9.54579E-01  1.01089E+00 -5.63084E-02
    9011.939     17.779   2.520  9.29368E-01  1.01215E+00 -8.27868E-02
    9012.714     18.553   2.560  9.10449E-01  1.01317E+00 -1.02725E-01
    9013.500     19.340   2.600  8.96926E-01  1.01395E+00 -1.17026E-01
    9014.299     20.138   2.640  8.84489E-01  1.01450E+00 -1.30007E-01
    9015.109     20.949   2.680  8.69463E-01  1.01485E+00 -1.45390E-01
    9015.932     21.772   2.720  8.61665E-01  1.01501E+00 -1.53347E-01
    9016.767     22.607   2.760  8.62965E-01  1.01498E+00 -1.52013E-01
    9017.615     23.454   2.800  8.69174E-01  1.01480E+00 -1.45626E-01
    9018.474     24.314   2.840  8.77254E-01  1.01446E+00 -1.37210E-01
    9019.346     25.186   2.880  8.86006E-01  1.01400E+00 -1.27993E-01
    9020.230     26.070   2.920  8.94989E-01  1.01341E+00 -1.18421E-01
    9021.126     26.966   2.960  9.04131E-01  1.01270E+00 -1.08571E-01
    9022.034     27.874   3.000  9.13771E-01  1.01190E+00 -9.81331E-02
    9022.955     28.794   3.040  9.24167E-01  1.01102E+00 -8.68538E-02
    9023.888     29.727   3.080  9.35349E-01  1.01006E+00 -7.47086E-02
    9024.832     30.672   3.120  9.47166E-01  1.00902E+00 -6.18520E-02
    9025.789     31.629   3.160  9.59190E-01  1.00793E+00 -4.87409E-02
    9026.759     32.598   3.200  9.70802E-01  1.00680E+00 -3.59980E-02
    9027.740     33.580   3.240  9.81686E-01  1.00565E+00 -2.39669E-02
    9028.734     34.573   3.280  9.91468E-01  1.00445E+00 -1.29831E-02
    9029.740     35.579   3.320  9.99892E-01  1.00326E+00 -3.36732E-03
    9030.758     36.597   3.360  1.00662E+00  1.00204E+00  4.57723E-03
    9031.788     37.628   3.400  1.01148E+00  1.00082E+00  1.06550E-02
    9032.830     38.670   3.440  1.01457E+00  9.99626E-01  1.49398E-02
    9033.885     39.725   3.480  1.01629E+00  9.98435E-01  1.78526E-02
    9034.952     40.791   3.520  1.01719E+00  9.97251E-01  1.99411E-02
    9036.031     41.870   3.560  1.01775E+00  9.96098E-01  2.16506E-02
    9037.122     42.962   3.600  1.01832E+00  9.94981E-01  2.33343E-02
    9038.225     44.065   3.640  1.01917E+00  9.93899E-01  2.52669E-02
    9039.341     45.180   3.680  1.02057E+00  9.92835E-01  2.77342E-02
    9040.469     46.308   3.720  1.02281E+00  9.91831E-01  3.09829E-02
    9041.609     47.448   3.760  1.02602E+00  9.90871E-01  3.51446E-02
    9042.761     48.600   3.800  1.03008E+00  9.89954E-01  4.01240E-02
    9043.925     49.765   3.840  1.03464E+00  9.89104E-01  4.55316E-02
    9045.102     50.941   3.880  1.03908E+00  9.88300E-01  5.07846E-02
    9046.290     52.130   3.920  1.04277E+00  9.87541E-01  5.52296E-02
    9047.491     53.331   3.960  1.04509E+00  9.86851E-01  5.82401E-02
    9048.704     54.544   4.000  1.04552E+00  9.86210E-01  5.93060E-02
    9049.930     55.769   4.040  1.04388E+00  9.85638E-01  5.82386E-02
    9051.167     57.007   4.080  1.04024E+00  9.85115E-01  5.51210E-02
    9052.417     58.256   4.120  1.03497E+00  9.84662E-01  5.03113E-02
    9053.679     59.518   4.160  1.02858E+00  9.84258E-01  4.43217E-02
    9054.953     60.792   4.200  1.02152E+00  9.83925E-01  3.75981E-02
    9056.239     62.078   4.240  1.01403E+00  9.83662E-01  3.03629E-02
    9057.537     63.377   4.280  1.00610E+00  9.83427E-01  2.26781E-02
    9058.848     64.688   4.320  9.97891E-01  9.83279E-01  1.46115E-02
    9060.171     66.010   4.360  9.89534E-01  9.83158E-01  6.37653E-03
    9061.506     67.345   4.400  9.81513E-01  9.83105E-01 -1.59178E-03
    9062.853     68.693   4.440  9.74396E-01  9.83118E-01 -8.72211E-03
    9064.212     70.052   4.480  9.68643E-01  9.83154E-01 -1.45116E-02
    9065.584     71.424   4.520  9.64590E-01  9.83254E-01 -1.86642E-02
    9066.968     72.807   4.560  9.62268E-01  9.83397E-01 -2.11287E-02
    9068.364     74.203   4.600  9.61539E-01  9.83581E-01 -2.20422E-02
    9069.772     75.612   4.640  9.62174E-01  9.83804E-01 -2.16307E-02
    9071.192     77.032   4.680  9.63886E-01  9.84065E-01 -2.01783E-02
    9072.625     78.464   4.720  9.66272E-01  9.84362E-01 -1.80900E-02
    9074.070     79.909   4.760  9.68872E-01  9.84672E-01 -1.58003E-02
    9075.527     81.366   4.800  9.71347E-01  9.85016E-01 -1.36693E-02
    9076.996     82.835   4.840  9.73490E-01  9.85396E-01 -1.19061E-02
    9078.477     84.317   4.880  9.75233E-01  9.85807E-01 -1.05740E-02
    9079.971     85.810   4.920  9.76581E-01  9.86225E-01 -9.64384E-03
    9081.476     87.316   4.960  9.77593E-01  9.86650E-01 -9.05718E-03
    9082.994     88.834   5.000  9.78393E-01  9.87101E-01 -8.70760E-03
    9084.524     90.364   5.040  9.79050E-01  9.87555E-01 -8.50563E-03
    9086.066     91.906   5.080  9.79576E-01  9.88009E-01 -8.43237E-03
    9087.621     93.461   5.120  9.79911E-01  9.88440E-01 -8.52847E-03
    9089.188     95.027   5.160  9.80061E-01  9.88892E-01 -8.83136E-03
    9090.766     96.606   5.200  9.80068E-01  9.89344E-01 -9.27640E-03
    9092.358     98.197   5.240  9.80025E-01  9.89791E-01 -9.76655E-03
    9093.961     99.800   5.280  9.79883E-01  9.90209E-01 -1.03259E-02
    9095.576    101.416   5.320  9.79399E-01  9.90618E-01 -1.12196E-02
    9097.204    103.043   5.360  9.78116E-01  9.90998E-01 -1.28812E-02
    9098.844    104.683   5.400  9.75737E-01  9.91366E-01 -1.56293E-02
    9100.496    106.335   5.440  9.72371E-01  9.91701E-01 -1.93306E-02
    9102.160    107.999   5.480  9.68747E-01  9.92025E-01 -2.32785E-02
    9103.836    109.676   5.520  9.65898E-01  9.92315E-01 -2.64175E-02
    9105.525    111.364   5.560  9.64806E-01  9.92567E-01 -2.77608E-02
    9107.226    113.065   5.600  9.66058E-01  9.92781E-01 -2.67230E-02
    9108.939    114.778   5.640  9.69768E-01  9.92980E-01 -2.32124E-02
    9110.664    116.503   5.680  9.75566E-01  9.93119E-01 -1.75533E-02
    9112.401    118.241   5.720  9.82875E-01  9.93241E-01 -1.03656E-02
    9114.151    119.990   5.760  9.90861E-01  9.93324E-01 -2.46256E-03
    9115.912    121.752   5.800  9.98563E-01  9.93343E-01  5.21971E-03
    9117.686    123.526   5.840  1.00510E+00  9.93344E-01  1.17574E-02
    9119.472    125.312   5.880  1.00974E+00  9.93283E-01  1.64579E-02
    9121.271    127.110   5.920  1.01228E+00  9.93205E-01  1.90721E-02
    9123.081    128.921   5.960  1.01287E+00  9.93059E-01  1.98076E-02
    9124.904    130.744   6.000  1.01204E+00  9.92873E-01  1.91672E-02
