# # comment:                                                     FEFF 9.9.1  
# # Source:
# # Structure
# # Reduced
# # space
# # abc:
# # angles:
# # sites:
# # POT  SCF 100  7.0000   0, screened core-hole, AFOLP (folp(0)= 1.150)
# # Abs   Z=29 Rmt= 1.239 Rnm= 1.357 K  shell
# # Pot 1 Z=29 Rmt= 1.287 Rnm= 1.367
# # Pot 2 Z= 1 Rmt= 0.705 Rnm= 0.846
# # Pot 3 Z=17 Rmt= 1.120 Rnm= 1.404
# # Pot 4 Z= 8 Rmt= 1.022 Rnm= 1.144
# # Gam_ch=1.729E+00 H-L exch Vi= 0.000E+00 Vr= 0.000E+00
# # Mu=-5.809E+00eV kf=2.036E+00 Vint=-1.346E+01eV Rs_int= 1.781
# FMS rfms= 9.0000
# # PATH  Rmax=-1.000,  Keep_limit= 0.00, Heap_limit 0.00  Pwcrit= 2.50%
#  S02=0.950  Temp=   0.00  Debye_temp=   0.00  Global_sig2= 0.00000
#  Energy zero shift, vr, vi    0.00000E+00   0.00000E+00
#  Curved wave amplitude ratio filter   4.000%
#     file         sig2 tot  cw amp ratio   deg  nlegs   reff  inp sig2
#     0/   0 paths used
#  xsedge+ 50, used to normalize mu           2.4291E-04
#  -----------------------------------------------------------------------
#  omega    e    k    mu    mu0     chi     @#
    8983.328     -9.619  -1.000  4.26259E-02  5.93407E-02 -1.67148E-02
    8983.626     -9.320  -0.960  4.49400E-02  6.37731E-02 -1.88331E-02
    8983.913     -9.034  -0.920  4.74227E-02  6.87048E-02 -2.12821E-02
    8984.187     -8.760  -0.880  5.00891E-02  7.42095E-02 -2.41204E-02
    8984.449     -8.497  -0.840  5.29555E-02  8.03729E-02 -2.74173E-02
    8984.699     -8.248  -0.800  5.60395E-02  8.72941E-02 -3.12547E-02
    8984.937     -8.010  -0.760  5.93596E-02  9.50871E-02 -3.57275E-02
    8985.163     -7.784  -0.720  6.29355E-02  1.03880E-01 -4.09448E-02
    8985.376     -7.571  -0.680  6.67867E-02  1.13815E-01 -4.70287E-02
    8985.577     -7.370  -0.640  7.09314E-02  1.25042E-01 -5.41102E-02
    8985.766     -7.181  -0.600  7.53844E-02  1.37705E-01 -6.23211E-02
    8985.943     -7.004  -0.560  8.01537E-02  1.51932E-01 -7.17785E-02
    8986.107     -6.839  -0.520  8.52350E-02  1.67796E-01 -8.25612E-02
    8986.260     -6.687  -0.480  9.06051E-02  1.85281E-01 -9.46761E-02
    8986.400     -6.547  -0.440  9.62143E-02  2.04234E-01 -1.08020E-01
    8986.528     -6.419  -0.400  1.01980E-01  2.24325E-01 -1.22344E-01
    8986.644     -6.303  -0.360  1.07786E-01  2.45035E-01 -1.37249E-01
    8986.748     -6.199  -0.320  1.13486E-01  2.65692E-01 -1.52206E-01
    8986.839     -6.108  -0.280  1.18921E-01  2.85547E-01 -1.66626E-01
    8986.918     -6.029  -0.240  1.23936E-01  3.03880E-01 -1.79944E-01
    8986.985     -5.962  -0.200  1.28392E-01  3.20086E-01 -1.91694E-01
    8987.040     -5.907  -0.160  1.32178E-01  3.33723E-01 -2.01545E-01
    8987.083     -5.864  -0.120  1.35209E-01  3.44506E-01 -2.09297E-01
    8987.113     -5.834  -0.080  1.37423E-01  3.52275E-01 -2.14852E-01
    8987.138     -5.809   0.000  1.39244E-01  3.58519E-01 -2.19275E-01
    8987.193     -5.754   0.120  1.43432E-01  3.72591E-01 -2.29159E-01
    8987.235     -5.712   0.160  1.46680E-01  3.83541E-01 -2.36861E-01
    8987.290     -5.657   0.200  1.50878E-01  3.97513E-01 -2.46635E-01
    8987.357     -5.590   0.240  1.56089E-01  4.14346E-01 -2.58257E-01
    8987.436     -5.510   0.280  1.62377E-01  4.33693E-01 -2.71317E-01
    8987.528     -5.419   0.320  1.69809E-01  4.55055E-01 -2.85245E-01
    8987.631     -5.315   0.360  1.78529E-01  4.77832E-01 -2.99303E-01
    8987.747     -5.200   0.400  1.88792E-01  5.01385E-01 -3.12593E-01
    8987.875     -5.072   0.440  2.00880E-01  5.25068E-01 -3.24188E-01
    8988.016     -4.931   0.480  2.15336E-01  5.48445E-01 -3.33110E-01
    8988.168     -4.779   0.520  2.32829E-01  5.71205E-01 -3.38376E-01
    8988.333     -4.614   0.560  2.54250E-01  5.93185E-01 -3.38936E-01
    8988.509     -4.438   0.600  2.80650E-01  6.14305E-01 -3.33655E-01
    8988.698     -4.249   0.640  3.13188E-01  6.34637E-01 -3.21450E-01
    8988.899     -4.047   0.680  3.52395E-01  6.54238E-01 -3.01842E-01
    8989.113     -3.834   0.720  3.97304E-01  6.73173E-01 -2.75869E-01
    8989.338     -3.608   0.760  4.44619E-01  6.91530E-01 -2.46911E-01
    8989.576     -3.371   0.800  4.89321E-01  7.09384E-01 -2.20063E-01
    8989.826     -3.121   0.840  5.27502E-01  7.26755E-01 -1.99253E-01
    8990.088     -2.859   0.880  5.59333E-01  7.43711E-01 -1.84378E-01
    8990.362     -2.584   0.920  5.88132E-01  7.60240E-01 -1.72108E-01
    8990.649     -2.298   0.960  6.16796E-01  7.76362E-01 -1.59566E-01
    8990.948     -1.999   1.000  6.45333E-01  7.92084E-01 -1.46750E-01
    8991.259     -1.688   1.040  6.70226E-01  8.07362E-01 -1.37137E-01
    8991.582     -1.365   1.080  6.86580E-01  8.22211E-01 -1.35631E-01
    8991.917     -1.030   1.120  6.92359E-01  8.36574E-01 -1.44215E-01
    8992.264     -0.682   1.160  6.85877E-01  8.50455E-01 -1.64578E-01
    8992.624     -0.323   1.200  6.64776E-01  8.63834E-01 -1.99057E-01
    8992.996      0.049   1.240  6.33746E-01  8.76645E-01 -2.42899E-01
    8993.380      0.433   1.280  6.04877E-01  8.88886E-01 -2.84009E-01
    8993.776      0.829   1.320  5.89826E-01  9.00556E-01 -3.10730E-01
    8994.185      1.238   1.360  5.94479E-01  9.11610E-01 -3.17131E-01
    8994.605      1.658   1.400  6.20160E-01  9.22048E-01 -3.01888E-01
    8995.038      2.091   1.440  6.67363E-01  9.31848E-01 -2.64486E-01
    8995.483      2.536   1.480  7.32906E-01  9.41013E-01 -2.08107E-01
    8995.940      2.993   1.520  8.07433E-01  9.49545E-01 -1.42112E-01
    8996.410      3.463   1.560  8.84355E-01  9.57446E-01 -7.30908E-02
    8996.891      3.944   1.600  9.65882E-01  9.64705E-01  1.17655E-03
    8997.385      4.438   1.640  1.05142E+00  9.71348E-01  8.00725E-02
    8997.891      4.944   1.680  1.13066E+00  9.77385E-01  1.53271E-01
    8998.409      5.462   1.720  1.19656E+00  9.82848E-01  2.13714E-01
    8998.939      5.993   1.760  1.25280E+00  9.87746E-01  2.65057E-01
    8999.482      6.535   1.800  1.31114E+00  9.92093E-01  3.19048E-01
    9000.037      7.090   1.840  1.38117E+00  9.95923E-01  3.85248E-01
    9000.604      7.657   1.880  1.45985E+00  9.99249E-01  4.60602E-01
    9001.183      8.236   1.920  1.52513E+00  1.00211E+00  5.23026E-01
    9001.774      8.827   1.960  1.53978E+00  1.00453E+00  5.35251E-01
    9002.378      9.431   2.000  1.49119E+00  1.00656E+00  4.84627E-01
    9002.993     10.046   2.040  1.41016E+00  1.00819E+00  4.01971E-01
    9003.621     10.674   2.080  1.33270E+00  1.00949E+00  3.23213E-01
    9004.261     11.314   2.120  1.27204E+00  1.01044E+00  2.61606E-01
    9004.914     11.967   2.160  1.22353E+00  1.01111E+00  2.12422E-01
    9005.578     12.631   2.200  1.17688E+00  1.01152E+00  1.65357E-01
    9006.255     13.308   2.240  1.12681E+00  1.01169E+00  1.15124E-01
    9006.944     13.997   2.280  1.07886E+00  1.01162E+00  6.72458E-02
    9007.645     14.698   2.320  1.04501E+00  1.01139E+00  3.36228E-02
    9008.358     15.411   2.360  1.03287E+00  1.01097E+00  2.19025E-02
    9009.083     16.136   2.400  1.03805E+00  1.01043E+00  2.76154E-02
    9009.821     16.874   2.440  1.04679E+00  1.00976E+00  3.70367E-02
    9010.571     17.624   2.480  1.04582E+00  1.00898E+00  3.68364E-02
    9011.333     18.386   2.520  1.03610E+00  1.00815E+00  2.79506E-02
    9012.107     19.160   2.560  1.02189E+00  1.00724E+00  1.46498E-02
    9012.893     19.946   2.600  1.00686E+00  1.00626E+00  5.93544E-04
    9013.692     20.745   2.640  9.93717E-01  1.00529E+00 -1.15705E-02
    9014.503     21.556   2.680  9.83147E-01  1.00428E+00 -2.11341E-02
    9015.325     22.379   2.720  9.74531E-01  1.00325E+00 -2.87207E-02
    9016.161     23.214   2.760  9.66349E-01  1.00227E+00 -3.59176E-02
    9017.008     24.061   2.800  9.57266E-01  1.00127E+00 -4.40027E-02
    9017.867     24.921   2.840  9.46820E-01  1.00033E+00 -5.35047E-02
    9018.739     25.792   2.880  9.35027E-01  9.99401E-01 -6.43736E-02
    9019.623     26.676   2.920  9.22577E-01  9.98538E-01 -7.59617E-02
    9020.519     27.572   2.960  9.10579E-01  9.97722E-01 -8.71429E-02
    9021.428     28.481   3.000  8.99909E-01  9.96977E-01 -9.70674E-02
    9022.348     29.401   3.040  8.91176E-01  9.96283E-01 -1.05107E-01
    9023.281     30.334   3.080  8.84914E-01  9.95665E-01 -1.10751E-01
    9024.226     31.279   3.120  8.80772E-01  9.95125E-01 -1.14353E-01
    9025.183     32.236   3.160  8.78194E-01  9.94665E-01 -1.16472E-01
    9026.152     33.205   3.200  8.76809E-01  9.94284E-01 -1.17475E-01
    9027.133     34.187   3.240  8.76528E-01  9.93983E-01 -1.17455E-01
    9028.127     35.180   3.280  8.77437E-01  9.93763E-01 -1.16327E-01
    9029.133     36.186   3.320  8.79741E-01  9.93605E-01 -1.13863E-01
    9030.151     37.204   3.360  8.83774E-01  9.93571E-01 -1.09797E-01
    9031.181     38.234   3.400  8.89449E-01  9.93598E-01 -1.04149E-01
    9032.224     39.277   3.440  8.96725E-01  9.93704E-01 -9.69793E-02
    9033.278     40.331   3.480  9.05452E-01  9.93893E-01 -8.84404E-02
    9034.345     41.398   3.520  9.15332E-01  9.94162E-01 -7.88294E-02
    9035.424     42.477   3.560  9.25977E-01  9.94509E-01 -6.85325E-02
    9036.515     43.568   3.600  9.37148E-01  9.94936E-01 -5.77879E-02
    9037.618     44.672   3.640  9.48683E-01  9.95440E-01 -4.67568E-02
    9038.734     45.787   3.680  9.60431E-01  9.95996E-01 -3.55653E-02
    9039.862     46.915   3.720  9.72381E-01  9.96627E-01 -2.42453E-02
    9041.002     48.055   3.760  9.84595E-01  9.97329E-01 -1.27340E-02
    9042.154     49.207   3.800  9.97072E-01  9.98080E-01 -1.00800E-03
    9043.318     50.371   3.840  1.00984E+00  9.98876E-01  1.09614E-02
    9044.495     51.548   3.880  1.02293E+00  9.99736E-01  2.31925E-02
    9045.683     52.737   3.920  1.03615E+00  1.00062E+00  3.55349E-02
    9046.884     53.938   3.960  1.04928E+00  1.00156E+00  4.77176E-02
    9048.097     55.151   4.000  1.06197E+00  1.00252E+00  5.94522E-02
    9049.323     56.376   4.040  1.07402E+00  1.00351E+00  7.05176E-02
    9050.560     57.613   4.080  1.08524E+00  1.00453E+00  8.07089E-02
    9051.810     58.863   4.120  1.09534E+00  1.00556E+00  8.97778E-02
    9053.072     60.125   4.160  1.10400E+00  1.00659E+00  9.74052E-02
    9054.346     61.399   4.200  1.11081E+00  1.00765E+00  1.03156E-01
    9055.632     62.685   4.240  1.11529E+00  1.00869E+00  1.06602E-01
    9056.931     63.984   4.280  1.11719E+00  1.00974E+00  1.07447E-01
    9058.241     65.294   4.320  1.11625E+00  1.01077E+00  1.05475E-01
    9059.564     66.617   4.360  1.11234E+00  1.01180E+00  1.00544E-01
    9060.899     67.952   4.400  1.10552E+00  1.01281E+00  9.27087E-02
    9062.246     69.299   4.440  1.09610E+00  1.01379E+00  8.23107E-02
    9063.606     70.659   4.480  1.08470E+00  1.01473E+00  6.99680E-02
    9064.977     72.030   4.520  1.07217E+00  1.01566E+00  5.65180E-02
    9066.361     73.414   4.560  1.05942E+00  1.01652E+00  4.29029E-02
    9067.757     74.810   4.600  1.04733E+00  1.01736E+00  2.99742E-02
    9069.165     76.218   4.640  1.03647E+00  1.01813E+00  1.83348E-02
    9070.585     77.639   4.680  1.02711E+00  1.01886E+00  8.24187E-03
    9072.018     79.071   4.720  1.01911E+00  1.01955E+00 -4.40232E-04
    9073.463     80.516   4.760  1.01211E+00  1.02018E+00 -8.07447E-03
    9074.920     81.973   4.800  1.00570E+00  1.02075E+00 -1.50497E-02
    9076.389     83.442   4.840  9.99636E-01  1.02126E+00 -2.16235E-02
    9077.870     84.923   4.880  9.93880E-01  1.02172E+00 -2.78421E-02
    9079.364     86.417   4.920  9.88401E-01  1.02209E+00 -3.36862E-02
    9080.869     87.923   4.960  9.83276E-01  1.02242E+00 -3.91440E-02
    9082.387     89.440   5.000  9.78536E-01  1.02266E+00 -4.41192E-02
    9083.917     90.971   5.040  9.74472E-01  1.02284E+00 -4.83662E-02
    9085.460     92.513   5.080  9.71459E-01  1.02297E+00 -5.15101E-02
    9087.014     94.067   5.120  9.69759E-01  1.02302E+00 -5.32638E-02
    9088.581     95.634   5.160  9.69504E-01  1.02300E+00 -5.34954E-02
    9090.160     97.213   5.200  9.70756E-01  1.02290E+00 -5.21455E-02
    9091.751     98.804   5.240  9.73623E-01  1.02277E+00 -4.91511E-02
    9093.354    100.407   5.280  9.78155E-01  1.02255E+00 -4.43953E-02
    9094.969    102.023   5.320  9.84398E-01  1.02228E+00 -3.78772E-02
    9096.597    103.650   5.360  9.92108E-01  1.02195E+00 -2.98442E-02
    9098.237    105.290   5.400  1.00055E+00  1.02156E+00 -2.10118E-02
    9099.889    106.942   5.440  1.00868E+00  1.02114E+00 -1.24629E-02
    9101.553    108.606   5.480  1.01517E+00  1.02063E+00 -5.46498E-03
    9103.229    110.283   5.520  1.01890E+00  1.02010E+00 -1.20453E-03
    9104.918    111.971   5.560  1.01908E+00  1.01953E+00 -4.44371E-04
    9106.619    113.672   5.600  1.01571E+00  1.01889E+00 -3.18326E-03
    9108.332    115.385   5.640  1.00963E+00  1.01824E+00 -8.61123E-03
    9110.057    117.110   5.680  1.00211E+00  1.01755E+00 -1.54328E-02
    9111.794    118.847   5.720  9.94563E-01  1.01682E+00 -2.22556E-02
    9113.544    120.597   5.760  9.88224E-01  1.01608E+00 -2.78596E-02
    9115.306    122.359   5.800  9.83894E-01  1.01532E+00 -3.14217E-02
    9117.079    124.133   5.840  9.81897E-01  1.01452E+00 -3.26216E-02
    9118.866    125.919   5.880  9.82100E-01  1.01372E+00 -3.16205E-02
    9120.664    127.717   5.920  9.84112E-01  1.01293E+00 -2.88170E-02
    9122.474    129.528   5.960  9.87599E-01  1.01213E+00 -2.45268E-02
    9124.297    131.350   6.000  9.92823E-01  1.01134E+00 -1.85195E-02
