# # comment:                                                     FEFF 9.9.1  
# # Source:
# # Structure
# # Reduced
# # space
# # abc:
# # angles:
# # sites:
# # POT  SCF 100  7.0000   0, screened core-hole, AFOLP (folp(0)= 1.150)
# # Abs   Z=29 Rmt= 1.173 Rnm= 1.288 K  shell
# # Pot 1 Z=56 Rmt= 1.981 Rnm= 2.022
# # Pot 2 Z=62 Rmt= 1.575 Rnm= 1.657
# # Pot 3 Z=29 Rmt= 1.173 Rnm= 1.288
# # Pot 4 Z= 8 Rmt= 1.057 Rnm= 1.113
# # Gam_ch=1.729E+00 H-L exch Vi= 0.000E+00 Vr= 0.000E+00
# # Mu=-8.915E+00eV kf=1.997E+00 Vint=-1.775E+01eV Rs_int= 1.816
# FMS rfms= 9.0000
# # PATH  Rmax=-1.000,  Keep_limit= 0.00, Heap_limit 0.00  Pwcrit= 2.50%
#  S02=0.950  Temp=   0.00  Debye_temp=   0.00  Global_sig2= 0.00000
#  Energy zero shift, vr, vi    0.00000E+00   0.00000E+00
#  Curved wave amplitude ratio filter   4.000%
#     file         sig2 tot  cw amp ratio   deg  nlegs   reff  inp sig2
#     0/   0 paths used
#  xsedge+ 50, used to normalize mu           2.4567E-04
#  -----------------------------------------------------------------------
#  omega    e    k    mu    mu0     chi     @#
    8984.977    -12.725  -1.000  3.59397E-02  5.50185E-02 -1.90789E-02
    8985.275    -12.427  -0.960  3.77280E-02  5.90282E-02 -2.13001E-02
    8985.562    -12.140  -0.920  3.96541E-02  6.34840E-02 -2.38300E-02
    8985.836    -11.866  -0.880  4.17355E-02  6.84517E-02 -2.67162E-02
    8986.098    -11.604  -0.840  4.39935E-02  7.40077E-02 -3.00142E-02
    8986.348    -11.354  -0.800  4.64529E-02  8.02404E-02 -3.37874E-02
    8986.586    -11.116  -0.760  4.91432E-02  8.72514E-02 -3.81083E-02
    8986.812    -10.891  -0.720  5.20981E-02  9.51556E-02 -4.30575E-02
    8987.025    -10.677  -0.680  5.53557E-02  1.04079E-01 -4.87235E-02
    8987.226    -10.476  -0.640  5.89572E-02  1.14156E-01 -5.51985E-02
    8987.415    -10.287  -0.600  6.29432E-02  1.25516E-01 -6.25727E-02
    8987.592    -10.110  -0.560  6.73479E-02  1.38272E-01 -7.09236E-02
    8987.756     -9.946  -0.520  7.21895E-02  1.52489E-01 -8.02995E-02
    8987.909     -9.793  -0.480  7.74560E-02  1.68154E-01 -9.06976E-02
    8988.049     -9.653  -0.440  8.30897E-02  1.85128E-01 -1.02038E-01
    8988.177     -9.525  -0.400  8.89740E-02  2.03116E-01 -1.14142E-01
    8988.293     -9.409  -0.360  9.49322E-02  2.21654E-01 -1.26722E-01
    8988.397     -9.306  -0.320  1.00743E-01  2.40139E-01 -1.39396E-01
    8988.488     -9.214  -0.280  1.06175E-01  2.57902E-01 -1.51727E-01
    8988.567     -9.135  -0.240  1.11027E-01  2.74299E-01 -1.63272E-01
    8988.634     -9.068  -0.200  1.15159E-01  2.88790E-01 -1.73631E-01
    8988.689     -9.013  -0.160  1.18500E-01  3.00980E-01 -1.82480E-01
    8988.732     -8.970  -0.120  1.21036E-01  3.10617E-01 -1.89581E-01
    8988.762     -8.940  -0.080  1.22789E-01  3.17561E-01 -1.94772E-01
    8988.787     -8.915   0.000  1.24120E-01  3.23140E-01 -1.99020E-01
    8988.842     -8.861   0.120  1.27409E-01  3.35726E-01 -2.08317E-01
    8988.884     -8.818   0.160  1.29784E-01  3.45501E-01 -2.15717E-01
    8988.939     -8.763   0.200  1.32606E-01  3.57978E-01 -2.25372E-01
    8989.006     -8.696   0.240  1.35699E-01  3.72990E-01 -2.37291E-01
    8989.085     -8.617   0.280  1.38820E-01  3.90238E-01 -2.51418E-01
    8989.177     -8.525   0.320  1.41737E-01  4.09287E-01 -2.67550E-01
    8989.280     -8.422   0.360  1.44283E-01  4.29573E-01 -2.85290E-01
    8989.396     -8.306   0.400  1.46468E-01  4.50519E-01 -3.04051E-01
    8989.524     -8.178   0.440  1.48524E-01  4.71578E-01 -3.23055E-01
    8989.665     -8.038   0.480  1.50883E-01  4.92342E-01 -3.41458E-01
    8989.817     -7.885   0.520  1.54145E-01  5.12550E-01 -3.58405E-01
    8989.982     -7.721   0.560  1.58869E-01  5.32042E-01 -3.73173E-01
    8990.158     -7.544   0.600  1.65530E-01  5.50827E-01 -3.85296E-01
    8990.347     -7.355   0.640  1.74356E-01  5.68920E-01 -3.94564E-01
    8990.548     -7.154   0.680  1.85224E-01  5.86416E-01 -4.01191E-01
    8990.762     -6.940   0.720  1.97622E-01  6.03402E-01 -4.05780E-01
    8990.987     -6.715   0.760  2.10916E-01  6.19945E-01 -4.09030E-01
    8991.225     -6.477   0.800  2.25030E-01  6.36162E-01 -4.11132E-01
    8991.475     -6.227   0.840  2.40938E-01  6.52096E-01 -4.11158E-01
    8991.737     -5.965   0.880  2.60815E-01  6.67796E-01 -4.06981E-01
    8992.011     -5.691   0.920  2.87230E-01  6.83298E-01 -3.96068E-01
    8992.298     -5.404   0.960  3.22174E-01  6.98625E-01 -3.76450E-01
    8992.597     -5.105   1.000  3.66461E-01  7.13788E-01 -3.47327E-01
    8992.908     -4.795   1.040  4.18872E-01  7.28793E-01 -3.09921E-01
    8993.231     -4.471   1.080  4.73739E-01  7.43595E-01 -2.69857E-01
    8993.566     -4.136   1.120  5.20663E-01  7.58222E-01 -2.37559E-01
    8993.913     -3.789   1.160  5.52745E-01  7.72660E-01 -2.19915E-01
    8994.273     -3.429   1.200  5.72659E-01  7.86848E-01 -2.14189E-01
    8994.645     -3.057   1.240  5.85687E-01  8.00782E-01 -2.15094E-01
    8995.029     -2.673   1.280  5.94235E-01  8.14439E-01 -2.20204E-01
    8995.425     -2.277   1.320  6.02472E-01  8.27770E-01 -2.25298E-01
    8995.834     -1.868   1.360  6.19852E-01  8.40790E-01 -2.20939E-01
    8996.254     -1.448   1.400  6.52399E-01  8.53428E-01 -2.01029E-01
    8996.687     -1.015   1.440  6.99727E-01  8.65676E-01 -1.65949E-01
    8997.132     -0.570   1.480  7.41004E-01  8.77506E-01 -1.36502E-01
    8997.589     -0.113   1.520  7.42086E-01  8.88909E-01 -1.46823E-01
    8998.059      0.357   1.560  7.27781E-01  8.99860E-01 -1.72078E-01
    8998.540      0.838   1.600  7.55457E-01  9.10330E-01 -1.54874E-01
    8999.034      1.332   1.640  8.50973E-01  9.20316E-01 -6.93434E-02
    8999.540      1.838   1.680  1.00850E+00  9.29814E-01  7.86866E-02
    9000.058      2.356   1.720  1.18662E+00  9.38800E-01  2.47823E-01
    9000.589      2.886   1.760  1.31612E+00  9.47250E-01  3.68867E-01
    9001.131      3.429   1.800  1.36198E+00  9.55208E-01  4.06768E-01
    9001.686      3.984   1.840  1.35344E+00  9.62633E-01  3.90805E-01
    9002.253      4.551   1.880  1.32904E+00  9.69548E-01  3.59488E-01
    9002.832      5.130   1.920  1.30174E+00  9.75956E-01  3.25784E-01
    9003.423      5.721   1.960  1.26367E+00  9.81862E-01  2.81812E-01
    9004.027      6.324   2.000  1.21592E+00  9.87291E-01  2.28633E-01
    9004.642      6.940   2.040  1.17499E+00  9.92231E-01  1.82760E-01
    9005.270      7.568   2.080  1.15656E+00  9.96687E-01  1.59876E-01
    9005.910      8.208   2.120  1.15776E+00  1.00071E+00  1.57054E-01
    9006.563      8.860   2.160  1.16157E+00  1.00430E+00  1.57262E-01
    9007.227      9.525   2.200  1.15140E+00  1.00746E+00  1.43938E-01
    9007.904     10.202   2.240  1.12321E+00  1.01023E+00  1.12976E-01
    9008.593     10.890   2.280  1.09216E+00  1.01261E+00  7.95476E-02
    9009.294     11.591   2.320  1.07813E+00  1.01464E+00  6.34948E-02
    9010.007     12.305   2.360  1.08722E+00  1.01633E+00  7.08879E-02
    9010.732     13.030   2.400  1.11231E+00  1.01769E+00  9.46109E-02
    9011.470     13.768   2.440  1.13271E+00  1.01877E+00  1.13946E-01
    9012.220     14.517   2.480  1.13334E+00  1.01955E+00  1.13785E-01
    9012.982     15.279   2.520  1.12457E+00  1.02008E+00  1.04484E-01
    9013.756     16.054   2.560  1.11316E+00  1.02037E+00  9.27870E-02
    9014.542     16.840   2.600  1.10144E+00  1.02045E+00  8.09967E-02
    9015.341     17.639   2.640  1.09071E+00  1.02031E+00  7.03940E-02
    9016.152     18.449   2.680  1.08110E+00  1.01999E+00  6.11098E-02
    9016.974     19.272   2.720  1.07216E+00  1.01952E+00  5.26411E-02
    9017.810     20.107   2.760  1.06253E+00  1.01889E+00  4.36415E-02
    9018.657     20.955   2.800  1.05083E+00  1.01813E+00  3.26985E-02
    9019.517     21.814   2.840  1.03612E+00  1.01726E+00  1.88657E-02
    9020.388     22.686   2.880  1.01857E+00  1.01629E+00  2.27730E-03
    9021.272     23.570   2.920  9.98938E-01  1.01524E+00 -1.63001E-02
    9022.168     24.466   2.960  9.78819E-01  1.01411E+00 -3.52895E-02
    9023.077     25.374   3.000  9.60049E-01  1.01293E+00 -5.28800E-02
    9023.997     26.295   3.040  9.43842E-01  1.01171E+00 -6.78644E-02
    9024.930     27.228   3.080  9.30177E-01  1.01045E+00 -8.02690E-02
    9025.875     28.172   3.120  9.18349E-01  1.00917E+00 -9.08230E-02
    9026.832     29.130   3.160  9.07098E-01  1.00787E+00 -1.00773E-01
    9027.801     30.099   3.200  8.95731E-01  1.00659E+00 -1.10856E-01
    9028.782     31.080   3.240  8.84682E-01  1.00528E+00 -1.20603E-01
    9029.776     32.074   3.280  8.75456E-01  1.00401E+00 -1.28553E-01
    9030.782     33.080   3.320  8.69746E-01  1.00276E+00 -1.33018E-01
    9031.800     34.098   3.360  8.68993E-01  1.00153E+00 -1.32539E-01
    9032.830     35.128   3.400  8.74168E-01  1.00034E+00 -1.26170E-01
    9033.873     36.170   3.440  8.85139E-01  9.99204E-01 -1.14065E-01
    9034.927     37.225   3.480  9.01227E-01  9.98091E-01 -9.68637E-02
    9035.994     38.292   3.520  9.21300E-01  9.97044E-01 -7.57433E-02
    9037.073     39.371   3.560  9.43525E-01  9.96043E-01 -5.25178E-02
    9038.164     40.462   3.600  9.65428E-01  9.95111E-01 -2.96833E-02
    9039.267     41.565   3.640  9.84294E-01  9.94228E-01 -9.93434E-03
    9040.383     42.681   3.680  9.97585E-01  9.93397E-01  4.18892E-03
    9041.511     43.809   3.720  1.00369E+00  9.92660E-01  1.10304E-02
    9042.651     44.949   3.760  1.00256E+00  9.91977E-01  1.05866E-02
    9043.803     46.101   3.800  9.95876E-01  9.91367E-01  4.50900E-03
    9044.967     47.265   3.840  9.86317E-01  9.90812E-01 -4.49587E-03
    9046.144     48.442   3.880  9.76823E-01  9.90355E-01 -1.35317E-02
    9047.332     49.630   3.920  9.69683E-01  9.89952E-01 -2.02683E-02
    9048.533     50.831   3.960  9.66422E-01  9.89623E-01 -2.32011E-02
    9049.746     52.044   4.000  9.67755E-01  9.89348E-01 -2.15933E-02
    9050.972     53.270   4.040  9.73718E-01  9.89170E-01 -1.54513E-02
    9052.209     54.507   4.080  9.83576E-01  9.89045E-01 -5.46857E-03
    9053.459     55.757   4.120  9.96066E-01  9.88973E-01  7.09272E-03
    9054.721     57.019   4.160  1.00972E+00  9.88995E-01  2.07239E-02
    9055.995     58.293   4.200  1.02303E+00  9.89069E-01  3.39589E-02
    9057.281     59.579   4.240  1.03466E+00  9.89192E-01  4.54644E-02
    9058.580     60.877   4.280  1.04348E+00  9.89386E-01  5.40961E-02
    9059.890     62.188   4.320  1.04886E+00  9.89652E-01  5.92041E-02
    9061.213     63.511   4.360  1.05086E+00  9.89963E-01  6.08925E-02
    9062.548     64.846   4.400  1.05030E+00  9.90320E-01  5.99790E-02
    9063.895     66.193   4.440  1.04837E+00  9.90720E-01  5.76494E-02
    9065.255     67.552   4.480  1.04610E+00  9.91182E-01  5.49198E-02
    9066.626     68.924   4.520  1.04407E+00  9.91664E-01  5.24013E-02
    9068.010     70.308   4.560  1.04234E+00  9.92184E-01  5.01556E-02
    9069.406     71.704   4.600  1.04028E+00  9.92765E-01  4.75160E-02
    9070.814     73.112   4.640  1.03671E+00  9.93358E-01  4.33561E-02
    9072.234     74.532   4.680  1.03076E+00  9.93963E-01  3.67931E-02
    9073.667     75.965   4.720  1.02244E+00  9.94621E-01  2.78225E-02
    9075.112     77.410   4.760  1.01266E+00  9.95267E-01  1.73923E-02
    9076.569     78.867   4.800  1.00301E+00  9.95962E-01  7.04411E-03
    9078.038     80.336   4.840  9.94979E-01  9.96642E-01 -1.66258E-03
    9079.519     81.817   4.880  9.89734E-01  9.97344E-01 -7.60931E-03
    9081.013     83.311   4.920  9.87693E-01  9.98024E-01 -1.03303E-02
    9082.518     84.816   4.960  9.88790E-01  9.98724E-01 -9.93413E-03
    9084.036     86.334   5.000  9.92422E-01  9.99401E-01 -6.97909E-03
    9085.566     87.864   5.040  9.97751E-01  1.00009E+00 -2.34300E-03
    9087.109     89.407   5.080  1.00369E+00  1.00074E+00  2.95269E-03
    9088.663     90.961   5.120  1.00933E+00  1.00139E+00  7.93791E-03
    9090.230     92.528   5.160  1.01375E+00  1.00202E+00  1.17378E-02
    9091.809     94.107   5.200  1.01607E+00  1.00261E+00  1.34626E-02
    9093.400     95.698   5.240  1.01540E+00  1.00319E+00  1.22102E-02
    9095.003     97.301   5.280  1.01130E+00  1.00373E+00  7.56653E-03
    9096.618     98.916   5.320  1.00467E+00  1.00426E+00  4.14179E-04
    9098.246    100.544   5.360  9.97125E-01  1.00473E+00 -7.60143E-03
    9099.886    102.184   5.400  9.91065E-01  1.00515E+00 -1.40858E-02
    9101.538    103.836   5.440  9.87621E-01  1.00556E+00 -1.79357E-02
    9103.202    105.500   5.480  9.86177E-01  1.00590E+00 -1.97220E-02
    9104.878    107.176   5.520  9.85127E-01  1.00620E+00 -2.10700E-02
    9106.567    108.865   5.560  9.83001E-01  1.00645E+00 -2.34508E-02
    9108.268    110.566   5.600  9.79272E-01  1.00666E+00 -2.73918E-02
    9109.981    112.279   5.640  9.74936E-01  1.00683E+00 -3.18944E-02
    9111.706    114.004   5.680  9.71194E-01  1.00693E+00 -3.57334E-02
    9113.443    115.741   5.720  9.69238E-01  1.00698E+00 -3.77414E-02
    9115.193    117.491   5.760  9.69579E-01  1.00699E+00 -3.74070E-02
    9116.955    119.252   5.800  9.72011E-01  1.00692E+00 -3.49123E-02
    9118.728    121.026   5.840  9.76223E-01  1.00682E+00 -3.05933E-02
    9120.515    122.812   5.880  9.82349E-01  1.00667E+00 -2.43176E-02
    9122.313    124.611   5.920  9.90835E-01  1.00647E+00 -1.56389E-02
    9124.123    126.421   5.960  1.00165E+00  1.00621E+00 -4.55866E-03
    9125.946    128.244   6.000  1.01353E+00  1.00585E+00  7.67967E-03
