# # comment:                                                     FEFF 9.9.1  
# # Source:
# # Structure
# # Reduced
# # space
# # abc:
# # angles:
# # sites:
# # POT  SCF 100  7.0000   0, screened core-hole, AFOLP (folp(0)= 1.150)
# # Abs   Z=29 Rmt= 1.225 Rnm= 1.355 K  shell
# # Pot 1 Z=29 Rmt= 1.225 Rnm= 1.355
# # Pot 2 Z=52 Rmt= 1.301 Rnm= 1.520
# # Pot 3 Z=17 Rmt= 1.393 Rnm= 1.588
# # Pot 4 Z= 8 Rmt= 0.952 Rnm= 1.093
# # Gam_ch=1.729E+00 H-L exch Vi= 0.000E+00 Vr= 0.000E+00
# # Mu=-4.587E+00eV kf=2.012E+00 Vint=-1.355E+01eV Rs_int= 1.802
# FMS rfms= 9.0000
# # PATH  Rmax=-1.000,  Keep_limit= 0.00, Heap_limit 0.00  Pwcrit= 2.50%
#  S02=0.950  Temp=   0.00  Debye_temp=   0.00  Global_sig2= 0.00000
#  Energy zero shift, vr, vi    0.00000E+00   0.00000E+00
#  Curved wave amplitude ratio filter   4.000%
#     file         sig2 tot  cw amp ratio   deg  nlegs   reff  inp sig2
#     0/   0 paths used
#  xsedge+ 50, used to normalize mu           2.4125E-04
#  -----------------------------------------------------------------------
#  omega    e    k    mu    mu0     chi     @#
    8983.311     -8.397  -1.000  5.36023E-02  6.37504E-02 -1.01482E-02
    8983.610     -8.098  -0.960  5.73237E-02  6.86393E-02 -1.13156E-02
    8983.897     -7.811  -0.920  6.14532E-02  7.40911E-02 -1.26379E-02
    8984.171     -7.537  -0.880  6.60525E-02  8.01901E-02 -1.41376E-02
    8984.433     -7.275  -0.840  7.11943E-02  8.70346E-02 -1.58403E-02
    8984.683     -7.025  -0.800  7.69629E-02  9.47383E-02 -1.77753E-02
    8984.921     -6.787  -0.760  8.34563E-02  1.03432E-01 -1.99760E-02
    8985.146     -6.562  -0.720  9.07852E-02  1.13264E-01 -2.24792E-02
    8985.360     -6.348  -0.680  9.90728E-02  1.24398E-01 -2.53252E-02
    8985.561     -6.147  -0.640  1.08450E-01  1.37006E-01 -2.85559E-02
    8985.750     -5.958  -0.600  1.19045E-01  1.51257E-01 -3.22116E-02
    8985.927     -5.781  -0.560  1.30972E-01  1.67298E-01 -3.63255E-02
    8986.091     -5.617  -0.520  1.44299E-01  1.85215E-01 -4.09158E-02
    8986.244     -5.464  -0.480  1.59019E-01  2.04993E-01 -4.59736E-02
    8986.384     -5.324  -0.440  1.75006E-01  2.26456E-01 -5.14502E-02
    8986.512     -5.196  -0.400  1.91982E-01  2.49228E-01 -5.72462E-02
    8986.628     -5.080  -0.360  2.09505E-01  2.72714E-01 -6.32090E-02
    8986.731     -4.977  -0.320  2.27000E-01  2.96144E-01 -6.91437E-02
    8986.823     -4.885  -0.280  2.43823E-01  3.18660E-01 -7.48367E-02
    8986.902     -4.806  -0.240  2.59354E-01  3.39440E-01 -8.00855E-02
    8986.969     -4.739  -0.200  2.73075E-01  3.57796E-01 -8.47217E-02
    8987.024     -4.684  -0.160  2.84609E-01  3.73230E-01 -8.86209E-02
    8987.066     -4.641  -0.120  2.93723E-01  3.85423E-01 -9.17003E-02
    8987.097     -4.611  -0.080  3.00290E-01  3.94203E-01 -9.39132E-02
    8987.121     -4.587   0.000  3.05566E-01  4.01252E-01 -9.56863E-02
    8987.176     -4.532   0.120  3.17072E-01  4.17139E-01 -1.00067E-01
    8987.219     -4.489   0.160  3.26067E-01  4.29478E-01 -1.03411E-01
    8987.274     -4.434   0.200  3.37527E-01  4.45208E-01 -1.07681E-01
    8987.341     -4.367   0.240  3.51265E-01  4.64101E-01 -1.12835E-01
    8987.420     -4.288   0.280  3.66957E-01  4.85759E-01 -1.18802E-01
    8987.512     -4.196   0.320  3.84094E-01  5.09563E-01 -1.25469E-01
    8987.615     -4.093   0.360  4.02114E-01  5.34818E-01 -1.32704E-01
    8987.731     -3.977   0.400  4.20364E-01  5.60742E-01 -1.40378E-01
    8987.859     -3.849   0.440  4.38235E-01  5.86620E-01 -1.48384E-01
    8987.999     -3.709   0.480  4.55239E-01  6.11890E-01 -1.56651E-01
    8988.152     -3.556   0.520  4.70997E-01  6.36188E-01 -1.65191E-01
    8988.316     -3.392   0.560  4.85170E-01  6.59329E-01 -1.74159E-01
    8988.493     -3.215   0.600  4.97345E-01  6.81271E-01 -1.83926E-01
    8988.682     -3.026   0.640  5.06872E-01  7.02063E-01 -1.95191E-01
    8988.883     -2.825   0.680  5.12986E-01  7.21801E-01 -2.08815E-01
    8989.096     -2.612   0.720  5.15360E-01  7.40580E-01 -2.25220E-01
    8989.322     -2.386   0.760  5.14808E-01  7.58517E-01 -2.43708E-01
    8989.560     -2.148   0.800  5.12963E-01  7.75691E-01 -2.62728E-01
    8989.810     -1.898   0.840  5.11064E-01  7.92212E-01 -2.81148E-01
    8990.072     -1.636   0.880  5.09441E-01  8.08126E-01 -2.98685E-01
    8990.346     -1.362   0.920  5.08842E-01  8.23486E-01 -3.14645E-01
    8990.633     -1.075   0.960  5.11582E-01  8.38288E-01 -3.26706E-01
    8990.931     -0.777   1.000  5.20609E-01  8.52597E-01 -3.31988E-01
    8991.242     -0.466   1.040  5.37384E-01  8.66368E-01 -3.28984E-01
    8991.565     -0.143   1.080  5.61083E-01  8.79646E-01 -3.18562E-01
    8991.901      0.193   1.120  5.88841E-01  8.92408E-01 -3.03567E-01
    8992.248      0.540   1.160  6.17330E-01  9.04647E-01 -2.87317E-01
    8992.608      0.900   1.200  6.45035E-01  9.16332E-01 -2.71297E-01
    8992.980      1.272   1.240  6.73940E-01  9.27471E-01 -2.53530E-01
    8993.364      1.656   1.280  7.08979E-01  9.38068E-01 -2.29089E-01
    8993.760      2.052   1.320  7.55685E-01  9.48068E-01 -1.92383E-01
    8994.168      2.460   1.360  8.18378E-01  9.57492E-01 -1.39114E-01
    8994.589      2.881   1.400  8.98400E-01  9.66344E-01 -6.79440E-02
    8995.022      3.314   1.440  9.91861E-01  9.74588E-01  1.72733E-02
    8995.467      3.759   1.480  1.09104E+00  9.82248E-01  1.08788E-01
    8995.924      4.216   1.520  1.18524E+00  9.89310E-01  1.95931E-01
    8996.393      4.685   1.560  1.26072E+00  9.95780E-01  2.64935E-01
    8996.875      5.167   1.600  1.30903E+00  1.00169E+00  3.07345E-01
    8997.369      5.661   1.640  1.33417E+00  1.00701E+00  3.27152E-01
    8997.875      6.167   1.680  1.34739E+00  1.01177E+00  3.35617E-01
    8998.393      6.685   1.720  1.35636E+00  1.01602E+00  3.40342E-01
    8998.923      7.215   1.760  1.36091E+00  1.01974E+00  3.41170E-01
    8999.466      7.758   1.800  1.35415E+00  1.02295E+00  3.31200E-01
    9000.020      8.312   1.840  1.33167E+00  1.02570E+00  3.05978E-01
    9000.587      8.879   1.880  1.29533E+00  1.02798E+00  2.67357E-01
    9001.166      9.459   1.920  1.25170E+00  1.02983E+00  2.21877E-01
    9001.758     10.050   1.960  1.21359E+00  1.03127E+00  1.82315E-01
    9002.361     10.653   2.000  1.19185E+00  1.03236E+00  1.59487E-01
    9002.977     11.269   2.040  1.18718E+00  1.03308E+00  1.54101E-01
    9003.605     11.897   2.080  1.19157E+00  1.03348E+00  1.58096E-01
    9004.245     12.537   2.120  1.19760E+00  1.03357E+00  1.64029E-01
    9004.897     13.189   2.160  1.20266E+00  1.03338E+00  1.69274E-01
    9005.562     13.854   2.200  1.20331E+00  1.03296E+00  1.70349E-01
    9006.238     14.530   2.240  1.19666E+00  1.03232E+00  1.64346E-01
    9006.927     15.219   2.280  1.18223E+00  1.03146E+00  1.50766E-01
    9007.628     15.920   2.320  1.15782E+00  1.03043E+00  1.27381E-01
    9008.341     16.633   2.360  1.12322E+00  1.02924E+00  9.39738E-02
    9009.067     17.359   2.400  1.08635E+00  1.02794E+00  5.84156E-02
    9009.804     18.097   2.440  1.06064E+00  1.02651E+00  3.41252E-02
    9010.554     18.846   2.480  1.04668E+00  1.02500E+00  2.16809E-02
    9011.316     19.608   2.520  1.03625E+00  1.02340E+00  1.28460E-02
    9012.090     20.382   2.560  1.02523E+00  1.02176E+00  3.47850E-03
    9012.877     21.169   2.600  1.01208E+00  1.02009E+00 -8.00068E-03
    9013.675     21.967   2.640  9.97380E-01  1.01836E+00 -2.09786E-02
    9014.486     22.778   2.680  9.83673E-01  1.01665E+00 -3.29725E-02
    9015.309     23.601   2.720  9.73572E-01  1.01493E+00 -4.13597E-02
    9016.144     24.436   2.760  9.67831E-01  1.01322E+00 -4.53940E-02
    9016.992     25.284   2.800  9.65021E-01  1.01155E+00 -4.65297E-02
    9017.851     26.143   2.840  9.63411E-01  1.00991E+00 -4.65026E-02
    9018.723     27.015   2.880  9.61624E-01  1.00834E+00 -4.67178E-02
    9019.607     27.899   2.920  9.58862E-01  1.00682E+00 -4.79544E-02
    9020.503     28.795   2.960  9.54731E-01  1.00534E+00 -5.06102E-02
    9021.411     29.703   3.000  9.49200E-01  1.00394E+00 -5.47415E-02
    9022.332     30.624   3.040  9.42731E-01  1.00262E+00 -5.98902E-02
    9023.264     31.556   3.080  9.35918E-01  1.00138E+00 -6.54637E-02
    9024.209     32.501   3.120  9.29105E-01  1.00025E+00 -7.11447E-02
    9025.166     33.458   3.160  9.22261E-01  9.99183E-01 -7.69219E-02
    9026.136     34.428   3.200  9.15414E-01  9.98245E-01 -8.28305E-02
    9027.117     35.409   3.240  9.08702E-01  9.97375E-01 -8.86721E-02
    9028.111     36.403   3.280  9.02472E-01  9.96616E-01 -9.41434E-02
    9029.117     37.409   3.320  8.97188E-01  9.95949E-01 -9.87614E-02
    9030.135     38.427   3.360  8.93544E-01  9.95396E-01 -1.01852E-01
    9031.165     39.457   3.400  8.92155E-01  9.94957E-01 -1.02803E-01
    9032.207     40.499   3.440  8.93355E-01  9.94611E-01 -1.01256E-01
    9033.262     41.554   3.480  8.97445E-01  9.94379E-01 -9.69336E-02
    9034.329     42.621   3.520  9.04366E-01  9.94238E-01 -8.98721E-02
    9035.408     43.700   3.560  9.13703E-01  9.94210E-01 -8.05068E-02
    9036.499     44.791   3.600  9.24819E-01  9.94273E-01 -6.94540E-02
    9037.602     45.894   3.640  9.36976E-01  9.94448E-01 -5.74719E-02
    9038.718     47.010   3.680  9.49471E-01  9.94711E-01 -4.52401E-02
    9039.845     48.137   3.720  9.61937E-01  9.95061E-01 -3.31240E-02
    9040.985     49.277   3.760  9.74495E-01  9.95521E-01 -2.10252E-02
    9042.138     50.430   3.800  9.87376E-01  9.96063E-01 -8.68697E-03
    9043.302     51.594   3.840  1.00072E+00  9.96666E-01  4.05190E-03
    9044.478     52.770   3.880  1.01454E+00  9.97372E-01  1.71649E-02
    9045.667     53.959   3.920  1.02843E+00  9.98156E-01  3.02714E-02
    9046.868     55.160   3.960  1.04171E+00  9.98995E-01  4.27189E-02
    9048.081     56.373   4.000  1.05378E+00  9.99907E-01  5.38726E-02
    9049.306     57.598   4.040  1.06425E+00  1.00087E+00  6.33798E-02
    9050.544     58.836   4.080  1.07307E+00  1.00190E+00  7.11679E-02
    9051.794     60.086   4.120  1.08027E+00  1.00298E+00  7.72956E-02
    9053.055     61.347   4.160  1.08606E+00  1.00410E+00  8.19597E-02
    9054.329     62.621   4.200  1.09061E+00  1.00526E+00  8.53534E-02
    9055.616     63.908   4.240  1.09414E+00  1.00645E+00  8.76876E-02
    9056.914     65.206   4.280  1.09683E+00  1.00769E+00  8.91405E-02
    9058.225     66.517   4.320  1.09870E+00  1.00893E+00  8.97711E-02
    9059.548     67.840   4.360  1.09962E+00  1.01020E+00  8.94273E-02
    9060.883     69.175   4.400  1.09921E+00  1.01145E+00  8.77650E-02
    9062.230     70.522   4.440  1.09720E+00  1.01272E+00  8.44830E-02
    9063.589     71.881   4.480  1.09331E+00  1.01399E+00  7.93161E-02
    9064.961     73.253   4.520  1.08742E+00  1.01526E+00  7.21622E-02
    9066.345     74.637   4.560  1.07961E+00  1.01650E+00  6.31193E-02
    9067.741     76.033   4.600  1.07017E+00  1.01772E+00  5.24496E-02
    9069.149     77.441   4.640  1.05946E+00  1.01891E+00  4.05471E-02
    9070.569     78.861   4.680  1.04800E+00  1.02006E+00  2.79315E-02
    9072.002     80.294   4.720  1.03635E+00  1.02120E+00  1.51557E-02
    9073.446     81.738   4.760  1.02499E+00  1.02227E+00  2.72134E-03
    9074.903     83.195   4.800  1.01433E+00  1.02329E+00 -8.95638E-03
    9076.373     84.665   4.840  1.00464E+00  1.02427E+00 -1.96255E-02
    9077.854     86.146   4.880  9.96061E-01  1.02520E+00 -2.91383E-02
    9079.347     87.639   4.920  9.88694E-01  1.02608E+00 -3.73851E-02
    9080.853     89.145   4.960  9.82570E-01  1.02686E+00 -4.42922E-02
    9082.371     90.663   5.000  9.77825E-01  1.02761E+00 -4.97887E-02
    9083.901     92.193   5.040  9.74414E-01  1.02827E+00 -5.38513E-02
    9085.443     93.735   5.080  9.72319E-01  1.02886E+00 -5.65396E-02
    9086.998     95.290   5.120  9.71357E-01  1.02937E+00 -5.80163E-02
    9088.564     96.856   5.160  9.71176E-01  1.02981E+00 -5.86302E-02
    9090.143     98.435   5.200  9.71454E-01  1.03016E+00 -5.87030E-02
    9091.734    100.026   5.240  9.72027E-01  1.03043E+00 -5.84011E-02
    9093.338    101.630   5.280  9.72961E-01  1.03064E+00 -5.76781E-02
    9094.953    103.245   5.320  9.74339E-01  1.03075E+00 -5.64086E-02
    9096.581    104.873   5.360  9.76309E-01  1.03080E+00 -5.44867E-02
    9098.220    106.513   5.400  9.78944E-01  1.03076E+00 -5.18179E-02
    9099.873    108.165   5.440  9.82328E-01  1.03062E+00 -4.82948E-02
    9101.537    109.829   5.480  9.86585E-01  1.03043E+00 -4.38415E-02
    9103.213    111.505   5.520  9.91626E-01  1.03015E+00 -3.85286E-02
    9104.902    113.194   5.560  9.97202E-01  1.02983E+00 -3.26246E-02
    9106.602    114.894   5.600  1.00296E+00  1.02942E+00 -2.64666E-02
    9108.315    116.607   5.640  1.00868E+00  1.02894E+00 -2.02549E-02
    9110.041    118.333   5.680  1.01444E+00  1.02838E+00 -1.39376E-02
    9111.778    120.070   5.720  1.02044E+00  1.02778E+00 -7.33680E-03
    9113.527    121.820   5.760  1.02679E+00  1.02712E+00 -3.34109E-04
    9115.289    123.581   5.800  1.03340E+00  1.02640E+00  6.99555E-03
    9117.063    125.355   5.840  1.04004E+00  1.02564E+00  1.44040E-02
    9118.849    127.141   5.880  1.04642E+00  1.02484E+00  2.15755E-02
    9120.648    128.940   5.920  1.05220E+00  1.02401E+00  2.81881E-02
    9122.458    130.750   5.960  1.05693E+00  1.02312E+00  3.38080E-02
    9124.281    132.573   6.000  1.06003E+00  1.02222E+00  3.78128E-02
