# # comment:                                                     FEFF 9.9.1  
# # Source:
# # Structure
# # Reduced
# # space
# # abc:
# # angles:
# # sites:
# # POT  SCF 100  7.0000   0, screened core-hole, AFOLP (folp(0)= 1.150)
# # Abs   Z=29 Rmt= 1.241 Rnm= 1.330 K  shell
# # Pot 1 Z=29 Rmt= 1.241 Rnm= 1.330
# # Pot 2 Z=42 Rmt= 1.218 Rnm= 1.379
# # Pot 3 Z= 8 Rmt= 0.934 Rnm= 1.077
# # Gam_ch=1.729E+00 H-L exch Vi= 0.000E+00 Vr= 0.000E+00
# # Mu=-5.767E+00eV kf=2.300E+00 Vint=-1.582E+01eV Rs_int= 1.577
# FMS rfms= 9.0000
# # PATH  Rmax=-1.000,  Keep_limit= 0.00, Heap_limit 0.00  Pwcrit= 2.50%
#  S02=0.950  Temp=   0.00  Debye_temp=   0.00  Global_sig2= 0.00000
#  Energy zero shift, vr, vi    0.00000E+00   0.00000E+00
#  Curved wave amplitude ratio filter   4.000%
#     file         sig2 tot  cw amp ratio   deg  nlegs   reff  inp sig2
#     0/   0 paths used
#  xsedge+ 50, used to normalize mu           2.4581E-04
#  -----------------------------------------------------------------------
#  omega    e    k    mu    mu0     chi     @#
    8983.472     -9.577  -1.000  4.47508E-02  5.70043E-02 -1.22535E-02
    8983.771     -9.278  -0.960  4.74390E-02  6.12596E-02 -1.38205E-02
    8984.057     -8.991  -0.920  5.03732E-02  6.59986E-02 -1.56255E-02
    8984.331     -8.717  -0.880  5.35857E-02  7.12936E-02 -1.77079E-02
    8984.594     -8.455  -0.840  5.71146E-02  7.72287E-02 -2.01141E-02
    8984.844     -8.205  -0.800  6.10037E-02  8.39015E-02 -2.28978E-02
    8985.081     -7.967  -0.760  6.53038E-02  9.14242E-02 -2.61205E-02
    8985.307     -7.742  -0.720  7.00720E-02  9.99236E-02 -2.98516E-02
    8985.520     -7.528  -0.680  7.53721E-02  1.09540E-01 -3.41676E-02
    8985.721     -7.327  -0.640  8.12710E-02  1.20420E-01 -3.91492E-02
    8985.910     -7.138  -0.600  8.78344E-02  1.32711E-01 -4.48763E-02
    8986.087     -6.961  -0.560  9.51174E-02  1.46536E-01 -5.14185E-02
    8986.252     -6.797  -0.520  1.03150E-01  1.61971E-01 -5.88210E-02
    8986.404     -6.644  -0.480  1.11915E-01  1.79000E-01 -6.70850E-02
    8986.544     -6.504  -0.440  1.21328E-01  1.97474E-01 -7.61457E-02
    8986.672     -6.376  -0.400  1.31215E-01  2.17068E-01 -8.58524E-02
    8986.788     -6.260  -0.360  1.41310E-01  2.37272E-01 -9.59614E-02
    8986.892     -6.157  -0.320  1.51272E-01  2.57422E-01 -1.06150E-01
    8986.983     -6.065  -0.280  1.60732E-01  2.76783E-01 -1.16050E-01
    8987.062     -5.986  -0.240  1.69349E-01  2.94647E-01 -1.25298E-01
    8987.130     -5.919  -0.200  1.76856E-01  3.10427E-01 -1.33571E-01
    8987.184     -5.864  -0.160  1.83079E-01  3.23692E-01 -1.40613E-01
    8987.227     -5.821  -0.120  1.87931E-01  3.34172E-01 -1.46241E-01
    8987.258     -5.791  -0.080  1.91382E-01  3.41717E-01 -1.50335E-01
    8987.282     -5.767   0.000  1.94099E-01  3.47776E-01 -1.53677E-01
    8987.337     -5.712   0.120  2.00036E-01  3.61434E-01 -1.61398E-01
    8987.379     -5.669   0.160  2.04621E-01  3.72030E-01 -1.67410E-01
    8987.434     -5.614   0.200  2.10354E-01  3.85541E-01 -1.75187E-01
    8987.501     -5.547   0.240  2.17070E-01  4.01767E-01 -1.84697E-01
    8987.581     -5.468   0.280  2.24484E-01  4.20364E-01 -1.95879E-01
    8987.672     -5.376   0.320  2.32259E-01  4.40831E-01 -2.08572E-01
    8987.776     -5.273   0.360  2.39986E-01  4.62510E-01 -2.22525E-01
    8987.892     -5.157   0.400  2.47468E-01  4.84765E-01 -2.37297E-01
    8988.020     -5.029   0.440  2.54706E-01  5.06997E-01 -2.52291E-01
    8988.160     -4.889   0.480  2.62127E-01  5.28703E-01 -2.66576E-01
    8988.312     -4.736   0.520  2.70699E-01  5.49589E-01 -2.78890E-01
    8988.477     -4.572   0.560  2.81836E-01  5.69519E-01 -2.87684E-01
    8988.654     -4.395   0.600  2.97119E-01  5.88439E-01 -2.91320E-01
    8988.842     -4.206   0.640  3.18065E-01  6.06434E-01 -2.88369E-01
    8989.044     -4.005   0.680  3.45556E-01  6.23572E-01 -2.78016E-01
    8989.257     -3.792   0.720  3.79686E-01  6.39978E-01 -2.60293E-01
    8989.483     -3.566   0.760  4.19185E-01  6.55756E-01 -2.36571E-01
    8989.720     -3.328   0.800  4.61111E-01  6.70998E-01 -2.09887E-01
    8989.970     -3.078   0.840  5.01089E-01  6.85783E-01 -1.84694E-01
    8990.232     -2.816   0.880  5.34816E-01  7.00175E-01 -1.65359E-01
    8990.507     -2.542   0.920  5.59769E-01  7.14224E-01 -1.54455E-01
    8990.793     -2.255   0.960  5.75704E-01  7.27985E-01 -1.52281E-01
    8991.092     -1.957   1.000  5.85665E-01  7.41461E-01 -1.55796E-01
    8991.403     -1.646   1.040  5.96760E-01  7.54666E-01 -1.57906E-01
    8991.726     -1.323   1.080  6.15871E-01  7.67627E-01 -1.51756E-01
    8992.061     -0.987   1.120  6.41515E-01  7.80322E-01 -1.38807E-01
    8992.409     -0.640   1.160  6.63318E-01  7.92744E-01 -1.29427E-01
    8992.768     -0.280   1.200  6.77307E-01  8.04902E-01 -1.27595E-01
    8993.140      0.092   1.240  6.90813E-01  8.16782E-01 -1.25969E-01
    8993.524      0.476   1.280  7.07386E-01  8.28366E-01 -1.20980E-01
    8993.920      0.872   1.320  7.26808E-01  8.39634E-01 -1.12826E-01
    8994.329      1.280   1.360  7.51702E-01  8.50565E-01 -9.88636E-02
    8994.749      1.701   1.400  7.83879E-01  8.61160E-01 -7.72809E-02
    8995.182      2.134   1.440  8.21634E-01  8.71394E-01 -4.97596E-02
    8995.627      2.579   1.480  8.61435E-01  8.81244E-01 -1.98088E-02
    8996.084      3.036   1.520  8.96597E-01  8.90709E-01  5.88798E-03
    8996.554      3.505   1.560  9.22441E-01  8.99787E-01  2.26544E-02
    8997.035      3.987   1.600  9.45384E-01  9.08457E-01  3.69272E-02
    8997.529      4.481   1.640  9.76096E-01  9.16717E-01  5.93791E-02
    8998.035      4.987   1.680  1.01209E+00  9.24566E-01  8.75248E-02
    8998.553      5.505   1.720  1.04820E+00  9.31987E-01  1.16212E-01
    8999.084      6.035   1.760  1.09172E+00  9.39000E-01  1.52724E-01
    8999.626      6.578   1.800  1.14482E+00  9.45565E-01  1.99257E-01
    9000.181      7.132   1.840  1.20333E+00  9.51747E-01  2.51581E-01
    9000.748      7.699   1.880  1.26624E+00  9.57488E-01  3.08757E-01
    9001.327      8.278   1.920  1.32892E+00  9.62854E-01  3.66066E-01
    9001.918      8.870   1.960  1.38065E+00  9.67789E-01  4.12864E-01
    9002.522      9.473   2.000  1.41130E+00  9.72359E-01  4.38937E-01
    9003.138     10.089   2.040  1.41358E+00  9.76552E-01  4.37033E-01
    9003.765     10.717   2.080  1.38624E+00  9.80373E-01  4.05866E-01
    9004.406     11.357   2.120  1.33027E+00  9.83849E-01  3.46421E-01
    9005.058     12.009   2.160  1.25178E+00  9.86988E-01  2.64794E-01
    9005.722     12.674   2.200  1.16669E+00  9.89798E-01  1.76894E-01
    9006.399     13.350   2.240  1.09183E+00  9.92307E-01  9.95249E-02
    9007.088     14.039   2.280  1.03623E+00  9.94523E-01  4.17053E-02
    9007.789     14.740   2.320  9.99688E-01  9.96476E-01  3.21145E-03
    9008.502     15.453   2.360  9.76737E-01  9.98152E-01 -2.14154E-02
    9009.227     16.179   2.400  9.67546E-01  9.99579E-01 -3.20339E-02
    9009.965     16.916   2.440  9.75939E-01  1.00079E+00 -2.48490E-02
    9010.715     17.666   2.480  9.99861E-01  1.00179E+00 -1.92560E-03
    9011.477     18.428   2.520  1.03031E+00  1.00258E+00  2.77257E-02
    9012.251     19.202   2.560  1.05885E+00  1.00320E+00  5.56482E-02
    9013.037     19.989   2.600  1.08263E+00  1.00366E+00  7.89715E-02
    9013.836     20.787   2.640  1.09320E+00  1.00395E+00  8.92487E-02
    9014.647     21.598   2.680  1.08397E+00  1.00412E+00  7.98527E-02
    9015.470     22.421   2.720  1.06055E+00  1.00418E+00  5.63773E-02
    9016.305     23.256   2.760  1.03979E+00  1.00410E+00  3.56947E-02
    9017.152     24.104   2.800  1.02243E+00  1.00395E+00  1.84822E-02
    9018.012     24.963   2.840  1.00577E+00  1.00370E+00  2.07057E-03
    9018.883     25.835   2.880  9.87657E-01  1.00338E+00 -1.57275E-02
    9019.767     26.719   2.920  9.67929E-01  1.00300E+00 -3.50691E-02
    9020.663     27.615   2.960  9.47860E-01  1.00256E+00 -5.47041E-02
    9021.572     28.523   3.000  9.28786E-01  1.00209E+00 -7.32998E-02
    9022.492     29.444   3.040  9.11610E-01  1.00157E+00 -8.99596E-02
    9023.425     30.376   3.080  8.97223E-01  1.00104E+00 -1.03816E-01
    9024.370     31.321   3.120  8.86293E-01  1.00048E+00 -1.14186E-01
    9025.327     32.278   3.160  8.78603E-01  9.99913E-01 -1.21310E-01
    9026.296     33.248   3.200  8.73666E-01  9.99367E-01 -1.25701E-01
    9027.278     34.229   3.240  8.70789E-01  9.98801E-01 -1.28012E-01
    9028.271     35.223   3.280  8.69145E-01  9.98259E-01 -1.29114E-01
    9029.277     36.229   3.320  8.68098E-01  9.97723E-01 -1.29625E-01
    9030.295     37.247   3.360  8.67499E-01  9.97217E-01 -1.29718E-01
    9031.325     38.277   3.400  8.67516E-01  9.96722E-01 -1.29206E-01
    9032.368     39.319   3.440  8.68442E-01  9.96259E-01 -1.27817E-01
    9033.422     40.374   3.480  8.70827E-01  9.95832E-01 -1.25004E-01
    9034.489     41.441   3.520  8.75276E-01  9.95442E-01 -1.20165E-01
    9035.568     42.520   3.560  8.82316E-01  9.95089E-01 -1.12773E-01
    9036.659     43.611   3.600  8.92394E-01  9.94754E-01 -1.02360E-01
    9037.763     44.714   3.640  9.05963E-01  9.94479E-01 -8.85166E-02
    9038.878     45.830   3.680  9.23148E-01  9.94245E-01 -7.10972E-02
    9040.006     46.957   3.720  9.43528E-01  9.94052E-01 -5.05242E-02
    9041.146     48.097   3.760  9.66482E-01  9.93899E-01 -2.74169E-02
    9042.298     49.250   3.800  9.90906E-01  9.93787E-01 -2.88083E-03
    9043.462     50.414   3.840  1.01520E+00  9.93714E-01  2.14822E-02
    9044.639     51.590   3.880  1.03745E+00  9.93682E-01  4.37649E-02
    9045.828     52.779   3.920  1.05586E+00  9.93692E-01  6.21671E-02
    9047.029     53.980   3.960  1.06909E+00  9.93763E-01  7.53298E-02
    9048.242     55.193   4.000  1.07670E+00  9.93853E-01  8.28428E-02
    9049.467     56.418   4.040  1.07917E+00  9.93982E-01  8.51854E-02
    9050.704     57.656   4.080  1.07762E+00  9.94171E-01  8.34479E-02
    9051.954     58.906   4.120  1.07341E+00  9.94376E-01  7.90363E-02
    9053.216     60.167   4.160  1.06806E+00  9.94617E-01  7.34465E-02
    9054.490     61.441   4.200  1.06276E+00  9.94894E-01  6.78667E-02
    9055.776     62.728   4.240  1.05822E+00  9.95184E-01  6.30327E-02
    9057.075     64.026   4.280  1.05474E+00  9.95527E-01  5.92094E-02
    9058.385     65.337   4.320  1.05214E+00  9.95860E-01  5.62750E-02
    9059.708     66.660   4.360  1.05011E+00  9.96247E-01  5.38665E-02
    9061.043     67.995   4.400  1.04826E+00  9.96643E-01  5.16179E-02
    9062.390     69.342   4.440  1.04645E+00  9.97044E-01  4.94032E-02
    9063.750     70.701   4.480  1.04478E+00  9.97474E-01  4.73059E-02
    9065.121     72.073   4.520  1.04348E+00  9.97906E-01  4.55759E-02
    9066.505     73.457   4.560  1.04279E+00  9.98342E-01  4.44474E-02
    9067.901     74.853   4.600  1.04271E+00  9.98780E-01  4.39256E-02
    9069.309     76.261   4.640  1.04295E+00  9.99238E-01  4.37079E-02
    9070.730     77.681   4.680  1.04304E+00  9.99674E-01  4.33643E-02
    9072.162     79.114   4.720  1.04258E+00  1.00011E+00  4.24716E-02
    9073.607     80.558   4.760  1.04119E+00  1.00054E+00  4.06558E-02
    9075.064     82.015   4.800  1.03856E+00  1.00096E+00  3.75994E-02
    9076.533     83.485   4.840  1.03442E+00  1.00138E+00  3.30385E-02
    9078.014     84.966   4.880  1.02864E+00  1.00178E+00  2.68600E-02
    9079.508     86.459   4.920  1.02135E+00  1.00216E+00  1.91888E-02
    9081.014     87.965   4.960  1.01293E+00  1.00253E+00  1.03997E-02
    9082.532     89.483   5.000  1.00395E+00  1.00287E+00  1.07238E-03
    9084.062     91.013   5.040  9.95011E-01  1.00318E+00 -8.17189E-03
    9085.604     92.555   5.080  9.86581E-01  1.00348E+00 -1.68965E-02
    9087.158     94.110   5.120  9.78758E-01  1.00374E+00 -2.49786E-02
    9088.725     95.676   5.160  9.71338E-01  1.00396E+00 -3.26232E-02
    9090.304     97.255   5.200  9.64100E-01  1.00417E+00 -4.00706E-02
    9091.895     98.846   5.240  9.56984E-01  1.00434E+00 -4.73593E-02
    9093.498    100.450   5.280  9.50293E-01  1.00448E+00 -5.41859E-02
    9095.114    102.065   5.320  9.44503E-01  1.00458E+00 -6.00737E-02
    9096.741    103.693   5.360  9.40110E-01  1.00466E+00 -6.45471E-02
    9098.381    105.333   5.400  9.37379E-01  1.00468E+00 -6.72993E-02
    9100.033    106.985   5.440  9.36474E-01  1.00468E+00 -6.82087E-02
    9101.697    108.649   5.480  9.37358E-01  1.00465E+00 -6.72919E-02
    9103.374    110.325   5.520  9.39936E-01  1.00458E+00 -6.46409E-02
    9105.062    112.014   5.560  9.43987E-01  1.00446E+00 -6.04765E-02
    9106.763    113.714   5.600  9.49144E-01  1.00431E+00 -5.51676E-02
    9108.476    115.427   5.640  9.54930E-01  1.00412E+00 -4.91920E-02
    9110.201    117.153   5.680  9.60944E-01  1.00392E+00 -4.29726E-02
    9111.938    118.890   5.720  9.66879E-01  1.00365E+00 -3.67726E-02
    9113.688    120.639   5.760  9.72751E-01  1.00337E+00 -3.06212E-02
    9115.450    122.401   5.800  9.78705E-01  1.00306E+00 -2.43532E-02
    9117.224    124.175   5.840  9.84972E-01  1.00271E+00 -1.77374E-02
    9119.010    125.961   5.880  9.91683E-01  1.00235E+00 -1.06682E-02
    9120.808    127.760   5.920  9.98668E-01  1.00194E+00 -3.27137E-03
    9122.619    129.570   5.960  1.00569E+00  1.00155E+00  4.14166E-03
    9124.441    131.393   6.000  1.01249E+00  1.00108E+00  1.14095E-02
