# # comment:                                                     FEFF 9.9.1  
# # Source:
# # Structure
# # Reduced
# # space
# # abc:
# # angles:
# # sites:
# # POT  SCF 100  7.0000   0, screened core-hole, AFOLP (folp(0)= 1.150)
# # Abs   Z=29 Rmt= 1.223 Rnm= 1.279 K  shell
# # Pot 1 Z= 3 Rmt= 1.259 Rnm= 1.300
# # Pot 2 Z=24 Rmt= 1.294 Rnm= 1.391
# # Pot 3 Z=29 Rmt= 1.223 Rnm= 1.279
# # Pot 4 Z= 8 Rmt= 1.050 Rnm= 1.101
# # Gam_ch=1.729E+00 H-L exch Vi= 0.000E+00 Vr= 0.000E+00
# # Mu=-1.037E+01eV kf=2.128E+00 Vint=-1.879E+01eV Rs_int= 1.704
# FMS rfms= 9.0000
# # PATH  Rmax=-1.000,  Keep_limit= 0.00, Heap_limit 0.00  Pwcrit= 2.50%
#  S02=0.950  Temp=   0.00  Debye_temp=   0.00  Global_sig2= 0.00000
#  Energy zero shift, vr, vi    0.00000E+00   0.00000E+00
#  Curved wave amplitude ratio filter   4.000%
#     file         sig2 tot  cw amp ratio   deg  nlegs   reff  inp sig2
#     0/   0 paths used
#  xsedge+ 50, used to normalize mu           2.4737E-04
#  -----------------------------------------------------------------------
#  omega    e    k    mu    mu0     chi     @#
    8985.211    -14.179  -1.000  2.89219E-02  4.93421E-02 -2.04203E-02
    8985.509    -13.880  -0.960  3.00655E-02  5.28211E-02 -2.27557E-02
    8985.796    -13.594  -0.920  3.12714E-02  5.66794E-02 -2.54080E-02
    8986.070    -13.320  -0.880  3.25467E-02  6.09722E-02 -2.84255E-02
    8986.332    -13.057  -0.840  3.38997E-02  6.57637E-02 -3.18641E-02
    8986.582    -12.807  -0.800  3.53406E-02  7.11285E-02 -3.57879E-02
    8986.820    -12.570  -0.760  3.68816E-02  7.71519E-02 -4.02703E-02
    8987.046    -12.344  -0.720  3.85370E-02  8.39302E-02 -4.53932E-02
    8987.259    -12.131  -0.680  4.03229E-02  9.15694E-02 -5.12465E-02
    8987.460    -11.930  -0.640  4.22570E-02  1.00181E-01 -5.79243E-02
    8987.649    -11.741  -0.600  4.43568E-02  1.09876E-01 -6.55188E-02
    8987.826    -11.564  -0.560  4.66365E-02  1.20745E-01 -7.41090E-02
    8987.990    -11.399  -0.520  4.91027E-02  1.32846E-01 -8.37434E-02
    8988.143    -11.247  -0.480  5.17477E-02  1.46164E-01 -9.44163E-02
    8988.283    -11.107  -0.440  5.45416E-02  1.60583E-01 -1.06041E-01
    8988.411    -10.979  -0.400  5.74269E-02  1.75852E-01 -1.18426E-01
    8988.527    -10.863  -0.360  6.03182E-02  1.91582E-01 -1.31264E-01
    8988.631    -10.759  -0.320  6.31111E-02  2.07263E-01 -1.44152E-01
    8988.722    -10.668  -0.280  6.56993E-02  2.22330E-01 -1.56631E-01
    8988.801    -10.589  -0.240  6.79945E-02  2.36240E-01 -1.68245E-01
    8988.868    -10.521  -0.200  6.99392E-02  2.48536E-01 -1.78596E-01
    8988.923    -10.467  -0.160  7.15095E-02  2.58882E-01 -1.87373E-01
    8988.966    -10.424  -0.120  7.27070E-02  2.67064E-01 -1.94357E-01
    8988.996    -10.393  -0.080  7.35462E-02  2.72961E-01 -1.99415E-01
    8989.021    -10.369   0.000  7.42084E-02  2.77700E-01 -2.03492E-01
    8989.076    -10.314   0.120  7.56321E-02  2.88377E-01 -2.12745E-01
    8989.118    -10.272   0.160  7.66974E-02  2.96702E-01 -2.20005E-01
    8989.173    -10.217   0.200  7.79380E-02  3.07316E-01 -2.29378E-01
    8989.240    -10.150   0.240  7.93122E-02  3.20101E-01 -2.40789E-01
    8989.319    -10.070   0.280  8.07180E-02  3.34815E-01 -2.54097E-01
    8989.411     -9.979   0.320  8.21044E-02  3.51096E-01 -2.68992E-01
    8989.514     -9.875   0.360  8.34198E-02  3.68473E-01 -2.85054E-01
    8989.630     -9.759   0.400  8.46742E-02  3.86470E-01 -3.01796E-01
    8989.758     -9.631   0.440  8.59563E-02  4.04629E-01 -3.18673E-01
    8989.899     -9.491   0.480  8.74617E-02  4.22633E-01 -3.35171E-01
    8990.051     -9.339   0.520  8.93729E-02  4.40265E-01 -3.50892E-01
    8990.216     -9.174   0.560  9.18192E-02  4.57388E-01 -3.65569E-01
    8990.392     -8.997   0.600  9.49643E-02  4.73995E-01 -3.79030E-01
    8990.581     -8.809   0.640  9.88106E-02  4.90114E-01 -3.91303E-01
    8990.782     -8.607   0.680  1.03254E-01  5.05845E-01 -4.02591E-01
    8990.996     -8.394   0.720  1.07960E-01  5.21260E-01 -4.13300E-01
    8991.221     -8.168   0.760  1.12500E-01  5.36409E-01 -4.23909E-01
    8991.459     -7.931   0.800  1.16843E-01  5.51395E-01 -4.34552E-01
    8991.709     -7.681   0.840  1.21487E-01  5.66227E-01 -4.44740E-01
    8991.971     -7.419   0.880  1.27408E-01  5.81005E-01 -4.53597E-01
    8992.245     -7.144   0.920  1.35580E-01  5.95717E-01 -4.60137E-01
    8992.532     -6.858   0.960  1.47027E-01  6.10397E-01 -4.63369E-01
    8992.831     -6.559   1.000  1.63051E-01  6.25054E-01 -4.62003E-01
    8993.142     -6.248   1.040  1.85386E-01  6.39688E-01 -4.54303E-01
    8993.465     -5.925   1.080  2.16390E-01  6.54292E-01 -4.37902E-01
    8993.800     -5.590   1.120  2.58285E-01  6.68832E-01 -4.10547E-01
    8994.147     -5.242   1.160  3.10699E-01  6.83332E-01 -3.72633E-01
    8994.507     -4.883   1.200  3.64084E-01  6.97750E-01 -3.33666E-01
    8994.879     -4.511   1.240  4.00354E-01  7.12042E-01 -3.11688E-01
    8995.263     -4.127   1.280  4.12785E-01  7.26222E-01 -3.13437E-01
    8995.659     -3.731   1.320  4.14698E-01  7.40222E-01 -3.25524E-01
    8996.068     -3.322   1.360  4.22271E-01  7.54051E-01 -3.31780E-01
    8996.488     -2.902   1.400  4.43480E-01  7.67640E-01 -3.24161E-01
    8996.921     -2.469   1.440  4.78297E-01  7.81000E-01 -3.02703E-01
    8997.366     -2.024   1.480  5.22101E-01  7.94076E-01 -2.71975E-01
    8997.823     -1.567   1.520  5.73460E-01  8.06838E-01 -2.33378E-01
    8998.293     -1.097   1.560  6.36805E-01  8.19277E-01 -1.82471E-01
    8998.774     -0.616   1.600  7.06042E-01  8.31362E-01 -1.25320E-01
    8999.268     -0.122   1.640  7.62537E-01  8.43085E-01 -8.05477E-02
    8999.774      0.384   1.680  8.20992E-01  8.54396E-01 -3.34043E-02
    9000.292      0.902   1.720  9.34711E-01  8.65309E-01  6.94019E-02
    9000.823      1.433   1.760  1.12701E+00  8.75797E-01  2.51217E-01
    9001.365      1.975   1.800  1.35388E+00  8.85835E-01  4.68048E-01
    9001.920      2.530   1.840  1.56729E+00  8.95439E-01  6.71854E-01
    9002.487      3.097   1.880  1.72550E+00  9.04587E-01  8.20916E-01
    9003.066      3.676   1.920  1.79629E+00  9.13275E-01  8.83013E-01
    9003.657      4.267   1.960  1.79638E+00  9.21502E-01  8.74882E-01
    9004.261      4.871   2.000  1.76998E+00  9.29250E-01  8.40728E-01
    9004.876      5.487   2.040  1.73580E+00  9.36540E-01  7.99264E-01
    9005.504      6.114   2.080  1.67441E+00  9.43395E-01  7.31014E-01
    9006.144      6.754   2.120  1.55251E+00  9.49776E-01  6.02735E-01
    9006.797      7.407   2.160  1.37789E+00  9.55711E-01  4.22181E-01
    9007.461      8.071   2.200  1.20554E+00  9.61223E-01  2.44318E-01
    9008.138      8.748   2.240  1.07128E+00  9.66318E-01  1.04959E-01
    9008.827      9.437   2.280  9.74934E-01  9.71002E-01  3.93223E-03
    9009.528     10.138   2.320  9.06256E-01  9.75282E-01 -6.90251E-02
    9010.241     10.851   2.360  8.58020E-01  9.79164E-01 -1.21145E-01
    9010.966     11.576   2.400  8.27532E-01  9.82699E-01 -1.55167E-01
    9011.704     12.314   2.440  8.12916E-01  9.85872E-01 -1.72957E-01
    9012.454     13.064   2.480  8.12073E-01  9.88713E-01 -1.76640E-01
    9013.216     13.826   2.520  8.29436E-01  9.91231E-01 -1.61795E-01
    9013.990     14.600   2.560  8.78231E-01  9.93452E-01 -1.15222E-01
    9014.776     15.386   2.600  9.35064E-01  9.95367E-01 -6.03033E-02
    9015.575     16.185   2.640  9.86243E-01  9.97024E-01 -1.07808E-02
    9016.386     16.996   2.680  1.02189E+00  9.98431E-01  2.34614E-02
    9017.209     17.819   2.720  1.03769E+00  9.99618E-01  3.80689E-02
    9018.044     18.654   2.760  1.03674E+00  1.00055E+00  3.61884E-02
    9018.891     19.501   2.800  1.02345E+00  1.00130E+00  2.21508E-02
    9019.751     20.361   2.840  1.00019E+00  1.00188E+00 -1.68834E-03
    9020.622     21.232   2.880  9.69553E-01  1.00226E+00 -3.27093E-02
    9021.506     22.116   2.920  9.33923E-01  1.00249E+00 -6.85637E-02
    9022.402     23.012   2.960  8.96867E-01  1.00258E+00 -1.05712E-01
    9023.311     23.921   3.000  8.62211E-01  1.00254E+00 -1.40333E-01
    9024.231     24.841   3.040  8.32949E-01  1.00239E+00 -1.69442E-01
    9025.164     25.774   3.080  8.11478E-01  1.00214E+00 -1.90666E-01
    9026.109     26.719   3.120  7.99049E-01  1.00179E+00 -2.02742E-01
    9027.066     27.676   3.160  7.95077E-01  1.00138E+00 -2.06299E-01
    9028.035     28.645   3.200  7.98735E-01  1.00086E+00 -2.02128E-01
    9029.016     29.627   3.240  8.09341E-01  1.00032E+00 -1.90982E-01
    9030.010     30.620   3.280  8.25408E-01  9.99718E-01 -1.74310E-01
    9031.016     31.626   3.320  8.44715E-01  9.99094E-01 -1.54379E-01
    9032.034     32.644   3.360  8.63919E-01  9.98434E-01 -1.34516E-01
    9033.064     33.674   3.400  8.79479E-01  9.97743E-01 -1.18264E-01
    9034.107     34.717   3.440  8.89642E-01  9.97065E-01 -1.07423E-01
    9035.161     35.771   3.480  8.95261E-01  9.96363E-01 -1.01102E-01
    9036.228     36.838   3.520  8.98786E-01  9.95658E-01 -9.68722E-02
    9037.307     37.917   3.560  9.02657E-01  9.94955E-01 -9.22988E-02
    9038.398     39.008   3.600  9.08705E-01  9.94277E-01 -8.55722E-02
    9039.501     40.112   3.640  9.17945E-01  9.93607E-01 -7.56614E-02
    9040.617     41.227   3.680  9.30960E-01  9.92946E-01 -6.19858E-02
    9041.745     42.355   3.720  9.48284E-01  9.92339E-01 -4.40543E-02
    9042.885     43.495   3.760  9.70232E-01  9.91745E-01 -2.15123E-02
    9044.037     44.647   3.800  9.96660E-01  9.91184E-01  5.47565E-03
    9045.201     45.811   3.840  1.02674E+00  9.90640E-01  3.61010E-02
    9046.378     46.988   3.880  1.05950E+00  9.90155E-01  6.93461E-02
    9047.566     48.177   3.920  1.09402E+00  9.89710E-01  1.04311E-01
    9048.767     49.378   3.960  1.12934E+00  9.89303E-01  1.40033E-01
    9049.980     50.591   4.000  1.16362E+00  9.88915E-01  1.74706E-01
    9051.206     51.816   4.040  1.19343E+00  9.88589E-01  2.04838E-01
    9052.443     53.053   4.080  1.21394E+00  9.88304E-01  2.25632E-01
    9053.693     54.303   4.120  1.22122E+00  9.88063E-01  2.33156E-01
    9054.955     55.565   4.160  1.21425E+00  9.87884E-01  2.26364E-01
    9056.229     56.839   4.200  1.19450E+00  9.87724E-01  2.06775E-01
    9057.515     58.125   4.240  1.16520E+00  9.87604E-01  1.77591E-01
    9058.814     59.424   4.280  1.13058E+00  9.87546E-01  1.43031E-01
    9060.124     60.734   4.320  1.09517E+00  9.87508E-01  1.07662E-01
    9061.447     62.057   4.360  1.06293E+00  9.87529E-01  7.54013E-02
    9062.782     63.392   4.400  1.03618E+00  9.87569E-01  4.86149E-02
    9064.129     64.739   4.440  1.01547E+00  9.87668E-01  2.78013E-02
    9065.489     66.099   4.480  9.99574E-01  9.87782E-01  1.17924E-02
    9066.860     67.470   4.520  9.86514E-01  9.87933E-01 -1.41876E-03
    9068.244     68.854   4.560  9.74502E-01  9.88120E-01 -1.36180E-02
    9069.640     70.250   4.600  9.62698E-01  9.88341E-01 -2.56431E-02
    9071.048     71.658   4.640  9.51147E-01  9.88574E-01 -3.74270E-02
    9072.469     73.079   4.680  9.40389E-01  9.88839E-01 -4.84504E-02
    9073.901     74.511   4.720  9.31018E-01  9.89137E-01 -5.81194E-02
    9075.346     75.956   4.760  9.23587E-01  9.89442E-01 -6.58546E-02
    9076.803     77.413   4.800  9.18617E-01  9.89753E-01 -7.11357E-02
    9078.272     78.882   4.840  9.16494E-01  9.90092E-01 -7.35976E-02
    9079.753     80.363   4.880  9.17340E-01  9.90438E-01 -7.30972E-02
    9081.247     81.857   4.920  9.20795E-01  9.90808E-01 -7.00123E-02
    9082.752     83.363   4.960  9.25864E-01  9.91158E-01 -6.52947E-02
    9084.270     84.881   5.000  9.31591E-01  9.91530E-01 -5.99389E-02
    9085.800     86.411   5.040  9.37571E-01  9.91881E-01 -5.43096E-02
    9087.343     87.953   5.080  9.44053E-01  9.92251E-01 -4.81980E-02
    9088.897     89.507   5.120  9.50977E-01  9.92598E-01 -4.16205E-02
    9090.464     91.074   5.160  9.57894E-01  9.92963E-01 -3.50686E-02
    9092.043     92.653   5.200  9.64494E-01  9.93302E-01 -2.88082E-02
    9093.634     94.244   5.240  9.70889E-01  9.93633E-01 -2.27445E-02
    9095.237     95.847   5.280  9.76933E-01  9.93934E-01 -1.70015E-02
    9096.852     97.463   5.320  9.81850E-01  9.94225E-01 -1.23750E-02
    9098.480     99.090   5.360  9.84760E-01  9.94486E-01 -9.72594E-03
    9100.120    100.730   5.400  9.85637E-01  9.94738E-01 -9.10097E-03
    9101.772    102.382   5.440  9.85672E-01  9.94980E-01 -9.30734E-03
    9103.436    104.046   5.480  9.86640E-01  9.95166E-01 -8.52544E-03
    9105.112    105.723   5.520  9.89852E-01  9.95361E-01 -5.50886E-03
    9106.801    107.411   5.560  9.94994E-01  9.95499E-01 -5.05896E-04
    9108.502    109.112   5.600  1.00048E+00  9.95625E-01  4.85944E-03
    9110.215    110.825   5.640  1.00408E+00  9.95714E-01  8.36889E-03
    9111.940    112.550   5.680  1.00366E+00  9.95763E-01  7.90172E-03
    9113.677    114.287   5.720  9.97503E-01  9.95777E-01  1.72628E-03
    9115.427    116.037   5.760  9.85002E-01  9.95776E-01 -1.07740E-02
    9117.189    117.799   5.800  9.67556E-01  9.95715E-01 -2.81587E-02
    9118.963    119.573   5.840  9.48446E-01  9.95640E-01 -4.71941E-02
    9120.749    121.359   5.880  9.31317E-01  9.95532E-01 -6.42143E-02
    9122.547    123.157   5.920  9.19357E-01  9.95387E-01 -7.60307E-02
    9124.357    124.968   5.960  9.15255E-01  9.95230E-01 -7.99756E-02
    9126.180    126.790   6.000  9.21674E-01  9.94990E-01 -7.33154E-02
