# # comment:                                                     FEFF 9.9.1  
# # Source:
# # Structure
# # Reduced
# # space
# # abc:
# # angles:
# # sites:
# # POT  SCF 100  7.0000   0, screened core-hole, AFOLP (folp(0)= 1.150)
# # Abs   Z=29 Rmt= 1.161 Rnm= 1.337 K  shell
# # Pot 1 Z=11 Rmt= 1.524 Rnm= 1.577
# # Pot 2 Z=29 Rmt= 1.161 Rnm= 1.337
# # Pot 3 Z= 8 Rmt= 1.026 Rnm= 1.112
# # Gam_ch=1.729E+00 H-L exch Vi= 0.000E+00 Vr= 0.000E+00
# # Mu=-7.252E+00eV kf=1.967E+00 Vint=-1.492E+01eV Rs_int= 1.843
# FMS rfms= 9.0000
# # PATH  Rmax=-1.000,  Keep_limit= 0.00, Heap_limit 0.00  Pwcrit= 2.50%
#  S02=0.950  Temp=   0.00  Debye_temp=   0.00  Global_sig2= 0.00000
#  Energy zero shift, vr, vi    0.00000E+00   0.00000E+00
#  Curved wave amplitude ratio filter   4.000%
#     file         sig2 tot  cw amp ratio   deg  nlegs   reff  inp sig2
#     0/   0 paths used
#  xsedge+ 50, used to normalize mu           2.4244E-04
#  -----------------------------------------------------------------------
#  omega    e    k    mu    mu0     chi     @#
    8984.149    -11.062  -1.000  4.75128E-02  5.79552E-02 -1.04424E-02
    8984.448    -10.763  -0.960  5.06628E-02  6.21953E-02 -1.15324E-02
    8984.735    -10.477  -0.920  5.41455E-02  6.69049E-02 -1.27594E-02
    8985.009    -10.202  -0.880  5.80100E-02  7.21525E-02 -1.41425E-02
    8985.271     -9.940  -0.840  6.23142E-02  7.80180E-02 -1.57038E-02
    8985.521     -9.690  -0.800  6.71251E-02  8.45934E-02 -1.74683E-02
    8985.759     -9.452  -0.760  7.25204E-02  9.19845E-02 -1.94640E-02
    8985.984     -9.227  -0.720  7.85886E-02  1.00311E-01 -2.17220E-02
    8986.198     -9.014  -0.680  8.54275E-02  1.09703E-01 -2.42754E-02
    8986.399     -8.812  -0.640  9.31410E-02  1.20300E-01 -2.71586E-02
    8986.588     -8.623  -0.600  1.01832E-01  1.32237E-01 -3.04048E-02
    8986.765     -8.447  -0.560  1.11587E-01  1.45629E-01 -3.40419E-02
    8986.929     -8.282  -0.520  1.22458E-01  1.60545E-01 -3.80872E-02
    8987.082     -8.130  -0.480  1.34429E-01  1.76969E-01 -4.25395E-02
    8987.222     -7.989  -0.440  1.47386E-01  1.94756E-01 -4.73699E-02
    8987.350     -7.861  -0.400  1.61086E-01  2.13600E-01 -5.25136E-02
    8987.466     -7.746  -0.360  1.75152E-01  2.33016E-01 -5.78643E-02
    8987.569     -7.642  -0.320  1.89101E-01  2.52378E-01 -6.32762E-02
    8987.661     -7.551  -0.280  2.02412E-01  2.70987E-01 -6.85743E-02
    8987.740     -7.471  -0.240  2.14599E-01  2.88171E-01 -7.35720E-02
    8987.807     -7.404  -0.200  2.25275E-01  3.03366E-01 -7.80907E-02
    8987.862     -7.349  -0.160  2.34180E-01  3.16155E-01 -8.19751E-02
    8987.905     -7.307  -0.120  2.41167E-01  3.26271E-01 -8.51039E-02
    8987.935     -7.276  -0.080  2.46168E-01  3.33562E-01 -8.73941E-02
    8987.959     -7.252   0.000  2.50147E-01  3.39423E-01 -8.92759E-02
    8988.014     -7.197   0.120  2.58965E-01  3.52647E-01 -9.36827E-02
    8988.057     -7.154   0.160  2.65831E-01  3.62944E-01 -9.71126E-02
    8988.112     -7.099   0.200  2.74524E-01  3.76087E-01 -1.01564E-01
    8988.179     -7.032   0.240  2.84926E-01  3.91935E-01 -1.07008E-01
    8988.258     -6.953   0.280  2.96765E-01  4.10148E-01 -1.13383E-01
    8988.350     -6.862   0.320  3.09805E-01  4.30329E-01 -1.20524E-01
    8988.453     -6.758   0.360  3.23693E-01  4.51891E-01 -1.28198E-01
    8988.569     -6.642   0.400  3.38137E-01  4.74248E-01 -1.36111E-01
    8988.697     -6.514   0.440  3.52859E-01  4.96862E-01 -1.44003E-01
    8988.837     -6.374   0.480  3.67450E-01  5.19278E-01 -1.51827E-01
    8988.990     -6.222   0.520  3.81407E-01  5.41229E-01 -1.59822E-01
    8989.154     -6.057   0.560  3.94152E-01  5.62590E-01 -1.68438E-01
    8989.331     -5.880   0.600  4.05315E-01  5.83302E-01 -1.77988E-01
    8989.520     -5.691   0.640  4.15133E-01  6.03399E-01 -1.88266E-01
    8989.721     -5.490   0.680  4.24646E-01  6.22951E-01 -1.98304E-01
    8989.935     -5.277   0.720  4.35374E-01  6.42038E-01 -2.06664E-01
    8990.160     -5.051   0.760  4.48502E-01  6.60742E-01 -2.12240E-01
    8990.398     -4.813   0.800  4.63983E-01  6.79131E-01 -2.15148E-01
    8990.648     -4.563   0.840  4.80360E-01  6.97220E-01 -2.16859E-01
    8990.910     -4.301   0.880  4.95915E-01  7.15069E-01 -2.19155E-01
    8991.184     -4.027   0.920  5.10135E-01  7.32685E-01 -2.22551E-01
    8991.471     -3.741   0.960  5.24408E-01  7.50061E-01 -2.25653E-01
    8991.769     -3.442   1.000  5.40862E-01  7.67220E-01 -2.26358E-01
    8992.080     -3.131   1.040  5.60720E-01  7.84093E-01 -2.23373E-01
    8992.403     -2.808   1.080  5.83902E-01  8.00687E-01 -2.16785E-01
    8992.739     -2.473   1.120  6.08625E-01  8.16984E-01 -2.08358E-01
    8993.086     -2.125   1.160  6.31555E-01  8.32895E-01 -2.01340E-01
    8993.446     -1.765   1.200  6.50133E-01  8.48435E-01 -1.98302E-01
    8993.818     -1.394   1.240  6.65315E-01  8.63533E-01 -1.98218E-01
    8994.202     -1.010   1.280  6.81207E-01  8.78176E-01 -1.96970E-01
    8994.598     -0.613   1.320  7.00946E-01  8.92293E-01 -1.91347E-01
    8995.006     -0.205   1.360  7.23780E-01  9.05893E-01 -1.82112E-01
    8995.427      0.216   1.400  7.45633E-01  9.18901E-01 -1.73268E-01
    8995.860      0.649   1.440  7.64741E-01  9.31311E-01 -1.66571E-01
    8996.305      1.094   1.480  7.84319E-01  9.43092E-01 -1.58773E-01
    8996.762      1.551   1.520  8.07552E-01  9.54237E-01 -1.46685E-01
    8997.231      2.020   1.560  8.34632E-01  9.64699E-01 -1.30067E-01
    8997.713      2.502   1.600  8.64498E-01  9.74518E-01 -1.10020E-01
    8998.207      2.996   1.640  8.95774E-01  9.83630E-01 -8.78560E-02
    8998.713      3.501   1.680  9.26602E-01  9.92078E-01 -6.54764E-02
    8999.231      4.020   1.720  9.54371E-01  9.99844E-01 -4.54730E-02
    8999.761      4.550   1.760  9.78681E-01  1.00695E+00 -2.82732E-02
    9000.304      5.093   1.800  1.00344E+00  1.01337E+00 -9.93400E-03
    9000.859      5.647   1.840  1.03451E+00  1.01917E+00  1.53403E-02
    9001.425      6.214   1.880  1.07527E+00  1.02434E+00  5.09346E-02
    9002.005      6.793   1.920  1.12445E+00  1.02890E+00  9.55467E-02
    9002.596      7.385   1.960  1.17665E+00  1.03286E+00  1.43791E-01
    9003.199      7.988   2.000  1.22488E+00  1.03628E+00  1.88599E-01
    9003.815      8.604   2.040  1.26223E+00  1.03914E+00  2.23087E-01
    9004.443      9.232   2.080  1.28163E+00  1.04151E+00  2.40123E-01
    9005.083      9.872   2.120  1.27891E+00  1.04339E+00  2.35514E-01
    9005.735     10.524   2.160  1.25983E+00  1.04484E+00  2.14992E-01
    9006.400     11.189   2.200  1.23837E+00  1.04587E+00  1.92509E-01
    9007.076     11.865   2.240  1.22649E+00  1.04649E+00  1.80004E-01
    9007.765     12.554   2.280  1.22877E+00  1.04676E+00  1.82013E-01
    9008.466     13.255   2.320  1.24119E+00  1.04669E+00  1.94493E-01
    9009.180     13.968   2.360  1.25460E+00  1.04631E+00  2.08290E-01
    9009.905     14.694   2.400  1.25308E+00  1.04566E+00  2.07417E-01
    9010.643     15.431   2.440  1.23120E+00  1.04479E+00  1.86410E-01
    9011.392     16.181   2.480  1.19393E+00  1.04367E+00  1.50255E-01
    9012.154     16.943   2.520  1.15024E+00  1.04235E+00  1.07889E-01
    9012.929     17.717   2.560  1.10674E+00  1.04087E+00  6.58688E-02
    9013.715     18.504   2.600  1.06728E+00  1.03924E+00  2.80399E-02
    9014.514     19.302   2.640  1.03415E+00  1.03749E+00 -3.33807E-03
    9015.324     20.113   2.680  1.00729E+00  1.03562E+00 -2.83312E-02
    9016.147     20.936   2.720  9.86147E-01  1.03368E+00 -4.75348E-02
    9016.982     21.771   2.760  9.70260E-01  1.03167E+00 -6.14109E-02
    9017.830     22.618   2.800  9.59045E-01  1.02959E+00 -7.05438E-02
    9018.689     23.478   2.840  9.52428E-01  1.02749E+00 -7.50606E-02
    9019.561     24.350   2.880  9.50199E-01  1.02536E+00 -7.51584E-02
    9020.445     25.234   2.920  9.51613E-01  1.02324E+00 -7.16317E-02
    9021.341     26.130   2.960  9.56127E-01  1.02113E+00 -6.50079E-02
    9022.249     27.038   3.000  9.63276E-01  1.01903E+00 -5.57569E-02
    9023.170     27.959   3.040  9.72468E-01  1.01696E+00 -4.44966E-02
    9024.103     28.891   3.080  9.82831E-01  1.01494E+00 -3.21064E-02
    9025.047     29.836   3.120  9.93299E-01  1.01295E+00 -1.96557E-02
    9026.004     30.793   3.160  1.00272E+00  1.01104E+00 -8.32380E-03
    9026.974     31.762   3.200  1.00993E+00  1.00921E+00  7.21567E-04
    9027.955     32.744   3.240  1.01411E+00  1.00742E+00  6.68601E-03
    9028.949     33.738   3.280  1.01479E+00  1.00575E+00  9.04025E-03
    9029.955     34.743   3.320  1.01165E+00  1.00413E+00  7.52647E-03
    9030.973     35.761   3.360  1.00499E+00  1.00262E+00  2.37696E-03
    9032.003     36.792   3.400  9.95734E-01  1.00119E+00 -5.45990E-03
    9033.045     37.834   3.440  9.85078E-01  9.99882E-01 -1.48040E-02
    9034.100     38.889   3.480  9.74253E-01  9.98660E-01 -2.44070E-02
    9035.167     39.955   3.520  9.64395E-01  9.97530E-01 -3.31344E-02
    9036.246     41.034   3.560  9.56331E-01  9.96534E-01 -4.02027E-02
    9037.337     42.126   3.600  9.50033E-01  9.95612E-01 -4.55785E-02
    9038.440     43.229   3.640  9.45045E-01  9.94825E-01 -4.97800E-02
    9039.556     44.345   3.680  9.40599E-01  9.94132E-01 -5.35328E-02
    9040.684     45.472   3.720  9.36089E-01  9.93532E-01 -5.74431E-02
    9041.824     46.612   3.760  9.31442E-01  9.93070E-01 -6.16282E-02
    9042.976     47.764   3.800  9.26972E-01  9.92701E-01 -6.57285E-02
    9044.140     48.929   3.840  9.23176E-01  9.92423E-01 -6.92470E-02
    9045.316     50.105   3.880  9.20498E-01  9.92261E-01 -7.17633E-02
    9046.505     51.294   3.920  9.19216E-01  9.92211E-01 -7.29956E-02
    9047.706     52.495   3.960  9.19468E-01  9.92251E-01 -7.27836E-02
    9048.919     53.708   4.000  9.21380E-01  9.92381E-01 -7.10015E-02
    9050.145     54.933   4.040  9.24997E-01  9.92619E-01 -6.76223E-02
    9051.382     56.171   4.080  9.30185E-01  9.92944E-01 -6.27587E-02
    9052.632     57.420   4.120  9.36733E-01  9.93352E-01 -5.66188E-02
    9053.894     58.682   4.160  9.44552E-01  9.93843E-01 -4.92909E-02
    9055.168     59.956   4.200  9.53896E-01  9.94414E-01 -4.05178E-02
    9056.454     61.243   4.240  9.65436E-01  9.95065E-01 -2.96293E-02
    9057.752     62.541   4.280  9.79893E-01  9.95792E-01 -1.58992E-02
    9059.063     63.852   4.320  9.97683E-01  9.96572E-01  1.11119E-03
    9060.386     65.174   4.360  1.01847E+00  9.97424E-01  2.10468E-02
    9061.721     66.509   4.400  1.04097E+00  9.98326E-01  4.26390E-02
    9063.068     67.857   4.440  1.06338E+00  9.99296E-01  6.40822E-02
    9064.427     69.216   4.480  1.08380E+00  1.00031E+00  8.34885E-02
    9065.799     70.588   4.520  1.10062E+00  1.00134E+00  9.92841E-02
    9067.183     71.971   4.560  1.11290E+00  1.00243E+00  1.10474E-01
    9068.579     73.367   4.600  1.12018E+00  1.00353E+00  1.16652E-01
    9069.987     74.776   4.640  1.12257E+00  1.00467E+00  1.17896E-01
    9071.407     76.196   4.680  1.12047E+00  1.00584E+00  1.14634E-01
    9072.840     77.629   4.720  1.11436E+00  1.00699E+00  1.07371E-01
    9074.285     79.073   4.760  1.10467E+00  1.00816E+00  9.65037E-02
    9075.742     80.530   4.800  1.09161E+00  1.00934E+00  8.22735E-02
    9077.211     81.999   4.840  1.07566E+00  1.01051E+00  6.51498E-02
    9078.692     83.481   4.880  1.05772E+00  1.01168E+00  4.60390E-02
    9080.185     84.974   4.920  1.03905E+00  1.01282E+00  2.62270E-02
    9081.691     86.480   4.960  1.02104E+00  1.01395E+00  7.08660E-03
    9083.209     87.998   5.000  1.00494E+00  1.01505E+00 -1.01049E-02
    9084.739     89.528   5.040  9.91991E-01  1.01613E+00 -2.41376E-02
    9086.281     91.070   5.080  9.83184E-01  1.01715E+00 -3.39640E-02
    9087.836     92.625   5.120  9.79164E-01  1.01815E+00 -3.89822E-02
    9089.403     94.191   5.160  9.79693E-01  1.01908E+00 -3.93882E-02
    9090.981     95.770   5.200  9.83797E-01  1.01999E+00 -3.61940E-02
    9092.572     97.361   5.240  9.89943E-01  1.02083E+00 -3.08882E-02
    9094.176     98.964   5.280  9.96729E-01  1.02160E+00 -2.48696E-02
    9095.791    100.580   5.320  1.00321E+00  1.02232E+00 -1.91085E-02
    9097.419    102.208   5.360  1.00884E+00  1.02298E+00 -1.41379E-02
    9099.059    103.847   5.400  1.01328E+00  1.02357E+00 -1.02908E-02
    9100.711    105.499   5.440  1.01616E+00  1.02408E+00 -7.92825E-03
    9102.375    107.164   5.480  1.01711E+00  1.02452E+00 -7.40993E-03
    9104.051    108.840   5.520  1.01605E+00  1.02490E+00 -8.84737E-03
    9105.740    110.529   5.560  1.01332E+00  1.02520E+00 -1.18767E-02
    9107.441    112.229   5.600  1.00963E+00  1.02542E+00 -1.57922E-02
    9109.154    113.942   5.640  1.00567E+00  1.02556E+00 -1.98894E-02
    9110.879    115.667   5.680  1.00215E+00  1.02562E+00 -2.34664E-02
    9112.616    117.405   5.720  1.00001E+00  1.02562E+00 -2.56132E-02
    9114.366    119.154   5.760  1.00010E+00  1.02552E+00 -2.54234E-02
    9116.127    120.916   5.800  1.00275E+00  1.02537E+00 -2.26168E-02
    9117.901    122.690   5.840  1.00730E+00  1.02511E+00 -1.78162E-02
    9119.687    124.476   5.880  1.01274E+00  1.02480E+00 -1.20673E-02
    9121.486    126.274   5.920  1.01823E+00  1.02444E+00 -6.20983E-03
    9123.296    128.085   5.960  1.02324E+00  1.02398E+00 -7.36884E-04
    9125.119    129.908   6.000  1.02743E+00  1.02340E+00  4.03208E-03
