# # comment:                                                     FEFF 9.9.1  
# # Source:
# # Structure
# # Reduced
# # space
# # abc:
# # angles:109.471221
# # sites:
# # POT  SCF 100  7.0000   0, screened core-hole, AFOLP (folp(0)= 1.150)
# # Abs   Z=29 Rmt= 1.258 Rnm= 1.328 K  shell
# # Pot 1 Z=20 Rmt= 1.680 Rnm= 1.720
# # Pot 2 Z=29 Rmt= 1.258 Rnm= 1.328
# # Pot 3 Z=32 Rmt= 1.236 Rnm= 1.348
# # Pot 4 Z= 8 Rmt= 1.006 Rnm= 1.074
# # Gam_ch=1.729E+00 H-L exch Vi= 0.000E+00 Vr= 0.000E+00
# # Mu=-7.278E+00eV kf=2.261E+00 Vint=-1.743E+01eV Rs_int= 1.604
# FMS rfms= 9.0000
# # PATH  Rmax=-1.000,  Keep_limit= 0.00, Heap_limit 0.00  Pwcrit= 2.50%
#  S02=0.950  Temp=   0.00  Debye_temp=   0.00  Global_sig2= 0.00000
#  Energy zero shift, vr, vi    0.00000E+00   0.00000E+00
#  Curved wave amplitude ratio filter   4.000%
#     file         sig2 tot  cw amp ratio   deg  nlegs   reff  inp sig2
#     0/   0 paths used
#  xsedge+ 50, used to normalize mu           2.4824E-04
#  -----------------------------------------------------------------------
#  omega    e    k    mu    mu0     chi     @#
    8983.812    -11.088  -1.000  3.92633E-02  4.99597E-02 -1.06963E-02
    8984.111    -10.789  -0.960  4.13739E-02  5.35310E-02 -1.21571E-02
    8984.397    -10.503  -0.920  4.36352E-02  5.74978E-02 -1.38626E-02
    8984.672    -10.228  -0.880  4.60597E-02  6.19183E-02 -1.58586E-02
    8984.934     -9.966  -0.840  4.86611E-02  6.68606E-02 -1.81995E-02
    8985.184     -9.716  -0.800  5.14535E-02  7.24033E-02 -2.09498E-02
    8985.421     -9.479  -0.760  5.44521E-02  7.86370E-02 -2.41849E-02
    8985.647     -9.253  -0.720  5.76720E-02  8.56639E-02 -2.79919E-02
    8985.860     -9.040  -0.680  6.11282E-02  9.35965E-02 -3.24683E-02
    8986.061     -8.839  -0.640  6.48341E-02  1.02554E-01 -3.77199E-02
    8986.250     -8.650  -0.600  6.88001E-02  1.12653E-01 -4.38531E-02
    8986.427     -8.473  -0.560  7.30307E-02  1.23994E-01 -5.09633E-02
    8986.592     -8.308  -0.520  7.75212E-02  1.36636E-01 -5.91146E-02
    8986.744     -8.156  -0.480  8.22525E-02  1.50566E-01 -6.83130E-02
    8986.884     -8.016  -0.440  8.71861E-02  1.65661E-01 -7.84748E-02
    8987.012     -7.888  -0.400  9.22592E-02  1.81658E-01 -8.93992E-02
    8987.128     -7.772  -0.360  9.73825E-02  1.98144E-01 -1.00762E-01
    8987.232     -7.668  -0.320  1.02443E-01  2.14581E-01 -1.12138E-01
    8987.323     -7.577  -0.280  1.07310E-01  2.30372E-01 -1.23062E-01
    8987.403     -7.497  -0.240  1.11849E-01  2.44943E-01 -1.33095E-01
    8987.470     -7.430  -0.200  1.15929E-01  2.57817E-01 -1.41888E-01
    8987.525     -7.376  -0.160  1.19437E-01  2.68643E-01 -1.49206E-01
    8987.567     -7.333  -0.120  1.22275E-01  2.77198E-01 -1.54923E-01
    8987.598     -7.302  -0.080  1.24372E-01  2.83361E-01 -1.58989E-01
    8987.622     -7.278   0.000  1.26121E-01  2.88312E-01 -1.62191E-01
    8987.677     -7.223   0.120  1.30041E-01  2.99462E-01 -1.69421E-01
    8987.720     -7.180   0.160  1.33124E-01  3.08138E-01 -1.75014E-01
    8987.774     -7.126   0.200  1.37138E-01  3.19192E-01 -1.82054E-01
    8987.842     -7.059   0.240  1.42174E-01  3.32488E-01 -1.90314E-01
    8987.921     -6.979   0.280  1.48263E-01  3.47733E-01 -1.99470E-01
    8988.012     -6.888   0.320  1.55496E-01  3.64549E-01 -2.09053E-01
    8988.116     -6.784   0.360  1.63910E-01  3.82425E-01 -2.18515E-01
    8988.232     -6.668   0.400  1.73555E-01  4.00837E-01 -2.27283E-01
    8988.360     -6.540   0.440  1.84505E-01  4.19308E-01 -2.34803E-01
    8988.500     -6.400   0.480  1.96899E-01  4.37450E-01 -2.40552E-01
    8988.652     -6.248   0.520  2.10963E-01  4.55032E-01 -2.44069E-01
    8988.817     -6.083   0.560  2.27139E-01  4.71946E-01 -2.44807E-01
    8988.994     -5.906   0.600  2.46043E-01  4.88187E-01 -2.42144E-01
    8989.183     -5.717   0.640  2.68530E-01  5.03789E-01 -2.35260E-01
    8989.384     -5.516   0.680  2.95875E-01  5.18824E-01 -2.22950E-01
    8989.597     -5.303   0.720  3.29974E-01  5.33414E-01 -2.03440E-01
    8989.823     -5.077   0.760  3.73194E-01  5.47643E-01 -1.74449E-01
    8990.060     -4.840   0.800  4.27241E-01  5.61564E-01 -1.34323E-01
    8990.310     -4.590   0.840  4.89906E-01  5.75300E-01 -8.53933E-02
    8990.573     -4.328   0.880  5.50455E-01  5.88860E-01 -3.84047E-02
    8990.847     -4.053   0.920  5.94205E-01  6.02323E-01 -8.11764E-03
    8991.133     -3.767   0.960  6.20318E-01  6.15718E-01  4.60022E-03
    8991.432     -3.468   1.000  6.46176E-01  6.29038E-01  1.71389E-02
    8991.743     -3.157   1.040  6.84084E-01  6.42334E-01  4.17506E-02
    8992.066     -2.834   1.080  7.21484E-01  6.55608E-01  6.58756E-02
    8992.401     -2.499   1.120  7.30419E-01  6.68835E-01  6.15836E-02
    8992.749     -2.151   1.160  6.98591E-01  6.82045E-01  1.65464E-02
    8993.108     -1.792   1.200  6.41702E-01  6.95204E-01 -5.35019E-02
    8993.480     -1.420   1.240  5.85305E-01  7.08294E-01 -1.22989E-01
    8993.864     -1.036   1.280  5.48001E-01  7.21336E-01 -1.73335E-01
    8994.261     -0.640   1.320  5.36416E-01  7.34266E-01 -1.97851E-01
    8994.669     -0.231   1.360  5.45847E-01  7.47080E-01 -2.01233E-01
    8995.090      0.190   1.400  5.64029E-01  7.59773E-01 -1.95744E-01
    8995.522      0.622   1.440  5.88083E-01  7.72296E-01 -1.84213E-01
    8995.967      1.067   1.480  6.33554E-01  7.84642E-01 -1.51087E-01
    8996.425      1.525   1.520  7.18250E-01  7.96783E-01 -7.85330E-02
    8996.894      1.994   1.560  8.46610E-01  8.08710E-01  3.79007E-02
    8997.376      2.476   1.600  9.99736E-01  8.20373E-01  1.79363E-01
    8997.869      2.969   1.640  1.12694E+00  8.31784E-01  2.95160E-01
    8998.375      3.475   1.680  1.18311E+00  8.42895E-01  3.40217E-01
    8998.894      3.993   1.720  1.17159E+00  8.53698E-01  3.17893E-01
    8999.424      4.524   1.760  1.08859E+00  8.64163E-01  2.24424E-01
    8999.966      5.066   1.800  9.69044E-01  8.74306E-01  9.47378E-02
    9000.521      5.621   1.840  8.79957E-01  8.84079E-01 -4.12262E-03
    9001.088      6.188   1.880  8.35602E-01  8.93478E-01 -5.78762E-02
    9001.667      6.767   1.920  8.24438E-01  9.02496E-01 -7.80580E-02
    9002.258      7.358   1.960  8.39947E-01  9.11130E-01 -7.11832E-02
    9002.862      7.962   2.000  8.82089E-01  9.19377E-01 -3.72880E-02
    9003.478      8.578   2.040  9.56349E-01  9.27195E-01  2.91535E-02
    9004.106      9.205   2.080  1.06036E+00  9.34622E-01  1.25739E-01
    9004.746      9.846   2.120  1.15637E+00  9.41636E-01  2.14735E-01
    9005.398     10.498   2.160  1.19401E+00  9.48219E-01  2.45790E-01
    9006.062     11.162   2.200  1.17790E+00  9.54411E-01  2.23493E-01
    9006.739     11.839   2.240  1.15103E+00  9.60196E-01  1.90837E-01
    9007.428     12.528   2.280  1.13883E+00  9.65576E-01  1.73252E-01
    9008.129     13.229   2.320  1.14273E+00  9.70573E-01  1.72153E-01
    9008.842     13.942   2.360  1.15995E+00  9.75172E-01  1.84778E-01
    9009.568     14.667   2.400  1.19292E+00  9.79396E-01  2.13522E-01
    9010.305     15.405   2.440  1.23578E+00  9.83253E-01  2.52524E-01
    9011.055     16.155   2.480  1.26746E+00  9.86746E-01  2.80716E-01
    9011.817     16.917   2.520  1.26704E+00  9.89900E-01  2.77136E-01
    9012.591     17.691   2.560  1.22720E+00  9.92704E-01  2.34491E-01
    9013.378     18.477   2.600  1.15204E+00  9.95204E-01  1.56835E-01
    9014.176     19.276   2.640  1.05961E+00  9.97385E-01  6.22220E-02
    9014.987     20.087   2.680  9.85469E-01  9.99255E-01 -1.37862E-02
    9015.810     20.910   2.720  9.45569E-01  1.00086E+00 -5.52946E-02
    9016.645     21.745   2.760  9.25935E-01  1.00222E+00 -7.62832E-02
    9017.492     22.592   2.800  9.16009E-01  1.00330E+00 -8.72954E-02
    9018.352     23.452   2.840  9.10743E-01  1.00417E+00 -9.34278E-02
    9019.224     24.324   2.880  9.08477E-01  1.00480E+00 -9.63283E-02
    9020.107     25.207   2.920  9.07770E-01  1.00525E+00 -9.74840E-02
    9021.004     26.104   2.960  9.05719E-01  1.00549E+00 -9.97669E-02
    9021.912     27.012   3.000  9.00101E-01  1.00557E+00 -1.05467E-01
    9022.832     27.932   3.040  8.91437E-01  1.00547E+00 -1.14029E-01
    9023.765     28.865   3.080  8.82352E-01  1.00523E+00 -1.22876E-01
    9024.710     29.810   3.120  8.75198E-01  1.00484E+00 -1.29644E-01
    9025.667     30.767   3.160  8.71043E-01  1.00435E+00 -1.33312E-01
    9026.636     31.736   3.200  8.70089E-01  1.00375E+00 -1.33664E-01
    9027.618     32.718   3.240  8.72094E-01  1.00306E+00 -1.30969E-01
    9028.611     33.711   3.280  8.76215E-01  1.00229E+00 -1.26075E-01
    9029.617     34.717   3.320  8.81118E-01  1.00144E+00 -1.20322E-01
    9030.635     35.735   3.360  8.85549E-01  1.00054E+00 -1.14991E-01
    9031.665     36.765   3.400  8.88803E-01  9.99593E-01 -1.10790E-01
    9032.708     37.808   3.440  8.90865E-01  9.98585E-01 -1.07719E-01
    9033.762     38.862   3.480  8.92672E-01  9.97560E-01 -1.04888E-01
    9034.829     39.929   3.520  8.95693E-01  9.96526E-01 -1.00833E-01
    9035.908     41.008   3.560  9.01428E-01  9.95463E-01 -9.40357E-02
    9036.999     42.099   3.600  9.10930E-01  9.94397E-01 -8.34679E-02
    9038.103     43.203   3.640  9.24610E-01  9.93353E-01 -6.87429E-02
    9039.218     44.318   3.680  9.41847E-01  9.92293E-01 -5.04460E-02
    9040.346     45.446   3.720  9.61205E-01  9.91259E-01 -3.00543E-02
    9041.486     46.586   3.760  9.80946E-01  9.90258E-01 -9.31159E-03
    9042.638     47.738   3.800  9.99596E-01  9.89290E-01  1.03062E-02
    9043.803     48.902   3.840  1.01608E+00  9.88337E-01  2.77445E-02
    9044.979     50.079   3.880  1.02987E+00  9.87423E-01  4.24503E-02
    9046.168     51.268   3.920  1.04079E+00  9.86570E-01  5.42250E-02
    9047.369     52.469   3.960  1.04884E+00  9.85737E-01  6.31050E-02
    9048.582     53.682   4.000  1.05422E+00  9.84969E-01  6.92540E-02
    9049.807     54.907   4.040  1.05705E+00  9.84247E-01  7.27994E-02
    9051.045     56.145   4.080  1.05739E+00  9.83593E-01  7.38019E-02
    9052.294     57.394   4.120  1.05572E+00  9.82985E-01  7.27388E-02
    9053.556     58.656   4.160  1.05340E+00  9.82425E-01  7.09727E-02
    9054.830     59.930   4.200  1.05215E+00  9.81934E-01  7.02132E-02
    9056.116     61.216   4.240  1.05304E+00  9.81513E-01  7.15282E-02
    9057.415     62.515   4.280  1.05596E+00  9.81120E-01  7.48427E-02
    9058.725     63.825   4.320  1.06011E+00  9.80818E-01  7.92896E-02
    9060.048     65.148   4.360  1.06424E+00  9.80565E-01  8.36708E-02
    9061.383     66.483   4.400  1.06712E+00  9.80361E-01  8.67583E-02
    9062.731     67.830   4.440  1.06745E+00  9.80228E-01  8.72214E-02
    9064.090     69.190   4.480  1.06382E+00  9.80165E-01  8.36527E-02
    9065.462     70.561   4.520  1.05526E+00  9.80149E-01  7.51129E-02
    9066.845     71.945   4.560  1.04222E+00  9.80179E-01  6.20392E-02
    9068.241     73.341   4.600  1.02664E+00  9.80275E-01  4.63637E-02
    9069.649     74.749   4.640  1.01118E+00  9.80396E-01  3.07854E-02
    9071.070     76.170   4.680  9.98210E-01  9.80602E-01  1.76083E-02
    9072.502     77.602   4.720  9.88559E-01  9.80830E-01  7.72843E-03
    9073.947     79.047   4.760  9.81702E-01  9.81100E-01  6.01734E-04
    9075.404     80.504   4.800  9.76588E-01  9.81431E-01 -4.84276E-03
    9076.873     81.973   4.840  9.72440E-01  9.81779E-01 -9.33853E-03
    9078.355     83.454   4.880  9.69100E-01  9.82164E-01 -1.30637E-02
    9079.848     84.948   4.920  9.66606E-01  9.82608E-01 -1.60021E-02
    9081.354     86.454   4.960  9.64889E-01  9.83043E-01 -1.81536E-02
    9082.872     87.972   5.000  9.64240E-01  9.83531E-01 -1.92911E-02
    9084.402     89.502   5.040  9.64888E-01  9.84029E-01 -1.91409E-02
    9085.944     91.044   5.080  9.66655E-01  9.84534E-01 -1.78783E-02
    9087.498     92.598   5.120  9.68389E-01  9.85066E-01 -1.66770E-02
    9089.065     94.165   5.160  9.68015E-01  9.85602E-01 -1.75880E-02
    9090.644     95.744   5.200  9.63606E-01  9.86139E-01 -2.25329E-02
    9092.235     97.335   5.240  9.54477E-01  9.86676E-01 -3.21998E-02
    9093.838     98.938   5.280  9.41637E-01  9.87213E-01 -4.55760E-02
    9095.454    100.554   5.320  9.27307E-01  9.87747E-01 -6.04401E-02
    9097.081    102.181   5.360  9.13965E-01  9.88277E-01 -7.43122E-02
    9098.721    103.821   5.400  9.03448E-01  9.88777E-01 -8.53294E-02
    9100.373    105.473   5.440  8.96689E-01  9.89271E-01 -9.25816E-02
    9102.037    107.137   5.480  8.93918E-01  9.89757E-01 -9.58389E-02
    9103.714    108.814   5.520  8.95167E-01  9.90209E-01 -9.50426E-02
    9105.402    110.502   5.560  9.00569E-01  9.90627E-01 -9.00575E-02
    9107.103    112.203   5.600  9.10197E-01  9.91032E-01 -8.08359E-02
    9108.816    113.916   5.640  9.23920E-01  9.91401E-01 -6.74812E-02
    9110.541    115.641   5.680  9.41538E-01  9.91731E-01 -5.01935E-02
    9112.279    117.379   5.720  9.62720E-01  9.92022E-01 -2.93020E-02
    9114.028    119.128   5.760  9.86635E-01  9.92272E-01 -5.63760E-03
    9115.790    120.890   5.800  1.01157E+00  9.92482E-01  1.90884E-02
    9117.564    122.664   5.840  1.03535E+00  9.92652E-01  4.27029E-02
    9119.350    124.450   5.880  1.05633E+00  9.92779E-01  6.35549E-02
    9121.148    126.248   5.920  1.07356E+00  9.92862E-01  8.06980E-02
    9122.959    128.059   5.960  1.08570E+00  9.92870E-01  9.28324E-02
    9124.781    129.881   6.000  1.09029E+00  9.92836E-01  9.74492E-02
