# # comment:                                                     FEFF 9.9.1  
# # Source:
# # Structure
# # Reduced
# # space
# # abc:
# # angles:
# # sites:
# # POT  SCF 100  7.0000   0, screened core-hole, AFOLP (folp(0)= 1.150)
# # Abs   Z=29 Rmt= 1.178 Rnm= 1.293 K  shell
# # Pot 1 Z=56 Rmt= 1.927 Rnm= 1.979
# # Pot 2 Z=57 Rmt= 1.842 Rnm= 1.912
# # Pot 3 Z=29 Rmt= 1.178 Rnm= 1.293
# # Pot 4 Z= 8 Rmt= 1.085 Rnm= 1.136
# # Gam_ch=1.729E+00 H-L exch Vi= 0.000E+00 Vr= 0.000E+00
# # Mu=-8.933E+00eV kf=1.978E+00 Vint=-1.751E+01eV Rs_int= 1.833
# FMS rfms= 9.0000
# # PATH  Rmax=-1.000,  Keep_limit= 0.00, Heap_limit 0.00  Pwcrit= 2.50%
#  S02=0.950  Temp=   0.00  Debye_temp=   0.00  Global_sig2= 0.00000
#  Energy zero shift, vr, vi    0.00000E+00   0.00000E+00
#  Curved wave amplitude ratio filter   4.000%
#     file         sig2 tot  cw amp ratio   deg  nlegs   reff  inp sig2
#     0/   0 paths used
#  xsedge+ 50, used to normalize mu           2.4514E-04
#  -----------------------------------------------------------------------
#  omega    e    k    mu    mu0     chi     @#
    8984.958    -12.743  -1.000  3.79139E-02  5.67946E-02 -1.88807E-02
    8985.256    -12.445  -0.960  3.99431E-02  6.09768E-02 -2.10337E-02
    8985.543    -12.158  -0.920  4.21491E-02  6.56270E-02 -2.34778E-02
    8985.817    -11.884  -0.880  4.45572E-02  7.08143E-02 -2.62572E-02
    8986.079    -11.622  -0.840  4.71968E-02  7.66191E-02 -2.94223E-02
    8986.329    -11.372  -0.800  5.01031E-02  8.31343E-02 -3.30312E-02
    8986.567    -11.134  -0.760  5.33169E-02  9.04668E-02 -3.71500E-02
    8986.793    -10.908  -0.720  5.68852E-02  9.87373E-02 -4.18521E-02
    8987.006    -10.695  -0.680  6.08607E-02  1.08078E-01 -4.72177E-02
    8987.207    -10.494  -0.640  6.53001E-02  1.18631E-01 -5.33305E-02
    8987.396    -10.305  -0.600  7.02596E-02  1.30531E-01 -6.02719E-02
    8987.573    -10.128  -0.560  7.57874E-02  1.43899E-01 -6.81112E-02
    8987.737     -9.963  -0.520  8.19115E-02  1.58802E-01 -7.68903E-02
    8987.890     -9.811  -0.480  8.86230E-02  1.75226E-01 -8.66029E-02
    8988.030     -9.671  -0.440  9.58561E-02  1.93027E-01 -9.71705E-02
    8988.158     -9.543  -0.400  1.03473E-01  2.11894E-01 -1.08421E-01
    8988.274     -9.427  -0.360  1.11259E-01  2.31341E-01 -1.20081E-01
    8988.378     -9.323  -0.320  1.18945E-01  2.50734E-01 -1.31789E-01
    8988.469     -9.232  -0.280  1.26238E-01  2.69371E-01 -1.43132E-01
    8988.548     -9.153  -0.240  1.32874E-01  2.86574E-01 -1.53700E-01
    8988.615     -9.086  -0.200  1.38649E-01  3.01779E-01 -1.63129E-01
    8988.670     -9.031  -0.160  1.43432E-01  3.14569E-01 -1.71137E-01
    8988.713     -8.988  -0.120  1.47154E-01  3.24680E-01 -1.77526E-01
    8988.743     -8.958  -0.080  1.49791E-01  3.31964E-01 -1.82173E-01
    8988.768     -8.933   0.000  1.51849E-01  3.37816E-01 -1.85967E-01
    8988.823     -8.878   0.120  1.56686E-01  3.51011E-01 -1.94325E-01
    8988.865     -8.836   0.160  1.60371E-01  3.61259E-01 -2.00888E-01
    8988.920     -8.781   0.200  1.65002E-01  3.74364E-01 -2.09362E-01
    8988.987     -8.714   0.240  1.70401E-01  3.90111E-01 -2.19709E-01
    8989.066     -8.635   0.280  1.76371E-01  4.08205E-01 -2.31834E-01
    8989.158     -8.543   0.320  1.82609E-01  4.28191E-01 -2.45582E-01
    8989.261     -8.439   0.360  1.88719E-01  4.49456E-01 -2.60737E-01
    8989.377     -8.324   0.400  1.94339E-01  4.71415E-01 -2.77076E-01
    8989.505     -8.196   0.440  1.99018E-01  4.93473E-01 -2.94455E-01
    8989.645     -8.055   0.480  2.02484E-01  5.15220E-01 -3.12736E-01
    8989.798     -7.903   0.520  2.04584E-01  5.36363E-01 -3.31779E-01
    8989.962     -7.738   0.560  2.05502E-01  5.56732E-01 -3.51230E-01
    8990.139     -7.562   0.600  2.05889E-01  5.76333E-01 -3.70444E-01
    8990.328     -7.373   0.640  2.06574E-01  5.95205E-01 -3.88631E-01
    8990.529     -7.172   0.680  2.08332E-01  6.13382E-01 -4.05049E-01
    8990.743     -6.958   0.720  2.11954E-01  6.30996E-01 -4.19042E-01
    8990.968     -6.733   0.760  2.18205E-01  6.48136E-01 -4.29931E-01
    8991.206     -6.495   0.800  2.27826E-01  6.64861E-01 -4.37035E-01
    8991.456     -6.245   0.840  2.41614E-01  6.81236E-01 -4.39622E-01
    8991.718     -5.983   0.880  2.60192E-01  6.97311E-01 -4.37119E-01
    8991.992     -5.708   0.920  2.83917E-01  7.13123E-01 -4.29206E-01
    8992.279     -5.422   0.960  3.12840E-01  7.28694E-01 -4.15854E-01
    8992.578     -5.123   1.000  3.46850E-01  7.44018E-01 -3.97167E-01
    8992.889     -4.812   1.040  3.85796E-01  7.59096E-01 -3.73300E-01
    8993.212     -4.489   1.080  4.29203E-01  7.73905E-01 -3.44701E-01
    8993.547     -4.154   1.120  4.76932E-01  7.88453E-01 -3.11520E-01
    8993.894     -3.807   1.160  5.29202E-01  8.02703E-01 -2.73501E-01
    8994.254     -3.447   1.200  5.83073E-01  8.16659E-01 -2.33585E-01
    8994.626     -3.075   1.240  6.27682E-01  8.30254E-01 -2.02572E-01
    8995.010     -2.691   1.280  6.52233E-01  8.43485E-01 -1.91252E-01
    8995.406     -2.295   1.320  6.57453E-01  8.56326E-01 -1.98873E-01
    8995.815     -1.886   1.360  6.55289E-01  8.68730E-01 -2.13440E-01
    8996.235     -1.466   1.400  6.63925E-01  8.80711E-01 -2.16786E-01
    8996.668     -1.033   1.440  6.94999E-01  8.92222E-01 -1.97223E-01
    8997.113     -0.588   1.480  7.44978E-01  9.03257E-01 -1.58279E-01
    8997.570     -0.131   1.520  7.89815E-01  9.13770E-01 -1.23955E-01
    8998.040      0.339   1.560  8.01789E-01  9.23777E-01 -1.21989E-01
    8998.521      0.820   1.600  8.02220E-01  9.33255E-01 -1.31035E-01
    8999.015      1.314   1.640  8.40810E-01  9.42182E-01 -1.01373E-01
    8999.521      1.820   1.680  9.40855E-01  9.50600E-01 -9.74513E-03
    9000.039      2.338   1.720  1.09426E+00  9.58446E-01  1.35810E-01
    9000.569      2.869   1.760  1.25682E+00  9.65764E-01  2.91055E-01
    9001.112      3.411   1.800  1.35463E+00  9.72559E-01  3.82066E-01
    9001.667      3.966   1.840  1.38607E+00  9.78815E-01  4.07254E-01
    9002.234      4.533   1.880  1.41247E+00  9.84556E-01  4.27913E-01
    9002.813      5.112   1.920  1.42243E+00  9.89771E-01  4.32662E-01
    9003.404      5.703   1.960  1.38621E+00  9.94528E-01  3.91686E-01
    9004.008      6.307   2.000  1.31774E+00  9.98775E-01  3.18964E-01
    9004.623      6.922   2.040  1.25402E+00  1.00258E+00  2.51439E-01
    9005.251      7.550   2.080  1.21458E+00  1.00594E+00  2.08645E-01
    9005.891      8.190   2.120  1.19525E+00  1.00889E+00  1.86356E-01
    9006.544      8.843   2.160  1.18223E+00  1.01142E+00  1.70808E-01
    9007.208      9.507   2.200  1.16334E+00  1.01359E+00  1.49749E-01
    9007.885     10.184   2.240  1.13962E+00  1.01540E+00  1.24217E-01
    9008.573     10.873   2.280  1.12116E+00  1.01687E+00  1.04288E-01
    9009.275     11.574   2.320  1.11321E+00  1.01804E+00  9.51661E-02
    9009.988     12.287   2.360  1.11746E+00  1.01892E+00  9.85429E-02
    9010.713     13.012   2.400  1.13574E+00  1.01952E+00  1.16218E-01
    9011.451     13.750   2.440  1.15779E+00  1.01989E+00  1.37901E-01
    9012.201     14.500   2.480  1.17480E+00  1.02002E+00  1.54780E-01
    9012.963     15.262   2.520  1.17939E+00  1.01995E+00  1.59437E-01
    9013.737     16.036   2.560  1.16668E+00  1.01968E+00  1.47004E-01
    9014.523     16.822   2.600  1.13798E+00  1.01926E+00  1.18727E-01
    9015.322     17.621   2.640  1.09915E+00  1.01868E+00  8.04733E-02
    9016.132     18.432   2.680  1.05758E+00  1.01798E+00  3.96004E-02
    9016.955     19.255   2.720  1.01973E+00  1.01718E+00  2.55103E-03
    9017.791     20.090   2.760  9.88857E-01  1.01626E+00 -2.74053E-02
    9018.638     20.937   2.800  9.65267E-01  1.01527E+00 -4.99977E-02
    9019.497     21.797   2.840  9.48507E-01  1.01421E+00 -6.57058E-02
    9020.369     22.668   2.880  9.37492E-01  1.01311E+00 -7.56203E-02
    9021.253     23.552   2.920  9.30680E-01  1.01195E+00 -8.12680E-02
    9022.149     24.448   2.960  9.26581E-01  1.01077E+00 -8.41852E-02
    9023.058     25.357   3.000  9.23658E-01  1.00956E+00 -8.58974E-02
    9023.978     26.277   3.040  9.20868E-01  1.00836E+00 -8.74925E-02
    9024.911     27.210   3.080  9.17578E-01  1.00714E+00 -8.95667E-02
    9025.856     28.155   3.120  9.13687E-01  1.00595E+00 -9.22657E-02
    9026.813     29.112   3.160  9.09205E-01  1.00479E+00 -9.55857E-02
    9027.782     30.081   3.200  9.04214E-01  1.00364E+00 -9.94260E-02
    9028.763     31.062   3.240  8.99039E-01  1.00250E+00 -1.03464E-01
    9029.757     32.056   3.280  8.94050E-01  1.00143E+00 -1.07376E-01
    9030.763     33.062   3.320  8.89672E-01  1.00039E+00 -1.10720E-01
    9031.781     34.080   3.360  8.86548E-01  9.99422E-01 -1.12875E-01
    9032.811     35.110   3.400  8.85363E-01  9.98478E-01 -1.13114E-01
    9033.853     36.153   3.440  8.86540E-01  9.97601E-01 -1.11060E-01
    9034.908     37.207   3.480  8.90361E-01  9.96795E-01 -1.06434E-01
    9035.975     38.274   3.520  8.96956E-01  9.96040E-01 -9.90844E-02
    9037.054     39.353   3.560  9.06159E-01  9.95357E-01 -8.91977E-02
    9038.145     40.444   3.600  9.17658E-01  9.94727E-01 -7.70683E-02
    9039.248     41.548   3.640  9.31210E-01  9.94192E-01 -6.29819E-02
    9040.364     42.663   3.680  9.46290E-01  9.93688E-01 -4.73978E-02
    9041.492     43.791   3.720  9.62198E-01  9.93279E-01 -3.10812E-02
    9042.632     44.931   3.760  9.77817E-01  9.92926E-01 -1.51081E-02
    9043.784     46.083   3.800  9.91660E-01  9.92646E-01 -9.86131E-04
    9044.948     47.247   3.840  1.00203E+00  9.92441E-01  9.59389E-03
    9046.125     48.424   3.880  1.00784E+00  9.92288E-01  1.55540E-02
    9047.313     49.612   3.920  1.00927E+00  9.92209E-01  1.70663E-02
    9048.514     50.813   3.960  1.00776E+00  9.92202E-01  1.55622E-02
    9049.727     52.026   4.000  1.00560E+00  9.92246E-01  1.33558E-02
    9050.953     53.252   4.040  1.00523E+00  9.92359E-01  1.28750E-02
    9052.190     54.489   4.080  1.00843E+00  9.92521E-01  1.59099E-02
    9053.440     55.739   4.120  1.01583E+00  9.92729E-01  2.30966E-02
    9054.702     57.001   4.160  1.02683E+00  9.93004E-01  3.38266E-02
    9055.976     58.275   4.200  1.03961E+00  9.93323E-01  4.62876E-02
    9057.262     59.561   4.240  1.05161E+00  9.93683E-01  5.79319E-02
    9058.560     60.860   4.280  1.06051E+00  9.94084E-01  6.64286E-02
    9059.871     62.170   4.320  1.06502E+00  9.94524E-01  7.04996E-02
    9061.194     63.493   4.360  1.06516E+00  9.95002E-01  7.01561E-02
    9062.529     64.828   4.400  1.06200E+00  9.95516E-01  6.64855E-02
    9063.876     66.175   4.440  1.05711E+00  9.96042E-01  6.10641E-02
    9065.236     67.535   4.480  1.05191E+00  9.96601E-01  5.53095E-02
    9066.607     68.906   4.520  1.04730E+00  9.97191E-01  5.01071E-02
    9067.991     70.290   4.560  1.04361E+00  9.97787E-01  4.58222E-02
    9069.387     71.686   4.600  1.04088E+00  9.98388E-01  4.24880E-02
    9070.795     73.094   4.640  1.03910E+00  9.99014E-01  4.00832E-02
    9072.215     74.515   4.680  1.03823E+00  9.99620E-01  3.86137E-02
    9073.648     75.947   4.720  1.03823E+00  1.00025E+00  3.79870E-02
    9075.093     77.392   4.760  1.03868E+00  1.00085E+00  3.78366E-02
    9076.550     78.849   4.800  1.03887E+00  1.00147E+00  3.74031E-02
    9078.019     80.318   4.840  1.03774E+00  1.00206E+00  3.56771E-02
    9079.500     81.799   4.880  1.03452E+00  1.00265E+00  3.18690E-02
    9080.994     83.293   4.920  1.02907E+00  1.00320E+00  2.58656E-02
    9082.499     84.798   4.960  1.02198E+00  1.00375E+00  1.82283E-02
    9084.017     86.316   5.000  1.01402E+00  1.00426E+00  9.75947E-03
    9085.547     87.846   5.040  1.00591E+00  1.00475E+00  1.15776E-03
    9087.090     89.389   5.080  9.98241E-01  1.00519E+00 -6.95247E-03
    9088.644     90.943   5.120  9.91677E-01  1.00564E+00 -1.39633E-02
    9090.211     92.510   5.160  9.86528E-01  1.00602E+00 -1.94967E-02
    9091.790     94.089   5.200  9.82706E-01  1.00637E+00 -2.36626E-02
    9093.381     95.680   5.240  9.79628E-01  1.00667E+00 -2.70457E-02
    9094.984     97.283   5.280  9.76644E-01  1.00696E+00 -3.03146E-02
    9096.599     98.898   5.320  9.73447E-01  1.00718E+00 -3.37333E-02
    9098.227    100.526   5.360  9.70293E-01  1.00736E+00 -3.70670E-02
    9099.867    102.166   5.400  9.67585E-01  1.00752E+00 -3.99355E-02
    9101.519    103.818   5.440  9.65520E-01  1.00761E+00 -4.20947E-02
    9103.183    105.482   5.480  9.64299E-01  1.00766E+00 -4.33651E-02
    9104.859    107.158   5.520  9.64315E-01  1.00765E+00 -4.33313E-02
    9106.548    108.847   5.560  9.66257E-01  1.00761E+00 -4.13513E-02
    9108.249    110.548   5.600  9.70497E-01  1.00753E+00 -3.70316E-02
    9109.962    112.261   5.640  9.76710E-01  1.00738E+00 -3.06713E-02
    9111.687    113.986   5.680  9.83926E-01  1.00719E+00 -2.32648E-02
    9113.424    115.723   5.720  9.90662E-01  1.00696E+00 -1.62985E-02
    9115.174    117.473   5.760  9.95489E-01  1.00671E+00 -1.12254E-02
    9116.936    119.235   5.800  9.97290E-01  1.00640E+00 -9.11448E-03
    9118.709    121.009   5.840  9.95898E-01  1.00605E+00 -1.01550E-02
    9120.496    122.795   5.880  9.92401E-01  1.00567E+00 -1.32646E-02
    9122.294    124.593   5.920  9.88886E-01  1.00524E+00 -1.63563E-02
    9124.104    126.403   5.960  9.87383E-01  1.00478E+00 -1.74011E-02
    9125.927    128.226   6.000  9.88318E-01  1.00429E+00 -1.59744E-02
