# # comment:                                                     FEFF 9.9.1  
# # Source:
# # Structure
# # Reduced
# # space
# # abc:
# # angles:
# # sites:
# # POT  SCF 100  7.0000   0, screened core-hole, AFOLP (folp(0)= 1.150)
# # Abs   Z=29 Rmt= 1.337 Rnm= 1.450 K  shell
# # Pot 1 Z=29 Rmt= 1.329 Rnm= 1.455
# # Pot 2 Z=51 Rmt= 1.354 Rnm= 1.563
# # Pot 3 Z=35 Rmt= 1.506 Rnm= 1.652
# # Pot 4 Z= 8 Rmt= 0.977 Rnm= 1.090
# # Gam_ch=1.729E+00 H-L exch Vi= 0.000E+00 Vr= 0.000E+00
# # Mu=-5.036E+00eV kf=2.001E+00 Vint=-1.390E+01eV Rs_int= 1.812
# FMS rfms= 9.0000
# # PATH  Rmax=-1.000,  Keep_limit= 0.00, Heap_limit 0.00  Pwcrit= 2.50%
#  S02=0.950  Temp=   0.00  Debye_temp=   0.00  Global_sig2= 0.00000
#  Energy zero shift, vr, vi    0.00000E+00   0.00000E+00
#  Curved wave amplitude ratio filter   4.000%
#     file         sig2 tot  cw amp ratio   deg  nlegs   reff  inp sig2
#     0/   0 paths used
#  xsedge+ 50, used to normalize mu           2.4483E-04
#  -----------------------------------------------------------------------
#  omega    e    k    mu    mu0     chi     @#
    8983.295     -8.846  -1.000  5.70756E-02  6.22715E-02 -5.19583E-03
    8983.594     -8.547  -0.960  6.09985E-02  6.70436E-02 -6.04506E-03
    8983.880     -8.260  -0.920  6.53186E-02  7.23656E-02 -7.04705E-03
    8984.155     -7.986  -0.880  7.00900E-02  7.83201E-02 -8.23013E-03
    8984.417     -7.724  -0.840  7.53754E-02  8.50031E-02 -9.62775E-03
    8984.667     -7.474  -0.800  8.12469E-02  9.25260E-02 -1.12792E-02
    8984.904     -7.236  -0.760  8.77870E-02  1.01017E-01 -1.32300E-02
    8985.130     -7.011  -0.720  9.50885E-02  1.10621E-01 -1.55322E-02
    8985.343     -6.797  -0.680  1.03253E-01  1.21497E-01 -1.82439E-02
    8985.544     -6.596  -0.640  1.12388E-01  1.33815E-01 -2.14272E-02
    8985.733     -6.407  -0.600  1.22596E-01  1.47740E-01 -2.51441E-02
    8985.910     -6.230  -0.560  1.33966E-01  1.63416E-01 -2.94496E-02
    8986.075     -6.066  -0.520  1.46547E-01  1.80927E-01 -3.43797E-02
    8986.227     -5.913  -0.480  1.60322E-01  2.00258E-01 -3.99359E-02
    8986.367     -5.773  -0.440  1.75171E-01  2.21238E-01 -4.60670E-02
    8986.495     -5.645  -0.400  1.90845E-01  2.43499E-01 -5.26537E-02
    8986.611     -5.529  -0.360  2.06954E-01  2.66459E-01 -5.95042E-02
    8986.715     -5.426  -0.320  2.22994E-01  2.89363E-01 -6.63689E-02
    8986.806     -5.334  -0.280  2.38401E-01  3.11374E-01 -7.29729E-02
    8986.886     -5.255  -0.240  2.52631E-01  3.31687E-01 -7.90569E-02
    8986.953     -5.188  -0.200  2.65220E-01  3.49631E-01 -8.44110E-02
    8987.007     -5.133  -0.160  2.75828E-01  3.64717E-01 -8.88892E-02
    8987.050     -5.091  -0.120  2.84229E-01  3.76635E-01 -9.24055E-02
    8987.081     -5.060  -0.080  2.90295E-01  3.85216E-01 -9.49207E-02
    8987.105     -5.036   0.000  2.95181E-01  3.92106E-01 -9.69248E-02
    8987.160     -4.981   0.120  3.06041E-01  4.07638E-01 -1.01597E-01
    8987.203     -4.938   0.160  3.14525E-01  4.19697E-01 -1.05172E-01
    8987.257     -4.883   0.200  3.25371E-01  4.35074E-01 -1.09703E-01
    8987.324     -4.816   0.240  3.38443E-01  4.53525E-01 -1.15083E-01
    8987.404     -4.737   0.280  3.53534E-01  4.74682E-01 -1.21149E-01
    8987.495     -4.646   0.320  3.70250E-01  4.97938E-01 -1.27688E-01
    8987.599     -4.542   0.360  3.88132E-01  5.22589E-01 -1.34457E-01
    8987.715     -4.426   0.400  4.06706E-01  5.47892E-01 -1.41186E-01
    8987.843     -4.298   0.440  4.25476E-01  5.73123E-01 -1.47646E-01
    8987.983     -4.158   0.480  4.44132E-01  5.97753E-01 -1.53622E-01
    8988.135     -4.005   0.520  4.62514E-01  6.21404E-01 -1.58890E-01
    8988.300     -3.841   0.560  4.80736E-01  6.43916E-01 -1.63180E-01
    8988.477     -3.664   0.600  4.99055E-01  6.65245E-01 -1.66190E-01
    8988.666     -3.475   0.640  5.17750E-01  6.85419E-01 -1.67669E-01
    8988.867     -3.274   0.680  5.37017E-01  7.04533E-01 -1.67516E-01
    8989.080     -3.061   0.720  5.56993E-01  7.22700E-01 -1.65707E-01
    8989.306     -2.835   0.760  5.78275E-01  7.40033E-01 -1.61758E-01
    8989.543     -2.597   0.800  6.02372E-01  7.56611E-01 -1.54239E-01
    8989.793     -2.347   0.840  6.31650E-01  7.72520E-01 -1.40870E-01
    8990.055     -2.085   0.880  6.68341E-01  7.87806E-01 -1.19466E-01
    8990.330     -1.811   0.920  7.13272E-01  8.02522E-01 -8.92504E-02
    8990.616     -1.524   0.960  7.64965E-01  8.16706E-01 -5.17412E-02
    8990.915     -1.226   1.000  8.20276E-01  8.30383E-01 -1.01072E-02
    8991.226     -0.915   1.040  8.76649E-01  8.43546E-01  3.31026E-02
    8991.549     -0.592   1.080  9.33597E-01  8.56182E-01  7.74140E-02
    8991.884     -0.256   1.120  9.91920E-01  8.68333E-01  1.23588E-01
    8992.232      0.091   1.160  1.05106E+00  8.79973E-01  1.71085E-01
    8992.591      0.451   1.200  1.10495E+00  8.91093E-01  2.13857E-01
    8992.963      0.823   1.240  1.14132E+00  9.01681E-01  2.39640E-01
    8993.347      1.207   1.280  1.15327E+00  9.11725E-01  2.41545E-01
    8993.744      1.603   1.320  1.14911E+00  9.21231E-01  2.27882E-01
    8994.152      2.011   1.360  1.14239E+00  9.30204E-01  2.12185E-01
    8994.573      2.432   1.400  1.13605E+00  9.38610E-01  1.97440E-01
    8995.005      2.865   1.440  1.12398E+00  9.46473E-01  1.77502E-01
    8995.450      3.310   1.480  1.10676E+00  9.53781E-01  1.52976E-01
    8995.908      3.767   1.520  1.09339E+00  9.60559E-01  1.32827E-01
    8996.377      4.236   1.560  1.08898E+00  9.66797E-01  1.22179E-01
    8996.859      4.718   1.600  1.08988E+00  9.72502E-01  1.17378E-01
    8997.352      5.212   1.640  1.08899E+00  9.77705E-01  1.11284E-01
    8997.858      5.718   1.680  1.08386E+00  9.82415E-01  1.01448E-01
    8998.376      6.236   1.720  1.07808E+00  9.86641E-01  9.14352E-02
    8998.907      6.766   1.760  1.07515E+00  9.90398E-01  8.47493E-02
    8999.449      7.309   1.800  1.07547E+00  9.93736E-01  8.17366E-02
    9000.004      7.863   1.840  1.07914E+00  9.96647E-01  8.24893E-02
    9000.571      8.430   1.880  1.08618E+00  9.99144E-01  8.70373E-02
    9001.150      9.009   1.920  1.09317E+00  1.00128E+00  9.18858E-02
    9001.741      9.601   1.960  1.09310E+00  1.00307E+00  9.00279E-02
    9002.345     10.204   2.000  1.08095E+00  1.00455E+00  7.64073E-02
    9002.961     10.820   2.040  1.05856E+00  1.00570E+00  5.28606E-02
    9003.589     11.448   2.080  1.03408E+00  1.00659E+00  2.74942E-02
    9004.229     12.088   2.120  1.01674E+00  1.00722E+00  9.52440E-03
    9004.881     12.740   2.160  1.01193E+00  1.00763E+00  4.29947E-03
    9005.545     13.405   2.200  1.01979E+00  1.00783E+00  1.19628E-02
    9006.222     14.081   2.240  1.03522E+00  1.00785E+00  2.73750E-02
    9006.911     14.770   2.280  1.04835E+00  1.00770E+00  4.06502E-02
    9007.612     15.471   2.320  1.04587E+00  1.00741E+00  3.84556E-02
    9008.325     16.184   2.360  1.02228E+00  1.00699E+00  1.52846E-02
    9009.051     16.910   2.400  9.86930E-01  1.00646E+00 -1.95301E-02
    9009.788     17.647   2.440  9.60600E-01  1.00584E+00 -4.52375E-02
    9010.538     18.397   2.480  9.50479E-01  1.00515E+00 -5.46758E-02
    9011.300     19.159   2.520  9.46362E-01  1.00440E+00 -5.80380E-02
    9012.074     19.933   2.560  9.43034E-01  1.00362E+00 -6.05864E-02
    9012.861     20.720   2.600  9.39258E-01  1.00280E+00 -6.35454E-02
    9013.659     21.518   2.640  9.36073E-01  1.00195E+00 -6.58809E-02
    9014.470     22.329   2.680  9.35339E-01  1.00112E+00 -6.57812E-02
    9015.293     23.152   2.720  9.38730E-01  1.00026E+00 -6.15340E-02
    9016.128     23.987   2.760  9.46416E-01  9.99434E-01 -5.30178E-02
    9016.975     24.835   2.800  9.57354E-01  9.98633E-01 -4.12798E-02
    9017.835     25.694   2.840  9.69543E-01  9.97867E-01 -2.83249E-02
    9018.707     26.566   2.880  9.80655E-01  9.97119E-01 -1.64641E-02
    9019.590     27.450   2.920  9.88541E-01  9.96430E-01 -7.88884E-03
    9020.487     28.346   2.960  9.92397E-01  9.95783E-01 -3.38641E-03
    9021.395     29.254   3.000  9.92848E-01  9.95182E-01 -2.33404E-03
    9022.315     30.175   3.040  9.91322E-01  9.94650E-01 -3.32752E-03
    9023.248     31.107   3.080  9.89292E-01  9.94165E-01 -4.87319E-03
    9024.193     32.052   3.120  9.87678E-01  9.93752E-01 -6.07387E-03
    9025.150     33.009   3.160  9.86885E-01  9.93389E-01 -6.50331E-03
    9026.119     33.979   3.200  9.87119E-01  9.93098E-01 -5.97934E-03
    9027.101     34.960   3.240  9.88379E-01  9.92883E-01 -4.50393E-03
    9028.094     35.954   3.280  9.90449E-01  9.92741E-01 -2.29179E-03
    9029.100     36.960   3.320  9.92936E-01  9.92652E-01  2.84436E-04
    9030.118     37.978   3.360  9.95424E-01  9.92634E-01  2.79087E-03
    9031.148     39.008   3.400  9.97589E-01  9.92667E-01  4.92180E-03
    9032.191     40.050   3.440  9.99393E-01  9.92774E-01  6.61961E-03
    9033.245     41.105   3.480  1.00096E+00  9.92952E-01  8.01071E-03
    9034.312     42.172   3.520  1.00236E+00  9.93180E-01  9.18194E-03
    9035.391     43.251   3.560  1.00360E+00  9.93477E-01  1.01276E-02
    9036.482     44.342   3.600  1.00462E+00  9.93819E-01  1.08015E-02
    9037.586     45.445   3.640  1.00536E+00  9.94206E-01  1.11591E-02
    9038.701     46.561   3.680  1.00579E+00  9.94637E-01  1.11540E-02
    9039.829     47.688   3.720  1.00582E+00  9.95133E-01  1.06827E-02
    9040.969     48.828   3.760  1.00534E+00  9.95670E-01  9.66509E-03
    9042.121     49.981   3.800  1.00440E+00  9.96246E-01  8.15214E-03
    9043.286     51.145   3.840  1.00314E+00  9.96838E-01  6.29736E-03
    9044.462     52.321   3.880  1.00188E+00  9.97485E-01  4.39334E-03
    9045.651     53.510   3.920  1.00092E+00  9.98143E-01  2.77990E-03
    9046.852     54.711   3.960  1.00054E+00  9.98810E-01  1.73168E-03
    9048.065     55.924   4.000  1.00095E+00  9.99508E-01  1.44619E-03
    9049.290     57.149   4.040  1.00226E+00  1.00023E+00  2.02858E-03
    9050.528     58.387   4.080  1.00441E+00  1.00096E+00  3.44978E-03
    9051.777     59.637   4.120  1.00709E+00  1.00167E+00  5.41958E-03
    9053.039     60.898   4.160  1.00982E+00  1.00240E+00  7.42283E-03
    9054.313     62.172   4.200  1.01204E+00  1.00313E+00  8.91320E-03
    9055.599     63.459   4.240  1.01333E+00  1.00385E+00  9.47763E-03
    9056.898     64.757   4.280  1.01353E+00  1.00454E+00  8.99165E-03
    9058.208     66.068   4.320  1.01276E+00  1.00522E+00  7.53657E-03
    9059.531     67.391   4.360  1.01116E+00  1.00588E+00  5.28163E-03
    9060.866     68.726   4.400  1.00894E+00  1.00652E+00  2.42257E-03
    9062.214     70.073   4.440  1.00625E+00  1.00712E+00 -8.72226E-04
    9063.573     71.432   4.480  1.00327E+00  1.00772E+00 -4.44726E-03
    9064.945     72.804   4.520  1.00021E+00  1.00827E+00 -8.05984E-03
    9066.328     74.188   4.560  9.97434E-01  1.00879E+00 -1.13555E-02
    9067.724     75.584   4.600  9.95380E-01  1.00926E+00 -1.38845E-02
    9069.132     76.992   4.640  9.94554E-01  1.00970E+00 -1.51444E-02
    9070.553     78.412   4.680  9.95401E-01  1.01009E+00 -1.46907E-02
    9071.985     79.845   4.720  9.98145E-01  1.01044E+00 -1.22961E-02
    9073.430     81.289   4.760  1.00267E+00  1.01075E+00 -8.07290E-03
    9074.887     82.746   4.800  1.00850E+00  1.01101E+00 -2.50961E-03
    9076.356     84.215   4.840  1.01484E+00  1.01123E+00  3.61098E-03
    9077.838     85.697   4.880  1.02083E+00  1.01138E+00  9.45105E-03
    9079.331     87.190   4.920  1.02586E+00  1.01151E+00  1.43477E-02
    9080.837     88.696   4.960  1.02948E+00  1.01157E+00  1.79107E-02
    9082.355     90.214   5.000  1.03154E+00  1.01159E+00  1.99563E-02
    9083.885     91.744   5.040  1.03193E+00  1.01156E+00  2.03737E-02
    9085.427     93.286   5.080  1.03055E+00  1.01149E+00  1.90652E-02
    9086.981     94.841   5.120  1.02737E+00  1.01137E+00  1.59913E-02
    9088.548     96.407   5.160  1.02247E+00  1.01119E+00  1.12770E-02
    9090.127     97.986   5.200  1.01625E+00  1.01099E+00  5.26478E-03
    9091.718     99.577   5.240  1.00917E+00  1.01072E+00 -1.55641E-03
    9093.321    101.181   5.280  1.00175E+00  1.01044E+00 -8.68748E-03
    9094.937    102.796   5.320  9.94425E-01  1.01012E+00 -1.56919E-02
    9096.564    104.424   5.360  9.87549E-01  1.00973E+00 -2.21804E-02
    9098.204    106.063   5.400  9.81523E-01  1.00933E+00 -2.78031E-02
    9099.856    107.715   5.440  9.76583E-01  1.00889E+00 -3.23046E-02
    9101.520    109.380   5.480  9.72871E-01  1.00844E+00 -3.55651E-02
    9103.197    111.056   5.520  9.70410E-01  1.00795E+00 -3.75406E-02
    9104.885    112.745   5.560  9.69242E-01  1.00743E+00 -3.81892E-02
    9106.586    114.445   5.600  9.69519E-01  1.00690E+00 -3.73823E-02
    9108.299    116.158   5.640  9.71404E-01  1.00634E+00 -3.49352E-02
    9110.024    117.884   5.680  9.75116E-01  1.00577E+00 -3.06530E-02
    9111.762    119.621   5.720  9.80764E-01  1.00517E+00 -2.44063E-02
    9113.511    121.370   5.760  9.88310E-01  1.00457E+00 -1.62574E-02
    9115.273    123.132   5.800  9.97375E-01  1.00396E+00 -6.58886E-03
    9117.047    124.906   5.840  1.00723E+00  1.00336E+00  3.86407E-03
    9118.833    126.692   5.880  1.01689E+00  1.00277E+00  1.41243E-02
    9120.631    128.491   5.920  1.02538E+00  1.00218E+00  2.32023E-02
    9122.442    130.301   5.960  1.03181E+00  1.00157E+00  3.02342E-02
    9124.264    132.124   6.000  1.03559E+00  1.00100E+00  3.45861E-02
