# # comment:                                                     FEFF 9.9.1  
# # Source:
# # Structure
# # Reduced
# # space
# # abc:
# # angles:
# # sites:
# # POT  SCF 100  7.0000   0, screened core-hole, AFOLP (folp(0)= 1.150)
# # Abs   Z=29 Rmt= 1.265 Rnm= 1.334 K  shell
# # Pot 1 Z=20 Rmt= 1.700 Rnm= 1.776
# # Pot 2 Z=29 Rmt= 1.273 Rnm= 1.339
# # Pot 3 Z=15 Rmt= 0.941 Rnm= 1.154
# # Pot 4 Z= 8 Rmt= 0.945 Rnm= 1.042
# # Gam_ch=1.729E+00 H-L exch Vi= 0.000E+00 Vr= 0.000E+00
# # Mu=-7.535E+00eV kf=2.401E+00 Vint=-1.853E+01eV Rs_int= 1.510
# FMS rfms= 9.0000
# # PATH  Rmax=-1.000,  Keep_limit= 0.00, Heap_limit 0.00  Pwcrit= 2.50%
#  S02=0.950  Temp=   0.00  Debye_temp=   0.00  Global_sig2= 0.00000
#  Energy zero shift, vr, vi    0.00000E+00   0.00000E+00
#  Curved wave amplitude ratio filter   4.000%
#     file         sig2 tot  cw amp ratio   deg  nlegs   reff  inp sig2
#     0/   0 paths used
#  xsedge+ 50, used to normalize mu           2.5007E-04
#  -----------------------------------------------------------------------
#  omega    e    k    mu    mu0     chi     @#
    8983.818    -11.345  -1.000  4.23426E-02  4.99802E-02 -7.63757E-03
    8984.116    -11.046  -0.960  4.50520E-02  5.35570E-02 -8.50493E-03
    8984.403    -10.759  -0.920  4.80348E-02  5.75307E-02 -9.49586E-03
    8984.677    -10.485  -0.880  5.13281E-02  6.19601E-02 -1.06321E-02
    8984.939    -10.223  -0.840  5.49739E-02  6.69136E-02 -1.19397E-02
    8985.189     -9.973  -0.800  5.90203E-02  7.24705E-02 -1.34502E-02
    8985.427     -9.735  -0.760  6.35210E-02  7.87220E-02 -1.52010E-02
    8985.652     -9.510  -0.720  6.85350E-02  8.57710E-02 -1.72360E-02
    8985.866     -9.296  -0.680  7.41256E-02  9.37312E-02 -1.96056E-02
    8986.067     -9.095  -0.640  8.03576E-02  1.02723E-01 -2.23650E-02
    8986.256     -8.906  -0.600  8.72926E-02  1.12863E-01 -2.55705E-02
    8986.433     -8.730  -0.560  9.49813E-02  1.24254E-01 -2.92722E-02
    8986.597     -8.565  -0.520  1.03453E-01  1.36954E-01 -3.35015E-02
    8986.750     -8.413  -0.480  1.12698E-01  1.50952E-01 -3.82539E-02
    8986.890     -8.272  -0.440  1.22654E-01  1.66124E-01 -4.34692E-02
    8987.018     -8.144  -0.400  1.33189E-01  1.82204E-01 -4.90151E-02
    8987.134     -8.028  -0.360  1.44091E-01  1.98777E-01 -5.46857E-02
    8987.237     -7.925  -0.320  1.55078E-01  2.15300E-01 -6.02226E-02
    8987.329     -7.833  -0.280  1.65814E-01  2.31173E-01 -6.53589E-02
    8987.408     -7.754  -0.240  1.75948E-01  2.45819E-01 -6.98708E-02
    8987.475     -7.687  -0.200  1.85139E-01  2.58756E-01 -7.36165E-02
    8987.530     -7.632  -0.160  1.93086E-01  2.69633E-01 -7.65471E-02
    8987.573     -7.590  -0.120  1.99538E-01  2.78228E-01 -7.86897E-02
    8987.603     -7.559  -0.080  2.04303E-01  2.84417E-01 -8.01139E-02
    8987.627     -7.535   0.000  2.08254E-01  2.89389E-01 -8.11355E-02
    8987.682     -7.480   0.120  2.17193E-01  3.00591E-01 -8.33985E-02
    8987.725     -7.437   0.160  2.24315E-01  3.09290E-01 -8.49754E-02
    8987.780     -7.382   0.200  2.33716E-01  3.20388E-01 -8.66721E-02
    8987.847     -7.315   0.240  2.45568E-01  3.33724E-01 -8.81565E-02
    8987.926     -7.236   0.280  2.59986E-01  3.48997E-01 -8.90114E-02
    8988.018     -7.145   0.320  2.77125E-01  3.65844E-01 -8.87188E-02
    8988.121     -7.041   0.360  2.96898E-01  3.83724E-01 -8.68261E-02
    8988.237     -6.925   0.400  3.18971E-01  4.02105E-01 -8.31345E-02
    8988.365     -6.797   0.440  3.42547E-01  4.20523E-01 -7.79763E-02
    8988.505     -6.657   0.480  3.66155E-01  4.38587E-01 -7.24315E-02
    8988.658     -6.504   0.520  3.87727E-01  4.56039E-01 -6.83125E-02
    8988.822     -6.340   0.560  4.05216E-01  4.72794E-01 -6.75785E-02
    8988.999     -6.163   0.600  4.17488E-01  4.88826E-01 -7.13381E-02
    8989.188     -5.974   0.640  4.25028E-01  5.04192E-01 -7.91643E-02
    8989.389     -5.773   0.680  4.29583E-01  5.18985E-01 -8.94027E-02
    8989.603     -5.560   0.720  4.32945E-01  5.33292E-01 -1.00348E-01
    8989.828     -5.334   0.760  4.35704E-01  5.47200E-01 -1.11495E-01
    8990.066     -5.096   0.800  4.36798E-01  5.60824E-01 -1.24027E-01
    8990.316     -4.846   0.840  4.34402E-01  5.74212E-01 -1.39811E-01
    8990.578     -4.584   0.880  4.28247E-01  5.87457E-01 -1.59210E-01
    8990.852     -4.310   0.920  4.20138E-01  6.00580E-01 -1.80441E-01
    8991.139     -4.023   0.960  4.12260E-01  6.13651E-01 -2.01391E-01
    8991.437     -3.725   1.000  4.05391E-01  6.26691E-01 -2.21300E-01
    8991.748     -3.414   1.040  3.99580E-01  6.39690E-01 -2.40111E-01
    8992.071     -3.091   1.080  3.95669E-01  6.52695E-01 -2.57026E-01
    8992.407     -2.755   1.120  3.94965E-01  6.65681E-01 -2.70716E-01
    8992.754     -2.408   1.160  3.98911E-01  6.78661E-01 -2.79750E-01
    8993.114     -2.048   1.200  4.08755E-01  6.91644E-01 -2.82890E-01
    8993.486     -1.676   1.240  4.25781E-01  7.04596E-01 -2.78816E-01
    8993.870     -1.292   1.280  4.51816E-01  7.17517E-01 -2.65702E-01
    8994.266     -0.896   1.320  4.87451E-01  7.30387E-01 -2.42935E-01
    8994.674     -0.488   1.360  5.30052E-01  7.43200E-01 -2.13149E-01
    8995.095     -0.067   1.400  5.75281E-01  7.55894E-01 -1.80613E-01
    8995.528      0.366   1.440  6.20629E-01  7.68502E-01 -1.47873E-01
    8995.973      0.811   1.480  6.69727E-01  7.80974E-01 -1.11247E-01
    8996.430      1.268   1.520  7.30447E-01  7.93285E-01 -6.28377E-02
    8996.899      1.737   1.560  8.04372E-01  8.05425E-01 -1.05307E-03
    8997.381      2.219   1.600  8.82253E-01  8.17344E-01  6.49086E-02
    8997.875      2.713   1.640  9.45880E-01  8.29053E-01  1.16827E-01
    8998.381      3.219   1.680  9.78160E-01  8.40524E-01  1.37636E-01
    8998.899      3.737   1.720  9.82561E-01  8.51706E-01  1.30856E-01
    8999.429      4.267   1.760  9.83735E-01  8.62589E-01  1.21146E-01
    8999.972      4.810   1.800  9.92706E-01  8.73186E-01  1.19520E-01
    9000.527      5.364   1.840  1.00274E+00  8.83428E-01  1.19313E-01
    9001.094      5.931   1.880  1.02092E+00  8.93347E-01  1.27577E-01
    9001.673      6.510   1.920  1.06297E+00  9.02899E-01  1.60073E-01
    9002.264      7.102   1.960  1.12591E+00  9.12053E-01  2.13856E-01
    9002.867      7.705   2.000  1.18362E+00  9.20846E-01  2.62770E-01
    9003.483      8.321   2.040  1.21604E+00  9.29213E-01  2.86825E-01
    9004.111      8.949   2.080  1.22476E+00  9.37191E-01  2.87569E-01
    9004.751      9.589   2.120  1.22405E+00  9.44756E-01  2.79289E-01
    9005.403     10.241   2.160  1.22671E+00  9.51884E-01  2.74828E-01
    9006.068     10.906   2.200  1.23191E+00  9.58597E-01  2.73315E-01
    9006.744     11.582   2.240  1.23192E+00  9.64874E-01  2.67047E-01
    9007.433     12.271   2.280  1.22565E+00  9.70754E-01  2.54896E-01
    9008.134     12.972   2.320  1.21780E+00  9.76180E-01  2.41621E-01
    9008.848     13.685   2.360  1.21109E+00  9.81212E-01  2.29880E-01
    9009.573     14.411   2.400  1.20273E+00  9.85815E-01  2.16911E-01
    9010.311     15.148   2.440  1.18623E+00  9.90012E-01  1.96214E-01
    9011.060     15.898   2.480  1.15899E+00  9.93828E-01  1.65160E-01
    9011.822     16.660   2.520  1.12548E+00  9.97247E-01  1.28235E-01
    9012.597     17.434   2.560  1.09267E+00  1.00027E+00  9.23974E-02
    9013.383     18.221   2.600  1.06474E+00  1.00295E+00  6.17855E-02
    9014.182     19.019   2.640  1.03980E+00  1.00527E+00  3.45272E-02
    9014.992     19.830   2.680  1.01325E+00  1.00724E+00  6.00650E-03
    9015.815     20.653   2.720  9.85358E-01  1.00889E+00 -2.35317E-02
    9016.650     21.488   2.760  9.60766E-01  1.01024E+00 -4.94712E-02
    9017.498     22.336   2.800  9.44905E-01  1.01130E+00 -6.63910E-02
    9018.357     23.195   2.840  9.33148E-01  1.01205E+00 -7.89063E-02
    9019.229     24.067   2.880  9.18334E-01  1.01256E+00 -9.42243E-02
    9020.113     24.951   2.920  9.00172E-01  1.01282E+00 -1.12647E-01
    9021.009     25.847   2.960  8.82485E-01  1.01286E+00 -1.30378E-01
    9021.917     26.755   3.000  8.68455E-01  1.01268E+00 -1.44221E-01
    9022.838     27.676   3.040  8.59194E-01  1.01229E+00 -1.53097E-01
    9023.771     28.608   3.080  8.54293E-01  1.01173E+00 -1.57440E-01
    9024.715     29.553   3.120  8.53088E-01  1.01101E+00 -1.57922E-01
    9025.672     30.510   3.160  8.55193E-01  1.01013E+00 -1.54937E-01
    9026.642     31.480   3.200  8.59868E-01  1.00910E+00 -1.49233E-01
    9027.623     32.461   3.240  8.66641E-01  1.00797E+00 -1.41330E-01
    9028.617     33.455   3.280  8.75119E-01  1.00673E+00 -1.31607E-01
    9029.623     34.460   3.320  8.84859E-01  1.00540E+00 -1.20537E-01
    9030.641     35.478   3.360  8.95344E-01  1.00399E+00 -1.08642E-01
    9031.671     36.509   3.400  9.06237E-01  1.00252E+00 -9.62862E-02
    9032.713     37.551   3.440  9.17232E-01  1.00099E+00 -8.37624E-02
    9033.768     38.606   3.480  9.28147E-01  9.99442E-01 -7.12950E-02
    9034.835     39.673   3.520  9.38853E-01  9.97834E-01 -5.89809E-02
    9035.914     40.752   3.560  9.49176E-01  9.96217E-01 -4.70411E-02
    9037.005     41.843   3.600  9.58845E-01  9.94615E-01 -3.57699E-02
    9038.108     42.946   3.640  9.67678E-01  9.92993E-01 -2.53150E-02
    9039.224     44.062   3.680  9.75709E-01  9.91374E-01 -1.56647E-02
    9040.352     45.189   3.720  9.83029E-01  9.89784E-01 -6.75561E-03
    9041.492     46.329   3.760  9.89719E-01  9.88229E-01  1.49006E-03
    9042.644     47.481   3.800  9.95887E-01  9.86711E-01  9.17663E-03
    9043.808     48.646   3.840  1.00148E+00  9.85233E-01  1.62453E-02
    9044.985     49.822   3.880  1.00639E+00  9.83797E-01  2.25944E-02
    9046.173     51.011   3.920  1.01061E+00  9.82406E-01  2.82022E-02
    9047.374     52.212   3.960  1.01437E+00  9.81084E-01  3.32876E-02
    9048.587     53.425   4.000  1.01814E+00  9.79834E-01  3.83048E-02
    9049.813     54.650   4.040  1.02245E+00  9.78637E-01  4.38098E-02
    9051.050     55.888   4.080  1.02754E+00  9.77514E-01  5.00308E-02
    9052.300     57.137   4.120  1.03310E+00  9.76467E-01  5.66313E-02
    9053.562     58.399   4.160  1.03841E+00  9.75498E-01  6.29134E-02
    9054.836     59.673   4.200  1.04281E+00  9.74608E-01  6.82003E-02
    9056.122     60.960   4.240  1.04587E+00  9.73796E-01  7.20773E-02
    9057.420     62.258   4.280  1.04749E+00  9.73043E-01  7.44495E-02
    9058.731     63.569   4.320  1.04784E+00  9.72413E-01  7.54241E-02
    9060.054     64.892   4.360  1.04685E+00  9.71844E-01  7.50100E-02
    9061.389     66.227   4.400  1.04444E+00  9.71354E-01  7.30831E-02
    9062.736     67.574   4.440  1.04049E+00  9.70945E-01  6.95479E-02
    9064.095     68.933   4.480  1.03509E+00  9.70637E-01  6.44555E-02
    9065.467     70.305   4.520  1.02848E+00  9.70390E-01  5.80860E-02
    9066.851     71.689   4.560  1.02118E+00  9.70242E-01  5.09390E-02
    9068.247     73.085   4.600  1.01371E+00  9.70149E-01  4.35648E-02
    9069.655     74.493   4.640  1.00651E+00  9.70133E-01  3.63744E-02
    9071.075     75.913   4.680  9.99775E-01  9.70194E-01  2.95807E-02
    9072.508     77.346   4.720  9.93563E-01  9.70331E-01  2.32315E-02
    9073.953     78.790   4.760  9.87752E-01  9.70543E-01  1.72089E-02
    9075.410     80.247   4.800  9.82124E-01  9.70806E-01  1.13181E-02
    9076.879     81.716   4.840  9.76405E-01  9.71138E-01  5.26718E-03
    9078.360     83.198   4.880  9.70240E-01  9.71518E-01 -1.27744E-03
    9079.853     84.691   4.920  9.63455E-01  9.71963E-01 -8.50836E-03
    9081.359     86.197   4.960  9.56122E-01  9.72431E-01 -1.63088E-02
    9082.877     87.715   5.000  9.48758E-01  9.72962E-01 -2.42037E-02
    9084.407     89.245   5.040  9.42031E-01  9.73533E-01 -3.15022E-02
    9085.949     90.787   5.080  9.36628E-01  9.74142E-01 -3.75131E-02
    9087.504     92.342   5.120  9.33101E-01  9.74764E-01 -4.16624E-02
    9089.071     93.908   5.160  9.31804E-01  9.75440E-01 -4.36359E-02
    9090.649     95.487   5.200  9.32695E-01  9.76104E-01 -4.34094E-02
    9092.241     97.078   5.240  9.35528E-01  9.76796E-01 -4.12682E-02
    9093.844     98.682   5.280  9.39796E-01  9.77516E-01 -3.77193E-02
    9095.459    100.297   5.320  9.44790E-01  9.78215E-01 -3.34250E-02
    9097.087    101.925   5.360  9.49739E-01  9.78937E-01 -2.91978E-02
    9098.727    103.564   5.400  9.53735E-01  9.79635E-01 -2.59007E-02
    9100.379    105.216   5.440  9.56171E-01  9.80352E-01 -2.41812E-02
    9102.043    106.881   5.480  9.56902E-01  9.81039E-01 -2.41377E-02
    9103.719    108.557   5.520  9.56414E-01  9.81694E-01 -2.52805E-02
    9105.408    110.246   5.560  9.55459E-01  9.82338E-01 -2.68788E-02
    9107.109    111.946   5.600  9.54623E-01  9.82947E-01 -2.83247E-02
    9108.822    113.659   5.640  9.54255E-01  9.83520E-01 -2.92651E-02
    9110.547    115.385   5.680  9.54494E-01  9.84077E-01 -2.95828E-02
    9112.284    117.122   5.720  9.55131E-01  9.84573E-01 -2.94425E-02
    9114.034    118.871   5.760  9.55822E-01  9.85049E-01 -2.92278E-02
    9115.795    120.633   5.800  9.56182E-01  9.85460E-01 -2.92773E-02
    9117.569    122.407   5.840  9.56268E-01  9.85824E-01 -2.95563E-02
    9119.355    124.193   5.880  9.56560E-01  9.86143E-01 -2.95826E-02
    9121.154    125.992   5.920  9.57739E-01  9.86388E-01 -2.86492E-02
    9122.964    127.802   5.960  9.60484E-01  9.86574E-01 -2.60897E-02
    9124.787    129.625   6.000  9.65435E-01  9.86652E-01 -2.12167E-02
