# # comment:                                                     FEFF 9.9.1  
# # Source:
# # Structure
# # Reduced
# # space
# # abc:
# # angles:130.056307
# # sites:
# # POT  SCF 100  7.0000   0, screened core-hole, AFOLP (folp(0)= 1.150)
# # Abs   Z=29 Rmt= 1.352 Rnm= 1.410 K  shell
# # Pot 1 Z= 3 Rmt= 1.239 Rnm= 1.301
# # Pot 2 Z=29 Rmt= 1.365 Rnm= 1.422
# # Pot 3 Z=15 Rmt= 0.945 Rnm= 1.156
# # Pot 4 Z= 8 Rmt= 0.938 Rnm= 1.040
# # Gam_ch=1.729E+00 H-L exch Vi= 0.000E+00 Vr= 0.000E+00
# # Mu=-6.409E+00eV kf=2.376E+00 Vint=-1.724E+01eV Rs_int= 1.526
# FMS rfms= 9.0000
# # PATH  Rmax=-1.000,  Keep_limit= 0.00, Heap_limit 0.00  Pwcrit= 2.50%
#  S02=0.950  Temp=   0.00  Debye_temp=   0.00  Global_sig2= 0.00000
#  Energy zero shift, vr, vi    0.00000E+00   0.00000E+00
#  Curved wave amplitude ratio filter   4.000%
#     file         sig2 tot  cw amp ratio   deg  nlegs   reff  inp sig2
#     0/   0 paths used
#  xsedge+ 50, used to normalize mu           2.4667E-04
#  -----------------------------------------------------------------------
#  omega    e    k    mu    mu0     chi     @#
    8983.627    -10.219  -1.000  5.30098E-02  5.56277E-02 -2.61790E-03
    8983.926     -9.920  -0.960  5.66970E-02  5.97182E-02 -3.02127E-03
    8984.212     -9.634  -0.920  6.07867E-02  6.42692E-02 -3.48253E-03
    8984.487     -9.360  -0.880  6.53401E-02  6.93490E-02 -4.00890E-03
    8984.749     -9.097  -0.840  7.04291E-02  7.50373E-02 -4.60825E-03
    8984.999     -8.847  -0.800  7.61376E-02  8.14266E-02 -5.28900E-03
    8985.236     -8.610  -0.760  8.25631E-02  8.86231E-02 -6.06002E-03
    8985.462     -8.384  -0.720  8.98167E-02  9.67470E-02 -6.93036E-03
    8985.675     -8.171  -0.680  9.80218E-02  1.05931E-01 -7.90891E-03
    8985.876     -7.970  -0.640  1.07310E-01  1.16314E-01 -9.00374E-03
    8986.065     -7.781  -0.600  1.17814E-01  1.28035E-01 -1.02212E-02
    8986.242     -7.604  -0.560  1.29647E-01  1.41211E-01 -1.15643E-02
    8986.407     -7.439  -0.520  1.42882E-01  1.55913E-01 -1.30310E-02
    8986.559     -7.287  -0.480  1.57515E-01  1.72126E-01 -1.46115E-02
    8986.699     -7.147  -0.440  1.73422E-01  1.89708E-01 -1.62860E-02
    8986.827     -7.019  -0.400  1.90326E-01  2.08349E-01 -1.80234E-02
    8986.943     -6.903  -0.360  2.07784E-01  2.27567E-01 -1.97835E-02
    8987.047     -6.799  -0.320  2.25209E-01  2.46731E-01 -2.15215E-02
    8987.138     -6.708  -0.280  2.41948E-01  2.65142E-01 -2.31940E-02
    8987.218     -6.629  -0.240  2.57367E-01  2.82131E-01 -2.47635E-02
    8987.285     -6.561  -0.200  2.70941E-01  2.97137E-01 -2.61958E-02
    8987.339     -6.507  -0.160  2.82299E-01  3.09753E-01 -2.74538E-02
    8987.382     -6.464  -0.120  2.91226E-01  3.19720E-01 -2.84935E-02
    8987.413     -6.433  -0.080  2.97626E-01  3.26897E-01 -2.92710E-02
    8987.437     -6.409   0.000  3.02736E-01  3.32661E-01 -2.99245E-02
    8987.492     -6.354   0.120  3.13613E-01  3.45639E-01 -3.20260E-02
    8987.535     -6.312   0.160  3.22083E-01  3.55730E-01 -3.36468E-02
    8987.589     -6.257   0.200  3.32713E-01  3.68587E-01 -3.58741E-02
    8987.656     -6.190   0.240  3.45189E-01  3.84042E-01 -3.88532E-02
    8987.736     -6.110   0.280  3.58940E-01  4.01749E-01 -4.28091E-02
    8987.827     -6.019   0.320  3.73239E-01  4.21235E-01 -4.79959E-02
    8987.931     -5.915   0.360  3.87281E-01  4.41915E-01 -5.46338E-02
    8988.047     -5.799   0.400  4.00431E-01  4.63147E-01 -6.27164E-02
    8988.175     -5.671   0.440  4.12655E-01  4.84388E-01 -7.17327E-02
    8988.315     -5.531   0.480  4.24570E-01  5.05179E-01 -8.06094E-02
    8988.467     -5.379   0.520  4.37311E-01  5.25225E-01 -8.79145E-02
    8988.632     -5.214   0.560  4.51932E-01  5.44399E-01 -9.24670E-02
    8988.809     -5.037   0.600  4.68713E-01  5.62689E-01 -9.39766E-02
    8988.998     -4.849   0.640  4.86954E-01  5.80163E-01 -9.32084E-02
    8989.199     -4.647   0.680  5.05102E-01  5.96864E-01 -9.17616E-02
    8989.412     -4.434   0.720  5.21122E-01  6.12955E-01 -9.18330E-02
    8989.638     -4.208   0.760  5.32132E-01  6.28536E-01 -9.64033E-02
    8989.875     -3.971   0.800  5.34783E-01  6.43676E-01 -1.08893E-01
    8990.125     -3.721   0.840  5.27460E-01  6.58474E-01 -1.31014E-01
    8990.387     -3.459   0.880  5.13388E-01  6.72990E-01 -1.59602E-01
    8990.662     -3.184   0.920  5.00919E-01  6.87293E-01 -1.86373E-01
    8990.948     -2.898   0.960  4.99699E-01  7.01397E-01 -2.01699E-01
    8991.247     -2.599   1.000  5.15947E-01  7.15347E-01 -1.99400E-01
    8991.558     -2.288   1.040  5.48836E-01  7.29155E-01 -1.80320E-01
    8991.881     -1.965   1.080  5.89903E-01  7.42847E-01 -1.52944E-01
    8992.216     -1.630   1.120  6.28293E-01  7.56379E-01 -1.28086E-01
    8992.564     -1.282   1.160  6.58600E-01  7.69785E-01 -1.11184E-01
    8992.923     -0.923   1.200  6.83942E-01  7.83032E-01 -9.90897E-02
    8993.295     -0.551   1.240  7.14249E-01  7.96124E-01 -8.18760E-02
    8993.679     -0.167   1.280  7.58593E-01  8.09020E-01 -5.04262E-02
    8994.076      0.229   1.320  8.18081E-01  8.21696E-01 -3.61515E-03
    8994.484      0.638   1.360  8.89863E-01  8.34171E-01  5.56928E-02
    8994.905      1.058   1.400  9.77576E-01  8.46377E-01  1.31200E-01
    8995.337      1.491   1.440  1.08261E+00  8.58305E-01  2.24302E-01
    8995.782      1.936   1.480  1.19424E+00  8.69931E-01  3.24308E-01
    8996.240      2.394   1.520  1.30469E+00  8.81248E-01  4.23442E-01
    8996.709      2.863   1.560  1.40075E+00  8.92225E-01  5.08523E-01
    8997.191      3.344   1.600  1.44647E+00  9.02835E-01  5.43636E-01
    8997.684      3.838   1.640  1.42561E+00  9.13051E-01  5.12558E-01
    8998.190      4.344   1.680  1.37453E+00  9.22886E-01  4.51642E-01
    8998.708      4.862   1.720  1.33210E+00  9.32273E-01  3.99823E-01
    8999.239      5.393   1.760  1.30171E+00  9.41247E-01  3.60460E-01
    8999.781      5.935   1.800  1.25876E+00  9.49784E-01  3.08973E-01
    9000.336      6.490   1.840  1.18418E+00  9.57859E-01  2.26317E-01
    9000.903      7.057   1.880  1.09760E+00  9.65471E-01  1.32131E-01
    9001.482      7.636   1.920  1.03063E+00  9.72618E-01  5.80098E-02
    9002.073      8.227   1.960  9.93677E-01  9.79299E-01  1.43781E-02
    9002.677      8.831   2.000  9.82200E-01  9.85516E-01 -3.31591E-03
    9003.293      9.447   2.040  9.92775E-01  9.91248E-01  1.52713E-03
    9003.921     10.074   2.080  1.02354E+00  9.96542E-01  2.70024E-02
    9004.561     10.715   2.120  1.06448E+00  1.00138E+00  6.31018E-02
    9005.213     11.367   2.160  1.09775E+00  1.00577E+00  9.19796E-02
    9005.877     12.031   2.200  1.11311E+00  1.00973E+00  1.03380E-01
    9006.554     12.708   2.240  1.11438E+00  1.01324E+00  1.01135E-01
    9007.243     13.397   2.280  1.10271E+00  1.01635E+00  8.63598E-02
    9007.944     14.098   2.320  1.07520E+00  1.01907E+00  5.61290E-02
    9008.657     14.811   2.360  1.03766E+00  1.02139E+00  1.62760E-02
    9009.383     15.536   2.400  9.98976E-01  1.02336E+00 -2.43837E-02
    9010.120     16.274   2.440  9.64615E-01  1.02497E+00 -6.03560E-02
    9010.870     17.024   2.480  9.38018E-01  1.02625E+00 -8.82318E-02
    9011.632     17.786   2.520  9.20438E-01  1.02721E+00 -1.06769E-01
    9012.406     18.560   2.560  9.09481E-01  1.02789E+00 -1.18411E-01
    9013.193     19.346   2.600  9.00962E-01  1.02827E+00 -1.27313E-01
    9013.991     20.145   2.640  8.92176E-01  1.02843E+00 -1.36250E-01
    9014.802     20.956   2.680  8.84116E-01  1.02831E+00 -1.44195E-01
    9015.625     21.779   2.720  8.80613E-01  1.02801E+00 -1.47392E-01
    9016.460     22.614   2.760  8.85507E-01  1.02747E+00 -1.41968E-01
    9017.307     23.461   2.800  9.00012E-01  1.02677E+00 -1.26758E-01
    9018.167     24.321   2.840  9.16352E-01  1.02590E+00 -1.09548E-01
    9019.039     25.192   2.880  9.32065E-01  1.02490E+00 -9.28304E-02
    9019.922     26.076   2.920  9.46041E-01  1.02377E+00 -7.77238E-02
    9020.819     26.972   2.960  9.58425E-01  1.02249E+00 -6.40688E-02
    9021.727     27.881   3.000  9.70037E-01  1.02115E+00 -5.11151E-02
    9022.647     28.801   3.040  9.80963E-01  1.01973E+00 -3.87665E-02
    9023.580     29.734   3.080  9.90514E-01  1.01823E+00 -2.77161E-02
    9024.525     30.679   3.120  9.97698E-01  1.01666E+00 -1.89641E-02
    9025.482     31.636   3.160  1.00154E+00  1.01507E+00 -1.35381E-02
    9026.451     32.605   3.200  1.00164E+00  1.01347E+00 -1.18281E-02
    9027.433     33.587   3.240  9.98373E-01  1.01184E+00 -1.34661E-02
    9028.426     34.580   3.280  9.92566E-01  1.01018E+00 -1.76164E-02
    9029.432     35.586   3.320  9.85647E-01  1.00857E+00 -2.29222E-02
    9030.450     36.604   3.360  9.79013E-01  1.00694E+00 -2.79311E-02
    9031.480     37.634   3.400  9.73783E-01  1.00537E+00 -3.15897E-02
    9032.523     38.677   3.440  9.70482E-01  1.00382E+00 -3.33334E-02
    9033.577     39.731   3.480  9.69494E-01  1.00230E+00 -3.28024E-02
    9034.644     40.798   3.520  9.71161E-01  1.00084E+00 -2.96833E-02
    9035.723     41.877   3.560  9.75840E-01  9.99438E-01 -2.35977E-02
    9036.814     42.968   3.600  9.83759E-01  9.98080E-01 -1.43211E-02
    9037.918     44.072   3.640  9.94889E-01  9.96796E-01 -1.90638E-03
    9039.033     45.187   3.680  1.00881E+00  9.95587E-01  1.32247E-02
    9040.161     46.315   3.720  1.02465E+00  9.94457E-01  3.01881E-02
    9041.301     47.455   3.760  1.04117E+00  9.93407E-01  4.77630E-02
    9042.453     48.607   3.800  1.05713E+00  9.92435E-01  6.46988E-02
    9043.618     49.771   3.840  1.07148E+00  9.91547E-01  7.99286E-02
    9044.794     50.948   3.880  1.08358E+00  9.90739E-01  9.28375E-02
    9045.983     52.137   3.920  1.09316E+00  9.90014E-01  1.03144E-01
    9047.184     53.338   3.960  1.09990E+00  9.89393E-01  1.10512E-01
    9048.397     54.551   4.000  1.10309E+00  9.88835E-01  1.14259E-01
    9049.622     55.776   4.040  1.10218E+00  9.88381E-01  1.13801E-01
    9050.860     57.013   4.080  1.09696E+00  9.88011E-01  1.08948E-01
    9052.109     58.263   4.120  1.08779E+00  9.87723E-01  1.00072E-01
    9053.371     59.525   4.160  1.07543E+00  9.87518E-01  8.79075E-02
    9054.645     60.799   4.200  1.06072E+00  9.87415E-01  7.33091E-02
    9055.931     62.085   4.240  1.04429E+00  9.87372E-01  5.69191E-02
    9057.230     63.384   4.280  1.02671E+00  9.87406E-01  3.93078E-02
    9058.540     64.694   4.320  1.00864E+00  9.87518E-01  2.11197E-02
    9059.863     66.017   4.360  9.90836E-01  9.87708E-01  3.12766E-03
    9061.198     67.352   4.400  9.74290E-01  9.87972E-01 -1.36827E-02
    9062.546     68.699   4.440  9.60061E-01  9.88288E-01 -2.82270E-02
    9063.905     70.059   4.480  9.48985E-01  9.88675E-01 -3.96902E-02
    9065.277     71.430   4.520  9.41354E-01  9.89110E-01 -4.77568E-02
    9066.660     72.814   4.560  9.36840E-01  9.89611E-01 -5.27710E-02
    9068.056     74.210   4.600  9.34411E-01  9.90133E-01 -5.57221E-02
    9069.464     75.618   4.640  9.32817E-01  9.90718E-01 -5.79013E-02
    9070.885     77.039   4.680  9.30976E-01  9.91341E-01 -6.03651E-02
    9072.317     78.471   4.720  9.28358E-01  9.91979E-01 -6.36207E-02
    9073.762     79.916   4.760  9.25360E-01  9.92650E-01 -6.72905E-02
    9075.219     81.373   4.800  9.23067E-01  9.93353E-01 -7.02859E-02
    9076.688     82.842   4.840  9.22751E-01  9.94064E-01 -7.13130E-02
    9078.169     84.323   4.880  9.25430E-01  9.94778E-01 -6.93482E-02
    9079.663     85.817   4.920  9.31541E-01  9.95516E-01 -6.39748E-02
    9081.169     87.323   4.960  9.40677E-01  9.96233E-01 -5.55561E-02
    9082.687     88.841   5.000  9.51994E-01  9.96969E-01 -4.49744E-02
    9084.217     90.371   5.040  9.64355E-01  9.97679E-01 -3.33237E-02
    9085.759     91.913   5.080  9.76863E-01  9.98380E-01 -2.15163E-02
    9087.313     93.467   5.120  9.88944E-01  9.99049E-01 -1.01056E-02
    9088.880     95.034   5.160  1.00036E+00  9.99707E-01  6.56964E-04
    9090.459     96.613   5.200  1.01094E+00  1.00033E+00  1.06112E-02
    9092.050     98.204   5.240  1.02030E+00  1.00091E+00  1.93938E-02
    9093.653     99.807   5.280  1.02772E+00  1.00145E+00  2.62692E-02
    9095.269    101.423   5.320  1.03233E+00  1.00195E+00  3.03807E-02
    9096.896    103.050   5.360  1.03371E+00  1.00241E+00  3.13064E-02
    9098.536    104.690   5.400  1.03222E+00  1.00280E+00  2.94289E-02
    9100.188    106.342   5.440  1.02889E+00  1.00316E+00  2.57304E-02
    9101.852    108.006   5.480  1.02462E+00  1.00345E+00  2.11664E-02
    9103.529    109.683   5.520  1.01990E+00  1.00368E+00  1.62216E-02
    9105.217    111.371   5.560  1.01474E+00  1.00385E+00  1.08848E-02
    9106.918    113.072   5.600  1.00895E+00  1.00398E+00  4.96717E-03
    9108.631    114.785   5.640  1.00252E+00  1.00403E+00 -1.50928E-03
    9110.356    116.510   5.680  9.95988E-01  1.00401E+00 -8.02243E-03
    9112.094    118.248   5.720  9.90351E-01  1.00394E+00 -1.35891E-02
    9113.843    119.997   5.760  9.86669E-01  1.00382E+00 -1.71525E-02
    9115.605    121.759   5.800  9.85573E-01  1.00361E+00 -1.80349E-02
    9117.379    123.533   5.840  9.87204E-01  1.00337E+00 -1.61640E-02
    9119.165    125.319   5.880  9.91097E-01  1.00304E+00 -1.19381E-02
    9120.963    127.117   5.920  9.96746E-01  1.00266E+00 -5.91020E-03
    9122.774    128.928   5.960  1.00361E+00  1.00223E+00  1.37492E-03
    9124.596    130.750   6.000  1.01124E+00  1.00172E+00  9.51204E-03
