# # comment:                                                     FEFF 9.9.1  
# # Source:
# # Structure
# # Reduced
# # space
# # abc:
# # angles:
# # sites:
# # POT  SCF 100  7.0000   0, screened core-hole, AFOLP (folp(0)= 1.150)
# # Abs   Z=29 Rmt= 1.191 Rnm= 1.279 K  shell
# # Pot 1 Z=38 Rmt= 1.790 Rnm= 1.845
# # Pot 2 Z=57 Rmt= 1.773 Rnm= 1.848
# # Pot 3 Z=29 Rmt= 1.193 Rnm= 1.281
# # Pot 4 Z= 8 Rmt= 1.071 Rnm= 1.120
# # Gam_ch=1.729E+00 H-L exch Vi= 0.000E+00 Vr= 0.000E+00
# # Mu=-8.511E+00eV kf=2.019E+00 Vint=-1.809E+01eV Rs_int= 1.796
# FMS rfms= 9.0000
# # PATH  Rmax=-1.000,  Keep_limit= 0.00, Heap_limit 0.00  Pwcrit= 2.50%
#  S02=0.950  Temp=   0.00  Debye_temp=   0.00  Global_sig2= 0.00000
#  Energy zero shift, vr, vi    0.00000E+00   0.00000E+00
#  Curved wave amplitude ratio filter   4.000%
#     file         sig2 tot  cw amp ratio   deg  nlegs   reff  inp sig2
#     0/   0 paths used
#  xsedge+ 50, used to normalize mu           2.4542E-04
#  -----------------------------------------------------------------------
#  omega    e    k    mu    mu0     chi     @#
    8984.990    -12.321  -1.000  3.82754E-02  5.66076E-02 -1.83322E-02
    8985.289    -12.023  -0.960  4.03331E-02  6.08065E-02 -2.04734E-02
    8985.576    -11.736  -0.920  4.25704E-02  6.54798E-02 -2.29093E-02
    8985.850    -11.462  -0.880  4.50127E-02  7.06980E-02 -2.56853E-02
    8986.112    -11.200  -0.840  4.76896E-02  7.65432E-02 -2.88537E-02
    8986.362    -10.950  -0.800  5.06361E-02  8.31108E-02 -3.24747E-02
    8986.600    -10.712  -0.760  5.38930E-02  9.05101E-02 -3.66172E-02
    8986.825    -10.487  -0.720  5.75065E-02  9.88648E-02 -4.13583E-02
    8987.039    -10.273  -0.680  6.15284E-02  1.08311E-01 -4.67828E-02
    8987.240    -10.072  -0.640  6.60139E-02  1.18993E-01 -5.29794E-02
    8987.429     -9.883  -0.600  7.10176E-02  1.31053E-01 -6.00352E-02
    8987.605     -9.706  -0.560  7.65860E-02  1.44611E-01 -6.80248E-02
    8987.770     -9.542  -0.520  8.27462E-02  1.59740E-01 -7.69938E-02
    8987.922     -9.389  -0.480  8.94895E-02  1.76425E-01 -8.69357E-02
    8988.063     -9.249  -0.440  9.67535E-02  1.94520E-01 -9.77663E-02
    8988.191     -9.121  -0.400  1.04406E-01  2.13707E-01 -1.09301E-01
    8988.307     -9.005  -0.360  1.12243E-01  2.33488E-01 -1.21245E-01
    8988.410     -8.902  -0.320  1.20003E-01  2.53216E-01 -1.33213E-01
    8988.502     -8.810  -0.280  1.27401E-01  2.72172E-01 -1.44771E-01
    8988.581     -8.731  -0.240  1.34172E-01  2.89665E-01 -1.55493E-01
    8988.648     -8.664  -0.200  1.40105E-01  3.05118E-01 -1.65013E-01
    8988.703     -8.609  -0.160  1.45057E-01  3.18112E-01 -1.73055E-01
    8988.745     -8.566  -0.120  1.48945E-01  3.28379E-01 -1.79434E-01
    8988.776     -8.536  -0.080  1.51730E-01  3.35771E-01 -1.84041E-01
    8988.800     -8.511   0.000  1.53953E-01  3.41707E-01 -1.87754E-01
    8988.855     -8.457   0.120  1.58952E-01  3.55100E-01 -1.96148E-01
    8988.898     -8.414   0.160  1.62801E-01  3.65495E-01 -2.02694E-01
    8988.953     -8.359   0.200  1.67659E-01  3.78758E-01 -2.11099E-01
    8989.020     -8.292   0.240  1.73427E-01  3.94678E-01 -2.21251E-01
    8989.099     -8.213   0.280  1.79989E-01  4.12965E-01 -2.32975E-01
    8989.190     -8.121   0.320  1.87098E-01  4.33075E-01 -2.45977E-01
    8989.294     -8.018   0.360  1.94581E-01  4.54453E-01 -2.59872E-01
    8989.410     -7.902   0.400  2.02202E-01  4.76404E-01 -2.74201E-01
    8989.538     -7.774   0.440  2.09866E-01  4.98389E-01 -2.88522E-01
    8989.678     -7.634   0.480  2.17452E-01  5.19940E-01 -3.02488E-01
    8989.831     -7.481   0.520  2.24686E-01  5.40732E-01 -3.16046E-01
    8989.995     -7.317   0.560  2.31051E-01  5.60634E-01 -3.29582E-01
    8990.172     -7.140   0.600  2.35732E-01  5.79652E-01 -3.43920E-01
    8990.361     -6.951   0.640  2.37942E-01  5.97789E-01 -3.59848E-01
    8990.562     -6.750   0.680  2.37691E-01  6.15148E-01 -3.77457E-01
    8990.775     -6.536   0.720  2.35868E-01  6.31847E-01 -3.95979E-01
    8991.001     -6.311   0.760  2.34000E-01  6.47986E-01 -4.13986E-01
    8991.239     -6.073   0.800  2.33737E-01  6.63612E-01 -4.29875E-01
    8991.489     -5.823   0.840  2.36748E-01  6.78861E-01 -4.42113E-01
    8991.751     -5.561   0.880  2.44383E-01  6.93749E-01 -4.49366E-01
    8992.025     -5.287   0.920  2.57417E-01  7.08343E-01 -4.50926E-01
    8992.312     -5.000   0.960  2.75715E-01  7.22653E-01 -4.46938E-01
    8992.610     -4.701   1.000  2.98169E-01  7.36719E-01 -4.38551E-01
    8992.921     -4.391   1.040  3.22882E-01  7.50533E-01 -4.27651E-01
    8993.244     -4.068   1.080  3.48655E-01  7.64117E-01 -4.15462E-01
    8993.580     -3.732   1.120  3.77249E-01  7.77465E-01 -4.00216E-01
    8993.927     -3.385   1.160  4.12065E-01  7.90528E-01 -3.78463E-01
    8994.287     -3.025   1.200  4.52371E-01  8.03352E-01 -3.50981E-01
    8994.659     -2.653   1.240  4.91352E-01  8.15859E-01 -3.24507E-01
    8995.043     -2.269   1.280  5.26136E-01  8.28091E-01 -3.01955E-01
    8995.439     -1.873   1.320  5.65340E-01  8.39984E-01 -2.74644E-01
    8995.847     -1.465   1.360  6.21134E-01  8.51537E-01 -2.30402E-01
    8996.268     -1.044   1.400  7.01015E-01  8.62724E-01 -1.61709E-01
    8996.701     -0.611   1.440  8.03767E-01  8.73542E-01 -6.97755E-02
    8997.146     -0.166   1.480  9.16544E-01  8.83947E-01  3.25972E-02
    8997.603      0.291   1.520  1.01230E+00  8.93956E-01  1.18346E-01
    8998.072      0.760   1.560  1.07190E+00  9.03523E-01  1.68381E-01
    8998.554      1.242   1.600  1.10967E+00  9.12666E-01  1.97001E-01
    8999.048      1.736   1.640  1.15897E+00  9.21364E-01  2.37611E-01
    8999.554      2.242   1.680  1.24415E+00  9.29617E-01  3.14533E-01
    9000.072      2.760   1.720  1.35573E+00  9.37403E-01  4.18324E-01
    9000.602      3.290   1.760  1.44920E+00  9.44744E-01  5.04460E-01
    9001.145      3.833   1.800  1.47559E+00  9.51640E-01  5.23948E-01
    9001.699      4.388   1.840  1.43835E+00  9.58075E-01  4.80278E-01
    9002.266      4.955   1.880  1.38136E+00  9.64052E-01  4.17306E-01
    9002.845      5.534   1.920  1.33195E+00  9.69595E-01  3.62353E-01
    9003.437      6.125   1.960  1.28845E+00  9.74710E-01  3.13738E-01
    9004.040      6.728   2.000  1.24903E+00  9.79403E-01  2.69624E-01
    9004.656      7.344   2.040  1.21816E+00  9.83680E-01  2.34482E-01
    9005.284      7.972   2.080  1.19321E+00  9.87570E-01  2.05638E-01
    9005.924      8.612   2.120  1.16791E+00  9.91060E-01  1.76853E-01
    9006.576      9.264   2.160  1.14095E+00  9.94197E-01  1.46749E-01
    9007.241      9.929   2.200  1.11766E+00  9.96992E-01  1.20671E-01
    9007.917     10.605   2.240  1.10233E+00  9.99453E-01  1.02876E-01
    9008.606     11.294   2.280  1.09228E+00  1.00159E+00  9.06923E-02
    9009.307     11.995   2.320  1.08378E+00  1.00343E+00  8.03511E-02
    9010.020     12.709   2.360  1.07680E+00  1.00498E+00  7.18205E-02
    9010.746     13.434   2.400  1.07329E+00  1.00627E+00  6.70188E-02
    9011.483     14.172   2.440  1.07630E+00  1.00731E+00  6.89804E-02
    9012.233     14.921   2.480  1.07996E+00  1.00812E+00  7.18357E-02
    9012.995     15.683   2.520  1.07931E+00  1.00874E+00  7.05709E-02
    9013.769     16.458   2.560  1.07361E+00  1.00915E+00  6.44610E-02
    9014.556     17.244   2.600  1.06296E+00  1.00937E+00  5.35838E-02
    9015.354     18.043   2.640  1.04769E+00  1.00945E+00  3.82378E-02
    9016.165     18.853   2.680  1.02876E+00  1.00939E+00  1.93723E-02
    9016.988     19.676   2.720  1.00839E+00  1.00918E+00 -7.92769E-04
    9017.823     20.511   2.760  9.88607E-01  1.00885E+00 -2.02458E-02
    9018.671     21.359   2.800  9.70350E-01  1.00843E+00 -3.80805E-02
    9019.530     22.218   2.840  9.53809E-01  1.00792E+00 -5.41131E-02
    9020.402     23.090   2.880  9.38797E-01  1.00735E+00 -6.85571E-02
    9021.286     23.974   2.920  9.25036E-01  1.00669E+00 -8.16537E-02
    9022.182     24.870   2.960  9.12789E-01  1.00600E+00 -9.32098E-02
    9023.090     25.778   3.000  9.02797E-01  1.00524E+00 -1.02447E-01
    9024.011     26.699   3.040  8.95564E-01  1.00447E+00 -1.08909E-01
    9024.943     27.632   3.080  8.90976E-01  1.00369E+00 -1.12713E-01
    9025.888     28.576   3.120  8.88536E-01  1.00288E+00 -1.14341E-01
    9026.845     29.533   3.160  8.87537E-01  1.00206E+00 -1.14524E-01
    9027.815     30.503   3.200  8.87426E-01  1.00124E+00 -1.13818E-01
    9028.796     31.484   3.240  8.87863E-01  1.00043E+00 -1.12567E-01
    9029.790     32.478   3.280  8.88444E-01  9.99644E-01 -1.11200E-01
    9030.795     33.484   3.320  8.89079E-01  9.98890E-01 -1.09811E-01
    9031.814     34.502   3.360  8.90165E-01  9.98147E-01 -1.07982E-01
    9032.844     35.532   3.400  8.92596E-01  9.97439E-01 -1.04844E-01
    9033.886     36.574   3.440  8.96981E-01  9.96769E-01 -9.97886E-02
    9034.941     37.629   3.480  9.03742E-01  9.96138E-01 -9.23962E-02
    9036.008     38.696   3.520  9.12960E-01  9.95548E-01 -8.25886E-02
    9037.087     39.775   3.560  9.24353E-01  9.95001E-01 -7.06480E-02
    9038.178     40.866   3.600  9.37424E-01  9.94518E-01 -5.70938E-02
    9039.281     41.969   3.640  9.51577E-01  9.94080E-01 -4.25023E-02
    9040.397     43.085   3.680  9.66035E-01  9.93686E-01 -2.76507E-02
    9041.524     44.213   3.720  9.79793E-01  9.93338E-01 -1.35448E-02
    9042.664     45.353   3.760  9.91916E-01  9.93056E-01 -1.13962E-03
    9043.816     46.505   3.800  1.00168E+00  9.92819E-01  8.85814E-03
    9044.981     47.669   3.840  1.00881E+00  9.92629E-01  1.61800E-02
    9046.157     48.846   3.880  1.01354E+00  9.92507E-01  2.10370E-02
    9047.346     50.034   3.920  1.01644E+00  9.92430E-01  2.40121E-02
    9048.547     51.235   3.960  1.01820E+00  9.92398E-01  2.58041E-02
    9049.760     52.448   4.000  1.01963E+00  9.92433E-01  2.72018E-02
    9050.985     53.674   4.040  1.02145E+00  9.92512E-01  2.89339E-02
    9052.223     54.911   4.080  1.02410E+00  9.92635E-01  3.14697E-02
    9053.472     56.161   4.120  1.02772E+00  9.92801E-01  3.49181E-02
    9054.734     57.423   4.160  1.03216E+00  9.93031E-01  3.91287E-02
    9056.008     58.697   4.200  1.03714E+00  9.93280E-01  4.38584E-02
    9057.295     59.983   4.240  1.04235E+00  9.93587E-01  4.87612E-02
    9058.593     61.281   4.280  1.04725E+00  9.93913E-01  5.33422E-02
    9059.904     62.592   4.320  1.05133E+00  9.94275E-01  5.70516E-02
    9061.227     63.915   4.360  1.05403E+00  9.94671E-01  5.93565E-02
    9062.562     65.250   4.400  1.05507E+00  9.95102E-01  5.99628E-02
    9063.909     66.597   4.440  1.05457E+00  9.95546E-01  5.90267E-02
    9065.268     67.956   4.480  1.05322E+00  9.96022E-01  5.71934E-02
    9066.640     69.328   4.520  1.05178E+00  9.96526E-01  5.52562E-02
    9068.024     70.712   4.560  1.05076E+00  9.97014E-01  5.37462E-02
    9069.420     72.108   4.600  1.05014E+00  9.97529E-01  5.26093E-02
    9070.828     73.516   4.640  1.04936E+00  9.98070E-01  5.12891E-02
    9072.248     74.936   4.680  1.04767E+00  9.98592E-01  4.90820E-02
    9073.681     76.369   4.720  1.04465E+00  9.99136E-01  4.55186E-02
    9075.125     77.814   4.760  1.04021E+00  9.99656E-01  4.05573E-02
    9076.582     79.271   4.800  1.03469E+00  1.00020E+00  3.44933E-02
    9078.051     80.740   4.840  1.02835E+00  1.00071E+00  2.76381E-02
    9079.533     82.221   4.880  1.02144E+00  1.00121E+00  2.02258E-02
    9081.026     83.715   4.920  1.01426E+00  1.00169E+00  1.25710E-02
    9082.532     85.220   4.960  1.00739E+00  1.00218E+00  5.20296E-03
    9084.050     86.738   5.000  1.00139E+00  1.00262E+00 -1.22840E-03
    9085.580     88.268   5.040  9.96791E-01  1.00307E+00 -6.28016E-03
    9087.122     89.810   5.080  9.93561E-01  1.00347E+00 -9.90482E-03
    9088.677     91.365   5.120  9.91382E-01  1.00385E+00 -1.24649E-02
    9090.243     92.932   5.160  9.89578E-01  1.00422E+00 -1.46374E-02
    9091.822     94.510   5.200  9.87317E-01  1.00452E+00 -1.72072E-02
    9093.413     96.102   5.240  9.84105E-01  1.00482E+00 -2.07124E-02
    9095.017     97.705   5.280  9.79988E-01  1.00507E+00 -2.50838E-02
    9096.632     99.320   5.320  9.75571E-01  1.00529E+00 -2.97154E-02
    9098.260    100.948   5.360  9.71586E-01  1.00546E+00 -3.38759E-02
    9099.899    102.588   5.400  9.68493E-01  1.00560E+00 -3.71017E-02
    9101.551    104.240   5.440  9.66414E-01  1.00569E+00 -3.92727E-02
    9103.216    105.904   5.480  9.65265E-01  1.00574E+00 -4.04733E-02
    9104.892    107.580   5.520  9.64896E-01  1.00575E+00 -4.08529E-02
    9106.581    109.269   5.560  9.65126E-01  1.00572E+00 -4.05935E-02
    9108.281    110.970   5.600  9.65787E-01  1.00565E+00 -3.98615E-02
    9109.994    112.683   5.640  9.66678E-01  1.00554E+00 -3.88603E-02
    9111.720    114.408   5.680  9.67479E-01  1.00541E+00 -3.79330E-02
    9113.457    116.145   5.720  9.67662E-01  1.00522E+00 -3.75594E-02
    9115.206    117.895   5.760  9.67064E-01  1.00499E+00 -3.79255E-02
    9116.968    119.656   5.800  9.66239E-01  1.00472E+00 -3.84794E-02
    9118.742    121.430   5.840  9.66374E-01  1.00441E+00 -3.80370E-02
    9120.528    123.216   5.880  9.68529E-01  1.00409E+00 -3.55632E-02
    9122.327    125.015   5.920  9.72853E-01  1.00372E+00 -3.08624E-02
    9124.137    126.825   5.960  9.79102E-01  1.00333E+00 -2.42271E-02
    9125.960    128.648   6.000  9.86806E-01  1.00289E+00 -1.60790E-02
