# # comment:                                                     FEFF 9.9.1  
# # Source:
# # Structure
# # Reduced
# # space
# # abc:
# # angles:
# # sites:
# # POT  SCF 100  7.0000   0, screened core-hole, AFOLP (folp(0)= 1.150)
# # Abs   Z=29 Rmt= 1.248 Rnm= 1.339 K  shell
# # Pot 1 Z=29 Rmt= 1.248 Rnm= 1.339
# # Pot 2 Z=33 Rmt= 1.087 Rnm= 1.293
# # Pot 3 Z= 8 Rmt= 0.918 Rnm= 1.076
# # Gam_ch=1.729E+00 H-L exch Vi= 0.000E+00 Vr= 0.000E+00
# # Mu=-4.917E+00eV kf=2.321E+00 Vint=-1.543E+01eV Rs_int= 1.563
# FMS rfms= 9.0000
# # PATH  Rmax=-1.000,  Keep_limit= 0.00, Heap_limit 0.00  Pwcrit= 2.50%
#  S02=0.950  Temp=   0.00  Debye_temp=   0.00  Global_sig2= 0.00000
#  Energy zero shift, vr, vi    0.00000E+00   0.00000E+00
#  Curved wave amplitude ratio filter   4.000%
#     file         sig2 tot  cw amp ratio   deg  nlegs   reff  inp sig2
#     0/   0 paths used
#  xsedge+ 50, used to normalize mu           2.4561E-04
#  -----------------------------------------------------------------------
#  omega    e    k    mu    mu0     chi     @#
    8983.290     -8.727  -1.000  4.68422E-02  5.87937E-02 -1.19515E-02
    8983.588     -8.428  -0.960  4.97808E-02  6.32373E-02 -1.34565E-02
    8983.875     -8.142  -0.920  5.30114E-02  6.81907E-02 -1.51794E-02
    8984.149     -7.867  -0.880  5.65763E-02  7.37305E-02 -1.71543E-02
    8984.411     -7.605  -0.840  6.05252E-02  7.99459E-02 -1.94208E-02
    8984.661     -7.355  -0.800  6.49161E-02  8.69404E-02 -2.20243E-02
    8984.899     -7.117  -0.760  6.98165E-02  9.48331E-02 -2.50166E-02
    8985.124     -6.892  -0.720  7.53030E-02  1.03759E-01 -2.84556E-02
    8985.338     -6.678  -0.680  8.14608E-02  1.13866E-01 -3.24047E-02
    8985.539     -6.477  -0.640  8.83809E-02  1.25311E-01 -3.69303E-02
    8985.728     -6.288  -0.600  9.61528E-02  1.38250E-01 -4.20975E-02
    8985.905     -6.112  -0.560  1.04853E-01  1.52815E-01 -4.79624E-02
    8986.069     -5.947  -0.520  1.14526E-01  1.69087E-01 -5.45608E-02
    8986.222     -5.795  -0.480  1.25157E-01  1.87049E-01 -6.18919E-02
    8986.362     -5.654  -0.440  1.36644E-01  2.06544E-01 -6.99000E-02
    8986.490     -5.526  -0.400  1.48771E-01  2.27229E-01 -7.84576E-02
    8986.606     -5.411  -0.360  1.61203E-01  2.48561E-01 -8.73583E-02
    8986.709     -5.307  -0.320  1.73513E-01  2.69839E-01 -9.63256E-02
    8986.801     -5.215  -0.280  1.85242E-01  2.90283E-01 -1.05041E-01
    8986.880     -5.136  -0.240  1.95962E-01  3.09145E-01 -1.13183E-01
    8986.947     -5.069  -0.200  2.05337E-01  3.25801E-01 -1.20465E-01
    8987.002     -5.014  -0.160  2.13142E-01  3.39801E-01 -1.26659E-01
    8987.045     -4.972  -0.120  2.19252E-01  3.50857E-01 -1.31605E-01
    8987.075     -4.941  -0.080  2.23610E-01  3.58816E-01 -1.35206E-01
    8987.100     -4.917   0.000  2.27043E-01  3.65206E-01 -1.38163E-01
    8987.154     -4.862   0.120  2.34714E-01  3.79594E-01 -1.44880E-01
    8987.197     -4.819   0.160  2.40721E-01  3.90780E-01 -1.50058E-01
    8987.252     -4.764   0.200  2.48311E-01  4.04999E-01 -1.56689E-01
    8987.319     -4.697   0.240  2.57378E-01  4.22099E-01 -1.64721E-01
    8987.398     -4.618   0.280  2.67626E-01  4.41647E-01 -1.74020E-01
    8987.490     -4.527   0.320  2.78717E-01  4.63125E-01 -1.84408E-01
    8987.593     -4.423   0.360  2.90237E-01  4.85869E-01 -1.95632E-01
    8987.709     -4.307   0.400  3.01724E-01  5.09158E-01 -2.07433E-01
    8987.837     -4.179   0.440  3.12767E-01  5.32327E-01 -2.19561E-01
    8987.977     -4.039   0.480  3.23094E-01  5.54882E-01 -2.31788E-01
    8988.130     -3.887   0.520  3.32610E-01  5.76488E-01 -2.43878E-01
    8988.294     -3.722   0.560  3.41499E-01  5.96997E-01 -2.55498E-01
    8988.471     -3.545   0.600  3.50191E-01  6.16396E-01 -2.66205E-01
    8988.660     -3.356   0.640  3.59135E-01  6.34693E-01 -2.75558E-01
    8988.861     -3.155   0.680  3.68915E-01  6.52047E-01 -2.83131E-01
    8989.075     -2.942   0.720  3.79877E-01  6.68529E-01 -2.88652E-01
    8989.300     -2.716   0.760  3.92276E-01  6.84273E-01 -2.91997E-01
    8989.538     -2.478   0.800  4.06274E-01  6.99382E-01 -2.93108E-01
    8989.788     -2.228   0.840  4.22121E-01  7.13941E-01 -2.91820E-01
    8990.050     -1.966   0.880  4.40243E-01  7.28042E-01 -2.87799E-01
    8990.324     -1.692   0.920  4.60721E-01  7.41722E-01 -2.81001E-01
    8990.611     -1.405   0.960  4.83500E-01  7.55020E-01 -2.71521E-01
    8990.910     -1.107   1.000  5.08681E-01  7.67988E-01 -2.59307E-01
    8991.220     -0.796   1.040  5.35861E-01  7.80622E-01 -2.44761E-01
    8991.544     -0.473   1.080  5.63625E-01  7.92953E-01 -2.29328E-01
    8991.879     -0.137   1.120  5.90251E-01  8.04963E-01 -2.14712E-01
    8992.226      0.210   1.160  6.15490E-01  8.16691E-01 -2.01201E-01
    8992.586      0.570   1.200  6.40490E-01  8.28087E-01 -1.87597E-01
    8992.958      0.941   1.240  6.66935E-01  8.39180E-01 -1.72245E-01
    8993.342      1.326   1.280  6.98751E-01  8.49915E-01 -1.51164E-01
    8993.738      1.722   1.320  7.42895E-01  8.60338E-01 -1.17443E-01
    8994.147      2.130   1.360  8.02179E-01  8.70410E-01 -6.82320E-02
    8994.567      2.551   1.400  8.69288E-01  8.80111E-01 -1.08230E-02
    8995.000      2.984   1.440  9.33389E-01  8.89441E-01  4.39476E-02
    8995.445      3.429   1.480  9.90286E-01  8.98402E-01  9.18848E-02
    8995.902      3.886   1.520  1.03934E+00  9.06952E-01  1.32385E-01
    8996.372      4.355   1.560  1.07713E+00  9.15134E-01  1.61995E-01
    8996.853      4.837   1.600  1.10546E+00  9.22886E-01  1.82576E-01
    8997.347      5.331   1.640  1.13638E+00  9.30251E-01  2.06128E-01
    8997.853      5.837   1.680  1.17602E+00  9.37208E-01  2.38816E-01
    8998.371      6.355   1.720  1.21840E+00  9.43762E-01  2.74634E-01
    8998.901      6.885   1.760  1.25761E+00  9.49915E-01  3.07695E-01
    8999.444      7.428   1.800  1.29328E+00  9.55649E-01  3.37633E-01
    8999.999      7.982   1.840  1.32462E+00  9.61011E-01  3.63607E-01
    9000.566      8.549   1.880  1.34463E+00  9.65985E-01  3.78643E-01
    9001.145      9.128   1.920  1.34469E+00  9.70575E-01  3.74111E-01
    9001.736      9.720   1.960  1.33036E+00  9.74787E-01  3.55572E-01
    9002.340     10.323   2.000  1.31781E+00  9.78649E-01  3.39166E-01
    9002.955     10.939   2.040  1.31541E+00  9.82167E-01  3.33241E-01
    9003.583     11.567   2.080  1.31753E+00  9.85349E-01  3.32183E-01
    9004.223     12.207   2.120  1.30882E+00  9.88223E-01  3.20596E-01
    9004.875     12.859   2.160  1.27955E+00  9.90776E-01  2.88778E-01
    9005.540     13.524   2.200  1.23561E+00  9.93057E-01  2.42558E-01
    9006.217     14.200   2.240  1.18867E+00  9.95052E-01  1.93623E-01
    9006.905     14.889   2.280  1.14531E+00  9.96792E-01  1.48515E-01
    9007.606     15.590   2.320  1.10566E+00  9.98305E-01  1.07354E-01
    9008.320     16.303   2.360  1.06789E+00  9.99577E-01  6.83123E-02
    9009.045     17.029   2.400  1.03145E+00  1.00064E+00  3.08128E-02
    9009.783     17.766   2.440  9.99803E-01  1.00150E+00 -1.69255E-03
    9010.533     18.516   2.480  9.77108E-01  1.00218E+00 -2.50691E-02
    9011.295     19.278   2.520  9.61671E-01  1.00269E+00 -4.10206E-02
    9012.069     20.052   2.560  9.48270E-01  1.00307E+00 -5.47952E-02
    9012.855     20.839   2.600  9.35335E-01  1.00329E+00 -6.79518E-02
    9013.654     21.637   2.640  9.25432E-01  1.00338E+00 -7.79514E-02
    9014.464     22.448   2.680  9.22222E-01  1.00338E+00 -8.11596E-02
    9015.287     23.271   2.720  9.28313E-01  1.00329E+00 -7.49765E-02
    9016.123     24.106   2.760  9.37361E-01  1.00311E+00 -6.57510E-02
    9016.970     24.954   2.800  9.42634E-01  1.00283E+00 -6.02002E-02
    9017.829     25.813   2.840  9.43109E-01  1.00252E+00 -5.94122E-02
    9018.701     26.685   2.880  9.39348E-01  1.00214E+00 -6.27929E-02
    9019.585     27.569   2.920  9.32877E-01  1.00172E+00 -6.88391E-02
    9020.481     28.465   2.960  9.25484E-01  1.00127E+00 -7.57892E-02
    9021.389     29.373   3.000  9.18439E-01  1.00080E+00 -8.23568E-02
    9022.310     30.294   3.040  9.12316E-01  1.00029E+00 -8.79710E-02
    9023.243     31.226   3.080  9.07434E-01  9.99794E-01 -9.23594E-02
    9024.188     32.171   3.120  9.04074E-01  9.99277E-01 -9.52037E-02
    9025.145     33.128   3.160  9.02282E-01  9.98781E-01 -9.64997E-02
    9026.114     34.097   3.200  9.02064E-01  9.98289E-01 -9.62247E-02
    9027.095     35.079   3.240  9.03295E-01  9.97801E-01 -9.45059E-02
    9028.089     36.073   3.280  9.05570E-01  9.97343E-01 -9.17732E-02
    9029.095     37.078   3.320  9.08473E-01  9.96897E-01 -8.84239E-02
    9030.113     38.096   3.360  9.11835E-01  9.96504E-01 -8.46686E-02
    9031.143     39.127   3.400  9.15551E-01  9.96126E-01 -8.05743E-02
    9032.185     40.169   3.440  9.19547E-01  9.95783E-01 -7.62369E-02
    9033.240     41.224   3.480  9.23849E-01  9.95476E-01 -7.16274E-02
    9034.307     42.290   3.520  9.28473E-01  9.95187E-01 -6.67137E-02
    9035.386     43.369   3.560  9.33502E-01  9.94958E-01 -6.14561E-02
    9036.477     44.461   3.600  9.39049E-01  9.94770E-01 -5.57210E-02
    9037.580     45.564   3.640  9.45392E-01  9.94623E-01 -4.92310E-02
    9038.696     46.680   3.680  9.52895E-01  9.94516E-01 -4.16208E-02
    9039.824     47.807   3.720  9.61741E-01  9.94451E-01 -3.27097E-02
    9040.964     48.947   3.760  9.72059E-01  9.94448E-01 -2.23890E-02
    9042.116     50.099   3.800  9.83683E-01  9.94463E-01 -1.07791E-02
    9043.280     51.264   3.840  9.96343E-01  9.94518E-01  1.82430E-03
    9044.457     52.440   3.880  1.00976E+00  9.94635E-01  1.51211E-02
    9045.645     53.629   3.920  1.02360E+00  9.94768E-01  2.88333E-02
    9046.846     54.830   3.960  1.03740E+00  9.94941E-01  4.24640E-02
    9048.059     56.043   4.000  1.05048E+00  9.95174E-01  5.53017E-02
    9049.285     57.268   4.040  1.06190E+00  9.95423E-01  6.64823E-02
    9050.522     58.506   4.080  1.07086E+00  9.95705E-01  7.51564E-02
    9051.772     59.755   4.120  1.07671E+00  9.96001E-01  8.07063E-02
    9053.034     61.017   4.160  1.07936E+00  9.96354E-01  8.30021E-02
    9054.308     62.291   4.200  1.07894E+00  9.96718E-01  8.22189E-02
    9055.594     63.578   4.240  1.07592E+00  9.97114E-01  7.88093E-02
    9056.892     64.876   4.280  1.07103E+00  9.97520E-01  7.35096E-02
    9058.203     66.187   4.320  1.06515E+00  9.97954E-01  6.71929E-02
    9059.526     67.510   4.360  1.05904E+00  9.98393E-01  6.06421E-02
    9060.861     68.845   4.400  1.05323E+00  9.98837E-01  5.43936E-02
    9062.208     70.192   4.440  1.04806E+00  9.99304E-01  4.87540E-02
    9063.567     71.551   4.480  1.04352E+00  9.99753E-01  4.37685E-02
    9064.939     72.923   4.520  1.03960E+00  1.00022E+00  3.93735E-02
    9066.323     74.307   4.560  1.03616E+00  1.00070E+00  3.54631E-02
    9067.719     75.703   4.600  1.03306E+00  1.00117E+00  3.18931E-02
    9069.127     77.111   4.640  1.03015E+00  1.00163E+00  2.85115E-02
    9070.547     78.531   4.680  1.02728E+00  1.00207E+00  2.52031E-02
    9071.980     79.964   4.720  1.02438E+00  1.00251E+00  2.18710E-02
    9073.425     81.408   4.760  1.02136E+00  1.00293E+00  1.84236E-02
    9074.882     82.865   4.800  1.01811E+00  1.00335E+00  1.47520E-02
    9076.351     84.334   4.840  1.01447E+00  1.00374E+00  1.07249E-02
    9077.832     85.816   4.880  1.01036E+00  1.00412E+00  6.23414E-03
    9079.326     87.309   4.920  1.00568E+00  1.00447E+00  1.21199E-03
    9080.831     88.815   4.960  1.00042E+00  1.00478E+00 -4.35624E-03
    9082.349     90.333   5.000  9.94676E-01  1.00507E+00 -1.03980E-02
    9083.879     91.863   5.040  9.88637E-01  1.00533E+00 -1.66974E-02
    9085.422     93.405   5.080  9.82677E-01  1.00556E+00 -2.28829E-02
    9086.976     94.960   5.120  9.77296E-01  1.00577E+00 -2.84749E-02
    9088.543     96.526   5.160  9.72890E-01  1.00594E+00 -3.30544E-02
    9090.122     98.105   5.200  9.69715E-01  1.00608E+00 -3.63635E-02
    9091.713     99.696   5.240  9.67808E-01  1.00617E+00 -3.83647E-02
    9093.316    101.300   5.280  9.67036E-01  1.00623E+00 -3.91916E-02
    9094.931    102.915   5.320  9.67137E-01  1.00624E+00 -3.91070E-02
    9096.559    104.543   5.360  9.67802E-01  1.00624E+00 -3.84399E-02
    9098.199    106.182   5.400  9.68660E-01  1.00618E+00 -3.75212E-02
    9099.851    107.834   5.440  9.69465E-01  1.00610E+00 -3.66374E-02
    9101.515    109.499   5.480  9.70004E-01  1.00598E+00 -3.59791E-02
    9103.191    111.175   5.520  9.70246E-01  1.00580E+00 -3.55560E-02
    9104.880    112.864   5.560  9.70437E-01  1.00560E+00 -3.51681E-02
    9106.581    114.564   5.600  9.70907E-01  1.00537E+00 -3.44649E-02
    9108.294    116.277   5.640  9.71983E-01  1.00512E+00 -3.31395E-02
    9110.019    118.002   5.680  9.73720E-01  1.00481E+00 -3.10948E-02
    9111.756    119.740   5.720  9.75975E-01  1.00449E+00 -2.85167E-02
    9113.506    121.489   5.760  9.78429E-01  1.00411E+00 -2.56808E-02
    9115.267    123.251   5.800  9.80987E-01  1.00374E+00 -2.27514E-02
    9117.041    125.025   5.840  9.83596E-01  1.00331E+00 -1.97170E-02
    9118.828    126.811   5.880  9.86390E-01  1.00288E+00 -1.64889E-02
    9120.626    128.609   5.920  9.89388E-01  1.00242E+00 -1.30281E-02
    9122.436    130.420   5.960  9.92501E-01  1.00193E+00 -9.42362E-03
    9124.259    132.243   6.000  9.95633E-01  1.00141E+00 -5.77819E-03
