# # comment:                                                     FEFF 9.9.1  
# # Source:
# # Structure
# # Reduced
# # space
# # abc:
# # angles:
# # sites:
# # POT  SCF 100  7.0000   0, screened core-hole, AFOLP (folp(0)= 1.150)
# # Abs   Z=29 Rmt= 1.362 Rnm= 1.418 K  shell
# # Pot 1 Z= 3 Rmt= 1.270 Rnm= 1.331
# # Pot 2 Z=29 Rmt= 1.286 Rnm= 1.387
# # Pot 3 Z=15 Rmt= 0.946 Rnm= 1.156
# # Pot 4 Z= 8 Rmt= 0.920 Rnm= 1.036
# # Gam_ch=1.729E+00 H-L exch Vi= 0.000E+00 Vr= 0.000E+00
# # Mu=-5.856E+00eV kf=2.355E+00 Vint=-1.705E+01eV Rs_int= 1.540
# FMS rfms= 9.0000
# # PATH  Rmax=-1.000,  Keep_limit= 0.00, Heap_limit 0.00  Pwcrit= 2.50%
#  S02=0.950  Temp=   0.00  Debye_temp=   0.00  Global_sig2= 0.00000
#  Energy zero shift, vr, vi    0.00000E+00   0.00000E+00
#  Curved wave amplitude ratio filter   4.000%
#     file         sig2 tot  cw amp ratio   deg  nlegs   reff  inp sig2
#     0/   0 paths used
#  xsedge+ 50, used to normalize mu           2.4676E-04
#  -----------------------------------------------------------------------
#  omega    e    k    mu    mu0     chi     @#
    8983.622     -9.666  -1.000  5.39095E-02  5.58294E-02 -1.91990E-03
    8983.920     -9.367  -0.960  5.76674E-02  5.99516E-02 -2.28415E-03
    8984.207     -9.080  -0.920  6.18327E-02  6.45396E-02 -2.70689E-03
    8984.481     -8.806  -0.880  6.64665E-02  6.96628E-02 -3.19634E-03
    8984.743     -8.544  -0.840  7.16405E-02  7.54021E-02 -3.76161E-03
    8984.993     -8.294  -0.800  7.74385E-02  8.18513E-02 -4.41272E-03
    8985.231     -8.056  -0.760  8.39577E-02  8.91182E-02 -5.16048E-03
    8985.456     -7.831  -0.720  9.13085E-02  9.73248E-02 -6.01634E-03
    8985.670     -7.617  -0.680  9.96137E-02  1.06606E-01 -6.99203E-03
    8985.871     -7.416  -0.640  1.09004E-01  1.17103E-01 -8.09896E-03
    8986.060     -7.227  -0.600  1.19610E-01  1.28957E-01 -9.34728E-03
    8986.237     -7.050  -0.560  1.31542E-01  1.42287E-01 -1.07444E-02
    8986.401     -6.886  -0.520  1.44872E-01  1.57165E-01 -1.22931E-02
    8986.554     -6.733  -0.480  1.59588E-01  1.73576E-01 -1.39886E-02
    8986.694     -6.593  -0.440  1.75561E-01  1.91377E-01 -1.58160E-02
    8986.822     -6.465  -0.400  1.92506E-01  2.10254E-01 -1.77479E-02
    8986.938     -6.349  -0.360  2.09972E-01  2.29716E-01 -1.97432E-02
    8987.041     -6.246  -0.320  2.27374E-01  2.49124E-01 -2.17492E-02
    8987.133     -6.154  -0.280  2.44063E-01  2.67769E-01 -2.37060E-02
    8987.212     -6.075  -0.240  2.59421E-01  2.84972E-01 -2.55516E-02
    8987.279     -6.008  -0.200  2.72940E-01  3.00166E-01 -2.72263E-02
    8987.334     -5.953  -0.160  2.84262E-01  3.12938E-01 -2.86759E-02
    8987.377     -5.910  -0.120  2.93174E-01  3.23027E-01 -2.98530E-02
    8987.407     -5.880  -0.080  2.99567E-01  3.30290E-01 -3.07224E-02
    8987.432     -5.856   0.000  3.04667E-01  3.36122E-01 -3.14548E-02
    8987.486     -5.801   0.120  3.15857E-01  3.49279E-01 -3.34224E-02
    8987.529     -5.758   0.160  3.24586E-01  3.59482E-01 -3.48955E-02
    8987.584     -5.703   0.200  3.35660E-01  3.72490E-01 -3.68297E-02
    8987.651     -5.636   0.240  3.48863E-01  3.88111E-01 -3.92479E-02
    8987.730     -5.557   0.280  3.63808E-01  4.05989E-01 -4.21809E-02
    8987.822     -5.465   0.320  3.79983E-01  4.25683E-01 -4.56999E-02
    8987.925     -5.362   0.360  3.96663E-01  4.46532E-01 -4.98698E-02
    8988.041     -5.246   0.400  4.13128E-01  4.67946E-01 -5.48174E-02
    8988.169     -5.118   0.440  4.28577E-01  4.89325E-01 -6.07484E-02
    8988.309     -4.978   0.480  4.42271E-01  5.10205E-01 -6.79335E-02
    8988.462     -4.825   0.520  4.53610E-01  5.30303E-01 -7.66932E-02
    8988.626     -4.661   0.560  4.62303E-01  5.49471E-01 -8.71676E-02
    8988.803     -4.484   0.600  4.68674E-01  5.67717E-01 -9.90433E-02
    8988.992     -4.295   0.640  4.73694E-01  5.85089E-01 -1.11395E-01
    8989.193     -4.094   0.680  4.78871E-01  6.01655E-01 -1.22784E-01
    8989.407     -3.881   0.720  4.86013E-01  6.17578E-01 -1.31564E-01
    8989.632     -3.655   0.760  4.96778E-01  6.32921E-01 -1.36143E-01
    8989.870     -3.417   0.800  5.12559E-01  6.47820E-01 -1.35261E-01
    8990.120     -3.167   0.840  5.33636E-01  6.62331E-01 -1.28695E-01
    8990.382     -2.905   0.880  5.58320E-01  6.76541E-01 -1.18221E-01
    8990.656     -2.631   0.920  5.82811E-01  6.90519E-01 -1.07708E-01
    8990.943     -2.344   0.960  6.03368E-01  7.04263E-01 -1.00896E-01
    8991.242     -2.046   1.000  6.19992E-01  7.17860E-01 -9.78680E-02
    8991.552     -1.735   1.040  6.36852E-01  7.31282E-01 -9.44301E-02
    8991.876     -1.412   1.080  6.59261E-01  7.44557E-01 -8.52967E-02
    8992.211     -1.076   1.120  6.90778E-01  7.57687E-01 -6.69084E-02
    8992.558     -0.729   1.160  7.32429E-01  7.70683E-01 -3.82546E-02
    8992.918     -0.369   1.200  7.82923E-01  7.83516E-01 -5.93251E-04
    8993.290      0.003   1.240  8.38558E-01  7.96169E-01  4.23886E-02
    8993.674      0.387   1.280  8.93109E-01  8.08645E-01  8.44641E-02
    8994.070      0.783   1.320  9.41497E-01  8.20903E-01  1.20593E-01
    8994.479      1.191   1.360  9.85202E-01  8.32960E-01  1.52242E-01
    8994.899      1.612   1.400  1.02968E+00  8.44750E-01  1.84926E-01
    8995.332      2.045   1.440  1.07790E+00  8.56290E-01  2.21615E-01
    8995.777      2.490   1.480  1.13181E+00  8.67551E-01  2.64256E-01
    8996.234      2.947   1.520  1.18959E+00  8.78509E-01  3.11085E-01
    8996.704      3.416   1.560  1.24090E+00  8.89116E-01  3.51788E-01
    8997.185      3.898   1.600  1.27371E+00  8.99405E-01  3.74302E-01
    8997.679      4.392   1.640  1.28363E+00  9.09307E-01  3.74319E-01
    8998.185      4.898   1.680  1.27271E+00  9.18838E-01  3.53873E-01
    8998.703      5.416   1.720  1.24457E+00  9.27973E-01  3.16601E-01
    8999.233      5.946   1.760  1.20629E+00  9.36687E-01  2.69598E-01
    8999.776      6.489   1.800  1.16557E+00  9.44996E-01  2.20569E-01
    9000.331      7.043   1.840  1.12446E+00  9.52875E-01  1.71584E-01
    9000.898      7.610   1.880  1.08467E+00  9.60323E-01  1.24351E-01
    9001.477      8.190   1.920  1.05916E+00  9.67320E-01  9.18401E-02
    9002.068      8.781   1.960  1.06308E+00  9.73884E-01  8.91920E-02
    9002.672      9.384   2.000  1.09420E+00  9.80017E-01  1.14184E-01
    9003.287     10.000   2.040  1.12781E+00  9.85698E-01  1.42113E-01
    9003.915     10.628   2.080  1.13739E+00  9.90930E-01  1.46465E-01
    9004.555     11.268   2.120  1.11889E+00  9.95737E-01  1.23148E-01
    9005.207     11.920   2.160  1.08382E+00  1.00012E+00  8.36927E-02
    9005.872     12.585   2.200  1.04417E+00  1.00410E+00  4.00794E-02
    9006.549     13.261   2.240  1.01026E+00  1.00766E+00  2.60554E-03
    9007.237     13.950   2.280  9.87863E-01  1.01084E+00 -2.29725E-02
    9007.938     14.651   2.320  9.75913E-01  1.01364E+00 -3.77242E-02
    9008.652     15.364   2.360  9.67455E-01  1.01605E+00 -4.85939E-02
    9009.377     16.090   2.400  9.56215E-01  1.01814E+00 -6.19248E-02
    9010.115     16.828   2.440  9.44322E-01  1.01988E+00 -7.55530E-02
    9010.864     17.577   2.480  9.37843E-01  1.02129E+00 -8.34425E-02
    9011.626     18.339   2.520  9.38230E-01  1.02240E+00 -8.41704E-02
    9012.401     19.114   2.560  9.41695E-01  1.02323E+00 -8.15324E-02
    9013.187     19.900   2.600  9.43404E-01  1.02380E+00 -8.03935E-02
    9013.986     20.698   2.640  9.41595E-01  1.02412E+00 -8.25242E-02
    9014.796     21.509   2.680  9.37749E-01  1.02420E+00 -8.64517E-02
    9015.619     22.332   2.720  9.33486E-01  1.02407E+00 -9.05856E-02
    9016.455     23.167   2.760  9.28849E-01  1.02374E+00 -9.48901E-02
    9017.302     24.015   2.800  9.24339E-01  1.02323E+00 -9.88955E-02
    9018.161     24.874   2.840  9.21385E-01  1.02256E+00 -1.01179E-01
    9019.033     25.746   2.880  9.20798E-01  1.02174E+00 -1.00940E-01
    9019.917     26.630   2.920  9.22056E-01  1.02079E+00 -9.87300E-02
    9020.813     27.526   2.960  9.24216E-01  1.01973E+00 -9.55188E-02
    9021.721     28.434   3.000  9.27052E-01  1.01857E+00 -9.15183E-02
    9022.642     29.355   3.040  9.30767E-01  1.01732E+00 -8.65554E-02
    9023.575     30.287   3.080  9.35649E-01  1.01602E+00 -8.03701E-02
    9024.519     31.232   3.120  9.41833E-01  1.01464E+00 -7.28116E-02
    9025.477     32.189   3.160  9.49169E-01  1.01323E+00 -6.40570E-02
    9026.446     33.159   3.200  9.57186E-01  1.01179E+00 -5.46061E-02
    9027.427     34.140   3.240  9.65498E-01  1.01032E+00 -4.48267E-02
    9028.421     35.134   3.280  9.73762E-01  1.00885E+00 -3.50892E-02
    9029.427     36.140   3.320  9.81718E-01  1.00736E+00 -2.56373E-02
    9030.445     37.158   3.360  9.89521E-01  1.00590E+00 -1.63834E-02
    9031.475     38.188   3.400  9.97331E-01  1.00444E+00 -7.11224E-03
    9032.517     39.230   3.440  1.00534E+00  1.00303E+00  2.30504E-03
    9033.572     40.285   3.480  1.01360E+00  1.00164E+00  1.19593E-02
    9034.639     41.352   3.520  1.02216E+00  1.00031E+00  2.18517E-02
    9035.718     42.431   3.560  1.03091E+00  9.99001E-01  3.19119E-02
    9036.809     43.522   3.600  1.03982E+00  9.97759E-01  4.20565E-02
    9037.912     44.625   3.640  1.04875E+00  9.96586E-01  5.21676E-02
    9039.028     45.741   3.680  1.05754E+00  9.95464E-01  6.20717E-02
    9040.156     46.868   3.720  1.06586E+00  9.94416E-01  7.14449E-02
    9041.296     48.008   3.760  1.07333E+00  9.93442E-01  7.98900E-02
    9042.448     49.161   3.800  1.07941E+00  9.92524E-01  8.68820E-02
    9043.612     50.325   3.840  1.08352E+00  9.91685E-01  9.18387E-02
    9044.789     51.501   3.880  1.08529E+00  9.90945E-01  9.43413E-02
    9045.977     52.690   3.920  1.08443E+00  9.90264E-01  9.41663E-02
    9047.178     53.891   3.960  1.08099E+00  9.89684E-01  9.13062E-02
    9048.391     55.104   4.000  1.07510E+00  9.89162E-01  8.59403E-02
    9049.617     56.329   4.040  1.06720E+00  9.88720E-01  7.84769E-02
    9050.854     57.567   4.080  1.05764E+00  9.88380E-01  6.92595E-02
    9052.104     58.817   4.120  1.04664E+00  9.88099E-01  5.85428E-02
    9053.366     60.078   4.160  1.03445E+00  9.87896E-01  4.65522E-02
    9054.640     61.353   4.200  1.02138E+00  9.87793E-01  3.35848E-02
    9055.926     62.639   4.240  1.00776E+00  9.87748E-01  2.00068E-02
    9057.224     63.937   4.280  9.94096E-01  9.87779E-01  6.31723E-03
    9058.535     65.248   4.320  9.80955E-01  9.87884E-01 -6.92964E-03
    9059.858     66.571   4.360  9.68838E-01  9.88042E-01 -1.92041E-02
    9061.193     67.906   4.400  9.58246E-01  9.88270E-01 -3.00233E-02
    9062.540     69.253   4.440  9.49464E-01  9.88547E-01 -3.90829E-02
    9063.899     70.612   4.480  9.42573E-01  9.88895E-01 -4.63219E-02
    9065.271     71.984   4.520  9.37510E-01  9.89290E-01 -5.17796E-02
    9066.655     73.368   4.560  9.34264E-01  9.89752E-01 -5.54874E-02
    9068.051     74.764   4.600  9.32824E-01  9.90255E-01 -5.74304E-02
    9069.459     76.172   4.640  9.33193E-01  9.90776E-01 -5.75825E-02
    9070.879     77.592   4.680  9.35337E-01  9.91355E-01 -5.60181E-02
    9072.312     79.025   4.720  9.38879E-01  9.91948E-01 -5.30693E-02
    9073.757     80.469   4.760  9.43398E-01  9.92573E-01 -4.91757E-02
    9075.214     81.926   4.800  9.48456E-01  9.93208E-01 -4.47521E-02
    9076.683     83.396   4.840  9.53852E-01  9.93870E-01 -4.00187E-02
    9078.164     84.877   4.880  9.59629E-01  9.94538E-01 -3.49083E-02
    9079.658     86.370   4.920  9.66023E-01  9.95206E-01 -2.91835E-02
    9081.163     87.876   4.960  9.73191E-01  9.95874E-01 -2.26835E-02
    9082.681     89.394   5.000  9.81048E-01  9.96540E-01 -1.54927E-02
    9084.211     90.924   5.040  9.89183E-01  9.97203E-01 -8.01974E-03
    9085.754     92.466   5.080  9.96997E-01  9.97859E-01 -8.61473E-04
    9087.308     94.021   5.120  1.00389E+00  9.98483E-01  5.40837E-03
    9088.875     95.588   5.160  1.00947E+00  9.99072E-01  1.03967E-02
    9090.454     97.166   5.200  1.01356E+00  9.99649E-01  1.39149E-02
    9092.045     98.757   5.240  1.01607E+00  1.00019E+00  1.58789E-02
    9093.648    100.361   5.280  1.01690E+00  1.00069E+00  1.62074E-02
    9095.263    101.976   5.320  1.01591E+00  1.00115E+00  1.47600E-02
    9096.891    103.604   5.360  1.01295E+00  1.00157E+00  1.13865E-02
    9098.531    105.244   5.400  1.00804E+00  1.00194E+00  6.09953E-03
    9100.183    106.896   5.440  1.00153E+00  1.00227E+00 -7.41123E-04
    9101.847    108.560   5.480  9.94197E-01  1.00253E+00 -8.33564E-03
    9103.523    110.236   5.520  9.87181E-01  1.00275E+00 -1.55665E-02
    9105.212    111.925   5.560  9.81670E-01  1.00291E+00 -2.12442E-02
    9106.913    113.625   5.600  9.78710E-01  1.00301E+00 -2.43017E-02
    9108.626    115.338   5.640  9.79087E-01  1.00306E+00 -2.39718E-02
    9110.351    117.064   5.680  9.83080E-01  1.00304E+00 -1.99550E-02
    9112.088    118.801   5.720  9.90492E-01  1.00296E+00 -1.24714E-02
    9113.838    120.551   5.760  1.00064E+00  1.00282E+00 -2.18586E-03
    9115.599    122.312   5.800  1.01256E+00  1.00263E+00  9.92272E-03
    9117.373    124.086   5.840  1.02509E+00  1.00240E+00  2.26907E-02
    9119.159    125.872   5.880  1.03696E+00  1.00210E+00  3.48654E-02
    9120.958    127.671   5.920  1.04694E+00  1.00175E+00  4.51878E-02
    9122.768    129.481   5.960  1.05371E+00  1.00133E+00  5.23712E-02
    9124.591    131.304   6.000  1.05593E+00  1.00084E+00  5.50938E-02
