# # comment:                                                     FEFF 9.9.1  
# # Source:
# # Structure
# # Reduced
# # space
# # abc:
# # angles:
# # sites:
# # POT  SCF 100  7.0000   0, screened core-hole, AFOLP (folp(0)= 1.150)
# # Abs   Z=29 Rmt= 1.201 Rnm= 1.298 K  shell
# # Pot 1 Z=29 Rmt= 1.201 Rnm= 1.298
# # Pot 2 Z=35 Rmt= 1.732 Rnm= 1.784
# # Pot 3 Z= 8 Rmt= 1.015 Rnm= 1.122
# # Gam_ch=1.729E+00 H-L exch Vi= 0.000E+00 Vr= 0.000E+00
# # Mu=-7.328E+00eV kf=2.050E+00 Vint=-1.321E+01eV Rs_int= 1.769
# FMS rfms= 9.0000
# # PATH  Rmax=-1.000,  Keep_limit= 0.00, Heap_limit 0.00  Pwcrit= 2.50%
#  S02=0.950  Temp=   0.00  Debye_temp=   0.00  Global_sig2= 0.00000
#  Energy zero shift, vr, vi    0.00000E+00   0.00000E+00
#  Curved wave amplitude ratio filter   4.000%
#     file         sig2 tot  cw amp ratio   deg  nlegs   reff  inp sig2
#     0/   0 paths used
#  xsedge+ 50, used to normalize mu           2.4048E-04
#  -----------------------------------------------------------------------
#  omega    e    k    mu    mu0     chi     @#
    8983.469    -11.138  -1.000  3.23450E-02  5.75424E-02 -2.51974E-02
    8983.768    -10.839  -0.960  3.37227E-02  6.16743E-02 -2.79517E-02
    8984.054    -10.553  -0.920  3.51858E-02  6.62521E-02 -3.10663E-02
    8984.329    -10.279  -0.880  3.67447E-02  7.13394E-02 -3.45947E-02
    8984.591    -10.016  -0.840  3.84115E-02  7.70099E-02 -3.85984E-02
    8984.841     -9.766  -0.800  4.02008E-02  8.33486E-02 -4.31478E-02
    8985.079     -9.529  -0.760  4.21297E-02  9.04527E-02 -4.83230E-02
    8985.304     -9.303  -0.720  4.42181E-02  9.84315E-02 -5.42134E-02
    8985.517     -9.090  -0.680  4.64886E-02  1.07405E-01 -6.09164E-02
    8985.719     -8.889  -0.640  4.89654E-02  1.17499E-01 -6.85336E-02
    8985.908     -8.700  -0.600  5.16728E-02  1.28837E-01 -7.71640E-02
    8986.084     -8.523  -0.560  5.46310E-02  1.41522E-01 -8.68910E-02
    8986.249     -8.358  -0.520  5.78511E-02  1.55615E-01 -9.77640E-02
    8986.401     -8.206  -0.480  6.13264E-02  1.71099E-01 -1.09772E-01
    8986.542     -8.066  -0.440  6.50236E-02  1.87838E-01 -1.22814E-01
    8986.670     -7.938  -0.400  6.88748E-02  2.05548E-01 -1.36673E-01
    8986.785     -7.822  -0.360  7.27767E-02  2.23784E-01 -1.51007E-01
    8986.889     -7.718  -0.320  7.65992E-02  2.41966E-01 -1.65366E-01
    8986.980     -7.627  -0.280  8.02039E-02  2.59448E-01 -1.79244E-01
    8987.060     -7.548  -0.240  8.34667E-02  2.75607E-01 -1.92140E-01
    8987.127     -7.481  -0.200  8.62952E-02  2.89913E-01 -2.03617E-01
    8987.182     -7.426  -0.160  8.86348E-02  3.01971E-01 -2.13336E-01
    8987.224     -7.383  -0.120  9.04640E-02  3.11523E-01 -2.21059E-01
    8987.255     -7.352  -0.080  9.17818E-02  3.18417E-01 -2.26635E-01
    8987.279     -7.328   0.000  9.28757E-02  3.23965E-01 -2.31089E-01
    8987.334     -7.273   0.120  9.52185E-02  3.36491E-01 -2.41273E-01
    8987.377     -7.231   0.160  9.69112E-02  3.46265E-01 -2.49354E-01
    8987.432     -7.176   0.200  9.89642E-02  3.58796E-01 -2.59832E-01
    8987.499     -7.109   0.240  1.01290E-01  3.73937E-01 -2.72647E-01
    8987.578     -7.029   0.280  1.03729E-01  3.91444E-01 -2.87715E-01
    8987.669     -6.938   0.320  1.06169E-01  4.10952E-01 -3.04783E-01
    8987.773     -6.834   0.360  1.08475E-01  4.31995E-01 -3.23520E-01
    8987.889     -6.719   0.400  1.10497E-01  4.54050E-01 -3.43554E-01
    8988.017     -6.590   0.440  1.12170E-01  4.76633E-01 -3.64463E-01
    8988.157     -6.450   0.480  1.13492E-01  4.99361E-01 -3.85869E-01
    8988.309     -6.298   0.520  1.14616E-01  5.22003E-01 -4.07387E-01
    8988.474     -6.133   0.560  1.15767E-01  5.44423E-01 -4.28656E-01
    8988.651     -5.957   0.600  1.17314E-01  5.66560E-01 -4.49246E-01
    8988.840     -5.768   0.640  1.19615E-01  5.88429E-01 -4.68814E-01
    8989.041     -5.566   0.680  1.23023E-01  6.10077E-01 -4.87054E-01
    8989.254     -5.353   0.720  1.27754E-01  6.31518E-01 -5.03764E-01
    8989.480     -5.127   0.760  1.34043E-01  6.52822E-01 -5.18780E-01
    8989.718     -4.890   0.800  1.41951E-01  6.73989E-01 -5.32038E-01
    8989.968     -4.640   0.840  1.51264E-01  6.95002E-01 -5.43738E-01
    8990.230     -4.378   0.880  1.61540E-01  7.15895E-01 -5.54355E-01
    8990.504     -4.103   0.920  1.72205E-01  7.36603E-01 -5.64398E-01
    8990.790     -3.817   0.960  1.83562E-01  7.57092E-01 -5.73529E-01
    8991.089     -3.518   1.000  1.97127E-01  7.77317E-01 -5.80190E-01
    8991.400     -3.207   1.040  2.15378E-01  7.97228E-01 -5.81850E-01
    8991.723     -2.884   1.080  2.41188E-01  8.16725E-01 -5.75537E-01
    8992.058     -2.549   1.120  2.77792E-01  8.35767E-01 -5.57975E-01
    8992.406     -2.201   1.160  3.27954E-01  8.54290E-01 -5.26335E-01
    8992.766     -1.842   1.200  3.91317E-01  8.72207E-01 -4.80890E-01
    8993.137     -1.470   1.240  4.62630E-01  8.89454E-01 -4.26824E-01
    8993.521     -1.086   1.280  5.34558E-01  9.05986E-01 -3.71429E-01
    8993.918     -0.690   1.320  6.02604E-01  9.21762E-01 -3.19158E-01
    8994.326     -0.281   1.360  6.67211E-01  9.36701E-01 -2.69490E-01
    8994.747      0.139   1.400  7.27749E-01  9.50768E-01 -2.23018E-01
    8995.180      0.572   1.440  7.76956E-01  9.63971E-01 -1.87015E-01
    8995.625      1.017   1.480  8.06431E-01  9.76261E-01 -1.69830E-01
    8996.082      1.474   1.520  8.20487E-01  9.87613E-01 -1.67127E-01
    8996.551      1.944   1.560  8.37523E-01  9.98047E-01 -1.60524E-01
    8997.033      2.425   1.600  8.69026E-01  1.00755E+00 -1.38520E-01
    8997.527      2.919   1.640  9.06639E-01  1.01614E+00 -1.09498E-01
    8998.032      3.425   1.680  9.38181E-01  1.02381E+00 -8.56301E-02
    8998.551      3.943   1.720  9.69005E-01  1.03064E+00 -6.16357E-02
    8999.081      4.474   1.760  1.01386E+00  1.03660E+00 -2.27382E-02
    8999.624      5.016   1.800  1.07706E+00  1.04175E+00  3.53067E-02
    9000.178      5.571   1.840  1.14826E+00  1.04611E+00  1.02154E-01
    9000.745      6.138   1.880  1.22338E+00  1.04976E+00  1.73621E-01
    9001.324      6.717   1.920  1.31631E+00  1.05268E+00  2.63633E-01
    9001.916      7.308   1.960  1.44232E+00  1.05498E+00  3.87338E-01
    9002.519      7.912   2.000  1.59236E+00  1.05666E+00  5.35705E-01
    9003.135      8.528   2.040  1.72312E+00  1.05776E+00  6.65359E-01
    9003.763      9.155   2.080  1.77683E+00  1.05837E+00  7.18461E-01
    9004.403      9.795   2.120  1.72841E+00  1.05849E+00  6.69915E-01
    9005.055     10.448   2.160  1.61097E+00  1.05819E+00  5.52784E-01
    9005.720     11.112   2.200  1.47441E+00  1.05750E+00  4.16910E-01
    9006.396     11.789   2.240  1.34942E+00  1.05647E+00  2.92945E-01
    9007.085     12.478   2.280  1.25518E+00  1.05514E+00  2.00040E-01
    9007.786     13.179   2.320  1.19663E+00  1.05353E+00  1.43098E-01
    9008.499     13.892   2.360  1.16475E+00  1.05170E+00  1.13049E-01
    9009.225     14.617   2.400  1.14460E+00  1.04966E+00  9.49411E-02
    9009.962     15.355   2.440  1.11970E+00  1.04748E+00  7.22189E-02
    9010.712     16.105   2.480  1.08770E+00  1.04514E+00  4.25610E-02
    9011.474     16.867   2.520  1.06435E+00  1.04271E+00  2.16446E-02
    9012.248     17.641   2.560  1.05058E+00  1.04019E+00  1.03942E-02
    9013.035     18.427   2.600  1.04223E+00  1.03760E+00  4.63247E-03
    9013.833     19.226   2.640  1.03601E+00  1.03499E+00  1.01903E-03
    9014.644     20.037   2.680  1.02974E+00  1.03237E+00 -2.63606E-03
    9015.467     20.860   2.720  1.02213E+00  1.02976E+00 -7.62426E-03
    9016.302     21.695   2.760  1.01273E+00  1.02715E+00 -1.44232E-02
    9017.149     22.542   2.800  1.00218E+00  1.02461E+00 -2.24307E-02
    9018.009     23.402   2.840  9.91428E-01  1.02209E+00 -3.06594E-02
    9018.881     24.273   2.880  9.80965E-01  1.01966E+00 -3.86960E-02
    9019.765     25.157   2.920  9.70810E-01  1.01729E+00 -4.64830E-02
    9020.661     26.053   2.960  9.61153E-01  1.01501E+00 -5.38533E-02
    9021.569     26.962   3.000  9.52135E-01  1.01283E+00 -6.06964E-02
    9022.490     27.882   3.040  9.43803E-01  1.01075E+00 -6.69460E-02
    9023.422     28.815   3.080  9.36261E-01  1.00878E+00 -7.25210E-02
    9024.367     29.760   3.120  9.29116E-01  1.00694E+00 -7.78209E-02
    9025.324     30.717   3.160  9.21870E-01  1.00521E+00 -8.33446E-02
    9026.293     31.686   3.200  9.14255E-01  1.00362E+00 -8.93610E-02
    9027.275     32.668   3.240  9.06238E-01  1.00214E+00 -9.59050E-02
    9028.269     33.661   3.280  8.97958E-01  1.00080E+00 -1.02838E-01
    9029.274     34.667   3.320  8.89762E-01  9.99579E-01 -1.09816E-01
    9030.292     35.685   3.360  8.82367E-01  9.98512E-01 -1.16145E-01
    9031.323     36.715   3.400  8.76274E-01  9.97576E-01 -1.21302E-01
    9032.365     37.758   3.440  8.72098E-01  9.96791E-01 -1.24693E-01
    9033.420     38.812   3.480  8.70427E-01  9.96113E-01 -1.25685E-01
    9034.486     39.879   3.520  8.71765E-01  9.95586E-01 -1.23820E-01
    9035.565     40.958   3.560  8.76181E-01  9.95208E-01 -1.19028E-01
    9036.657     42.049   3.600  8.83557E-01  9.94937E-01 -1.11380E-01
    9037.760     43.153   3.640  8.93715E-01  9.94790E-01 -1.01076E-01
    9038.876     44.268   3.680  9.06312E-01  9.94789E-01 -8.84776E-02
    9040.003     45.396   3.720  9.21004E-01  9.94890E-01 -7.38859E-02
    9041.143     46.536   3.760  9.37604E-01  9.95135E-01 -5.75312E-02
    9042.295     47.688   3.800  9.55652E-01  9.95478E-01 -3.98258E-02
    9043.460     48.852   3.840  9.74399E-01  9.95936E-01 -2.15377E-02
    9044.636     50.029   3.880  9.92780E-01  9.96488E-01 -3.70858E-03
    9045.825     51.218   3.920  1.00954E+00  9.97153E-01  1.23844E-02
    9047.026     52.419   3.960  1.02339E+00  9.97907E-01  2.54816E-02
    9048.239     53.632   4.000  1.03356E+00  9.98768E-01  3.47873E-02
    9049.464     54.857   4.040  1.03996E+00  9.99690E-01  4.02686E-02
    9050.702     56.094   4.080  1.04328E+00  1.00069E+00  4.25929E-02
    9051.951     57.344   4.120  1.04475E+00  1.00177E+00  4.29809E-02
    9053.213     58.606   4.160  1.04574E+00  1.00292E+00  4.28139E-02
    9054.487     59.880   4.200  1.04731E+00  1.00412E+00  4.31873E-02
    9055.774     61.166   4.240  1.05001E+00  1.00537E+00  4.46434E-02
    9057.072     62.465   4.280  1.05381E+00  1.00665E+00  4.71583E-02
    9058.383     63.775   4.320  1.05827E+00  1.00798E+00  5.02864E-02
    9059.705     65.098   4.360  1.06277E+00  1.00934E+00  5.34245E-02
    9061.040     66.433   4.400  1.06674E+00  1.01074E+00  5.59978E-02
    9062.388     67.780   4.440  1.06972E+00  1.01214E+00  5.75721E-02
    9063.747     69.140   4.480  1.07142E+00  1.01355E+00  5.78683E-02
    9065.119     70.511   4.520  1.07183E+00  1.01495E+00  5.68741E-02
    9066.502     71.895   4.560  1.07130E+00  1.01636E+00  5.49447E-02
    9067.898     73.291   4.600  1.07041E+00  1.01775E+00  5.26558E-02
    9069.307     74.699   4.640  1.06953E+00  1.01911E+00  5.04222E-02
    9070.727     76.120   4.680  1.06883E+00  1.02044E+00  4.83934E-02
    9072.160     77.552   4.720  1.06815E+00  1.02175E+00  4.64016E-02
    9073.604     78.997   4.760  1.06726E+00  1.02302E+00  4.42440E-02
    9075.061     80.454   4.800  1.06612E+00  1.02425E+00  4.18761E-02
    9076.530     81.923   4.840  1.06487E+00  1.02543E+00  3.94431E-02
    9078.012     83.404   4.880  1.06377E+00  1.02654E+00  3.72239E-02
    9079.505     84.898   4.920  1.06312E+00  1.02760E+00  3.55207E-02
    9081.011     86.404   4.960  1.06301E+00  1.02858E+00  3.44212E-02
    9082.529     87.921   5.000  1.06325E+00  1.02951E+00  3.37347E-02
    9084.059     89.452   5.040  1.06338E+00  1.03036E+00  3.30132E-02
    9085.601     90.994   5.080  1.06283E+00  1.03113E+00  3.16957E-02
    9087.156     92.548   5.120  1.06112E+00  1.03182E+00  2.93017E-02
    9088.722     94.115   5.160  1.05793E+00  1.03242E+00  2.55083E-02
    9090.301     95.694   5.200  1.05306E+00  1.03294E+00  2.01243E-02
    9091.892     97.285   5.240  1.04645E+00  1.03337E+00  1.30837E-02
    9093.495     98.888   5.280  1.03826E+00  1.03372E+00  4.54299E-03
    9095.111    100.504   5.320  1.02895E+00  1.03398E+00 -5.03140E-03
    9096.739    102.131   5.360  1.01930E+00  1.03416E+00 -1.48548E-02
    9098.378    103.771   5.400  1.01003E+00  1.03423E+00 -2.41975E-02
    9100.030    105.423   5.440  1.00150E+00  1.03423E+00 -3.27285E-02
    9101.695    107.087   5.480  9.93579E-01  1.03413E+00 -4.05471E-02
    9103.371    108.764   5.520  9.86075E-01  1.03394E+00 -4.78631E-02
    9105.060    110.452   5.560  9.78940E-01  1.03369E+00 -5.47515E-02
    9106.760    112.153   5.600  9.72378E-01  1.03334E+00 -6.09635E-02
    9108.473    113.866   5.640  9.66978E-01  1.03293E+00 -6.59563E-02
    9110.198    115.591   5.680  9.63343E-01  1.03245E+00 -6.91053E-02
    9111.936    117.328   5.720  9.61808E-01  1.03189E+00 -7.00775E-02
    9113.685    119.078   5.760  9.62265E-01  1.03125E+00 -6.89821E-02
    9115.447    120.840   5.800  9.64258E-01  1.03056E+00 -6.63015E-02
    9117.221    122.614   5.840  9.67208E-01  1.02983E+00 -6.26222E-02
    9119.007    124.400   5.880  9.70621E-01  1.02904E+00 -5.84149E-02
    9120.805    126.198   5.920  9.74305E-01  1.02820E+00 -5.38983E-02
    9122.616    128.009   5.960  9.78301E-01  1.02734E+00 -4.90377E-02
    9124.439    129.831   6.000  9.83020E-01  1.02640E+00 -4.33787E-02
