# # comment:                                                     FEFF 9.9.1  
# # Source:
# # Structure
# # Reduced
# # space
# # abc:
# # angles:
# # sites:
# # POT  SCF 100  7.0000   0, screened core-hole, AFOLP (folp(0)= 1.150)
# # Abs   Z=29 Rmt= 1.224 Rnm= 1.302 K  shell
# # Pot 1 Z= 3 Rmt= 1.256 Rnm= 1.311
# # Pot 2 Z=22 Rmt= 1.266 Rnm= 1.399
# # Pot 3 Z=29 Rmt= 1.238 Rnm= 1.309
# # Pot 4 Z= 8 Rmt= 1.054 Rnm= 1.110
# # Gam_ch=1.729E+00 H-L exch Vi= 0.000E+00 Vr= 0.000E+00
# # Mu=-9.248E+00eV kf=2.108E+00 Vint=-1.747E+01eV Rs_int= 1.720
# FMS rfms= 9.0000
# # PATH  Rmax=-1.000,  Keep_limit= 0.00, Heap_limit 0.00  Pwcrit= 2.50%
#  S02=0.950  Temp=   0.00  Debye_temp=   0.00  Global_sig2= 0.00000
#  Energy zero shift, vr, vi    0.00000E+00   0.00000E+00
#  Curved wave amplitude ratio filter   4.000%
#     file         sig2 tot  cw amp ratio   deg  nlegs   reff  inp sig2
#     0/   0 paths used
#  xsedge+ 50, used to normalize mu           2.4526E-04
#  -----------------------------------------------------------------------
#  omega    e    k    mu    mu0     chi     @#
    8984.811    -13.058  -1.000  3.54582E-02  5.38354E-02 -1.83772E-02
    8985.109    -12.759  -0.960  3.71114E-02  5.77242E-02 -2.06127E-02
    8985.396    -12.472  -0.920  3.88677E-02  6.20424E-02 -2.31747E-02
    8985.670    -12.198  -0.880  4.07364E-02  6.68528E-02 -2.61164E-02
    8985.932    -11.936  -0.840  4.27286E-02  7.22286E-02 -2.95000E-02
    8986.182    -11.686  -0.800  4.48567E-02  7.82544E-02 -3.33977E-02
    8986.420    -11.448  -0.760  4.71349E-02  8.50273E-02 -3.78924E-02
    8986.646    -11.223  -0.720  4.95789E-02  9.26567E-02 -4.30779E-02
    8986.859    -11.009  -0.680  5.22058E-02  1.01263E-01 -4.90576E-02
    8987.060    -10.808  -0.640  5.50335E-02  1.10975E-01 -5.59411E-02
    8987.249    -10.619  -0.600  5.80784E-02  1.21915E-01 -6.38365E-02
    8987.426    -10.443  -0.560  6.13535E-02  1.34191E-01 -7.28374E-02
    8987.590    -10.278  -0.520  6.48627E-02  1.47865E-01 -8.30026E-02
    8987.743    -10.126  -0.480  6.85957E-02  1.62923E-01 -9.43276E-02
    8987.883     -9.985  -0.440  7.25202E-02  1.79233E-01 -1.06713E-01
    8988.011     -9.857  -0.400  7.65759E-02  1.96512E-01 -1.19936E-01
    8988.127     -9.741  -0.360  8.06728E-02  2.14316E-01 -1.33643E-01
    8988.231     -9.638  -0.320  8.46964E-02  2.32068E-01 -1.47372E-01
    8988.322     -9.546  -0.280  8.85207E-02  2.49127E-01 -1.60606E-01
    8988.401     -9.467  -0.240  9.20253E-02  2.64877E-01 -1.72852E-01
    8988.468     -9.400  -0.200  9.51095E-02  2.78799E-01 -1.83690E-01
    8988.523     -9.345  -0.160  9.77002E-02  2.90514E-01 -1.92814E-01
    8988.566     -9.303  -0.120  9.97507E-02  2.99778E-01 -2.00027E-01
    8988.596     -9.272  -0.080  1.01234E-01  3.06453E-01 -2.05218E-01
    8988.621     -9.248   0.000  1.02442E-01  3.11817E-01 -2.09374E-01
    8988.676     -9.193   0.120  1.05135E-01  3.23923E-01 -2.18788E-01
    8988.718     -9.150   0.160  1.07186E-01  3.33325E-01 -2.26140E-01
    8988.773     -9.095   0.200  1.09797E-01  3.45363E-01 -2.35566E-01
    8988.840     -9.028   0.240  1.12874E-01  3.59818E-01 -2.46944E-01
    8988.919     -8.949   0.280  1.16410E-01  3.76475E-01 -2.60065E-01
    8989.011     -8.858   0.320  1.20243E-01  3.94862E-01 -2.74619E-01
    8989.114     -8.754   0.360  1.24313E-01  4.14508E-01 -2.90195E-01
    8989.230     -8.638   0.400  1.28481E-01  4.34828E-01 -3.06347E-01
    8989.358     -8.510   0.440  1.32635E-01  4.55325E-01 -3.22691E-01
    8989.499     -8.370   0.480  1.36698E-01  4.75593E-01 -3.38894E-01
    8989.651     -8.217   0.520  1.40739E-01  4.95406E-01 -3.54667E-01
    8989.816     -8.053   0.560  1.44891E-01  5.14609E-01 -3.69718E-01
    8989.992     -7.876   0.600  1.49646E-01  5.33191E-01 -3.83545E-01
    8990.181     -7.687   0.640  1.55756E-01  5.51184E-01 -3.95427E-01
    8990.382     -7.486   0.680  1.64195E-01  5.68676E-01 -4.04481E-01
    8990.596     -7.273   0.720  1.76004E-01  5.85706E-01 -4.09702E-01
    8990.821     -7.047   0.760  1.92419E-01  6.02414E-01 -4.09995E-01
    8991.059     -6.809   0.800  2.14481E-01  6.18808E-01 -4.04327E-01
    8991.309     -6.559   0.840  2.42652E-01  6.34985E-01 -3.92333E-01
    8991.571     -6.297   0.880  2.75571E-01  6.50987E-01 -3.75416E-01
    8991.845     -6.023   0.920  3.10452E-01  6.66803E-01 -3.56351E-01
    8992.132     -5.736   0.960  3.46871E-01  6.82493E-01 -3.35622E-01
    8992.431     -5.438   1.000  3.88871E-01  6.98023E-01 -3.09152E-01
    8992.742     -5.127   1.040  4.41805E-01  7.13412E-01 -2.71607E-01
    8993.065     -4.804   1.080  5.06024E-01  7.28631E-01 -2.22607E-01
    8993.400     -4.468   1.120  5.72076E-01  7.43689E-01 -1.71612E-01
    8993.747     -4.121   1.160  6.26997E-01  7.58523E-01 -1.31526E-01
    8994.107     -3.761   1.200  6.65965E-01  7.73132E-01 -1.07167E-01
    8994.479     -3.389   1.240  6.90674E-01  7.87492E-01 -9.68178E-02
    8994.863     -3.005   1.280  7.02120E-01  8.01552E-01 -9.94320E-02
    8995.259     -2.609   1.320  6.98792E-01  8.15283E-01 -1.16491E-01
    8995.668     -2.201   1.360  6.82215E-01  8.28658E-01 -1.46443E-01
    8996.088     -1.780   1.400  6.62966E-01  8.41668E-01 -1.78702E-01
    8996.521     -1.347   1.440  6.55134E-01  8.54259E-01 -1.99125E-01
    8996.966     -0.902   1.480  6.73300E-01  8.66423E-01 -1.93123E-01
    8997.423     -0.445   1.520  7.25245E-01  8.78133E-01 -1.52888E-01
    8997.893      0.024   1.560  8.00534E-01  8.89359E-01 -8.88246E-02
    8998.374      0.506   1.600  8.84266E-01  9.00075E-01 -1.58087E-02
    8998.868      1.000   1.640  9.72974E-01  9.10298E-01  6.26756E-02
    8999.374      1.506   1.680  1.05245E+00  9.20002E-01  1.32444E-01
    8999.892      2.024   1.720  1.10983E+00  9.29185E-01  1.80648E-01
    9000.423      2.554   1.760  1.16793E+00  9.37828E-01  2.30104E-01
    9000.965      3.097   1.800  1.23869E+00  9.45948E-01  2.92745E-01
    9001.520      3.651   1.840  1.31414E+00  9.53528E-01  3.60609E-01
    9002.087      4.218   1.880  1.38055E+00  9.60571E-01  4.19981E-01
    9002.666      4.797   1.920  1.43054E+00  9.67122E-01  4.63420E-01
    9003.257      5.389   1.960  1.45884E+00  9.73125E-01  4.85716E-01
    9003.861      5.992   2.000  1.46598E+00  9.78648E-01  4.87332E-01
    9004.476      6.608   2.040  1.46487E+00  9.83697E-01  4.81169E-01
    9005.104      7.236   2.080  1.44868E+00  9.88263E-01  4.60413E-01
    9005.744      7.876   2.120  1.38839E+00  9.92372E-01  3.96021E-01
    9006.397      8.528   2.160  1.28329E+00  9.96033E-01  2.87252E-01
    9007.061      9.193   2.200  1.16316E+00  9.99299E-01  1.63866E-01
    9007.738      9.869   2.240  1.05371E+00  1.00216E+00  5.15496E-02
    9008.427     10.558   2.280  9.64618E-01  1.00464E+00 -4.00251E-02
    9009.128     11.259   2.320  9.00483E-01  1.00676E+00 -1.06280E-01
    9009.841     11.972   2.360  8.63057E-01  1.00857E+00 -1.45514E-01
    9010.566     12.698   2.400  8.51063E-01  1.01006E+00 -1.58993E-01
    9011.304     13.435   2.440  8.61336E-01  1.01123E+00 -1.49893E-01
    9012.054     14.185   2.480  8.91910E-01  1.01216E+00 -1.20253E-01
    9012.816     14.947   2.520  9.41119E-01  1.01283E+00 -7.17081E-02
    9013.590     15.721   2.560  9.92426E-01  1.01327E+00 -2.08452E-02
    9014.376     16.508   2.600  1.03382E+00  1.01351E+00  2.03147E-02
    9015.175     17.306   2.640  1.06679E+00  1.01354E+00  5.32444E-02
    9015.986     18.117   2.680  1.09304E+00  1.01341E+00  7.96266E-02
    9016.808     18.940   2.720  1.11212E+00  1.01312E+00  9.90064E-02
    9017.644     19.775   2.760  1.12275E+00  1.01269E+00  1.10062E-01
    9018.491     20.623   2.800  1.12377E+00  1.01214E+00  1.11631E-01
    9019.351     21.482   2.840  1.11470E+00  1.01150E+00  1.03200E-01
    9020.222     22.354   2.880  1.09625E+00  1.01077E+00  8.54814E-02
    9021.106     23.238   2.920  1.06865E+00  1.00996E+00  5.86823E-02
    9022.002     24.134   2.960  1.03298E+00  1.00908E+00  2.39044E-02
    9022.911     25.042   3.000  9.92297E-01  1.00815E+00 -1.58522E-02
    9023.831     25.963   3.040  9.51225E-01  1.00718E+00 -5.59550E-02
    9024.764     26.895   3.080  9.13981E-01  1.00620E+00 -9.22154E-02
    9025.709     27.840   3.120  8.83522E-01  1.00520E+00 -1.21682E-01
    9026.666     28.797   3.160  8.60631E-01  1.00419E+00 -1.43554E-01
    9027.635     29.767   3.200  8.45217E-01  1.00317E+00 -1.57949E-01
    9028.616     30.748   3.240  8.36864E-01  1.00217E+00 -1.65308E-01
    9029.610     31.742   3.280  8.34521E-01  1.00119E+00 -1.66666E-01
    9030.616     32.747   3.320  8.36815E-01  1.00023E+00 -1.63416E-01
    9031.634     33.765   3.360  8.42478E-01  9.99311E-01 -1.56832E-01
    9032.664     34.796   3.400  8.50737E-01  9.98407E-01 -1.47670E-01
    9033.707     35.838   3.440  8.61152E-01  9.97563E-01 -1.36411E-01
    9034.761     36.893   3.480  8.73632E-01  9.96739E-01 -1.23107E-01
    9035.828     37.960   3.520  8.87962E-01  9.95980E-01 -1.08018E-01
    9036.907     39.038   3.560  9.03464E-01  9.95267E-01 -9.18030E-02
    9037.998     40.130   3.600  9.19377E-01  9.94623E-01 -7.52463E-02
    9039.101     41.233   3.640  9.34998E-01  9.94027E-01 -5.90295E-02
    9040.217     42.349   3.680  9.49781E-01  9.93502E-01 -4.37208E-02
    9041.345     43.476   3.720  9.63391E-01  9.93026E-01 -2.96357E-02
    9042.485     44.616   3.760  9.76108E-01  9.92621E-01 -1.65133E-02
    9043.637     45.768   3.800  9.88611E-01  9.92264E-01 -3.65350E-03
    9044.801     46.933   3.840  1.00148E+00  9.91958E-01  9.52345E-03
    9045.978     48.109   3.880  1.01476E+00  9.91746E-01  2.30187E-02
    9047.166     49.298   3.920  1.02777E+00  9.91583E-01  3.61882E-02
    9048.367     50.499   3.960  1.03960E+00  9.91470E-01  4.81261E-02
    9049.580     51.712   4.000  1.04963E+00  9.91426E-01  5.82062E-02
    9050.806     52.937   4.040  1.05768E+00  9.91432E-01  6.62453E-02
    9052.043     54.175   4.080  1.06379E+00  9.91507E-01  7.22836E-02
    9053.293     55.424   4.120  1.06799E+00  9.91629E-01  7.63606E-02
    9054.555     56.686   4.160  1.07052E+00  9.91819E-01  7.87059E-02
    9055.829     57.960   4.200  1.07158E+00  9.92030E-01  7.95511E-02
    9057.115     59.247   4.240  1.07137E+00  9.92306E-01  7.90638E-02
    9058.414     60.545   4.280  1.06990E+00  9.92625E-01  7.72731E-02
    9059.724     61.856   4.320  1.06702E+00  9.92988E-01  7.40304E-02
    9061.047     63.179   4.360  1.06246E+00  9.93411E-01  6.90519E-02
    9062.382     64.514   4.400  1.05601E+00  9.93849E-01  6.21641E-02
    9063.729     65.861   4.440  1.04807E+00  9.94302E-01  5.37682E-02
    9065.089     67.220   4.480  1.03952E+00  9.94810E-01  4.47065E-02
    9066.460     68.592   4.520  1.03144E+00  9.95331E-01  3.61060E-02
    9067.844     69.976   4.560  1.02496E+00  9.95883E-01  2.90766E-02
    9069.240     71.372   4.600  1.02097E+00  9.96444E-01  2.45211E-02
    9070.648     72.780   4.640  1.02014E+00  9.97033E-01  2.31075E-02
    9072.069     74.200   4.680  1.02285E+00  9.97626E-01  2.52273E-02
    9073.501     75.633   4.720  1.02893E+00  9.98221E-01  3.07109E-02
    9074.946     77.077   4.760  1.03729E+00  9.98818E-01  3.84676E-02
    9076.403     78.534   4.800  1.04581E+00  9.99414E-01  4.63958E-02
    9077.872     80.003   4.840  1.05188E+00  1.00003E+00  5.18437E-02
    9079.353     81.485   4.880  1.05325E+00  1.00062E+00  5.26294E-02
    9080.847     82.978   4.920  1.04918E+00  1.00119E+00  4.79941E-02
    9082.352     84.484   4.960  1.04053E+00  1.00176E+00  3.87639E-02
    9083.870     86.002   5.000  1.02906E+00  1.00231E+00  2.67489E-02
    9085.400     87.532   5.040  1.01658E+00  1.00282E+00  1.37588E-02
    9086.943     89.074   5.080  1.00414E+00  1.00333E+00  8.10459E-04
    9088.497     90.629   5.120  9.91870E-01  1.00382E+00 -1.19506E-02
    9090.064     92.195   5.160  9.79525E-01  1.00425E+00 -2.47297E-02
    9091.643     93.774   5.200  9.67255E-01  1.00467E+00 -3.74191E-02
    9093.234     95.365   5.240  9.55505E-01  1.00506E+00 -4.95517E-02
    9094.837     96.969   5.280  9.44846E-01  1.00542E+00 -6.05763E-02
    9096.452     98.584   5.320  9.35738E-01  1.00573E+00 -6.99885E-02
    9098.080    100.212   5.360  9.28672E-01  1.00599E+00 -7.73151E-02
    9099.720    101.851   5.400  9.23899E-01  1.00621E+00 -8.23077E-02
    9101.372    103.503   5.440  9.21292E-01  1.00641E+00 -8.51176E-02
    9103.036    105.168   5.480  9.20326E-01  1.00655E+00 -8.62217E-02
    9104.712    106.844   5.520  9.20512E-01  1.00664E+00 -8.61294E-02
    9106.401    108.533   5.560  9.21547E-01  1.00669E+00 -8.51455E-02
    9108.102    110.233   5.600  9.23498E-01  1.00670E+00 -8.32064E-02
    9109.815    111.946   5.640  9.26794E-01  1.00667E+00 -7.98790E-02
    9111.540    113.672   5.680  9.32206E-01  1.00660E+00 -7.43939E-02
    9113.277    115.409   5.720  9.40647E-01  1.00648E+00 -6.58376E-02
    9115.027    117.158   5.760  9.52830E-01  1.00633E+00 -5.34983E-02
    9116.789    118.920   5.800  9.68757E-01  1.00611E+00 -3.73497E-02
    9118.563    120.694   5.840  9.87550E-01  1.00587E+00 -1.83175E-02
    9120.349    122.480   5.880  1.00731E+00  1.00557E+00  1.74703E-03
    9122.147    124.279   5.920  1.02566E+00  1.00525E+00  2.04035E-02
    9123.957    126.089   5.960  1.04013E+00  1.00488E+00  3.52494E-02
    9125.780    127.912   6.000  1.04930E+00  1.00446E+00  4.48333E-02
