# # comment:                                                     FEFF 9.9.1  
# # Source:
# # Structure
# # Reduced
# # space
# # abc:
# # angles:
# # sites:
# # POT  SCF 100  7.0000   0, screened core-hole, AFOLP (folp(0)= 1.150)
# # Abs   Z=29 Rmt= 1.233 Rnm= 1.314 K  shell
# # Pot 1 Z=12 Rmt= 1.377 Rnm= 1.452
# # Pot 2 Z=29 Rmt= 1.233 Rnm= 1.313
# # Pot 3 Z= 8 Rmt= 1.011 Rnm= 1.102
# # Gam_ch=1.729E+00 H-L exch Vi= 0.000E+00 Vr= 0.000E+00
# # Mu=-8.666E+00eV kf=2.125E+00 Vint=-1.736E+01eV Rs_int= 1.707
# FMS rfms= 9.0000
# # PATH  Rmax=-1.000,  Keep_limit= 0.00, Heap_limit 0.00  Pwcrit= 2.50%
#  S02=0.950  Temp=   0.00  Debye_temp=   0.00  Global_sig2= 0.00000
#  Energy zero shift, vr, vi    0.00000E+00   0.00000E+00
#  Curved wave amplitude ratio filter   4.000%
#     file         sig2 tot  cw amp ratio   deg  nlegs   reff  inp sig2
#     0/   0 paths used
#  xsedge+ 50, used to normalize mu           2.4579E-04
#  -----------------------------------------------------------------------
#  omega    e    k    mu    mu0     chi     @#
    8984.454    -12.476  -1.000  3.80320E-02  5.47368E-02 -1.67048E-02
    8984.753    -12.177  -0.960  3.99122E-02  5.87251E-02 -1.88129E-02
    8985.039    -11.890  -0.920  4.19111E-02  6.31571E-02 -2.12460E-02
    8985.314    -11.616  -0.880  4.40376E-02  6.80982E-02 -2.40607E-02
    8985.576    -11.354  -0.840  4.63007E-02  7.36244E-02 -2.73237E-02
    8985.826    -11.104  -0.800  4.87101E-02  7.98236E-02 -3.11136E-02
    8986.064    -10.866  -0.760  5.12757E-02  8.67970E-02 -3.55213E-02
    8986.289    -10.641  -0.720  5.40077E-02  9.46584E-02 -4.06508E-02
    8986.503    -10.427  -0.680  5.69157E-02  1.03534E-01 -4.66180E-02
    8986.704    -10.226  -0.640  6.00083E-02  1.13555E-01 -5.35471E-02
    8986.893    -10.037  -0.600  6.32911E-02  1.24854E-01 -6.15624E-02
    8987.069     -9.861  -0.560  6.67651E-02  1.37539E-01 -7.07743E-02
    8987.234     -9.696  -0.520  7.04225E-02  1.51679E-01 -8.12563E-02
    8987.386     -9.544  -0.480  7.42430E-02  1.67257E-01 -9.30140E-02
    8987.527     -9.403  -0.440  7.81882E-02  1.84137E-01 -1.05949E-01
    8987.655     -9.275  -0.400  8.21984E-02  2.02026E-01 -1.19828E-01
    8987.770     -9.159  -0.360  8.61923E-02  2.20462E-01 -1.34269E-01
    8987.874     -9.056  -0.320  9.00722E-02  2.38845E-01 -1.48773E-01
    8987.966     -8.964  -0.280  9.37345E-02  2.56510E-01 -1.62776E-01
    8988.045     -8.885  -0.240  9.70822E-02  2.72817E-01 -1.75735E-01
    8988.112     -8.818  -0.200  1.00034E-01  2.87228E-01 -1.87195E-01
    8988.167     -8.763  -0.160  1.02525E-01  2.99352E-01 -1.96827E-01
    8988.209     -8.721  -0.120  1.04508E-01  3.08937E-01 -2.04429E-01
    8988.240     -8.690  -0.080  1.05948E-01  3.15842E-01 -2.09894E-01
    8988.264     -8.666   0.000  1.07116E-01  3.21391E-01 -2.14274E-01
    8988.319     -8.611   0.120  1.09939E-01  3.33901E-01 -2.23962E-01
    8988.362     -8.568   0.160  1.12111E-01  3.43639E-01 -2.31528E-01
    8988.417     -8.513   0.200  1.14902E-01  3.56044E-01 -2.41142E-01
    8988.484     -8.446   0.240  1.18359E-01  3.70990E-01 -2.52631E-01
    8988.563     -8.367   0.280  1.22471E-01  3.88141E-01 -2.65670E-01
    8988.654     -8.276   0.320  1.27341E-01  4.07084E-01 -2.79743E-01
    8988.758     -8.172   0.360  1.33073E-01  4.27282E-01 -2.94209E-01
    8988.874     -8.056   0.400  1.39781E-01  4.48119E-01 -3.08338E-01
    8989.002     -7.928   0.440  1.47776E-01  4.69092E-01 -3.21316E-01
    8989.142     -7.788   0.480  1.57396E-01  4.89756E-01 -3.32360E-01
    8989.294     -7.636   0.520  1.69208E-01  5.09893E-01 -3.40685E-01
    8989.459     -7.471   0.560  1.83804E-01  5.29301E-01 -3.45498E-01
    8989.636     -7.294   0.600  2.02114E-01  5.48010E-01 -3.45897E-01
    8989.825     -7.105   0.640  2.25193E-01  5.66055E-01 -3.40862E-01
    8990.026     -6.904   0.680  2.54241E-01  5.83488E-01 -3.29247E-01
    8990.239     -6.691   0.720  2.90373E-01  6.00417E-01 -3.10044E-01
    8990.465     -6.465   0.760  3.33853E-01  6.16926E-01 -2.83073E-01
    8990.703     -6.227   0.800  3.82809E-01  6.33071E-01 -2.50262E-01
    8990.953     -5.977   0.840  4.32210E-01  6.48954E-01 -2.16744E-01
    8991.215     -5.715   0.880  4.75482E-01  6.64583E-01 -1.89101E-01
    8991.489     -5.441   0.920  5.10360E-01  6.80012E-01 -1.69652E-01
    8991.776     -5.154   0.960  5.40347E-01  6.95265E-01 -1.54918E-01
    8992.074     -4.856   1.000  5.67699E-01  7.10354E-01 -1.42655E-01
    8992.385     -4.545   1.040  5.87906E-01  7.25240E-01 -1.37334E-01
    8992.708     -4.222   1.080  5.92984E-01  7.39960E-01 -1.46975E-01
    8993.043     -3.886   1.120  5.80871E-01  7.54482E-01 -1.73610E-01
    8993.391     -3.539   1.160  5.60936E-01  7.68789E-01 -2.07853E-01
    8993.751     -3.179   1.200  5.47373E-01  7.82865E-01 -2.35492E-01
    8994.122     -2.807   1.240  5.48311E-01  7.96663E-01 -2.48352E-01
    8994.507     -2.423   1.280  5.61049E-01  8.10160E-01 -2.49111E-01
    8994.903     -2.027   1.320  5.77687E-01  8.23370E-01 -2.45683E-01
    8995.311     -1.619   1.360  5.96164E-01  8.36202E-01 -2.40038E-01
    8995.732     -1.198   1.400  6.20917E-01  8.48692E-01 -2.27775E-01
    8996.165     -0.765   1.440  6.55802E-01  8.60770E-01 -2.04969E-01
    8996.610     -0.320   1.480  7.01299E-01  8.72448E-01 -1.71149E-01
    8997.067      0.137   1.520  7.55239E-01  8.83679E-01 -1.28440E-01
    8997.536      0.606   1.560  8.16773E-01  8.94436E-01 -7.76629E-02
    8998.018      1.088   1.600  8.83794E-01  9.04735E-01 -2.09411E-02
    8998.512      1.582   1.640  9.52706E-01  9.14550E-01  3.81567E-02
    8999.018      2.088   1.680  1.03113E+00  9.23878E-01  1.07248E-01
    8999.536      2.606   1.720  1.12807E+00  9.32697E-01  1.95378E-01
    9000.066      3.136   1.760  1.23205E+00  9.41007E-01  2.91044E-01
    9000.609      3.679   1.800  1.31885E+00  9.48807E-01  3.70046E-01
    9001.163      4.233   1.840  1.38553E+00  9.56099E-01  4.29432E-01
    9001.730      4.800   1.880  1.43769E+00  9.62886E-01  4.74804E-01
    9002.309      5.379   1.920  1.45608E+00  9.69173E-01  4.86908E-01
    9002.901      5.971   1.960  1.43488E+00  9.74964E-01  4.59916E-01
    9003.504      6.574   2.000  1.40114E+00  9.80305E-01  4.20831E-01
    9004.120      7.190   2.040  1.35964E+00  9.85164E-01  3.74473E-01
    9004.748      7.818   2.080  1.29534E+00  9.89570E-01  3.05774E-01
    9005.388      8.458   2.120  1.21682E+00  9.93549E-01  2.23276E-01
    9006.040      9.110   2.160  1.14142E+00  9.97110E-01  1.44309E-01
    9006.705      9.775   2.200  1.07777E+00  1.00026E+00  7.75068E-02
    9007.381     10.451   2.240  1.03395E+00  1.00304E+00  3.09087E-02
    9008.070     11.140   2.280  1.01368E+00  1.00544E+00  8.24175E-03
    9008.771     11.841   2.320  1.01317E+00  1.00751E+00  5.65453E-03
    9009.484     12.554   2.360  1.02417E+00  1.00925E+00  1.49179E-02
    9010.210     13.280   2.400  1.03732E+00  1.01069E+00  2.66277E-02
    9010.947     14.017   2.440  1.04760E+00  1.01185E+00  3.57494E-02
    9011.697     14.767   2.480  1.05847E+00  1.01273E+00  4.57425E-02
    9012.459     15.529   2.520  1.07407E+00  1.01338E+00  6.06872E-02
    9013.233     16.303   2.560  1.08722E+00  1.01379E+00  7.34264E-02
    9014.020     17.090   2.600  1.09158E+00  1.01402E+00  7.75532E-02
    9014.818     17.888   2.640  1.08718E+00  1.01406E+00  7.31215E-02
    9015.629     18.699   2.680  1.07414E+00  1.01390E+00  6.02395E-02
    9016.452     19.522   2.720  1.05402E+00  1.01363E+00  4.03942E-02
    9017.287     20.357   2.760  1.02995E+00  1.01318E+00  1.67716E-02
    9018.135     21.205   2.800  1.00415E+00  1.01265E+00 -8.50449E-03
    9018.994     22.064   2.840  9.78146E-01  1.01199E+00 -3.38411E-02
    9019.866     22.936   2.880  9.53571E-01  1.01126E+00 -5.76852E-02
    9020.750     23.820   2.920  9.31500E-01  1.01042E+00 -7.89242E-02
    9021.646     24.716   2.960  9.12799E-01  1.00954E+00 -9.67393E-02
    9022.554     25.624   3.000  8.97950E-01  1.00861E+00 -1.10657E-01
    9023.475     26.545   3.040  8.86811E-01  1.00763E+00 -1.20823E-01
    9024.407     27.477   3.080  8.79090E-01  1.00665E+00 -1.27556E-01
    9025.352     28.422   3.120  8.74451E-01  1.00563E+00 -1.31176E-01
    9026.309     29.379   3.160  8.72433E-01  1.00460E+00 -1.32168E-01
    9027.278     30.349   3.200  8.72599E-01  1.00355E+00 -1.30952E-01
    9028.260     31.330   3.240  8.74629E-01  1.00253E+00 -1.27896E-01
    9029.254     32.324   3.280  8.78092E-01  1.00153E+00 -1.23435E-01
    9030.259     33.329   3.320  8.82530E-01  1.00054E+00 -1.18008E-01
    9031.277     34.347   3.360  8.87791E-01  9.99582E-01 -1.11791E-01
    9032.308     35.378   3.400  8.93909E-01  9.98641E-01 -1.04732E-01
    9033.350     36.420   3.440  9.01042E-01  9.97760E-01 -9.67173E-02
    9034.405     37.475   3.480  9.09517E-01  9.96918E-01 -8.74010E-02
    9035.471     38.542   3.520  9.19763E-01  9.96098E-01 -7.63352E-02
    9036.550     39.620   3.560  9.32025E-01  9.95365E-01 -6.33400E-02
    9037.642     40.712   3.600  9.45796E-01  9.94655E-01 -4.88594E-02
    9038.745     41.815   3.640  9.60228E-01  9.94013E-01 -3.37850E-02
    9039.861     42.931   3.680  9.74068E-01  9.93419E-01 -1.93517E-02
    9040.988     44.058   3.720  9.86111E-01  9.92895E-01 -6.78327E-03
    9042.128     45.198   3.760  9.95683E-01  9.92418E-01  3.26457E-03
    9043.280     46.350   3.800  1.00298E+00  9.92013E-01  1.09684E-02
    9044.445     47.515   3.840  1.00888E+00  9.91658E-01  1.72211E-02
    9045.621     48.691   3.880  1.01474E+00  9.91372E-01  2.33662E-02
    9046.810     49.880   3.920  1.02161E+00  9.91135E-01  3.04717E-02
    9048.011     51.081   3.960  1.02963E+00  9.90969E-01  3.86607E-02
    9049.224     52.294   4.000  1.03800E+00  9.90852E-01  4.71467E-02
    9050.449     53.519   4.040  1.04560E+00  9.90803E-01  5.47924E-02
    9051.687     54.757   4.080  1.05149E+00  9.90802E-01  6.06896E-02
    9052.936     56.006   4.120  1.05544E+00  9.90847E-01  6.45899E-02
    9054.198     57.268   4.160  1.05789E+00  9.90959E-01  6.69328E-02
    9055.472     58.542   4.200  1.05955E+00  9.91116E-01  6.84336E-02
    9056.759     59.829   4.240  1.06097E+00  9.91317E-01  6.96566E-02
    9058.057     61.127   4.280  1.06234E+00  9.91581E-01  7.07571E-02
    9059.368     62.438   4.320  1.06338E+00  9.91865E-01  7.15130E-02
    9060.691     63.761   4.360  1.06360E+00  9.92188E-01  7.14151E-02
    9062.026     65.096   4.400  1.06252E+00  9.92571E-01  6.99462E-02
    9063.373     66.443   4.440  1.05987E+00  9.92971E-01  6.68947E-02
    9064.732     67.802   4.480  1.05587E+00  9.93406E-01  6.24680E-02
    9066.104     69.174   4.520  1.05107E+00  9.93875E-01  5.71992E-02
    9067.488     70.558   4.560  1.04607E+00  9.94354E-01  5.17172E-02
    9068.884     71.954   4.600  1.04136E+00  9.94863E-01  4.65000E-02
    9070.292     73.362   4.640  1.03711E+00  9.95381E-01  4.17264E-02
    9071.712     74.782   4.680  1.03324E+00  9.95926E-01  3.73134E-02
    9073.145     76.215   4.720  1.02942E+00  9.96475E-01  3.29414E-02
    9074.589     77.659   4.760  1.02514E+00  9.97026E-01  2.81109E-02
    9076.046     79.116   4.800  1.01988E+00  9.97577E-01  2.23051E-02
    9077.515     80.585   4.840  1.01332E+00  9.98126E-01  1.51915E-02
    9078.997     82.067   4.880  1.00546E+00  9.98673E-01  6.78294E-03
    9080.490     83.560   4.920  9.96581E-01  9.99215E-01 -2.63315E-03
    9081.996     85.066   4.960  9.87011E-01  9.99728E-01 -1.27167E-02
    9083.514     86.584   5.000  9.77088E-01  1.00024E+00 -2.31468E-02
    9085.044     88.114   5.040  9.67108E-01  1.00073E+00 -3.36265E-02
    9086.586     89.656   5.080  9.57362E-01  1.00120E+00 -4.38406E-02
    9088.141     91.211   5.120  9.48224E-01  1.00166E+00 -5.34364E-02
    9089.707     92.777   5.160  9.40114E-01  1.00208E+00 -6.19710E-02
    9091.286     94.356   5.200  9.33692E-01  1.00250E+00 -6.88052E-02
    9092.877     95.947   5.240  9.29621E-01  1.00287E+00 -7.32493E-02
    9094.480     97.551   5.280  9.28394E-01  1.00319E+00 -7.47918E-02
    9096.096     99.166   5.320  9.30253E-01  1.00351E+00 -7.32526E-02
    9097.724    100.794   5.360  9.35088E-01  1.00377E+00 -6.86772E-02
    9099.363    102.433   5.400  9.42807E-01  1.00398E+00 -6.11767E-02
    9101.015    104.085   5.440  9.53141E-01  1.00416E+00 -5.10209E-02
    9102.680    105.750   5.480  9.65386E-01  1.00432E+00 -3.89355E-02
    9104.356    107.426   5.520  9.78246E-01  1.00442E+00 -2.61712E-02
    9106.045    109.115   5.560  9.90320E-01  1.00447E+00 -1.41505E-02
    9107.745    110.815   5.600  1.00053E+00  1.00448E+00 -3.95600E-03
    9109.458    112.528   5.640  1.00829E+00  1.00446E+00  3.83421E-03
    9111.183    114.254   5.680  1.01344E+00  1.00441E+00  9.02924E-03
    9112.921    115.991   5.720  1.01600E+00  1.00430E+00  1.17004E-02
    9114.670    117.740   5.760  1.01634E+00  1.00415E+00  1.21918E-02
    9116.432    119.502   5.800  1.01515E+00  1.00396E+00  1.11879E-02
    9118.206    121.276   5.840  1.01349E+00  1.00372E+00  9.77001E-03
    9119.992    123.062   5.880  1.01260E+00  1.00343E+00  9.17503E-03
    9121.790    124.861   5.920  1.01330E+00  1.00312E+00  1.01866E-02
    9123.601    126.671   5.960  1.01539E+00  1.00277E+00  1.26189E-02
    9125.424    128.494   6.000  1.01784E+00  1.00236E+00  1.54737E-02
