# # comment:                                                     FEFF 9.9.1  
# # Source:
# # Structure
# # Reduced
# # space
# # abc:
# # angles:110.289009
# # sites:
# # POT  SCF 100  7.0000   0, screened core-hole, AFOLP (folp(0)= 1.150)
# # Abs   Z=29 Rmt= 1.276 Rnm= 1.342 K  shell
# # Pot 1 Z= 3 Rmt= 1.305 Rnm= 1.365
# # Pot 2 Z=29 Rmt= 1.276 Rnm= 1.342
# # Pot 3 Z=15 Rmt= 0.938 Rnm= 1.153
# # Pot 4 Z= 8 Rmt= 0.905 Rnm= 1.040
# # Gam_ch=1.729E+00 H-L exch Vi= 0.000E+00 Vr= 0.000E+00
# # Mu=-6.058E+00eV kf=2.446E+00 Vint=-1.767E+01eV Rs_int= 1.482
# FMS rfms= 9.0000
# # PATH  Rmax=-1.000,  Keep_limit= 0.00, Heap_limit 0.00  Pwcrit= 2.50%
#  S02=0.950  Temp=   0.00  Debye_temp=   0.00  Global_sig2= 0.00000
#  Energy zero shift, vr, vi    0.00000E+00   0.00000E+00
#  Curved wave amplitude ratio filter   4.000%
#     file         sig2 tot  cw amp ratio   deg  nlegs   reff  inp sig2
#     0/   0 paths used
#  xsedge+ 50, used to normalize mu           2.4847E-04
#  -----------------------------------------------------------------------
#  omega    e    k    mu    mu0     chi     @#
    8983.494     -9.868  -1.000  4.67296E-02  5.49851E-02 -8.25550E-03
    8983.792     -9.569  -0.960  4.96111E-02  5.90521E-02 -9.44104E-03
    8984.079     -9.283  -0.920  5.27615E-02  6.35802E-02 -1.08188E-02
    8984.353     -9.008  -0.880  5.62166E-02  6.86384E-02 -1.24217E-02
    8984.615     -8.746  -0.840  6.00184E-02  7.43069E-02 -1.42885E-02
    8984.865     -8.496  -0.800  6.42153E-02  8.06790E-02 -1.64637E-02
    8985.103     -8.259  -0.760  6.88631E-02  8.78619E-02 -1.89988E-02
    8985.329     -8.033  -0.720  7.40251E-02  9.59769E-02 -2.19518E-02
    8985.542     -7.820  -0.680  7.97713E-02  1.05158E-01 -2.53865E-02
    8985.743     -7.618  -0.640  8.61756E-02  1.15546E-01 -2.93705E-02
    8985.932     -7.430  -0.600  9.33100E-02  1.27281E-01 -3.39709E-02
    8986.109     -7.253  -0.560  1.01235E-01  1.40482E-01 -3.92471E-02
    8986.273     -7.088  -0.520  1.09981E-01  1.55220E-01 -4.52392E-02
    8986.426     -6.936  -0.480  1.19529E-01  1.71482E-01 -5.19529E-02
    8986.566     -6.796  -0.440  1.29783E-01  1.89125E-01 -5.93413E-02
    8986.694     -6.668  -0.400  1.40549E-01  2.07837E-01 -6.72884E-02
    8986.810     -6.552  -0.360  1.51529E-01  2.27131E-01 -7.56019E-02
    8986.914     -6.448  -0.320  1.62351E-01  2.46372E-01 -8.40206E-02
    8987.005     -6.357  -0.280  1.72615E-01  2.64856E-01 -9.22407E-02
    8987.084     -6.277  -0.240  1.81955E-01  2.81908E-01 -9.99526E-02
    8987.151     -6.210  -0.200  1.90090E-01  2.96966E-01 -1.06877E-01
    8987.206     -6.155  -0.160  1.96836E-01  3.09622E-01 -1.12786E-01
    8987.249     -6.113  -0.120  2.02102E-01  3.19618E-01 -1.17516E-01
    8987.279     -6.082  -0.080  2.05853E-01  3.26813E-01 -1.20960E-01
    8987.304     -6.058   0.000  2.08816E-01  3.32590E-01 -1.23774E-01
    8987.359     -6.003   0.120  2.15340E-01  3.45621E-01 -1.30281E-01
    8987.401     -5.960   0.160  2.20383E-01  3.55724E-01 -1.35341E-01
    8987.456     -5.906   0.200  2.26741E-01  3.68598E-01 -1.41857E-01
    8987.523     -5.838   0.240  2.34260E-01  3.84049E-01 -1.49789E-01
    8987.602     -5.759   0.280  2.42728E-01  4.01740E-01 -1.59012E-01
    8987.694     -5.668   0.320  2.51838E-01  4.21168E-01 -1.69331E-01
    8987.797     -5.564   0.360  2.61359E-01  4.41774E-01 -1.80415E-01
    8987.913     -5.448   0.400  2.71021E-01  4.62861E-01 -1.91840E-01
    8988.041     -5.320   0.440  2.80831E-01  4.83874E-01 -2.03043E-01
    8988.181     -5.180   0.480  2.90982E-01  5.04388E-01 -2.13406E-01
    8988.334     -5.028   0.520  3.01892E-01  5.24060E-01 -2.22168E-01
    8988.498     -4.863   0.560  3.14353E-01  5.42781E-01 -2.28428E-01
    8988.675     -4.686   0.600  3.29456E-01  5.60542E-01 -2.31086E-01
    8988.864     -4.497   0.640  3.48566E-01  5.77370E-01 -2.28803E-01
    8989.065     -4.296   0.680  3.73181E-01  5.93413E-01 -2.20232E-01
    8989.279     -4.083   0.720  4.04163E-01  6.08735E-01 -2.04572E-01
    8989.504     -3.857   0.760  4.40854E-01  6.23462E-01 -1.82608E-01
    8989.742     -3.620   0.800  4.80264E-01  6.37729E-01 -1.57465E-01
    8989.992     -3.370   0.840  5.17367E-01  6.51577E-01 -1.34210E-01
    8990.254     -3.107   0.880  5.47889E-01  6.65132E-01 -1.17242E-01
    8990.528     -2.833   0.920  5.71370E-01  6.78405E-01 -1.07036E-01
    8990.815     -2.547   0.960  5.91454E-01  6.91456E-01 -1.00002E-01
    8991.114     -2.248   1.000  6.11728E-01  7.04332E-01 -9.26046E-02
    8991.425     -1.937   1.040  6.32358E-01  7.17053E-01 -8.46950E-02
    8991.748     -1.614   1.080  6.52545E-01  7.29627E-01 -7.70815E-02
    8992.083     -1.279   1.120  6.74677E-01  7.42055E-01 -6.73782E-02
    8992.430     -0.931   1.160  7.02285E-01  7.54334E-01 -5.20493E-02
    8992.790     -0.572   1.200  7.33884E-01  7.66475E-01 -3.25912E-02
    8993.162     -0.200   1.240  7.63290E-01  7.78487E-01 -1.51966E-02
    8993.546      0.184   1.280  7.88751E-01  7.90313E-01 -1.56233E-03
    8993.942      0.581   1.320  8.15451E-01  8.01975E-01  1.34761E-02
    8994.351      0.989   1.360  8.47497E-01  8.13452E-01  3.40458E-02
    8994.771      1.410   1.400  8.86189E-01  8.24722E-01  6.14670E-02
    8995.204      1.842   1.440  9.28081E-01  8.35761E-01  9.23201E-02
    8995.649      2.287   1.480  9.64286E-01  8.46566E-01  1.17720E-01
    8996.106      2.745   1.520  9.94779E-01  8.57090E-01  1.37689E-01
    8996.576      3.214   1.560  1.03125E+00  8.67370E-01  1.63885E-01
    8997.057      3.696   1.600  1.07287E+00  8.77339E-01  1.95531E-01
    8997.551      4.189   1.640  1.10045E+00  8.87012E-01  2.13438E-01
    8998.057      4.695   1.680  1.10795E+00  8.96343E-01  2.11607E-01
    8998.575      5.214   1.720  1.11880E+00  9.05350E-01  2.13448E-01
    8999.105      5.744   1.760  1.14559E+00  9.14007E-01  2.31588E-01
    8999.648      6.286   1.800  1.16958E+00  9.22309E-01  2.47274E-01
    9000.203      6.841   1.840  1.17774E+00  9.30255E-01  2.47484E-01
    9000.770      7.408   1.880  1.18067E+00  9.37802E-01  2.42871E-01
    9001.349      7.987   1.920  1.19012E+00  9.44988E-01  2.45135E-01
    9001.940      8.579   1.960  1.20384E+00  9.51790E-01  2.52054E-01
    9002.544      9.182   2.000  1.21087E+00  9.58188E-01  2.52683E-01
    9003.159      9.798   2.040  1.20772E+00  9.64204E-01  2.43516E-01
    9003.787     10.426   2.080  1.20046E+00  9.69839E-01  2.30621E-01
    9004.427     11.066   2.120  1.19098E+00  9.75074E-01  2.15910E-01
    9005.080     11.718   2.160  1.17637E+00  9.79952E-01  1.96416E-01
    9005.744     12.382   2.200  1.15651E+00  9.84435E-01  1.72079E-01
    9006.421     13.059   2.240  1.13419E+00  9.88569E-01  1.45625E-01
    9007.110     13.748   2.280  1.11314E+00  9.92316E-01  1.20822E-01
    9007.811     14.449   2.320  1.09582E+00  9.95741E-01  1.00079E-01
    9008.524     15.162   2.360  1.08063E+00  9.98811E-01  8.18203E-02
    9009.249     15.888   2.400  1.06563E+00  1.00153E+00  6.41012E-02
    9009.987     16.625   2.440  1.05130E+00  1.00396E+00  4.73376E-02
    9010.737     17.375   2.480  1.03844E+00  1.00606E+00  3.23772E-02
    9011.499     18.137   2.520  1.02793E+00  1.00788E+00  2.00480E-02
    9012.273     18.911   2.560  1.02168E+00  1.00940E+00  1.22758E-02
    9013.059     19.698   2.600  1.02146E+00  1.01067E+00  1.07966E-02
    9013.858     20.496   2.640  1.02421E+00  1.01168E+00  1.25301E-02
    9014.669     21.307   2.680  1.02351E+00  1.01245E+00  1.10562E-02
    9015.491     22.130   2.720  1.01542E+00  1.01300E+00  2.41661E-03
    9016.327     22.965   2.760  9.99098E-01  1.01333E+00 -1.42335E-02
    9017.174     23.812   2.800  9.74355E-01  1.01348E+00 -3.91231E-02
    9018.033     24.672   2.840  9.43336E-01  1.01345E+00 -7.01159E-02
    9018.905     25.544   2.880  9.14191E-01  1.01324E+00 -9.90466E-02
    9019.789     26.428   2.920  8.91361E-01  1.01286E+00 -1.21502E-01
    9020.685     27.324   2.960  8.75202E-01  1.01236E+00 -1.37155E-01
    9021.594     28.232   3.000  8.64761E-01  1.01173E+00 -1.46966E-01
    9022.514     29.152   3.040  8.58612E-01  1.01100E+00 -1.52386E-01
    9023.447     30.085   3.080  8.55570E-01  1.01016E+00 -1.54586E-01
    9024.392     31.030   3.120  8.55247E-01  1.00921E+00 -1.53959E-01
    9025.349     31.987   3.160  8.57464E-01  1.00820E+00 -1.50732E-01
    9026.318     32.956   3.200  8.61672E-01  1.00711E+00 -1.45440E-01
    9027.299     33.938   3.240  8.67414E-01  1.00598E+00 -1.38565E-01
    9028.293     34.931   3.280  8.74568E-01  1.00480E+00 -1.30235E-01
    9029.299     35.937   3.320  8.83046E-01  1.00361E+00 -1.20564E-01
    9030.317     36.955   3.360  8.93105E-01  1.00236E+00 -1.09256E-01
    9031.347     37.985   3.400  9.05016E-01  1.00110E+00 -9.60862E-02
    9032.390     39.028   3.440  9.18593E-01  9.99837E-01 -8.12449E-02
    9033.444     40.083   3.480  9.33295E-01  9.98572E-01 -6.52777E-02
    9034.511     41.149   3.520  9.48538E-01  9.97331E-01 -4.87932E-02
    9035.590     42.228   3.560  9.63790E-01  9.96075E-01 -3.22847E-02
    9036.681     43.319   3.600  9.78751E-01  9.94869E-01 -1.61176E-02
    9037.784     44.423   3.640  9.93252E-01  9.93674E-01 -4.21835E-04
    9038.900     45.538   3.680  1.00709E+00  9.92492E-01  1.45998E-02
    9040.028     46.666   3.720  1.01991E+00  9.91370E-01  2.85402E-02
    9041.168     47.806   3.760  1.03133E+00  9.90288E-01  4.10427E-02
    9042.320     48.958   3.800  1.04122E+00  9.89248E-01  5.19724E-02
    9043.484     50.123   3.840  1.04960E+00  9.88252E-01  6.13525E-02
    9044.661     51.299   3.880  1.05668E+00  9.87321E-01  6.93637E-02
    9045.849     52.488   3.920  1.06260E+00  9.86437E-01  7.61648E-02
    9047.050     53.689   3.960  1.06728E+00  9.85600E-01  8.16802E-02
    9048.263     54.902   4.000  1.07034E+00  9.84833E-01  8.55077E-02
    9049.489     56.127   4.040  1.07138E+00  9.84137E-01  8.72447E-02
    9050.726     57.365   4.080  1.07010E+00  9.83491E-01  8.66063E-02
    9051.976     58.614   4.120  1.06647E+00  9.82895E-01  8.35757E-02
    9053.238     59.876   4.160  1.06081E+00  9.82392E-01  7.84173E-02
    9054.512     61.150   4.200  1.05355E+00  9.81940E-01  7.16128E-02
    9055.798     62.436   4.240  1.04526E+00  9.81537E-01  6.37232E-02
    9057.096     63.735   4.280  1.03660E+00  9.81208E-01  5.53898E-02
    9058.407     65.046   4.320  1.02828E+00  9.80950E-01  4.73321E-02
    9059.730     66.368   4.360  1.02083E+00  9.80742E-01  4.00922E-02
    9061.065     67.703   4.400  1.01456E+00  9.80606E-01  3.39577E-02
    9062.412     69.051   4.440  1.00947E+00  9.80540E-01  2.89268E-02
    9063.772     70.410   4.480  1.00522E+00  9.80501E-01  2.47237E-02
    9065.143     71.782   4.520  1.00145E+00  9.80550E-01  2.09046E-02
    9066.527     73.165   4.560  9.97645E-01  9.80625E-01  1.70203E-02
    9067.923     74.561   4.600  9.93500E-01  9.80764E-01  1.27356E-02
    9069.331     75.970   4.640  9.88793E-01  9.80948E-01  7.84551E-03
    9070.751     77.390   4.680  9.83478E-01  9.81175E-01  2.30343E-03
    9072.184     78.822   4.720  9.77649E-01  9.81463E-01 -3.81457E-03
    9073.629     80.267   4.760  9.71468E-01  9.81770E-01 -1.03019E-02
    9075.086     81.724   4.800  9.65357E-01  9.82114E-01 -1.67574E-02
    9076.555     83.193   4.840  9.59743E-01  9.82495E-01 -2.27525E-02
    9078.036     84.675   4.880  9.55027E-01  9.82913E-01 -2.78856E-02
    9079.530     86.168   4.920  9.51574E-01  9.83364E-01 -3.17902E-02
    9081.035     87.674   4.960  9.49711E-01  9.83825E-01 -3.41143E-02
    9082.553     89.192   5.000  9.49782E-01  9.84315E-01 -3.45329E-02
    9084.083     90.722   5.040  9.51867E-01  9.84788E-01 -3.29212E-02
    9085.626     92.264   5.080  9.55782E-01  9.85311E-01 -2.95287E-02
    9087.180     93.819   5.120  9.60858E-01  9.85815E-01 -2.49576E-02
    9088.747     95.385   5.160  9.66323E-01  9.86342E-01 -2.00189E-02
    9090.326     96.964   5.200  9.71345E-01  9.86847E-01 -1.55017E-02
    9091.917     98.555   5.240  9.75315E-01  9.87371E-01 -1.20561E-02
    9093.520    100.158   5.280  9.77736E-01  9.87868E-01 -1.01328E-02
    9095.135    101.774   5.320  9.78439E-01  9.88360E-01 -9.92095E-03
    9096.763    103.401   5.360  9.77518E-01  9.88823E-01 -1.13053E-02
    9098.403    105.041   5.400  9.75412E-01  9.89299E-01 -1.38871E-02
    9100.055    106.693   5.440  9.72548E-01  9.89722E-01 -1.71746E-02
    9101.719    108.357   5.480  9.69393E-01  9.90134E-01 -2.07414E-02
    9103.395    110.034   5.520  9.66247E-01  9.90533E-01 -2.42861E-02
    9105.084    111.722   5.560  9.63286E-01  9.90874E-01 -2.75884E-02
    9106.785    113.423   5.600  9.60715E-01  9.91200E-01 -3.04849E-02
    9108.498    115.136   5.640  9.58654E-01  9.91488E-01 -3.28338E-02
    9110.223    116.861   5.680  9.57259E-01  9.91737E-01 -3.44780E-02
    9111.960    118.599   5.720  9.56741E-01  9.91945E-01 -3.52040E-02
    9113.710    120.348   5.760  9.57373E-01  9.92110E-01 -3.47371E-02
    9115.472    122.110   5.800  9.59406E-01  9.92212E-01 -3.28056E-02
    9117.245    123.884   5.840  9.63029E-01  9.92296E-01 -2.92670E-02
    9119.032    125.670   5.880  9.68134E-01  9.92339E-01 -2.42046E-02
    9120.830    127.468   5.920  9.74374E-01  9.92313E-01 -1.79389E-02
    9122.640    129.279   5.960  9.81304E-01  9.92238E-01 -1.09348E-02
    9124.463    131.101   6.000  9.88597E-01  9.92091E-01 -3.49474E-03
