# # comment:                                                     FEFF 9.9.1  
# # Source:
# # Structure
# # Reduced
# # space
# # abc:
# # angles:
# # sites:
# # POT  SCF 100  7.0000   0, screened core-hole, AFOLP (folp(0)= 1.150)
# # Abs   Z=29 Rmt= 1.270 Rnm= 1.352 K  shell
# # Pot 1 Z=29 Rmt= 1.270 Rnm= 1.352
# # Pot 2 Z=78 Rmt= 1.369 Rnm= 1.478
# # Pot 3 Z= 8 Rmt= 1.010 Rnm= 1.084
# # Gam_ch=1.729E+00 H-L exch Vi= 0.000E+00 Vr= 0.000E+00
# # Mu=-5.801E+00eV kf=2.201E+00 Vint=-1.480E+01eV Rs_int= 1.647
# FMS rfms= 9.0000
# # PATH  Rmax=-1.000,  Keep_limit= 0.00, Heap_limit 0.00  Pwcrit= 2.50%
#  S02=0.950  Temp=   0.00  Debye_temp=   0.00  Global_sig2= 0.00000
#  Energy zero shift, vr, vi    0.00000E+00   0.00000E+00
#  Curved wave amplitude ratio filter   4.000%
#     file         sig2 tot  cw amp ratio   deg  nlegs   reff  inp sig2
#     0/   0 paths used
#  xsedge+ 50, used to normalize mu           2.4498E-04
#  -----------------------------------------------------------------------
#  omega    e    k    mu    mu0     chi     @#
    8983.409     -9.611  -1.000  4.43473E-02  5.56216E-02 -1.12744E-02
    8983.708     -9.312  -0.960  4.72308E-02  5.97205E-02 -1.24897E-02
    8983.995     -9.025  -0.920  5.04250E-02  6.42800E-02 -1.38549E-02
    8984.269     -8.751  -0.880  5.39776E-02  6.93681E-02 -1.53906E-02
    8984.531     -8.489  -0.840  5.79443E-02  7.50645E-02 -1.71201E-02
    8984.781     -8.239  -0.800  6.23905E-02  8.14609E-02 -1.90705E-02
    8985.019     -8.001  -0.760  6.73911E-02  8.86632E-02 -2.12721E-02
    8985.244     -7.776  -0.720  7.30313E-02  9.67906E-02 -2.37593E-02
    8985.458     -7.562  -0.680  7.94054E-02  1.05975E-01 -2.65693E-02
    8985.659     -7.361  -0.640  8.66136E-02  1.16354E-01 -2.97408E-02
    8985.848     -7.172  -0.600  9.47555E-02  1.28066E-01 -3.33107E-02
    8986.025     -6.996  -0.560  1.03919E-01  1.41227E-01 -3.73079E-02
    8986.189     -6.831  -0.520  1.14162E-01  1.55906E-01 -4.17438E-02
    8986.342     -6.679  -0.480  1.25489E-01  1.72088E-01 -4.65990E-02
    8986.482     -6.538  -0.440  1.37823E-01  1.89632E-01 -5.18086E-02
    8986.610     -6.410  -0.400  1.50979E-01  2.08231E-01 -5.72517E-02
    8986.726     -6.294  -0.360  1.64651E-01  2.27403E-01 -6.27522E-02
    8986.829     -6.191  -0.320  1.78425E-01  2.46523E-01 -6.80981E-02
    8986.921     -6.099  -0.280  1.91819E-01  2.64895E-01 -7.30759E-02
    8987.000     -6.020  -0.240  2.04344E-01  2.81852E-01 -7.75087E-02
    8987.067     -5.953  -0.200  2.15556E-01  2.96836E-01 -8.12797E-02
    8987.122     -5.898  -0.160  2.25103E-01  3.09438E-01 -8.43340E-02
    8987.164     -5.856  -0.120  2.32735E-01  3.19397E-01 -8.66624E-02
    8987.195     -5.825  -0.080  2.38290E-01  3.26571E-01 -8.82810E-02
    8987.219     -5.801   0.000  2.42815E-01  3.32333E-01 -8.95180E-02
    8987.274     -5.746   0.120  2.52722E-01  3.45335E-01 -9.26137E-02
    8987.317     -5.703   0.160  2.60493E-01  3.55422E-01 -9.49290E-02
    8987.372     -5.648   0.200  2.70467E-01  3.68305E-01 -9.78373E-02
    8987.439     -5.581   0.240  2.82511E-01  3.83783E-01 -1.01273E-01
    8987.518     -5.502   0.280  2.96343E-01  4.01564E-01 -1.05221E-01
    8987.609     -5.411   0.320  3.11415E-01  4.21148E-01 -1.09733E-01
    8987.713     -5.307   0.360  3.26935E-01  4.41985E-01 -1.15050E-01
    8987.829     -5.191   0.400  3.41860E-01  4.63468E-01 -1.21607E-01
    8987.957     -5.063   0.440  3.54917E-01  4.84983E-01 -1.30066E-01
    8988.097     -4.923   0.480  3.65030E-01  5.06142E-01 -1.41111E-01
    8988.250     -4.770   0.520  3.71476E-01  5.26629E-01 -1.55154E-01
    8988.414     -4.606   0.560  3.74295E-01  5.46321E-01 -1.72026E-01
    8988.591     -4.429   0.600  3.74237E-01  5.65202E-01 -1.90965E-01
    8988.780     -4.240   0.640  3.72371E-01  5.83270E-01 -2.10899E-01
    8988.981     -4.039   0.680  3.69852E-01  6.00644E-01 -2.30792E-01
    8989.194     -3.826   0.720  3.67759E-01  6.17416E-01 -2.49657E-01
    8989.420     -3.600   0.760  3.67016E-01  6.33679E-01 -2.66663E-01
    8989.658     -3.362   0.800  3.67848E-01  6.49491E-01 -2.81642E-01
    8989.908     -3.112   0.840  3.69398E-01  6.64941E-01 -2.95543E-01
    8990.170     -2.850   0.880  3.70051E-01  6.80083E-01 -3.10032E-01
    8990.444     -2.576   0.920  3.68326E-01  6.94956E-01 -3.26630E-01
    8990.731     -2.289   0.960  3.62855E-01  7.09566E-01 -3.46711E-01
    8991.029     -1.991   1.000  3.53500E-01  7.23929E-01 -3.70429E-01
    8991.340     -1.680   1.040  3.43859E-01  7.38071E-01 -3.94213E-01
    8991.663     -1.357   1.080  3.40061E-01  7.51971E-01 -4.11910E-01
    8991.999     -1.021   1.120  3.46417E-01  7.65623E-01 -4.19206E-01
    8992.346     -0.674   1.160  3.63888E-01  7.79012E-01 -4.15124E-01
    8992.706     -0.314   1.200  3.91037E-01  7.92142E-01 -4.01105E-01
    8993.078      0.058   1.240  4.25047E-01  8.04955E-01 -3.79908E-01
    8993.462      0.442   1.280  4.63512E-01  8.17447E-01 -3.53935E-01
    8993.858      0.838   1.320  5.07093E-01  8.29617E-01 -3.22524E-01
    8994.266      1.246   1.360  5.59984E-01  8.41399E-01 -2.81415E-01
    8994.687      1.667   1.400  6.26879E-01  8.52829E-01 -2.25950E-01
    8995.120      2.100   1.440  7.08568E-01  8.63841E-01 -1.55273E-01
    8995.565      2.545   1.480  8.00027E-01  8.74452E-01 -7.44249E-02
    8996.022      3.002   1.520  9.00040E-01  8.84618E-01  1.54221E-02
    8996.491      3.471   1.560  1.02196E+00  8.94333E-01  1.27632E-01
    8996.973      3.953   1.600  1.16154E+00  9.03617E-01  2.57920E-01
    8997.467      4.447   1.640  1.26959E+00  9.12428E-01  3.57158E-01
    8997.973      4.953   1.680  1.32486E+00  9.20765E-01  4.04095E-01
    8998.491      5.471   1.720  1.36431E+00  9.28648E-01  4.35658E-01
    8999.021      6.001   1.760  1.40013E+00  9.36037E-01  4.64095E-01
    8999.564      6.544   1.800  1.41619E+00  9.42978E-01  4.73214E-01
    9000.118      7.098   1.840  1.40102E+00  9.49454E-01  4.51566E-01
    9000.685      7.665   1.880  1.36172E+00  9.55489E-01  4.06232E-01
    9001.264      8.244   1.920  1.32147E+00  9.61067E-01  3.60400E-01
    9001.856      8.836   1.960  1.30065E+00  9.66196E-01  3.34459E-01
    9002.459      9.439   2.000  1.29037E+00  9.70923E-01  3.19444E-01
    9003.075     10.055   2.040  1.25300E+00  9.75234E-01  2.77767E-01
    9003.703     10.683   2.080  1.17867E+00  9.79138E-01  1.99536E-01
    9004.343     11.323   2.120  1.09869E+00  9.82685E-01  1.16001E-01
    9004.995     11.975   2.160  1.03995E+00  9.85863E-01  5.40854E-02
    9005.660     12.640   2.200  1.01728E+00  9.88701E-01  2.85755E-02
    9006.336     13.316   2.240  1.03677E+00  9.91210E-01  4.55578E-02
    9007.025     14.005   2.280  1.08440E+00  9.93418E-01  9.09805E-02
    9007.726     14.706   2.320  1.12487E+00  9.95313E-01  1.29560E-01
    9008.439     15.419   2.360  1.13082E+00  9.96970E-01  1.33849E-01
    9009.165     16.145   2.400  1.11269E+00  9.98355E-01  1.14337E-01
    9009.902     16.882   2.440  1.08256E+00  9.99519E-01  8.30383E-02
    9010.652     17.632   2.480  1.04943E+00  1.00047E+00  4.89609E-02
    9011.414     18.394   2.520  1.02365E+00  1.00122E+00  2.24356E-02
    9012.188     19.168   2.560  1.00806E+00  1.00179E+00  6.26481E-03
    9012.975     19.955   2.600  1.00851E+00  1.00220E+00  6.30635E-03
    9013.773     20.753   2.640  1.02098E+00  1.00245E+00  1.85277E-02
    9014.584     21.564   2.680  1.02740E+00  1.00258E+00  2.48284E-02
    9015.407     22.387   2.720  1.02177E+00  1.00260E+00  1.91781E-02
    9016.242     23.222   2.760  1.00514E+00  1.00250E+00  2.63948E-03
    9017.090     24.070   2.800  9.80576E-01  1.00232E+00 -2.17473E-02
    9017.949     24.929   2.840  9.52985E-01  1.00206E+00 -4.90766E-02
    9018.821     25.801   2.880  9.27478E-01  1.00175E+00 -7.42694E-02
    9019.705     26.685   2.920  9.06649E-01  1.00136E+00 -9.47147E-02
    9020.601     27.581   2.960  8.91159E-01  1.00096E+00 -1.09798E-01
    9021.509     28.489   3.000  8.79986E-01  1.00051E+00 -1.20527E-01
    9022.430     29.410   3.040  8.71350E-01  1.00004E+00 -1.28686E-01
    9023.362     30.342   3.080  8.63971E-01  9.99549E-01 -1.35578E-01
    9024.307     31.287   3.120  8.57323E-01  9.99058E-01 -1.41735E-01
    9025.264     32.244   3.160  8.51496E-01  9.98566E-01 -1.47070E-01
    9026.234     33.214   3.200  8.47196E-01  9.98077E-01 -1.50882E-01
    9027.215     34.195   3.240  8.45866E-01  9.97615E-01 -1.51749E-01
    9028.209     35.189   3.280  8.48282E-01  9.97160E-01 -1.48878E-01
    9029.214     36.194   3.320  8.54924E-01  9.96736E-01 -1.41812E-01
    9030.233     37.213   3.360  8.65967E-01  9.96326E-01 -1.30359E-01
    9031.263     38.243   3.400  8.81447E-01  9.95950E-01 -1.14503E-01
    9032.305     39.285   3.440  9.00968E-01  9.95633E-01 -9.46652E-02
    9033.360     40.340   3.480  9.23270E-01  9.95335E-01 -7.20649E-02
    9034.427     41.407   3.520  9.46194E-01  9.95076E-01 -4.88814E-02
    9035.506     42.486   3.560  9.67203E-01  9.94878E-01 -2.76755E-02
    9036.597     43.577   3.600  9.84704E-01  9.94703E-01 -9.99891E-03
    9037.700     44.680   3.640  9.98371E-01  9.94589E-01  3.78182E-03
    9038.816     45.796   3.680  1.00835E+00  9.94519E-01  1.38357E-02
    9039.943     46.923   3.720  1.01497E+00  9.94490E-01  2.04762E-02
    9041.083     48.063   3.760  1.01848E+00  9.94502E-01  2.39741E-02
    9042.235     49.215   3.800  1.01929E+00  9.94556E-01  2.47353E-02
    9043.400     50.380   3.840  1.01818E+00  9.94652E-01  2.35318E-02
    9044.576     51.556   3.880  1.01662E+00  9.94811E-01  2.18089E-02
    9045.765     52.745   3.920  1.01643E+00  9.94991E-01  2.14349E-02
    9046.966     53.946   3.960  1.01941E+00  9.95233E-01  2.41807E-02
    9048.179     55.159   4.000  1.02689E+00  9.95514E-01  3.13712E-02
    9049.404     56.384   4.040  1.03915E+00  9.95813E-01  4.33330E-02
    9050.642     57.622   4.080  1.05521E+00  9.96169E-01  5.90422E-02
    9051.892     58.872   4.120  1.07260E+00  9.96540E-01  7.60626E-02
    9053.153     60.133   4.160  1.08810E+00  9.96947E-01  9.11569E-02
    9054.427     61.407   4.200  1.09890E+00  9.97387E-01  1.01509E-01
    9055.714     62.694   4.240  1.10367E+00  9.97837E-01  1.05832E-01
    9057.012     63.992   4.280  1.10295E+00  9.98318E-01  1.04637E-01
    9058.323     65.303   4.320  1.09800E+00  9.98809E-01  9.91912E-02
    9059.646     66.626   4.360  1.08984E+00  9.99330E-01  9.05135E-02
    9060.981     67.961   4.400  1.07906E+00  9.99878E-01  7.91842E-02
    9062.328     69.308   4.440  1.06610E+00  1.00041E+00  6.56865E-02
    9063.687     70.667   4.480  1.05172E+00  1.00096E+00  5.07603E-02
    9065.059     72.039   4.520  1.03707E+00  1.00152E+00  3.55585E-02
    9066.443     73.423   4.560  1.02352E+00  1.00205E+00  2.14678E-02
    9067.839     74.819   4.600  1.01249E+00  1.00260E+00  9.88736E-03
    9069.247     76.227   4.640  1.00509E+00  1.00315E+00  1.93993E-03
    9070.667     77.647   4.680  1.00172E+00  1.00367E+00 -1.95276E-03
    9072.100     79.080   4.720  1.00190E+00  1.00418E+00 -2.27928E-03
    9073.544     80.524   4.760  1.00440E+00  1.00469E+00 -2.86639E-04
    9075.001     81.981   4.800  1.00759E+00  1.00517E+00  2.42283E-03
    9076.470     83.450   4.840  1.00995E+00  1.00564E+00  4.31485E-03
    9077.952     84.932   4.880  1.01025E+00  1.00609E+00  4.15631E-03
    9079.445     86.425   4.920  1.00774E+00  1.00649E+00  1.24684E-03
    9080.951     87.931   4.960  1.00250E+00  1.00688E+00 -4.37353E-03
    9082.469     89.449   5.000  9.95238E-01  1.00725E+00 -1.20139E-02
    9083.999     90.979   5.040  9.86649E-01  1.00757E+00 -2.09165E-02
    9085.541     92.521   5.080  9.77355E-01  1.00786E+00 -3.05077E-02
    9087.096     94.076   5.120  9.67991E-01  1.00812E+00 -4.01316E-02
    9088.662     95.642   5.160  9.59581E-01  1.00835E+00 -4.87638E-02
    9090.241     97.221   5.200  9.53345E-01  1.00855E+00 -5.52049E-02
    9091.832     98.812   5.240  9.49977E-01  1.00869E+00 -5.87134E-02
    9093.436    100.416   5.280  9.49599E-01  1.00879E+00 -5.91920E-02
    9095.051    102.031   5.320  9.51623E-01  1.00887E+00 -5.72497E-02
    9096.679    103.659   5.360  9.54981E-01  1.00889E+00 -5.39090E-02
    9098.318    105.298   5.400  9.58769E-01  1.00887E+00 -5.00980E-02
    9099.970    106.950   5.440  9.62785E-01  1.00883E+00 -4.60403E-02
    9101.635    108.615   5.480  9.67469E-01  1.00872E+00 -4.12529E-02
    9103.311    110.291   5.520  9.73613E-01  1.00860E+00 -3.49860E-02
    9105.000    111.980   5.560  9.81543E-01  1.00842E+00 -2.68730E-02
    9106.700    113.680   5.600  9.90925E-01  1.00822E+00 -1.72900E-02
    9108.413    115.393   5.640  1.00049E+00  1.00798E+00 -7.48647E-03
    9110.139    117.119   5.680  1.00832E+00  1.00770E+00  6.19060E-04
    9111.876    118.856   5.720  1.01238E+00  1.00738E+00  4.99265E-03
    9113.625    120.605   5.760  1.01137E+00  1.00703E+00  4.34340E-03
    9115.387    122.367   5.800  1.00543E+00  1.00664E+00 -1.21093E-03
    9117.161    124.141   5.840  9.96157E-01  1.00624E+00 -1.00826E-02
    9118.947    125.927   5.880  9.86061E-01  1.00581E+00 -1.97456E-02
    9120.746    127.726   5.920  9.77857E-01  1.00534E+00 -2.74870E-02
    9122.556    129.536   5.960  9.73814E-01  1.00485E+00 -3.10388E-02
    9124.379    131.359   6.000  9.75550E-01  1.00434E+00 -2.87863E-02
