# # comment:                                                     FEFF 9.9.1  
# # Source:
# # Structure
# # Reduced
# # space
# # abc:
# # angles:112.844679
# # sites:
# # POT  SCF 100  7.0000   0, screened core-hole, AFOLP (folp(0)= 1.150)
# # Abs   Z=29 Rmt= 1.296 Rnm= 1.365 K  shell
# # Pot 1 Z=11 Rmt= 1.580 Rnm= 1.630
# # Pot 2 Z=29 Rmt= 1.263 Rnm= 1.336
# # Pot 3 Z=15 Rmt= 0.937 Rnm= 1.156
# # Pot 4 Z= 8 Rmt= 0.914 Rnm= 1.051
# # Gam_ch=1.729E+00 H-L exch Vi= 0.000E+00 Vr= 0.000E+00
# # Mu=-6.499E+00eV kf=2.402E+00 Vint=-1.679E+01eV Rs_int= 1.510
# FMS rfms= 9.0000
# # PATH  Rmax=-1.000,  Keep_limit= 0.00, Heap_limit 0.00  Pwcrit= 2.50%
#  S02=0.950  Temp=   0.00  Debye_temp=   0.00  Global_sig2= 0.00000
#  Energy zero shift, vr, vi    0.00000E+00   0.00000E+00
#  Curved wave amplitude ratio filter   4.000%
#     file         sig2 tot  cw amp ratio   deg  nlegs   reff  inp sig2
#     0/   0 paths used
#  xsedge+ 50, used to normalize mu           2.4773E-04
#  -----------------------------------------------------------------------
#  omega    e    k    mu    mu0     chi     @#
    8983.447    -10.309  -1.000  5.21882E-02  5.44061E-02 -2.21796E-03
    8983.746    -10.010  -0.960  5.60915E-02  5.83970E-02 -2.30556E-03
    8984.033     -9.724  -0.920  6.04615E-02  6.28366E-02 -2.37509E-03
    8984.307     -9.450  -0.880  6.53717E-02  6.77914E-02 -2.41962E-03
    8984.569     -9.187  -0.840  7.09080E-02  7.33390E-02 -2.43105E-03
    8984.819     -8.938  -0.800  7.71695E-02  7.95695E-02 -2.40003E-03
    8985.057     -8.700  -0.760  8.42702E-02  8.65864E-02 -2.31619E-03
    8985.282     -8.474  -0.720  9.23381E-02  9.45064E-02 -2.16827E-03
    8985.496     -8.261  -0.680  1.01514E-01  1.03459E-01 -1.94441E-03
    8985.697     -8.060  -0.640  1.11947E-01  1.13579E-01 -1.63237E-03
    8985.886     -7.871  -0.600  1.23782E-01  1.25002E-01 -1.21937E-03
    8986.063     -7.694  -0.560  1.37150E-01  1.37841E-01 -6.91103E-04
    8986.227     -7.529  -0.520  1.52136E-01  1.52166E-01 -2.97301E-05
    8986.380     -7.377  -0.480  1.68751E-01  1.67962E-01  7.89487E-04
    8986.520     -7.237  -0.440  1.86891E-01  1.85090E-01  1.80152E-03
    8986.648     -7.109  -0.400  2.06302E-01  2.03250E-01  3.05200E-03
    8986.764     -6.993  -0.360  2.26561E-01  2.21971E-01  4.59037E-03
    8986.867     -6.889  -0.320  2.47092E-01  2.40639E-01  6.45286E-03
    8986.959     -6.798  -0.280  2.67213E-01  2.58575E-01  8.63815E-03
    8987.038     -6.719  -0.240  2.86210E-01  2.75125E-01  1.10855E-02
    8987.105     -6.652  -0.200  3.03412E-01  2.89745E-01  1.36675E-02
    8987.160     -6.597  -0.160  3.18240E-01  3.02036E-01  1.62041E-02
    8987.203     -6.554  -0.120  3.30242E-01  3.11748E-01  1.84940E-02
    8987.233     -6.523  -0.080  3.39085E-01  3.18741E-01  2.03440E-02
    8987.257     -6.499   0.000  3.46403E-01  3.24358E-01  2.20457E-02
    8987.312     -6.444   0.120  3.62371E-01  3.37014E-01  2.53565E-02
    8987.355     -6.402   0.160  3.75147E-01  3.46841E-01  2.83059E-02
    8987.410     -6.347   0.200  3.91915E-01  3.59382E-01  3.25327E-02
    8987.477     -6.280   0.240  4.12859E-01  3.74459E-01  3.84008E-02
    8987.556     -6.200   0.280  4.37977E-01  3.91711E-01  4.62661E-02
    8987.648     -6.109   0.320  4.67107E-01  4.10724E-01  5.63823E-02
    8987.751     -6.005   0.360  4.99504E-01  4.30910E-01  6.85944E-02
    8987.867     -5.890   0.400  5.33514E-01  4.51644E-01  8.18703E-02
    8987.995     -5.761   0.440  5.66106E-01  4.72399E-01  9.37070E-02
    8988.135     -5.621   0.480  5.92433E-01  4.92712E-01  9.97206E-02
    8988.288     -5.469   0.520  6.06554E-01  5.12333E-01  9.42212E-02
    8988.452     -5.304   0.560  6.03522E-01  5.31118E-01  7.24040E-02
    8988.629     -5.128   0.600  5.82514E-01  5.49038E-01  3.34764E-02
    8988.818     -4.939   0.640  5.48239E-01  5.66154E-01 -1.79150E-02
    8989.019     -4.737   0.680  5.08792E-01  5.82568E-01 -7.37758E-02
    8989.233     -4.524   0.720  4.71705E-01  5.98376E-01 -1.26671E-01
    8989.458     -4.298   0.760  4.41380E-01  6.13655E-01 -1.72275E-01
    8989.696     -4.061   0.800  4.19217E-01  6.28530E-01 -2.09313E-01
    8989.946     -3.811   0.840  4.04922E-01  6.43054E-01 -2.38133E-01
    8990.208     -3.549   0.880  3.97863E-01  6.57328E-01 -2.59464E-01
    8990.482     -3.274   0.920  3.96987E-01  6.71355E-01 -2.74368E-01
    8990.769     -2.988   0.960  4.00753E-01  6.85207E-01 -2.84454E-01
    8991.067     -2.689   1.000  4.07207E-01  6.98887E-01 -2.91679E-01
    8991.378     -2.378   1.040  4.15268E-01  7.12405E-01 -2.97138E-01
    8991.701     -2.055   1.080  4.25927E-01  7.25786E-01 -2.99859E-01
    8992.037     -1.720   1.120  4.42052E-01  7.39026E-01 -2.96974E-01
    8992.384     -1.372   1.160  4.66953E-01  7.52119E-01 -2.85167E-01
    8992.744     -1.013   1.200  5.02637E-01  7.65052E-01 -2.62415E-01
    8993.116     -0.641   1.240  5.47918E-01  7.77786E-01 -2.29867E-01
    8993.500     -0.257   1.280  5.98397E-01  7.90342E-01 -1.91945E-01
    8993.896      0.139   1.320  6.51004E-01  8.02679E-01 -1.51675E-01
    8994.304      0.548   1.360  7.02903E-01  8.14793E-01 -1.11890E-01
    8994.725      0.968   1.400  7.47695E-01  8.26640E-01 -7.89453E-02
    8995.158      1.401   1.440  7.86114E-01  8.38235E-01 -5.21216E-02
    8995.603      1.846   1.480  8.27452E-01  8.49511E-01 -2.20593E-02
    8996.060      2.303   1.520  8.76404E-01  8.60481E-01  1.59229E-02
    8996.529      2.773   1.560  9.27709E-01  8.71119E-01  5.65901E-02
    8997.011      3.254   1.600  9.77393E-01  8.81420E-01  9.59723E-02
    8997.505      3.748   1.640  1.02353E+00  8.91339E-01  1.32194E-01
    8998.011      4.254   1.680  1.06117E+00  9.00888E-01  1.60285E-01
    8998.529      4.772   1.720  1.09905E+00  9.10045E-01  1.89004E-01
    8999.059      5.303   1.760  1.14081E+00  9.18805E-01  2.22002E-01
    8999.602      5.845   1.800  1.17611E+00  9.27145E-01  2.48968E-01
    9000.157      6.400   1.840  1.20018E+00  9.35063E-01  2.65117E-01
    9000.723      6.967   1.880  1.21251E+00  9.42559E-01  2.69950E-01
    9001.303      7.546   1.920  1.21474E+00  9.49653E-01  2.65087E-01
    9001.894      8.137   1.960  1.21368E+00  9.56303E-01  2.57381E-01
    9002.497      8.741   2.000  1.21481E+00  9.62532E-01  2.52279E-01
    9003.113      9.357   2.040  1.21915E+00  9.68341E-01  2.50814E-01
    9003.741      9.984   2.080  1.23286E+00  9.73714E-01  2.59142E-01
    9004.381     10.624   2.120  1.26415E+00  9.78716E-01  2.85438E-01
    9005.033     11.277   2.160  1.30055E+00  9.83291E-01  3.17263E-01
    9005.698     11.941   2.200  1.31002E+00  9.87483E-01  3.22542E-01
    9006.374     12.618   2.240  1.27994E+00  9.91299E-01  2.88637E-01
    9007.063     13.307   2.280  1.23015E+00  9.94744E-01  2.35407E-01
    9007.764     14.008   2.320  1.18342E+00  9.97825E-01  1.85595E-01
    9008.478     14.721   2.360  1.14914E+00  1.00057E+00  1.48569E-01
    9009.203     15.446   2.400  1.12611E+00  1.00298E+00  1.23127E-01
    9009.941     16.184   2.440  1.10603E+00  1.00508E+00  1.00951E-01
    9010.690     16.934   2.480  1.08058E+00  1.00688E+00  7.37016E-02
    9011.452     17.696   2.520  1.04810E+00  1.00839E+00  3.97083E-02
    9012.227     18.470   2.560  1.01253E+00  1.00965E+00  2.87929E-03
    9013.013     19.256   2.600  9.76975E-01  1.01066E+00 -3.36814E-02
    9013.811     20.055   2.640  9.44437E-01  1.01140E+00 -6.69643E-02
    9014.622     20.866   2.680  9.19815E-01  1.01195E+00 -9.21381E-02
    9015.445     21.689   2.720  9.06002E-01  1.01228E+00 -1.06278E-01
    9016.280     22.524   2.760  9.01311E-01  1.01243E+00 -1.11118E-01
    9017.128     23.371   2.800  9.03985E-01  1.01241E+00 -1.08425E-01
    9017.987     24.231   2.840  9.07019E-01  1.01223E+00 -1.05210E-01
    9018.859     25.102   2.880  9.06939E-01  1.01189E+00 -1.04953E-01
    9019.743     25.986   2.920  9.04201E-01  1.01145E+00 -1.07248E-01
    9020.639     26.882   2.960  8.99523E-01  1.01087E+00 -1.11342E-01
    9021.547     27.791   3.000  8.94212E-01  1.01019E+00 -1.15976E-01
    9022.468     28.711   3.040  8.89506E-01  1.00942E+00 -1.19916E-01
    9023.400     29.644   3.080  8.86196E-01  1.00858E+00 -1.22379E-01
    9024.345     30.589   3.120  8.84680E-01  1.00765E+00 -1.22973E-01
    9025.302     31.546   3.160  8.85044E-01  1.00668E+00 -1.21637E-01
    9026.272     32.515   3.200  8.87163E-01  1.00567E+00 -1.18502E-01
    9027.253     33.497   3.240  8.91040E-01  1.00461E+00 -1.13570E-01
    9028.247     34.490   3.280  8.96824E-01  1.00352E+00 -1.06695E-01
    9029.253     35.496   3.320  9.04014E-01  1.00244E+00 -9.84258E-02
    9030.271     36.514   3.360  9.11792E-01  1.00131E+00 -8.95213E-02
    9031.301     37.544   3.400  9.19328E-01  1.00021E+00 -8.08781E-02
    9032.343     38.587   3.440  9.25949E-01  9.99122E-01 -7.31722E-02
    9033.398     39.641   3.480  9.31589E-01  9.98021E-01 -6.64318E-02
    9034.465     40.708   3.520  9.36793E-01  9.96950E-01 -6.01572E-02
    9035.544     41.787   3.560  9.42260E-01  9.95909E-01 -5.36494E-02
    9036.635     42.878   3.600  9.48577E-01  9.94881E-01 -4.63031E-02
    9037.738     43.982   3.640  9.56584E-01  9.93888E-01 -3.73038E-02
    9038.854     45.097   3.680  9.67005E-01  9.92935E-01 -2.59296E-02
    9039.982     46.225   3.720  9.80216E-01  9.92043E-01 -1.18273E-02
    9041.121     47.365   3.760  9.95970E-01  9.91172E-01  4.79767E-03
    9042.274     48.517   3.800  1.01353E+00  9.90366E-01  2.31642E-02
    9043.438     49.681   3.840  1.03164E+00  9.89604E-01  4.20364E-02
    9044.614     50.858   3.880  1.04910E+00  9.88887E-01  6.02165E-02
    9045.803     52.047   3.920  1.06493E+00  9.88239E-01  7.66889E-02
    9047.004     53.248   3.960  1.07815E+00  9.87638E-01  9.05142E-02
    9048.217     54.461   4.000  1.08791E+00  9.87106E-01  1.00799E-01
    9049.442     55.686   4.040  1.09360E+00  9.86623E-01  1.06978E-01
    9050.680     56.923   4.080  1.09515E+00  9.86207E-01  1.08946E-01
    9051.930     58.173   4.120  1.09293E+00  9.85840E-01  1.07090E-01
    9053.191     59.435   4.160  1.08773E+00  9.85520E-01  1.02212E-01
    9054.466     60.709   4.200  1.08048E+00  9.85268E-01  9.52147E-02
    9055.752     61.995   4.240  1.07193E+00  9.85064E-01  8.68697E-02
    9057.050     63.294   4.280  1.06273E+00  9.84929E-01  7.77985E-02
    9058.361     64.604   4.320  1.05328E+00  9.84841E-01  6.84373E-02
    9059.684     65.927   4.360  1.04380E+00  9.84820E-01  5.89776E-02
    9061.019     67.262   4.400  1.03440E+00  9.84844E-01  4.95528E-02
    9062.366     68.609   4.440  1.02523E+00  9.84889E-01  4.03423E-02
    9063.725     69.969   4.480  1.01654E+00  9.85019E-01  3.15169E-02
    9065.097     71.340   4.520  1.00832E+00  9.85170E-01  2.31476E-02
    9066.481     72.724   4.560  1.00052E+00  9.85360E-01  1.51620E-02
    9067.877     74.120   4.600  9.92923E-01  9.85589E-01  7.33331E-03
    9069.285     75.528   4.640  9.85256E-01  9.85880E-01 -6.23810E-04
    9070.705     76.949   4.680  9.77334E-01  9.86185E-01 -8.85083E-03
    9072.138     78.381   4.720  9.69301E-01  9.86502E-01 -1.72010E-02
    9073.583     79.826   4.760  9.61626E-01  9.86875E-01 -2.52493E-02
    9075.039     81.283   4.800  9.54828E-01  9.87260E-01 -3.24323E-02
    9076.509     82.752   4.840  9.49310E-01  9.87676E-01 -3.83662E-02
    9077.990     84.233   4.880  9.45142E-01  9.88097E-01 -4.29545E-02
    9079.483     85.727   4.920  9.42252E-01  9.88524E-01 -4.62723E-02
    9080.989     87.233   4.960  9.40633E-01  9.88978E-01 -4.83455E-02
    9082.507     88.750   5.000  9.40454E-01  9.89433E-01 -4.89786E-02
    9084.037     90.281   5.040  9.42014E-01  9.89866E-01 -4.78520E-02
    9085.579     91.823   5.080  9.45611E-01  9.90321E-01 -4.47106E-02
    9087.134     93.377   5.120  9.51193E-01  9.90777E-01 -3.95849E-02
    9088.701     94.944   5.160  9.58239E-01  9.91232E-01 -3.29928E-02
    9090.279     96.523   5.200  9.65768E-01  9.91680E-01 -2.59121E-02
    9091.870     98.114   5.240  9.72524E-01  9.92100E-01 -1.95768E-02
    9093.474     99.717   5.280  9.77429E-01  9.92511E-01 -1.50826E-02
    9095.089    101.333   5.320  9.79864E-01  9.92891E-01 -1.30271E-02
    9096.717    102.960   5.360  9.79969E-01  9.93259E-01 -1.32903E-02
    9098.357    104.600   5.400  9.78533E-01  9.93593E-01 -1.50607E-02
    9100.009    106.252   5.440  9.76676E-01  9.93893E-01 -1.72176E-02
    9101.673    107.916   5.480  9.75371E-01  9.94181E-01 -1.88107E-02
    9103.349    109.593   5.520  9.75073E-01  9.94434E-01 -1.93614E-02
    9105.038    111.281   5.560  9.75822E-01  9.94671E-01 -1.88496E-02
    9106.739    112.982   5.600  9.77353E-01  9.94848E-01 -1.74951E-02
    9108.451    114.695   5.640  9.79382E-01  9.94986E-01 -1.56041E-02
    9110.177    116.420   5.680  9.81562E-01  9.95108E-01 -1.35460E-02
    9111.914    118.157   5.720  9.83424E-01  9.95191E-01 -1.17662E-02
    9113.664    119.907   5.760  9.84532E-01  9.95209E-01 -1.06777E-02
    9115.425    121.669   5.800  9.84743E-01  9.95211E-01 -1.04676E-02
    9117.199    123.443   5.840  9.84154E-01  9.95149E-01 -1.09955E-02
    9118.985    125.229   5.880  9.83176E-01  9.95071E-01 -1.18948E-02
    9120.784    127.027   5.920  9.82207E-01  9.94929E-01 -1.27216E-02
    9122.594    128.838   5.960  9.81804E-01  9.94743E-01 -1.29395E-02
    9124.417    130.660   6.000  9.82820E-01  9.94520E-01 -1.17000E-02
