# # comment:                                                     FEFF 9.9.1  
# # Source:
# # Structure
# # Reduced
# # space
# # abc:
# # angles:
# # sites:
# # POT  SCF 100  7.0000   0, screened core-hole, AFOLP (folp(0)= 1.150)
# # Abs   Z=29 Rmt= 1.153 Rnm= 1.273 K  shell
# # Pot 1 Z=56 Rmt= 1.921 Rnm= 1.976
# # Pot 2 Z=70 Rmt= 1.639 Rnm= 1.713
# # Pot 3 Z=29 Rmt= 1.153 Rnm= 1.273
# # Pot 4 Z= 8 Rmt= 1.082 Rnm= 1.132
# # Gam_ch=1.729E+00 H-L exch Vi= 0.000E+00 Vr= 0.000E+00
# # Mu=-9.063E+00eV kf=2.000E+00 Vint=-1.779E+01eV Rs_int= 1.813
# FMS rfms= 9.0000
# # PATH  Rmax=-1.000,  Keep_limit= 0.00, Heap_limit 0.00  Pwcrit= 2.50%
#  S02=0.950  Temp=   0.00  Debye_temp=   0.00  Global_sig2= 0.00000
#  Energy zero shift, vr, vi    0.00000E+00   0.00000E+00
#  Curved wave amplitude ratio filter   4.000%
#     file         sig2 tot  cw amp ratio   deg  nlegs   reff  inp sig2
#     0/   0 paths used
#  xsedge+ 50, used to normalize mu           2.4531E-04
#  -----------------------------------------------------------------------
#  omega    e    k    mu    mu0     chi     @#
    8985.039    -12.873  -1.000  3.73442E-02  5.62609E-02 -1.89166E-02
    8985.338    -12.574  -0.960  3.94168E-02  6.03825E-02 -2.09657E-02
    8985.625    -12.288  -0.920  4.16895E-02  6.49639E-02 -2.32744E-02
    8985.899    -12.014  -0.880  4.41938E-02  7.00727E-02 -2.58789E-02
    8986.161    -11.751  -0.840  4.69676E-02  7.57877E-02 -2.88201E-02
    8986.411    -11.502  -0.800  5.00560E-02  8.22001E-02 -3.21441E-02
    8986.649    -11.264  -0.760  5.35121E-02  8.94147E-02 -3.59026E-02
    8986.874    -11.038  -0.720  5.73976E-02  9.75497E-02 -4.01521E-02
    8987.088    -10.825  -0.680  6.17824E-02  1.06735E-01 -4.49531E-02
    8987.289    -10.624  -0.640  6.67421E-02  1.17109E-01 -5.03671E-02
    8987.478    -10.435  -0.600  7.23538E-02  1.28806E-01 -5.64524E-02
    8987.654    -10.258  -0.560  7.86860E-02  1.41941E-01 -6.32555E-02
    8987.819    -10.093  -0.520  8.57838E-02  1.56584E-01 -7.07997E-02
    8987.971     -9.941  -0.480  9.36483E-02  1.72717E-01 -7.90687E-02
    8988.112     -9.801  -0.440  1.02211E-01  1.90200E-01 -8.79890E-02
    8988.240     -9.673  -0.400  1.11315E-01  2.08729E-01 -9.74144E-02
    8988.356     -9.557  -0.360  1.20704E-01  2.27826E-01 -1.07122E-01
    8988.459     -9.453  -0.320  1.30045E-01  2.46869E-01 -1.16824E-01
    8988.551     -9.362  -0.280  1.38967E-01  2.65168E-01 -1.26201E-01
    8988.630     -9.283  -0.240  1.47124E-01  2.82060E-01 -1.34936E-01
    8988.697     -9.216  -0.200  1.54240E-01  2.96989E-01 -1.42750E-01
    8988.752     -9.161  -0.160  1.60133E-01  3.09548E-01 -1.49416E-01
    8988.794     -9.118  -0.120  1.64713E-01  3.19477E-01 -1.54765E-01
    8988.825     -9.088  -0.080  1.67952E-01  3.26631E-01 -1.58678E-01
    8988.849     -9.063   0.000  1.70478E-01  3.32379E-01 -1.61901E-01
    8988.904     -9.008   0.120  1.76106E-01  3.45329E-01 -1.69223E-01
    8988.947     -8.966   0.160  1.80393E-01  3.55396E-01 -1.75002E-01
    8989.002     -8.911   0.200  1.85690E-01  3.68276E-01 -1.82586E-01
    8989.069     -8.844   0.240  1.91636E-01  3.83736E-01 -1.92100E-01
    8989.148     -8.764   0.280  1.97803E-01  4.01509E-01 -2.03706E-01
    8989.239     -8.673   0.320  2.03535E-01  4.21146E-01 -2.17611E-01
    8989.343     -8.569   0.360  2.07990E-01  4.42029E-01 -2.34039E-01
    8989.459     -8.454   0.400  2.10485E-01  4.63623E-01 -2.53138E-01
    8989.587     -8.326   0.440  2.10474E-01  4.85325E-01 -2.74851E-01
    8989.727     -8.185   0.480  2.08040E-01  5.06713E-01 -2.98674E-01
    8989.880     -8.033   0.520  2.03848E-01  5.27541E-01 -3.23694E-01
    8990.044     -7.868   0.560  1.98915E-01  5.47623E-01 -3.48708E-01
    8990.221     -7.692   0.600  1.94362E-01  5.66965E-01 -3.72603E-01
    8990.410     -7.503   0.640  1.91008E-01  5.85586E-01 -3.94578E-01
    8990.611     -7.301   0.680  1.89494E-01  6.03601E-01 -4.14107E-01
    8990.824     -7.088   0.720  1.90140E-01  6.21060E-01 -4.30920E-01
    8991.050     -6.863   0.760  1.93216E-01  6.38071E-01 -4.44855E-01
    8991.288     -6.625   0.800  1.98893E-01  6.54712E-01 -4.55819E-01
    8991.538     -6.375   0.840  2.07387E-01  6.71049E-01 -4.63661E-01
    8991.800     -6.113   0.880  2.19142E-01  6.87131E-01 -4.67989E-01
    8992.074     -5.838   0.920  2.34993E-01  7.02973E-01 -4.67980E-01
    8992.361     -5.552   0.960  2.56391E-01  7.18620E-01 -4.62229E-01
    8992.659     -5.253   1.000  2.85020E-01  7.34064E-01 -4.49044E-01
    8992.970     -4.942   1.040  3.22224E-01  7.49287E-01 -4.27063E-01
    8993.293     -4.619   1.080  3.67996E-01  7.64325E-01 -3.96329E-01
    8993.629     -4.284   1.120  4.20468E-01  7.79126E-01 -3.58658E-01
    8993.976     -3.936   1.160  4.77792E-01  7.93675E-01 -3.15882E-01
    8994.336     -3.577   1.200  5.39715E-01  8.07950E-01 -2.68236E-01
    8994.708     -3.205   1.240  6.01800E-01  8.21951E-01 -2.20150E-01
    8995.092     -2.821   1.280  6.48895E-01  8.35608E-01 -1.86713E-01
    8995.488     -2.425   1.320  6.67649E-01  8.48896E-01 -1.81247E-01
    8995.896     -2.016   1.360  6.63652E-01  8.61828E-01 -1.98176E-01
    8996.317     -1.596   1.400  6.56459E-01  8.74333E-01 -2.17874E-01
    8996.750     -1.163   1.440  6.67645E-01  8.86404E-01 -2.18759E-01
    8997.195     -0.718   1.480  7.04698E-01  8.98034E-01 -1.93336E-01
    8997.652     -0.261   1.520  7.44497E-01  9.09154E-01 -1.64657E-01
    8998.121      0.209   1.560  7.43383E-01  9.19800E-01 -1.76417E-01
    8998.603      0.690   1.600  7.03266E-01  9.29923E-01 -2.26657E-01
    8999.097      1.184   1.640  6.81647E-01  9.39522E-01 -2.57875E-01
    8999.603      1.690   1.680  7.19797E-01  9.48593E-01 -2.28796E-01
    9000.121      2.208   1.720  8.30877E-01  9.57116E-01 -1.26239E-01
    9000.651      2.739   1.760  1.00859E+00  9.65110E-01  4.34771E-02
    9001.194      3.281   1.800  1.22222E+00  9.72555E-01  2.49665E-01
    9001.748      3.836   1.840  1.40242E+00  9.79455E-01  4.22968E-01
    9002.315      4.403   1.880  1.48118E+00  9.85815E-01  4.95367E-01
    9002.894      4.982   1.920  1.47543E+00  9.91657E-01  4.83775E-01
    9003.486      5.573   1.960  1.42754E+00  9.96968E-01  4.30569E-01
    9004.089      6.177   2.000  1.34569E+00  1.00180E+00  3.43890E-01
    9004.705      6.792   2.040  1.26166E+00  1.00613E+00  2.55524E-01
    9005.333      7.420   2.080  1.21412E+00  1.00998E+00  2.04141E-01
    9005.973      8.060   2.120  1.21978E+00  1.01339E+00  2.06388E-01
    9006.625      8.713   2.160  1.25902E+00  1.01638E+00  2.42639E-01
    9007.290      9.377   2.200  1.28486E+00  1.01893E+00  2.65930E-01
    9007.966     10.054   2.240  1.27241E+00  1.02110E+00  2.51307E-01
    9008.655     10.743   2.280  1.23384E+00  1.02289E+00  2.10944E-01
    9009.356     11.444   2.320  1.19535E+00  1.02435E+00  1.70999E-01
    9010.069     12.157   2.360  1.17637E+00  1.02545E+00  1.50927E-01
    9010.795     12.882   2.400  1.17870E+00  1.02627E+00  1.52435E-01
    9011.532     13.620   2.440  1.18958E+00  1.02678E+00  1.62795E-01
    9012.282     14.370   2.480  1.19952E+00  1.02704E+00  1.72484E-01
    9013.044     15.132   2.520  1.20584E+00  1.02707E+00  1.78773E-01
    9013.818     15.906   2.560  1.19771E+00  1.02686E+00  1.70846E-01
    9014.605     16.692   2.600  1.17177E+00  1.02646E+00  1.45318E-01
    9015.403     17.491   2.640  1.13370E+00  1.02587E+00  1.07833E-01
    9016.214     18.302   2.680  1.09126E+00  1.02512E+00  6.61365E-02
    9017.037     19.125   2.720  1.05108E+00  1.02422E+00  2.68669E-02
    9017.872     19.960   2.760  1.01714E+00  1.02321E+00 -6.06780E-03
    9018.720     20.807   2.800  9.90414E-01  1.02206E+00 -3.16415E-02
    9019.579     21.667   2.840  9.71138E-01  1.02084E+00 -4.96996E-02
    9020.451     22.538   2.880  9.58755E-01  1.01954E+00 -6.07826E-02
    9021.335     23.422   2.920  9.51872E-01  1.01816E+00 -6.62900E-02
    9022.231     24.318   2.960  9.48740E-01  1.01674E+00 -6.80010E-02
    9023.139     25.227   3.000  9.47446E-01  1.01528E+00 -6.78326E-02
    9024.060     26.147   3.040  9.46492E-01  1.01380E+00 -6.73104E-02
    9024.992     27.080   3.080  9.44821E-01  1.01230E+00 -6.74755E-02
    9025.937     28.025   3.120  9.41975E-01  1.01081E+00 -6.88334E-02
    9026.894     28.982   3.160  9.37480E-01  1.00930E+00 -7.18213E-02
    9027.864     29.951   3.200  9.30954E-01  1.00782E+00 -7.68659E-02
    9028.845     30.933   3.240  9.22232E-01  1.00635E+00 -8.41159E-02
    9029.839     31.926   3.280  9.11468E-01  1.00493E+00 -9.34638E-02
    9030.844     32.932   3.320  8.99157E-01  1.00353E+00 -1.04376E-01
    9031.862     33.950   3.360  8.86305E-01  1.00218E+00 -1.15870E-01
    9032.893     34.980   3.400  8.74341E-01  1.00088E+00 -1.26541E-01
    9033.935     36.023   3.440  8.64486E-01  9.99635E-01 -1.35149E-01
    9034.990     37.077   3.480  8.57861E-01  9.98436E-01 -1.40575E-01
    9036.057     38.144   3.520  8.55295E-01  9.97308E-01 -1.42013E-01
    9037.135     39.223   3.560  8.57029E-01  9.96254E-01 -1.39225E-01
    9038.227     40.314   3.600  8.62671E-01  9.95254E-01 -1.32583E-01
    9039.330     41.418   3.640  8.71683E-01  9.94329E-01 -1.22646E-01
    9040.446     42.533   3.680  8.83551E-01  9.93481E-01 -1.09930E-01
    9041.573     43.661   3.720  8.97916E-01  9.92713E-01 -9.47973E-02
    9042.713     44.801   3.760  9.14570E-01  9.92024E-01 -7.74540E-02
    9043.865     45.953   3.800  9.32937E-01  9.91415E-01 -5.84782E-02
    9045.030     47.117   3.840  9.51618E-01  9.90885E-01 -3.92672E-02
    9046.206     48.294   3.880  9.68723E-01  9.90433E-01 -2.17104E-02
    9047.395     49.483   3.920  9.82820E-01  9.90040E-01 -7.21956E-03
    9048.596     50.683   3.960  9.93598E-01  9.89747E-01  3.85111E-03
    9049.809     51.897   4.000  1.00183E+00  9.89531E-01  1.23000E-02
    9051.034     53.122   4.040  1.00903E+00  9.89373E-01  1.96579E-02
    9052.272     54.359   4.080  1.01676E+00  9.89291E-01  2.74708E-02
    9053.521     55.609   4.120  1.02595E+00  9.89286E-01  3.66633E-02
    9054.783     56.871   4.160  1.03664E+00  9.89358E-01  4.72870E-02
    9056.057     58.145   4.200  1.04786E+00  9.89505E-01  5.83590E-02
    9057.344     59.431   4.240  1.05778E+00  9.89703E-01  6.80762E-02
    9058.642     60.730   4.280  1.06442E+00  9.89973E-01  7.44477E-02
    9059.953     62.040   4.320  1.06638E+00  9.90290E-01  7.60846E-02
    9061.276     63.363   4.360  1.06331E+00  9.90654E-01  7.26516E-02
    9062.611     64.698   4.400  1.05617E+00  9.91086E-01  6.50822E-02
    9063.958     66.045   4.440  1.04692E+00  9.91563E-01  5.53610E-02
    9065.317     67.405   4.480  1.03805E+00  9.92084E-01  4.59712E-02
    9066.689     68.776   4.520  1.03194E+00  9.92667E-01  3.92720E-02
    9068.073     70.160   4.560  1.03027E+00  9.93267E-01  3.70018E-02
    9069.469     71.556   4.600  1.03375E+00  9.93903E-01  3.98430E-02
    9070.877     72.964   4.640  1.04185E+00  9.94574E-01  4.72791E-02
    9072.297     74.385   4.680  1.05300E+00  9.95257E-01  5.77460E-02
    9073.730     75.817   4.720  1.06493E+00  9.95973E-01  6.89531E-02
    9075.174     77.262   4.760  1.07494E+00  9.96718E-01  7.82264E-02
    9076.631     78.719   4.800  1.08053E+00  9.97469E-01  8.30637E-02
    9078.100     80.188   4.840  1.08020E+00  9.98224E-01  8.19780E-02
    9079.582     81.669   4.880  1.07396E+00  9.98978E-01  7.49858E-02
    9081.075     83.163   4.920  1.06308E+00  9.99731E-01  6.33491E-02
    9082.581     84.669   4.960  1.04921E+00  1.00048E+00  4.87298E-02
    9084.099     86.186   5.000  1.03392E+00  1.00123E+00  3.26908E-02
    9085.629     87.717   5.040  1.01865E+00  1.00197E+00  1.66759E-02
    9087.171     89.259   5.080  1.00470E+00  1.00268E+00  2.02167E-03
    9088.726     90.813   5.120  9.93188E-01  1.00336E+00 -1.01722E-02
    9090.292     92.380   5.160  9.84778E-01  1.00403E+00 -1.92498E-02
    9091.871     93.959   5.200  9.79624E-01  1.00468E+00 -2.50591E-02
    9093.462     95.550   5.240  9.77300E-01  1.00530E+00 -2.80018E-02
    9095.066     97.153   5.280  9.76831E-01  1.00586E+00 -2.90283E-02
    9096.681     98.769   5.320  9.77040E-01  1.00640E+00 -2.93576E-02
    9098.309    100.396   5.360  9.77073E-01  1.00690E+00 -2.98246E-02
    9099.948    102.036   5.400  9.76833E-01  1.00736E+00 -3.05227E-02
    9101.600    103.688   5.440  9.76494E-01  1.00777E+00 -3.12756E-02
    9103.265    105.352   5.480  9.75821E-01  1.00812E+00 -3.22964E-02
    9104.941    107.029   5.520  9.74375E-01  1.00844E+00 -3.40674E-02
    9106.630    108.717   5.560  9.72068E-01  1.00870E+00 -3.66297E-02
    9108.330    110.418   5.600  9.69505E-01  1.00888E+00 -3.93796E-02
    9110.043    112.131   5.640  9.67732E-01  1.00905E+00 -4.13157E-02
    9111.769    113.856   5.680  9.67408E-01  1.00914E+00 -4.17344E-02
    9113.506    115.593   5.720  9.68753E-01  1.00919E+00 -4.04367E-02
    9115.255    117.343   5.760  9.71448E-01  1.00917E+00 -3.77174E-02
    9117.017    119.105   5.800  9.74503E-01  1.00910E+00 -3.45921E-02
    9118.791    120.879   5.840  9.76403E-01  1.00896E+00 -3.25532E-02
    9120.577    122.665   5.880  9.76067E-01  1.00880E+00 -3.27292E-02
    9122.376    124.463   5.920  9.73599E-01  1.00857E+00 -3.49690E-02
    9124.186    126.274   5.960  9.70519E-01  1.00826E+00 -3.77429E-02
    9126.009    128.096   6.000  9.68621E-01  1.00787E+00 -3.92459E-02
