# # comment:                                                     FEFF 9.9.1  
# # Source:
# # Structure
# # Reduced
# # space
# # abc:
# # angles:
# # sites:
# # POT  SCF 100  7.0000   0, screened core-hole, AFOLP (folp(0)= 1.150)
# # Abs   Z=29 Rmt= 1.243 Rnm= 1.318 K  shell
# # Pot 1 Z=73 Rmt= 1.317 Rnm= 1.461
# # Pot 2 Z=22 Rmt= 1.301 Rnm= 1.429
# # Pot 3 Z=29 Rmt= 1.242 Rnm= 1.317
# # Pot 4 Z= 8 Rmt= 0.998 Rnm= 1.092
# # Gam_ch=1.729E+00 H-L exch Vi= 0.000E+00 Vr= 0.000E+00
# # Mu=-8.368E+00eV kf=2.219E+00 Vint=-1.751E+01eV Rs_int= 1.634
# FMS rfms= 9.0000
# # PATH  Rmax=-1.000,  Keep_limit= 0.00, Heap_limit 0.00  Pwcrit= 2.50%
#  S02=0.950  Temp=   0.00  Debye_temp=   0.00  Global_sig2= 0.00000
#  Energy zero shift, vr, vi    0.00000E+00   0.00000E+00
#  Curved wave amplitude ratio filter   4.000%
#     file         sig2 tot  cw amp ratio   deg  nlegs   reff  inp sig2
#     0/   0 paths used
#  xsedge+ 50, used to normalize mu           2.4686E-04
#  -----------------------------------------------------------------------
#  omega    e    k    mu    mu0     chi     @#
    8984.261    -12.178  -1.000  3.88115E-02  5.22261E-02 -1.34146E-02
    8984.560    -11.879  -0.960  4.08314E-02  5.59885E-02 -1.51570E-02
    8984.846    -11.592  -0.920  4.29926E-02  6.01676E-02 -1.71750E-02
    8985.121    -11.318  -0.880  4.53077E-02  6.48247E-02 -1.95170E-02
    8985.383    -11.056  -0.840  4.77906E-02  7.00312E-02 -2.22406E-02
    8985.633    -10.806  -0.800  5.04569E-02  7.58697E-02 -2.54128E-02
    8985.870    -10.568  -0.760  5.33232E-02  8.24351E-02 -2.91119E-02
    8986.096    -10.343  -0.720  5.64074E-02  8.98346E-02 -3.34271E-02
    8986.309    -10.129  -0.680  5.97283E-02  9.81861E-02 -3.84579E-02
    8986.510     -9.928  -0.640  6.33037E-02  1.07614E-01 -4.43107E-02
    8986.699     -9.739  -0.600  6.71497E-02  1.18242E-01 -5.10920E-02
    8986.876     -9.562  -0.560  7.12765E-02  1.30172E-01 -5.88959E-02
    8987.041     -9.398  -0.520  7.56843E-02  1.43469E-01 -6.77844E-02
    8987.193     -9.245  -0.480  8.03566E-02  1.58116E-01 -7.77596E-02
    8987.333     -9.105  -0.440  8.52537E-02  1.73987E-01 -8.87331E-02
    8987.461     -8.977  -0.400  9.03059E-02  1.90804E-01 -1.00498E-01
    8987.577     -8.861  -0.360  9.54120E-02  2.08134E-01 -1.12722E-01
    8987.681     -8.758  -0.320  1.00444E-01  2.25413E-01 -1.24969E-01
    8987.772     -8.666  -0.280  1.05260E-01  2.42016E-01 -1.36756E-01
    8987.852     -8.587  -0.240  1.09717E-01  2.57340E-01 -1.47623E-01
    8987.919     -8.520  -0.200  1.13690E-01  2.70882E-01 -1.57192E-01
    8987.974     -8.465  -0.160  1.17073E-01  2.82272E-01 -1.65200E-01
    8988.016     -8.423  -0.120  1.19787E-01  2.91276E-01 -1.71489E-01
    8988.047     -8.392  -0.080  1.21776E-01  2.97762E-01 -1.75986E-01
    8988.071     -8.368   0.000  1.23418E-01  3.02973E-01 -1.79555E-01
    8988.126     -8.313   0.120  1.27085E-01  3.14725E-01 -1.87640E-01
    8988.169     -8.270   0.160  1.29936E-01  3.23861E-01 -1.93925E-01
    8988.223     -8.215   0.200  1.33650E-01  3.35528E-01 -2.01877E-01
    8988.290     -8.148   0.240  1.38219E-01  3.49549E-01 -2.11330E-01
    8988.370     -8.069   0.280  1.43640E-01  3.65643E-01 -2.22004E-01
    8988.461     -7.978   0.320  1.49970E-01  3.83421E-01 -2.33451E-01
    8988.565     -7.874   0.360  1.57154E-01  4.02354E-01 -2.45200E-01
    8988.681     -7.758   0.400  1.65140E-01  4.21899E-01 -2.56759E-01
    8988.809     -7.630   0.440  1.73891E-01  4.41522E-01 -2.67631E-01
    8988.949     -7.490   0.480  1.83444E-01  4.60884E-01 -2.77439E-01
    8989.101     -7.337   0.520  1.93973E-01  4.79719E-01 -2.85747E-01
    8989.266     -7.173   0.560  2.05753E-01  4.97878E-01 -2.92125E-01
    8989.443     -6.996   0.600  2.19240E-01  5.15369E-01 -2.96129E-01
    8989.632     -6.807   0.640  2.34584E-01  5.32229E-01 -2.97644E-01
    8989.833     -6.606   0.680  2.51478E-01  5.48548E-01 -2.97070E-01
    8990.046     -6.393   0.720  2.69679E-01  5.64390E-01 -2.94710E-01
    8990.272     -6.167   0.760  2.90430E-01  5.79856E-01 -2.89426E-01
    8990.509     -5.929   0.800  3.17138E-01  5.95039E-01 -2.77901E-01
    8990.759     -5.679   0.840  3.53885E-01  6.09981E-01 -2.56096E-01
    8991.021     -5.417   0.880  4.02203E-01  6.24731E-01 -2.22528E-01
    8991.296     -5.143   0.920  4.58955E-01  6.39363E-01 -1.80408E-01
    8991.582     -4.856   0.960  5.20937E-01  6.53859E-01 -1.32922E-01
    8991.881     -4.558   1.000  5.93212E-01  6.68255E-01 -7.50428E-02
    8992.192     -4.247   1.040  6.83241E-01  6.82555E-01  6.86053E-04
    8992.515     -3.924   1.080  7.78230E-01  6.96755E-01  8.14749E-02
    8992.850     -3.588   1.120  8.36414E-01  7.10867E-01  1.25547E-01
    8993.198     -3.241   1.160  8.31924E-01  7.24838E-01  1.07086E-01
    8993.557     -2.881   1.200  7.86437E-01  7.38669E-01  4.77684E-02
    8993.929     -2.509   1.240  7.27063E-01  7.52339E-01 -2.52760E-02
    8994.313     -2.125   1.280  6.68320E-01  7.65824E-01 -9.75034E-02
    8994.710     -1.729   1.320  6.26718E-01  7.79098E-01 -1.52380E-01
    8995.118     -1.321   1.360  6.15862E-01  7.92156E-01 -1.76293E-01
    8995.539     -0.900   1.400  6.32387E-01  8.04948E-01 -1.72561E-01
    8995.971     -0.467   1.440  6.65542E-01  8.17446E-01 -1.51904E-01
    8996.416     -0.022   1.480  7.17462E-01  8.29641E-01 -1.12179E-01
    8996.874      0.435   1.520  7.76265E-01  8.41505E-01 -6.52400E-02
    8997.343      0.904   1.560  8.20931E-01  8.53008E-01 -3.20778E-02
    8997.825      1.386   1.600  8.54278E-01  8.64143E-01 -9.86502E-03
    8998.318      1.880   1.640  8.87169E-01  8.74864E-01  1.23048E-02
    8998.824      2.386   1.680  9.22313E-01  8.85204E-01  3.71089E-02
    8999.342      2.904   1.720  9.49520E-01  8.95117E-01  5.44031E-02
    8999.873      3.434   1.760  9.57720E-01  9.04577E-01  5.31430E-02
    9000.415      3.977   1.800  9.53617E-01  9.13624E-01  3.99933E-02
    9000.970      4.531   1.840  9.51584E-01  9.22193E-01  2.93907E-02
    9001.537      5.098   1.880  9.76699E-01  9.30324E-01  4.63756E-02
    9002.116      5.677   1.920  1.05040E+00  9.37995E-01  1.12404E-01
    9002.707      6.269   1.960  1.15894E+00  9.45208E-01  2.13728E-01
    9003.311      6.872   2.000  1.24500E+00  9.51964E-01  2.93032E-01
    9003.927      7.488   2.040  1.27025E+00  9.58266E-01  3.11985E-01
    9004.555      8.116   2.080  1.26627E+00  9.64118E-01  3.02153E-01
    9005.195      8.756   2.120  1.25762E+00  9.69545E-01  2.88073E-01
    9005.847      9.408   2.160  1.23542E+00  9.74551E-01  2.60870E-01
    9006.511     10.073   2.200  1.19432E+00  9.79144E-01  2.15180E-01
    9007.188     10.749   2.240  1.15370E+00  9.83329E-01  1.70369E-01
    9007.877     11.438   2.280  1.13889E+00  9.87112E-01  1.51782E-01
    9008.578     12.139   2.320  1.16056E+00  9.90521E-01  1.70039E-01
    9009.291     12.852   2.360  1.21411E+00  9.93585E-01  2.20521E-01
    9010.017     13.578   2.400  1.27253E+00  9.96292E-01  2.76239E-01
    9010.754     14.315   2.440  1.28508E+00  9.98690E-01  2.86387E-01
    9011.504     15.065   2.480  1.22203E+00  1.00075E+00  2.21278E-01
    9012.266     15.827   2.520  1.12059E+00  1.00253E+00  1.18059E-01
    9013.040     16.601   2.560  1.03426E+00  1.00404E+00  3.02192E-02
    9013.827     17.388   2.600  9.84432E-01  1.00527E+00 -2.08359E-02
    9014.625     18.186   2.640  9.68689E-01  1.00627E+00 -3.75821E-02
    9015.436     18.997   2.680  9.62794E-01  1.00704E+00 -4.42446E-02
    9016.259     19.820   2.720  9.60361E-01  1.00760E+00 -4.72384E-02
    9017.094     20.655   2.760  9.61755E-01  1.00798E+00 -4.62243E-02
    9017.941     21.503   2.800  9.65459E-01  1.00817E+00 -4.27094E-02
    9018.801     22.362   2.840  9.67879E-01  1.00819E+00 -4.03157E-02
    9019.673     23.234   2.880  9.65120E-01  1.00808E+00 -4.29634E-02
    9020.556     24.118   2.920  9.55709E-01  1.00782E+00 -5.21142E-02
    9021.453     25.014   2.960  9.41127E-01  1.00746E+00 -6.63354E-02
    9022.361     25.922   3.000  9.23952E-01  1.00699E+00 -8.30343E-02
    9023.281     26.843   3.040  9.06020E-01  1.00642E+00 -1.00403E-01
    9024.214     27.775   3.080  8.88537E-01  1.00578E+00 -1.17241E-01
    9025.159     28.720   3.120  8.72749E-01  1.00506E+00 -1.32308E-01
    9026.116     29.677   3.160  8.59882E-01  1.00429E+00 -1.44404E-01
    9027.085     30.647   3.200  8.51057E-01  1.00347E+00 -1.52415E-01
    9028.067     31.628   3.240  8.47040E-01  1.00264E+00 -1.55600E-01
    9029.060     32.622   3.280  8.47423E-01  1.00175E+00 -1.54327E-01
    9030.066     33.628   3.320  8.51558E-01  1.00085E+00 -1.49293E-01
    9031.084     34.646   3.360  8.59006E-01  9.99947E-01 -1.40942E-01
    9032.114     35.676   3.400  8.69544E-01  9.99042E-01 -1.29498E-01
    9033.157     36.718   3.440  8.82752E-01  9.98159E-01 -1.15406E-01
    9034.211     37.773   3.480  8.98161E-01  9.97259E-01 -9.90985E-02
    9035.278     38.840   3.520  9.15332E-01  9.96388E-01 -8.10556E-02
    9036.357     39.919   3.560  9.33688E-01  9.95546E-01 -6.18584E-02
    9037.448     41.010   3.600  9.52714E-01  9.94717E-01 -4.20023E-02
    9038.552     42.113   3.640  9.72025E-01  9.93922E-01 -2.18970E-02
    9039.667     43.229   3.680  9.90899E-01  9.93165E-01 -2.26594E-03
    9040.795     44.356   3.720  1.00806E+00  9.92448E-01  1.56134E-02
    9041.935     45.496   3.760  1.02192E+00  9.91772E-01  3.01504E-02
    9043.087     46.649   3.800  1.03108E+00  9.91159E-01  3.99229E-02
    9044.252     47.813   3.840  1.03475E+00  9.90568E-01  4.41859E-02
    9045.428     48.989   3.880  1.03318E+00  9.90042E-01  4.31372E-02
    9046.617     50.178   3.920  1.02726E+00  9.89559E-01  3.76988E-02
    9047.818     51.379   3.960  1.01848E+00  9.89121E-01  2.93560E-02
    9049.031     52.592   4.000  1.00895E+00  9.88751E-01  2.01958E-02
    9050.256     53.817   4.040  1.00115E+00  9.88426E-01  1.27279E-02
    9051.494     55.055   4.080  9.97626E-01  9.88148E-01  9.47813E-03
    9052.743     56.305   4.120  1.00043E+00  9.87936E-01  1.24924E-02
    9054.005     57.566   4.160  1.01046E+00  9.87770E-01  2.26937E-02
    9055.279     58.840   4.200  1.02706E+00  9.87649E-01  3.94111E-02
    9056.565     60.127   4.240  1.04784E+00  9.87594E-01  6.02416E-02
    9057.864     61.425   4.280  1.06911E+00  9.87584E-01  8.15275E-02
    9059.174     62.736   4.320  1.08703E+00  9.87616E-01  9.94102E-02
    9060.497     64.059   4.360  1.09851E+00  9.87691E-01  1.10824E-01
    9061.832     65.394   4.400  1.10186E+00  9.87807E-01  1.14053E-01
    9063.180     66.741   4.440  1.09696E+00  9.87985E-01  1.08980E-01
    9064.539     68.100   4.480  1.08509E+00  9.88184E-01  9.69108E-02
    9065.911     69.472   4.520  1.06874E+00  9.88442E-01  8.02936E-02
    9067.294     70.856   4.560  1.05096E+00  9.88716E-01  6.22408E-02
    9068.690     72.252   4.600  1.03470E+00  9.89025E-01  4.56802E-02
    9070.098     73.660   4.640  1.02210E+00  9.89368E-01  3.27335E-02
    9071.519     75.080   4.680  1.01409E+00  9.89722E-01  2.43681E-02
    9072.951     76.513   4.720  1.01043E+00  9.90109E-01  2.03203E-02
    9074.396     77.957   4.760  1.00989E+00  9.90527E-01  1.93620E-02
    9075.853     79.414   4.800  1.01071E+00  9.90953E-01  1.97567E-02
    9077.322     80.884   4.840  1.01109E+00  9.91385E-01  1.97005E-02
    9078.804     82.365   4.880  1.00971E+00  9.91844E-01  1.78636E-02
    9080.297     83.858   4.920  1.00598E+00  9.92306E-01  1.36777E-02
    9081.803     85.364   4.960  9.99992E-01  9.92769E-01  7.22231E-03
    9083.321     86.882   5.000  9.92034E-01  9.93234E-01 -1.19950E-03
    9084.851     88.412   5.040  9.82153E-01  9.93698E-01 -1.15453E-02
    9086.393     89.954   5.080  9.70300E-01  9.94181E-01 -2.38814E-02
    9087.947     91.509   5.120  9.56521E-01  9.94617E-01 -3.80966E-02
    9089.514     93.075   5.160  9.41420E-01  9.95068E-01 -5.36481E-02
    9091.093     94.654   5.200  9.26059E-01  9.95490E-01 -6.94312E-02
    9092.684     96.245   5.240  9.11943E-01  9.95904E-01 -8.39603E-02
    9094.287     97.849   5.280  9.00602E-01  9.96287E-01 -9.56848E-02
    9095.903     99.464   5.320  8.93264E-01  9.96662E-01 -1.03398E-01
    9097.530    101.092   5.360  8.90662E-01  9.97024E-01 -1.06363E-01
    9099.170    102.731   5.400  8.93003E-01  9.97329E-01 -1.04327E-01
    9100.822    104.383   5.440  9.00148E-01  9.97621E-01 -9.74731E-02
    9102.486    106.048   5.480  9.11523E-01  9.97877E-01 -8.63542E-02
    9104.163    107.724   5.520  9.26361E-01  9.98118E-01 -7.17569E-02
    9105.851    109.413   5.560  9.43751E-01  9.98300E-01 -5.45494E-02
    9107.552    111.113   5.600  9.62915E-01  9.98466E-01 -3.55508E-02
    9109.265    112.826   5.640  9.82916E-01  9.98593E-01 -1.56767E-02
    9110.990    114.552   5.680  1.00269E+00  9.98678E-01  4.01212E-03
    9112.728    116.289   5.720  1.02127E+00  9.98700E-01  2.25691E-02
    9114.477    118.038   5.760  1.03815E+00  9.98707E-01  3.94476E-02
    9116.239    119.800   5.800  1.05297E+00  9.98675E-01  5.42961E-02
    9118.013    121.574   5.840  1.06499E+00  9.98604E-01  6.63832E-02
    9119.799    123.360   5.880  1.07272E+00  9.98495E-01  7.42292E-02
    9121.597    125.159   5.920  1.07434E+00  9.98347E-01  7.59951E-02
    9123.408    126.969   5.960  1.06876E+00  9.98157E-01  7.06073E-02
    9125.230    128.792   6.000  1.05634E+00  9.97903E-01  5.84384E-02
