# # comment:                                                     FEFF 9.9.1  
# # Source:
# # Structure
# # Reduced
# # space
# # abc:
# # angles:
# # sites:
# # POT  SCF 100  7.0000   0, screened core-hole, AFOLP (folp(0)= 1.150)
# # Abs   Z=29 Rmt= 1.279 Rnm= 1.335 K  shell
# # Pot 1 Z=25 Rmt= 1.303 Rnm= 1.408
# # Pot 2 Z=29 Rmt= 1.280 Rnm= 1.357
# # Pot 3 Z= 8 Rmt= 1.034 Rnm= 1.107
# # Gam_ch=1.729E+00 H-L exch Vi= 0.000E+00 Vr= 0.000E+00
# # Mu=-1.058E+01eV kf=2.159E+00 Vint=-1.753E+01eV Rs_int= 1.680
# FMS rfms= 9.0000
# # PATH  Rmax=-1.000,  Keep_limit= 0.00, Heap_limit 0.00  Pwcrit= 2.50%
#  S02=0.950  Temp=   0.00  Debye_temp=   0.00  Global_sig2= 0.00000
#  Energy zero shift, vr, vi    0.00000E+00   0.00000E+00
#  Curved wave amplitude ratio filter   4.000%
#     file         sig2 tot  cw amp ratio   deg  nlegs   reff  inp sig2
#     0/   0 paths used
#  xsedge+ 50, used to normalize mu           2.4722E-04
#  -----------------------------------------------------------------------
#  omega    e    k    mu    mu0     chi     @#
    8984.669    -14.386  -1.000  3.07859E-02  4.78708E-02 -1.70849E-02
    8984.968    -14.088  -0.960  3.21270E-02  5.11533E-02 -1.90263E-02
    8985.254    -13.801  -0.920  3.35573E-02  5.47836E-02 -2.12263E-02
    8985.529    -13.527  -0.880  3.50881E-02  5.88114E-02 -2.37233E-02
    8985.791    -13.265  -0.840  3.67328E-02  6.32942E-02 -2.65614E-02
    8986.041    -13.015  -0.800  3.85072E-02  6.82987E-02 -2.97915E-02
    8986.279    -12.777  -0.760  4.04300E-02  7.39010E-02 -3.34710E-02
    8986.504    -12.551  -0.720  4.25225E-02  8.01870E-02 -3.76645E-02
    8986.717    -12.338  -0.680  4.48088E-02  8.72508E-02 -4.24420E-02
    8986.919    -12.137  -0.640  4.73148E-02  9.51916E-02 -4.78768E-02
    8987.108    -11.948  -0.600  5.00663E-02  1.04106E-01 -5.40401E-02
    8987.284    -11.771  -0.560  5.30855E-02  1.14077E-01 -6.09915E-02
    8987.449    -11.607  -0.520  5.63859E-02  1.25151E-01 -6.87652E-02
    8987.601    -11.454  -0.480  5.99644E-02  1.37315E-01 -7.73506E-02
    8987.742    -11.314  -0.440  6.37927E-02  1.50463E-01 -8.66701E-02
    8987.870    -11.186  -0.400  6.78093E-02  1.64370E-01 -9.65606E-02
    8987.985    -11.070  -0.360  7.19171E-02  1.78685E-01 -1.06768E-01
    8988.089    -10.967  -0.320  7.59887E-02  1.92952E-01 -1.16963E-01
    8988.181    -10.875  -0.280  7.98813E-02  2.06663E-01 -1.26781E-01
    8988.260    -10.796  -0.240  8.34573E-02  2.19327E-01 -1.35870E-01
    8988.327    -10.729  -0.200  8.66019E-02  2.30531E-01 -1.43929E-01
    8988.382    -10.674  -0.160  8.92338E-02  2.39968E-01 -1.50734E-01
    8988.424    -10.631  -0.120  9.13055E-02  2.47438E-01 -1.56133E-01
    8988.455    -10.601  -0.080  9.27945E-02  2.52827E-01 -1.60032E-01
    8988.479    -10.576   0.000  9.39932E-02  2.57161E-01 -1.63168E-01
    8988.534    -10.522   0.120  9.66104E-02  2.66942E-01 -1.70332E-01
    8988.577    -10.479   0.160  9.86011E-02  2.74565E-01 -1.75964E-01
    8988.632    -10.424   0.200  1.01069E-01  2.84321E-01 -1.83252E-01
    8988.699    -10.357   0.240  1.03932E-01  2.96099E-01 -1.92167E-01
    8988.778    -10.278   0.280  1.07023E-01  3.09718E-01 -2.02695E-01
    8988.869    -10.186   0.320  1.10079E-01  3.24834E-01 -2.14755E-01
    8988.973    -10.083   0.360  1.12878E-01  3.41066E-01 -2.28188E-01
    8989.089     -9.967   0.400  1.15206E-01  3.58026E-01 -2.42820E-01
    8989.217     -9.839   0.440  1.17016E-01  3.75340E-01 -2.58324E-01
    8989.357     -9.699   0.480  1.18489E-01  3.92681E-01 -2.74193E-01
    8989.509     -9.546   0.520  1.19998E-01  4.09884E-01 -2.89887E-01
    8989.674     -9.382   0.560  1.21948E-01  4.26845E-01 -3.04896E-01
    8989.851     -9.205   0.600  1.24538E-01  4.43535E-01 -3.18997E-01
    8990.040     -9.016   0.640  1.27693E-01  4.60018E-01 -3.32325E-01
    8990.241     -8.815   0.680  1.31016E-01  4.76339E-01 -3.45323E-01
    8990.454     -8.601   0.720  1.34031E-01  4.92533E-01 -3.58502E-01
    8990.680     -8.376   0.760  1.36667E-01  5.08676E-01 -3.72009E-01
    8990.918     -8.138   0.800  1.39424E-01  5.24815E-01 -3.85391E-01
    8991.168     -7.888   0.840  1.43199E-01  5.41004E-01 -3.97805E-01
    8991.430     -7.626   0.880  1.48719E-01  5.57266E-01 -4.08547E-01
    8991.704     -7.352   0.920  1.56358E-01  5.73577E-01 -4.17219E-01
    8991.990     -7.065   0.960  1.66743E-01  5.89982E-01 -4.23239E-01
    8992.289     -6.766   1.000  1.81036E-01  6.06453E-01 -4.25417E-01
    8992.600     -6.455   1.040  2.00777E-01  6.22981E-01 -4.22203E-01
    8992.923     -6.132   1.080  2.26848E-01  6.39548E-01 -4.12700E-01
    8993.258     -5.797   1.120  2.58118E-01  6.56110E-01 -3.97992E-01
    8993.606     -5.450   1.160  2.91048E-01  6.72641E-01 -3.81593E-01
    8993.966     -5.090   1.200  3.22896E-01  6.89109E-01 -3.66213E-01
    8994.337     -4.718   1.240  3.55326E-01  7.05462E-01 -3.50135E-01
    8994.721     -4.334   1.280  3.90437E-01  7.21684E-01 -3.31248E-01
    8995.118     -3.938   1.320  4.28619E-01  7.37699E-01 -3.09080E-01
    8995.526     -3.529   1.360  4.74359E-01  7.53490E-01 -2.79131E-01
    8995.947     -3.109   1.400  5.34072E-01  7.68999E-01 -2.34927E-01
    8996.380     -2.676   1.440  6.06746E-01  7.84209E-01 -1.77462E-01
    8996.825     -2.231   1.480  6.85004E-01  7.99061E-01 -1.14057E-01
    8997.282     -1.774   1.520  7.63212E-01  8.13499E-01 -5.02873E-02
    8997.751     -1.304   1.560  8.31092E-01  8.27530E-01  3.56189E-03
    8998.233     -0.823   1.600  8.71581E-01  8.41118E-01  3.04630E-02
    8998.727     -0.329   1.640  8.84803E-01  8.54189E-01  3.06133E-02
    8999.233      0.177   1.680  9.04940E-01  8.66775E-01  3.81651E-02
    8999.751      0.695   1.720  9.70975E-01  8.78826E-01  9.21498E-02
    9000.281      1.225   1.760  1.09218E+00  8.90331E-01  2.01851E-01
    9000.824      1.768   1.800  1.24662E+00  9.01287E-01  3.45330E-01
    9001.378      2.323   1.840  1.41116E+00  9.11669E-01  4.99490E-01
    9001.945      2.890   1.880  1.58171E+00  9.21453E-01  6.60261E-01
    9002.524      3.469   1.920  1.75572E+00  9.30681E-01  8.25034E-01
    9003.116      4.060   1.960  1.88656E+00  9.39331E-01  9.47232E-01
    9003.719      4.664   2.000  1.88941E+00  9.47407E-01  9.42000E-01
    9004.335      5.279   2.040  1.77833E+00  9.54912E-01  8.23421E-01
    9004.963      5.907   2.080  1.60478E+00  9.61850E-01  6.42929E-01
    9005.603      6.547   2.120  1.38454E+00  9.68248E-01  4.16295E-01
    9006.255      7.199   2.160  1.17252E+00  9.74113E-01  1.98408E-01
    9006.920      7.864   2.200  1.02028E+00  9.79454E-01  4.08239E-02
    9007.596      8.541   2.240  9.33197E-01  9.84300E-01 -5.11024E-02
    9008.285      9.229   2.280  8.92816E-01  9.88680E-01 -9.58636E-02
    9008.986      9.930   2.320  8.79068E-01  9.92585E-01 -1.13517E-01
    9009.699     10.644   2.360  8.80830E-01  9.96045E-01 -1.15215E-01
    9010.425     11.369   2.400  8.85529E-01  9.99090E-01 -1.13562E-01
    9011.162     12.107   2.440  8.80227E-01  1.00173E+00 -1.21507E-01
    9011.912     12.857   2.480  8.76975E-01  1.00403E+00 -1.27052E-01
    9012.674     13.619   2.520  9.02873E-01  1.00594E+00 -1.03068E-01
    9013.448     14.393   2.560  9.57939E-01  1.00755E+00 -4.96066E-02
    9014.235     15.179   2.600  9.97968E-01  1.00884E+00 -1.08682E-02
    9015.033     15.978   2.640  1.00679E+00  1.00986E+00 -3.06926E-03
    9015.844     16.788   2.680  1.00114E+00  1.01059E+00 -9.45435E-03
    9016.667     17.611   2.720  9.88682E-01  1.01110E+00 -2.24140E-02
    9017.502     18.447   2.760  9.69606E-01  1.01139E+00 -4.17846E-02
    9018.349     19.294   2.800  9.44510E-01  1.01148E+00 -6.69712E-02
    9019.209     20.153   2.840  9.16636E-01  1.01138E+00 -9.47420E-02
    9020.081     21.025   2.880  8.89250E-01  1.01111E+00 -1.21860E-01
    9020.965     21.909   2.920  8.64989E-01  1.01071E+00 -1.45719E-01
    9021.861     22.805   2.960  8.45229E-01  1.01016E+00 -1.64931E-01
    9022.769     23.713   3.000  8.30298E-01  1.00951E+00 -1.79214E-01
    9023.690     24.634   3.040  8.20038E-01  1.00878E+00 -1.88738E-01
    9024.622     25.567   3.080  8.14354E-01  1.00794E+00 -1.93582E-01
    9025.567     26.512   3.120  8.12234E-01  1.00704E+00 -1.94808E-01
    9026.524     27.469   3.160  8.13263E-01  1.00610E+00 -1.92837E-01
    9027.493     28.438   3.200  8.17643E-01  1.00511E+00 -1.87470E-01
    9028.475     29.419   3.240  8.25740E-01  1.00407E+00 -1.78327E-01
    9029.469     30.413   3.280  8.37777E-01  1.00303E+00 -1.65254E-01
    9030.474     31.419   3.320  8.53357E-01  1.00197E+00 -1.48610E-01
    9031.492     32.437   3.360  8.71501E-01  1.00090E+00 -1.29397E-01
    9032.523     33.467   3.400  8.90732E-01  9.99830E-01 -1.09098E-01
    9033.565     34.509   3.440  9.10641E-01  9.98768E-01 -8.81266E-02
    9034.620     35.564   3.480  9.31695E-01  9.97734E-01 -6.60390E-02
    9035.686     36.631   3.520  9.54506E-01  9.96733E-01 -4.22277E-02
    9036.765     37.710   3.560  9.79332E-01  9.95747E-01 -1.64153E-02
    9037.857     38.801   3.600  1.00589E+00  9.94818E-01  1.10763E-02
    9038.960     39.904   3.640  1.03325E+00  9.93909E-01  3.93447E-02
    9040.076     41.020   3.680  1.06020E+00  9.93062E-01  6.71358E-02
    9041.203     42.148   3.720  1.08527E+00  9.92236E-01  9.30342E-02
    9042.343     43.288   3.760  1.10717E+00  9.91475E-01  1.15694E-01
    9043.495     44.440   3.800  1.12507E+00  9.90782E-01  1.34283E-01
    9044.660     45.604   3.840  1.13940E+00  9.90115E-01  1.49290E-01
    9045.836     46.781   3.880  1.15159E+00  9.89536E-01  1.62058E-01
    9047.025     47.969   3.920  1.16284E+00  9.88986E-01  1.73853E-01
    9048.226     49.170   3.960  1.17332E+00  9.88504E-01  1.84820E-01
    9049.439     50.383   4.000  1.18160E+00  9.88092E-01  1.93511E-01
    9050.664     51.609   4.040  1.18480E+00  9.87730E-01  1.97067E-01
    9051.902     52.846   4.080  1.17978E+00  9.87437E-01  1.92347E-01
    9053.151     54.096   4.120  1.16483E+00  9.87192E-01  1.77636E-01
    9054.413     55.358   4.160  1.14051E+00  9.86994E-01  1.53517E-01
    9055.687     56.632   4.200  1.10973E+00  9.86863E-01  1.22864E-01
    9056.974     57.918   4.240  1.07643E+00  9.86780E-01  8.96515E-02
    9058.272     59.216   4.280  1.04434E+00  9.86765E-01  5.75711E-02
    9059.583     60.527   4.320  1.01574E+00  9.86794E-01  2.89489E-02
    9060.905     61.850   4.360  9.91295E-01  9.86866E-01  4.42849E-03
    9062.241     63.185   4.400  9.70352E-01  9.86981E-01 -1.66287E-02
    9063.588     64.532   4.440  9.51854E-01  9.87137E-01 -3.52835E-02
    9064.947     65.892   4.480  9.35219E-01  9.87356E-01 -5.21367E-02
    9066.319     67.263   4.520  9.20498E-01  9.87593E-01 -6.70956E-02
    9067.702     68.647   4.560  9.08154E-01  9.87890E-01 -7.97358E-02
    9069.098     70.043   4.600  8.98462E-01  9.88202E-01 -8.97403E-02
    9070.507     71.451   4.640  8.91616E-01  9.88546E-01 -9.69298E-02
    9071.927     72.871   4.680  8.87683E-01  9.88901E-01 -1.01217E-01
    9073.360     74.304   4.720  8.86584E-01  9.89288E-01 -1.02704E-01
    9074.804     75.749   4.760  8.88146E-01  9.89707E-01 -1.01561E-01
    9076.261     77.206   4.800  8.92262E-01  9.90133E-01 -9.78708E-02
    9077.730     78.675   4.840  8.98900E-01  9.90564E-01 -9.16636E-02
    9079.212     80.156   4.880  9.07808E-01  9.91021E-01 -8.32135E-02
    9080.705     81.650   4.920  9.18192E-01  9.91481E-01 -7.32888E-02
    9082.211     83.155   4.960  9.29246E-01  9.91939E-01 -6.26939E-02
    9083.729     84.673   5.000  9.40476E-01  9.92375E-01 -5.18987E-02
    9085.259     86.203   5.040  9.51850E-01  9.92831E-01 -4.09801E-02
    9086.801     87.746   5.080  9.63567E-01  9.93284E-01 -2.97170E-02
    9088.356     89.300   5.120  9.75952E-01  9.93709E-01 -1.77570E-02
    9089.922     90.867   5.160  9.89379E-01  9.94127E-01 -4.74837E-03
    9091.501     92.446   5.200  1.00382E+00  9.94538E-01  9.28559E-03
    9093.092     94.037   5.240  1.01855E+00  9.94916E-01  2.36329E-02
    9094.695     95.640   5.280  1.03214E+00  9.95261E-01  3.68780E-02
    9096.311     97.255   5.320  1.04300E+00  9.95598E-01  4.74026E-02
    9097.939     98.883   5.360  1.04994E+00  9.95923E-01  5.40196E-02
    9099.578    100.523   5.400  1.05212E+00  9.96212E-01  5.59108E-02
    9101.230    102.175   5.440  1.04879E+00  9.96442E-01  5.23480E-02
    9102.895    103.839   5.480  1.03971E+00  9.96678E-01  4.30358E-02
    9104.571    105.515   5.520  1.02550E+00  9.96854E-01  2.86498E-02
    9106.260    107.204   5.560  1.00736E+00  9.96992E-01  1.03687E-02
    9107.960    108.905   5.600  9.86215E-01  9.97113E-01 -1.08988E-02
    9109.673    110.618   5.640  9.62918E-01  9.97173E-01 -3.42545E-02
    9111.398    112.343   5.680  9.39473E-01  9.97216E-01 -5.77427E-02
    9113.136    114.080   5.720  9.19219E-01  9.97220E-01 -7.80006E-02
    9114.885    115.830   5.760  9.05798E-01  9.97161E-01 -9.13626E-02
    9116.647    117.591   5.800  9.01743E-01  9.97086E-01 -9.53424E-02
    9118.421    119.365   5.840  9.07699E-01  9.96973E-01 -8.92743E-02
    9120.207    121.152   5.880  9.22957E-01  9.96820E-01 -7.38635E-02
    9122.005    122.950   5.920  9.46163E-01  9.96605E-01 -5.04420E-02
    9123.816    124.760   5.960  9.75384E-01  9.96376E-01 -2.09921E-02
    9125.639    126.583   6.000  1.00811E+00  9.96087E-01  1.20197E-02
