# # comment:                                                     FEFF 9.9.1  
# # Source:
# # Structure
# # Reduced
# # space
# # abc:
# # angles:
# # sites:
# # POT  SCF 100  7.0000   0, screened core-hole, AFOLP (folp(0)= 1.150)
# # Abs   Z=29 Rmt= 1.240 Rnm= 1.305 K  shell
# # Pot 1 Z=30 Rmt= 1.439 Rnm= 1.499
# # Pot 2 Z=29 Rmt= 1.240 Rnm= 1.305
# # Pot 3 Z= 8 Rmt= 1.024 Rnm= 1.103
# # Gam_ch=1.729E+00 H-L exch Vi= 0.000E+00 Vr= 0.000E+00
# # Mu=-8.137E+00eV kf=2.146E+00 Vint=-1.594E+01eV Rs_int= 1.690
# FMS rfms= 9.0000
# # PATH  Rmax=-1.000,  Keep_limit= 0.00, Heap_limit 0.00  Pwcrit= 2.50%
#  S02=0.950  Temp=   0.00  Debye_temp=   0.00  Global_sig2= 0.00000
#  Energy zero shift, vr, vi    0.00000E+00   0.00000E+00
#  Curved wave amplitude ratio filter   4.000%
#     file         sig2 tot  cw amp ratio   deg  nlegs   reff  inp sig2
#     0/   0 paths used
#  xsedge+ 50, used to normalize mu           2.4489E-04
#  -----------------------------------------------------------------------
#  omega    e    k    mu    mu0     chi     @#
    8984.013    -11.947  -1.000  3.08917E-02  5.42263E-02 -2.33346E-02
    8984.312    -11.649  -0.960  3.21210E-02  5.81558E-02 -2.60348E-02
    8984.599    -11.362  -0.920  3.34131E-02  6.25197E-02 -2.91066E-02
    8984.873    -11.088  -0.880  3.47741E-02  6.73813E-02 -3.26072E-02
    8985.135    -10.826  -0.840  3.62111E-02  7.28145E-02 -3.66034E-02
    8985.385    -10.576  -0.800  3.77327E-02  7.89048E-02 -4.11721E-02
    8985.623    -10.338  -0.760  3.93490E-02  8.57502E-02 -4.64013E-02
    8985.848    -10.112  -0.720  4.10716E-02  9.34613E-02 -5.23897E-02
    8986.062     -9.899  -0.680  4.29139E-02  1.02160E-01 -5.92459E-02
    8986.263     -9.698  -0.640  4.48899E-02  1.11974E-01 -6.70841E-02
    8986.452     -9.509  -0.600  4.70134E-02  1.23030E-01 -7.60164E-02
    8986.629     -9.332  -0.560  4.92950E-02  1.35434E-01 -8.61393E-02
    8986.793     -9.167  -0.520  5.17388E-02  1.49251E-01 -9.75122E-02
    8986.946     -9.015  -0.480  5.43360E-02  1.64465E-01 -1.10129E-01
    8987.086     -8.875  -0.440  5.70591E-02  1.80943E-01 -1.23883E-01
    8987.214     -8.747  -0.400  5.98569E-02  1.98399E-01 -1.38542E-01
    8987.330     -8.631  -0.360  6.26545E-02  2.16386E-01 -1.53731E-01
    8987.433     -8.527  -0.320  6.53604E-02  2.34321E-01 -1.68961E-01
    8987.525     -8.436  -0.280  6.78808E-02  2.51558E-01 -1.83677E-01
    8987.604     -8.357  -0.240  7.01354E-02  2.67474E-01 -1.97338E-01
    8987.671     -8.290  -0.200  7.20687E-02  2.81545E-01 -2.09476E-01
    8987.726     -8.235  -0.160  7.36517E-02  2.93387E-01 -2.19735E-01
    8987.769     -8.192  -0.120  7.48760E-02  3.02752E-01 -2.27876E-01
    8987.799     -8.162  -0.080  7.57437E-02  3.09501E-01 -2.33757E-01
    8987.823     -8.137   0.000  7.64328E-02  3.14925E-01 -2.38492E-01
    8987.878     -8.082   0.120  7.80329E-02  3.27161E-01 -2.49128E-01
    8987.921     -8.040   0.160  7.92091E-02  3.36685E-01 -2.57476E-01
    8987.976     -7.985   0.200  8.06628E-02  3.48860E-01 -2.68197E-01
    8988.043     -7.918   0.240  8.23036E-02  3.63509E-01 -2.81206E-01
    8988.122     -7.839   0.280  8.40710E-02  3.80356E-01 -2.96285E-01
    8988.214     -7.747   0.320  8.58902E-02  3.98990E-01 -3.13099E-01
    8988.317     -7.643   0.360  8.77196E-02  4.18899E-01 -3.31180E-01
    8988.433     -7.528   0.400  8.95483E-02  4.39519E-01 -3.49970E-01
    8988.561     -7.400   0.440  9.14343E-02  4.60348E-01 -3.68914E-01
    8988.701     -7.259   0.480  9.34709E-02  4.80979E-01 -3.87508E-01
    8988.854     -7.107   0.520  9.58555E-02  5.01164E-01 -4.05309E-01
    8989.018     -6.942   0.560  9.87563E-02  5.20747E-01 -4.21991E-01
    8989.195     -6.766   0.600  1.02367E-01  5.39713E-01 -4.37346E-01
    8989.384     -6.577   0.640  1.06888E-01  5.58094E-01 -4.51206E-01
    8989.585     -6.376   0.680  1.12498E-01  5.75974E-01 -4.63475E-01
    8989.799     -6.162   0.720  1.19353E-01  5.93411E-01 -4.74058E-01
    8990.024     -5.937   0.760  1.27571E-01  6.10480E-01 -4.82909E-01
    8990.262     -5.699   0.800  1.37073E-01  6.27248E-01 -4.90175E-01
    8990.512     -5.449   0.840  1.47478E-01  6.43747E-01 -4.96269E-01
    8990.774     -5.187   0.880  1.58182E-01  6.60038E-01 -5.01855E-01
    8991.048     -4.912   0.920  1.68661E-01  6.76147E-01 -5.07486E-01
    8991.335     -4.626   0.960  1.78986E-01  6.92048E-01 -5.13062E-01
    8991.633     -4.327   1.000  1.90507E-01  7.07766E-01 -5.17259E-01
    8991.944     -4.016   1.040  2.05768E-01  7.23276E-01 -5.17508E-01
    8992.267     -3.693   1.080  2.27809E-01  7.38570E-01 -5.10761E-01
    8992.603     -3.358   1.120  2.58981E-01  7.53630E-01 -4.94649E-01
    8992.950     -3.011   1.160  2.99388E-01  7.68415E-01 -4.69027E-01
    8993.310     -2.651   1.200  3.45528E-01  7.82901E-01 -4.37373E-01
    8993.682     -2.279   1.240  3.89440E-01  7.97040E-01 -4.07600E-01
    8994.066     -1.895   1.280  4.24301E-01  8.10848E-01 -3.86547E-01
    8994.462     -1.499   1.320  4.55212E-01  8.24253E-01 -3.69041E-01
    8994.870     -1.090   1.360  4.92675E-01  8.37226E-01 -3.44551E-01
    8995.291     -0.670   1.400  5.41584E-01  8.49758E-01 -3.08174E-01
    8995.724     -0.237   1.440  6.05584E-01  8.61822E-01 -2.56238E-01
    8996.169      0.208   1.480  6.86566E-01  8.73409E-01 -1.86843E-01
    8996.626      0.665   1.520  7.77329E-01  8.84454E-01 -1.07124E-01
    8997.095      1.135   1.560  8.69118E-01  8.94992E-01 -2.58735E-02
    8997.577      1.616   1.600  9.60621E-01  9.04999E-01  5.56219E-02
    8998.071      2.110   1.640  1.05484E+00  9.14453E-01  1.40391E-01
    8998.577      2.616   1.680  1.15441E+00  9.23353E-01  2.31061E-01
    8999.095      3.134   1.720  1.26412E+00  9.31721E-01  3.32398E-01
    8999.625      3.665   1.760  1.38772E+00  9.39519E-01  4.48205E-01
    9000.168      4.207   1.800  1.50119E+00  9.46791E-01  5.54399E-01
    9000.722      4.762   1.840  1.55824E+00  9.53543E-01  6.04694E-01
    9001.289      5.329   1.880  1.56718E+00  9.59741E-01  6.07438E-01
    9001.869      5.908   1.920  1.58256E+00  9.65452E-01  6.17104E-01
    9002.460      6.499   1.960  1.61072E+00  9.70666E-01  6.40051E-01
    9003.063      7.103   2.000  1.61656E+00  9.75411E-01  6.41144E-01
    9003.679      7.718   2.040  1.57951E+00  9.79699E-01  5.99816E-01
    9004.307      8.346   2.080  1.50850E+00  9.83539E-01  5.24958E-01
    9004.947      8.986   2.120  1.42359E+00  9.86983E-01  4.36610E-01
    9005.599      9.639   2.160  1.34350E+00  9.90021E-01  3.53481E-01
    9006.264     10.303   2.200  1.28519E+00  9.92685E-01  2.92507E-01
    9006.940     10.980   2.240  1.23857E+00  9.94987E-01  2.43586E-01
    9007.629     11.669   2.280  1.18735E+00  9.96980E-01  1.90370E-01
    9008.330     12.370   2.320  1.12762E+00  9.98677E-01  1.28938E-01
    9009.044     13.083   2.360  1.06590E+00  1.00009E+00  6.58140E-02
    9009.769     13.808   2.400  1.00838E+00  1.00125E+00  7.13485E-03
    9010.507     14.546   2.440  9.61053E-01  1.00216E+00 -4.11066E-02
    9011.256     15.296   2.480  9.27529E-01  1.00286E+00 -7.53307E-02
    9012.018     16.058   2.520  9.03612E-01  1.00336E+00 -9.97456E-02
    9012.793     16.832   2.560  8.89601E-01  1.00368E+00 -1.14083E-01
    9013.579     17.618   2.600  8.86994E-01  1.00387E+00 -1.16876E-01
    9014.377     18.417   2.640  8.91792E-01  1.00390E+00 -1.12111E-01
    9015.188     19.228   2.680  8.99372E-01  1.00381E+00 -1.04440E-01
    9016.011     20.051   2.720  9.05846E-01  1.00360E+00 -9.77568E-02
    9016.846     20.886   2.760  9.09438E-01  1.00333E+00 -9.38909E-02
    9017.694     21.733   2.800  9.09797E-01  1.00297E+00 -9.31766E-02
    9018.553     22.593   2.840  9.07333E-01  1.00255E+00 -9.52120E-02
    9019.425     23.464   2.880  9.02769E-01  1.00207E+00 -9.92997E-02
    9020.309     24.348   2.920  8.96285E-01  1.00155E+00 -1.05268E-01
    9021.205     25.244   2.960  8.87973E-01  1.00102E+00 -1.13048E-01
    9022.113     26.153   3.000  8.78077E-01  1.00046E+00 -1.22383E-01
    9023.034     27.073   3.040  8.67422E-01  9.99895E-01 -1.32472E-01
    9023.966     28.006   3.080  8.57644E-01  9.99349E-01 -1.41705E-01
    9024.911     28.951   3.120  8.49854E-01  9.98786E-01 -1.48932E-01
    9025.868     29.908   3.160  8.44747E-01  9.98251E-01 -1.53504E-01
    9026.838     30.877   3.200  8.42781E-01  9.97747E-01 -1.54967E-01
    9027.819     31.858   3.240  8.44003E-01  9.97254E-01 -1.53251E-01
    9028.813     32.852   3.280  8.48092E-01  9.96799E-01 -1.48706E-01
    9029.819     33.858   3.320  8.54880E-01  9.96403E-01 -1.41523E-01
    9030.837     34.876   3.360  8.64360E-01  9.96024E-01 -1.31664E-01
    9031.867     35.906   3.400  8.76434E-01  9.95685E-01 -1.19251E-01
    9032.909     36.949   3.440  8.90945E-01  9.95390E-01 -1.04445E-01
    9033.964     38.003   3.480  9.07622E-01  9.95160E-01 -8.75372E-02
    9035.031     39.070   3.520  9.25804E-01  9.94974E-01 -6.91702E-02
    9036.110     40.149   3.560  9.44650E-01  9.94834E-01 -5.01845E-02
    9037.201     41.240   3.600  9.63469E-01  9.94761E-01 -3.12918E-02
    9038.304     42.344   3.640  9.81625E-01  9.94732E-01 -1.31071E-02
    9039.420     43.459   3.680  9.98728E-01  9.94748E-01  3.98015E-03
    9040.547     44.587   3.720  1.01483E+00  9.94809E-01  2.00236E-02
    9041.687     45.727   3.760  1.03040E+00  9.94935E-01  3.54608E-02
    9042.840     46.879   3.800  1.04578E+00  9.95107E-01  5.06719E-02
    9044.004     48.043   3.840  1.06109E+00  9.95321E-01  6.57727E-02
    9045.180     49.220   3.880  1.07601E+00  9.95578E-01  8.04314E-02
    9046.369     50.408   3.920  1.08980E+00  9.95898E-01  9.38984E-02
    9047.570     51.609   3.960  1.10153E+00  9.96238E-01  1.05289E-01
    9048.783     52.822   4.000  1.11063E+00  9.96638E-01  1.13989E-01
    9050.008     54.048   4.040  1.11679E+00  9.97053E-01  1.19735E-01
    9051.246     55.285   4.080  1.12007E+00  9.97505E-01  1.22569E-01
    9052.496     56.535   4.120  1.12086E+00  9.97993E-01  1.22862E-01
    9053.757     57.797   4.160  1.11970E+00  9.98516E-01  1.21188E-01
    9055.032     59.071   4.200  1.11705E+00  9.99048E-01  1.18000E-01
    9056.318     60.357   4.240  1.11318E+00  9.99610E-01  1.13572E-01
    9057.616     61.656   4.280  1.10806E+00  1.00018E+00  1.07879E-01
    9058.927     62.966   4.320  1.10121E+00  1.00078E+00  1.00437E-01
    9060.250     64.289   4.360  1.09187E+00  1.00136E+00  9.05129E-02
    9061.585     65.624   4.400  1.07966E+00  1.00196E+00  7.76965E-02
    9062.932     66.971   4.440  1.06488E+00  1.00259E+00  6.22886E-02
    9064.291     68.331   4.480  1.04831E+00  1.00319E+00  4.51201E-02
    9065.663     69.702   4.520  1.03095E+00  1.00379E+00  2.71586E-02
    9067.047     71.086   4.560  1.01349E+00  1.00439E+00  9.10165E-03
    9068.443     72.482   4.600  9.96220E-01  1.00495E+00 -8.73288E-03
    9069.851     73.890   4.640  9.79369E-01  1.00551E+00 -2.61436E-02
    9071.271     75.311   4.680  9.63342E-01  1.00606E+00 -4.27211E-02
    9072.704     76.743   4.720  9.48886E-01  1.00658E+00 -5.76952E-02
    9074.149     78.188   4.760  9.36972E-01  1.00709E+00 -7.01168E-02
    9075.605     79.645   4.800  9.28319E-01  1.00756E+00 -7.92441E-02
    9077.075     81.114   4.840  9.23280E-01  1.00802E+00 -8.47425E-02
    9078.556     82.595   4.880  9.21849E-01  1.00842E+00 -8.65736E-02
    9080.049     84.089   4.920  9.23889E-01  1.00881E+00 -8.49169E-02
    9081.555     85.594   4.960  9.29215E-01  1.00915E+00 -7.99356E-02
    9083.073     87.112   5.000  9.37672E-01  1.00946E+00 -7.17863E-02
    9084.603     88.642   5.040  9.48887E-01  1.00975E+00 -6.08595E-02
    9086.145     90.185   5.080  9.62107E-01  1.00997E+00 -4.78636E-02
    9087.700     91.739   5.120  9.76471E-01  1.01015E+00 -3.36808E-02
    9089.267     93.306   5.160  9.91084E-01  1.01029E+00 -1.92065E-02
    9090.845     94.885   5.200  1.00501E+00  1.01039E+00 -5.37642E-03
    9092.436     96.476   5.240  1.01728E+00  1.01044E+00  6.83516E-03
    9094.040     98.079   5.280  1.02703E+00  1.01045E+00  1.65795E-02
    9095.655     99.694   5.320  1.03369E+00  1.01042E+00  2.32639E-02
    9097.283    101.322   5.360  1.03696E+00  1.01035E+00  2.66138E-02
    9098.923    102.962   5.400  1.03687E+00  1.01023E+00  2.66363E-02
    9100.575    104.614   5.440  1.03371E+00  1.01005E+00  2.36540E-02
    9102.239    106.278   5.480  1.02811E+00  1.00985E+00  1.82525E-02
    9103.915    107.954   5.520  1.02085E+00  1.00962E+00  1.12330E-02
    9105.604    109.643   5.560  1.01285E+00  1.00934E+00  3.51601E-03
    9107.305    111.344   5.600  1.00495E+00  1.00902E+00 -4.07011E-03
    9109.017    113.057   5.640  9.97603E-01  1.00866E+00 -1.10560E-02
    9110.743    114.782   5.680  9.90782E-01  1.00826E+00 -1.74806E-02
    9112.480    116.519   5.720  9.84092E-01  1.00783E+00 -2.37375E-02
    9114.230    118.269   5.760  9.77201E-01  1.00738E+00 -3.01805E-02
    9115.991    120.031   5.800  9.70120E-01  1.00688E+00 -3.67553E-02
    9117.765    121.805   5.840  9.63508E-01  1.00636E+00 -4.28543E-02
    9119.551    123.591   5.880  9.58371E-01  1.00585E+00 -4.74756E-02
    9121.350    125.389   5.920  9.55751E-01  1.00530E+00 -4.95540E-02
    9123.160    127.199   5.960  9.56586E-01  1.00476E+00 -4.81788E-02
    9124.983    129.022   6.000  9.62005E-01  1.00418E+00 -4.21759E-02
