# # comment:                                                     FEFF 9.9.1  
# # Source:
# # Structure
# # Reduced
# # space
# # abc:
# # angles:
# # sites:
# # POT  SCF 100  7.0000   0, screened core-hole, AFOLP (folp(0)= 1.150)
# # Abs   Z=29 Rmt= 1.237 Rnm= 1.302 K  shell
# # Pot 1 Z=24 Rmt= 1.024 Rnm= 1.246
# # Pot 2 Z=29 Rmt= 1.225 Rnm= 1.291
# # Pot 3 Z= 8 Rmt= 0.942 Rnm= 1.092
# # Gam_ch=1.729E+00 H-L exch Vi= 0.000E+00 Vr= 0.000E+00
# # Mu=-9.177E+00eV kf=2.318E+00 Vint=-1.719E+01eV Rs_int= 1.565
# FMS rfms= 9.0000
# # PATH  Rmax=-1.000,  Keep_limit= 0.00, Heap_limit 0.00  Pwcrit= 2.50%
#  S02=0.950  Temp=   0.00  Debye_temp=   0.00  Global_sig2= 0.00000
#  Energy zero shift, vr, vi    0.00000E+00   0.00000E+00
#  Curved wave amplitude ratio filter   4.000%
#     file         sig2 tot  cw amp ratio   deg  nlegs   reff  inp sig2
#     0/   0 paths used
#  xsedge+ 50, used to normalize mu           2.4812E-04
#  -----------------------------------------------------------------------
#  omega    e    k    mu    mu0     chi     @#
    8983.847    -12.987  -1.000  3.11175E-02  4.86275E-02 -1.75101E-02
    8984.146    -12.689  -0.960  3.26448E-02  5.20232E-02 -1.93784E-02
    8984.433    -12.402  -0.920  3.43010E-02  5.57857E-02 -2.14848E-02
    8984.707    -12.128  -0.880  3.61043E-02  5.99683E-02 -2.38641E-02
    8984.969    -11.866  -0.840  3.80760E-02  6.46328E-02 -2.65568E-02
    8985.219    -11.616  -0.800  4.02410E-02  6.98506E-02 -2.96096E-02
    8985.457    -11.378  -0.760  4.26280E-02  7.57037E-02 -3.30757E-02
    8985.682    -11.152  -0.720  4.52694E-02  8.22846E-02 -3.70152E-02
    8985.896    -10.939  -0.680  4.82011E-02  8.96949E-02 -4.14938E-02
    8986.097    -10.738  -0.640  5.14610E-02  9.80418E-02 -4.65808E-02
    8986.286    -10.549  -0.600  5.50864E-02  1.07430E-01 -5.23437E-02
    8986.463    -10.372  -0.560  5.91092E-02  1.17949E-01 -5.88401E-02
    8986.627    -10.207  -0.520  6.35482E-02  1.29652E-01 -6.61035E-02
    8986.780    -10.055  -0.480  6.83988E-02  1.42524E-01 -7.41249E-02
    8986.920     -9.915  -0.440  7.36214E-02  1.56453E-01 -8.28317E-02
    8987.048     -9.787  -0.400  7.91303E-02  1.71200E-01 -9.20693E-02
    8987.164     -9.671  -0.360  8.47900E-02  1.86387E-01 -1.01597E-01
    8987.267     -9.567  -0.320  9.04231E-02  2.01525E-01 -1.11102E-01
    8987.359     -9.476  -0.280  9.58306E-02  2.16072E-01 -1.20241E-01
    8987.438     -9.397  -0.240  1.00819E-01  2.29503E-01 -1.28684E-01
    8987.505     -9.330  -0.200  1.05225E-01  2.41379E-01 -1.36153E-01
    8987.560     -9.275  -0.160  1.08932E-01  2.51374E-01 -1.42443E-01
    8987.603     -9.232  -0.120  1.11865E-01  2.59281E-01 -1.47417E-01
    8987.633     -9.202  -0.080  1.13986E-01  2.64981E-01 -1.50995E-01
    8987.657     -9.177   0.000  1.15713E-01  2.69564E-01 -1.53851E-01
    8987.712     -9.122   0.120  1.19399E-01  2.79902E-01 -1.60504E-01
    8987.755     -9.080   0.160  1.22253E-01  2.87939E-01 -1.65687E-01
    8987.810     -9.025   0.200  1.25859E-01  2.98225E-01 -1.72365E-01
    8987.877     -8.958   0.240  1.30133E-01  3.10610E-01 -1.80477E-01
    8987.956     -8.879   0.280  1.34961E-01  3.24866E-01 -1.89904E-01
    8988.048     -8.787   0.320  1.40240E-01  3.40671E-01 -2.00431E-01
    8988.151     -8.683   0.360  1.45809E-01  3.57580E-01 -2.11771E-01
    8988.267     -8.568   0.400  1.51639E-01  3.75117E-01 -2.23478E-01
    8988.395     -8.440   0.440  1.57858E-01  3.92870E-01 -2.35012E-01
    8988.535     -8.299   0.480  1.64915E-01  4.10537E-01 -2.45623E-01
    8988.688     -8.147   0.520  1.73369E-01  4.27894E-01 -2.54525E-01
    8988.852     -7.982   0.560  1.83752E-01  4.44827E-01 -2.61075E-01
    8989.029     -7.806   0.600  1.96163E-01  4.61311E-01 -2.65149E-01
    8989.218     -7.617   0.640  2.09661E-01  4.77431E-01 -2.67769E-01
    8989.419     -7.416   0.680  2.21685E-01  4.93202E-01 -2.71517E-01
    8989.633     -7.202   0.720  2.28683E-01  5.08713E-01 -2.80030E-01
    8989.858     -6.977   0.760  2.27816E-01  5.24047E-01 -2.96232E-01
    8990.096     -6.739   0.800  2.18931E-01  5.39242E-01 -3.20311E-01
    8990.346     -6.489   0.840  2.05024E-01  5.54384E-01 -3.49360E-01
    8990.608     -6.227   0.880  1.90290E-01  5.69489E-01 -3.79199E-01
    8990.882     -5.952   0.920  1.78008E-01  5.84578E-01 -4.06570E-01
    8991.169     -5.666   0.960  1.69514E-01  5.99686E-01 -4.30173E-01
    8991.467     -5.367   1.000  1.64881E-01  6.14796E-01 -4.49915E-01
    8991.778     -5.056   1.040  1.63851E-01  6.29907E-01 -4.66055E-01
    8992.101     -4.733   1.080  1.66216E-01  6.45026E-01 -4.78810E-01
    8992.437     -4.398   1.120  1.71932E-01  6.60119E-01 -4.88187E-01
    8992.784     -4.051   1.160  1.81118E-01  6.75187E-01 -4.94069E-01
    8993.144     -3.691   1.200  1.93745E-01  6.90186E-01 -4.96441E-01
    8993.516     -3.319   1.240  2.09764E-01  7.05069E-01 -4.95305E-01
    8993.900     -2.935   1.280  2.29442E-01  7.19849E-01 -4.90407E-01
    8994.296     -2.539   1.320  2.53410E-01  7.34475E-01 -4.81065E-01
    8994.704     -2.130   1.360  2.82739E-01  7.48914E-01 -4.66175E-01
    8995.125     -1.710   1.400  3.18623E-01  7.63114E-01 -4.44490E-01
    8995.558     -1.277   1.440  3.61153E-01  7.77083E-01 -4.15930E-01
    8996.003     -0.832   1.480  4.08940E-01  7.90769E-01 -3.81829E-01
    8996.460     -0.375   1.520  4.63108E-01  8.04119E-01 -3.41010E-01
    8996.929      0.095   1.560  5.30635E-01  8.17140E-01 -2.86505E-01
    8997.411      0.576   1.600  6.22237E-01  8.29800E-01 -2.07563E-01
    8997.905      1.070   1.640  7.44497E-01  8.42049E-01 -9.75524E-02
    8998.411      1.576   1.680  8.92957E-01  8.53900E-01  3.90578E-02
    8998.929      2.094   1.720  1.05475E+00  8.65321E-01  1.89429E-01
    8999.459      2.625   1.760  1.21626E+00  8.76286E-01  3.39974E-01
    9000.002      3.167   1.800  1.36202E+00  8.86768E-01  4.75256E-01
    9000.557      3.722   1.840  1.47074E+00  8.96805E-01  5.73935E-01
    9001.123      4.289   1.880  1.52894E+00  9.06330E-01  6.22609E-01
    9001.703      4.868   1.920  1.55463E+00  9.15383E-01  6.39246E-01
    9002.294      5.459   1.960  1.57638E+00  9.23942E-01  6.52442E-01
    9002.897      6.063   2.000  1.59430E+00  9.32009E-01  6.62287E-01
    9003.513      6.678   2.040  1.58583E+00  9.39582E-01  6.46249E-01
    9004.141      7.306   2.080  1.53878E+00  9.46664E-01  5.92114E-01
    9004.781      7.946   2.120  1.46253E+00  9.53263E-01  5.09267E-01
    9005.433      8.599   2.160  1.36827E+00  9.59399E-01  4.08874E-01
    9006.098      9.263   2.200  1.26626E+00  9.65057E-01  3.01205E-01
    9006.774      9.940   2.240  1.17335E+00  9.70287E-01  2.03058E-01
    9007.463     10.629   2.280  1.10316E+00  9.75074E-01  1.28083E-01
    9008.164     11.330   2.320  1.06084E+00  9.79423E-01  8.14189E-02
    9008.878     12.043   2.360  1.04330E+00  9.83386E-01  5.99153E-02
    9009.603     12.768   2.400  1.04239E+00  9.86928E-01  5.54645E-02
    9010.341     13.506   2.440  1.04962E+00  9.90120E-01  5.94989E-02
    9011.090     14.256   2.480  1.06151E+00  9.92948E-01  6.85649E-02
    9011.852     15.018   2.520  1.07883E+00  9.95444E-01  8.33859E-02
    9012.627     15.792   2.560  1.10123E+00  9.97596E-01  1.03638E-01
    9013.413     16.578   2.600  1.12334E+00  9.99473E-01  1.23870E-01
    9014.211     17.377   2.640  1.13036E+00  1.00105E+00  1.29315E-01
    9015.022     18.188   2.680  1.10796E+00  1.00236E+00  1.05598E-01
    9015.845     19.011   2.720  1.05446E+00  1.00341E+00  5.10538E-02
    9016.680     19.846   2.760  9.94636E-01  1.00424E+00 -9.59953E-03
    9017.528     20.693   2.800  9.45389E-01  1.00486E+00 -5.94670E-02
    9018.387     21.553   2.840  9.07794E-01  1.00528E+00 -9.74829E-02
    9019.259     22.424   2.880  8.79465E-01  1.00553E+00 -1.26061E-01
    9020.143     23.308   2.920  8.57432E-01  1.00559E+00 -1.48158E-01
    9021.039     24.204   2.960  8.40179E-01  1.00552E+00 -1.65338E-01
    9021.947     25.113   3.000  8.26800E-01  1.00532E+00 -1.78516E-01
    9022.868     26.033   3.040  8.16860E-01  1.00499E+00 -1.88133E-01
    9023.800     26.966   3.080  8.10477E-01  1.00456E+00 -1.94079E-01
    9024.745     27.911   3.120  8.07060E-01  1.00403E+00 -1.96971E-01
    9025.702     28.868   3.160  8.06264E-01  1.00342E+00 -1.97158E-01
    9026.672     29.837   3.200  8.08128E-01  1.00274E+00 -1.94610E-01
    9027.653     30.818   3.240  8.12864E-01  1.00200E+00 -1.89141E-01
    9028.647     31.812   3.280  8.20538E-01  1.00123E+00 -1.80689E-01
    9029.653     32.818   3.320  8.31262E-01  1.00041E+00 -1.69147E-01
    9030.671     33.836   3.360  8.45167E-01  9.99577E-01 -1.54410E-01
    9031.701     34.866   3.400  8.61421E-01  9.98714E-01 -1.37294E-01
    9032.743     35.909   3.440  8.79096E-01  9.97823E-01 -1.18727E-01
    9033.798     36.963   3.480  8.96999E-01  9.96948E-01 -9.99485E-02
    9034.865     38.030   3.520  9.13706E-01  9.96053E-01 -8.23464E-02
    9035.944     39.109   3.560  9.28148E-01  9.95183E-01 -6.70350E-02
    9037.035     40.200   3.600  9.39850E-01  9.94340E-01 -5.44896E-02
    9038.138     41.304   3.640  9.49005E-01  9.93506E-01 -4.45018E-02
    9039.254     42.419   3.680  9.56383E-01  9.92684E-01 -3.63011E-02
    9040.382     43.547   3.720  9.63164E-01  9.91915E-01 -2.87516E-02
    9041.521     44.687   3.760  9.70438E-01  9.91162E-01 -2.07242E-02
    9042.674     45.839   3.800  9.79009E-01  9.90446E-01 -1.14372E-02
    9043.838     47.003   3.840  9.89471E-01  9.89767E-01 -2.96522E-04
    9045.014     48.180   3.880  1.00217E+00  9.89128E-01  1.30454E-02
    9046.203     49.368   3.920  1.01713E+00  9.88531E-01  2.85975E-02
    9047.404     50.569   3.960  1.03398E+00  9.87997E-01  4.59796E-02
    9048.617     51.783   4.000  1.05197E+00  9.87486E-01  6.44844E-02
    9049.842     53.008   4.040  1.07028E+00  9.87037E-01  8.32414E-02
    9051.080     54.245   4.080  1.08779E+00  9.86632E-01  1.01163E-01
    9052.330     55.495   4.120  1.10344E+00  9.86271E-01  1.17166E-01
    9053.591     56.757   4.160  1.11622E+00  9.85977E-01  1.30248E-01
    9054.866     58.031   4.200  1.12522E+00  9.85726E-01  1.39492E-01
    9056.152     59.317   4.240  1.12973E+00  9.85517E-01  1.44208E-01
    9057.450     60.616   4.280  1.12957E+00  9.85350E-01  1.44220E-01
    9058.761     61.926   4.320  1.12494E+00  9.85226E-01  1.39715E-01
    9060.084     63.249   4.360  1.11639E+00  9.85165E-01  1.31229E-01
    9061.419     64.584   4.400  1.10476E+00  9.85125E-01  1.19639E-01
    9062.766     65.931   4.440  1.09105E+00  9.85146E-01  1.05907E-01
    9064.125     67.291   4.480  1.07612E+00  9.85207E-01  9.09140E-02
    9065.497     68.662   4.520  1.06065E+00  9.85285E-01  7.53652E-02
    9066.881     70.046   4.560  1.04517E+00  9.85421E-01  5.97495E-02
    9068.277     71.442   4.600  1.02987E+00  9.85572E-01  4.42971E-02
    9069.685     72.850   4.640  1.01487E+00  9.85759E-01  2.91126E-02
    9071.105     74.271   4.680  1.00027E+00  9.85982E-01  1.42864E-02
    9072.538     75.703   4.720  9.86183E-01  9.86239E-01 -5.54498E-05
    9073.983     77.148   4.760  9.72875E-01  9.86505E-01 -1.36297E-02
    9075.439     78.605   4.800  9.60729E-01  9.86803E-01 -2.60732E-02
    9076.909     80.074   4.840  9.50076E-01  9.87109E-01 -3.70327E-02
    9078.390     81.555   4.880  9.41276E-01  9.87443E-01 -4.61674E-02
    9079.883     83.049   4.920  9.34507E-01  9.87782E-01 -5.32748E-02
    9081.389     84.554   4.960  9.29848E-01  9.88124E-01 -5.82761E-02
    9082.907     86.072   5.000  9.27277E-01  9.88468E-01 -6.11912E-02
    9084.437     87.602   5.040  9.26676E-01  9.88835E-01 -6.21592E-02
    9085.979     89.145   5.080  9.27763E-01  9.89182E-01 -6.14183E-02
    9087.534     90.699   5.120  9.30199E-01  9.89548E-01 -5.93493E-02
    9089.101     92.266   5.160  9.33553E-01  9.89889E-01 -5.63363E-02
    9090.679     93.845   5.200  9.37576E-01  9.90227E-01 -5.26506E-02
    9092.270     95.436   5.240  9.42119E-01  9.90561E-01 -4.84421E-02
    9093.874     97.039   5.280  9.47047E-01  9.90888E-01 -4.38411E-02
    9095.489     98.654   5.320  9.52043E-01  9.91187E-01 -3.91439E-02
    9097.117    100.282   5.360  9.56731E-01  9.91478E-01 -3.47471E-02
    9098.757    101.922   5.400  9.60697E-01  9.91759E-01 -3.10627E-02
    9100.409    103.574   5.440  9.63675E-01  9.91986E-01 -2.83112E-02
    9102.073    105.238   5.480  9.65717E-01  9.92222E-01 -2.65052E-02
    9103.749    106.914   5.520  9.66852E-01  9.92404E-01 -2.55523E-02
    9105.438    108.603   5.560  9.67173E-01  9.92574E-01 -2.54008E-02
    9107.139    110.304   5.600  9.66735E-01  9.92731E-01 -2.59954E-02
    9108.851    112.017   5.640  9.65631E-01  9.92830E-01 -2.71987E-02
    9110.577    113.742   5.680  9.64201E-01  9.92914E-01 -2.87131E-02
    9112.314    115.479   5.720  9.62877E-01  9.92961E-01 -3.00840E-02
    9114.064    117.229   5.760  9.62223E-01  9.92970E-01 -3.07465E-02
    9115.825    118.991   5.800  9.62766E-01  9.92940E-01 -3.01740E-02
    9117.599    120.765   5.840  9.64833E-01  9.92875E-01 -2.80419E-02
    9119.385    122.551   5.880  9.68418E-01  9.92799E-01 -2.43811E-02
    9121.184    124.349   5.920  9.73060E-01  9.92686E-01 -1.96253E-02
    9122.994    126.159   5.960  9.78056E-01  9.92508E-01 -1.44512E-02
    9124.817    127.982   6.000  9.83077E-01  9.92296E-01 -9.21913E-03
