# # comment:                                                     FEFF 9.9.1  
# # Source:
# # Structure
# # Reduced
# # space
# # abc:
# # angles:
# # sites:
# # POT  SCF 100  7.0000   0, screened core-hole, AFOLP (folp(0)= 1.150)
# # Abs   Z=29 Rmt= 1.230 Rnm= 1.340 K  shell
# # Pot 1 Z=11 Rmt= 1.512 Rnm= 1.571
# # Pot 2 Z=29 Rmt= 1.209 Rnm= 1.339
# # Pot 3 Z= 8 Rmt= 0.980 Rnm= 1.094
# # Gam_ch=1.729E+00 H-L exch Vi= 0.000E+00 Vr= 0.000E+00
# # Mu=-6.618E+00eV kf=2.038E+00 Vint=-1.474E+01eV Rs_int= 1.780
# FMS rfms= 9.0000
# # PATH  Rmax=-1.000,  Keep_limit= 0.00, Heap_limit 0.00  Pwcrit= 2.50%
#  S02=0.950  Temp=   0.00  Debye_temp=   0.00  Global_sig2= 0.00000
#  Energy zero shift, vr, vi    0.00000E+00   0.00000E+00
#  Curved wave amplitude ratio filter   4.000%
#     file         sig2 tot  cw amp ratio   deg  nlegs   reff  inp sig2
#     0/   0 paths used
#  xsedge+ 50, used to normalize mu           2.4169E-04
#  -----------------------------------------------------------------------
#  omega    e    k    mu    mu0     chi     @#
    8984.060    -10.428  -1.000  5.02570E-02  6.19563E-02 -1.16993E-02
    8984.358    -10.129  -0.960  5.36407E-02  6.66323E-02 -1.29916E-02
    8984.645     -9.843  -0.920  5.73828E-02  7.18388E-02 -1.44560E-02
    8984.919     -9.568  -0.880  6.15362E-02  7.76546E-02 -1.61184E-02
    8985.181     -9.306  -0.840  6.61625E-02  8.41711E-02 -1.80086E-02
    8985.431     -9.056  -0.800  7.13336E-02  9.14943E-02 -2.01608E-02
    8985.669     -8.818  -0.760  7.71323E-02  9.97460E-02 -2.26137E-02
    8985.895     -8.593  -0.720  8.36528E-02  1.09064E-01 -2.54110E-02
    8986.108     -8.380  -0.680  9.09991E-02  1.19599E-01 -2.85997E-02
    8986.309     -8.178  -0.640  9.92820E-02  1.31511E-01 -3.22293E-02
    8986.498     -7.989  -0.600  1.08611E-01  1.44958E-01 -3.63475E-02
    8986.675     -7.813  -0.560  1.19079E-01  1.60074E-01 -4.09944E-02
    8986.839     -7.648  -0.520  1.30745E-01  1.76938E-01 -4.61929E-02
    8986.992     -7.496  -0.480  1.43598E-01  1.95534E-01 -5.19355E-02
    8987.132     -7.355  -0.440  1.57529E-01  2.15699E-01 -5.81695E-02
    8987.260     -7.227  -0.400  1.72296E-01  2.37080E-01 -6.47847E-02
    8987.376     -7.112  -0.360  1.87516E-01  2.59125E-01 -7.16096E-02
    8987.480     -7.008  -0.320  2.02691E-01  2.81114E-01 -7.84229E-02
    8987.571     -6.916  -0.280  2.17268E-01  3.02248E-01 -8.49795E-02
    8987.650     -6.837  -0.240  2.30714E-01  3.21758E-01 -9.10439E-02
    8987.717     -6.770  -0.200  2.42584E-01  3.39002E-01 -9.64173E-02
    8987.772     -6.715  -0.160  2.52556E-01  3.53507E-01 -1.00951E-01
    8987.815     -6.673  -0.120  2.60428E-01  3.64973E-01 -1.04545E-01
    8987.845     -6.642  -0.080  2.66091E-01  3.73234E-01 -1.07142E-01
    8987.870     -6.618   0.000  2.70624E-01  3.79869E-01 -1.09245E-01
    8987.925     -6.563   0.120  2.80690E-01  3.94831E-01 -1.14141E-01
    8987.967     -6.520   0.160  2.88529E-01  4.06462E-01 -1.17934E-01
    8988.022     -6.465   0.200  2.98497E-01  4.21304E-01 -1.22807E-01
    8988.089     -6.398   0.240  3.10394E-01  4.39158E-01 -1.28763E-01
    8988.168     -6.319   0.280  3.23902E-01  4.59666E-01 -1.35764E-01
    8988.260     -6.228   0.320  3.38490E-01  4.82287E-01 -1.43797E-01
    8988.363     -6.124   0.360  3.53489E-01  5.06352E-01 -1.52863E-01
    8988.479     -6.008   0.400  3.68139E-01  5.31169E-01 -1.63030E-01
    8988.607     -5.880   0.440  3.81746E-01  5.56107E-01 -1.74361E-01
    8988.747     -5.740   0.480  3.93760E-01  5.80612E-01 -1.86851E-01
    8988.900     -5.588   0.520  4.04153E-01  6.04389E-01 -2.00236E-01
    8989.064     -5.423   0.560  4.13400E-01  6.27248E-01 -2.13848E-01
    8989.241     -5.246   0.600  4.22451E-01  6.49145E-01 -2.26694E-01
    8989.430     -5.057   0.640  4.32410E-01  6.70121E-01 -2.37712E-01
    8989.631     -4.856   0.680  4.44016E-01  6.90240E-01 -2.46224E-01
    8989.845     -4.643   0.720  4.57501E-01  7.09621E-01 -2.52120E-01
    8990.070     -4.417   0.760  4.72477E-01  7.28321E-01 -2.55844E-01
    8990.308     -4.179   0.800  4.88451E-01  7.46447E-01 -2.57995E-01
    8990.558     -3.929   0.840  5.05267E-01  7.64028E-01 -2.58761E-01
    8990.820     -3.667   0.880  5.23834E-01  7.81119E-01 -2.57286E-01
    8991.094     -3.393   0.920  5.46118E-01  7.97759E-01 -2.51641E-01
    8991.381     -3.107   0.960  5.74198E-01  8.13931E-01 -2.39733E-01
    8991.680     -2.808   1.000  6.09031E-01  8.29670E-01 -2.20638E-01
    8991.991     -2.497   1.040  6.49122E-01  8.44956E-01 -1.95834E-01
    8992.314     -2.174   1.080  6.89831E-01  8.59767E-01 -1.69936E-01
    8992.649     -1.839   1.120  7.24117E-01  8.74092E-01 -1.49975E-01
    8992.996     -1.491   1.160  7.46339E-01  8.87892E-01 -1.41553E-01
    8993.356     -1.131   1.200  7.56457E-01  9.01170E-01 -1.44713E-01
    8993.728     -0.760   1.240  7.59530E-01  9.13887E-01 -1.54357E-01
    8994.112     -0.376   1.280  7.61983E-01  9.25999E-01 -1.64016E-01
    8994.508      0.021   1.320  7.68159E-01  9.37524E-01 -1.69364E-01
    8994.917      0.429   1.360  7.78347E-01  9.48419E-01 -1.70072E-01
    8995.337      0.850   1.400  7.89685E-01  9.58684E-01 -1.69000E-01
    8995.770      1.283   1.440  7.99588E-01  9.68298E-01 -1.68710E-01
    8996.215      1.728   1.480  8.09040E-01  9.77240E-01 -1.68201E-01
    8996.672      2.185   1.520  8.21966E-01  9.85556E-01 -1.63590E-01
    8997.142      2.654   1.560  8.41247E-01  9.93186E-01 -1.51939E-01
    8997.623      3.136   1.600  8.67617E-01  1.00018E+00 -1.32561E-01
    8998.117      3.630   1.640  9.00977E-01  1.00652E+00 -1.05541E-01
    8998.623      4.136   1.680  9.40954E-01  1.01224E+00 -7.12831E-02
    8999.141      4.654   1.720  9.85542E-01  1.01734E+00 -3.18011E-02
    8999.671      5.184   1.760  1.03032E+00  1.02185E+00  8.47809E-03
    9000.214      5.727   1.800  1.07341E+00  1.02578E+00  4.76226E-02
    9000.769      6.281   1.840  1.11530E+00  1.02918E+00  8.61175E-02
    9001.336      6.848   1.880  1.15584E+00  1.03204E+00  1.23798E-01
    9001.915      7.427   1.920  1.19443E+00  1.03440E+00  1.60035E-01
    9002.506      8.019   1.960  1.23114E+00  1.03630E+00  1.94833E-01
    9003.110      8.622   2.000  1.26633E+00  1.03775E+00  2.28584E-01
    9003.725      9.238   2.040  1.29946E+00  1.03880E+00  2.60659E-01
    9004.353      9.866   2.080  1.32847E+00  1.03947E+00  2.88999E-01
    9004.993     10.506   2.120  1.35016E+00  1.03977E+00  3.10392E-01
    9005.646     11.158   2.160  1.35806E+00  1.03977E+00  3.18286E-01
    9006.310     11.823   2.200  1.34441E+00  1.03946E+00  3.04945E-01
    9006.987     12.499   2.240  1.30845E+00  1.03889E+00  2.69559E-01
    9007.675     13.188   2.280  1.25970E+00  1.03808E+00  2.21625E-01
    9008.377     13.889   2.320  1.21207E+00  1.03707E+00  1.74999E-01
    9009.090     14.602   2.360  1.17464E+00  1.03586E+00  1.38784E-01
    9009.815     15.328   2.400  1.14548E+00  1.03450E+00  1.10972E-01
    9010.553     16.065   2.440  1.11769E+00  1.03299E+00  8.46966E-02
    9011.303     16.815   2.480  1.08942E+00  1.03138E+00  5.80337E-02
    9012.065     17.577   2.520  1.06538E+00  1.02966E+00  3.57166E-02
    9012.839     18.351   2.560  1.04629E+00  1.02787E+00  1.84112E-02
    9013.625     19.138   2.600  1.03174E+00  1.02604E+00  5.70336E-03
    9014.424     19.936   2.640  1.02077E+00  1.02416E+00 -3.39046E-03
    9015.235     20.747   2.680  1.01228E+00  1.02225E+00 -9.97196E-03
    9016.057     21.570   2.720  1.00534E+00  1.02033E+00 -1.49897E-02
    9016.893     22.405   2.760  9.99278E-01  1.01844E+00 -1.91603E-02
    9017.740     23.252   2.800  9.93338E-01  1.01655E+00 -2.32118E-02
    9018.599     24.112   2.840  9.87371E-01  1.01467E+00 -2.73028E-02
    9019.471     24.984   2.880  9.81489E-01  1.01286E+00 -3.13705E-02
    9020.355     25.868   2.920  9.75829E-01  1.01109E+00 -3.52615E-02
    9021.251     26.764   2.960  9.70709E-01  1.00939E+00 -3.86830E-02
    9022.160     27.672   3.000  9.66256E-01  1.00777E+00 -4.15132E-02
    9023.080     28.593   3.040  9.62330E-01  1.00620E+00 -4.38718E-02
    9024.013     29.525   3.080  9.58837E-01  1.00471E+00 -4.58775E-02
    9024.958     30.470   3.120  9.55771E-01  1.00333E+00 -4.75621E-02
    9025.915     31.427   3.160  9.53019E-01  1.00202E+00 -4.89984E-02
    9026.884     32.396   3.200  9.50651E-01  1.00083E+00 -5.01787E-02
    9027.865     33.378   3.240  9.48738E-01  9.99712E-01 -5.09740E-02
    9028.859     34.372   3.280  9.47372E-01  9.98706E-01 -5.13342E-02
    9029.865     35.377   3.320  9.46688E-01  9.97814E-01 -5.11263E-02
    9030.883     36.395   3.360  9.46843E-01  9.97016E-01 -5.01728E-02
    9031.913     37.426   3.400  9.47947E-01  9.96334E-01 -4.83865E-02
    9032.956     38.468   3.440  9.49904E-01  9.95767E-01 -4.58630E-02
    9034.010     39.523   3.480  9.52504E-01  9.95293E-01 -4.27891E-02
    9035.077     40.589   3.520  9.55554E-01  9.94933E-01 -3.93796E-02
    9036.156     41.668   3.560  9.58717E-01  9.94667E-01 -3.59500E-02
    9037.247     42.760   3.600  9.61791E-01  9.94515E-01 -3.27244E-02
    9038.350     43.863   3.640  9.64635E-01  9.94477E-01 -2.98421E-02
    9039.466     44.979   3.680  9.67045E-01  9.94529E-01 -2.74848E-02
    9040.594     46.106   3.720  9.68677E-01  9.94670E-01 -2.59933E-02
    9041.734     47.246   3.760  9.69149E-01  9.94921E-01 -2.57721E-02
    9042.886     48.398   3.800  9.68156E-01  9.95259E-01 -2.71027E-02
    9044.050     49.563   3.840  9.65804E-01  9.95681E-01 -2.98773E-02
    9045.227     50.739   3.880  9.62787E-01  9.96186E-01 -3.33994E-02
    9046.415     51.928   3.920  9.60122E-01  9.96774E-01 -3.66517E-02
    9047.616     53.129   3.960  9.58720E-01  9.97460E-01 -3.87397E-02
    9048.829     54.342   4.000  9.59016E-01  9.98182E-01 -3.91653E-02
    9050.055     55.567   4.040  9.61070E-01  9.98999E-01 -3.79295E-02
    9051.292     56.805   4.080  9.64479E-01  9.99867E-01 -3.53873E-02
    9052.542     58.054   4.120  9.68773E-01  1.00078E+00 -3.20105E-02
    9053.804     59.316   4.160  9.73664E-01  1.00177E+00 -2.81029E-02
    9055.078     60.590   4.200  9.79058E-01  1.00279E+00 -2.37365E-02
    9056.364     61.877   4.240  9.85056E-01  1.00386E+00 -1.88061E-02
    9057.662     63.175   4.280  9.91788E-01  1.00494E+00 -1.31553E-02
    9058.973     64.486   4.320  9.99412E-01  1.00608E+00 -6.66996E-03
    9060.296     65.808   4.360  1.00791E+00  1.00723E+00  6.78210E-04
    9061.631     67.144   4.400  1.01727E+00  1.00839E+00  8.88087E-03
    9062.978     68.491   4.440  1.02755E+00  1.00957E+00  1.79881E-02
    9064.338     69.850   4.480  1.03885E+00  1.01073E+00  2.81188E-02
    9065.709     71.222   4.520  1.05126E+00  1.01191E+00  3.93487E-02
    9067.093     72.605   4.560  1.06467E+00  1.01306E+00  5.16074E-02
    9068.489     74.001   4.600  1.07871E+00  1.01423E+00  6.44754E-02
    9069.897     75.410   4.640  1.09243E+00  1.01535E+00  7.70786E-02
    9071.317     76.830   4.680  1.10467E+00  1.01648E+00  8.81977E-02
    9072.750     78.263   4.720  1.11406E+00  1.01755E+00  9.65119E-02
    9074.195     79.707   4.760  1.11949E+00  1.01860E+00  1.00892E-01
    9075.652     81.164   4.800  1.12028E+00  1.01958E+00  1.00701E-01
    9077.121     82.633   4.840  1.11650E+00  1.02055E+00  9.59549E-02
    9078.602     84.115   4.880  1.10875E+00  1.02145E+00  8.73020E-02
    9080.096     85.608   4.920  1.09815E+00  1.02232E+00  7.58282E-02
    9081.601     87.114   4.960  1.08582E+00  1.02310E+00  6.27180E-02
    9083.119     88.632   5.000  1.07288E+00  1.02386E+00  4.90256E-02
    9084.649     90.162   5.040  1.06009E+00  1.02453E+00  3.55563E-02
    9086.192     91.704   5.080  1.04796E+00  1.02513E+00  2.28269E-02
    9087.746     93.259   5.120  1.03670E+00  1.02566E+00  1.10446E-02
    9089.313     94.825   5.160  1.02623E+00  1.02613E+00  1.01024E-04
    9090.892     96.404   5.200  1.01632E+00  1.02654E+00 -1.02252E-02
    9092.483     97.995   5.240  1.00683E+00  1.02686E+00 -2.00232E-02
    9094.086     99.598   5.280  9.97908E-01  1.02711E+00 -2.92042E-02
    9095.701    101.214   5.320  9.89707E-01  1.02726E+00 -3.75559E-02
    9097.329    102.842   5.360  9.82564E-01  1.02736E+00 -4.47927E-02
    9098.969    104.481   5.400  9.76749E-01  1.02737E+00 -5.06238E-02
    9100.621    106.133   5.440  9.72463E-01  1.02733E+00 -5.48691E-02
    9102.285    107.798   5.480  9.69594E-01  1.02719E+00 -5.75962E-02
    9103.961    109.474   5.520  9.67890E-01  1.02699E+00 -5.91029E-02
    9105.650    111.163   5.560  9.66962E-01  1.02672E+00 -5.97579E-02
    9107.351    112.863   5.600  9.66609E-01  1.02639E+00 -5.97854E-02
    9109.064    114.576   5.640  9.66776E-01  1.02599E+00 -5.92167E-02
    9110.789    116.301   5.680  9.67581E-01  1.02552E+00 -5.79359E-02
    9112.526    118.039   5.720  9.69190E-01  1.02499E+00 -5.58034E-02
    9114.276    119.788   5.760  9.71763E-01  1.02442E+00 -5.26609E-02
    9116.038    121.550   5.800  9.75449E-01  1.02379E+00 -4.83374E-02
    9117.811    123.324   5.840  9.80447E-01  1.02311E+00 -4.26595E-02
    9119.598    125.110   5.880  9.86894E-01  1.02239E+00 -3.54951E-02
    9121.396    126.908   5.920  9.94785E-01  1.02164E+00 -2.68543E-02
    9123.206    128.719   5.960  1.00372E+00  1.02086E+00 -1.71396E-02
    9125.029    130.542   6.000  1.01293E+00  1.02001E+00 -7.07839E-03
