# # comment:                                                     FEFF 9.9.1  
# # Source:
# # Structure
# # Reduced
# # space
# # abc:
# # angles:
# # sites:
# # POT  SCF 100  7.0000   0, screened core-hole, AFOLP (folp(0)= 1.150)
# # Abs   Z=29 Rmt= 1.250 Rnm= 1.314 K  shell
# # Pot 1 Z=20 Rmt= 1.631 Rnm= 1.697
# # Pot 2 Z=29 Rmt= 1.250 Rnm= 1.314
# # Pot 3 Z=77 Rmt= 1.320 Rnm= 1.416
# # Pot 4 Z= 8 Rmt= 1.036 Rnm= 1.087
# # Gam_ch=1.729E+00 H-L exch Vi= 0.000E+00 Vr= 0.000E+00
# # Mu=-9.500E+00eV kf=2.082E+00 Vint=-1.967E+01eV Rs_int= 1.742
# FMS rfms= 9.0000
# # PATH  Rmax=-1.000,  Keep_limit= 0.00, Heap_limit 0.00  Pwcrit= 2.50%
#  S02=0.950  Temp=   0.00  Debye_temp=   0.00  Global_sig2= 0.00000
#  Energy zero shift, vr, vi    0.00000E+00   0.00000E+00
#  Curved wave amplitude ratio filter   4.000%
#     file         sig2 tot  cw amp ratio   deg  nlegs   reff  inp sig2
#     0/   0 paths used
#  xsedge+ 50, used to normalize mu           2.4679E-04
#  -----------------------------------------------------------------------
#  omega    e    k    mu    mu0     chi     @#
    8985.741    -13.310  -1.000  4.72704E-02  5.59454E-02 -8.67507E-03
    8986.040    -13.012  -0.960  5.04341E-02  6.00869E-02 -9.65287E-03
    8986.327    -12.725  -0.920  5.39493E-02  6.46966E-02 -1.07473E-02
    8986.601    -12.451  -0.880  5.78730E-02  6.98440E-02 -1.19711E-02
    8986.863    -12.189  -0.840  6.22731E-02  7.56105E-02 -1.33373E-02
    8987.113    -11.939  -0.800  6.72303E-02  8.20900E-02 -1.48597E-02
    8987.351    -11.701  -0.760  7.28391E-02  8.93909E-02 -1.65518E-02
    8987.576    -11.476  -0.720  7.92091E-02  9.76355E-02 -1.84265E-02
    8987.790    -11.262  -0.680  8.64636E-02  1.06959E-01 -2.04951E-02
    8987.991    -11.061  -0.640  9.47362E-02  1.17503E-01 -2.27667E-02
    8988.180    -10.872  -0.600  1.04161E-01  1.29408E-01 -2.52470E-02
    8988.357    -10.695  -0.560  1.14858E-01  1.42795E-01 -2.79376E-02
    8988.521    -10.531  -0.520  1.26900E-01  1.57736E-01 -3.08354E-02
    8988.674    -10.378  -0.480  1.40282E-01  1.74214E-01 -3.39323E-02
    8988.814    -10.238  -0.440  1.54871E-01  1.92087E-01 -3.72159E-02
    8988.942    -10.110  -0.400  1.70371E-01  2.11039E-01 -4.06680E-02
    8989.058     -9.994  -0.360  1.86316E-01  2.30579E-01 -4.42626E-02
    8989.161     -9.891  -0.320  2.02106E-01  2.50066E-01 -4.79591E-02
    8989.253     -9.799  -0.280  2.17094E-01  2.68788E-01 -5.16946E-02
    8989.332     -9.720  -0.240  2.30689E-01  2.86065E-01 -5.53762E-02
    8989.399     -9.653  -0.200  2.42447E-01  3.01326E-01 -5.88789E-02
    8989.454     -9.598  -0.160  2.52104E-01  3.14156E-01 -6.20522E-02
    8989.496     -9.555  -0.120  2.59556E-01  3.24293E-01 -6.47373E-02
    8989.527     -9.525  -0.080  2.64799E-01  3.31592E-01 -6.67934E-02
    8989.551     -9.500   0.000  2.68861E-01  3.37455E-01 -6.85940E-02
    8989.606     -9.446   0.120  2.77550E-01  3.50666E-01 -7.31159E-02
    8989.649     -9.403   0.160  2.84238E-01  3.60911E-01 -7.66730E-02
    8989.704     -9.348   0.200  2.92507E-01  3.73999E-01 -8.14918E-02
    8989.771     -9.281   0.240  3.01892E-01  3.89701E-01 -8.78090E-02
    8989.850     -9.202   0.280  3.11850E-01  4.07725E-01 -9.58750E-02
    8989.941     -9.110   0.320  3.21571E-01  4.27530E-01 -1.05959E-01
    8990.045     -9.007   0.360  3.30317E-01  4.48563E-01 -1.18246E-01
    8990.161     -8.891   0.400  3.37340E-01  4.70150E-01 -1.32810E-01
    8990.289     -8.763   0.440  3.42222E-01  4.91739E-01 -1.49517E-01
    8990.429     -8.623   0.480  3.44800E-01  5.12862E-01 -1.68062E-01
    8990.582     -8.470   0.520  3.45368E-01  5.33218E-01 -1.87850E-01
    8990.746     -8.306   0.560  3.44893E-01  5.52676E-01 -2.07783E-01
    8990.923     -8.129   0.600  3.45117E-01  5.71225E-01 -2.26107E-01
    8991.112     -7.940   0.640  3.48201E-01  5.88888E-01 -2.40688E-01
    8991.313     -7.739   0.680  3.55927E-01  6.05772E-01 -2.49845E-01
    8991.526     -7.525   0.720  3.68618E-01  6.21995E-01 -2.53377E-01
    8991.752     -7.300   0.760  3.84500E-01  6.37638E-01 -2.53138E-01
    8991.990     -7.062   0.800  4.00309E-01  6.52813E-01 -2.52503E-01
    8992.240     -6.812   0.840  4.13316E-01  6.67574E-01 -2.54258E-01
    8992.502     -6.550   0.880  4.23767E-01  6.82022E-01 -2.58255E-01
    8992.776     -6.276   0.920  4.34973E-01  6.96207E-01 -2.61233E-01
    8993.063     -5.989   0.960  4.50456E-01  7.10121E-01 -2.59665E-01
    8993.361     -5.690   1.000  4.70475E-01  7.23826E-01 -2.53351E-01
    8993.672     -5.380   1.040  4.90910E-01  7.37335E-01 -2.46425E-01
    8993.995     -5.056   1.080  5.06721E-01  7.50613E-01 -2.43892E-01
    8994.331     -4.721   1.120  5.18136E-01  7.63719E-01 -2.45582E-01
    8994.678     -4.374   1.160  5.30092E-01  7.76601E-01 -2.46509E-01
    8995.038     -4.014   1.200  5.45116E-01  7.89271E-01 -2.44155E-01
    8995.410     -3.642   1.240  5.61329E-01  8.01692E-01 -2.40363E-01
    8995.794     -3.258   1.280  5.77340E-01  8.13883E-01 -2.36543E-01
    8996.190     -2.862   1.320  5.99282E-01  8.25806E-01 -2.26524E-01
    8996.598     -2.454   1.360  6.39391E-01  8.37437E-01 -1.98046E-01
    8997.019     -2.033   1.400  7.06989E-01  8.48751E-01 -1.41762E-01
    8997.452     -1.600   1.440  8.04945E-01  8.59767E-01 -5.48222E-02
    8997.897     -1.155   1.480  9.29279E-01  8.70418E-01  5.88613E-02
    8998.354     -0.698   1.520  1.06983E+00  8.80739E-01  1.89095E-01
    8998.823     -0.228   1.560  1.20803E+00  8.90667E-01  3.17361E-01
    8999.305      0.253   1.600  1.31441E+00  9.00218E-01  4.14193E-01
    8999.799      0.747   1.640  1.36662E+00  9.09366E-01  4.57252E-01
    9000.305      1.253   1.680  1.37118E+00  9.18109E-01  4.53071E-01
    9000.823      1.771   1.720  1.35078E+00  9.26425E-01  4.24355E-01
    9001.353      2.301   1.760  1.32723E+00  9.34314E-01  3.92911E-01
    9001.896      2.844   1.800  1.29961E+00  9.41795E-01  3.57817E-01
    9002.450      3.399   1.840  1.24705E+00  9.48847E-01  2.98201E-01
    9003.017      3.966   1.880  1.17345E+00  9.55452E-01  2.17999E-01
    9003.596      4.545   1.920  1.10799E+00  9.61653E-01  1.46334E-01
    9004.188      5.136   1.960  1.07558E+00  9.67433E-01  1.08144E-01
    9004.791      5.739   2.000  1.08300E+00  9.72793E-01  1.10204E-01
    9005.407      6.355   2.040  1.11588E+00  9.77738E-01  1.38139E-01
    9006.035      6.983   2.080  1.15520E+00  9.82276E-01  1.72921E-01
    9006.675      7.623   2.120  1.18645E+00  9.86431E-01  2.00016E-01
    9007.327      8.275   2.160  1.19852E+00  9.90228E-01  2.08292E-01
    9007.992      8.940   2.200  1.19026E+00  9.93636E-01  1.96621E-01
    9008.668      9.617   2.240  1.17199E+00  9.96700E-01  1.75289E-01
    9009.357     10.305   2.280  1.15228E+00  9.99429E-01  1.52854E-01
    9010.058     11.006   2.320  1.13330E+00  1.00183E+00  1.31468E-01
    9010.771     11.720   2.360  1.11707E+00  1.00391E+00  1.13160E-01
    9011.497     12.445   2.400  1.10320E+00  1.00572E+00  9.74783E-02
    9012.234     13.183   2.440  1.08392E+00  1.00725E+00  7.66785E-02
    9012.984     13.932   2.480  1.05404E+00  1.00850E+00  4.55384E-02
    9013.746     14.694   2.520  1.02437E+00  1.00952E+00  1.48448E-02
    9014.520     15.469   2.560  1.00499E+00  1.01033E+00 -5.34315E-03
    9015.307     16.255   2.600  9.93320E-01  1.01091E+00 -1.75895E-02
    9016.105     17.054   2.640  9.85558E-01  1.01128E+00 -2.57270E-02
    9016.916     17.864   2.680  9.78124E-01  1.01149E+00 -3.33629E-02
    9017.739     18.687   2.720  9.69367E-01  1.01152E+00 -4.21561E-02
    9018.574     19.522   2.760  9.58370E-01  1.01142E+00 -5.30505E-02
    9019.422     20.370   2.800  9.44953E-01  1.01117E+00 -6.62161E-02
    9020.281     21.229   2.840  9.29903E-01  1.01081E+00 -8.09105E-02
    9021.153     22.101   2.880  9.14078E-01  1.01032E+00 -9.62423E-02
    9022.037     22.985   2.920  8.98614E-01  1.00976E+00 -1.11141E-01
    9022.933     23.881   2.960  8.84697E-01  1.00909E+00 -1.24389E-01
    9023.841     24.789   3.000  8.72875E-01  1.00836E+00 -1.35485E-01
    9024.762     25.710   3.040  8.62961E-01  1.00756E+00 -1.44599E-01
    9025.694     26.643   3.080  8.54867E-01  1.00671E+00 -1.51846E-01
    9026.639     27.587   3.120  8.48906E-01  1.00583E+00 -1.56920E-01
    9027.596     28.545   3.160  8.45094E-01  1.00492E+00 -1.59827E-01
    9028.566     29.514   3.200  8.43481E-01  1.00398E+00 -1.60501E-01
    9029.547     30.495   3.240  8.43815E-01  1.00302E+00 -1.59201E-01
    9030.541     31.489   3.280  8.45688E-01  1.00206E+00 -1.56377E-01
    9031.547     32.495   3.320  8.48961E-01  1.00109E+00 -1.52132E-01
    9032.565     33.513   3.360  8.54233E-01  1.00014E+00 -1.45911E-01
    9033.595     34.543   3.400  8.62360E-01  9.99222E-01 -1.36862E-01
    9034.637     35.585   3.440  8.73790E-01  9.98288E-01 -1.24498E-01
    9035.692     36.640   3.480  8.88909E-01  9.97406E-01 -1.08497E-01
    9036.759     37.707   3.520  9.07564E-01  9.96537E-01 -8.89725E-02
    9037.838     38.786   3.560  9.29352E-01  9.95704E-01 -6.63524E-02
    9038.929     39.877   3.600  9.53593E-01  9.94909E-01 -4.13164E-02
    9040.032     40.980   3.640  9.79603E-01  9.94154E-01 -1.45504E-02
    9041.148     42.096   3.680  1.00660E+00  9.93439E-01  1.31638E-02
    9042.275     43.224   3.720  1.03381E+00  9.92788E-01  4.10261E-02
    9043.415     44.364   3.760  1.06051E+00  9.92160E-01  6.83452E-02
    9044.568     45.516   3.800  1.08607E+00  9.91597E-01  9.44771E-02
    9045.732     46.680   3.840  1.10995E+00  9.91079E-01  1.18875E-01
    9046.908     47.857   3.880  1.13157E+00  9.90628E-01  1.40944E-01
    9048.097     49.045   3.920  1.14972E+00  9.90223E-01  1.59493E-01
    9049.298     50.246   3.960  1.16236E+00  9.89861E-01  1.72502E-01
    9050.511     51.459   4.000  1.16736E+00  9.89545E-01  1.77818E-01
    9051.736     52.685   4.040  1.16364E+00  9.89296E-01  1.74343E-01
    9052.974     53.922   4.080  1.15158E+00  9.89093E-01  1.62482E-01
    9054.224     55.172   4.120  1.13273E+00  9.88956E-01  1.43778E-01
    9055.485     56.434   4.160  1.10933E+00  9.88843E-01  1.20485E-01
    9056.759     57.708   4.200  1.08370E+00  9.88793E-01  9.49078E-02
    9058.046     58.994   4.240  1.05800E+00  9.88789E-01  6.92074E-02
    9059.344     60.292   4.280  1.03395E+00  9.88849E-01  4.51027E-02
    9060.655     61.603   4.320  1.01254E+00  9.88930E-01  2.36073E-02
    9061.978     62.926   4.360  9.94067E-01  9.89071E-01  4.99590E-03
    9063.313     64.261   4.400  9.78320E-01  9.89231E-01 -1.09116E-02
    9064.660     65.608   4.440  9.65182E-01  9.89451E-01 -2.42682E-02
    9066.019     66.967   4.480  9.54554E-01  9.89686E-01 -3.51328E-02
    9067.391     68.339   4.520  9.46463E-01  9.89958E-01 -4.34946E-02
    9068.775     69.723   4.560  9.40861E-01  9.90264E-01 -4.94025E-02
    9070.171     71.119   4.600  9.37690E-01  9.90604E-01 -5.29137E-02
    9071.579     72.527   4.640  9.37008E-01  9.90954E-01 -5.39458E-02
    9072.999     73.947   4.680  9.39018E-01  9.91312E-01 -5.22940E-02
    9074.432     75.380   4.720  9.43814E-01  9.91722E-01 -4.79079E-02
    9075.876     76.825   4.760  9.51123E-01  9.92118E-01 -4.09950E-02
    9077.333     78.282   4.800  9.60637E-01  9.92540E-01 -3.19028E-02
    9078.803     79.751   4.840  9.72009E-01  9.92968E-01 -2.09592E-02
    9080.284     81.232   4.880  9.84879E-01  9.93419E-01 -8.53960E-03
    9081.777     82.726   4.920  9.98512E-01  9.93848E-01  4.66440E-03
    9083.283     84.231   4.960  1.01179E+00  9.94277E-01  1.75118E-02
    9084.801     85.749   5.000  1.02332E+00  9.94725E-01  2.85922E-02
    9086.331     87.279   5.040  1.03144E+00  9.95148E-01  3.62898E-02
    9087.873     88.822   5.080  1.03447E+00  9.95566E-01  3.89060E-02
    9089.428     90.376   5.120  1.03120E+00  9.95957E-01  3.52462E-02
    9090.994     91.943   5.160  1.02168E+00  9.96362E-01  2.53219E-02
    9092.573     93.522   5.200  1.00746E+00  9.96737E-01  1.07204E-02
    9094.164     95.113   5.240  9.91041E-01  9.97080E-01 -6.03958E-03
    9095.768     96.716   5.280  9.74759E-01  9.97412E-01 -2.26529E-02
    9097.383     98.331   5.320  9.59915E-01  9.97711E-01 -3.77952E-02
    9099.011     99.959   5.360  9.46917E-01  9.97999E-01 -5.10820E-02
    9100.650    101.599   5.400  9.35765E-01  9.98250E-01 -6.24850E-02
    9102.302    103.251   5.440  9.26802E-01  9.98464E-01 -7.16618E-02
    9103.967    104.915   5.480  9.20858E-01  9.98642E-01 -7.77840E-02
    9105.643    106.591   5.520  9.18723E-01  9.98806E-01 -8.00829E-02
    9107.332    108.280   5.560  9.20506E-01  9.98930E-01 -7.84236E-02
    9109.032    109.981   5.600  9.25650E-01  9.98992E-01 -7.33416E-02
    9110.745    111.694   5.640  9.33367E-01  9.99038E-01 -6.56719E-02
    9112.471    113.419   5.680  9.42861E-01  9.99049E-01 -5.61880E-02
    9114.208    115.156   5.720  9.53571E-01  9.99043E-01 -4.54721E-02
    9115.957    116.906   5.760  9.65166E-01  9.98975E-01 -3.38088E-02
    9117.719    118.667   5.800  9.77734E-01  9.98866E-01 -2.11316E-02
    9119.493    120.441   5.840  9.91500E-01  9.98718E-01 -7.21779E-03
    9121.279    122.227   5.880  1.00643E+00  9.98533E-01  7.89548E-03
    9123.078    124.026   5.920  1.02200E+00  9.98336E-01  2.36673E-02
    9124.888    125.836   5.960  1.03701E+00  9.98076E-01  3.89291E-02
    9126.711    127.659   6.000  1.04977E+00  9.97780E-01  5.19912E-02
