# # comment:                                                     FEFF 9.9.1  
# # Source:
# # Structure
# # Reduced
# # space
# # abc:
# # angles:
# # sites:
# # POT  SCF 100  7.0000   0, screened core-hole, AFOLP (folp(0)= 1.150)
# # Abs   Z=29 Rmt= 1.230 Rnm= 1.354 K  shell
# # Pot 1 Z=67 Rmt= 1.626 Rnm= 1.706
# # Pot 2 Z=29 Rmt= 1.230 Rnm= 1.354
# # Pot 3 Z=42 Rmt= 1.153 Rnm= 1.357
# # Pot 4 Z= 8 Rmt= 0.980 Rnm= 1.086
# # Gam_ch=1.729E+00 H-L exch Vi= 0.000E+00 Vr= 0.000E+00
# # Mu=-5.892E+00eV kf=2.261E+00 Vint=-1.636E+01eV Rs_int= 1.604
# FMS rfms= 9.0000
# # PATH  Rmax=-1.000,  Keep_limit= 0.00, Heap_limit 0.00  Pwcrit= 2.50%
#  S02=0.950  Temp=   0.00  Debye_temp=   0.00  Global_sig2= 0.00000
#  Energy zero shift, vr, vi    0.00000E+00   0.00000E+00
#  Curved wave amplitude ratio filter   4.000%
#     file         sig2 tot  cw amp ratio   deg  nlegs   reff  inp sig2
#     0/   0 paths used
#  xsedge+ 50, used to normalize mu           2.4696E-04
#  -----------------------------------------------------------------------
#  omega    e    k    mu    mu0     chi     @#
    8983.632     -9.702  -1.000  4.93327E-02  5.66186E-02 -7.28593E-03
    8983.931     -9.404  -0.960  5.27459E-02  6.08348E-02 -8.08889E-03
    8984.218     -9.117  -0.920  5.65372E-02  6.55298E-02 -8.99260E-03
    8984.492     -8.843  -0.880  6.07642E-02  7.07750E-02 -1.00108E-02
    8984.754     -8.581  -0.840  6.54948E-02  7.66539E-02 -1.11591E-02
    8985.004     -8.331  -0.800  7.08080E-02  8.32629E-02 -1.24550E-02
    8985.242     -8.093  -0.760  7.67953E-02  9.07133E-02 -1.39180E-02
    8985.467     -7.867  -0.720  8.35610E-02  9.91306E-02 -1.55696E-02
    8985.681     -7.654  -0.680  9.12208E-02  1.08653E-01 -1.74326E-02
    8985.882     -7.453  -0.640  9.98978E-02  1.19428E-01 -1.95303E-02
    8986.071     -7.264  -0.600  1.09714E-01  1.31599E-01 -2.18851E-02
    8986.248     -7.087  -0.560  1.20774E-01  1.45289E-01 -2.45157E-02
    8986.412     -6.922  -0.520  1.33140E-01  1.60573E-01 -2.74332E-02
    8986.565     -6.770  -0.480  1.46800E-01  1.77436E-01 -3.06366E-02
    8986.705     -6.630  -0.440  1.61623E-01  1.95730E-01 -3.41064E-02
    8986.833     -6.502  -0.400  1.77333E-01  2.15132E-01 -3.77989E-02
    8986.949     -6.386  -0.360  1.93495E-01  2.35138E-01 -4.16432E-02
    8987.052     -6.282  -0.320  2.09549E-01  2.55090E-01 -4.55412E-02
    8987.144     -6.191  -0.280  2.24886E-01  2.74260E-01 -4.93741E-02
    8987.223     -6.112  -0.240  2.38935E-01  2.91948E-01 -5.30122E-02
    8987.290     -6.045  -0.200  2.51242E-01  3.07570E-01 -5.63277E-02
    8987.345     -5.990  -0.160  2.61496E-01  3.20702E-01 -5.92057E-02
    8987.388     -5.947  -0.120  2.69522E-01  3.31075E-01 -6.15532E-02
    8987.418     -5.917  -0.080  2.75241E-01  3.38543E-01 -6.33025E-02
    8987.442     -5.892   0.000  2.79742E-01  3.44539E-01 -6.47968E-02
    8987.497     -5.837   0.120  2.90050E-01  3.58062E-01 -6.80117E-02
    8987.540     -5.795   0.160  2.98018E-01  3.68543E-01 -7.05254E-02
    8987.595     -5.740   0.200  3.08115E-01  3.81918E-01 -7.38031E-02
    8987.662     -5.673   0.240  3.20117E-01  3.97986E-01 -7.78682E-02
    8987.741     -5.594   0.280  3.33664E-01  4.16384E-01 -8.27196E-02
    8987.833     -5.502   0.320  3.48306E-01  4.36616E-01 -8.83097E-02
    8987.936     -5.398   0.360  3.63567E-01  4.58067E-01 -9.45002E-02
    8988.052     -5.283   0.400  3.79004E-01  4.80065E-01 -1.01062E-01
    8988.180     -5.155   0.440  3.94339E-01  5.02019E-01 -1.07680E-01
    8988.320     -5.014   0.480  4.09422E-01  5.23446E-01 -1.14023E-01
    8988.473     -4.862   0.520  4.24279E-01  5.44076E-01 -1.19797E-01
    8988.637     -4.697   0.560  4.38921E-01  5.63736E-01 -1.24815E-01
    8988.814     -4.521   0.600  4.53396E-01  5.82410E-01 -1.29014E-01
    8989.003     -4.332   0.640  4.67599E-01  6.00146E-01 -1.32547E-01
    8989.204     -4.131   0.680  4.81053E-01  6.17055E-01 -1.36002E-01
    8989.418     -3.917   0.720  4.92608E-01  6.33218E-01 -1.40611E-01
    8989.643     -3.692   0.760  5.00868E-01  6.48783E-01 -1.47915E-01
    8989.881     -3.454   0.800  5.05233E-01  6.63841E-01 -1.58608E-01
    8990.131     -3.204   0.840  5.06815E-01  6.78434E-01 -1.71619E-01
    8990.393     -2.942   0.880  5.08446E-01  6.92687E-01 -1.84242E-01
    8990.667     -2.667   0.920  5.13121E-01  7.06608E-01 -1.93487E-01
    8990.954     -2.381   0.960  5.22350E-01  7.20275E-01 -1.97926E-01
    8991.252     -2.082   1.000  5.34864E-01  7.33674E-01 -1.98810E-01
    8991.563     -1.771   1.040  5.48009E-01  7.46839E-01 -1.98829E-01
    8991.886     -1.448   1.080  5.60323E-01  7.59796E-01 -1.99472E-01
    8992.222     -1.113   1.120  5.71590E-01  7.72524E-01 -2.00934E-01
    8992.569     -0.766   1.160  5.81525E-01  7.85019E-01 -2.03494E-01
    8992.929     -0.406   1.200  5.90409E-01  7.97291E-01 -2.06882E-01
    8993.301     -0.034   1.240  5.99685E-01  8.09322E-01 -2.09638E-01
    8993.685      0.350   1.280  6.11817E-01  8.21078E-01 -2.09261E-01
    8994.081      0.746   1.320  6.30214E-01  8.32559E-01 -2.02345E-01
    8994.489      1.155   1.360  6.57935E-01  8.43763E-01 -1.85828E-01
    8994.910      1.575   1.400  6.94993E-01  8.54648E-01 -1.59655E-01
    8995.343      2.008   1.440  7.37859E-01  8.65211E-01 -1.27352E-01
    8995.788      2.453   1.480  7.82926E-01  8.75450E-01 -9.25246E-02
    8996.245      2.910   1.520  8.29766E-01  8.85320E-01 -5.55541E-02
    8996.714      3.380   1.560  8.81229E-01  8.94817E-01 -1.35877E-02
    8997.196      3.861   1.600  9.37379E-01  9.03939E-01  3.34405E-02
    8997.690      4.355   1.640  9.89095E-01  9.12684E-01  7.64111E-02
    8998.196      4.861   1.680  1.02137E+00  9.21029E-01  1.00338E-01
    8998.714      5.379   1.720  1.03028E+00  9.28952E-01  1.01330E-01
    8999.244      5.910   1.760  1.03310E+00  9.36474E-01  9.66298E-02
    8999.787      6.452   1.800  1.05080E+00  9.43594E-01  1.07208E-01
    9000.342      7.007   1.840  1.08934E+00  9.50293E-01  1.39051E-01
    9000.908      7.574   1.880  1.14277E+00  9.56573E-01  1.86201E-01
    9001.488      8.153   1.920  1.20000E+00  9.62456E-01  2.37547E-01
    9002.079      8.744   1.960  1.24433E+00  9.67947E-01  2.76381E-01
    9002.682      9.348   2.000  1.26399E+00  9.73008E-01  2.90979E-01
    9003.298      9.963   2.040  1.26247E+00  9.77705E-01  2.84769E-01
    9003.926     10.591   2.080  1.25366E+00  9.82023E-01  2.71634E-01
    9004.566     11.231   2.120  1.24816E+00  9.85946E-01  2.62215E-01
    9005.218     11.884   2.160  1.24380E+00  9.89543E-01  2.54256E-01
    9005.883     12.548   2.200  1.23337E+00  9.92756E-01  2.40609E-01
    9006.559     13.225   2.240  1.21758E+00  9.95657E-01  2.21928E-01
    9007.248     13.914   2.280  1.19946E+00  9.98232E-01  2.01228E-01
    9007.949     14.615   2.320  1.17480E+00  1.00051E+00  1.74289E-01
    9008.663     15.328   2.360  1.13859E+00  1.00249E+00  1.36099E-01
    9009.388     16.053   2.400  1.09791E+00  1.00420E+00  9.37109E-02
    9010.126     16.791   2.440  1.06259E+00  1.00564E+00  5.69465E-02
    9010.875     17.541   2.480  1.03307E+00  1.00684E+00  2.62278E-02
    9011.637     18.303   2.520  1.00947E+00  1.00782E+00  1.65023E-03
    9012.412     19.077   2.560  9.95380E-01  1.00857E+00 -1.31932E-02
    9013.198     19.863   2.600  9.89529E-01  1.00914E+00 -1.96114E-02
    9013.997     20.662   2.640  9.84512E-01  1.00951E+00 -2.49988E-02
    9014.807     21.473   2.680  9.78499E-01  1.00971E+00 -3.12139E-02
    9015.630     22.296   2.720  9.73881E-01  1.00975E+00 -3.58722E-02
    9016.465     23.131   2.760  9.70616E-01  1.00966E+00 -3.90453E-02
    9017.313     23.978   2.800  9.67392E-01  1.00944E+00 -4.20526E-02
    9018.172     24.838   2.840  9.63852E-01  1.00913E+00 -4.52756E-02
    9019.044     25.709   2.880  9.60095E-01  1.00868E+00 -4.85824E-02
    9019.928     26.593   2.920  9.56388E-01  1.00816E+00 -5.17715E-02
    9020.824     27.489   2.960  9.52901E-01  1.00756E+00 -5.46594E-02
    9021.732     28.398   3.000  9.49333E-01  1.00689E+00 -5.75525E-02
    9022.653     29.318   3.040  9.45112E-01  1.00616E+00 -6.10497E-02
    9023.585     30.251   3.080  9.39997E-01  1.00539E+00 -6.53951E-02
    9024.530     31.196   3.120  9.34005E-01  1.00458E+00 -7.05765E-02
    9025.487     32.153   3.160  9.27270E-01  1.00374E+00 -7.64661E-02
    9026.457     33.122   3.200  9.20192E-01  1.00288E+00 -8.26866E-02
    9027.438     34.103   3.240  9.13548E-01  1.00201E+00 -8.84654E-02
    9028.432     35.097   3.280  9.08111E-01  1.00112E+00 -9.30137E-02
    9029.438     36.103   3.320  9.04728E-01  1.00026E+00 -9.55284E-02
    9030.456     37.121   3.360  9.04044E-01  9.99389E-01 -9.53457E-02
    9031.486     38.151   3.400  9.06260E-01  9.98528E-01 -9.22682E-02
    9032.528     39.194   3.440  9.11164E-01  9.97697E-01 -8.65328E-02
    9033.583     40.248   3.480  9.18311E-01  9.96876E-01 -7.85646E-02
    9034.650     41.315   3.520  9.27180E-01  9.96108E-01 -6.89278E-02
    9035.729     42.394   3.560  9.37053E-01  9.95355E-01 -5.83024E-02
    9036.820     43.485   3.600  9.47393E-01  9.94617E-01 -4.72241E-02
    9037.923     44.588   3.640  9.57987E-01  9.93938E-01 -3.59509E-02
    9039.039     45.704   3.680  9.68668E-01  9.93300E-01 -2.46315E-02
    9040.167     46.832   3.720  9.79301E-01  9.92702E-01 -1.34011E-02
    9041.306     47.972   3.760  9.89723E-01  9.92147E-01 -2.42385E-03
    9042.459     49.124   3.800  9.99630E-01  9.91656E-01  7.97366E-03
    9043.623     50.288   3.840  1.00856E+00  9.91187E-01  1.73771E-02
    9044.799     51.465   3.880  1.01622E+00  9.90782E-01  2.54358E-02
    9045.988     52.653   3.920  1.02240E+00  9.90421E-01  3.19769E-02
    9047.189     53.854   3.960  1.02707E+00  9.90125E-01  3.69437E-02
    9048.402     55.067   4.000  1.03027E+00  9.89852E-01  4.04172E-02
    9049.627     56.293   4.040  1.03228E+00  9.89644E-01  4.26402E-02
    9050.865     57.530   4.080  1.03343E+00  9.89479E-01  4.39500E-02
    9052.115     58.780   4.120  1.03403E+00  9.89356E-01  4.46761E-02
    9053.377     60.042   4.160  1.03433E+00  9.89274E-01  4.50558E-02
    9054.651     61.316   4.200  1.03437E+00  9.89257E-01  4.51178E-02
    9055.937     62.602   4.240  1.03399E+00  9.89261E-01  4.47308E-02
    9057.235     63.901   4.280  1.03305E+00  9.89326E-01  4.37283E-02
    9058.546     65.211   4.320  1.03140E+00  9.89430E-01  4.19653E-02
    9059.869     66.534   4.360  1.02889E+00  9.89552E-01  3.93375E-02
    9061.204     67.869   4.400  1.02563E+00  9.89732E-01  3.58941E-02
    9062.551     69.216   4.440  1.02190E+00  9.89927E-01  3.19750E-02
    9063.910     70.576   4.480  1.01830E+00  9.90159E-01  2.81392E-02
    9065.282     71.947   4.520  1.01544E+00  9.90426E-01  2.50143E-02
    9066.666     73.331   4.560  1.01378E+00  9.90726E-01  2.30548E-02
    9068.062     74.727   4.600  1.01338E+00  9.91038E-01  2.23405E-02
    9069.470     76.135   4.640  1.01394E+00  9.91377E-01  2.25598E-02
    9070.890     77.556   4.680  1.01483E+00  9.91724E-01  2.31046E-02
    9072.323     78.988   4.720  1.01530E+00  9.92077E-01  2.32211E-02
    9073.768     80.433   4.760  1.01467E+00  9.92457E-01  2.22162E-02
    9075.224     81.890   4.800  1.01254E+00  9.92841E-01  1.96959E-02
    9076.694     83.359   4.840  1.00890E+00  9.93228E-01  1.56712E-02
    9078.175     84.840   4.880  1.00413E+00  9.93637E-01  1.04978E-02
    9079.668     86.334   4.920  9.98738E-01  9.94023E-01  4.71415E-03
    9081.174     87.839   4.960  9.93287E-01  9.94409E-01 -1.12192E-03
    9082.692     89.357   5.000  9.88274E-01  9.94791E-01 -6.51695E-03
    9084.222     90.887   5.040  9.84065E-01  9.95169E-01 -1.11039E-02
    9085.764     92.430   5.080  9.80878E-01  9.95544E-01 -1.46658E-02
    9087.319     93.984   5.120  9.78765E-01  9.95912E-01 -1.71472E-02
    9088.886     95.551   5.160  9.77608E-01  9.96250E-01 -1.86426E-02
    9090.464     97.130   5.200  9.77240E-01  9.96555E-01 -1.93154E-02
    9092.055     98.721   5.240  9.77515E-01  9.96851E-01 -1.93356E-02
    9093.659    100.324   5.280  9.78279E-01  9.97138E-01 -1.88583E-02
    9095.274    101.939   5.320  9.79327E-01  9.97392E-01 -1.80644E-02
    9096.902    103.567   5.360  9.80430E-01  9.97611E-01 -1.71807E-02
    9098.542    105.207   5.400  9.81348E-01  9.97818E-01 -1.64701E-02
    9100.194    106.859   5.440  9.81813E-01  9.97991E-01 -1.61782E-02
    9101.858    108.523   5.480  9.81673E-01  9.98149E-01 -1.64760E-02
    9103.534    110.199   5.520  9.80870E-01  9.98250E-01 -1.73802E-02
    9105.223    111.888   5.560  9.79629E-01  9.98335E-01 -1.87060E-02
    9106.924    113.589   5.600  9.78316E-01  9.98381E-01 -2.00649E-02
    9108.637    115.302   5.640  9.77390E-01  9.98388E-01 -2.09980E-02
    9110.362    117.027   5.680  9.77211E-01  9.98357E-01 -2.11455E-02
    9112.099    118.764   5.720  9.77905E-01  9.98286E-01 -2.03815E-02
    9113.849    120.514   5.760  9.79371E-01  9.98178E-01 -1.88072E-02
    9115.610    122.276   5.800  9.81398E-01  9.98057E-01 -1.66583E-02
    9117.384    124.050   5.840  9.83705E-01  9.97875E-01 -1.41701E-02
    9119.170    125.836   5.880  9.86144E-01  9.97681E-01 -1.15369E-02
    9120.969    127.634   5.920  9.88502E-01  9.97452E-01 -8.95065E-03
    9122.779    129.444   5.960  9.90574E-01  9.97187E-01 -6.61252E-03
    9124.602    131.267   6.000  9.92215E-01  9.96860E-01 -4.64502E-03
