# # comment:                                                     FEFF 9.9.1  
# # Source:
# # Structure
# # Reduced
# # space
# # abc:
# # angles:
# # sites:
# # POT  SCF 100  7.0000   0, screened core-hole, AFOLP (folp(0)= 1.150)
# # Abs   Z=29 Rmt= 1.321 Rnm= 1.422 K  shell
# # Pot 1 Z=29 Rmt= 1.187 Rnm= 1.268
# # Pot 2 Z= 6 Rmt= 0.650 Rnm= 0.913
# # Pot 3 Z= 8 Rmt= 0.779 Rnm= 0.983
# # Gam_ch=1.729E+00 H-L exch Vi= 0.000E+00 Vr= 0.000E+00
# # Mu=-6.973E+00eV kf=2.822E+00 Vint=-1.993E+01eV Rs_int= 1.285
# FMS rfms= 9.0000
# # PATH  Rmax=-1.000,  Keep_limit= 0.00, Heap_limit 0.00  Pwcrit= 2.50%
#  S02=0.950  Temp=   0.00  Debye_temp=   0.00  Global_sig2= 0.00000
#  Energy zero shift, vr, vi    0.00000E+00   0.00000E+00
#  Curved wave amplitude ratio filter   4.000%
#     file         sig2 tot  cw amp ratio   deg  nlegs   reff  inp sig2
#     0/   0 paths used
#  xsedge+ 50, used to normalize mu           2.4960E-04
#  -----------------------------------------------------------------------
#  omega    e    k    mu    mu0     chi     @#
    8983.186    -10.783  -1.000  5.06809E-02  4.75612E-02  3.11963E-03
    8983.485    -10.484  -0.960  5.42499E-02  5.08496E-02  3.40040E-03
    8983.771    -10.198  -0.920  5.82048E-02  5.44948E-02  3.71001E-03
    8984.046     -9.923  -0.880  6.26008E-02  5.85494E-02  4.05142E-03
    8984.308     -9.661  -0.840  6.75019E-02  6.30742E-02  4.42766E-03
    8984.558     -9.411  -0.800  7.29819E-02  6.81401E-02  4.84179E-03
    8984.796     -9.173  -0.760  7.91251E-02  7.38283E-02  5.29678E-03
    8985.021     -8.948  -0.720  8.60257E-02  8.02305E-02  5.79527E-03
    8985.234     -8.734  -0.680  9.37873E-02  8.74479E-02  6.33944E-03
    8985.436     -8.533  -0.640  1.02518E-01  9.55874E-02  6.93077E-03
    8985.625     -8.344  -0.600  1.12324E-01  1.04754E-01  7.56997E-03
    8985.801     -8.168  -0.560  1.23294E-01  1.15037E-01  8.25705E-03
    8985.966     -8.003  -0.520  1.35481E-01  1.26490E-01  8.99181E-03
    8986.118     -7.851  -0.480  1.48874E-01  1.39100E-01  9.77451E-03
    8986.259     -7.710  -0.440  1.63364E-01  1.52757E-01  1.06068E-02
    8986.387     -7.582  -0.400  1.78714E-01  1.67223E-01  1.14917E-02
    8986.502     -7.467  -0.360  1.94556E-01  1.82124E-01  1.24323E-02
    8986.606     -7.363  -0.320  2.10403E-01  1.96976E-01  1.34271E-02
    8986.697     -7.271  -0.280  2.25705E-01  2.11240E-01  1.44651E-02
    8986.777     -7.192  -0.240  2.39921E-01  2.24401E-01  1.55202E-02
    8986.844     -7.125  -0.200  2.52577E-01  2.36026E-01  1.65510E-02
    8986.899     -7.070  -0.160  2.63305E-01  2.45800E-01  1.75044E-02
    8986.941     -7.028  -0.120  2.71847E-01  2.53524E-01  1.83234E-02
    8986.972     -6.997  -0.080  2.78041E-01  2.59086E-01  1.89550E-02
    8986.996     -6.973   0.000  2.83047E-01  2.63553E-01  1.94938E-02
    8987.051     -6.918   0.120  2.94256E-01  2.73624E-01  2.06313E-02
    8987.094     -6.875   0.160  3.03067E-01  2.81440E-01  2.16268E-02
    8987.149     -6.820   0.200  3.14451E-01  2.91420E-01  2.30318E-02
    8987.216     -6.753   0.240  3.28362E-01  3.03421E-01  2.49414E-02
    8987.295     -6.674   0.280  3.44655E-01  3.17193E-01  2.74624E-02
    8987.386     -6.583   0.320  3.63063E-01  3.32375E-01  3.06878E-02
    8987.490     -6.479   0.360  3.83174E-01  3.48502E-01  3.46727E-02
    8987.606     -6.363   0.400  4.04506E-01  3.65121E-01  3.93854E-02
    8987.734     -6.235   0.440  4.26451E-01  3.81802E-01  4.46487E-02
    8987.874     -6.095   0.480  4.48343E-01  3.98213E-01  5.01299E-02
    8988.026     -5.943   0.520  4.69476E-01  4.14129E-01  5.53467E-02
    8988.191     -5.778   0.560  4.89210E-01  4.29498E-01  5.97119E-02
    8988.368     -5.601   0.600  5.06881E-01  4.44276E-01  6.26053E-02
    8988.557     -5.412   0.640  5.21952E-01  4.58542E-01  6.34107E-02
    8988.758     -5.211   0.680  5.34034E-01  4.72363E-01  6.16707E-02
    8988.971     -4.998   0.720  5.43259E-01  4.85860E-01  5.73991E-02
    8989.197     -4.772   0.760  5.50535E-01  4.99112E-01  5.14231E-02
    8989.435     -4.534   0.800  5.57563E-01  5.12231E-01  4.53323E-02
    8989.685     -4.284   0.840  5.66138E-01  5.25282E-01  4.08563E-02
    8989.947     -4.022   0.880  5.77432E-01  5.38313E-01  3.91194E-02
    8990.221     -3.748   0.920  5.91600E-01  5.51426E-01  4.01734E-02
    8990.507     -3.461   0.960  6.07452E-01  5.64632E-01  4.28204E-02
    8990.806     -3.163   1.000  6.22952E-01  5.77991E-01  4.49603E-02
    8991.117     -2.852   1.040  6.36402E-01  5.91498E-01  4.49046E-02
    8991.440     -2.529   1.080  6.48258E-01  6.05196E-01  4.30619E-02
    8991.775     -2.193   1.120  6.61321E-01  6.19110E-01  4.22113E-02
    8992.123     -1.846   1.160  6.78907E-01  6.33211E-01  4.56968E-02
    8992.483     -1.486   1.200  7.02751E-01  6.47531E-01  5.52199E-02
    8992.854     -1.115   1.240  7.32052E-01  6.62035E-01  7.00167E-02
    8993.238     -0.730   1.280  7.63722E-01  6.76746E-01  8.69752E-02
    8993.635     -0.334   1.320  7.92695E-01  6.91625E-01  1.01070E-01
    8994.043      0.074   1.360  8.14509E-01  7.06665E-01  1.07844E-01
    8994.464      0.495   1.400  8.28395E-01  7.21843E-01  1.06552E-01
    8994.897      0.928   1.440  8.36534E-01  7.37130E-01  9.94033E-02
    8995.342      1.373   1.480  8.40213E-01  7.52514E-01  8.76990E-02
    8995.799      1.830   1.520  8.38673E-01  7.67941E-01  7.07318E-02
    8996.268      2.299   1.560  8.33012E-01  7.83378E-01  4.96343E-02
    8996.750      2.781   1.600  8.27976E-01  7.98807E-01  2.91694E-02
    8997.244      3.275   1.640  8.28072E-01  8.14171E-01  1.39005E-02
    8997.749      3.781   1.680  8.34947E-01  8.29450E-01  5.49685E-03
    8998.268      4.299   1.720  8.48124E-01  8.44565E-01  3.55977E-03
    8998.798      4.829   1.760  8.66414E-01  8.59493E-01  6.92154E-03
    8999.341      5.372   1.800  8.89339E-01  8.74193E-01  1.51459E-02
    8999.895      5.926   1.840  9.17968E-01  8.88604E-01  2.93636E-02
    9000.462      6.493   1.880  9.52379E-01  9.02702E-01  4.96767E-02
    9001.041      7.072   1.920  9.87769E-01  9.16406E-01  7.13638E-02
    9001.633      7.664   1.960  1.01756E+00  9.29714E-01  8.78449E-02
    9002.236      8.267   2.000  1.04105E+00  9.42544E-01  9.85033E-02
    9002.852      8.883   2.040  1.06175E+00  9.54877E-01  1.06873E-01
    9003.480      9.511   2.080  1.07940E+00  9.66675E-01  1.12726E-01
    9004.120     10.151   2.120  1.08820E+00  9.77899E-01  1.10297E-01
    9004.772     10.803   2.160  1.08187E+00  9.88493E-01  9.33725E-02
    9005.437     11.468   2.200  1.05901E+00  9.98484E-01  6.05226E-02
    9006.113     12.144   2.240  1.02324E+00  1.00778E+00  1.54624E-02
    9006.802     12.833   2.280  9.83774E-01  1.01641E+00 -3.26354E-02
    9007.503     13.534   2.320  9.51463E-01  1.02435E+00 -7.28839E-02
    9008.216     14.247   2.360  9.31745E-01  1.03157E+00 -9.98204E-02
    9008.942     14.973   2.400  9.25454E-01  1.03808E+00 -1.12630E-01
    9009.679     15.710   2.440  9.33504E-01  1.04388E+00 -1.10376E-01
    9010.429     16.460   2.480  9.57844E-01  1.04896E+00 -9.11120E-02
    9011.191     17.222   2.520  9.98789E-01  1.05333E+00 -5.45452E-02
    9011.965     17.996   2.560  1.05124E+00  1.05700E+00 -5.75901E-03
    9012.752     18.783   2.600  1.10429E+00  1.06001E+00  4.42863E-02
    9013.550     19.581   2.640  1.14498E+00  1.06234E+00  8.26345E-02
    9014.361     20.392   2.680  1.16384E+00  1.06406E+00  9.97851E-02
    9015.184     21.215   2.720  1.16096E+00  1.06517E+00  9.57976E-02
    9016.019     22.050   2.760  1.14740E+00  1.06568E+00  8.17170E-02
    9016.866     22.898   2.800  1.13268E+00  1.06566E+00  6.70180E-02
    9017.726     23.757   2.840  1.11763E+00  1.06512E+00  5.25078E-02
    9018.598     24.629   2.880  1.10157E+00  1.06410E+00  3.74701E-02
    9019.482     25.513   2.920  1.08547E+00  1.06266E+00  2.28116E-02
    9020.378     26.409   2.960  1.07005E+00  1.06079E+00  9.26138E-03
    9021.286     27.317   3.000  1.05551E+00  1.05855E+00 -3.03997E-03
    9022.207     28.238   3.040  1.04131E+00  1.05598E+00 -1.46739E-02
    9023.139     29.170   3.080  1.02908E+00  1.05313E+00 -2.40432E-02
    9024.084     30.115   3.120  1.02318E+00  1.05000E+00 -2.68224E-02
    9025.041     31.072   3.160  1.02585E+00  1.04664E+00 -2.07832E-02
    9026.010     32.042   3.200  1.03194E+00  1.04310E+00 -1.11653E-02
    9026.992     33.023   3.240  1.03360E+00  1.03942E+00 -5.82193E-03
    9027.986     34.017   3.280  1.03081E+00  1.03561E+00 -4.79718E-03
    9028.991     35.022   3.320  1.02453E+00  1.03170E+00 -7.17247E-03
    9030.009     36.040   3.360  1.01570E+00  1.02772E+00 -1.20108E-02
    9031.040     37.071   3.400  1.00520E+00  1.02371E+00 -1.85130E-02
    9032.082     38.113   3.440  9.93855E-01  1.01969E+00 -2.58354E-02
    9033.137     39.168   3.480  9.82599E-01  1.01568E+00 -3.30850E-02
    9034.203     40.234   3.520  9.72219E-01  1.01170E+00 -3.94766E-02
    9035.282     41.313   3.560  9.63346E-01  1.00778E+00 -4.44369E-02
    9036.374     42.405   3.600  9.56271E-01  1.00394E+00 -4.76735E-02
    9037.477     43.508   3.640  9.50985E-01  1.00021E+00 -4.92274E-02
    9038.593     44.624   3.680  9.47166E-01  9.96570E-01 -4.94040E-02
    9039.720     45.751   3.720  9.44408E-01  9.93076E-01 -4.86681E-02
    9040.860     46.891   3.760  9.42109E-01  9.89710E-01 -4.76010E-02
    9042.012     48.043   3.800  9.39905E-01  9.86471E-01 -4.65666E-02
    9043.177     49.208   3.840  9.37811E-01  9.83414E-01 -4.56031E-02
    9044.353     50.384   3.880  9.36116E-01  9.80531E-01 -4.44149E-02
    9045.542     51.573   3.920  9.35309E-01  9.77836E-01 -4.25279E-02
    9046.743     52.774   3.960  9.35838E-01  9.75308E-01 -3.94700E-02
    9047.956     53.987   4.000  9.38051E-01  9.72977E-01 -3.49266E-02
    9049.181     55.212   4.040  9.42018E-01  9.70844E-01 -2.88261E-02
    9050.419     56.450   4.080  9.47692E-01  9.68912E-01 -2.12199E-02
    9051.668     57.699   4.120  9.54875E-01  9.67202E-01 -1.23274E-02
    9052.930     58.961   4.160  9.63143E-01  9.65671E-01 -2.52876E-03
    9054.204     60.235   4.200  9.72012E-01  9.64341E-01  7.67164E-03
    9055.491     61.522   4.240  9.80911E-01  9.63211E-01  1.76999E-02
    9056.789     62.820   4.280  9.89253E-01  9.62304E-01  2.69496E-02
    9058.100     64.131   4.320  9.96548E-01  9.61577E-01  3.49715E-02
    9059.422     65.454   4.360  1.00257E+00  9.61070E-01  4.15013E-02
    9060.757     66.789   4.400  1.00719E+00  9.60738E-01  4.64478E-02
    9062.105     68.136   4.440  1.01051E+00  9.60601E-01  4.99097E-02
    9063.464     69.495   4.480  1.01278E+00  9.60656E-01  5.21266E-02
    9064.836     70.867   4.520  1.01427E+00  9.60881E-01  5.33877E-02
    9066.219     72.251   4.560  1.01525E+00  9.61270E-01  5.39804E-02
    9067.615     73.647   4.600  1.01595E+00  9.61843E-01  5.41058E-02
    9069.024     75.055   4.640  1.01632E+00  9.62554E-01  5.37667E-02
    9070.444     76.475   4.680  1.01624E+00  9.63440E-01  5.27977E-02
    9071.877     77.908   4.720  1.01539E+00  9.64435E-01  5.09573E-02
    9073.321     79.352   4.760  1.01356E+00  9.65576E-01  4.79798E-02
    9074.778     80.809   4.800  1.01054E+00  9.66837E-01  4.37033E-02
    9076.247     82.278   4.840  1.00636E+00  9.68213E-01  3.81489E-02
    9077.729     83.760   4.880  1.00118E+00  9.69680E-01  3.14965E-02
    9079.222     85.253   4.920  9.95296E-01  9.71250E-01  2.40460E-02
    9080.728     86.759   4.960  9.88994E-01  9.72877E-01  1.61166E-02
    9082.246     88.277   5.000  9.82527E-01  9.74575E-01  7.95201E-03
    9083.776     89.807   5.040  9.76057E-01  9.76317E-01 -2.59234E-04
    9085.318     91.349   5.080  9.69762E-01  9.78096E-01 -8.33406E-03
    9086.873     92.904   5.120  9.63877E-01  9.79885E-01 -1.60077E-02
    9088.439     94.470   5.160  9.58708E-01  9.81701E-01 -2.29933E-02
    9090.018     96.049   5.200  9.54456E-01  9.83518E-01 -2.90623E-02
    9091.609     97.640   5.240  9.51190E-01  9.85305E-01 -3.41153E-02
    9093.212     99.244   5.280  9.48916E-01  9.87079E-01 -3.81632E-02
    9094.828    100.859   5.320  9.47528E-01  9.88791E-01 -4.12635E-02
    9096.456    102.487   5.360  9.46993E-01  9.90479E-01 -4.34860E-02
    9098.095    104.126   5.400  9.47196E-01  9.92073E-01 -4.48774E-02
    9099.747    105.778   5.440  9.48154E-01  9.93610E-01 -4.54559E-02
    9101.412    107.443   5.480  9.49856E-01  9.95065E-01 -4.52097E-02
    9103.088    109.119   5.520  9.52315E-01  9.96412E-01 -4.40976E-02
    9104.777    110.808   5.560  9.55637E-01  9.97666E-01 -4.20286E-02
    9106.477    112.508   5.600  9.59892E-01  9.98779E-01 -3.88868E-02
    9108.190    114.221   5.640  9.65186E-01  9.99793E-01 -3.46067E-02
    9109.915    115.946   5.680  9.71436E-01  1.00066E+00 -2.92258E-02
    9111.653    117.684   5.720  9.78456E-01  1.00141E+00 -2.29496E-02
    9113.402    119.433   5.760  9.85873E-01  1.00202E+00 -1.61484E-02
    9115.164    121.195   5.800  9.93169E-01  1.00249E+00 -9.31734E-03
    9116.938    122.969   5.840  9.99798E-01  1.00279E+00 -2.99689E-03
    9118.724    124.755   5.880  1.00529E+00  1.00297E+00  2.31920E-03
    9120.522    126.553   5.920  1.00925E+00  1.00297E+00  6.28067E-03
    9122.333    128.364   5.960  1.01157E+00  1.00283E+00  8.74490E-03
    9124.156    130.187   6.000  1.01220E+00  1.00240E+00  9.79767E-03
