# # comment:                                                     FEFF 9.9.1  
# # Source:
# # Structure
# # Reduced
# # space
# # abc:
# # angles:
# # sites:
# # POT  SCF 100  7.0000   0, screened core-hole, AFOLP (folp(0)= 1.150)
# # Abs   Z=29 Rmt= 1.179 Rnm= 1.315 K  shell
# # Pot 1 Z=21 Rmt= 1.452 Rnm= 1.538
# # Pot 2 Z=29 Rmt= 1.188 Rnm= 1.277
# # Pot 3 Z= 8 Rmt= 1.031 Rnm= 1.114
# # Gam_ch=1.729E+00 H-L exch Vi= 0.000E+00 Vr= 0.000E+00
# # Mu=-9.792E+00eV kf=2.133E+00 Vint=-1.852E+01eV Rs_int= 1.701
# FMS rfms= 9.0000
# # PATH  Rmax=-1.000,  Keep_limit= 0.00, Heap_limit 0.00  Pwcrit= 2.50%
#  S02=0.950  Temp=   0.00  Debye_temp=   0.00  Global_sig2= 0.00000
#  Energy zero shift, vr, vi    0.00000E+00   0.00000E+00
#  Curved wave amplitude ratio filter   4.000%
#     file         sig2 tot  cw amp ratio   deg  nlegs   reff  inp sig2
#     0/   0 paths used
#  xsedge+ 50, used to normalize mu           2.4975E-04
#  -----------------------------------------------------------------------
#  omega    e    k    mu    mu0     chi     @#
    8984.479    -13.602  -1.000  3.87000E-02  5.02463E-02 -1.15463E-02
    8984.777    -13.304  -0.960  4.10370E-02  5.38038E-02 -1.27667E-02
    8985.064    -13.017  -0.920  4.36120E-02  5.77500E-02 -1.41380E-02
    8985.338    -12.743  -0.880  4.64613E-02  6.21417E-02 -1.56804E-02
    8985.600    -12.481  -0.840  4.96278E-02  6.70450E-02 -1.74171E-02
    8985.850    -12.231  -0.800  5.31620E-02  7.25362E-02 -1.93741E-02
    8986.088    -11.993  -0.760  5.71227E-02  7.87030E-02 -2.15803E-02
    8986.314    -11.767  -0.720  6.15771E-02  8.56445E-02 -2.40674E-02
    8986.527    -11.554  -0.680  6.66006E-02  9.34695E-02 -2.68688E-02
    8986.728    -11.353  -0.640  7.22739E-02  1.02293E-01 -3.00190E-02
    8986.917    -11.164  -0.600  7.86776E-02  1.12228E-01 -3.35500E-02
    8987.094    -10.987  -0.560  8.58817E-02  1.23369E-01 -3.74875E-02
    8987.259    -10.822  -0.520  9.39301E-02  1.35775E-01 -4.18447E-02
    8987.411    -10.670  -0.480  1.02817E-01  1.49431E-01 -4.66132E-02
    8987.551    -10.530  -0.440  1.12463E-01  1.64217E-01 -5.17536E-02
    8987.679    -10.402  -0.400  1.22690E-01  1.79878E-01 -5.71879E-02
    8987.795    -10.286  -0.360  1.33215E-01  1.96011E-01 -6.27961E-02
    8987.899    -10.182  -0.320  1.43672E-01  2.12095E-01 -6.84226E-02
    8987.990    -10.091  -0.280  1.53658E-01  2.27549E-01 -7.38909E-02
    8988.069    -10.012  -0.240  1.62793E-01  2.41814E-01 -7.90216E-02
    8988.136     -9.945  -0.200  1.70776E-01  2.54424E-01 -8.36482E-02
    8988.191     -9.890  -0.160  1.77408E-01  2.65034E-01 -8.76267E-02
    8988.234     -9.847  -0.120  1.82583E-01  2.73424E-01 -9.08413E-02
    8988.264     -9.817  -0.080  1.86263E-01  2.79470E-01 -9.32067E-02
    8988.289     -9.792   0.000  1.89159E-01  2.84328E-01 -9.51696E-02
    8988.344     -9.737   0.120  1.95548E-01  2.95282E-01 -9.97346E-02
    8988.386     -9.695   0.160  2.00486E-01  3.03805E-01 -1.03319E-01
    8988.441     -9.640   0.200  2.06664E-01  3.14689E-01 -1.08025E-01
    8988.508     -9.573   0.240  2.13865E-01  3.27793E-01 -1.13929E-01
    8988.587     -9.494   0.280  2.21783E-01  3.42864E-01 -1.21081E-01
    8988.679     -9.402   0.320  2.29996E-01  3.59510E-01 -1.29513E-01
    8988.783     -9.298   0.360  2.38138E-01  3.77285E-01 -1.39147E-01
    8988.898     -9.183   0.400  2.45834E-01  3.95675E-01 -1.49841E-01
    8989.026     -9.055   0.440  2.52922E-01  4.14232E-01 -1.61310E-01
    8989.167     -8.914   0.480  2.59367E-01  4.32607E-01 -1.73241E-01
    8989.319     -8.762   0.520  2.65209E-01  4.50557E-01 -1.85348E-01
    8989.484     -8.597   0.560  2.70556E-01  4.67982E-01 -1.97426E-01
    8989.660     -8.421   0.600  2.75591E-01  4.84854E-01 -2.09263E-01
    8989.849     -8.232   0.640  2.80731E-01  5.01245E-01 -2.20514E-01
    8990.050     -8.030   0.680  2.86516E-01  5.17179E-01 -2.30664E-01
    8990.264     -7.817   0.720  2.93550E-01  5.32790E-01 -2.39240E-01
    8990.489     -7.592   0.760  3.01666E-01  5.48112E-01 -2.46446E-01
    8990.727     -7.354   0.800  3.09891E-01  5.63251E-01 -2.53360E-01
    8990.977     -7.104   0.840  3.17187E-01  5.78240E-01 -2.61053E-01
    8991.239     -6.842   0.880  3.23841E-01  5.93162E-01 -2.69321E-01
    8991.514     -6.567   0.920  3.31197E-01  6.08006E-01 -2.76809E-01
    8991.800     -6.281   0.960  3.40306E-01  6.22812E-01 -2.82506E-01
    8992.099     -5.982   1.000  3.50317E-01  6.37608E-01 -2.87291E-01
    8992.410     -5.671   1.040  3.59277E-01  6.52376E-01 -2.93099E-01
    8992.733     -5.348   1.080  3.67051E-01  6.67111E-01 -3.00060E-01
    8993.068     -5.013   1.120  3.76367E-01  6.81821E-01 -3.05454E-01
    8993.415     -4.666   1.160  3.91339E-01  6.96450E-01 -3.05110E-01
    8993.775     -4.306   1.200  4.15838E-01  7.11016E-01 -2.95179E-01
    8994.147     -3.934   1.240  4.50665E-01  7.25478E-01 -2.74813E-01
    8994.531     -3.550   1.280  4.91417E-01  7.39809E-01 -2.48391E-01
    8994.927     -3.154   1.320  5.30350E-01  7.54001E-01 -2.23651E-01
    8995.336     -2.745   1.360  5.62308E-01  7.67985E-01 -2.05678E-01
    8995.756     -2.325   1.400  5.91894E-01  7.81772E-01 -1.89878E-01
    8996.189     -1.892   1.440  6.33183E-01  7.95308E-01 -1.62124E-01
    8996.634     -1.447   1.480  6.95856E-01  8.08563E-01 -1.12707E-01
    8997.091     -0.990   1.520  7.76920E-01  8.21527E-01 -4.46070E-02
    8997.561     -0.520   1.560  8.67011E-01  8.34168E-01  3.28436E-02
    8998.042     -0.039   1.600  9.56824E-01  8.46435E-01  1.10389E-01
    8998.536      0.455   1.640  1.03430E+00  8.58337E-01  1.75967E-01
    8999.042      0.961   1.680  1.08099E+00  8.69827E-01  2.11159E-01
    8999.560      1.479   1.720  1.08315E+00  8.80917E-01  2.02228E-01
    9000.091      2.010   1.760  1.05157E+00  8.91558E-01  1.60015E-01
    9000.633      2.552   1.800  1.01844E+00  9.01765E-01  1.16674E-01
    9001.188      3.107   1.840  9.97702E-01  9.11492E-01  8.62094E-02
    9001.755      3.674   1.880  9.80371E-01  9.20756E-01  5.96150E-02
    9002.334      4.253   1.920  9.63270E-01  9.29554E-01  3.37152E-02
    9002.925      4.844   1.960  9.55514E-01  9.37845E-01  1.76691E-02
    9003.529      5.448   2.000  9.66168E-01  9.45669E-01  2.04985E-02
    9004.144      6.063   2.040  9.98529E-01  9.53027E-01  4.55026E-02
    9004.772      6.691   2.080  1.04876E+00  9.59877E-01  8.88833E-02
    9005.412      7.331   2.120  1.10281E+00  9.66266E-01  1.36541E-01
    9006.065      7.984   2.160  1.13694E+00  9.72177E-01  1.64763E-01
    9006.729      8.648   2.200  1.13441E+00  9.77632E-01  1.56781E-01
    9007.406      9.325   2.240  1.10622E+00  9.82639E-01  1.23582E-01
    9008.095     10.014   2.280  1.07759E+00  9.87203E-01  9.03826E-02
    9008.796     10.715   2.320  1.06704E+00  9.91350E-01  7.56938E-02
    9009.509     11.428   2.360  1.08681E+00  9.95069E-01  9.17403E-02
    9010.234     12.153   2.400  1.13970E+00  9.98406E-01  1.41299E-01
    9010.972     12.891   2.440  1.21101E+00  1.00135E+00  2.09664E-01
    9011.722     13.641   2.480  1.27471E+00  1.00395E+00  2.70763E-01
    9012.484     14.403   2.520  1.30756E+00  1.00617E+00  3.01384E-01
    9013.258     15.177   2.560  1.28223E+00  1.00809E+00  2.74143E-01
    9014.044     15.963   2.600  1.22493E+00  1.00968E+00  2.15246E-01
    9014.843     16.762   2.640  1.16281E+00  1.01099E+00  1.51825E-01
    9015.654     17.573   2.680  1.10885E+00  1.01200E+00  9.68504E-02
    9016.477     18.396   2.720  1.06707E+00  1.01277E+00  5.42990E-02
    9017.312     19.231   2.760  1.03624E+00  1.01328E+00  2.29635E-02
    9018.159     20.078   2.800  1.01277E+00  1.01358E+00 -8.04904E-04
    9019.019     20.938   2.840  9.92974E-01  1.01367E+00 -2.06957E-02
    9019.890     21.809   2.880  9.74024E-01  1.01356E+00 -3.95405E-02
    9020.774     22.693   2.920  9.54913E-01  1.01329E+00 -5.83785E-02
    9021.670     23.589   2.960  9.36426E-01  1.01286E+00 -7.64325E-02
    9022.579     24.498   3.000  9.19838E-01  1.01229E+00 -9.24520E-02
    9023.499     25.418   3.040  9.06140E-01  1.01157E+00 -1.05435E-01
    9024.432     26.351   3.080  8.96109E-01  1.01074E+00 -1.14631E-01
    9025.377     27.296   3.120  8.89732E-01  1.00981E+00 -1.20082E-01
    9026.334     28.253   3.160  8.86337E-01  1.00880E+00 -1.22466E-01
    9027.303     29.222   3.200  8.85425E-01  1.00771E+00 -1.22286E-01
    9028.284     30.203   3.240  8.86863E-01  1.00655E+00 -1.19683E-01
    9029.278     31.197   3.280  8.90682E-01  1.00533E+00 -1.14652E-01
    9030.284     32.203   3.320  8.97069E-01  1.00410E+00 -1.07032E-01
    9031.302     33.221   3.360  9.06034E-01  1.00281E+00 -9.67754E-02
    9032.332     34.251   3.400  9.17234E-01  1.00150E+00 -8.42693E-02
    9033.375     35.294   3.440  9.29766E-01  1.00017E+00 -7.04010E-02
    9034.429     36.348   3.480  9.42666E-01  9.98826E-01 -5.61598E-02
    9035.496     37.415   3.520  9.54893E-01  9.97484E-01 -4.25911E-02
    9036.575     38.494   3.560  9.65214E-01  9.96168E-01 -3.09537E-02
    9037.666     39.585   3.600  9.72167E-01  9.94857E-01 -2.26894E-02
    9038.769     40.689   3.640  9.74518E-01  9.93554E-01 -1.90367E-02
    9039.885     41.804   3.680  9.71980E-01  9.92304E-01 -2.03248E-02
    9041.013     42.932   3.720  9.65428E-01  9.91048E-01 -2.56195E-02
    9042.153     44.072   3.760  9.56842E-01  9.89849E-01 -3.30071E-02
    9043.305     45.224   3.800  9.48278E-01  9.88689E-01 -4.04113E-02
    9044.469     46.388   3.840  9.41404E-01  9.87570E-01 -4.61664E-02
    9045.646     47.565   3.880  9.37334E-01  9.86495E-01 -4.91604E-02
    9046.834     48.754   3.920  9.36754E-01  9.85484E-01 -4.87297E-02
    9048.035     49.954   3.960  9.39802E-01  9.84518E-01 -4.47160E-02
    9049.248     51.168   4.000  9.45936E-01  9.83596E-01 -3.76606E-02
    9050.474     52.393   4.040  9.53956E-01  9.82721E-01 -2.87648E-02
    9051.711     53.630   4.080  9.62401E-01  9.81914E-01 -1.95134E-02
    9052.961     54.880   4.120  9.70109E-01  9.81177E-01 -1.10682E-02
    9054.223     56.142   4.160  9.76761E-01  9.80487E-01 -3.72653E-03
    9055.497     57.416   4.200  9.82874E-01  9.79845E-01  3.02941E-03
    9056.783     58.702   4.240  9.89528E-01  9.79272E-01  1.02562E-02
    9058.082     60.001   4.280  9.98051E-01  9.78747E-01  1.93035E-02
    9059.392     61.311   4.320  1.00977E+00  9.78294E-01  3.14739E-02
    9060.715     62.634   4.360  1.02535E+00  9.77911E-01  4.74437E-02
    9062.050     63.969   4.400  1.04432E+00  9.77575E-01  6.67407E-02
    9063.397     65.316   4.440  1.06487E+00  9.77286E-01  8.75879E-02
    9064.757     66.676   4.480  1.08402E+00  9.77063E-01  1.06953E-01
    9066.128     68.047   4.520  1.09810E+00  9.76886E-01  1.21210E-01
    9067.512     69.431   4.560  1.10393E+00  9.76756E-01  1.27171E-01
    9068.908     70.827   4.600  1.09987E+00  9.76689E-01  1.23177E-01
    9070.316     72.235   4.640  1.08650E+00  9.76667E-01  1.09835E-01
    9071.737     73.656   4.680  1.06638E+00  9.76687E-01  8.96912E-02
    9073.169     75.088   4.720  1.04289E+00  9.76746E-01  6.61419E-02
    9074.614     76.533   4.760  1.01918E+00  9.76844E-01  4.23340E-02
    9076.071     77.990   4.800  9.97622E-01  9.76982E-01  2.06400E-02
    9077.540     79.459   4.840  9.79691E-01  9.77158E-01  2.53256E-03
    9079.021     80.940   4.880  9.66036E-01  9.77370E-01 -1.13335E-02
    9080.515     82.434   4.920  9.56601E-01  9.77596E-01 -2.09947E-02
    9082.020     83.939   4.960  9.50882E-01  9.77878E-01 -2.69957E-02
    9083.538     85.457   5.000  9.48035E-01  9.78170E-01 -3.01353E-02
    9085.068     86.987   5.040  9.47355E-01  9.78470E-01 -3.11146E-02
    9086.611     88.530   5.080  9.48457E-01  9.78800E-01 -3.03431E-02
    9088.165     90.084   5.120  9.51153E-01  9.79137E-01 -2.79836E-02
    9089.732     91.651   5.160  9.55280E-01  9.79502E-01 -2.42210E-02
    9091.311     93.230   5.200  9.60521E-01  9.79870E-01 -1.93495E-02
    9092.902     94.821   5.240  9.66509E-01  9.80240E-01 -1.37309E-02
    9094.505     96.424   5.280  9.72852E-01  9.80611E-01 -7.75884E-03
    9096.120     98.039   5.320  9.78949E-01  9.80981E-01 -2.03177E-03
    9097.748     99.667   5.360  9.83916E-01  9.81350E-01  2.56576E-03
    9099.388    101.307   5.400  9.86807E-01  9.81717E-01  5.09017E-03
    9101.040    102.959   5.440  9.86992E-01  9.82079E-01  4.91287E-03
    9102.704    104.623   5.480  9.84347E-01  9.82416E-01  1.93079E-03
    9104.380    106.300   5.520  9.79460E-01  9.82767E-01 -3.30693E-03
    9106.069    107.988   5.560  9.73406E-01  9.83067E-01 -9.66086E-03
    9107.770    109.689   5.600  9.67717E-01  9.83379E-01 -1.56619E-02
    9109.483    111.402   5.640  9.63707E-01  9.83636E-01 -1.99288E-02
    9111.208    113.127   5.680  9.62233E-01  9.83883E-01 -2.16502E-02
    9112.945    114.864   5.720  9.63237E-01  9.84121E-01 -2.08839E-02
    9114.695    116.614   5.760  9.65901E-01  9.84324E-01 -1.84236E-02
    9116.457    118.376   5.800  9.69126E-01  9.84490E-01 -1.53642E-02
    9118.231    120.150   5.840  9.71929E-01  9.84621E-01 -1.26923E-02
    9120.017    121.936   5.880  9.73442E-01  9.84739E-01 -1.12960E-02
    9121.815    123.734   5.920  9.72649E-01  9.84818E-01 -1.21694E-02
    9123.625    125.544   5.960  9.68795E-01  9.84830E-01 -1.60353E-02
    9125.448    127.367   6.000  9.62078E-01  9.84810E-01 -2.27318E-02
