# # comment:                                                     FEFF 9.9.1  
# # Source:
# # Structure
# # Reduced
# # space
# # abc:
# # angles:
# # sites:
# # POT  SCF 100  7.0000   0, screened core-hole, AFOLP (folp(0)= 1.150)
# # Abs   Z=29 Rmt= 1.186 Rnm= 1.301 K  shell
# # Pot 1 Z=38 Rmt= 1.713 Rnm= 1.805
# # Pot 2 Z=29 Rmt= 1.184 Rnm= 1.299
# # Pot 3 Z=74 Rmt= 1.258 Rnm= 1.462
# # Pot 4 Z= 8 Rmt= 1.043 Rnm= 1.121
# # Gam_ch=1.729E+00 H-L exch Vi= 0.000E+00 Vr= 0.000E+00
# # Mu=-8.513E+00eV kf=2.051E+00 Vint=-1.627E+01eV Rs_int= 1.768
# FMS rfms= 9.0000
# # PATH  Rmax=-1.000,  Keep_limit= 0.00, Heap_limit 0.00  Pwcrit= 2.50%
#  S02=0.950  Temp=   0.00  Debye_temp=   0.00  Global_sig2= 0.00000
#  Energy zero shift, vr, vi    0.00000E+00   0.00000E+00
#  Curved wave amplitude ratio filter   4.000%
#     file         sig2 tot  cw amp ratio   deg  nlegs   reff  inp sig2
#     0/   0 paths used
#  xsedge+ 50, used to normalize mu           2.4561E-04
#  -----------------------------------------------------------------------
#  omega    e    k    mu    mu0     chi     @#
    8984.130    -12.323  -1.000  3.71902E-02  5.26947E-02 -1.55045E-02
    8984.429    -12.024  -0.960  3.93751E-02  5.64568E-02 -1.70817E-02
    8984.716    -11.738  -0.920  4.17838E-02  6.06300E-02 -1.88462E-02
    8984.990    -11.463  -0.880  4.44511E-02  6.52741E-02 -2.08229E-02
    8985.252    -11.201  -0.840  4.74186E-02  7.04585E-02 -2.30399E-02
    8985.502    -10.951  -0.800  5.07349E-02  7.62637E-02 -2.55288E-02
    8985.740    -10.714  -0.760  5.44567E-02  8.27816E-02 -2.83250E-02
    8985.965    -10.488  -0.720  5.86488E-02  9.01163E-02 -3.14675E-02
    8986.179    -10.275  -0.680  6.33838E-02  9.83820E-02 -3.49982E-02
    8986.380    -10.074  -0.640  6.87395E-02  1.07699E-01 -3.89597E-02
    8986.569     -9.885  -0.600  7.47935E-02  1.18186E-01 -4.33923E-02
    8986.746     -9.708  -0.560  8.16148E-02  1.29942E-01 -4.83276E-02
    8986.910     -9.543  -0.520  8.92482E-02  1.43028E-01 -5.37797E-02
    8987.063     -9.391  -0.480  9.76949E-02  1.57428E-01 -5.97327E-02
    8987.203     -9.251  -0.440  1.06889E-01  1.73016E-01 -6.61269E-02
    8987.331     -9.123  -0.400  1.16676E-01  1.89523E-01 -7.28471E-02
    8987.447     -9.007  -0.360  1.26807E-01  2.06528E-01 -7.97203E-02
    8987.550     -8.903  -0.320  1.36953E-01  2.23481E-01 -8.65281E-02
    8987.642     -8.812  -0.280  1.46740E-01  2.39773E-01 -9.30331E-02
    8987.721     -8.732  -0.240  1.55806E-01  2.54818E-01 -9.90117E-02
    8987.788     -8.665  -0.200  1.63841E-01  2.68120E-01 -1.04280E-01
    8987.843     -8.610  -0.160  1.70616E-01  2.79318E-01 -1.08702E-01
    8987.886     -8.568  -0.120  1.75985E-01  2.88175E-01 -1.12190E-01
    8987.916     -8.537  -0.080  1.79867E-01  2.94560E-01 -1.14693E-01
    8987.940     -8.513   0.000  1.83009E-01  2.99693E-01 -1.16683E-01
    8987.995     -8.458   0.120  1.89800E-01  3.11266E-01 -1.21466E-01
    8988.038     -8.415   0.160  1.95106E-01  3.20287E-01 -1.25181E-01
    8988.093     -8.361   0.200  2.01815E-01  3.31805E-01 -1.29990E-01
    8988.160     -8.293   0.240  2.09798E-01  3.45679E-01 -1.35881E-01
    8988.239     -8.214   0.280  2.18778E-01  3.61649E-01 -1.42871E-01
    8988.331     -8.123   0.320  2.28339E-01  3.79355E-01 -1.51017E-01
    8988.434     -8.019   0.360  2.37848E-01  3.98280E-01 -1.60432E-01
    8988.550     -7.903   0.400  2.46594E-01  4.17913E-01 -1.71318E-01
    8988.678     -7.775   0.440  2.53813E-01  4.37789E-01 -1.83976E-01
    8988.818     -7.635   0.480  2.58831E-01  4.57526E-01 -1.98696E-01
    8988.971     -7.483   0.520  2.61174E-01  4.76916E-01 -2.15742E-01
    8989.135     -7.318   0.560  2.60499E-01  4.95789E-01 -2.35290E-01
    8989.312     -7.141   0.600  2.56860E-01  5.14156E-01 -2.57296E-01
    8989.501     -6.952   0.640  2.50903E-01  5.32065E-01 -2.81162E-01
    8989.702     -6.751   0.680  2.43924E-01  5.49537E-01 -3.05613E-01
    8989.916     -6.538   0.720  2.37755E-01  5.66686E-01 -3.28931E-01
    8990.141     -6.312   0.760  2.34033E-01  5.83563E-01 -3.49530E-01
    8990.379     -6.075   0.800  2.33907E-01  6.00229E-01 -3.66322E-01
    8990.629     -5.825   0.840  2.37928E-01  6.16735E-01 -3.78807E-01
    8990.891     -5.562   0.880  2.46123E-01  6.33136E-01 -3.87014E-01
    8991.165     -5.288   0.920  2.57691E-01  6.49417E-01 -3.91726E-01
    8991.452     -5.002   0.960  2.71009E-01  6.65631E-01 -3.94622E-01
    8991.750     -4.703   1.000  2.84234E-01  6.81720E-01 -3.97486E-01
    8992.061     -4.392   1.040  2.97224E-01  6.97720E-01 -4.00496E-01
    8992.384     -4.069   1.080  3.11746E-01  7.13598E-01 -4.01852E-01
    8992.720     -3.734   1.120  3.29525E-01  7.29315E-01 -3.99790E-01
    8993.067     -3.386   1.160  3.50547E-01  7.44869E-01 -3.94322E-01
    8993.427     -3.027   1.200  3.74360E-01  7.60194E-01 -3.85833E-01
    8993.799     -2.655   1.240  4.02445E-01  7.75281E-01 -3.72836E-01
    8994.183     -2.271   1.280  4.36170E-01  7.90100E-01 -3.53931E-01
    8994.579     -1.874   1.320  4.75782E-01  8.04579E-01 -3.28796E-01
    8994.987     -1.466   1.360  5.26409E-01  8.18725E-01 -2.92315E-01
    8995.408     -1.045   1.400  5.96376E-01  8.32485E-01 -2.36109E-01
    8995.841     -0.613   1.440  6.78565E-01  8.45828E-01 -1.67262E-01
    8996.286     -0.168   1.480  7.34317E-01  8.58742E-01 -1.24425E-01
    8996.743      0.290   1.520  7.30497E-01  8.71175E-01 -1.40679E-01
    8997.212      0.759   1.560  6.92690E-01  8.83098E-01 -1.90408E-01
    8997.694      1.241   1.600  6.67760E-01  8.94523E-01 -2.26762E-01
    8998.188      1.734   1.640  6.77688E-01  9.05402E-01 -2.27714E-01
    8998.694      2.240   1.680  7.27054E-01  9.15752E-01 -1.88698E-01
    8999.212      2.759   1.720  8.19222E-01  9.25528E-01 -1.06306E-01
    8999.742      3.289   1.760  9.57790E-01  9.34748E-01  2.30421E-02
    9000.285      3.831   1.800  1.12393E+00  9.43413E-01  1.80514E-01
    9000.840      4.386   1.840  1.25905E+00  9.51522E-01  3.07529E-01
    9001.406      4.953   1.880  1.31522E+00  9.59060E-01  3.56158E-01
    9001.986      5.532   1.920  1.29851E+00  9.66028E-01  3.32479E-01
    9002.577      6.123   1.960  1.24542E+00  9.72474E-01  2.72948E-01
    9003.180      6.727   2.000  1.19187E+00  9.78383E-01  2.13485E-01
    9003.796      7.343   2.040  1.16410E+00  9.83764E-01  1.80333E-01
    9004.424      7.971   2.080  1.17307E+00  9.88665E-01  1.84406E-01
    9005.064      8.611   2.120  1.21488E+00  9.93055E-01  2.21821E-01
    9005.716      9.263   2.160  1.28542E+00  9.97003E-01  2.88414E-01
    9006.381      9.927   2.200  1.38427E+00  1.00048E+00  3.83790E-01
    9007.057     10.604   2.240  1.48520E+00  1.00356E+00  4.81635E-01
    9007.746     11.293   2.280  1.52656E+00  1.00621E+00  5.20350E-01
    9008.447     11.994   2.320  1.46852E+00  1.00850E+00  4.60013E-01
    9009.161     12.707   2.360  1.34865E+00  1.01041E+00  3.38236E-01
    9009.886     13.433   2.400  1.22703E+00  1.01201E+00  2.15022E-01
    9010.624     14.170   2.440  1.12316E+00  1.01328E+00  1.09878E-01
    9011.373     14.920   2.480  1.05658E+00  1.01427E+00  4.23146E-02
    9012.135     15.682   2.520  1.02825E+00  1.01499E+00  1.32605E-02
    9012.910     16.456   2.560  1.01992E+00  1.01547E+00  4.44723E-03
    9013.696     17.243   2.600  1.02084E+00  1.01571E+00  5.12329E-03
    9014.494     18.041   2.640  1.02458E+00  1.01575E+00  8.82717E-03
    9015.305     18.852   2.680  1.02740E+00  1.01561E+00  1.17950E-02
    9016.128     19.675   2.720  1.02687E+00  1.01530E+00  1.15736E-02
    9016.963     20.510   2.760  1.02116E+00  1.01484E+00  6.32330E-03
    9017.811     21.357   2.800  1.00950E+00  1.01425E+00 -4.74816E-03
    9018.670     22.217   2.840  9.92741E-01  1.01356E+00 -2.08144E-02
    9019.542     23.089   2.880  9.72859E-01  1.01275E+00 -3.98944E-02
    9020.426     23.973   2.920  9.52127E-01  1.01187E+00 -5.97405E-02
    9021.322     24.869   2.960  9.32827E-01  1.01090E+00 -7.80777E-02
    9022.230     25.777   3.000  9.16433E-01  1.00991E+00 -9.34803E-02
    9023.151     26.697   3.040  9.03476E-01  1.00886E+00 -1.05382E-01
    9024.083     27.630   3.080  8.94193E-01  1.00777E+00 -1.13572E-01
    9025.028     28.575   3.120  8.88501E-01  1.00666E+00 -1.18161E-01
    9025.985     29.532   3.160  8.86048E-01  1.00555E+00 -1.19504E-01
    9026.955     30.501   3.200  8.86721E-01  1.00444E+00 -1.17721E-01
    9027.936     31.483   3.240  8.90416E-01  1.00333E+00 -1.12919E-01
    9028.930     32.476   3.280  8.96667E-01  1.00225E+00 -1.05587E-01
    9029.936     33.482   3.320  9.04620E-01  1.00118E+00 -9.65624E-02
    9030.954     34.500   3.360  9.13103E-01  1.00014E+00 -8.70417E-02
    9031.984     35.530   3.400  9.20579E-01  9.99122E-01 -7.85424E-02
    9033.026     36.573   3.440  9.25472E-01  9.98160E-01 -7.26880E-02
    9034.081     37.627   3.480  9.26744E-01  9.97242E-01 -7.04976E-02
    9035.148     38.694   3.520  9.24705E-01  9.96367E-01 -7.16619E-02
    9036.227     39.773   3.560  9.20721E-01  9.95559E-01 -7.48381E-02
    9037.318     40.864   3.600  9.16685E-01  9.94797E-01 -7.81119E-02
    9038.421     41.968   3.640  9.14394E-01  9.94084E-01 -7.96901E-02
    9039.537     43.083   3.680  9.15085E-01  9.93441E-01 -7.83559E-02
    9040.665     44.211   3.720  9.18965E-01  9.92849E-01 -7.38840E-02
    9041.804     45.351   3.760  9.25695E-01  9.92349E-01 -6.66543E-02
    9042.957     46.503   3.800  9.34324E-01  9.91879E-01 -5.75545E-02
    9044.121     47.668   3.840  9.43710E-01  9.91480E-01 -4.77700E-02
    9045.297     48.844   3.880  9.52847E-01  9.91156E-01 -3.83089E-02
    9046.486     50.033   3.920  9.61199E-01  9.90905E-01 -2.97058E-02
    9047.687     51.234   3.960  9.68759E-01  9.90703E-01 -2.19444E-02
    9048.900     52.447   4.000  9.76012E-01  9.90552E-01 -1.45406E-02
    9050.125     53.672   4.040  9.83756E-01  9.90493E-01 -6.73668E-03
    9051.363     54.910   4.080  9.92715E-01  9.90462E-01  2.25310E-03
    9052.613     56.159   4.120  1.00348E+00  9.90500E-01  1.29793E-02
    9053.874     57.421   4.160  1.01631E+00  9.90607E-01  2.57060E-02
    9055.149     58.695   4.200  1.03084E+00  9.90739E-01  4.00993E-02
    9056.435     59.981   4.240  1.04615E+00  9.90959E-01  5.51896E-02
    9057.733     61.280   4.280  1.06077E+00  9.91200E-01  6.95730E-02
    9059.044     62.590   4.320  1.07325E+00  9.91483E-01  8.17656E-02
    9060.367     63.913   4.360  1.08252E+00  9.91830E-01  9.06896E-02
    9061.702     65.248   4.400  1.08808E+00  9.92195E-01  9.58847E-02
    9063.049     66.596   4.440  1.09011E+00  9.92619E-01  9.74940E-02
    9064.408     67.955   4.480  1.08876E+00  9.93057E-01  9.57057E-02
    9065.780     69.327   4.520  1.08432E+00  9.93529E-01  9.07862E-02
    9067.164     70.710   4.560  1.07726E+00  9.94012E-01  8.32493E-02
    9068.560     72.106   4.600  1.06859E+00  9.94527E-01  7.40676E-02
    9069.968     73.514   4.640  1.05966E+00  9.95073E-01  6.45886E-02
    9071.388     74.935   4.680  1.05194E+00  9.95625E-01  5.63188E-02
    9072.821     76.367   4.720  1.04666E+00  9.96183E-01  5.04738E-02
    9074.266     77.812   4.760  1.04437E+00  9.96763E-01  4.76023E-02
    9075.722     79.269   4.800  1.04465E+00  9.97324E-01  4.73265E-02
    9077.192     80.738   4.840  1.04621E+00  9.97905E-01  4.83028E-02
    9078.673     82.220   4.880  1.04707E+00  9.98464E-01  4.86031E-02
    9080.166     83.713   4.920  1.04547E+00  9.99041E-01  4.64297E-02
    9081.672     85.219   4.960  1.04037E+00  9.99591E-01  4.07751E-02
    9083.190     86.737   5.000  1.03176E+00  1.00013E+00  3.16309E-02
    9084.720     88.267   5.040  1.02038E+00  1.00064E+00  1.97316E-02
    9086.262     89.809   5.080  1.00729E+00  1.00115E+00  6.14964E-03
    9087.817     91.363   5.120  9.93700E-01  1.00161E+00 -7.91449E-03
    9089.384     92.930   5.160  9.80731E-01  1.00207E+00 -2.13403E-02
    9090.962     94.509   5.200  9.69218E-01  1.00249E+00 -3.32765E-02
    9092.553     96.100   5.240  9.59739E-01  1.00290E+00 -4.31642E-02
    9094.157     97.703   5.280  9.52539E-01  1.00325E+00 -5.07137E-02
    9095.772     99.319   5.320  9.47741E-01  1.00359E+00 -5.58447E-02
    9097.400    100.946   5.360  9.45273E-01  1.00388E+00 -5.86070E-02
    9099.040    102.586   5.400  9.44994E-01  1.00413E+00 -5.91393E-02
    9100.692    104.238   5.440  9.46763E-01  1.00434E+00 -5.75802E-02
    9102.356    105.902   5.480  9.50426E-01  1.00449E+00 -5.40646E-02
    9104.032    107.579   5.520  9.55770E-01  1.00462E+00 -4.88503E-02
    9105.721    109.267   5.560  9.62164E-01  1.00471E+00 -4.25448E-02
    9107.422    110.968   5.600  9.68657E-01  1.00476E+00 -3.61011E-02
    9109.134    112.681   5.640  9.74125E-01  1.00476E+00 -3.06394E-02
    9110.860    114.406   5.680  9.77639E-01  1.00473E+00 -2.70891E-02
    9112.597    116.144   5.720  9.78763E-01  1.00463E+00 -2.58648E-02
    9114.347    117.893   5.760  9.77868E-01  1.00451E+00 -2.66396E-02
    9116.108    119.655   5.800  9.75861E-01  1.00432E+00 -2.84627E-02
    9117.882    121.429   5.840  9.74055E-01  1.00413E+00 -3.00702E-02
    9119.668    123.215   5.880  9.73516E-01  1.00386E+00 -3.03487E-02
    9121.467    125.013   5.920  9.74727E-01  1.00359E+00 -2.88628E-02
    9123.277    126.824   5.960  9.77183E-01  1.00325E+00 -2.60684E-02
    9125.100    128.646   6.000  9.80104E-01  1.00288E+00 -2.27732E-02
