# # comment:                                                     FEFF 9.9.1  
# # Source:
# # Structure
# # Reduced
# # space
# # abc:
# # angles:
# # sites:
# # POT  SCF 100  7.0000   0, screened core-hole, AFOLP (folp(0)= 1.150)
# # Abs   Z=29 Rmt= 1.337 Rnm= 1.399 K  shell
# # Pot 1 Z= 3 Rmt= 1.252 Rnm= 1.312
# # Pot 2 Z=29 Rmt= 1.330 Rnm= 1.399
# # Pot 3 Z=15 Rmt= 0.944 Rnm= 1.155
# # Pot 4 Z= 8 Rmt= 0.937 Rnm= 1.041
# # Gam_ch=1.729E+00 H-L exch Vi= 0.000E+00 Vr= 0.000E+00
# # Mu=-6.542E+00eV kf=2.366E+00 Vint=-1.767E+01eV Rs_int= 1.533
# FMS rfms= 9.0000
# # PATH  Rmax=-1.000,  Keep_limit= 0.00, Heap_limit 0.00  Pwcrit= 2.50%
#  S02=0.950  Temp=   0.00  Debye_temp=   0.00  Global_sig2= 0.00000
#  Energy zero shift, vr, vi    0.00000E+00   0.00000E+00
#  Curved wave amplitude ratio filter   4.000%
#     file         sig2 tot  cw amp ratio   deg  nlegs   reff  inp sig2
#     0/   0 paths used
#  xsedge+ 50, used to normalize mu           2.4685E-04
#  -----------------------------------------------------------------------
#  omega    e    k    mu    mu0     chi     @#
    8983.662    -10.352  -1.000  5.05140E-02  5.45238E-02 -4.00985E-03
    8983.961    -10.053  -0.960  5.38762E-02  5.85057E-02 -4.62944E-03
    8984.248     -9.766  -0.920  5.75829E-02  6.29340E-02 -5.35101E-03
    8984.522     -9.492  -0.880  6.16828E-02  6.78750E-02 -6.19219E-03
    8984.784     -9.230  -0.840  6.62322E-02  7.34059E-02 -7.17370E-03
    8985.034     -8.980  -0.800  7.12964E-02  7.96162E-02 -8.31981E-03
    8985.272     -8.742  -0.760  7.69503E-02  8.66089E-02 -9.65868E-03
    8985.497     -8.517  -0.720  8.32779E-02  9.45003E-02 -1.12225E-02
    8985.711     -8.303  -0.680  9.03716E-02  1.03419E-01 -1.30470E-02
    8985.912     -8.102  -0.640  9.83288E-02  1.13499E-01 -1.51705E-02
    8986.101     -7.913  -0.600  1.07245E-01  1.24876E-01 -1.76312E-02
    8986.278     -7.736  -0.560  1.17200E-01  1.37662E-01 -2.04622E-02
    8986.442     -7.572  -0.520  1.28242E-01  1.51926E-01 -2.36840E-02
    8986.595     -7.419  -0.480  1.40360E-01  1.67654E-01 -2.72938E-02
    8986.735     -7.279  -0.440  1.53454E-01  1.84707E-01 -3.12534E-02
    8986.863     -7.151  -0.400  1.67307E-01  2.02787E-01 -3.54794E-02
    8986.979     -7.035  -0.360  1.81582E-01  2.21424E-01 -3.98414E-02
    8987.082     -6.932  -0.320  1.95834E-01  2.40007E-01 -4.41732E-02
    8987.174     -6.840  -0.280  2.09563E-01  2.57860E-01 -4.82971E-02
    8987.253     -6.761  -0.240  2.22281E-01  2.74333E-01 -5.20521E-02
    8987.320     -6.694  -0.200  2.33567E-01  2.88883E-01 -5.53162E-02
    8987.375     -6.639  -0.160  2.43103E-01  3.01116E-01 -5.80132E-02
    8987.418     -6.596  -0.120  2.50672E-01  3.10780E-01 -6.01081E-02
    8987.448     -6.566  -0.080  2.56142E-01  3.17738E-01 -6.15955E-02
    8987.472     -6.542   0.000  2.60541E-01  3.23325E-01 -6.27847E-02
    8987.527     -6.487   0.120  2.70349E-01  3.35914E-01 -6.55648E-02
    8987.570     -6.444   0.160  2.78060E-01  3.45694E-01 -6.76344E-02
    8987.625     -6.389   0.200  2.87966E-01  3.58166E-01 -7.01997E-02
    8987.692     -6.322   0.240  2.99974E-01  3.73147E-01 -7.31729E-02
    8987.771     -6.243   0.280  3.13907E-01  3.90322E-01 -7.64150E-02
    8987.863     -6.151   0.320  3.29448E-01  4.09233E-01 -7.97851E-02
    8987.966     -6.048   0.360  3.46183E-01  4.29291E-01 -8.31080E-02
    8988.082     -5.932   0.400  3.63622E-01  4.49895E-01 -8.62722E-02
    8988.210     -5.804   0.440  3.81310E-01  4.70519E-01 -8.92090E-02
    8988.350     -5.664   0.480  3.98734E-01  4.90700E-01 -9.19665E-02
    8988.503     -5.511   0.520  4.15446E-01  5.10171E-01 -9.47247E-02
    8988.667     -5.347   0.560  4.31023E-01  5.28829E-01 -9.78061E-02
    8988.844     -5.170   0.600  4.45031E-01  5.46626E-01 -1.01595E-01
    8989.033     -4.981   0.640  4.57277E-01  5.63644E-01 -1.06368E-01
    8989.234     -4.780   0.680  4.67729E-01  5.79951E-01 -1.12222E-01
    8989.447     -4.566   0.720  4.76594E-01  5.95683E-01 -1.19089E-01
    8989.673     -4.341   0.760  4.84405E-01  6.10917E-01 -1.26513E-01
    8989.911     -4.103   0.800  4.92908E-01  6.25783E-01 -1.32875E-01
    8990.161     -3.853   0.840  5.05495E-01  6.40335E-01 -1.34840E-01
    8990.423     -3.591   0.880  5.26270E-01  6.54634E-01 -1.28364E-01
    8990.697     -3.317   0.920  5.57244E-01  6.68768E-01 -1.11524E-01
    8990.984     -3.030   0.960  5.95045E-01  6.82771E-01 -8.77266E-02
    8991.282     -2.732   1.000  6.30037E-01  6.96646E-01 -6.66091E-02
    8991.593     -2.421   1.040  6.51002E-01  7.10426E-01 -5.94243E-02
    8991.916     -2.098   1.080  6.54396E-01  7.24117E-01 -6.97213E-02
    8992.252     -1.762   1.120  6.47998E-01  7.37717E-01 -8.97190E-02
    8992.599     -1.415   1.160  6.43465E-01  7.51218E-01 -1.07753E-01
    8992.959     -1.055   1.200  6.49426E-01  7.64627E-01 -1.15201E-01
    8993.331     -0.683   1.240  6.70551E-01  7.77928E-01 -1.07377E-01
    8993.715     -0.299   1.280  7.06073E-01  7.91081E-01 -8.50077E-02
    8994.111      0.097   1.320  7.50790E-01  8.04083E-01 -5.32933E-02
    8994.519      0.505   1.360  8.01933E-01  8.16910E-01 -1.49765E-02
    8994.940      0.926   1.400  8.61019E-01  8.29534E-01  3.14850E-02
    8995.373      1.359   1.440  9.27791E-01  8.41929E-01  8.58616E-02
    8995.818      1.804   1.480  1.00072E+00  8.54086E-01  1.46632E-01
    8996.275      2.261   1.520  1.07646E+00  8.65955E-01  2.10509E-01
    8996.744      2.730   1.560  1.14796E+00  8.77527E-01  2.70430E-01
    8997.226      3.212   1.600  1.21274E+00  8.88772E-01  3.23966E-01
    8997.720      3.706   1.640  1.27559E+00  8.99661E-01  3.75924E-01
    8998.226      4.212   1.680  1.33623E+00  9.10184E-01  4.26042E-01
    8998.744      4.730   1.720  1.38110E+00  9.20313E-01  4.60784E-01
    8999.274      5.260   1.760  1.39100E+00  9.30022E-01  4.60974E-01
    8999.817      5.803   1.800  1.35094E+00  9.39323E-01  4.11618E-01
    9000.371      6.358   1.840  1.27218E+00  9.48169E-01  3.24013E-01
    9000.938      6.924   1.880  1.18994E+00  9.56576E-01  2.33366E-01
    9001.518      7.504   1.920  1.13107E+00  9.64522E-01  1.66551E-01
    9002.109      8.095   1.960  1.10175E+00  9.72001E-01  1.29749E-01
    9002.712      8.698   2.000  1.09304E+00  9.78992E-01  1.14050E-01
    9003.328      9.314   2.040  1.09181E+00  9.85515E-01  1.06291E-01
    9003.956      9.942   2.080  1.08768E+00  9.91550E-01  9.61331E-02
    9004.596     10.582   2.120  1.07468E+00  9.97119E-01  7.75613E-02
    9005.248     11.234   2.160  1.05264E+00  1.00223E+00  5.04185E-02
    9005.913     11.899   2.200  1.02805E+00  1.00687E+00  2.11733E-02
    9006.589     12.575   2.240  1.01064E+00  1.01104E+00 -4.02311E-04
    9007.278     13.264   2.280  1.00605E+00  1.01479E+00 -8.73986E-03
    9007.979     13.965   2.320  1.00864E+00  1.01811E+00 -9.46566E-03
    9008.692     14.679   2.360  1.00951E+00  1.02099E+00 -1.14798E-02
    9009.418     15.404   2.400  1.00598E+00  1.02346E+00 -1.74785E-02
    9010.156     16.142   2.440  9.98832E-01  1.02555E+00 -2.67213E-02
    9010.905     16.891   2.480  9.89410E-01  1.02727E+00 -3.78641E-02
    9011.667     17.653   2.520  9.79887E-01  1.02863E+00 -4.87453E-02
    9012.442     18.428   2.560  9.70563E-01  1.02966E+00 -5.90925E-02
    9013.228     19.214   2.600  9.60879E-01  1.03036E+00 -6.94762E-02
    9014.026     20.013   2.640  9.51396E-01  1.03076E+00 -7.93675E-02
    9014.837     20.823   2.680  9.42773E-01  1.03091E+00 -8.81367E-02
    9015.660     21.646   2.720  9.33656E-01  1.03078E+00 -9.71253E-02
    9016.495     22.481   2.760  9.23443E-01  1.03041E+00 -1.06967E-01
    9017.343     23.329   2.800  9.16193E-01  1.02983E+00 -1.13632E-01
    9018.202     24.188   2.840  9.12939E-01  1.02904E+00 -1.16099E-01
    9019.074     25.060   2.880  9.13311E-01  1.02808E+00 -1.14767E-01
    9019.958     25.944   2.920  9.16815E-01  1.02695E+00 -1.10140E-01
    9020.854     26.840   2.960  9.22456E-01  1.02568E+00 -1.03220E-01
    9021.762     27.748   3.000  9.29326E-01  1.02430E+00 -9.49699E-02
    9022.683     28.669   3.040  9.36525E-01  1.02280E+00 -8.62734E-02
    9023.615     29.602   3.080  9.43719E-01  1.02119E+00 -7.74723E-02
    9024.560     30.546   3.120  9.51317E-01  1.01953E+00 -6.82096E-02
    9025.517     31.503   3.160  9.59851E-01  1.01781E+00 -5.79602E-02
    9026.487     32.473   3.200  9.69267E-01  1.01603E+00 -4.67637E-02
    9027.468     33.454   3.240  9.79295E-01  1.01423E+00 -3.49395E-02
    9028.462     34.448   3.280  9.89121E-01  1.01243E+00 -2.33083E-02
    9029.468     35.454   3.320  9.97576E-01  1.01060E+00 -1.30241E-02
    9030.486     36.472   3.360  1.00375E+00  1.00879E+00 -5.04396E-03
    9031.516     37.502   3.400  1.00720E+00  1.00699E+00  2.09180E-04
    9032.558     38.544   3.440  1.00809E+00  1.00520E+00  2.89039E-03
    9033.613     39.599   3.480  1.00727E+00  1.00347E+00  3.79818E-03
    9034.680     40.666   3.520  1.00586E+00  1.00178E+00  4.07626E-03
    9035.759     41.745   3.560  1.00493E+00  1.00014E+00  4.79202E-03
    9036.850     42.836   3.600  1.00523E+00  9.98569E-01  6.66253E-03
    9037.953     43.939   3.640  1.00708E+00  9.97070E-01  1.00061E-02
    9039.069     45.055   3.680  1.01053E+00  9.95626E-01  1.49012E-02
    9040.196     46.183   3.720  1.01558E+00  9.94260E-01  2.13186E-02
    9041.336     47.323   3.760  1.02217E+00  9.92976E-01  2.91970E-02
    9042.489     48.475   3.800  1.03015E+00  9.91797E-01  3.83499E-02
    9043.653     49.639   3.840  1.03898E+00  9.90703E-01  4.82811E-02
    9044.829     50.816   3.880  1.04790E+00  9.89695E-01  5.82029E-02
    9046.018     52.004   3.920  1.05605E+00  9.88793E-01  6.72533E-02
    9047.219     53.205   3.960  1.06265E+00  9.87959E-01  7.46939E-02
    9048.432     54.418   4.000  1.06725E+00  9.87256E-01  7.99927E-02
    9049.657     55.644   4.040  1.06961E+00  9.86642E-01  8.29725E-02
    9050.895     56.881   4.080  1.06979E+00  9.86115E-01  8.36775E-02
    9052.145     58.131   4.120  1.06795E+00  9.85698E-01  8.22476E-02
    9053.406     59.393   4.160  1.06415E+00  9.85367E-01  7.87810E-02
    9054.681     60.667   4.200  1.05846E+00  9.85124E-01  7.33347E-02
    9055.967     61.953   4.240  1.05085E+00  9.84989E-01  6.58664E-02
    9057.265     63.251   4.280  1.04147E+00  9.84939E-01  5.65278E-02
    9058.576     64.562   4.320  1.03079E+00  9.84974E-01  4.58171E-02
    9059.899     65.885   4.360  1.01956E+00  9.85113E-01  3.44505E-02
    9061.234     67.220   4.400  1.00845E+00  9.85313E-01  2.31389E-02
    9062.581     68.567   4.440  9.97920E-01  9.85612E-01  1.23080E-02
    9063.940     69.926   4.480  9.87880E-01  9.85968E-01  1.91212E-03
    9065.312     71.298   4.520  9.77993E-01  9.86399E-01 -8.40523E-03
    9066.696     72.682   4.560  9.67889E-01  9.86902E-01 -1.90125E-02
    9068.092     74.078   4.600  9.57399E-01  9.87454E-01 -3.00547E-02
    9069.500     75.486   4.640  9.46811E-01  9.88053E-01 -4.12416E-02
    9070.920     76.906   4.680  9.36807E-01  9.88718E-01 -5.19110E-02
    9072.353     78.339   4.720  9.28094E-01  9.89426E-01 -6.13326E-02
    9073.797     79.784   4.760  9.21319E-01  9.90173E-01 -6.88537E-02
    9075.254     81.241   4.800  9.16974E-01  9.90933E-01 -7.39594E-02
    9076.724     82.710   4.840  9.15416E-01  9.91748E-01 -7.63319E-02
    9078.205     84.191   4.880  9.16672E-01  9.92553E-01 -7.58807E-02
    9079.698     85.684   4.920  9.20637E-01  9.93406E-01 -7.27690E-02
    9081.204     87.190   4.960  9.26841E-01  9.94240E-01 -6.73990E-02
    9082.722     88.708   5.000  9.34889E-01  9.95075E-01 -6.01863E-02
    9084.252     90.238   5.040  9.44418E-01  9.95929E-01 -5.15111E-02
    9085.794     91.780   5.080  9.55045E-01  9.96756E-01 -4.17108E-02
    9087.349     93.335   5.120  9.66396E-01  9.97552E-01 -3.11559E-02
    9088.916     94.902   5.160  9.78018E-01  9.98337E-01 -2.03183E-02
    9090.494     96.480   5.200  9.89389E-01  9.99110E-01 -9.72076E-03
    9092.085     98.071   5.240  9.99965E-01  9.99824E-01  1.41205E-04
    9093.689     99.675   5.280  1.00952E+00  1.00052E+00  9.00065E-03
    9095.304    101.290   5.320  1.01795E+00  1.00115E+00  1.67988E-02
    9096.932    102.918   5.360  1.02528E+00  1.00176E+00  2.35187E-02
    9098.572    104.558   5.400  1.03135E+00  1.00230E+00  2.90449E-02
    9100.224    106.210   5.440  1.03593E+00  1.00280E+00  3.31297E-02
    9101.888    107.874   5.480  1.03868E+00  1.00322E+00  3.54560E-02
    9103.564    109.550   5.520  1.03940E+00  1.00359E+00  3.58018E-02
    9105.253    111.239   5.560  1.03814E+00  1.00389E+00  3.42475E-02
    9106.953    112.940   5.600  1.03537E+00  1.00411E+00  3.12569E-02
    9108.666    114.653   5.640  1.03181E+00  1.00428E+00  2.75283E-02
    9110.392    116.378   5.680  1.02807E+00  1.00438E+00  2.36967E-02
    9112.129    118.115   5.720  1.02452E+00  1.00439E+00  2.01304E-02
    9113.879    119.865   5.760  1.02123E+00  1.00433E+00  1.69024E-02
    9115.640    121.626   5.800  1.01806E+00  1.00422E+00  1.38460E-02
    9117.414    123.400   5.840  1.01465E+00  1.00400E+00  1.06434E-02
    9119.200    125.186   5.880  1.01073E+00  1.00374E+00  6.99025E-03
    9120.999    126.985   5.920  1.00624E+00  1.00343E+00  2.81171E-03
    9122.809    128.795   5.960  1.00140E+00  1.00301E+00 -1.60831E-03
    9124.632    130.618   6.000  9.96734E-01  1.00250E+00 -5.76522E-03
