# # comment:                                                     FEFF 9.9.1  
# # Source:
# # Structure
# # Reduced
# # space
# # abc:
# # angles:
# # sites:
# # POT  SCF 100  7.0000   0, screened core-hole, AFOLP (folp(0)= 1.150)
# # Abs   Z=29 Rmt= 1.311 Rnm= 1.382 K  shell
# # Pot 1 Z= 3 Rmt= 1.289 Rnm= 1.346
# # Pot 2 Z=73 Rmt= 1.321 Rnm= 1.463
# # Pot 3 Z=29 Rmt= 1.311 Rnm= 1.382
# # Pot 4 Z= 8 Rmt= 0.993 Rnm= 1.075
# # Gam_ch=1.729E+00 H-L exch Vi= 0.000E+00 Vr= 0.000E+00
# # Mu=-5.698E+00eV kf=2.222E+00 Vint=-1.681E+01eV Rs_int= 1.632
# FMS rfms= 9.0000
# # PATH  Rmax=-1.000,  Keep_limit= 0.00, Heap_limit 0.00  Pwcrit= 2.50%
#  S02=0.950  Temp=   0.00  Debye_temp=   0.00  Global_sig2= 0.00000
#  Energy zero shift, vr, vi    0.00000E+00   0.00000E+00
#  Curved wave amplitude ratio filter   4.000%
#     file         sig2 tot  cw amp ratio   deg  nlegs   reff  inp sig2
#     0/   0 paths used
#  xsedge+ 50, used to normalize mu           2.4560E-04
#  -----------------------------------------------------------------------
#  omega    e    k    mu    mu0     chi     @#
    8983.692     -9.508  -1.000  6.24653E-02  5.90745E-02  3.39079E-03
    8983.991     -9.209  -0.960  6.70008E-02  6.35211E-02  3.47969E-03
    8984.278     -8.923  -0.920  7.19988E-02  6.84764E-02  3.52238E-03
    8984.552     -8.648  -0.880  7.75173E-02  7.40164E-02  3.50086E-03
    8984.814     -8.386  -0.840  8.36223E-02  8.02301E-02  3.39224E-03
    8985.064     -8.136  -0.800  9.03882E-02  8.72205E-02  3.16770E-03
    8985.302     -7.898  -0.760  9.78979E-02  9.51063E-02  2.79160E-03
    8985.527     -7.673  -0.720  1.06242E-01  1.04022E-01  2.22068E-03
    8985.741     -7.460  -0.680  1.15518E-01  1.14114E-01  1.40398E-03
    8985.942     -7.258  -0.640  1.25825E-01  1.25541E-01  2.83921E-04
    8986.131     -7.069  -0.600  1.37255E-01  1.38456E-01 -1.20054E-03
    8986.308     -6.893  -0.560  1.49883E-01  1.52991E-01 -3.10732E-03
    8986.472     -6.728  -0.520  1.63745E-01  1.69226E-01 -5.48036E-03
    8986.625     -6.576  -0.480  1.78811E-01  1.87145E-01 -8.33400E-03
    8986.765     -6.435  -0.440  1.94956E-01  2.06591E-01 -1.16350E-02
    8986.893     -6.307  -0.400  2.11933E-01  2.27221E-01 -1.52876E-02
    8987.009     -6.192  -0.360  2.29364E-01  2.48496E-01 -1.91319E-02
    8987.112     -6.088  -0.320  2.46754E-01  2.69715E-01 -2.29608E-02
    8987.204     -5.996  -0.280  2.63543E-01  2.90101E-01 -2.65580E-02
    8987.283     -5.917  -0.240  2.79168E-01  3.08909E-01 -2.97410E-02
    8987.350     -5.850  -0.200  2.93126E-01  3.25519E-01 -3.23928E-02
    8987.405     -5.795  -0.160  3.05008E-01  3.39478E-01 -3.44700E-02
    8987.447     -5.753  -0.120  3.14514E-01  3.50503E-01 -3.59886E-02
    8987.478     -5.722  -0.080  3.21438E-01  3.58439E-01 -3.70007E-02
    8987.502     -5.698   0.000  3.27062E-01  3.64811E-01 -3.77483E-02
    8987.557     -5.643   0.120  3.39645E-01  3.79180E-01 -3.95345E-02
    8987.600     -5.600   0.160  3.49573E-01  3.90310E-01 -4.07363E-02
    8987.655     -5.545   0.200  3.62491E-01  4.04510E-01 -4.20192E-02
    8987.722     -5.478   0.240  3.78419E-01  4.21546E-01 -4.31271E-02
    8987.801     -5.399   0.280  3.97320E-01  4.41047E-01 -4.37277E-02
    8987.892     -5.308   0.320  4.19066E-01  4.62477E-01 -4.34103E-02
    8987.996     -5.204   0.360  4.43443E-01  4.85153E-01 -4.17100E-02
    8988.112     -5.088   0.400  4.70294E-01  5.08396E-01 -3.81022E-02
    8988.240     -4.960   0.440  4.99503E-01  5.31525E-01 -3.20221E-02
    8988.380     -4.820   0.480  5.31207E-01  5.54049E-01 -2.28422E-02
    8988.533     -4.668   0.520  5.65800E-01  5.75652E-01 -9.85192E-03
    8988.697     -4.503   0.560  6.03981E-01  5.96172E-01  7.80896E-03
    8988.874     -4.326   0.600  6.46923E-01  6.15594E-01  3.13292E-02
    8989.063     -4.137   0.640  6.96450E-01  6.33970E-01  6.24808E-02
    8989.264     -3.936   0.680  7.54488E-01  6.51398E-01  1.03090E-01
    8989.477     -3.723   0.720  8.21013E-01  6.68012E-01  1.53001E-01
    8989.703     -3.497   0.760  8.91378E-01  6.83905E-01  2.07472E-01
    8989.941     -3.259   0.800  9.56007E-01  6.99203E-01  2.56803E-01
    8990.191     -3.009   0.840  1.00537E+00  7.14014E-01  2.91359E-01
    8990.453     -2.747   0.880  1.03791E+00  7.28388E-01  3.09524E-01
    8990.727     -2.473   0.920  1.06139E+00  7.42385E-01  3.19003E-01
    8991.014     -2.186   0.960  1.08403E+00  7.56066E-01  3.27963E-01
    8991.312     -1.888   1.000  1.10440E+00  7.69459E-01  3.34940E-01
    8991.623     -1.577   1.040  1.11216E+00  7.82584E-01  3.29577E-01
    8991.946     -1.254   1.080  1.10244E+00  7.95431E-01  3.07008E-01
    8992.282     -0.919   1.120  1.08420E+00  8.08023E-01  2.76173E-01
    8992.629     -0.571   1.160  1.06798E+00  8.20375E-01  2.47601E-01
    8992.989     -0.211   1.200  1.05481E+00  8.32439E-01  2.22369E-01
    8993.361      0.160   1.240  1.04426E+00  8.44244E-01  2.00014E-01
    8993.745      0.544   1.280  1.03811E+00  8.55751E-01  1.82362E-01
    8994.141      0.941   1.320  1.02235E+00  8.66963E-01  1.55386E-01
    8994.549      1.349   1.360  9.69017E-01  8.77859E-01  9.11577E-02
    8994.970      1.770   1.400  8.75926E-01  8.88418E-01 -1.24920E-02
    8995.403      2.203   1.440  7.78296E-01  8.98618E-01 -1.20322E-01
    8995.848      2.648   1.480  7.11049E-01  9.08456E-01 -1.97407E-01
    8996.305      3.105   1.520  6.81523E-01  9.17928E-01 -2.36405E-01
    8996.774      3.574   1.560  6.79695E-01  9.26992E-01 -2.47298E-01
    8997.256      4.056   1.600  6.97817E-01  9.35645E-01 -2.37829E-01
    8997.750      4.550   1.640  7.33785E-01  9.43905E-01 -2.10121E-01
    8998.256      5.056   1.680  7.81905E-01  9.51730E-01 -1.69826E-01
    8998.774      5.574   1.720  8.36973E-01  9.59140E-01 -1.22168E-01
    8999.304      6.104   1.760  9.03214E-01  9.66114E-01 -6.28998E-02
    8999.847      6.647   1.800  9.82141E-01  9.72652E-01  9.48950E-03
    9000.401      7.201   1.840  1.05896E+00  9.78756E-01  8.02038E-02
    9000.968      7.768   1.880  1.11235E+00  9.84409E-01  1.27942E-01
    9001.547      8.347   1.920  1.13758E+00  9.89651E-01  1.47932E-01
    9002.139      8.939   1.960  1.14650E+00  9.94470E-01  1.52026E-01
    9002.742      9.542   2.000  1.14979E+00  9.98890E-01  1.50898E-01
    9003.358     10.158   2.040  1.14918E+00  1.00287E+00  1.46308E-01
    9003.986     10.786   2.080  1.14457E+00  1.00649E+00  1.38082E-01
    9004.626     11.426   2.120  1.14252E+00  1.00970E+00  1.32817E-01
    9005.278     12.078   2.160  1.15919E+00  1.01254E+00  1.46654E-01
    9005.943     12.743   2.200  1.21015E+00  1.01503E+00  1.95118E-01
    9006.619     13.419   2.240  1.29167E+00  1.01718E+00  2.74487E-01
    9007.308     14.108   2.280  1.37094E+00  1.01900E+00  3.51940E-01
    9008.009     14.809   2.320  1.40874E+00  1.02052E+00  3.88218E-01
    9008.722     15.522   2.360  1.39386E+00  1.02175E+00  3.72109E-01
    9009.448     16.248   2.400  1.33237E+00  1.02269E+00  3.09676E-01
    9010.185     16.985   2.440  1.23061E+00  1.02337E+00  2.07237E-01
    9010.935     17.735   2.480  1.10449E+00  1.02381E+00  8.06826E-02
    9011.697     18.497   2.520  9.84000E-01  1.02401E+00 -4.00063E-02
    9012.471     19.271   2.560  8.92558E-01  1.02401E+00 -1.31457E-01
    9013.258     20.058   2.600  8.38185E-01  1.02382E+00 -1.85637E-01
    9014.056     20.856   2.640  8.27316E-01  1.02346E+00 -1.96144E-01
    9014.867     21.667   2.680  8.33757E-01  1.02293E+00 -1.89177E-01
    9015.690     22.490   2.720  8.41266E-01  1.02228E+00 -1.81010E-01
    9016.525     23.325   2.760  8.45666E-01  1.02149E+00 -1.75824E-01
    9017.373     24.172   2.800  8.47836E-01  1.02058E+00 -1.72748E-01
    9018.232     25.032   2.840  8.50355E-01  1.01959E+00 -1.69235E-01
    9019.104     25.904   2.880  8.54952E-01  1.01851E+00 -1.63558E-01
    9019.988     26.788   2.920  8.62070E-01  1.01737E+00 -1.55304E-01
    9020.884     27.684   2.960  8.71617E-01  1.01617E+00 -1.44549E-01
    9021.792     28.592   3.000  8.83021E-01  1.01491E+00 -1.31892E-01
    9022.713     29.513   3.040  8.95641E-01  1.01362E+00 -1.17980E-01
    9023.645     30.445   3.080  9.09427E-01  1.01232E+00 -1.02889E-01
    9024.590     31.390   3.120  9.24580E-01  1.01098E+00 -8.64032E-02
    9025.547     32.347   3.160  9.40842E-01  1.00967E+00 -6.88266E-02
    9026.517     33.316   3.200  9.57333E-01  1.00836E+00 -5.10225E-02
    9027.498     34.298   3.240  9.72888E-01  1.00705E+00 -3.41594E-02
    9028.492     35.292   3.280  9.86478E-01  1.00577E+00 -1.92927E-02
    9029.497     36.297   3.320  9.97707E-01  1.00451E+00 -6.80030E-03
    9030.516     37.315   3.360  1.00676E+00  1.00330E+00  3.45685E-03
    9031.546     38.346   3.400  1.01399E+00  1.00211E+00  1.18742E-02
    9032.588     39.388   3.440  1.01992E+00  1.00099E+00  1.89316E-02
    9033.643     40.443   3.480  1.02493E+00  9.99914E-01  2.50152E-02
    9034.710     41.509   3.520  1.02913E+00  9.98907E-01  3.02223E-02
    9035.789     42.588   3.560  1.03217E+00  9.97949E-01  3.42242E-02
    9036.880     43.680   3.600  1.03358E+00  9.97061E-01  3.65172E-02
    9037.983     44.783   3.640  1.03296E+00  9.96226E-01  3.67327E-02
    9039.099     45.899   3.680  1.03041E+00  9.95465E-01  3.49428E-02
    9040.226     47.026   3.720  1.02659E+00  9.94779E-01  3.18131E-02
    9041.366     48.166   3.760  1.02242E+00  9.94170E-01  2.82551E-02
    9042.518     49.318   3.800  1.01855E+00  9.93616E-01  2.49324E-02
    9043.683     50.483   3.840  1.01520E+00  9.93162E-01  2.20375E-02
    9044.859     51.659   3.880  1.01223E+00  9.92763E-01  1.94711E-02
    9046.048     52.848   3.920  1.00976E+00  9.92440E-01  1.73159E-02
    9047.249     54.049   3.960  1.00818E+00  9.92195E-01  1.59871E-02
    9048.462     55.262   4.000  1.00805E+00  9.92025E-01  1.60270E-02
    9049.687     56.487   4.040  1.00979E+00  9.91909E-01  1.78802E-02
    9050.925     57.725   4.080  1.01353E+00  9.91868E-01  2.16599E-02
    9052.175     58.974   4.120  1.01902E+00  9.91904E-01  2.71180E-02
    9053.436     60.236   4.160  1.02573E+00  9.92012E-01  3.37173E-02
    9054.710     61.510   4.200  1.03279E+00  9.92172E-01  4.06162E-02
    9055.997     62.797   4.240  1.03921E+00  9.92402E-01  4.68074E-02
    9057.295     64.095   4.280  1.04415E+00  9.92680E-01  5.14652E-02
    9058.606     65.406   4.320  1.04727E+00  9.93004E-01  5.42618E-02
    9059.929     66.728   4.360  1.04857E+00  9.93394E-01  5.51717E-02
    9061.264     68.064   4.400  1.04813E+00  9.93826E-01  5.43067E-02
    9062.611     69.411   4.440  1.04606E+00  9.94298E-01  5.17642E-02
    9063.970     70.770   4.480  1.04246E+00  9.94789E-01  4.76666E-02
    9065.342     72.142   4.520  1.03763E+00  9.95340E-01  4.22893E-02
    9066.726     73.526   4.560  1.03191E+00  9.95927E-01  3.59856E-02
    9068.122     74.921   4.600  1.02544E+00  9.96525E-01  2.89099E-02
    9069.530     76.330   4.640  1.01813E+00  9.97154E-01  2.09718E-02
    9070.950     77.750   4.680  1.00984E+00  9.97790E-01  1.20487E-02
    9072.383     79.183   4.720  1.00070E+00  9.98431E-01  2.27358E-03
    9073.827     80.627   4.760  9.91249E-01  9.99099E-01 -7.85012E-03
    9075.284     82.084   4.800  9.82184E-01  9.99768E-01 -1.75846E-02
    9076.753     83.553   4.840  9.74173E-01  1.00044E+00 -2.62648E-02
    9078.235     85.035   4.880  9.67677E-01  1.00110E+00 -3.34255E-02
    9079.728     86.528   4.920  9.62943E-01  1.00174E+00 -3.87978E-02
    9081.234     88.034   4.960  9.60078E-01  1.00237E+00 -4.22931E-02
    9082.752     89.552   5.000  9.58947E-01  1.00299E+00 -4.40466E-02
    9084.282     91.082   5.040  9.59039E-01  1.00358E+00 -4.45462E-02
    9085.824     92.624   5.080  9.59628E-01  1.00416E+00 -4.45356E-02
    9087.379     94.179   5.120  9.59974E-01  1.00471E+00 -4.47330E-02
    9088.945     95.745   5.160  9.59603E-01  1.00521E+00 -4.56082E-02
    9090.524     97.324   5.200  9.58368E-01  1.00568E+00 -4.73079E-02
    9092.115     98.915   5.240  9.56378E-01  1.00610E+00 -4.97232E-02
    9093.719    100.518   5.280  9.54021E-01  1.00651E+00 -5.24872E-02
    9095.334    102.134   5.320  9.51910E-01  1.00685E+00 -5.49388E-02
    9096.962    103.762   5.360  9.50964E-01  1.00714E+00 -5.61795E-02
    9098.601    105.401   5.400  9.52137E-01  1.00737E+00 -5.52332E-02
    9100.253    107.053   5.440  9.56248E-01  1.00757E+00 -5.13272E-02
    9101.918    108.718   5.480  9.63599E-01  1.00771E+00 -4.41130E-02
    9103.594    110.394   5.520  9.74034E-01  1.00780E+00 -3.37671E-02
    9105.283    112.083   5.560  9.86887E-01  1.00782E+00 -2.09340E-02
    9106.983    113.783   5.600  1.00125E+00  1.00782E+00 -6.56728E-03
    9108.696    115.496   5.640  1.01598E+00  1.00772E+00  8.26190E-03
    9110.422    117.221   5.680  1.03010E+00  1.00760E+00  2.24997E-02
    9112.159    118.959   5.720  1.04265E+00  1.00741E+00  3.52428E-02
    9113.908    120.708   5.760  1.05303E+00  1.00718E+00  4.58556E-02
    9115.670    122.470   5.800  1.06079E+00  1.00687E+00  5.39202E-02
    9117.444    124.244   5.840  1.06558E+00  1.00652E+00  5.90552E-02
    9119.230    126.030   5.880  1.06698E+00  1.00614E+00  6.08430E-02
    9121.029    127.828   5.920  1.06478E+00  1.00571E+00  5.90666E-02
    9122.839    129.639   5.960  1.05918E+00  1.00525E+00  5.39382E-02
    9124.662    131.462   6.000  1.05052E+00  1.00468E+00  4.58446E-02
