# # comment:                                                     FEFF 9.9.1  
# # Source:
# # Structure
# # Reduced
# # space
# # abc:
# # angles:110.641595
# # sites:
# # POT  SCF 100  7.0000   0, screened core-hole, AFOLP (folp(0)= 1.150)
# # Abs   Z=29 Rmt= 1.289 Rnm= 1.358 K  shell
# # Pot 1 Z=29 Rmt= 1.285 Rnm= 1.353
# # Pot 2 Z=15 Rmt= 0.938 Rnm= 1.156
# # Pot 3 Z= 8 Rmt= 0.861 Rnm= 1.039
# # Gam_ch=1.729E+00 H-L exch Vi= 0.000E+00 Vr= 0.000E+00
# # Mu=-6.207E+00eV kf=2.572E+00 Vint=-1.796E+01eV Rs_int= 1.410
# FMS rfms= 9.0000
# # PATH  Rmax=-1.000,  Keep_limit= 0.00, Heap_limit 0.00  Pwcrit= 2.50%
#  S02=0.950  Temp=   0.00  Debye_temp=   0.00  Global_sig2= 0.00000
#  Energy zero shift, vr, vi    0.00000E+00   0.00000E+00
#  Curved wave amplitude ratio filter   4.000%
#     file         sig2 tot  cw amp ratio   deg  nlegs   reff  inp sig2
#     0/   0 paths used
#  xsedge+ 50, used to normalize mu           2.5036E-04
#  -----------------------------------------------------------------------
#  omega    e    k    mu    mu0     chi     @#
    8983.232    -10.017  -1.000  4.20457E-02  5.17090E-02 -9.66332E-03
    8983.531     -9.718  -0.960  4.43361E-02  5.54592E-02 -1.11230E-02
    8983.818     -9.431  -0.920  4.67952E-02  5.96297E-02 -1.28345E-02
    8984.092     -9.157  -0.880  4.94387E-02  6.42829E-02 -1.48442E-02
    8984.354     -8.895  -0.840  5.22842E-02  6.94917E-02 -1.72075E-02
    8984.604     -8.645  -0.800  5.53513E-02  7.53407E-02 -1.99893E-02
    8984.842     -8.407  -0.760  5.86610E-02  8.19269E-02 -2.32659E-02
    8985.067     -8.182  -0.720  6.22361E-02  8.93603E-02 -2.71242E-02
    8985.281     -7.968  -0.680  6.60999E-02  9.77621E-02 -3.16621E-02
    8985.482     -7.767  -0.640  7.02756E-02  1.07260E-01 -3.69847E-02
    8985.671     -7.578  -0.600  7.47832E-02  1.17981E-01 -4.31979E-02
    8985.848     -7.401  -0.560  7.96362E-02  1.30032E-01 -5.03959E-02
    8986.012     -7.237  -0.520  8.48357E-02  1.43478E-01 -5.86425E-02
    8986.165     -7.084  -0.480  9.03627E-02  1.58306E-01 -6.79434E-02
    8986.305     -6.944  -0.440  9.61695E-02  1.74385E-01 -7.82156E-02
    8986.433     -6.816  -0.400  1.02172E-01  1.91433E-01 -8.92608E-02
    8986.549     -6.700  -0.360  1.08249E-01  2.09007E-01 -1.00758E-01
    8986.652     -6.597  -0.320  1.14245E-01  2.26530E-01 -1.12285E-01
    8986.744     -6.505  -0.280  1.19987E-01  2.43363E-01 -1.23376E-01
    8986.823     -6.426  -0.240  1.25303E-01  2.58893E-01 -1.33590E-01
    8986.890     -6.359  -0.200  1.30039E-01  2.72608E-01 -1.42569E-01
    8986.945     -6.304  -0.160  1.34070E-01  2.84137E-01 -1.50066E-01
    8986.988     -6.262  -0.120  1.37300E-01  2.93243E-01 -1.55943E-01
    8987.018     -6.231  -0.080  1.39661E-01  2.99800E-01 -1.60139E-01
    8987.042     -6.207   0.000  1.41598E-01  3.05065E-01 -1.63467E-01
    8987.097     -6.152   0.120  1.45969E-01  3.16917E-01 -1.70948E-01
    8987.140     -6.109   0.160  1.49386E-01  3.26130E-01 -1.76744E-01
    8987.195     -6.054   0.200  1.53821E-01  3.37863E-01 -1.84041E-01
    8987.262     -5.987   0.240  1.59323E-01  3.51961E-01 -1.92638E-01
    8987.341     -5.908   0.280  1.65912E-01  3.68122E-01 -2.02210E-01
    8987.433     -5.817   0.320  1.73617E-01  3.85890E-01 -2.12273E-01
    8987.536     -5.713   0.360  1.82466E-01  4.04703E-01 -2.22236E-01
    8987.652     -5.597   0.400  1.92547E-01  4.24029E-01 -2.31482E-01
    8987.780     -5.469   0.440  2.03975E-01  4.43328E-01 -2.39354E-01
    8987.920     -5.329   0.480  2.16878E-01  4.62181E-01 -2.45302E-01
    8988.073     -5.176   0.520  2.31455E-01  4.80351E-01 -2.48896E-01
    8988.237     -5.012   0.560  2.47865E-01  4.97706E-01 -2.49841E-01
    8988.414     -4.835   0.600  2.66224E-01  5.14216E-01 -2.47992E-01
    8988.603     -4.646   0.640  2.86724E-01  5.29964E-01 -2.43240E-01
    8988.804     -4.445   0.680  3.09606E-01  5.45012E-01 -2.35406E-01
    8989.018     -4.232   0.720  3.35469E-01  5.59513E-01 -2.24044E-01
    8989.243     -4.006   0.760  3.65159E-01  5.73521E-01 -2.08362E-01
    8989.481     -3.768   0.800  3.99619E-01  5.87182E-01 -1.87563E-01
    8989.731     -3.518   0.840  4.38940E-01  6.00530E-01 -1.61590E-01
    8989.993     -3.256   0.880  4.81850E-01  6.13683E-01 -1.31833E-01
    8990.267     -2.982   0.920  5.25308E-01  6.26649E-01 -1.01340E-01
    8990.554     -2.695   0.960  5.65792E-01  6.39522E-01 -7.37305E-02
    8990.852     -2.397   1.000  6.00993E-01  6.52287E-01 -5.12943E-02
    8991.163     -2.086   1.040  6.30974E-01  6.64999E-01 -3.40250E-02
    8991.486     -1.763   1.080  6.58235E-01  6.77665E-01 -1.94303E-02
    8991.822     -1.427   1.120  6.86860E-01  6.90287E-01 -3.42685E-03
    8992.169     -1.080   1.160  7.19380E-01  7.02860E-01  1.65199E-02
    8992.529     -0.720   1.200  7.53953E-01  7.15413E-01  3.85399E-02
    8992.901     -0.348   1.240  7.86091E-01  7.27893E-01  5.81979E-02
    8993.285      0.036   1.280  8.14274E-01  7.40325E-01  7.39496E-02
    8993.681      0.432   1.320  8.41768E-01  7.52668E-01  8.90996E-02
    8994.089      0.840   1.360  8.71587E-01  7.64942E-01  1.06645E-01
    8994.510      1.261   1.400  9.03122E-01  7.77101E-01  1.26022E-01
    8994.943      1.694   1.440  9.35162E-01  7.89121E-01  1.46041E-01
    8995.388      2.139   1.480  9.68607E-01  8.00998E-01  1.67610E-01
    8995.845      2.596   1.520  1.00694E+00  8.12703E-01  1.94234E-01
    8996.314      3.065   1.560  1.04713E+00  8.24228E-01  2.22899E-01
    8996.796      3.547   1.600  1.07748E+00  8.35528E-01  2.41956E-01
    8997.290      4.041   1.640  1.09289E+00  8.46592E-01  2.46293E-01
    8997.796      4.547   1.680  1.09644E+00  8.57414E-01  2.39027E-01
    8998.314      5.065   1.720  1.09422E+00  8.67964E-01  2.26257E-01
    8998.844      5.595   1.760  1.09098E+00  8.78234E-01  2.12746E-01
    8999.387      6.138   1.800  1.08546E+00  8.88177E-01  1.97283E-01
    8999.942      6.692   1.840  1.07617E+00  8.97786E-01  1.78385E-01
    9000.508      7.259   1.880  1.06420E+00  9.07074E-01  1.57124E-01
    9001.088      7.838   1.920  1.05353E+00  9.15975E-01  1.37554E-01
    9001.679      8.430   1.960  1.04905E+00  9.24544E-01  1.24507E-01
    9002.282      9.033   2.000  1.05313E+00  9.32713E-01  1.20417E-01
    9002.898      9.649   2.040  1.06875E+00  9.40483E-01  1.28269E-01
    9003.526     10.277   2.080  1.09703E+00  9.47868E-01  1.49158E-01
    9004.166     10.917   2.120  1.13239E+00  9.54846E-01  1.77544E-01
    9004.818     11.569   2.160  1.16414E+00  9.61415E-01  2.02725E-01
    9005.483     12.234   2.200  1.18177E+00  9.67597E-01  2.14172E-01
    9006.159     12.910   2.240  1.18208E+00  9.73349E-01  2.08729E-01
    9006.848     13.599   2.280  1.16738E+00  9.78694E-01  1.88685E-01
    9007.549     14.300   2.320  1.14121E+00  9.83653E-01  1.57560E-01
    9008.263     15.013   2.360  1.10951E+00  9.88186E-01  1.21320E-01
    9008.988     15.739   2.400  1.07824E+00  9.92340E-01  8.59005E-02
    9009.726     16.476   2.440  1.05215E+00  9.96097E-01  5.60533E-02
    9010.475     17.226   2.480  1.03463E+00  9.99481E-01  3.51491E-02
    9011.237     17.988   2.520  1.02655E+00  1.00250E+00  2.40531E-02
    9012.012     18.762   2.560  1.02500E+00  1.00515E+00  1.98505E-02
    9012.798     19.549   2.600  1.02264E+00  1.00745E+00  1.51901E-02
    9013.597     20.347   2.640  1.01287E+00  1.00942E+00  3.45421E-03
    9014.407     21.158   2.680  9.94249E-01  1.01109E+00 -1.68385E-02
    9015.230     21.981   2.720  9.69232E-01  1.01242E+00 -4.31850E-02
    9016.065     22.816   2.760  9.43729E-01  1.01348E+00 -6.97506E-02
    9016.913     23.664   2.800  9.22394E-01  1.01424E+00 -9.18474E-02
    9017.772     24.523   2.840  9.05841E-01  1.01475E+00 -1.08908E-01
    9018.644     25.395   2.880  8.93876E-01  1.01501E+00 -1.21137E-01
    9019.528     26.279   2.920  8.84760E-01  1.01506E+00 -1.30301E-01
    9020.424     27.175   2.960  8.80961E-01  1.01488E+00 -1.33917E-01
    9021.332     28.083   3.000  8.81781E-01  1.01449E+00 -1.32712E-01
    9022.253     29.004   3.040  8.84951E-01  1.01391E+00 -1.28962E-01
    9023.185     29.936   3.080  8.89435E-01  1.01319E+00 -1.23754E-01
    9024.130     30.881   3.120  8.95051E-01  1.01229E+00 -1.17236E-01
    9025.087     31.838   3.160  9.02171E-01  1.01127E+00 -1.09103E-01
    9026.057     32.808   3.200  9.10416E-01  1.01012E+00 -9.97018E-02
    9027.038     33.789   3.240  9.19641E-01  1.00885E+00 -8.92047E-02
    9028.032     34.783   3.280  9.29814E-01  1.00751E+00 -7.76918E-02
    9029.038     35.788   3.320  9.40704E-01  1.00606E+00 -6.53599E-02
    9030.056     36.807   3.360  9.52015E-01  1.00457E+00 -5.25510E-02
    9031.086     37.837   3.400  9.63205E-01  1.00300E+00 -3.97931E-02
    9032.128     38.879   3.440  9.73553E-01  1.00138E+00 -2.78322E-02
    9033.183     39.934   3.480  9.82428E-01  9.99734E-01 -1.73059E-02
    9034.250     41.001   3.520  9.89484E-01  9.98072E-01 -8.58786E-03
    9035.329     42.080   3.560  9.94535E-01  9.96404E-01 -1.86840E-03
    9036.420     43.171   3.600  9.97562E-01  9.94713E-01  2.84960E-03
    9037.523     44.274   3.640  9.98719E-01  9.93045E-01  5.67450E-03
    9038.639     45.390   3.680  9.98266E-01  9.91404E-01  6.86238E-03
    9039.767     46.517   3.720  9.96633E-01  9.89753E-01  6.88064E-03
    9040.906     47.657   3.760  9.94584E-01  9.88157E-01  6.42691E-03
    9042.059     48.809   3.800  9.92889E-01  9.86601E-01  6.28760E-03
    9043.223     49.974   3.840  9.92189E-01  9.85086E-01  7.10340E-03
    9044.399     51.150   3.880  9.92859E-01  9.83613E-01  9.24525E-03
    9045.588     52.339   3.920  9.94944E-01  9.82210E-01  1.27346E-02
    9046.789     53.540   3.960  9.98100E-01  9.80856E-01  1.72439E-02
    9048.002     54.753   4.000  1.00177E+00  9.79571E-01  2.21997E-02
    9049.227     55.978   4.040  1.00536E+00  9.78340E-01  2.70241E-02
    9050.465     57.216   4.080  1.00851E+00  9.77205E-01  3.13051E-02
    9051.715     58.466   4.120  1.01100E+00  9.76125E-01  3.48794E-02
    9052.977     59.727   4.160  1.01298E+00  9.75123E-01  3.78586E-02
    9054.251     61.001   4.200  1.01470E+00  9.74200E-01  4.05010E-02
    9055.537     62.288   4.240  1.01641E+00  9.73379E-01  4.30328E-02
    9056.835     63.586   4.280  1.01818E+00  9.72618E-01  4.55655E-02
    9058.146     64.897   4.320  1.02010E+00  9.71957E-01  4.81383E-02
    9059.469     66.220   4.360  1.02203E+00  9.71356E-01  5.06714E-02
    9060.804     67.555   4.400  1.02384E+00  9.70857E-01  5.29855E-02
    9062.151     68.902   4.440  1.02529E+00  9.70438E-01  5.48494E-02
    9063.510     70.261   4.480  1.02601E+00  9.70098E-01  5.59137E-02
    9064.882     71.633   4.520  1.02552E+00  9.69817E-01  5.57055E-02
    9066.266     73.017   4.560  1.02341E+00  9.69635E-01  5.37718E-02
    9067.662     74.413   4.600  1.01939E+00  9.69533E-01  4.98561E-02
    9069.070     75.821   4.640  1.01356E+00  9.69508E-01  4.40572E-02
    9070.490     77.241   4.680  1.00637E+00  9.69537E-01  3.68336E-02
    9071.923     78.674   4.720  9.98404E-01  9.69660E-01  2.87433E-02
    9073.368     80.118   4.760  9.90026E-01  9.69814E-01  2.02116E-02
    9074.824     81.575   4.800  9.81580E-01  9.70061E-01  1.15194E-02
    9076.294     83.044   4.840  9.73239E-01  9.70357E-01  2.88201E-03
    9077.775     84.526   4.880  9.65258E-01  9.70700E-01 -5.44207E-03
    9079.268     86.019   4.920  9.57964E-01  9.71110E-01 -1.31459E-02
    9080.774     87.525   4.960  9.51587E-01  9.71563E-01 -1.99757E-02
    9082.292     89.043   5.000  9.46271E-01  9.72057E-01 -2.57859E-02
    9083.822     90.573   5.040  9.42021E-01  9.72590E-01 -3.05691E-02
    9085.364     92.115   5.080  9.38732E-01  9.73161E-01 -3.44300E-02
    9086.919     93.670   5.120  9.36256E-01  9.73767E-01 -3.75115E-02
    9088.486     95.236   5.160  9.34413E-01  9.74385E-01 -3.99720E-02
    9090.064     96.815   5.200  9.33154E-01  9.75034E-01 -4.18803E-02
    9091.655     98.406   5.240  9.32512E-01  9.75712E-01 -4.31995E-02
    9093.259    100.010   5.280  9.32578E-01  9.76371E-01 -4.37931E-02
    9094.874    101.625   5.320  9.33510E-01  9.77052E-01 -4.35426E-02
    9096.502    103.253   5.360  9.35265E-01  9.77712E-01 -4.24472E-02
    9098.142    104.892   5.400  9.37765E-01  9.78392E-01 -4.06272E-02
    9099.794    106.544   5.440  9.40794E-01  9.79048E-01 -3.82543E-02
    9101.458    108.209   5.480  9.44232E-01  9.79719E-01 -3.54866E-02
    9103.134    109.885   5.520  9.47905E-01  9.80338E-01 -3.24327E-02
    9104.823    111.574   5.560  9.51792E-01  9.80944E-01 -2.91529E-02
    9106.524    113.274   5.600  9.55858E-01  9.81539E-01 -2.56807E-02
    9108.237    114.987   5.640  9.60002E-01  9.82076E-01 -2.20741E-02
    9109.962    116.713   5.680  9.64166E-01  9.82597E-01 -1.84312E-02
    9111.699    118.450   5.720  9.68184E-01  9.83078E-01 -1.48948E-02
    9113.449    120.199   5.760  9.71920E-01  9.83495E-01 -1.15752E-02
    9115.210    121.961   5.800  9.75395E-01  9.83892E-01 -8.49728E-03
    9116.984    123.735   5.840  9.78629E-01  9.84225E-01 -5.59662E-03
    9118.770    125.521   5.880  9.81769E-01  9.84534E-01 -2.76570E-03
    9120.569    127.320   5.920  9.84834E-01  9.84748E-01  8.52399E-05
    9122.379    129.130   5.960  9.87897E-01  9.84929E-01  2.96735E-03
    9124.202    130.953   6.000  9.90811E-01  9.85008E-01  5.80314E-03
