# # comment:                                                     FEFF 9.9.1  
# # Source:
# # Structure
# # Reduced
# # space
# # abc:
# # angles:
# # sites:
# # POT  SCF 100  7.0000   0, screened core-hole, AFOLP (folp(0)= 1.150)
# # Abs   Z=29 Rmt= 1.254 Rnm= 1.314 K  shell
# # Pot 1 Z=29 Rmt= 1.254 Rnm= 1.314
# # Pot 2 Z=15 Rmt= 0.938 Rnm= 1.156
# # Pot 3 Z= 7 Rmt= 1.680 Rnm= 1.680
# # Pot 4 Z= 8 Rmt= 0.868 Rnm= 1.042
# # Gam_ch=1.729E+00 H-L exch Vi= 0.000E+00 Vr= 0.000E+00
# # Mu=-7.842E+00eV kf=2.540E+00 Vint=-1.678E+01eV Rs_int= 1.428
# FMS rfms= 9.0000
# # PATH  Rmax=-1.000,  Keep_limit= 0.00, Heap_limit 0.00  Pwcrit= 2.50%
#  S02=0.950  Temp=   0.00  Debye_temp=   0.00  Global_sig2= 0.00000
#  Energy zero shift, vr, vi    0.00000E+00   0.00000E+00
#  Curved wave amplitude ratio filter   4.000%
#     file         sig2 tot  cw amp ratio   deg  nlegs   reff  inp sig2
#     0/   0 paths used
#  xsedge+ 50, used to normalize mu           2.4905E-04
#  -----------------------------------------------------------------------
#  omega    e    k    mu    mu0     chi     @#
    8983.276    -11.652  -1.000  2.73267E-02  4.65135E-02 -1.91869E-02
    8983.575    -11.353  -0.960  2.83418E-02  4.97430E-02 -2.14013E-02
    8983.861    -11.066  -0.920  2.94003E-02  5.33224E-02 -2.39220E-02
    8984.136    -10.792  -0.880  3.05052E-02  5.73025E-02 -2.67973E-02
    8984.398    -10.530  -0.840  3.16596E-02  6.17427E-02 -3.00831E-02
    8984.648    -10.280  -0.800  3.28670E-02  6.67117E-02 -3.38447E-02
    8984.885    -10.042  -0.760  3.41317E-02  7.22883E-02 -3.81565E-02
    8985.111     -9.817  -0.720  3.54582E-02  7.85613E-02 -4.31031E-02
    8985.324     -9.603  -0.680  3.68511E-02  8.56286E-02 -4.87775E-02
    8985.525     -9.402  -0.640  3.83155E-02  9.35936E-02 -5.52781E-02
    8985.714     -9.213  -0.600  3.98553E-02  1.02557E-01 -6.27020E-02
    8985.891     -9.036  -0.560  4.14731E-02  1.12606E-01 -7.11330E-02
    8986.056     -8.872  -0.520  4.31682E-02  1.23791E-01 -8.06226E-02
    8986.208     -8.719  -0.480  4.49346E-02  1.36099E-01 -9.11645E-02
    8986.348     -8.579  -0.440  4.67584E-02  1.49423E-01 -1.02664E-01
    8986.476     -8.451  -0.400  4.86161E-02  1.63532E-01 -1.14916E-01
    8986.592     -8.335  -0.360  5.04737E-02  1.78064E-01 -1.27590E-01
    8986.696     -8.232  -0.320  5.22884E-02  1.92549E-01 -1.40261E-01
    8986.787     -8.140  -0.280  5.40130E-02  2.06466E-01 -1.52453E-01
    8986.867     -8.061  -0.240  5.56009E-02  2.19312E-01 -1.63711E-01
    8986.934     -7.994  -0.200  5.70111E-02  2.30666E-01 -1.73655E-01
    8986.988     -7.939  -0.160  5.82105E-02  2.40219E-01 -1.82008E-01
    8987.031     -7.896  -0.120  5.91742E-02  2.47772E-01 -1.88598E-01
    8987.062     -7.866  -0.080  5.98841E-02  2.53216E-01 -1.93332E-01
    8987.086     -7.842   0.000  6.04815E-02  2.57591E-01 -1.97109E-01
    8987.141     -7.787   0.120  6.17994E-02  2.67443E-01 -2.05644E-01
    8987.184     -7.744   0.160  6.28266E-02  2.75127E-01 -2.12301E-01
    8987.238     -7.689   0.200  6.40940E-02  2.84914E-01 -2.20820E-01
    8987.305     -7.622   0.240  6.56519E-02  2.96714E-01 -2.31062E-01
    8987.385     -7.543   0.280  6.74750E-02  3.10279E-01 -2.42804E-01
    8987.476     -7.451   0.320  6.95537E-02  3.25273E-01 -2.55720E-01
    8987.580     -7.348   0.360  7.18509E-02  3.41281E-01 -2.69430E-01
    8987.696     -7.232   0.400  7.43817E-02  3.57834E-01 -2.83452E-01
    8987.824     -7.104   0.440  7.71154E-02  3.74548E-01 -2.97432E-01
    8987.964     -6.964   0.480  8.00905E-02  3.91090E-01 -3.11000E-01
    8988.116     -6.811   0.520  8.33560E-02  4.07284E-01 -3.23928E-01
    8988.281     -6.647   0.560  8.69324E-02  4.22997E-01 -3.36065E-01
    8988.458     -6.470   0.600  9.09083E-02  4.38224E-01 -3.47316E-01
    8988.647     -6.281   0.640  9.53472E-02  4.53015E-01 -3.57667E-01
    8988.848     -6.080   0.680  1.00220E-01  4.67446E-01 -3.67227E-01
    8989.061     -5.866   0.720  1.05515E-01  4.81606E-01 -3.76092E-01
    8989.287     -5.641   0.760  1.11214E-01  4.95541E-01 -3.84327E-01
    8989.524     -5.403   0.800  1.17507E-01  5.09330E-01 -3.91822E-01
    8989.774     -5.153   0.840  1.24550E-01  5.23043E-01 -3.98493E-01
    8990.036     -4.891   0.880  1.32455E-01  5.36718E-01 -4.04264E-01
    8990.311     -4.617   0.920  1.41432E-01  5.50404E-01 -4.08972E-01
    8990.597     -4.330   0.960  1.52149E-01  5.64118E-01 -4.11969E-01
    8990.896     -4.032   1.000  1.65337E-01  5.77849E-01 -4.12512E-01
    8991.207     -3.721   1.040  1.81587E-01  5.91640E-01 -4.10052E-01
    8991.530     -3.398   1.080  2.01300E-01  6.05486E-01 -4.04185E-01
    8991.865     -3.062   1.120  2.24740E-01  6.19377E-01 -3.94637E-01
    8992.213     -2.715   1.160  2.52079E-01  6.33299E-01 -3.81220E-01
    8992.572     -2.355   1.200  2.83366E-01  6.47234E-01 -3.63868E-01
    8992.944     -1.983   1.240  3.18322E-01  6.61180E-01 -3.42857E-01
    8993.328     -1.599   1.280  3.55786E-01  6.75094E-01 -3.19308E-01
    8993.725     -1.203   1.320  3.93442E-01  6.88972E-01 -2.95530E-01
    8994.133     -0.795   1.360  4.29750E-01  7.02782E-01 -2.73032E-01
    8994.554     -0.374   1.400  4.66713E-01  7.16498E-01 -2.49784E-01
    8994.986      0.059   1.440  5.08815E-01  7.30110E-01 -2.21295E-01
    8995.431      0.504   1.480  5.59246E-01  7.43547E-01 -1.84301E-01
    8995.889      0.961   1.520  6.18618E-01  7.56838E-01 -1.38220E-01
    8996.358      1.430   1.560  6.88002E-01  7.69911E-01 -8.19090E-02
    8996.840      1.912   1.600  7.68994E-01  7.82755E-01 -1.37616E-02
    8997.333      2.406   1.640  8.54743E-01  7.95361E-01  5.93828E-02
    8997.839      2.912   1.680  9.36859E-01  8.07676E-01  1.29183E-01
    8998.357      3.430   1.720  1.02582E+00  8.19711E-01  2.06114E-01
    8998.888      3.960   1.760  1.12529E+00  8.31415E-01  2.93874E-01
    8999.430      4.503   1.800  1.20935E+00  8.42759E-01  3.66589E-01
    8999.985      5.057   1.840  1.25847E+00  8.53775E-01  4.04691E-01
    9000.552      5.624   1.880  1.28234E+00  8.64396E-01  4.17943E-01
    9001.131      6.204   1.920  1.29067E+00  8.74636E-01  4.16038E-01
    9001.722      6.795   1.960  1.28772E+00  8.84468E-01  4.03254E-01
    9002.326      7.398   2.000  1.27964E+00  8.93888E-01  3.85756E-01
    9002.942      8.014   2.040  1.27156E+00  9.02892E-01  3.68672E-01
    9003.570      8.642   2.080  1.26502E+00  9.11477E-01  3.53545E-01
    9004.210      9.282   2.120  1.26120E+00  9.19622E-01  3.41575E-01
    9004.862      9.934   2.160  1.25845E+00  9.27326E-01  3.31124E-01
    9005.526     10.599   2.200  1.24649E+00  9.34609E-01  3.11881E-01
    9006.203     11.275   2.240  1.22149E+00  9.41450E-01  2.80037E-01
    9006.892     11.964   2.280  1.19029E+00  9.47874E-01  2.42419E-01
    9007.593     12.665   2.320  1.15737E+00  9.53861E-01  2.03509E-01
    9008.306     13.378   2.360  1.12685E+00  9.59435E-01  1.67417E-01
    9009.031     14.104   2.400  1.10681E+00  9.64602E-01  1.42204E-01
    9009.769     14.842   2.440  1.10073E+00  9.69365E-01  1.31362E-01
    9010.519     15.591   2.480  1.10345E+00  9.73728E-01  1.29722E-01
    9011.281     16.353   2.520  1.10613E+00  9.77718E-01  1.28412E-01
    9012.055     17.128   2.560  1.10289E+00  9.81342E-01  1.21545E-01
    9012.841     17.914   2.600  1.09582E+00  9.84605E-01  1.11213E-01
    9013.640     18.712   2.640  1.08997E+00  9.87536E-01  1.02429E-01
    9014.451     19.523   2.680  1.08520E+00  9.90143E-01  9.50569E-02
    9015.274     20.346   2.720  1.07700E+00  9.92430E-01  8.45708E-02
    9016.109     21.181   2.760  1.06133E+00  9.94427E-01  6.69011E-02
    9016.956     22.029   2.800  1.03288E+00  9.96141E-01  3.67362E-02
    9017.816     22.888   2.840  9.89525E-01  9.97582E-01 -8.05684E-03
    9018.688     23.760   2.880  9.39282E-01  9.98794E-01 -5.95125E-02
    9019.571     24.644   2.920  8.95431E-01  9.99747E-01 -1.04317E-01
    9020.468     25.540   2.960  8.64446E-01  1.00049E+00 -1.36043E-01
    9021.376     26.448   3.000  8.40573E-01  1.00105E+00 -1.60475E-01
    9022.296     27.369   3.040  8.20202E-01  1.00139E+00 -1.81188E-01
    9023.229     28.301   3.080  8.03834E-01  1.00156E+00 -1.97728E-01
    9024.174     29.246   3.120  7.92048E-01  1.00159E+00 -2.09547E-01
    9025.131     30.203   3.160  7.84677E-01  1.00145E+00 -2.16776E-01
    9026.100     31.173   3.200  7.81003E-01  1.00120E+00 -2.20202E-01
    9027.082     32.154   3.240  7.80596E-01  1.00084E+00 -2.20240E-01
    9028.075     33.148   3.280  7.83392E-01  1.00035E+00 -2.16960E-01
    9029.081     34.154   3.320  7.89170E-01  9.99781E-01 -2.10611E-01
    9030.099     35.172   3.360  7.97956E-01  9.99128E-01 -2.01172E-01
    9031.129     36.202   3.400  8.10150E-01  9.98399E-01 -1.88249E-01
    9032.172     37.244   3.440  8.25947E-01  9.97619E-01 -1.71671E-01
    9033.226     38.299   3.480  8.45340E-01  9.96793E-01 -1.51453E-01
    9034.293     39.366   3.520  8.67952E-01  9.95906E-01 -1.27953E-01
    9035.372     40.445   3.560  8.93260E-01  9.95003E-01 -1.01743E-01
    9036.463     41.536   3.600  9.20322E-01  9.94090E-01 -7.37685E-02
    9037.567     42.639   3.640  9.48161E-01  9.93150E-01 -4.49890E-02
    9038.682     43.755   3.680  9.75629E-01  9.92227E-01 -1.65987E-02
    9039.810     44.882   3.720  1.00125E+00  9.91282E-01  9.97092E-03
    9040.950     46.022   3.760  1.02384E+00  9.90340E-01  3.34949E-02
    9042.102     47.175   3.800  1.04261E+00  9.89426E-01  5.31794E-02
    9043.266     48.339   3.840  1.05710E+00  9.88541E-01  6.85537E-02
    9044.443     49.515   3.880  1.06737E+00  9.87669E-01  7.96987E-02
    9045.632     50.704   3.920  1.07392E+00  9.86831E-01  8.70916E-02
    9046.833     51.905   3.960  1.07747E+00  9.86030E-01  9.14399E-02
    9048.046     53.118   4.000  1.07888E+00  9.85267E-01  9.36127E-02
    9049.271     54.343   4.040  1.07918E+00  9.84543E-01  9.46387E-02
    9050.509     55.581   4.080  1.07932E+00  9.83861E-01  9.54603E-02
    9051.758     56.831   4.120  1.07995E+00  9.83221E-01  9.67322E-02
    9053.020     58.092   4.160  1.08137E+00  9.82644E-01  9.87256E-02
    9054.294     59.367   4.200  1.08321E+00  9.82090E-01  1.01118E-01
    9055.580     60.653   4.240  1.08453E+00  9.81602E-01  1.02933E-01
    9056.879     61.951   4.280  1.08404E+00  9.81182E-01  1.02853E-01
    9058.189     63.262   4.320  1.08056E+00  9.80787E-01  9.97716E-02
    9059.512     64.585   4.360  1.07356E+00  9.80479E-01  9.30784E-02
    9060.847     65.920   4.400  1.06313E+00  9.80197E-01  8.29279E-02
    9062.194     67.267   4.440  1.05017E+00  9.79980E-01  7.01943E-02
    9063.554     68.626   4.480  1.03593E+00  9.79807E-01  5.61195E-02
    9064.925     69.998   4.520  1.02173E+00  9.79680E-01  4.20474E-02
    9066.309     71.382   4.560  1.00876E+00  9.79618E-01  2.91398E-02
    9067.705     72.778   4.600  9.97736E-01  9.79600E-01  1.81354E-02
    9069.113     74.186   4.640  9.88933E-01  9.79624E-01  9.30901E-03
    9070.534     75.606   4.680  9.82255E-01  9.79690E-01  2.56518E-03
    9071.966     77.039   4.720  9.77313E-01  9.79797E-01 -2.48413E-03
    9073.411     78.484   4.760  9.73582E-01  9.79966E-01 -6.38447E-03
    9074.868     79.940   4.800  9.70512E-01  9.80151E-01 -9.63918E-03
    9076.337     81.410   4.840  9.67798E-01  9.80374E-01 -1.25759E-02
    9077.818     82.891   4.880  9.65382E-01  9.80633E-01 -1.52513E-02
    9079.312     84.384   4.920  9.63360E-01  9.80927E-01 -1.75670E-02
    9080.818     85.890   4.960  9.61692E-01  9.81234E-01 -1.95418E-02
    9082.336     87.408   5.000  9.60129E-01  9.81595E-01 -2.14661E-02
    9083.866     88.938   5.040  9.58074E-01  9.81943E-01 -2.38686E-02
    9085.408     90.480   5.080  9.55060E-01  9.82320E-01 -2.72596E-02
    9086.962     92.035   5.120  9.50904E-01  9.82724E-01 -3.18192E-02
    9088.529     93.602   5.160  9.45843E-01  9.83110E-01 -3.72668E-02
    9090.108     95.180   5.200  9.40660E-01  9.83521E-01 -4.28615E-02
    9091.699     96.771   5.240  9.36200E-01  9.83934E-01 -4.77346E-02
    9093.302     98.375   5.280  9.33118E-01  9.84347E-01 -5.12293E-02
    9094.918     99.990   5.320  9.31640E-01  9.84758E-01 -5.31182E-02
    9096.545    101.618   5.360  9.31663E-01  9.85166E-01 -5.35025E-02
    9098.185    103.258   5.400  9.32889E-01  9.85548E-01 -5.26585E-02
    9099.837    104.910   5.440  9.34955E-01  9.85945E-01 -5.09901E-02
    9101.501    106.574   5.480  9.37312E-01  9.86291E-01 -4.89792E-02
    9103.178    108.250   5.520  9.39590E-01  9.86650E-01 -4.70596E-02
    9104.866    109.939   5.560  9.41492E-01  9.86979E-01 -4.54867E-02
    9106.567    111.640   5.600  9.43030E-01  9.87274E-01 -4.42440E-02
    9108.280    113.352   5.640  9.44536E-01  9.87557E-01 -4.30216E-02
    9110.005    115.078   5.680  9.46576E-01  9.87804E-01 -4.12278E-02
    9111.743    116.815   5.720  9.49829E-01  9.88013E-01 -3.81845E-02
    9113.492    118.565   5.760  9.54815E-01  9.88185E-01 -3.33697E-02
    9115.254    120.326   5.800  9.61672E-01  9.88319E-01 -2.66462E-02
    9117.028    122.100   5.840  9.70086E-01  9.88437E-01 -1.83516E-02
    9118.814    123.886   5.880  9.79299E-01  9.88495E-01 -9.19578E-03
    9120.612    125.685   5.920  9.88527E-01  9.88535E-01 -8.27571E-06
    9122.423    127.495   5.960  9.97048E-01  9.88508E-01  8.54035E-03
    9124.245    129.318   6.000  1.00470E+00  9.88446E-01  1.62584E-02
