# # comment:                                                     FEFF 9.9.1  
# # Source:
# # Structure
# # Reduced
# # space
# # abc:
# # angles:
# # sites:
# # POT  SCF 100  7.0000   0, screened core-hole, AFOLP (folp(0)= 1.150)
# # Abs   Z=29 Rmt= 1.278 Rnm= 1.352 K  shell
# # Pot 1 Z=11 Rmt= 1.481 Rnm= 1.526
# # Pot 2 Z=29 Rmt= 1.278 Rnm= 1.352
# # Pot 3 Z=51 Rmt= 1.326 Rnm= 1.469
# # Pot 4 Z= 8 Rmt= 1.059 Rnm= 1.116
# # Gam_ch=1.729E+00 H-L exch Vi= 0.000E+00 Vr= 0.000E+00
# # Mu=-7.633E+00eV kf=2.064E+00 Vint=-1.531E+01eV Rs_int= 1.757
# FMS rfms= 9.0000
# # PATH  Rmax=-1.000,  Keep_limit= 0.00, Heap_limit 0.00  Pwcrit= 2.50%
#  S02=0.950  Temp=   0.00  Debye_temp=   0.00  Global_sig2= 0.00000
#  Energy zero shift, vr, vi    0.00000E+00   0.00000E+00
#  Curved wave amplitude ratio filter   4.000%
#     file         sig2 tot  cw amp ratio   deg  nlegs   reff  inp sig2
#     0/   0 paths used
#  xsedge+ 50, used to normalize mu           2.4471E-04
#  -----------------------------------------------------------------------
#  omega    e    k    mu    mu0     chi     @#
    8983.918    -11.443  -1.000  3.52932E-02  5.21281E-02 -1.68349E-02
    8984.217    -11.145  -0.960  3.69069E-02  5.58512E-02 -1.89443E-02
    8984.503    -10.858  -0.920  3.86077E-02  5.99817E-02 -2.13740E-02
    8984.778    -10.584  -0.880  4.04002E-02  6.45790E-02 -2.41787E-02
    8985.040    -10.322  -0.840  4.22891E-02  6.97118E-02 -2.74227E-02
    8985.290    -10.072  -0.800  4.42788E-02  7.54599E-02 -3.11810E-02
    8985.528     -9.834  -0.760  4.63739E-02  8.19146E-02 -3.55408E-02
    8985.753     -9.608  -0.720  4.85783E-02  8.91792E-02 -4.06009E-02
    8985.966     -9.395  -0.680  5.08954E-02  9.73669E-02 -4.64715E-02
    8986.168     -9.194  -0.640  5.33273E-02  1.06597E-01 -5.32700E-02
    8986.357     -9.005  -0.600  5.58739E-02  1.16987E-01 -6.11135E-02
    8986.533     -8.828  -0.560  5.85321E-02  1.28637E-01 -7.01049E-02
    8986.698     -8.664  -0.520  6.12936E-02  1.41605E-01 -8.03111E-02
    8986.850     -8.511  -0.480  6.41428E-02  1.55876E-01 -9.17331E-02
    8986.991     -8.371  -0.440  6.70545E-02  1.71326E-01 -1.04271E-01
    8987.119     -8.243  -0.400  6.99920E-02  1.87688E-01 -1.17696E-01
    8987.234     -8.127  -0.360  7.29061E-02  2.04543E-01 -1.31637E-01
    8987.338     -8.024  -0.320  7.57379E-02  2.21348E-01 -1.45611E-01
    8987.429     -7.932  -0.280  7.84226E-02  2.37499E-01 -1.59076E-01
    8987.509     -7.853  -0.240  8.08954E-02  2.52412E-01 -1.71516E-01
    8987.576     -7.786  -0.200  8.30972E-02  2.65598E-01 -1.82500E-01
    8987.631     -7.731  -0.160  8.49766E-02  2.76696E-01 -1.91720E-01
    8987.673     -7.688  -0.120  8.64916E-02  2.85475E-01 -1.98983E-01
    8987.704     -7.658  -0.080  8.76093E-02  2.91802E-01 -2.04193E-01
    8987.728     -7.633   0.000  8.85468E-02  2.96888E-01 -2.08341E-01
    8987.783     -7.579   0.120  9.06963E-02  3.08377E-01 -2.17681E-01
    8987.826     -7.536   0.160  9.23265E-02  3.17293E-01 -2.24966E-01
    8987.881     -7.481   0.200  9.44447E-02  3.28710E-01 -2.34266E-01
    8987.948     -7.414   0.240  9.70844E-02  3.42467E-01 -2.45382E-01
    8988.027     -7.335   0.280  1.00269E-01  3.58306E-01 -2.58037E-01
    8988.118     -7.243   0.320  1.04020E-01  3.75828E-01 -2.71808E-01
    8988.222     -7.140   0.360  1.08455E-01  3.94582E-01 -2.86128E-01
    8988.338     -7.024   0.400  1.13652E-01  4.14041E-01 -3.00389E-01
    8988.466     -6.896   0.440  1.19713E-01  4.33723E-01 -3.14010E-01
    8988.606     -6.756   0.480  1.26874E-01  4.53266E-01 -3.26393E-01
    8988.758     -6.603   0.520  1.35380E-01  4.72445E-01 -3.37064E-01
    8988.923     -6.439   0.560  1.45541E-01  4.91110E-01 -3.45569E-01
    8989.100     -6.262   0.600  1.57824E-01  5.09273E-01 -3.51449E-01
    8989.289     -6.073   0.640  1.72794E-01  5.26959E-01 -3.54165E-01
    8989.490     -5.872   0.680  1.91140E-01  5.44209E-01 -3.53069E-01
    8989.703     -5.658   0.720  2.13796E-01  5.61095E-01 -3.47299E-01
    8989.929     -5.433   0.760  2.41717E-01  5.77726E-01 -3.36009E-01
    8990.167     -5.195   0.800  2.75288E-01  5.94123E-01 -3.18835E-01
    8990.417     -4.945   0.840  3.14101E-01  6.10355E-01 -2.96254E-01
    8990.679     -4.683   0.880  3.56986E-01  6.26457E-01 -2.69471E-01
    8990.953     -4.409   0.920  4.02244E-01  6.42431E-01 -2.40188E-01
    8991.239     -4.122   0.960  4.46871E-01  6.58313E-01 -2.11442E-01
    8991.538     -3.823   1.000  4.86529E-01  6.74062E-01 -1.87533E-01
    8991.849     -3.513   1.040  5.19805E-01  6.89693E-01 -1.69888E-01
    8992.172     -3.189   1.080  5.49442E-01  7.05173E-01 -1.55732E-01
    8992.507     -2.854   1.120  5.75614E-01  7.20487E-01 -1.44873E-01
    8992.855     -2.507   1.160  5.92456E-01  7.35632E-01 -1.43176E-01
    8993.215     -2.147   1.200  5.94974E-01  7.50519E-01 -1.55545E-01
    8993.586     -1.775   1.240  5.87202E-01  7.65163E-01 -1.77961E-01
    8993.970     -1.391   1.280  5.79115E-01  7.79535E-01 -2.00420E-01
    8994.367     -0.995   1.320  5.77773E-01  7.93563E-01 -2.15790E-01
    8994.775     -0.586   1.360  5.88187E-01  8.07234E-01 -2.19047E-01
    8995.196     -0.166   1.400  6.13182E-01  8.20540E-01 -2.07359E-01
    8995.629      0.267   1.440  6.50485E-01  8.33429E-01 -1.82944E-01
    8996.074      0.712   1.480  6.97568E-01  8.45869E-01 -1.48302E-01
    8996.531      1.169   1.520  7.53331E-01  8.57833E-01 -1.04502E-01
    8997.000      1.639   1.560  8.20916E-01  8.69331E-01 -4.84149E-02
    8997.482      2.120   1.600  9.05016E-01  8.80319E-01  2.46972E-02
    8997.976      2.614   1.640  1.00498E+00  8.90810E-01  1.14174E-01
    8998.481      3.120   1.680  1.11337E+00  9.00760E-01  2.12608E-01
    8999.000      3.638   1.720  1.21598E+00  9.10167E-01  3.05814E-01
    8999.530      4.168   1.760  1.30510E+00  9.19073E-01  3.86032E-01
    9000.073      4.711   1.800  1.38514E+00  9.27415E-01  4.57725E-01
    9000.627      5.266   1.840  1.44960E+00  9.35238E-01  5.14361E-01
    9001.194      5.833   1.880  1.48157E+00  9.42525E-01  5.39050E-01
    9001.773      6.412   1.920  1.46417E+00  9.49299E-01  5.14871E-01
    9002.365      7.003   1.960  1.39214E+00  9.55570E-01  4.36569E-01
    9002.968      7.607   2.000  1.28547E+00  9.61343E-01  3.24126E-01
    9003.584      8.222   2.040  1.17922E+00  9.66626E-01  2.12598E-01
    9004.212      8.850   2.080  1.09476E+00  9.71468E-01  1.23292E-01
    9004.852      9.490   2.120  1.03612E+00  9.75859E-01  6.02564E-02
    9005.504     10.142   2.160  1.00068E+00  9.79807E-01  2.08707E-02
    9006.168     10.807   2.200  9.85173E-01  9.83366E-01  1.80780E-03
    9006.845     11.484   2.240  9.87042E-01  9.86523E-01  5.18362E-04
    9007.534     12.172   2.280  1.00285E+00  9.89333E-01  1.35208E-02
    9008.235     12.873   2.320  1.02580E+00  9.91804E-01  3.39942E-02
    9008.948     13.587   2.360  1.04540E+00  9.93949E-01  5.14500E-02
    9009.674     14.312   2.400  1.05314E+00  9.95778E-01  5.73608E-02
    9010.411     15.050   2.440  1.05073E+00  9.97343E-01  5.33849E-02
    9011.161     15.800   2.480  1.04633E+00  9.98655E-01  4.76780E-02
    9011.923     16.562   2.520  1.04243E+00  9.99722E-01  4.27124E-02
    9012.697     17.336   2.560  1.03317E+00  1.00058E+00  3.25934E-02
    9013.484     18.122   2.600  1.01488E+00  1.00123E+00  1.36566E-02
    9014.282     18.921   2.640  9.91018E-01  1.00168E+00 -1.06670E-02
    9015.093     19.731   2.680  9.68191E-01  1.00200E+00 -3.38072E-02
    9015.916     20.554   2.720  9.50943E-01  1.00218E+00 -5.12353E-02
    9016.751     21.390   2.760  9.40247E-01  1.00221E+00 -6.19659E-02
    9017.598     22.237   2.800  9.34549E-01  1.00215E+00 -6.76008E-02
    9018.458     23.096   2.840  9.31834E-01  1.00200E+00 -7.01630E-02
    9019.330     23.968   2.880  9.31244E-01  1.00176E+00 -7.05154E-02
    9020.214     24.852   2.920  9.32319E-01  1.00144E+00 -6.91257E-02
    9021.110     25.748   2.960  9.34310E-01  1.00106E+00 -6.67496E-02
    9022.018     26.656   3.000  9.35775E-01  1.00065E+00 -6.48755E-02
    9022.939     27.577   3.040  9.35404E-01  1.00020E+00 -6.47978E-02
    9023.871     28.510   3.080  9.32668E-01  9.99720E-01 -6.70521E-02
    9024.816     29.455   3.120  9.27701E-01  9.99230E-01 -7.15291E-02
    9025.773     30.412   3.160  9.20894E-01  9.98737E-01 -7.78426E-02
    9026.742     31.381   3.200  9.13069E-01  9.98243E-01 -8.51746E-02
    9027.724     32.362   3.240  9.05468E-01  9.97774E-01 -9.23062E-02
    9028.718     33.356   3.280  8.99270E-01  9.97290E-01 -9.80203E-02
    9029.723     34.362   3.320  8.95849E-01  9.96857E-01 -1.01009E-01
    9030.741     35.380   3.360  8.96451E-01  9.96436E-01 -9.99845E-02
    9031.772     36.410   3.400  9.01882E-01  9.96027E-01 -9.41449E-02
    9032.814     37.452   3.440  9.11969E-01  9.95676E-01 -8.37076E-02
    9033.869     38.507   3.480  9.25670E-01  9.95364E-01 -6.96939E-02
    9034.935     39.574   3.520  9.40986E-01  9.95070E-01 -5.40833E-02
    9036.014     40.653   3.560  9.55400E-01  9.94838E-01 -3.94382E-02
    9037.106     41.744   3.600  9.66829E-01  9.94649E-01 -2.78204E-02
    9038.209     42.847   3.640  9.74479E-01  9.94502E-01 -2.00232E-02
    9039.325     43.963   3.680  9.78795E-01  9.94397E-01 -1.56017E-02
    9040.452     45.091   3.720  9.81126E-01  9.94335E-01 -1.32097E-02
    9041.592     46.231   3.760  9.83155E-01  9.94339E-01 -1.11843E-02
    9042.744     47.383   3.800  9.86084E-01  9.94387E-01 -8.30244E-03
    9043.909     48.547   3.840  9.90464E-01  9.94476E-01 -4.01286E-03
    9045.085     49.724   3.880  9.96572E-01  9.94608E-01  1.96401E-03
    9046.274     50.912   3.920  1.00461E+00  9.94781E-01  9.82667E-03
    9047.475     52.113   3.960  1.01464E+00  9.94996E-01  1.96484E-02
    9048.688     53.326   4.000  1.02655E+00  9.95275E-01  3.12765E-02
    9049.913     54.552   4.040  1.03983E+00  9.95572E-01  4.42563E-02
    9051.151     55.789   4.080  1.05383E+00  9.95929E-01  5.79011E-02
    9052.400     57.039   4.120  1.06755E+00  9.96302E-01  7.12471E-02
    9053.662     58.301   4.160  1.07991E+00  9.96711E-01  8.31968E-02
    9054.936     59.575   4.200  1.08974E+00  9.97157E-01  9.25849E-02
    9056.223     60.861   4.240  1.09633E+00  9.97637E-01  9.86959E-02
    9057.521     62.159   4.280  1.09980E+00  9.98127E-01  1.01668E-01
    9058.832     63.470   4.320  1.10098E+00  9.98648E-01  1.02331E-01
    9060.154     64.793   4.360  1.10077E+00  9.99178E-01  1.01589E-01
    9061.489     66.128   4.400  1.09959E+00  9.99735E-01  9.98528E-02
    9062.837     67.475   4.440  1.09717E+00  1.00030E+00  9.68728E-02
    9064.196     68.835   4.480  1.09269E+00  1.00086E+00  9.18331E-02
    9065.568     70.206   4.520  1.08546E+00  1.00143E+00  8.40297E-02
    9066.951     71.590   4.560  1.07532E+00  1.00202E+00  7.33064E-02
    9068.347     72.986   4.600  1.06282E+00  1.00259E+00  6.02328E-02
    9069.756     74.394   4.640  1.04895E+00  1.00317E+00  4.57824E-02
    9071.176     75.814   4.680  1.03441E+00  1.00373E+00  3.06735E-02
    9072.609     77.247   4.720  1.01922E+00  1.00429E+00  1.49332E-02
    9074.053     78.692   4.760  1.00301E+00  1.00481E+00 -1.79515E-03
    9075.510     80.149   4.800  9.85827E-01  1.00535E+00 -1.95200E-02
    9076.979     81.618   4.840  9.68336E-01  1.00583E+00 -3.74954E-02
    9078.461     83.099   4.880  9.51963E-01  1.00630E+00 -5.43405E-02
    9079.954     84.593   4.920  9.38202E-01  1.00677E+00 -6.85638E-02
    9081.460     86.098   4.960  9.28272E-01  1.00719E+00 -7.89216E-02
    9082.978     87.616   5.000  9.22831E-01  1.00759E+00 -8.47550E-02
    9084.508     89.146   5.040  9.21926E-01  1.00796E+00 -8.60351E-02
    9086.050     90.689   5.080  9.24996E-01  1.00830E+00 -8.33034E-02
    9087.605     92.243   5.120  9.31136E-01  1.00858E+00 -7.74386E-02
    9089.171     93.810   5.160  9.39420E-01  1.00883E+00 -6.94127E-02
    9090.750     95.389   5.200  9.48921E-01  1.00905E+00 -6.01333E-02
    9092.341     96.980   5.240  9.58663E-01  1.00926E+00 -5.05944E-02
    9093.944     98.583   5.280  9.67497E-01  1.00940E+00 -4.18998E-02
    9095.560    100.198   5.320  9.74465E-01  1.00949E+00 -3.50280E-02
    9097.187    101.826   5.360  9.79236E-01  1.00955E+00 -3.03118E-02
    9098.827    103.466   5.400  9.82295E-01  1.00956E+00 -2.72654E-02
    9100.479    105.118   5.440  9.84598E-01  1.00953E+00 -2.49364E-02
    9102.144    106.782   5.480  9.86915E-01  1.00949E+00 -2.25762E-02
    9103.820    108.458   5.520  9.89424E-01  1.00938E+00 -1.99589E-02
    9105.508    110.147   5.560  9.92069E-01  1.00923E+00 -1.71624E-02
    9107.209    111.848   5.600  9.94813E-01  1.00904E+00 -1.42258E-02
    9108.922    113.561   5.640  9.97721E-01  1.00881E+00 -1.10872E-02
    9110.647    115.286   5.680  1.00099E+00  1.00856E+00 -7.57055E-03
    9112.385    117.023   5.720  1.00488E+00  1.00826E+00 -3.37289E-03
    9114.134    118.773   5.760  1.00981E+00  1.00793E+00  1.87145E-03
    9115.896    120.534   5.800  1.01590E+00  1.00758E+00  8.32601E-03
    9117.670    122.308   5.840  1.02285E+00  1.00719E+00  1.56633E-02
    9119.456    124.095   5.880  1.02966E+00  1.00676E+00  2.29000E-02
    9121.254    125.893   5.920  1.03488E+00  1.00633E+00  2.85451E-02
    9123.065    127.703   5.960  1.03702E+00  1.00587E+00  3.11469E-02
    9124.888    129.526   6.000  1.03534E+00  1.00536E+00  2.99737E-02
