# # comment:                                                     FEFF 9.9.1  
# # Source:
# # Structure
# # Reduced
# # space
# # abc:
# # angles:
# # sites:
# # POT  SCF 100  7.0000   0, screened core-hole, AFOLP (folp(0)= 1.150)
# # Abs   Z=29 Rmt= 1.261 Rnm= 1.343 K  shell
# # Pot 1 Z=29 Rmt= 1.261 Rnm= 1.343
# # Pot 2 Z=74 Rmt= 1.241 Rnm= 1.424
# # Pot 3 Z= 8 Rmt= 1.031 Rnm= 1.100
# # Gam_ch=1.729E+00 H-L exch Vi= 0.000E+00 Vr= 0.000E+00
# # Mu=-7.298E+00eV kf=2.220E+00 Vint=-1.570E+01eV Rs_int= 1.633
# FMS rfms= 9.0000
# # PATH  Rmax=-1.000,  Keep_limit= 0.00, Heap_limit 0.00  Pwcrit= 2.50%
#  S02=0.950  Temp=   0.00  Debye_temp=   0.00  Global_sig2= 0.00000
#  Energy zero shift, vr, vi    0.00000E+00   0.00000E+00
#  Curved wave amplitude ratio filter   4.000%
#     file         sig2 tot  cw amp ratio   deg  nlegs   reff  inp sig2
#     0/   0 paths used
#  xsedge+ 50, used to normalize mu           2.4656E-04
#  -----------------------------------------------------------------------
#  omega    e    k    mu    mu0     chi     @#
    8983.447    -11.108  -1.000  3.53725E-02  5.17649E-02 -1.63924E-02
    8983.746    -10.809  -0.960  3.71145E-02  5.54655E-02 -1.83511E-02
    8984.033    -10.523  -0.920  3.89793E-02  5.95727E-02 -2.05934E-02
    8984.307    -10.249  -0.880  4.09795E-02  6.41459E-02 -2.31664E-02
    8984.569     -9.986  -0.840  4.31290E-02  6.92541E-02 -2.61251E-02
    8984.819     -9.736  -0.800  4.54437E-02  7.49775E-02 -2.95338E-02
    8985.057     -9.499  -0.760  4.79408E-02  8.14077E-02 -3.34669E-02
    8985.282     -9.273  -0.720  5.06392E-02  8.86484E-02 -3.80092E-02
    8985.496     -9.060  -0.680  5.35588E-02  9.68137E-02 -4.32549E-02
    8985.697     -8.859  -0.640  5.67192E-02  1.06024E-01 -4.93046E-02
    8985.886     -8.670  -0.600  6.01383E-02  1.16397E-01 -5.62584E-02
    8986.063     -8.493  -0.560  6.38288E-02  1.28033E-01 -6.42041E-02
    8986.227     -8.328  -0.520  6.77940E-02  1.40992E-01 -7.31980E-02
    8986.380     -8.176  -0.480  7.20211E-02  1.55260E-01 -8.32384E-02
    8986.520     -8.036  -0.440  7.64752E-02  1.70711E-01 -9.42356E-02
    8986.648     -7.908  -0.400  8.10924E-02  1.87078E-01 -1.05986E-01
    8986.764     -7.792  -0.360  8.57791E-02  2.03941E-01 -1.18162E-01
    8986.867     -7.688  -0.320  9.04163E-02  2.20753E-01 -1.30337E-01
    8986.959     -7.597  -0.280  9.48706E-02  2.36908E-01 -1.42038E-01
    8987.038     -7.518  -0.240  9.90095E-02  2.51822E-01 -1.52813E-01
    8987.105     -7.450  -0.200  1.02713E-01  2.65006E-01 -1.62293E-01
    8987.160     -7.396  -0.160  1.05880E-01  2.76099E-01 -1.70219E-01
    8987.203     -7.353  -0.120  1.08430E-01  2.84870E-01 -1.76439E-01
    8987.233     -7.322  -0.080  1.10304E-01  2.91190E-01 -1.80886E-01
    8987.257     -7.298   0.000  1.11857E-01  2.96268E-01 -1.84412E-01
    8987.312     -7.243   0.120  1.15447E-01  3.07726E-01 -1.92279E-01
    8987.355     -7.201   0.160  1.18248E-01  3.16641E-01 -1.98393E-01
    8987.410     -7.146   0.200  1.21875E-01  3.28012E-01 -2.06137E-01
    8987.477     -7.079   0.240  1.26425E-01  3.41731E-01 -2.15305E-01
    8987.556     -6.999   0.280  1.31898E-01  3.57472E-01 -2.25575E-01
    8987.648     -6.908   0.320  1.38431E-01  3.74910E-01 -2.36479E-01
    8987.751     -6.804   0.360  1.46017E-01  3.93499E-01 -2.47482E-01
    8987.867     -6.688   0.400  1.54729E-01  4.12743E-01 -2.58014E-01
    8987.995     -6.560   0.440  1.64533E-01  4.32149E-01 -2.67616E-01
    8988.135     -6.420   0.480  1.75260E-01  4.51355E-01 -2.76095E-01
    8988.288     -6.268   0.520  1.86540E-01  4.70128E-01 -2.83588E-01
    8988.452     -6.103   0.560  1.97843E-01  4.88342E-01 -2.90499E-01
    8988.629     -5.926   0.600  2.08685E-01  5.05966E-01 -2.97281E-01
    8988.818     -5.738   0.640  2.18874E-01  5.23072E-01 -3.04198E-01
    8989.019     -5.536   0.680  2.28686E-01  5.39684E-01 -3.10998E-01
    8989.233     -5.323   0.720  2.38899E-01  5.55920E-01 -3.17021E-01
    8989.458     -5.097   0.760  2.50640E-01  5.71834E-01 -3.21195E-01
    8989.696     -4.860   0.800  2.65193E-01  5.87535E-01 -3.22342E-01
    8989.946     -4.610   0.840  2.83147E-01  6.03034E-01 -3.19888E-01
    8990.208     -4.348   0.880  3.03201E-01  6.18395E-01 -3.15194E-01
    8990.482     -4.073   0.920  3.22294E-01  6.33647E-01 -3.11353E-01
    8990.769     -3.787   0.960  3.39067E-01  6.48829E-01 -3.09762E-01
    8991.067     -3.488   1.000  3.56499E-01  6.63906E-01 -3.07407E-01
    8991.378     -3.177   1.040  3.79063E-01  6.78900E-01 -2.99837E-01
    8991.701     -2.854   1.080  4.06480E-01  6.93783E-01 -2.87304E-01
    8992.037     -2.519   1.120  4.32006E-01  7.08563E-01 -2.76557E-01
    8992.384     -2.171   1.160  4.49571E-01  7.23222E-01 -2.73650E-01
    8992.744     -1.812   1.200  4.61893E-01  7.37717E-01 -2.75824E-01
    8993.116     -1.440   1.240  4.78101E-01  7.52044E-01 -2.73943E-01
    8993.500     -1.056   1.280  5.05598E-01  7.66136E-01 -2.60538E-01
    8993.896     -0.660   1.320  5.44699E-01  7.80005E-01 -2.35305E-01
    8994.304     -0.251   1.360  5.89724E-01  7.93600E-01 -2.03877E-01
    8994.725      0.169   1.400  6.37143E-01  8.06894E-01 -1.69751E-01
    8995.158      0.602   1.440  6.89349E-01  8.19854E-01 -1.30505E-01
    8995.603      1.047   1.480  7.49231E-01  8.32470E-01 -8.32384E-02
    8996.060      1.505   1.520  8.14770E-01  8.44711E-01 -2.99415E-02
    8996.529      1.974   1.560  8.80517E-01  8.56530E-01  2.39866E-02
    8997.011      2.455   1.600  9.37493E-01  8.67938E-01  6.95549E-02
    8997.505      2.949   1.640  9.73361E-01  8.78908E-01  9.44531E-02
    8998.011      3.455   1.680  9.87321E-01  8.89432E-01  9.78887E-02
    8998.529      3.973   1.720  9.97332E-01  8.99465E-01  9.78670E-02
    8999.059      4.504   1.760  1.02467E+00  9.09025E-01  1.15643E-01
    8999.602      5.046   1.800  1.07656E+00  9.18088E-01  1.58469E-01
    9000.157      5.601   1.840  1.14438E+00  9.26673E-01  2.17708E-01
    9000.723      6.168   1.880  1.21326E+00  9.34760E-01  2.78499E-01
    9001.303      6.747   1.920  1.28046E+00  9.42350E-01  3.38108E-01
    9001.894      7.338   1.960  1.35014E+00  9.49444E-01  4.00694E-01
    9002.497      7.942   2.000  1.41203E+00  9.56067E-01  4.55959E-01
    9003.113      8.558   2.040  1.44704E+00  9.62203E-01  4.84837E-01
    9003.741      9.185   2.080  1.44673E+00  9.67877E-01  4.78856E-01
    9004.381      9.826   2.120  1.42090E+00  9.73096E-01  4.47805E-01
    9005.033     10.478   2.160  1.37476E+00  9.77867E-01  3.96893E-01
    9005.698     11.142   2.200  1.30832E+00  9.82216E-01  3.26099E-01
    9006.374     11.819   2.240  1.23067E+00  9.86153E-01  2.44522E-01
    9007.063     12.508   2.280  1.15589E+00  9.89685E-01  1.66204E-01
    9007.764     13.209   2.320  1.09701E+00  9.92843E-01  1.04169E-01
    9008.478     13.922   2.360  1.05620E+00  9.95634E-01  6.05625E-02
    9009.203     14.647   2.400  1.02612E+00  9.98089E-01  2.80298E-02
    9009.941     15.385   2.440  1.00275E+00  1.00024E+00  2.50636E-03
    9010.690     16.135   2.480  9.85211E-01  1.00205E+00 -1.68401E-02
    9011.452     16.897   2.520  9.67368E-01  1.00360E+00 -3.62278E-02
    9012.227     17.671   2.560  9.44878E-01  1.00488E+00 -6.00056E-02
    9013.013     18.457   2.600  9.24983E-01  1.00590E+00 -8.09193E-02
    9013.811     19.256   2.640  9.22289E-01  1.00670E+00 -8.44141E-02
    9014.622     20.067   2.680  9.29864E-01  1.00727E+00 -7.74097E-02
    9015.445     20.890   2.720  9.38893E-01  1.00766E+00 -6.87693E-02
    9016.280     21.725   2.760  9.45184E-01  1.00788E+00 -6.26953E-02
    9017.128     22.572   2.800  9.47393E-01  1.00791E+00 -6.05193E-02
    9017.987     23.432   2.840  9.45568E-01  1.00781E+00 -6.22433E-02
    9018.859     24.303   2.880  9.40228E-01  1.00758E+00 -6.73555E-02
    9019.743     25.187   2.920  9.32225E-01  1.00726E+00 -7.50314E-02
    9020.639     26.083   2.960  9.22784E-01  1.00682E+00 -8.40321E-02
    9021.547     26.992   3.000  9.13068E-01  1.00627E+00 -9.32012E-02
    9022.468     27.912   3.040  9.04018E-01  1.00566E+00 -1.01645E-01
    9023.400     28.845   3.080  8.96460E-01  1.00500E+00 -1.08544E-01
    9024.345     29.790   3.120  8.91049E-01  1.00428E+00 -1.13229E-01
    9025.302     30.747   3.160  8.88039E-01  1.00351E+00 -1.15470E-01
    9026.272     31.716   3.200  8.87536E-01  1.00272E+00 -1.15187E-01
    9027.253     32.698   3.240  8.89407E-01  1.00190E+00 -1.12498E-01
    9028.247     33.691   3.280  8.93269E-01  1.00106E+00 -1.07787E-01
    9029.253     34.697   3.320  8.98780E-01  1.00023E+00 -1.01445E-01
    9030.271     35.715   3.360  9.05584E-01  9.99395E-01 -9.38114E-02
    9031.301     36.745   3.400  9.13379E-01  9.98568E-01 -8.51885E-02
    9032.343     37.788   3.440  9.21733E-01  9.97746E-01 -7.60135E-02
    9033.398     38.842   3.480  9.30432E-01  9.96956E-01 -6.65237E-02
    9034.465     39.909   3.520  9.39352E-01  9.96197E-01 -5.68453E-02
    9035.544     40.988   3.560  9.48459E-01  9.95453E-01 -4.69936E-02
    9036.635     42.079   3.600  9.57951E-01  9.94766E-01 -3.68145E-02
    9037.738     43.183   3.640  9.68016E-01  9.94095E-01 -2.60790E-02
    9038.854     44.298   3.680  9.78861E-01  9.93464E-01 -1.46027E-02
    9039.982     45.426   3.720  9.90496E-01  9.92895E-01 -2.39854E-03
    9041.121     46.566   3.760  1.00280E+00  9.92348E-01  1.04474E-02
    9042.274     47.718   3.800  1.01556E+00  9.91864E-01  2.36920E-02
    9043.438     48.882   3.840  1.02838E+00  9.91424E-01  3.69523E-02
    9044.614     50.059   3.880  1.04079E+00  9.91029E-01  4.97597E-02
    9045.803     51.248   3.920  1.05206E+00  9.90701E-01  6.13614E-02
    9047.004     52.449   3.960  1.06109E+00  9.90416E-01  7.06724E-02
    9048.217     53.662   4.000  1.06687E+00  9.90175E-01  7.66991E-02
    9049.442     54.887   4.040  1.06898E+00  9.89980E-01  7.90005E-02
    9050.680     56.124   4.080  1.06777E+00  9.89850E-01  7.79184E-02
    9051.930     57.374   4.120  1.06412E+00  9.89764E-01  7.43591E-02
    9053.191     58.636   4.160  1.05916E+00  9.89722E-01  6.94352E-02
    9054.466     59.910   4.200  1.05363E+00  9.89723E-01  6.39059E-02
    9055.752     61.196   4.240  1.04788E+00  9.89786E-01  5.80931E-02
    9057.050     62.495   4.280  1.04188E+00  9.89871E-01  5.20126E-02
    9058.361     63.805   4.320  1.03563E+00  9.90018E-01  4.56103E-02
    9059.684     65.128   4.360  1.02920E+00  9.90204E-01  3.90006E-02
    9061.019     66.463   4.400  1.02299E+00  9.90408E-01  3.25814E-02
    9062.366     67.810   4.440  1.01759E+00  9.90670E-01  2.69172E-02
    9063.725     69.170   4.480  1.01338E+00  9.90946E-01  2.24352E-02
    9065.097     70.541   4.520  1.01057E+00  9.91258E-01  1.93081E-02
    9066.481     71.925   4.560  1.00904E+00  9.91601E-01  1.74370E-02
    9067.877     73.321   4.600  1.00851E+00  9.91956E-01  1.65540E-02
    9069.285     74.729   4.640  1.00868E+00  9.92342E-01  1.63419E-02
    9070.705     76.150   4.680  1.00918E+00  9.92736E-01  1.64450E-02
    9072.138     77.582   4.720  1.00960E+00  9.93158E-01  1.64404E-02
    9073.583     79.027   4.760  1.00947E+00  9.93585E-01  1.58803E-02
    9075.039     80.484   4.800  1.00838E+00  9.94017E-01  1.43652E-02
    9076.509     81.953   4.840  1.00604E+00  9.94472E-01  1.15666E-02
    9077.990     83.434   4.880  1.00220E+00  9.94906E-01  7.28857E-03
    9079.483     84.928   4.920  9.96934E-01  9.95361E-01  1.57280E-03
    9080.989     86.434   4.960  9.90663E-01  9.95794E-01 -5.13143E-03
    9082.507     87.952   5.000  9.84319E-01  9.96243E-01 -1.19246E-02
    9084.037     89.482   5.040  9.78930E-01  9.96666E-01 -1.77358E-02
    9085.579     91.024   5.080  9.75320E-01  9.97060E-01 -2.17406E-02
    9087.134     92.578   5.120  9.73730E-01  9.97469E-01 -2.37384E-02
    9088.701     94.145   5.160  9.73589E-01  9.97847E-01 -2.42579E-02
    9090.279     95.724   5.200  9.73942E-01  9.98196E-01 -2.42539E-02
    9091.870     97.315   5.240  9.73933E-01  9.98556E-01 -2.46227E-02
    9093.474     98.918   5.280  9.73125E-01  9.98861E-01 -2.57362E-02
    9095.089    100.534   5.320  9.71778E-01  9.99152E-01 -2.73745E-02
    9096.717    102.161   5.360  9.70395E-01  9.99407E-01 -2.90120E-02
    9098.357    103.801   5.400  9.69293E-01  9.99626E-01 -3.03331E-02
    9100.009    105.453   5.440  9.68363E-01  9.99829E-01 -3.14662E-02
    9101.673    107.117   5.480  9.67165E-01  9.99972E-01 -3.28073E-02
    9103.349    108.794   5.520  9.65483E-01  1.00010E+00 -3.46178E-02
    9105.038    110.482   5.560  9.63369E-01  1.00019E+00 -3.68241E-02
    9106.739    112.183   5.600  9.61215E-01  1.00027E+00 -3.90548E-02
    9108.451    113.896   5.640  9.59467E-01  1.00029E+00 -4.08185E-02
    9110.177    115.621   5.680  9.58574E-01  1.00026E+00 -4.16854E-02
    9111.914    117.358   5.720  9.58843E-01  1.00022E+00 -4.13749E-02
    9113.664    119.108   5.760  9.60442E-01  1.00012E+00 -3.96743E-02
    9115.425    120.870   5.800  9.63630E-01  9.99998E-01 -3.63679E-02
    9117.199    122.644   5.840  9.68545E-01  9.99842E-01 -3.12970E-02
    9118.985    124.430   5.880  9.75124E-01  9.99625E-01 -2.45014E-02
    9120.784    126.228   5.920  9.83083E-01  9.99395E-01 -1.63120E-02
    9122.594    128.039   5.960  9.91786E-01  9.99128E-01 -7.34207E-03
    9124.417    129.861   6.000  1.00063E+00  9.98802E-01  1.82975E-03
