# # comment:                                                     FEFF 9.9.1  
# # Source:
# # Structure
# # Reduced
# # space
# # abc:
# # angles:
# # sites:
# # POT  SCF 100  7.0000   0, screened core-hole, AFOLP (folp(0)= 1.150)
# # Abs   Z=29 Rmt= 1.278 Rnm= 1.357 K  shell
# # Pot 1 Z= 3 Rmt= 1.249 Rnm= 1.317
# # Pot 2 Z=29 Rmt= 1.293 Rnm= 1.366
# # Pot 3 Z=14 Rmt= 0.999 Rnm= 1.217
# # Pot 4 Z= 8 Rmt= 0.916 Rnm= 1.083
# # Gam_ch=1.729E+00 H-L exch Vi= 0.000E+00 Vr= 0.000E+00
# # Mu=-7.620E+00eV kf=2.332E+00 Vint=-1.661E+01eV Rs_int= 1.555
# FMS rfms= 9.0000
# # PATH  Rmax=-1.000,  Keep_limit= 0.00, Heap_limit 0.00  Pwcrit= 2.50%
#  S02=0.950  Temp=   0.00  Debye_temp=   0.00  Global_sig2= 0.00000
#  Energy zero shift, vr, vi    0.00000E+00   0.00000E+00
#  Curved wave amplitude ratio filter   4.000%
#     file         sig2 tot  cw amp ratio   deg  nlegs   reff  inp sig2
#     0/   0 paths used
#  xsedge+ 50, used to normalize mu           2.4811E-04
#  -----------------------------------------------------------------------
#  omega    e    k    mu    mu0     chi     @#
    8983.513    -11.430  -1.000  3.72277E-02  4.95318E-02 -1.23040E-02
    8983.811    -11.131  -0.960  3.91792E-02  5.30358E-02 -1.38565E-02
    8984.098    -10.845  -0.920  4.12735E-02  5.69233E-02 -1.56499E-02
    8984.372    -10.571  -0.880  4.35241E-02  6.12506E-02 -1.77265E-02
    8984.634    -10.308  -0.840  4.59462E-02  6.60829E-02 -2.01367E-02
    8984.884    -10.059  -0.800  4.85562E-02  7.14959E-02 -2.29397E-02
    8985.122     -9.821  -0.760  5.13718E-02  7.75762E-02 -2.62044E-02
    8985.348     -9.595  -0.720  5.44121E-02  8.44220E-02 -3.00099E-02
    8985.561     -9.382  -0.680  5.76965E-02  9.21410E-02 -3.44445E-02
    8985.762     -9.181  -0.640  6.12437E-02  1.00847E-01 -3.96034E-02
    8985.951     -8.992  -0.600  6.50700E-02  1.10652E-01 -4.55820E-02
    8986.128     -8.815  -0.560  6.91860E-02  1.21651E-01 -5.24649E-02
    8986.293     -8.650  -0.520  7.35920E-02  1.33900E-01 -6.03079E-02
    8986.445     -8.498  -0.480  7.82724E-02  1.47386E-01 -6.91136E-02
    8986.585     -8.358  -0.440  8.31884E-02  1.61991E-01 -7.88023E-02
    8986.713     -8.230  -0.400  8.82725E-02  1.77461E-01 -8.91884E-02
    8986.829     -8.114  -0.360  9.34257E-02  1.93399E-01 -9.99728E-02
    8986.933     -8.010  -0.320  9.85217E-02  2.09287E-01 -1.10765E-01
    8987.024     -7.919  -0.280  1.03417E-01  2.24553E-01 -1.21136E-01
    8987.103     -7.840  -0.240  1.07967E-01  2.38644E-01 -1.30677E-01
    8987.170     -7.773  -0.200  1.12037E-01  2.51097E-01 -1.39060E-01
    8987.225     -7.718  -0.160  1.15516E-01  2.61574E-01 -1.46059E-01
    8987.268     -7.675  -0.120  1.18315E-01  2.69858E-01 -1.51543E-01
    8987.298     -7.644  -0.080  1.20369E-01  2.75826E-01 -1.55457E-01
    8987.323     -7.620   0.000  1.22070E-01  2.80622E-01 -1.58552E-01
    8987.378     -7.565   0.120  1.25888E-01  2.91433E-01 -1.65545E-01
    8987.420     -7.523   0.160  1.28876E-01  2.99845E-01 -1.70969E-01
    8987.475     -7.468   0.200  1.32745E-01  3.10581E-01 -1.77837E-01
    8987.542     -7.401   0.240  1.37544E-01  3.23503E-01 -1.85958E-01
    8987.621     -7.321   0.280  1.43306E-01  3.38353E-01 -1.95047E-01
    8987.713     -7.230   0.320  1.50065E-01  3.54760E-01 -2.04695E-01
    8987.816     -7.126   0.360  1.57874E-01  3.72264E-01 -2.14390E-01
    8987.932     -7.011   0.400  1.66818E-01  3.90352E-01 -2.23535E-01
    8988.060     -6.882   0.440  1.77062E-01  4.08576E-01 -2.31514E-01
    8988.201     -6.742   0.480  1.88875E-01  4.26589E-01 -2.37714E-01
    8988.353     -6.590   0.520  2.02660E-01  4.44150E-01 -2.41490E-01
    8988.518     -6.425   0.560  2.18880E-01  4.61180E-01 -2.42300E-01
    8988.694     -6.249   0.600  2.37952E-01  4.77651E-01 -2.39699E-01
    8988.883     -6.060   0.640  2.59967E-01  4.93576E-01 -2.33609E-01
    8989.084     -5.858   0.680  2.84490E-01  5.09078E-01 -2.24587E-01
    8989.298     -5.645   0.720  3.10469E-01  5.24191E-01 -2.13721E-01
    8989.523     -5.419   0.760  3.37089E-01  5.39051E-01 -2.01962E-01
    8989.761     -5.182   0.800  3.64638E-01  5.53685E-01 -1.89047E-01
    8990.011     -4.932   0.840  3.94060E-01  5.68185E-01 -1.74126E-01
    8990.273     -4.670   0.880  4.24513E-01  5.82576E-01 -1.58064E-01
    8990.547     -4.395   0.920  4.51978E-01  5.96909E-01 -1.44931E-01
    8990.834     -4.109   0.960  4.71500E-01  6.11224E-01 -1.39724E-01
    8991.133     -3.810   1.000  4.82351E-01  6.25491E-01 -1.43140E-01
    8991.444     -3.499   1.040  4.90291E-01  6.39754E-01 -1.49463E-01
    8991.767     -3.176   1.080  5.02538E-01  6.53989E-01 -1.51452E-01
    8992.102     -2.841   1.120  5.22512E-01  6.68205E-01 -1.45693E-01
    8992.449     -2.493   1.160  5.49007E-01  6.82368E-01 -1.33361E-01
    8992.809     -2.134   1.200  5.77164E-01  6.96500E-01 -1.19336E-01
    8993.181     -1.762   1.240  6.00092E-01  7.10539E-01 -1.10447E-01
    8993.565     -1.378   1.280  6.13708E-01  7.24459E-01 -1.10751E-01
    8993.961     -0.982   1.320  6.20136E-01  7.38275E-01 -1.18139E-01
    8994.370     -0.573   1.360  6.24543E-01  7.51938E-01 -1.27394E-01
    8994.790     -0.153   1.400  6.32537E-01  7.65398E-01 -1.32861E-01
    8995.223      0.280   1.440  6.48352E-01  7.78668E-01 -1.30316E-01
    8995.668      0.725   1.480  6.69588E-01  7.91695E-01 -1.22107E-01
    8996.125      1.182   1.520  6.90224E-01  8.04470E-01 -1.14245E-01
    8996.595      1.652   1.560  7.10290E-01  8.16960E-01 -1.06670E-01
    8997.076      2.133   1.600  7.37463E-01  8.29116E-01 -9.16535E-02
    8997.570      2.627   1.640  7.79015E-01  8.40949E-01 -6.19341E-02
    8998.076      3.133   1.680  8.39946E-01  8.52430E-01 -1.24843E-02
    8998.594      3.651   1.720  9.21022E-01  8.63529E-01  5.74927E-02
    8999.125      4.182   1.760  1.01488E+00  8.74240E-01  1.40639E-01
    8999.667      4.724   1.800  1.11341E+00  8.84535E-01  2.28876E-01
    9000.222      5.279   1.840  1.20276E+00  8.94408E-01  3.08351E-01
    9000.789      5.846   1.880  1.26397E+00  9.03856E-01  3.60113E-01
    9001.368      6.425   1.920  1.29318E+00  9.12853E-01  3.80331E-01
    9001.959      7.016   1.960  1.29350E+00  9.21397E-01  3.72101E-01
    9002.563      7.620   2.000  1.26280E+00  9.29490E-01  3.33313E-01
    9003.178      8.236   2.040  1.21124E+00  9.37147E-01  2.74095E-01
    9003.806      8.863   2.080  1.16311E+00  9.44330E-01  2.18783E-01
    9004.446      9.503   2.120  1.13040E+00  9.51063E-01  1.79335E-01
    9005.099     10.156   2.160  1.10724E+00  9.57366E-01  1.49871E-01
    9005.763     10.820   2.200  1.08430E+00  9.63202E-01  1.21097E-01
    9006.440     11.497   2.240  1.06080E+00  9.68636E-01  9.21611E-02
    9007.129     12.186   2.280  1.04380E+00  9.73613E-01  7.01862E-02
    9007.830     12.887   2.320  1.03818E+00  9.78199E-01  5.99837E-02
    9008.543     13.600   2.360  1.03906E+00  9.82378E-01  5.66776E-02
    9009.268     14.325   2.400  1.03946E+00  9.86157E-01  5.33026E-02
    9010.006     15.063   2.440  1.04201E+00  9.89565E-01  5.24471E-02
    9010.756     15.813   2.480  1.05362E+00  9.92609E-01  6.10148E-02
    9011.518     16.575   2.520  1.07563E+00  9.95316E-01  8.03097E-02
    9012.292     17.349   2.560  1.10150E+00  9.97673E-01  1.03830E-01
    9013.078     18.135   2.600  1.11997E+00  9.99732E-01  1.20238E-01
    9013.877     18.934   2.640  1.12412E+00  1.00150E+00  1.22620E-01
    9014.688     19.745   2.680  1.11444E+00  1.00298E+00  1.11456E-01
    9015.511     20.568   2.720  1.09045E+00  1.00419E+00  8.62614E-02
    9016.346     21.403   2.760  1.05257E+00  1.00518E+00  4.73943E-02
    9017.193     22.250   2.800  1.01450E+00  1.00592E+00  8.57409E-03
    9018.053     23.110   2.840  9.81347E-01  1.00644E+00 -2.50893E-02
    9018.924     23.981   2.880  9.54886E-01  1.00677E+00 -5.18842E-02
    9019.808     24.865   2.920  9.34358E-01  1.00691E+00 -7.25522E-02
    9020.704     25.761   2.960  9.18504E-01  1.00688E+00 -8.83797E-02
    9021.613     26.670   3.000  9.05961E-01  1.00670E+00 -1.00739E-01
    9022.533     27.590   3.040  8.95410E-01  1.00641E+00 -1.10998E-01
    9023.466     28.523   3.080  8.86171E-01  1.00597E+00 -1.19800E-01
    9024.411     29.468   3.120  8.78285E-01  1.00542E+00 -1.27131E-01
    9025.368     30.425   3.160  8.71809E-01  1.00477E+00 -1.32963E-01
    9026.337     31.394   3.200  8.66775E-01  1.00405E+00 -1.37271E-01
    9027.318     32.376   3.240  8.63382E-01  1.00326E+00 -1.39881E-01
    9028.312     33.369   3.280  8.61706E-01  1.00241E+00 -1.40702E-01
    9029.318     34.375   3.320  8.61827E-01  1.00151E+00 -1.39680E-01
    9030.336     35.393   3.360  8.63931E-01  1.00054E+00 -1.36613E-01
    9031.366     36.423   3.400  8.68440E-01  9.99585E-01 -1.31145E-01
    9032.409     37.466   3.440  8.75417E-01  9.98574E-01 -1.23157E-01
    9033.463     38.520   3.480  8.85054E-01  9.97576E-01 -1.12522E-01
    9034.530     39.587   3.520  8.97328E-01  9.96553E-01 -9.92250E-02
    9035.609     40.666   3.560  9.11957E-01  9.95531E-01 -8.35741E-02
    9036.700     41.757   3.600  9.28412E-01  9.94535E-01 -6.61234E-02
    9037.803     42.861   3.640  9.46123E-01  9.93546E-01 -4.74234E-02
    9038.919     43.976   3.680  9.64483E-01  9.92589E-01 -2.81059E-02
    9040.047     45.104   3.720  9.82858E-01  9.91663E-01 -8.80576E-03
    9041.187     46.244   3.760  1.00069E+00  9.90752E-01  9.94108E-03
    9042.339     47.396   3.800  1.01754E+00  9.89879E-01  2.76638E-02
    9043.503     48.560   3.840  1.03290E+00  9.89066E-01  4.38366E-02
    9044.680     49.737   3.880  1.04631E+00  9.88272E-01  5.80376E-02
    9045.868     50.926   3.920  1.05745E+00  9.87541E-01  6.99045E-02
    9047.069     52.127   3.960  1.06585E+00  9.86832E-01  7.90165E-02
    9048.282     53.340   4.000  1.07124E+00  9.86190E-01  8.50504E-02
    9049.508     54.565   4.040  1.07357E+00  9.85615E-01  8.79551E-02
    9050.745     55.802   4.080  1.07311E+00  9.85086E-01  8.80262E-02
    9051.995     57.052   4.120  1.07046E+00  9.84604E-01  8.58605E-02
    9053.257     58.314   4.160  1.06650E+00  9.84190E-01  8.23118E-02
    9054.531     59.588   4.200  1.06191E+00  9.83822E-01  7.80902E-02
    9055.817     60.874   4.240  1.05721E+00  9.83500E-01  7.37116E-02
    9057.116     62.173   4.280  1.05275E+00  9.83246E-01  6.94994E-02
    9058.426     63.483   4.320  1.04856E+00  9.83041E-01  6.55170E-02
    9059.749     64.806   4.360  1.04440E+00  9.82903E-01  6.14997E-02
    9061.084     66.141   4.400  1.03979E+00  9.82811E-01  5.69810E-02
    9062.431     67.488   4.440  1.03433E+00  9.82765E-01  5.15680E-02
    9063.791     68.848   4.480  1.02787E+00  9.82785E-01  4.50853E-02
    9065.162     70.219   4.520  1.02046E+00  9.82849E-01  3.76155E-02
    9066.546     71.603   4.560  1.01235E+00  9.82954E-01  2.93962E-02
    9067.942     72.999   4.600  1.00375E+00  9.83099E-01  2.06501E-02
    9069.350     74.407   4.640  9.94876E-01  9.83286E-01  1.15900E-02
    9070.771     75.828   4.680  9.85945E-01  9.83511E-01  2.43418E-03
    9072.203     77.260   4.720  9.77165E-01  9.83774E-01 -6.60882E-03
    9073.648     78.705   4.760  9.68792E-01  9.84075E-01 -1.52835E-02
    9075.105     80.162   4.800  9.61173E-01  9.84410E-01 -2.32371E-02
    9076.574     81.631   4.840  9.54708E-01  9.84757E-01 -3.00495E-02
    9078.055     83.112   4.880  9.49853E-01  9.85137E-01 -3.52843E-02
    9079.549     84.606   4.920  9.46871E-01  9.85524E-01 -3.86536E-02
    9081.054     86.112   4.960  9.45818E-01  9.85943E-01 -4.01246E-02
    9082.572     87.629   5.000  9.46512E-01  9.86390E-01 -3.98776E-02
    9084.102     89.160   5.040  9.48587E-01  9.86819E-01 -3.82315E-02
    9085.645     90.702   5.080  9.51826E-01  9.87272E-01 -3.54467E-02
    9087.199     92.256   5.120  9.55978E-01  9.87728E-01 -3.17502E-02
    9088.766     93.823   5.160  9.60691E-01  9.88184E-01 -2.74934E-02
    9090.345     95.402   5.200  9.65398E-01  9.88637E-01 -2.32388E-02
    9091.936     96.993   5.240  9.69351E-01  9.89064E-01 -1.97129E-02
    9093.539     98.596   5.280  9.72000E-01  9.89509E-01 -1.75090E-02
    9095.154    100.212   5.320  9.73029E-01  9.89928E-01 -1.68982E-02
    9096.782    101.839   5.360  9.72569E-01  9.90337E-01 -1.77690E-02
    9098.422    103.479   5.400  9.71000E-01  9.90717E-01 -1.97170E-02
    9100.074    105.131   5.440  9.68906E-01  9.91087E-01 -2.21815E-02
    9101.738    106.795   5.480  9.66843E-01  9.91447E-01 -2.46039E-02
    9103.414    108.472   5.520  9.65262E-01  9.91750E-01 -2.64876E-02
    9105.103    110.160   5.560  9.64617E-01  9.92039E-01 -2.74220E-02
    9106.804    111.861   5.600  9.65189E-01  9.92292E-01 -2.71031E-02
    9108.517    113.574   5.640  9.67138E-01  9.92531E-01 -2.53925E-02
    9110.242    115.299   5.680  9.70356E-01  9.92710E-01 -2.23541E-02
    9111.979    117.036   5.720  9.74585E-01  9.92870E-01 -1.82854E-02
    9113.729    118.786   5.760  9.79279E-01  9.92969E-01 -1.36902E-02
    9115.491    120.548   5.800  9.83917E-01  9.93050E-01 -9.13345E-03
    9117.265    122.322   5.840  9.88041E-01  9.93070E-01 -5.02982E-03
    9119.051    124.108   5.880  9.91544E-01  9.93076E-01 -1.53204E-03
    9120.849    125.906   5.920  9.94491E-01  9.93040E-01  1.45047E-03
    9122.659    127.717   5.960  9.97077E-01  9.92935E-01  4.14164E-03
    9124.482    129.539   6.000  9.99679E-01  9.92792E-01  6.88759E-03
