# # comment:                                                     FEFF 9.9.1  
# # Source:
# # Structure
# # Reduced
# # space
# # abc:
# # angles:
# # sites:
# # POT  SCF 100  7.0000   0, screened core-hole, AFOLP (folp(0)= 1.150)
# # Abs   Z=29 Rmt= 1.211 Rnm= 1.336 K  shell
# # Pot 1 Z=29 Rmt= 1.211 Rnm= 1.336
# # Pot 2 Z= 1 Rmt= 0.656 Rnm= 0.811
# # Pot 3 Z= 6 Rmt= 0.680 Rnm= 0.957
# # Pot 4 Z= 8 Rmt= 1.037 Rnm= 1.151
# # Gam_ch=1.729E+00 H-L exch Vi= 0.000E+00 Vr= 0.000E+00
# # Mu=-6.901E+00eV kf=2.230E+00 Vint=-1.453E+01eV Rs_int= 1.627
# FMS rfms= 9.0000
# # PATH  Rmax=-1.000,  Keep_limit= 0.00, Heap_limit 0.00  Pwcrit= 2.50%
#  S02=0.950  Temp=   0.00  Debye_temp=   0.00  Global_sig2= 0.00000
#  Energy zero shift, vr, vi    0.00000E+00   0.00000E+00
#  Curved wave amplitude ratio filter   4.000%
#     file         sig2 tot  cw amp ratio   deg  nlegs   reff  inp sig2
#     0/   0 paths used
#  xsedge+ 50, used to normalize mu           2.4418E-04
#  -----------------------------------------------------------------------
#  omega    e    k    mu    mu0     chi     @#
    8983.369    -10.711  -1.000  3.52395E-02  5.42811E-02 -1.90416E-02
    8983.667    -10.413  -0.960  3.68786E-02  5.81923E-02 -2.13137E-02
    8983.954    -10.126  -0.920  3.86209E-02  6.25332E-02 -2.39123E-02
    8984.228     -9.852  -0.880  4.04761E-02  6.73663E-02 -2.68902E-02
    8984.490     -9.590  -0.840  4.24555E-02  7.27644E-02 -3.03090E-02
    8984.740     -9.340  -0.800  4.45717E-02  7.88117E-02 -3.42400E-02
    8984.978     -9.102  -0.760  4.68391E-02  8.56044E-02 -3.87653E-02
    8985.203     -8.876  -0.720  4.92740E-02  9.32515E-02 -4.39776E-02
    8985.417     -8.663  -0.680  5.18936E-02  1.01873E-01 -4.99791E-02
    8985.618     -8.462  -0.640  5.47162E-02  1.11594E-01 -5.68779E-02
    8985.807     -8.273  -0.600  5.77585E-02  1.22539E-01 -6.47808E-02
    8985.984     -8.096  -0.560  6.10336E-02  1.34813E-01 -7.37799E-02
    8986.148     -7.931  -0.520  6.45461E-02  1.48479E-01 -8.39325E-02
    8986.301     -7.779  -0.480  6.82866E-02  1.63520E-01 -9.52330E-02
    8986.441     -7.639  -0.440  7.22238E-02  1.79805E-01 -1.07581E-01
    8986.569     -7.511  -0.400  7.62992E-02  1.97053E-01 -1.20754E-01
    8986.685     -7.395  -0.360  8.04245E-02  2.14822E-01 -1.34398E-01
    8986.788     -7.291  -0.320  8.44865E-02  2.32540E-01 -1.48053E-01
    8986.880     -7.200  -0.280  8.83587E-02  2.49568E-01 -1.61209E-01
    8986.959     -7.121  -0.240  9.19184E-02  2.65291E-01 -1.73373E-01
    8987.026     -7.054  -0.200  9.50606E-02  2.79195E-01 -1.84134E-01
    8987.081     -6.999  -0.160  9.77073E-02  2.90897E-01 -1.93190E-01
    8987.124     -6.956  -0.120  9.98075E-02  3.00154E-01 -2.00347E-01
    8987.154     -6.926  -0.080  1.01332E-01  3.06827E-01 -2.05495E-01
    8987.179     -6.901   0.000  1.02582E-01  3.12190E-01 -2.09608E-01
    8987.233     -6.846   0.120  1.05336E-01  3.24292E-01 -2.18956E-01
    8987.276     -6.804   0.160  1.07447E-01  3.33722E-01 -2.26275E-01
    8987.331     -6.749   0.200  1.10062E-01  3.45747E-01 -2.35685E-01
    8987.398     -6.682   0.240  1.13196E-01  3.60259E-01 -2.47063E-01
    8987.477     -6.603   0.280  1.16710E-01  3.76947E-01 -2.60238E-01
    8987.569     -6.511   0.320  1.20514E-01  3.95433E-01 -2.74919E-01
    8987.672     -6.407   0.360  1.24457E-01  4.15196E-01 -2.90739E-01
    8987.788     -6.292   0.400  1.28461E-01  4.35703E-01 -3.07242E-01
    8987.916     -6.164   0.440  1.32537E-01  4.56468E-01 -3.23931E-01
    8988.056     -6.023   0.480  1.36853E-01  4.77070E-01 -3.40216E-01
    8988.209     -5.871   0.520  1.41748E-01  4.97267E-01 -3.55519E-01
    8988.373     -5.706   0.560  1.47724E-01  5.16947E-01 -3.69223E-01
    8988.550     -5.530   0.600  1.55256E-01  5.36055E-01 -3.80799E-01
    8988.739     -5.341   0.640  1.64867E-01  5.54662E-01 -3.89795E-01
    8988.940     -5.140   0.680  1.76865E-01  5.72790E-01 -3.95924E-01
    8989.154     -4.926   0.720  1.91402E-01  5.90555E-01 -3.99154E-01
    8989.379     -4.701   0.760  2.08156E-01  6.07990E-01 -3.99835E-01
    8989.617     -4.463   0.800  2.26461E-01  6.25179E-01 -3.98718E-01
    8989.867     -4.213   0.840  2.45816E-01  6.42172E-01 -3.96356E-01
    8990.129     -3.951   0.880  2.66616E-01  6.58986E-01 -3.92370E-01
    8990.403     -3.676   0.920  2.90126E-01  6.75645E-01 -3.85519E-01
    8990.690     -3.390   0.960  3.17459E-01  6.92162E-01 -3.74703E-01
    8990.988     -3.091   1.000  3.49320E-01  7.08519E-01 -3.59198E-01
    8991.299     -2.780   1.040  3.86798E-01  7.24708E-01 -3.37910E-01
    8991.622     -2.457   1.080  4.30668E-01  7.40698E-01 -3.10030E-01
    8991.958     -2.122   1.120  4.79357E-01  7.56490E-01 -2.77132E-01
    8992.305     -1.775   1.160  5.28932E-01  7.72019E-01 -2.43087E-01
    8992.665     -1.415   1.200  5.76467E-01  7.87258E-01 -2.10791E-01
    8993.037     -1.043   1.240  6.23954E-01  8.02179E-01 -1.78225E-01
    8993.421     -0.659   1.280  6.76098E-01  8.16751E-01 -1.40653E-01
    8993.817     -0.263   1.320  7.30551E-01  8.30942E-01 -1.00392E-01
    8994.225      0.146   1.360  7.77815E-01  8.44700E-01 -6.68849E-02
    8994.646      0.566   1.400  8.09636E-01  8.58014E-01 -4.83781E-02
    8995.079      0.999   1.440  8.18941E-01  8.70832E-01 -5.18916E-02
    8995.524      1.444   1.480  8.07759E-01  8.83124E-01 -7.53652E-02
    8995.981      1.901   1.520  7.96205E-01  8.94902E-01 -9.86972E-02
    8996.450      2.371   1.560  8.06115E-01  9.06116E-01 -1.00001E-01
    8996.932      2.852   1.600  8.40711E-01  9.16763E-01 -7.60512E-02
    8997.426      3.346   1.640  8.87694E-01  9.26838E-01 -3.91445E-02
    8997.932      3.852   1.680  9.37939E-01  9.36299E-01  1.64035E-03
    8998.450      4.370   1.720  9.97585E-01  9.45184E-01  5.24006E-02
    8998.980      4.901   1.760  1.07853E+00  9.53498E-01  1.25035E-01
    8999.523      5.443   1.800  1.18419E+00  9.61201E-01  2.22986E-01
    9000.078      5.998   1.840  1.30442E+00  9.68315E-01  3.36108E-01
    9000.645      6.565   1.880  1.41172E+00  9.74869E-01  4.36846E-01
    9001.224      7.144   1.920  1.47656E+00  9.80850E-01  4.95712E-01
    9001.815      7.735   1.960  1.49596E+00  9.86285E-01  5.09677E-01
    9002.418      8.339   2.000  1.47443E+00  9.91205E-01  4.83226E-01
    9003.034      8.954   2.040  1.40196E+00  9.95621E-01  4.06339E-01
    9003.662      9.582   2.080  1.30103E+00  9.99542E-01  3.01486E-01
    9004.302     10.222   2.120  1.21183E+00  1.00300E+00  2.08831E-01
    9004.954     10.875   2.160  1.14989E+00  1.00601E+00  1.43881E-01
    9005.619     11.539   2.200  1.11521E+00  1.00860E+00  1.06615E-01
    9006.295     12.216   2.240  1.09700E+00  1.01080E+00  8.62000E-02
    9006.984     12.905   2.280  1.08083E+00  1.01263E+00  6.81980E-02
    9007.685     13.606   2.320  1.06094E+00  1.01410E+00  4.68405E-02
    9008.399     14.319   2.360  1.03800E+00  1.01527E+00  2.27323E-02
    9009.124     15.044   2.400  1.01852E+00  1.01614E+00  2.38043E-03
    9009.862     15.782   2.440  1.01026E+00  1.01673E+00 -6.46321E-03
    9010.611     16.532   2.480  1.01728E+00  1.01709E+00  1.91100E-04
    9011.373     17.294   2.520  1.04079E+00  1.01721E+00  2.35835E-02
    9012.148     18.068   2.560  1.07481E+00  1.01712E+00  5.76819E-02
    9012.934     18.854   2.600  1.10435E+00  1.01684E+00  8.75095E-02
    9013.733     19.653   2.640  1.11102E+00  1.01642E+00  9.46024E-02
    9014.543     20.464   2.680  1.09966E+00  1.01586E+00  8.37966E-02
    9015.366     21.287   2.720  1.08160E+00  1.01515E+00  6.64480E-02
    9016.201     22.122   2.760  1.05956E+00  1.01435E+00  4.52085E-02
    9017.049     22.969   2.800  1.03514E+00  1.01346E+00  2.16768E-02
    9017.908     23.829   2.840  1.01051E+00  1.01249E+00 -1.97917E-03
    9018.780     24.700   2.880  9.87380E-01  1.01145E+00 -2.40720E-02
    9019.664     25.584   2.920  9.67102E-01  1.01039E+00 -4.32851E-02
    9020.560     26.480   2.960  9.50020E-01  1.00929E+00 -5.92656E-02
    9021.468     27.389   3.000  9.35890E-01  1.00817E+00 -7.22827E-02
    9022.389     28.309   3.040  9.24448E-01  1.00703E+00 -8.25842E-02
    9023.322     29.242   3.080  9.15510E-01  1.00589E+00 -9.03818E-02
    9024.266     30.187   3.120  9.08758E-01  1.00478E+00 -9.60184E-02
    9025.223     31.144   3.160  9.03809E-01  1.00367E+00 -9.98606E-02
    9026.193     32.113   3.200  9.00337E-01  1.00262E+00 -1.02283E-01
    9027.174     33.094   3.240  8.97874E-01  1.00156E+00 -1.03689E-01
    9028.168     34.088   3.280  8.96412E-01  1.00057E+00 -1.04155E-01
    9029.174     35.094   3.320  8.96171E-01  9.99637E-01 -1.03466E-01
    9030.192     36.112   3.360  8.97359E-01  9.98731E-01 -1.01372E-01
    9031.222     37.142   3.400  8.99935E-01  9.97893E-01 -9.79571E-02
    9032.264     38.185   3.440  9.03682E-01  9.97126E-01 -9.34432E-02
    9033.319     39.239   3.480  9.08262E-01  9.96410E-01 -8.81471E-02
    9034.386     40.306   3.520  9.13350E-01  9.95744E-01 -8.23948E-02
    9035.465     41.385   3.560  9.18895E-01  9.95175E-01 -7.62798E-02
    9036.556     42.476   3.600  9.25002E-01  9.94662E-01 -6.96595E-02
    9037.659     43.580   3.640  9.31891E-01  9.94225E-01 -6.23336E-02
    9038.775     44.695   3.680  9.39584E-01  9.93864E-01 -5.42795E-02
    9039.903     45.823   3.720  9.48036E-01  9.93557E-01 -4.55213E-02
    9041.043     46.963   3.760  9.57145E-01  9.93350E-01 -3.62051E-02
    9042.195     48.115   3.800  9.66596E-01  9.93198E-01 -2.66017E-02
    9043.359     49.279   3.840  9.76141E-01  9.93122E-01 -1.69805E-02
    9044.536     50.456   3.880  9.85627E-01  9.93121E-01 -7.49360E-03
    9045.724     51.644   3.920  9.94968E-01  9.93173E-01  1.79541E-03
    9046.925     52.845   3.960  1.00416E+00  9.93300E-01  1.08583E-02
    9048.138     54.058   4.000  1.01311E+00  9.93499E-01  1.96155E-02
    9049.364     55.284   4.040  1.02156E+00  9.93751E-01  2.78089E-02
    9050.601     56.521   4.080  1.02897E+00  9.94072E-01  3.48971E-02
    9051.851     57.771   4.120  1.03484E+00  9.94441E-01  4.03945E-02
    9053.113     59.033   4.160  1.03894E+00  9.94877E-01  4.40598E-02
    9054.387     60.307   4.200  1.04143E+00  9.95337E-01  4.60883E-02
    9055.673     61.593   4.240  1.04300E+00  9.95861E-01  4.71425E-02
    9056.971     62.892   4.280  1.04455E+00  9.96426E-01  4.81245E-02
    9058.282     64.202   4.320  1.04686E+00  9.97031E-01  4.98246E-02
    9059.605     65.525   4.360  1.05029E+00  9.97671E-01  5.26211E-02
    9060.940     66.860   4.400  1.05486E+00  9.98326E-01  5.65371E-02
    9062.287     68.207   4.440  1.06023E+00  9.99014E-01  6.12108E-02
    9063.646     69.567   4.480  1.06581E+00  9.99734E-01  6.60712E-02
    9065.018     70.938   4.520  1.07092E+00  1.00046E+00  7.04599E-02
    9066.402     72.322   4.560  1.07495E+00  1.00122E+00  7.37239E-02
    9067.798     73.718   4.600  1.07725E+00  1.00198E+00  7.52654E-02
    9069.206     75.126   4.640  1.07744E+00  1.00275E+00  7.46954E-02
    9070.626     76.547   4.680  1.07546E+00  1.00351E+00  7.19476E-02
    9072.059     77.979   4.720  1.07150E+00  1.00427E+00  6.72350E-02
    9073.504     79.424   4.760  1.06602E+00  1.00500E+00  6.10160E-02
    9074.961     80.881   4.800  1.05955E+00  1.00575E+00  5.37979E-02
    9076.430     82.350   4.840  1.05241E+00  1.00647E+00  4.59421E-02
    9077.911     83.831   4.880  1.04480E+00  1.00718E+00  3.76196E-02
    9079.405     85.325   4.920  1.03668E+00  1.00786E+00  2.88281E-02
    9080.910     86.830   4.960  1.02805E+00  1.00850E+00  1.95500E-02
    9082.428     88.348   5.000  1.01900E+00  1.00912E+00  9.87961E-03
    9083.958     89.878   5.040  1.00967E+00  1.00971E+00 -4.61805E-05
    9085.500     91.421   5.080  1.00015E+00  1.01026E+00 -1.01136E-02
    9087.055     92.975   5.120  9.90425E-01  1.01077E+00 -2.03422E-02
    9088.622     94.542   5.160  9.80492E-01  1.01123E+00 -3.07399E-02
    9090.200     96.121   5.200  9.70437E-01  1.01163E+00 -4.11933E-02
    9091.792     97.712   5.240  9.60628E-01  1.01201E+00 -5.13793E-02
    9093.395     99.315   5.280  9.51564E-01  1.01234E+00 -6.07768E-02
    9095.010    100.930   5.320  9.43887E-01  1.01261E+00 -6.87198E-02
    9096.638    102.558   5.360  9.38281E-01  1.01283E+00 -7.45453E-02
    9098.278    104.198   5.400  9.35149E-01  1.01300E+00 -7.78507E-02
    9099.930    105.850   5.440  9.34511E-01  1.01313E+00 -7.86181E-02
    9101.594    107.514   5.480  9.36018E-01  1.01319E+00 -7.71686E-02
    9103.270    109.190   5.520  9.39211E-01  1.01320E+00 -7.39857E-02
    9104.959    110.879   5.560  9.43618E-01  1.01316E+00 -6.95438E-02
    9106.660    112.580   5.600  9.48903E-01  1.01306E+00 -6.41533E-02
    9108.373    114.293   5.640  9.55032E-01  1.01291E+00 -5.78735E-02
    9110.098    116.018   5.680  9.62124E-01  1.01271E+00 -5.05868E-02
    9111.835    117.755   5.720  9.70311E-01  1.01247E+00 -4.21583E-02
    9113.585    119.505   5.760  9.79529E-01  1.01216E+00 -3.26320E-02
    9115.346    121.267   5.800  9.89495E-01  1.01181E+00 -2.23145E-02
    9117.120    123.041   5.840  9.99697E-01  1.01142E+00 -1.17213E-02
    9118.906    124.827   5.880  1.00950E+00  1.01099E+00 -1.48667E-03
    9120.705    126.625   5.920  1.01827E+00  1.01052E+00  7.74187E-03
    9122.515    128.435   5.960  1.02536E+00  1.01002E+00  1.53351E-02
    9124.338    130.258   6.000  1.03032E+00  1.00945E+00  2.08703E-02
