# # comment:                                                     FEFF 9.9.1  
# # Source:
# # Structure
# # Reduced
# # space
# # abc:
# # angles:
# # sites:
# # POT  SCF 100  7.0000   0, screened core-hole, AFOLP (folp(0)= 1.150)
# # Abs   Z=29 Rmt= 1.270 Rnm= 1.387 K  shell
# # Pot 1 Z=30 Rmt= 1.383 Rnm= 1.464
# # Pot 2 Z=29 Rmt= 1.285 Rnm= 1.384
# # Pot 3 Z=74 Rmt= 1.201 Rnm= 1.414
# # Pot 4 Z= 8 Rmt= 0.917 Rnm= 1.071
# # Gam_ch=1.729E+00 H-L exch Vi= 0.000E+00 Vr= 0.000E+00
# # Mu=-5.194E+00eV kf=2.256E+00 Vint=-1.552E+01eV Rs_int= 1.607
# FMS rfms= 9.0000
# # PATH  Rmax=-1.000,  Keep_limit= 0.00, Heap_limit 0.00  Pwcrit= 2.50%
#  S02=0.950  Temp=   0.00  Debye_temp=   0.00  Global_sig2= 0.00000
#  Energy zero shift, vr, vi    0.00000E+00   0.00000E+00
#  Curved wave amplitude ratio filter   4.000%
#     file         sig2 tot  cw amp ratio   deg  nlegs   reff  inp sig2
#     0/   0 paths used
#  xsedge+ 50, used to normalize mu           2.4617E-04
#  -----------------------------------------------------------------------
#  omega    e    k    mu    mu0     chi     @#
    8983.442     -9.004  -1.000  5.33923E-02  5.81882E-02 -4.79591E-03
    8983.741     -8.706  -0.960  5.70917E-02  6.25573E-02 -5.46555E-03
    8984.027     -8.419  -0.920  6.11859E-02  6.74250E-02 -6.23905E-03
    8984.302     -8.145  -0.880  6.57326E-02  7.28658E-02 -7.13326E-03
    8984.564     -7.883  -0.840  7.07991E-02  7.89668E-02 -8.16771E-03
    8984.814     -7.633  -0.800  7.64639E-02  8.58287E-02 -9.36485E-03
    8985.051     -7.395  -0.760  8.28173E-02  9.35675E-02 -1.07503E-02
    8985.277     -7.169  -0.720  8.99619E-02  1.02314E-01 -1.23525E-02
    8985.490     -6.956  -0.680  9.80110E-02  1.12214E-01 -1.42029E-02
    8985.691     -6.755  -0.640  1.07085E-01  1.23419E-01 -1.63342E-02
    8985.880     -6.566  -0.600  1.17302E-01  1.36080E-01 -1.87784E-02
    8986.057     -6.389  -0.560  1.28764E-01  1.50327E-01 -2.15633E-02
    8986.222     -6.225  -0.520  1.41529E-01  1.66236E-01 -2.47069E-02
    8986.374     -6.072  -0.480  1.55583E-01  1.83793E-01 -2.82095E-02
    8986.514     -5.932  -0.440  1.70798E-01  2.02843E-01 -3.20448E-02
    8986.642     -5.804  -0.400  1.86897E-01  2.23050E-01 -3.61527E-02
    8986.758     -5.688  -0.360  2.03453E-01  2.43888E-01 -4.04350E-02
    8986.862     -5.584  -0.320  2.19912E-01  2.64672E-01 -4.47601E-02
    8986.953     -5.493  -0.280  2.35665E-01  2.84641E-01 -4.89761E-02
    8987.033     -5.414  -0.240  2.50138E-01  3.03066E-01 -5.29283E-02
    8987.100     -5.347  -0.200  2.62863E-01  3.19340E-01 -5.64769E-02
    8987.154     -5.292  -0.160  2.73511E-01  3.33019E-01 -5.95075E-02
    8987.197     -5.249  -0.120  2.81889E-01  3.43823E-01 -6.19347E-02
    8987.228     -5.219  -0.080  2.87901E-01  3.51602E-01 -6.37015E-02
    8987.252     -5.194   0.000  2.92710E-01  3.57847E-01 -6.51372E-02
    8987.307     -5.139   0.120  3.03398E-01  3.71933E-01 -6.85353E-02
    8987.350     -5.097   0.160  3.11653E-01  3.82840E-01 -7.11864E-02
    8987.404     -5.042   0.200  3.22160E-01  3.96768E-01 -7.46088E-02
    8987.471     -4.975   0.240  3.34710E-01  4.13492E-01 -7.87826E-02
    8987.551     -4.896   0.280  3.48970E-01  4.32632E-01 -8.36616E-02
    8987.642     -4.804   0.320  3.64550E-01  4.53688E-01 -8.91377E-02
    8987.746     -4.701   0.360  3.80959E-01  4.75998E-01 -9.50394E-02
    8987.862     -4.585   0.400  3.97694E-01  4.98861E-01 -1.01167E-01
    8987.990     -4.457   0.440  4.14345E-01  5.21655E-01 -1.07310E-01
    8988.130     -4.316   0.480  4.30601E-01  5.43901E-01 -1.13300E-01
    8988.282     -4.164   0.520  4.46247E-01  5.65273E-01 -1.19025E-01
    8988.447     -3.999   0.560  4.61284E-01  5.85609E-01 -1.24326E-01
    8988.624     -3.823   0.600  4.76058E-01  6.04896E-01 -1.28838E-01
    8988.813     -3.634   0.640  4.91257E-01  6.23182E-01 -1.31925E-01
    8989.014     -3.433   0.680  5.07554E-01  6.40559E-01 -1.33004E-01
    8989.227     -3.219   0.720  5.25046E-01  6.57155E-01 -1.32109E-01
    8989.453     -2.994   0.760  5.42984E-01  6.73061E-01 -1.30077E-01
    8989.690     -2.756   0.800  5.60512E-01  6.88414E-01 -1.27902E-01
    8989.940     -2.506   0.840  5.77383E-01  7.03257E-01 -1.25875E-01
    8990.202     -2.244   0.880  5.94118E-01  7.17679E-01 -1.23561E-01
    8990.477     -1.970   0.920  6.11228E-01  7.31730E-01 -1.20501E-01
    8990.763     -1.683   0.960  6.28906E-01  7.45450E-01 -1.16545E-01
    8991.062     -1.384   1.000  6.47644E-01  7.58866E-01 -1.11221E-01
    8991.373     -1.073   1.040  6.69388E-01  7.71992E-01 -1.02604E-01
    8991.696     -0.750   1.080  6.97495E-01  7.84837E-01 -8.73423E-02
    8992.031     -0.415   1.120  7.34359E-01  7.97422E-01 -6.30627E-02
    8992.379     -0.068   1.160  7.78373E-01  8.09721E-01 -3.13482E-02
    8992.738      0.292   1.200  8.22737E-01  8.21723E-01  1.01352E-03
    8993.110      0.664   1.240  8.58089E-01  8.33436E-01  2.46531E-02
    8993.494      1.048   1.280  8.79377E-01  8.44823E-01  3.45547E-02
    8993.890      1.444   1.320  8.90337E-01  8.55885E-01  3.44517E-02
    8994.299      1.853   1.360  9.00082E-01  8.66624E-01  3.34584E-02
    8994.720      2.273   1.400  9.17210E-01  8.76998E-01  4.02127E-02
    8995.152      2.706   1.440  9.46154E-01  8.87003E-01  5.91507E-02
    8995.597      3.151   1.480  9.85361E-01  8.96619E-01  8.87416E-02
    8996.055      3.608   1.520  1.02803E+00  9.05845E-01  1.22188E-01
    8996.524      4.078   1.560  1.06462E+00  9.14660E-01  1.49962E-01
    8997.006      4.559   1.600  1.08876E+00  9.23081E-01  1.65684E-01
    8997.499      5.053   1.640  1.10383E+00  9.31067E-01  1.72767E-01
    8998.005      5.559   1.680  1.11657E+00  9.38639E-01  1.77928E-01
    8998.523      6.077   1.720  1.12759E+00  9.45779E-01  1.81815E-01
    8999.054      6.608   1.760  1.13242E+00  9.52485E-01  1.79938E-01
    8999.596      7.150   1.800  1.12810E+00  9.58784E-01  1.69317E-01
    9000.151      7.705   1.840  1.11776E+00  9.64656E-01  1.53099E-01
    9000.718      8.272   1.880  1.10929E+00  9.70105E-01  1.39185E-01
    9001.297      8.851   1.920  1.10951E+00  9.75158E-01  1.34354E-01
    9001.888      9.442   1.960  1.11813E+00  9.79799E-01  1.38332E-01
    9002.492     10.046   2.000  1.12741E+00  9.84053E-01  1.43354E-01
    9003.108     10.661   2.040  1.12778E+00  9.87947E-01  1.39836E-01
    9003.735     11.289   2.080  1.11440E+00  9.91448E-01  1.22955E-01
    9004.376     11.929   2.120  1.09249E+00  9.94604E-01  9.78871E-02
    9005.028     12.582   2.160  1.07162E+00  9.97443E-01  7.41816E-02
    9005.692     13.246   2.200  1.05543E+00  9.99930E-01  5.54980E-02
    9006.369     13.923   2.240  1.04450E+00  1.00212E+00  4.23878E-02
    9007.058     14.612   2.280  1.04225E+00  1.00401E+00  3.82376E-02
    9007.759     15.313   2.320  1.05086E+00  1.00564E+00  4.52242E-02
    9008.472     16.026   2.360  1.06774E+00  1.00699E+00  6.07475E-02
    9009.197     16.751   2.400  1.08607E+00  1.00812E+00  7.79486E-02
    9009.935     17.489   2.440  1.09416E+00  1.00901E+00  8.51553E-02
    9010.685     18.239   2.480  1.08213E+00  1.00968E+00  7.24480E-02
    9011.447     19.001   2.520  1.05303E+00  1.01016E+00  4.28752E-02
    9012.221     19.775   2.560  1.01931E+00  1.01046E+00  8.85091E-03
    9013.007     20.561   2.600  9.89905E-01  1.01061E+00 -2.07060E-02
    9013.806     21.360   2.640  9.66783E-01  1.01059E+00 -4.38048E-02
    9014.617     22.171   2.680  9.53837E-01  1.01045E+00 -5.66178E-02
    9015.440     22.993   2.720  9.48073E-01  1.01018E+00 -6.21050E-02
    9016.275     23.829   2.760  9.45857E-01  1.00983E+00 -6.39687E-02
    9017.122     24.676   2.800  9.45058E-01  1.00936E+00 -6.43039E-02
    9017.982     25.536   2.840  9.44693E-01  1.00879E+00 -6.41012E-02
    9018.854     26.407   2.880  9.44653E-01  1.00819E+00 -6.35384E-02
    9019.737     27.291   2.920  9.45048E-01  1.00752E+00 -6.24688E-02
    9020.634     28.187   2.960  9.46074E-01  1.00679E+00 -6.07198E-02
    9021.542     29.096   3.000  9.47472E-01  1.00603E+00 -5.85595E-02
    9022.462     30.016   3.040  9.49081E-01  1.00523E+00 -5.61510E-02
    9023.395     30.949   3.080  9.50881E-01  1.00442E+00 -5.35387E-02
    9024.340     31.894   3.120  9.52915E-01  1.00360E+00 -5.06858E-02
    9025.297     32.851   3.160  9.55296E-01  1.00276E+00 -4.74623E-02
    9026.266     33.820   3.200  9.58143E-01  1.00194E+00 -4.37929E-02
    9027.248     34.801   3.240  9.61394E-01  1.00112E+00 -3.97213E-02
    9028.241     35.795   3.280  9.64917E-01  1.00030E+00 -3.53846E-02
    9029.247     36.801   3.320  9.68661E-01  9.99518E-01 -3.08578E-02
    9030.265     37.819   3.360  9.72442E-01  9.98768E-01 -2.63264E-02
    9031.295     38.849   3.400  9.75925E-01  9.98051E-01 -2.21258E-02
    9032.338     39.892   3.440  9.78773E-01  9.97349E-01 -1.85758E-02
    9033.392     40.946   3.480  9.80880E-01  9.96684E-01 -1.58034E-02
    9034.459     42.013   3.520  9.82409E-01  9.96058E-01 -1.36483E-02
    9035.538     43.092   3.560  9.83711E-01  9.95494E-01 -1.17833E-02
    9036.629     44.183   3.600  9.85194E-01  9.94951E-01 -9.75783E-03
    9037.733     45.286   3.640  9.87232E-01  9.94472E-01 -7.23957E-03
    9038.848     46.402   3.680  9.89866E-01  9.94036E-01 -4.17061E-03
    9039.976     47.530   3.720  9.92935E-01  9.93645E-01 -7.10104E-04
    9041.116     48.670   3.760  9.96189E-01  9.93318E-01  2.87120E-03
    9042.268     49.822   3.800  9.99285E-01  9.93013E-01  6.27174E-03
    9043.432     50.986   3.840  1.00198E+00  9.92775E-01  9.20920E-03
    9044.609     52.163   3.880  1.00410E+00  9.92603E-01  1.15016E-02
    9045.798     53.351   3.920  1.00553E+00  9.92454E-01  1.30808E-02
    9046.999     54.552   3.960  1.00637E+00  9.92368E-01  1.40059E-02
    9048.212     55.765   4.000  1.00684E+00  9.92327E-01  1.45117E-02
    9049.437     56.991   4.040  1.00723E+00  9.92327E-01  1.49065E-02
    9050.674     58.228   4.080  1.00780E+00  9.92368E-01  1.54364E-02
    9051.924     59.478   4.120  1.00866E+00  9.92451E-01  1.62056E-02
    9053.186     60.740   4.160  1.00978E+00  9.92595E-01  1.71816E-02
    9054.460     62.014   4.200  1.01096E+00  9.92757E-01  1.82033E-02
    9055.746     63.300   4.240  1.01196E+00  9.92956E-01  1.90076E-02
    9057.045     64.599   4.280  1.01248E+00  9.93193E-01  1.92916E-02
    9058.355     65.909   4.320  1.01229E+00  9.93466E-01  1.88232E-02
    9059.678     67.232   4.360  1.01132E+00  9.93774E-01  1.75429E-02
    9061.013     68.567   4.400  1.00976E+00  9.94093E-01  1.56671E-02
    9062.360     69.914   4.440  1.00807E+00  9.94443E-01  1.36245E-02
    9063.720     71.274   4.480  1.00665E+00  9.94803E-01  1.18499E-02
    9065.091     72.645   4.520  1.00580E+00  9.95193E-01  1.06102E-02
    9066.475     74.029   4.560  1.00555E+00  9.95611E-01  9.94353E-03
    9067.871     75.425   4.600  1.00572E+00  9.96013E-01  9.70488E-03
    9069.279     76.833   4.640  1.00612E+00  9.96439E-01  9.68236E-03
    9070.700     78.254   4.680  1.00659E+00  9.96868E-01  9.71940E-03
    9072.132     79.686   4.720  1.00708E+00  9.97298E-01  9.78138E-03
    9073.577     81.131   4.760  1.00766E+00  9.97729E-01  9.93123E-03
    9075.034     82.588   4.800  1.00842E+00  9.98180E-01  1.02411E-02
    9076.503     84.057   4.840  1.00932E+00  9.98605E-01  1.07098E-02
    9077.984     85.538   4.880  1.01025E+00  9.99003E-01  1.12441E-02
    9079.478     87.032   4.920  1.01112E+00  9.99416E-01  1.17013E-02
    9080.984     88.537   4.960  1.01169E+00  9.99801E-01  1.18927E-02
    9082.502     90.055   5.000  1.01177E+00  1.00018E+00  1.15959E-02
    9084.032     91.585   5.040  1.01114E+00  1.00052E+00  1.06129E-02
    9085.574     93.128   5.080  1.00974E+00  1.00086E+00  8.87571E-03
    9087.128     94.682   5.120  1.00765E+00  1.00116E+00  6.48822E-03
    9088.695     96.249   5.160  1.00510E+00  1.00145E+00  3.64842E-03
    9090.274     97.828   5.200  1.00225E+00  1.00171E+00  5.35158E-04
    9091.865     99.419   5.240  9.99192E-01  1.00193E+00 -2.73871E-03
    9093.468    101.022   5.280  9.96029E-01  1.00214E+00 -6.10710E-03
    9095.084    102.637   5.320  9.92788E-01  1.00228E+00 -9.49536E-03
    9096.711    104.265   5.360  9.89667E-01  1.00244E+00 -1.27705E-02
    9098.351    105.905   5.400  9.86805E-01  1.00253E+00 -1.57267E-02
    9100.003    107.557   5.440  9.84442E-01  1.00259E+00 -1.81439E-02
    9101.667    109.221   5.480  9.82747E-01  1.00260E+00 -1.98546E-02
    9103.344    110.897   5.520  9.81803E-01  1.00260E+00 -2.07985E-02
    9105.032    112.586   5.560  9.81521E-01  1.00256E+00 -2.10415E-02
    9106.733    114.287   5.600  9.81704E-01  1.00246E+00 -2.07586E-02
    9108.446    116.000   5.640  9.82204E-01  1.00235E+00 -2.01415E-02
    9110.171    117.725   5.680  9.82929E-01  1.00219E+00 -1.92611E-02
    9111.909    119.462   5.720  9.83988E-01  1.00200E+00 -1.80109E-02
    9113.658    121.212   5.760  9.85600E-01  1.00179E+00 -1.61932E-02
    9115.420    122.974   5.800  9.87833E-01  1.00153E+00 -1.36924E-02
    9117.194    124.748   5.840  9.90588E-01  1.00122E+00 -1.06333E-02
    9118.980    126.534   5.880  9.93459E-01  1.00091E+00 -7.44829E-03
    9120.778    128.332   5.920  9.95751E-01  1.00056E+00 -4.80983E-03
    9122.589    130.142   5.960  9.96818E-01  1.00018E+00 -3.36447E-03
    9124.411    131.965   6.000  9.96359E-01  9.99777E-01 -3.41817E-03
