# # comment:                                                     FEFF 9.9.1  
# # Source:
# # Structure
# # Reduced
# # space
# # abc:
# # angles:113.739118
# # sites:
# # POT  SCF 100  7.0000   0, screened core-hole, AFOLP (folp(0)= 1.150)
# # Abs   Z=29 Rmt= 1.164 Rnm= 1.331 K  shell
# # Pot 1 Z=23 Rmt= 1.151 Rnm= 1.323
# # Pot 2 Z=29 Rmt= 1.161 Rnm= 1.331
# # Pot 3 Z= 8 Rmt= 0.884 Rnm= 1.069
# # Gam_ch=1.729E+00 H-L exch Vi= 0.000E+00 Vr= 0.000E+00
# # Mu=-9.536E+00eV kf=2.333E+00 Vint=-1.828E+01eV Rs_int= 1.554
# FMS rfms= 9.0000
# # PATH  Rmax=-1.000,  Keep_limit= 0.00, Heap_limit 0.00  Pwcrit= 2.50%
#  S02=0.950  Temp=   0.00  Debye_temp=   0.00  Global_sig2= 0.00000
#  Energy zero shift, vr, vi    0.00000E+00   0.00000E+00
#  Curved wave amplitude ratio filter   4.000%
#     file         sig2 tot  cw amp ratio   deg  nlegs   reff  inp sig2
#     0/   0 paths used
#  xsedge+ 50, used to normalize mu           2.5141E-04
#  -----------------------------------------------------------------------
#  omega    e    k    mu    mu0     chi     @#
    8983.826    -13.346  -1.000  3.81523E-02  4.78641E-02 -9.71177E-03
    8984.124    -13.047  -0.960  4.03651E-02  5.12073E-02 -1.08422E-02
    8984.411    -12.761  -0.920  4.27832E-02  5.49131E-02 -1.21300E-02
    8984.685    -12.487  -0.880  4.54352E-02  5.90345E-02 -1.35992E-02
    8984.947    -12.224  -0.840  4.83547E-02  6.36326E-02 -1.52779E-02
    8985.197    -11.975  -0.800  5.15808E-02  6.87788E-02 -1.71979E-02
    8985.435    -11.737  -0.760  5.51587E-02  7.45544E-02 -1.93957E-02
    8985.661    -11.511  -0.720  5.91399E-02  8.10516E-02 -2.19117E-02
    8985.874    -11.298  -0.680  6.35816E-02  8.83717E-02 -2.47901E-02
    8986.075    -11.097  -0.640  6.85445E-02  9.66215E-02 -2.80770E-02
    8986.264    -10.908  -0.600  7.40887E-02  1.05906E-01 -3.18170E-02
    8986.441    -10.731  -0.560  8.02660E-02  1.16314E-01 -3.60476E-02
    8986.605    -10.566  -0.520  8.71071E-02  1.27898E-01 -4.07904E-02
    8986.758    -10.414  -0.480  9.46053E-02  1.40645E-01 -4.60395E-02
    8986.898    -10.274  -0.440  1.02696E-01  1.54444E-01 -5.17478E-02
    8987.026    -10.146  -0.400  1.11240E-01  1.69056E-01 -5.78160E-02
    8987.142    -10.030  -0.360  1.20016E-01  1.84106E-01 -6.40897E-02
    8987.246     -9.926  -0.320  1.28739E-01  1.99108E-01 -7.03697E-02
    8987.337     -9.835  -0.280  1.37087E-01  2.13523E-01 -7.64352E-02
    8987.416     -9.756  -0.240  1.44757E-01  2.26829E-01 -8.20719E-02
    8987.483     -9.689  -0.200  1.51495E-01  2.38590E-01 -8.70952E-02
    8987.538     -9.634  -0.160  1.57127E-01  2.48487E-01 -9.13602E-02
    8987.581     -9.591  -0.120  1.61551E-01  2.56312E-01 -9.47615E-02
    8987.611     -9.561  -0.080  1.64724E-01  2.61952E-01 -9.72283E-02
    8987.636     -9.536   0.000  1.67267E-01  2.66485E-01 -9.92175E-02
    8987.691     -9.481   0.120  1.72791E-01  2.76701E-01 -1.03910E-01
    8987.733     -9.439   0.160  1.77041E-01  2.84652E-01 -1.07611E-01
    8987.788     -9.384   0.200  1.82399E-01  2.94824E-01 -1.12425E-01
    8987.855     -9.317   0.240  1.88662E-01  3.07047E-01 -1.18385E-01
    8987.934     -9.237   0.280  1.95639E-01  3.21123E-01 -1.25484E-01
    8988.026     -9.146   0.320  2.02981E-01  3.36668E-01 -1.33687E-01
    8988.129     -9.042   0.360  2.10369E-01  3.53272E-01 -1.42903E-01
    8988.245     -8.927   0.400  2.17530E-01  3.70474E-01 -1.52944E-01
    8988.373     -8.799   0.440  2.24356E-01  3.87838E-01 -1.63481E-01
    8988.513     -8.658   0.480  2.31000E-01  4.05058E-01 -1.74058E-01
    8988.666     -8.506   0.520  2.37749E-01  4.21893E-01 -1.84143E-01
    8988.830     -8.341   0.560  2.45000E-01  4.38248E-01 -1.93248E-01
    8989.007     -8.165   0.600  2.53032E-01  4.54137E-01 -2.01105E-01
    8989.196     -7.976   0.640  2.61852E-01  4.69569E-01 -2.07717E-01
    8989.397     -7.774   0.680  2.71466E-01  4.84643E-01 -2.13178E-01
    8989.611     -7.561   0.720  2.82090E-01  4.99409E-01 -2.17318E-01
    8989.836     -7.336   0.760  2.93904E-01  5.13975E-01 -2.20071E-01
    8990.074     -7.098   0.800  3.06245E-01  5.28383E-01 -2.22138E-01
    8990.324     -6.848   0.840  3.18019E-01  5.42701E-01 -2.24681E-01
    8990.586     -6.586   0.880  3.29075E-01  5.56969E-01 -2.27893E-01
    8990.860     -6.311   0.920  3.40951E-01  5.71236E-01 -2.30285E-01
    8991.147     -6.025   0.960  3.56207E-01  5.85519E-01 -2.29312E-01
    8991.446     -5.726   1.000  3.77019E-01  5.99825E-01 -2.22805E-01
    8991.757     -5.415   1.040  4.03596E-01  6.14157E-01 -2.10561E-01
    8992.080     -5.092   1.080  4.34386E-01  6.28509E-01 -1.94123E-01
    8992.415     -4.757   1.120  4.68926E-01  6.42871E-01 -1.73945E-01
    8992.762     -4.409   1.160  5.07295E-01  6.57267E-01 -1.49972E-01
    8993.122     -4.050   1.200  5.48240E-01  6.71617E-01 -1.23377E-01
    8993.494     -3.678   1.240  5.94108E-01  6.85958E-01 -9.18498E-02
    8993.878     -3.294   1.280  6.52872E-01  7.00227E-01 -4.73546E-02
    8994.274     -2.898   1.320  7.28411E-01  7.14414E-01  1.39969E-02
    8994.683     -2.489   1.360  8.06216E-01  7.28471E-01  7.77450E-02
    8995.103     -2.069   1.400  8.61487E-01  7.42410E-01  1.19077E-01
    8995.536     -1.636   1.440  8.88243E-01  7.56160E-01  1.32083E-01
    8995.981     -1.191   1.480  8.96842E-01  7.69729E-01  1.27113E-01
    8996.438     -0.734   1.520  8.91797E-01  7.83066E-01  1.08730E-01
    8996.908     -0.264   1.560  8.72619E-01  7.96139E-01  7.64795E-02
    8997.389      0.217   1.600  8.46583E-01  8.08937E-01  3.76455E-02
    8997.883      0.711   1.640  8.31939E-01  8.21429E-01  1.05097E-02
    8998.389      1.217   1.680  8.34335E-01  8.33604E-01  7.31052E-04
    8998.907      1.735   1.720  8.45654E-01  8.45414E-01  2.40525E-04
    8999.437      2.266   1.760  8.53327E-01  8.56849E-01 -3.52227E-03
    8999.980      2.808   1.800  8.51688E-01  8.67901E-01 -1.62123E-02
    9000.535      3.363   1.840  8.47732E-01  8.78521E-01 -3.07893E-02
    9001.102      3.930   1.880  8.58391E-01  8.88746E-01 -3.03553E-02
    9001.681      4.509   1.920  8.95053E-01  8.98530E-01 -3.47628E-03
    9002.272      5.100   1.960  9.53491E-01  9.07888E-01  4.56030E-02
    9002.876      5.704   2.000  1.01335E+00  9.16778E-01  9.65711E-02
    9003.491      6.319   2.040  1.04791E+00  9.25217E-01  1.22695E-01
    9004.119      6.947   2.080  1.04560E+00  9.33204E-01  1.12400E-01
    9004.759      7.587   2.120  1.01656E+00  9.40740E-01  7.58199E-02
    9005.412      8.240   2.160  9.81484E-01  9.47805E-01  3.36793E-02
    9006.076      8.904   2.200  9.56420E-01  9.54421E-01  1.99872E-03
    9006.753      9.581   2.240  9.52617E-01  9.60591E-01 -7.97485E-03
    9007.441     10.270   2.280  9.75224E-01  9.66320E-01  8.90420E-03
    9008.143     10.971   2.320  1.01588E+00  9.71630E-01  4.42495E-02
    9008.856     11.684   2.360  1.05428E+00  9.76508E-01  7.77763E-02
    9009.581     12.409   2.400  1.07173E+00  9.80956E-01  9.07738E-02
    9010.319     13.147   2.440  1.06093E+00  9.85022E-01  7.59094E-02
    9011.069     13.897   2.480  1.03538E+00  9.88694E-01  4.66859E-02
    9011.831     14.659   2.520  1.02263E+00  9.91996E-01  3.06371E-02
    9012.605     15.433   2.560  1.03979E+00  9.94918E-01  4.48706E-02
    9013.391     16.219   2.600  1.08304E+00  9.97527E-01  8.55112E-02
    9014.190     17.018   2.640  1.12133E+00  9.99788E-01  1.21540E-01
    9015.000     17.829   2.680  1.12625E+00  1.00173E+00  1.24517E-01
    9015.823     18.652   2.720  1.09970E+00  1.00338E+00  9.63170E-02
    9016.659     19.487   2.760  1.06355E+00  1.00473E+00  5.88145E-02
    9017.506     20.334   2.800  1.03950E+00  1.00583E+00  3.36722E-02
    9018.365     21.194   2.840  1.02633E+00  1.00668E+00  1.96523E-02
    9019.237     22.065   2.880  1.02001E+00  1.00729E+00  1.27194E-02
    9020.121     22.949   2.920  1.01706E+00  1.00770E+00  9.36014E-03
    9021.017     23.845   2.960  1.01535E+00  1.00790E+00  7.45198E-03
    9021.926     24.754   3.000  1.01361E+00  1.00791E+00  5.69908E-03
    9022.846     25.674   3.040  1.01127E+00  1.00775E+00  3.52552E-03
    9023.779     26.607   3.080  1.00848E+00  1.00743E+00  1.04789E-03
    9024.724     27.552   3.120  1.00570E+00  1.00695E+00 -1.25346E-03
    9025.681     28.509   3.160  1.00353E+00  1.00635E+00 -2.82544E-03
    9026.650     29.478   3.200  1.00243E+00  1.00563E+00 -3.20197E-03
    9027.631     30.460   3.240  1.00269E+00  1.00480E+00 -2.10864E-03
    9028.625     31.453   3.280  1.00428E+00  1.00390E+00  3.81722E-04
    9029.631     32.459   3.320  1.00680E+00  1.00290E+00  3.90443E-03
    9030.649     33.477   3.360  1.00960E+00  1.00184E+00  7.76067E-03
    9031.679     34.507   3.400  1.01160E+00  1.00071E+00  1.08875E-02
    9032.721     35.550   3.440  1.01159E+00  9.99533E-01  1.20575E-02
    9033.776     36.604   3.480  1.00856E+00  9.98296E-01  1.02630E-02
    9034.843     37.671   3.520  1.00210E+00  9.97063E-01  5.03281E-03
    9035.922     38.750   3.560  9.92299E-01  9.95778E-01 -3.47909E-03
    9037.013     39.841   3.600  9.79924E-01  9.94505E-01 -1.45817E-02
    9038.116     40.945   3.640  9.66040E-01  9.93207E-01 -2.71675E-02
    9039.232     42.060   3.680  9.51906E-01  9.91906E-01 -4.00006E-02
    9040.360     43.188   3.720  9.38579E-01  9.90607E-01 -5.20279E-02
    9041.500     44.328   3.760  9.26874E-01  9.89334E-01 -6.24602E-02
    9042.652     45.480   3.800  9.17401E-01  9.88069E-01 -7.06681E-02
    9043.816     46.644   3.840  9.10587E-01  9.86834E-01 -7.62465E-02
    9044.993     47.821   3.880  9.06733E-01  9.85613E-01 -7.88797E-02
    9046.181     49.010   3.920  9.06011E-01  9.84446E-01 -7.84355E-02
    9047.382     50.210   3.960  9.08242E-01  9.83296E-01 -7.50542E-02
    9048.595     51.424   4.000  9.12975E-01  9.82184E-01 -6.92085E-02
    9049.821     52.649   4.040  9.19446E-01  9.81111E-01 -6.16655E-02
    9051.058     53.886   4.080  9.26694E-01  9.80102E-01 -5.34080E-02
    9052.308     55.136   4.120  9.33773E-01  9.79134E-01 -4.53609E-02
    9053.570     56.398   4.160  9.40151E-01  9.78189E-01 -3.80382E-02
    9054.844     57.672   4.200  9.45888E-01  9.77329E-01 -3.14402E-02
    9056.130     58.958   4.240  9.51257E-01  9.76493E-01 -2.52352E-02
    9057.428     60.257   4.280  9.56659E-01  9.75722E-01 -1.90630E-02
    9058.739     61.567   4.320  9.62301E-01  9.74999E-01 -1.26982E-02
    9060.062     62.890   4.360  9.68239E-01  9.74342E-01 -6.10272E-03
    9061.397     64.225   4.400  9.74392E-01  9.73729E-01  6.63089E-04
    9062.744     65.572   4.440  9.80648E-01  9.73163E-01  7.48530E-03
    9064.104     66.932   4.480  9.86794E-01  9.72663E-01  1.41313E-02
    9065.475     68.303   4.520  9.92483E-01  9.72209E-01  2.02740E-02
    9066.859     69.687   4.560  9.97430E-01  9.71801E-01  2.56290E-02
    9068.255     71.083   4.600  1.00151E+00  9.71458E-01  3.00522E-02
    9069.663     72.491   4.640  1.00478E+00  9.71159E-01  3.36218E-02
    9071.083     73.912   4.680  1.00750E+00  9.70905E-01  3.65928E-02
    9072.516     75.344   4.720  1.00993E+00  9.70717E-01  3.92151E-02
    9073.961     76.789   4.760  1.01217E+00  9.70573E-01  4.15982E-02
    9075.418     78.246   4.800  1.01424E+00  9.70469E-01  4.37696E-02
    9076.887     79.715   4.840  1.01606E+00  9.70405E-01  4.56520E-02
    9078.368     81.196   4.880  1.01762E+00  9.70380E-01  4.72374E-02
    9079.862     82.690   4.920  1.01915E+00  9.70395E-01  4.87511E-02
    9081.367     84.196   4.960  1.02106E+00  9.70447E-01  5.06088E-02
    9082.885     85.713   5.000  1.02366E+00  9.70534E-01  5.31208E-02
    9084.415     87.244   5.040  1.02682E+00  9.70638E-01  5.61841E-02
    9085.958     88.786   5.080  1.02997E+00  9.70798E-01  5.91702E-02
    9087.512     90.340   5.120  1.03207E+00  9.70970E-01  6.11033E-02
    9089.079     91.907   5.160  1.03205E+00  9.71173E-01  6.08798E-02
    9090.658     93.486   5.200  1.02887E+00  9.71385E-01  5.74846E-02
    9092.249     95.077   5.240  1.02186E+00  9.71627E-01  5.02360E-02
    9093.852     96.680   5.280  1.01086E+00  9.71876E-01  3.89834E-02
    9095.467     98.296   5.320  9.96395E-01  9.72129E-01  2.42662E-02
    9097.095     99.923   5.360  9.79736E-01  9.72410E-01  7.32668E-03
    9098.735    101.563   5.400  9.62642E-01  9.72694E-01 -1.00524E-02
    9100.387    103.215   5.440  9.47075E-01  9.72982E-01 -2.59068E-02
    9102.051    104.879   5.480  9.34821E-01  9.73292E-01 -3.84710E-02
    9103.727    106.556   5.520  9.26955E-01  9.73580E-01 -4.66257E-02
    9105.416    108.244   5.560  9.23646E-01  9.73865E-01 -5.02189E-02
    9107.117    109.945   5.600  9.24093E-01  9.74147E-01 -5.00541E-02
    9108.830    111.658   5.640  9.26928E-01  9.74426E-01 -4.74978E-02
    9110.555    113.383   5.680  9.30837E-01  9.74678E-01 -4.38413E-02
    9112.292    115.120   5.720  9.35204E-01  9.74947E-01 -3.97435E-02
    9114.042    116.870   5.760  9.40067E-01  9.75186E-01 -3.51190E-02
    9115.804    118.632   5.800  9.45783E-01  9.75394E-01 -2.96109E-02
    9117.577    120.406   5.840  9.52395E-01  9.75592E-01 -2.31964E-02
    9119.364    122.192   5.880  9.59281E-01  9.75758E-01 -1.64771E-02
    9121.162    123.990   5.920  9.65431E-01  9.75915E-01 -1.04845E-02
    9122.972    125.801   5.960  9.69799E-01  9.76062E-01 -6.26332E-03
    9124.795    127.623   6.000  9.71611E-01  9.76140E-01 -4.52934E-03
