# # comment:                                                     FEFF 9.9.1  
# # Source:
# # Structure
# # Reduced
# # space
# # abc:
# # angles:
# # sites:
# # POT  SCF 100  7.0000   0, screened core-hole, AFOLP (folp(0)= 1.150)
# # Abs   Z=29 Rmt= 1.242 Rnm= 1.336 K  shell
# # Pot 1 Z=40 Rmt= 1.343 Rnm= 1.538
# # Pot 2 Z=29 Rmt= 1.242 Rnm= 1.336
# # Pot 3 Z= 8 Rmt= 0.827 Rnm= 1.041
# # Pot 4 Z= 9 Rmt= 1.073 Rnm= 1.151
# # Gam_ch=1.729E+00 H-L exch Vi= 0.000E+00 Vr= 0.000E+00
# # Mu=-6.050E+00eV kf=2.284E+00 Vint=-1.361E+01eV Rs_int= 1.588
# FMS rfms= 9.0000
# # PATH  Rmax=-1.000,  Keep_limit= 0.00, Heap_limit 0.00  Pwcrit= 2.50%
#  S02=0.950  Temp=   0.00  Debye_temp=   0.00  Global_sig2= 0.00000
#  Energy zero shift, vr, vi    0.00000E+00   0.00000E+00
#  Curved wave amplitude ratio filter   4.000%
#     file         sig2 tot  cw amp ratio   deg  nlegs   reff  inp sig2
#     0/   0 paths used
#  xsedge+ 50, used to normalize mu           2.4301E-04
#  -----------------------------------------------------------------------
#  omega    e    k    mu    mu0     chi     @#
    8983.271     -9.860  -1.000  3.91109E-02  5.82477E-02 -1.91367E-02
    8983.569     -9.561  -0.960  4.11740E-02  6.25733E-02 -2.13993E-02
    8983.856     -9.274  -0.920  4.34003E-02  6.73843E-02 -2.39840E-02
    8984.130     -9.000  -0.880  4.58093E-02  7.27521E-02 -2.69429E-02
    8984.392     -8.738  -0.840  4.84235E-02  7.87598E-02 -3.03364E-02
    8984.642     -8.488  -0.800  5.12687E-02  8.55036E-02 -3.42349E-02
    8984.880     -8.250  -0.760  5.43745E-02  9.30937E-02 -3.87192E-02
    8985.105     -8.025  -0.720  5.77740E-02  1.01655E-01 -4.38808E-02
    8985.319     -7.811  -0.680  6.15033E-02  1.11324E-01 -4.98208E-02
    8985.520     -7.610  -0.640  6.56000E-02  1.22246E-01 -5.66461E-02
    8985.709     -7.421  -0.600  7.00998E-02  1.34563E-01 -6.44629E-02
    8985.886     -7.244  -0.560  7.50311E-02  1.48395E-01 -7.33641E-02
    8986.050     -7.080  -0.520  8.04058E-02  1.63815E-01 -8.34095E-02
    8986.203     -6.927  -0.480  8.62073E-02  1.80807E-01 -9.45997E-02
    8986.343     -6.787  -0.440  9.23769E-02  1.99221E-01 -1.06845E-01
    8986.471     -6.659  -0.400  9.88035E-02  2.18739E-01 -1.19935E-01
    8986.587     -6.543  -0.360  1.05323E-01  2.38856E-01 -1.33533E-01
    8986.690     -6.440  -0.320  1.11731E-01  2.58921E-01 -1.47190E-01
    8986.782     -6.348  -0.280  1.17814E-01  2.78207E-01 -1.60393E-01
    8986.861     -6.269  -0.240  1.23375E-01  2.96015E-01 -1.72640E-01
    8986.928     -6.202  -0.200  1.28258E-01  3.11759E-01 -1.83500E-01
    8986.983     -6.147  -0.160  1.32355E-01  3.25007E-01 -1.92652E-01
    8987.026     -6.105  -0.120  1.35596E-01  3.35484E-01 -1.99888E-01
    8987.056     -6.074  -0.080  1.37943E-01  3.43035E-01 -2.05092E-01
    8987.081     -6.050   0.000  1.39860E-01  3.49102E-01 -2.09242E-01
    8987.135     -5.995   0.120  1.44172E-01  3.62772E-01 -2.18601E-01
    8987.178     -5.952   0.160  1.47512E-01  3.73427E-01 -2.25916E-01
    8987.233     -5.897   0.200  1.51751E-01  3.87025E-01 -2.35274E-01
    8987.300     -5.830   0.240  1.56907E-01  4.03390E-01 -2.46483E-01
    8987.379     -5.751   0.280  1.62930E-01  4.22209E-01 -2.59279E-01
    8987.471     -5.659   0.320  1.69798E-01  4.42999E-01 -2.73200E-01
    8987.574     -5.556   0.360  1.77465E-01  4.65182E-01 -2.87716E-01
    8987.690     -5.440   0.400  1.85872E-01  4.88120E-01 -3.02248E-01
    8987.818     -5.312   0.440  1.94989E-01  5.11249E-01 -3.16260E-01
    8987.958     -5.172   0.480  2.04725E-01  5.34109E-01 -3.29385E-01
    8988.111     -5.019   0.520  2.14984E-01  5.56376E-01 -3.41392E-01
    8988.275     -4.855   0.560  2.25721E-01  5.77916E-01 -3.52195E-01
    8988.452     -4.678   0.600  2.36880E-01  5.98666E-01 -3.61786E-01
    8988.641     -4.489   0.640  2.48505E-01  6.18680E-01 -3.70175E-01
    8988.842     -4.288   0.680  2.60680E-01  6.38009E-01 -3.77329E-01
    8989.056     -4.075   0.720  2.73744E-01  6.56737E-01 -3.82992E-01
    8989.281     -3.849   0.760  2.88365E-01  6.74925E-01 -3.86560E-01
    8989.519     -3.611   0.800  3.05395E-01  6.92648E-01 -3.87252E-01
    8989.769     -3.361   0.840  3.25623E-01  7.09941E-01 -3.84317E-01
    8990.031     -3.099   0.880  3.49538E-01  7.26847E-01 -3.77310E-01
    8990.305     -2.825   0.920  3.76749E-01  7.43376E-01 -3.66627E-01
    8990.592     -2.538   0.960  4.04381E-01  7.59523E-01 -3.55142E-01
    8990.891     -2.240   1.000  4.27014E-01  7.75314E-01 -3.48300E-01
    8991.201     -1.929   1.040  4.42154E-01  7.90685E-01 -3.48532E-01
    8991.525     -1.606   1.080  4.54343E-01  8.05667E-01 -3.51324E-01
    8991.860     -1.270   1.120  4.70361E-01  8.20202E-01 -3.49841E-01
    8992.207     -0.923   1.160  4.94746E-01  8.34274E-01 -3.39529E-01
    8992.567     -0.563   1.200  5.28611E-01  8.47859E-01 -3.19247E-01
    8992.939     -0.191   1.240  5.69514E-01  8.60912E-01 -2.91398E-01
    8993.323      0.193   1.280  6.15235E-01  8.73431E-01 -2.58197E-01
    8993.719      0.589   1.320  6.65749E-01  8.85372E-01 -2.19623E-01
    8994.127      0.997   1.360  7.20284E-01  8.96729E-01 -1.76445E-01
    8994.548      1.418   1.400  7.74516E-01  9.07500E-01 -1.32985E-01
    8994.981      1.851   1.440  8.18904E-01  9.17644E-01 -9.87399E-02
    8995.426      2.296   1.480  8.48453E-01  9.27160E-01 -7.87077E-02
    8995.883      2.753   1.520  8.71440E-01  9.36050E-01 -6.46099E-02
    8996.353      3.222   1.560  8.99404E-01  9.44337E-01 -4.49331E-02
    8996.834      3.704   1.600  9.37099E-01  9.51987E-01 -1.48876E-02
    8997.328      4.198   1.640  9.82748E-01  9.59024E-01  2.37240E-02
    8997.834      4.704   1.680  1.03272E+00  9.65458E-01  6.72647E-02
    8998.352      5.222   1.720  1.09041E+00  9.71318E-01  1.19089E-01
    8998.882      5.752   1.760  1.15874E+00  9.76596E-01  1.82140E-01
    8999.425      6.295   1.800  1.21953E+00  9.81343E-01  2.38183E-01
    8999.980      6.849   1.840  1.25395E+00  9.85572E-01  2.68379E-01
    9000.547      7.416   1.880  1.26959E+00  9.89297E-01  2.80295E-01
    9001.126      7.995   1.920  1.28251E+00  9.92551E-01  2.89958E-01
    9001.717      8.587   1.960  1.30481E+00  9.95350E-01  3.09458E-01
    9002.320      9.190   2.000  1.34029E+00  9.97750E-01  3.42542E-01
    9002.936      9.806   2.040  1.38148E+00  9.99764E-01  3.81714E-01
    9003.564     10.434   2.080  1.41760E+00  1.00141E+00  4.16193E-01
    9004.204     11.074   2.120  1.43930E+00  1.00272E+00  4.36588E-01
    9004.856     11.726   2.160  1.43511E+00  1.00372E+00  4.31387E-01
    9005.521     12.391   2.200  1.39853E+00  1.00447E+00  3.94059E-01
    9006.198     13.067   2.240  1.33660E+00  1.00496E+00  3.31643E-01
    9006.886     13.756   2.280  1.26842E+00  1.00523E+00  2.63182E-01
    9007.587     14.457   2.320  1.21101E+00  1.00530E+00  2.05710E-01
    9008.301     15.170   2.360  1.16951E+00  1.00518E+00  1.64331E-01
    9009.026     15.896   2.400  1.14301E+00  1.00493E+00  1.38080E-01
    9009.764     16.633   2.440  1.12607E+00  1.00454E+00  1.21529E-01
    9010.513     17.383   2.480  1.10864E+00  1.00405E+00  1.04598E-01
    9011.275     18.145   2.520  1.08248E+00  1.00346E+00  7.90203E-02
    9012.050     18.919   2.560  1.04859E+00  1.00280E+00  4.57841E-02
    9012.836     19.706   2.600  1.01343E+00  1.00207E+00  1.13601E-02
    9013.635     20.504   2.640  9.83232E-01  1.00132E+00 -1.80882E-02
    9014.445     21.315   2.680  9.58240E-01  1.00055E+00 -4.23138E-02
    9015.268     22.138   2.720  9.37142E-01  9.99760E-01 -6.26178E-02
    9016.103     22.973   2.760  9.19048E-01  9.98986E-01 -7.99372E-02
    9016.951     23.821   2.800  9.03166E-01  9.98195E-01 -9.50288E-02
    9017.810     24.680   2.840  8.89285E-01  9.97456E-01 -1.08170E-01
    9018.682     25.552   2.880  8.77286E-01  9.96731E-01 -1.19446E-01
    9019.566     26.436   2.920  8.67593E-01  9.96045E-01 -1.28452E-01
    9020.462     27.332   2.960  8.60776E-01  9.95424E-01 -1.34648E-01
    9021.370     28.240   3.000  8.57180E-01  9.94849E-01 -1.37669E-01
    9022.291     29.161   3.040  8.56884E-01  9.94322E-01 -1.37438E-01
    9023.224     30.093   3.080  8.59724E-01  9.93868E-01 -1.34144E-01
    9024.168     31.038   3.120  8.65241E-01  9.93489E-01 -1.28248E-01
    9025.126     31.995   3.160  8.72629E-01  9.93165E-01 -1.20536E-01
    9026.095     32.965   3.200  8.81206E-01  9.92938E-01 -1.11732E-01
    9027.076     33.946   3.240  8.90110E-01  9.92769E-01 -1.02659E-01
    9028.070     34.940   3.280  8.98975E-01  9.92678E-01 -9.37035E-02
    9029.076     35.946   3.320  9.07692E-01  9.92667E-01 -8.49752E-02
    9030.094     36.964   3.360  9.16135E-01  9.92736E-01 -7.66010E-02
    9031.124     37.994   3.400  9.24086E-01  9.92885E-01 -6.87991E-02
    9032.166     39.036   3.440  9.31334E-01  9.93115E-01 -6.17804E-02
    9033.221     40.091   3.480  9.37829E-01  9.93424E-01 -5.55946E-02
    9034.288     41.158   3.520  9.43634E-01  9.93811E-01 -5.01763E-02
    9035.367     42.237   3.560  9.49121E-01  9.94276E-01 -4.51544E-02
    9036.458     43.328   3.600  9.54755E-01  9.94795E-01 -4.00398E-02
    9037.561     44.431   3.640  9.61021E-01  9.95387E-01 -3.43663E-02
    9038.677     45.547   3.680  9.68280E-01  9.96054E-01 -2.77739E-02
    9039.805     46.674   3.720  9.76714E-01  9.96771E-01 -2.00571E-02
    9040.945     47.814   3.760  9.86300E-01  9.97558E-01 -1.12575E-02
    9042.097     48.967   3.800  9.96721E-01  9.98389E-01 -1.66873E-03
    9043.261     50.131   3.840  1.00753E+00  9.99264E-01  8.27041E-03
    9044.438     51.307   3.880  1.01824E+00  1.00018E+00  1.80651E-02
    9045.626     52.496   3.920  1.02832E+00  1.00113E+00  2.71852E-02
    9046.827     53.697   3.960  1.03728E+00  1.00213E+00  3.51509E-02
    9048.040     54.910   4.000  1.04477E+00  1.00315E+00  4.16133E-02
    9049.266     56.135   4.040  1.05069E+00  1.00419E+00  4.65024E-02
    9050.503     57.373   4.080  1.05518E+00  1.00526E+00  4.99195E-02
    9051.753     58.623   4.120  1.05840E+00  1.00633E+00  5.20679E-02
    9053.015     59.884   4.160  1.06053E+00  1.00743E+00  5.31010E-02
    9054.289     61.158   4.200  1.06167E+00  1.00851E+00  5.31614E-02
    9055.575     62.445   4.240  1.06206E+00  1.00961E+00  5.24529E-02
    9056.873     63.743   4.280  1.06190E+00  1.01068E+00  5.12156E-02
    9058.184     65.054   4.320  1.06136E+00  1.01175E+00  4.96133E-02
    9059.507     66.377   4.360  1.06049E+00  1.01280E+00  4.76894E-02
    9060.842     67.712   4.400  1.05930E+00  1.01382E+00  4.54760E-02
    9062.189     69.059   4.440  1.05776E+00  1.01481E+00  4.29496E-02
    9063.548     70.418   4.480  1.05593E+00  1.01578E+00  4.01585E-02
    9064.920     71.790   4.520  1.05395E+00  1.01668E+00  3.72647E-02
    9066.304     73.174   4.560  1.05208E+00  1.01757E+00  3.45110E-02
    9067.700     74.570   4.600  1.05053E+00  1.01839E+00  3.21471E-02
    9069.108     75.978   4.640  1.04950E+00  1.01918E+00  3.03187E-02
    9070.528     77.398   4.680  1.04886E+00  1.01991E+00  2.89485E-02
    9071.961     78.831   4.720  1.04824E+00  1.02056E+00  2.76846E-02
    9073.406     80.275   4.760  1.04714E+00  1.02116E+00  2.59731E-02
    9074.863     81.732   4.800  1.04494E+00  1.02171E+00  2.32276E-02
    9076.332     83.202   4.840  1.04120E+00  1.02219E+00  1.90073E-02
    9077.813     84.683   4.880  1.03580E+00  1.02262E+00  1.31855E-02
    9079.307     86.176   4.920  1.02898E+00  1.02297E+00  6.00833E-03
    9080.812     87.682   4.960  1.02129E+00  1.02324E+00 -1.95358E-03
    9082.330     89.200   5.000  1.01354E+00  1.02346E+00 -9.92115E-03
    9083.860     90.730   5.040  1.00653E+00  1.02360E+00 -1.70727E-02
    9085.403     92.272   5.080  1.00094E+00  1.02366E+00 -2.27236E-02
    9086.957     93.827   5.120  9.97209E-01  1.02367E+00 -2.64631E-02
    9088.524     95.393   5.160  9.95331E-01  1.02360E+00 -2.82730E-02
    9090.103     96.972   5.200  9.94939E-01  1.02346E+00 -2.85209E-02
    9091.694     98.563   5.240  9.95436E-01  1.02326E+00 -2.78269E-02
    9093.297    100.167   5.280  9.96169E-01  1.02299E+00 -2.68231E-02
    9094.912    101.782   5.320  9.96672E-01  1.02267E+00 -2.59967E-02
    9096.540    103.410   5.360  9.96617E-01  1.02227E+00 -2.56559E-02
    9098.180    105.049   5.400  9.95842E-01  1.02183E+00 -2.59857E-02
    9099.832    106.702   5.440  9.94284E-01  1.02131E+00 -2.70302E-02
    9101.496    108.366   5.480  9.92148E-01  1.02078E+00 -2.86286E-02
    9103.172    110.042   5.520  9.89789E-01  1.02017E+00 -3.03831E-02
    9104.861    111.731   5.560  9.87749E-01  1.01952E+00 -3.17761E-02
    9106.562    113.431   5.600  9.86502E-01  1.01884E+00 -3.23327E-02
    9108.275    115.144   5.640  9.86342E-01  1.01811E+00 -3.17633E-02
    9110.000    116.870   5.680  9.87339E-01  1.01734E+00 -3.00011E-02
    9111.737    118.607   5.720  9.89369E-01  1.01656E+00 -2.71944E-02
    9113.487    120.356   5.760  9.92106E-01  1.01576E+00 -2.36507E-02
    9115.248    122.118   5.800  9.95164E-01  1.01494E+00 -1.97782E-02
    9117.022    123.892   5.840  9.98122E-01  1.01410E+00 -1.59762E-02
    9118.808    125.678   5.880  1.00071E+00  1.01323E+00 -1.25246E-02
    9120.607    127.477   5.920  1.00285E+00  1.01240E+00 -9.54775E-03
    9122.417    129.287   5.960  1.00449E+00  1.01155E+00 -7.06481E-03
    9124.240    131.110   6.000  1.00574E+00  1.01070E+00 -4.96297E-03
