# # comment:                                                     FEFF 9.9.1  
# # Source:
# # Structure
# # Reduced
# # space
# # abc:
# # angles:
# # sites:
# # POT  SCF 100  7.0000   0, screened core-hole, AFOLP (folp(0)= 1.150)
# # Abs   Z=29 Rmt= 1.190 Rnm= 1.323 K  shell
# # Pot 1 Z=29 Rmt= 1.208 Rnm= 1.338
# # Pot 2 Z= 8 Rmt= 1.000 Rnm= 1.127
# # Pot 3 Z= 9 Rmt= 1.036 Rnm= 1.132
# # Gam_ch=1.729E+00 H-L exch Vi= 0.000E+00 Vr= 0.000E+00
# # Mu=-6.571E+00eV kf=1.976E+00 Vint=-1.255E+01eV Rs_int= 1.835
# FMS rfms= 9.0000
# # PATH  Rmax=-1.000,  Keep_limit= 0.00, Heap_limit 0.00  Pwcrit= 2.50%
#  S02=0.950  Temp=   0.00  Debye_temp=   0.00  Global_sig2= 0.00000
#  Energy zero shift, vr, vi    0.00000E+00   0.00000E+00
#  Curved wave amplitude ratio filter   4.000%
#     file         sig2 tot  cw amp ratio   deg  nlegs   reff  inp sig2
#     0/   0 paths used
#  xsedge+ 50, used to normalize mu           2.4092E-04
#  -----------------------------------------------------------------------
#  omega    e    k    mu    mu0     chi     @#
    8983.303    -10.381  -1.000  3.38502E-02  5.62540E-02 -2.24038E-02
    8983.602    -10.082  -0.960  3.52791E-02  6.02680E-02 -2.49889E-02
    8983.888     -9.795  -0.920  3.67828E-02  6.47140E-02 -2.79312E-02
    8984.163     -9.521  -0.880  3.83670E-02  6.96533E-02 -3.12863E-02
    8984.425     -9.259  -0.840  4.00387E-02  7.51575E-02 -3.51188E-02
    8984.675     -9.009  -0.800  4.18057E-02  8.13089E-02 -3.95032E-02
    8984.913     -8.771  -0.760  4.36771E-02  8.82015E-02 -4.45244E-02
    8985.138     -8.546  -0.720  4.56631E-02  9.59413E-02 -5.02782E-02
    8985.351     -8.332  -0.680  4.77751E-02  1.04645E-01 -5.68694E-02
    8985.553     -8.131  -0.640  5.00245E-02  1.14433E-01 -6.44086E-02
    8985.742     -7.942  -0.600  5.24223E-02  1.25426E-01 -7.30040E-02
    8985.918     -7.765  -0.560  5.49759E-02  1.37725E-01 -8.27489E-02
    8986.083     -7.601  -0.520  5.76862E-02  1.51387E-01 -9.37008E-02
    8986.235     -7.448  -0.480  6.05421E-02  1.66396E-01 -1.05854E-01
    8986.376     -7.308  -0.440  6.35153E-02  1.82621E-01 -1.19106E-01
    8986.504     -7.180  -0.400  6.65553E-02  1.99786E-01 -1.33231E-01
    8986.619     -7.064  -0.360  6.95896E-02  2.17460E-01 -1.47870E-01
    8986.723     -6.961  -0.320  7.25297E-02  2.35080E-01 -1.62550E-01
    8986.814     -6.869  -0.280  7.52831E-02  2.52022E-01 -1.76738E-01
    8986.894     -6.790  -0.240  7.77678E-02  2.67679E-01 -1.89911E-01
    8986.961     -6.723  -0.200  7.99223E-02  2.81540E-01 -2.01618E-01
    8987.016     -6.668  -0.160  8.17079E-02  2.93223E-01 -2.11515E-01
    8987.058     -6.626  -0.120  8.31048E-02  3.02477E-01 -2.19373E-01
    8987.089     -6.595  -0.080  8.41053E-02  3.09157E-01 -2.25051E-01
    8987.113     -6.571   0.000  8.49131E-02  3.14532E-01 -2.29619E-01
    8987.168     -6.516   0.120  8.68362E-02  3.26669E-01 -2.39833E-01
    8987.211     -6.473   0.160  8.82454E-02  3.36133E-01 -2.47888E-01
    8987.266     -6.418   0.200  8.99775E-02  3.48248E-01 -2.58270E-01
    8987.333     -6.351   0.240  9.20277E-02  3.62910E-01 -2.70882E-01
    8987.412     -6.272   0.280  9.43279E-02  3.79861E-01 -2.85533E-01
    8987.503     -6.181   0.320  9.68480E-02  3.98765E-01 -3.01917E-01
    8987.607     -6.077   0.360  9.94858E-02  4.19106E-01 -3.19620E-01
    8987.723     -5.961   0.400  1.02348E-01  4.40437E-01 -3.38089E-01
    8987.851     -5.833   0.440  1.05442E-01  4.62267E-01 -3.56825E-01
    8987.991     -5.693   0.480  1.08941E-01  4.84248E-01 -3.75307E-01
    8988.143     -5.540   0.520  1.13017E-01  5.06130E-01 -3.93114E-01
    8988.308     -5.376   0.560  1.17829E-01  5.27786E-01 -4.09957E-01
    8988.485     -5.199   0.600  1.23560E-01  5.49177E-01 -4.25617E-01
    8988.674     -5.010   0.640  1.30343E-01  5.70298E-01 -4.39954E-01
    8988.875     -4.809   0.680  1.38395E-01  5.91216E-01 -4.52821E-01
    8989.088     -4.596   0.720  1.47790E-01  6.11969E-01 -4.64179E-01
    8989.314     -4.370   0.760  1.58636E-01  6.32607E-01 -4.73971E-01
    8989.552     -4.132   0.800  1.70965E-01  6.53130E-01 -4.82165E-01
    8989.802     -3.882   0.840  1.85050E-01  6.73544E-01 -4.88494E-01
    8990.064     -3.620   0.880  2.01722E-01  6.93865E-01 -4.92143E-01
    8990.338     -3.346   0.920  2.22193E-01  7.14070E-01 -4.91877E-01
    8990.624     -3.059   0.960  2.47803E-01  7.34109E-01 -4.86306E-01
    8990.923     -2.761   1.000  2.79557E-01  7.53940E-01 -4.74383E-01
    8991.234     -2.450   1.040  3.17746E-01  7.73515E-01 -4.55769E-01
    8991.557     -2.127   1.080  3.61823E-01  7.92757E-01 -4.30934E-01
    8991.892     -1.791   1.120  4.11902E-01  8.11649E-01 -3.99747E-01
    8992.240     -1.444   1.160  4.69829E-01  8.30065E-01 -3.60236E-01
    8992.600     -1.084   1.200  5.35540E-01  8.47983E-01 -3.12442E-01
    8992.971     -0.712   1.240  6.01886E-01  8.65338E-01 -2.63452E-01
    8993.355     -0.328   1.280  6.58806E-01  8.82045E-01 -2.23239E-01
    8993.752      0.068   1.320  6.99912E-01  8.98083E-01 -1.98170E-01
    8994.160      0.476   1.360  7.21210E-01  9.13368E-01 -1.92158E-01
    8994.581      0.897   1.400  7.24499E-01  9.27885E-01 -2.03387E-01
    8995.014      1.330   1.440  7.26221E-01  9.41579E-01 -2.15359E-01
    8995.459      1.775   1.480  7.48784E-01  9.54460E-01 -2.05676E-01
    8995.916      2.232   1.520  8.00644E-01  9.66458E-01 -1.65814E-01
    8996.385      2.701   1.560  8.71569E-01  9.77589E-01 -1.06020E-01
    8996.867      3.183   1.600  9.43194E-01  9.87853E-01 -4.46593E-02
    8997.361      3.677   1.640  1.01074E+00  9.97234E-01  1.35027E-02
    8997.866      4.183   1.680  1.08954E+00  1.00578E+00  8.37612E-02
    8998.385      4.701   1.720  1.18994E+00  1.01345E+00  1.76489E-01
    8998.915      5.231   1.760  1.29672E+00  1.02031E+00  2.76414E-01
    8999.458      5.774   1.800  1.38435E+00  1.02634E+00  3.58006E-01
    9000.012      6.328   1.840  1.45050E+00  1.03163E+00  4.18877E-01
    9000.579      6.895   1.880  1.50054E+00  1.03617E+00  4.64377E-01
    9001.158      7.474   1.920  1.52693E+00  1.04002E+00  4.86909E-01
    9001.750      8.066   1.960  1.52387E+00  1.04320E+00  4.80666E-01
    9002.353      8.669   2.000  1.49800E+00  1.04575E+00  4.52251E-01
    9002.969      9.285   2.040  1.45958E+00  1.04772E+00  4.11855E-01
    9003.597      9.913   2.080  1.40673E+00  1.04914E+00  3.57591E-01
    9004.237     10.553   2.120  1.34147E+00  1.05008E+00  2.91386E-01
    9004.889     11.205   2.160  1.29178E+00  1.05056E+00  2.41213E-01
    9005.554     11.870   2.200  1.26338E+00  1.05060E+00  2.12776E-01
    9006.230     12.546   2.240  1.22226E+00  1.05028E+00  1.71970E-01
    9006.919     13.235   2.280  1.15240E+00  1.04963E+00  1.02770E-01
    9007.620     13.936   2.320  1.08381E+00  1.04865E+00  3.51621E-02
    9008.333     14.649   2.360  1.04628E+00  1.04743E+00 -1.15568E-03
    9009.059     15.375   2.400  1.04040E+00  1.04595E+00 -5.54921E-03
    9009.796     16.112   2.440  1.04390E+00  1.04428E+00 -3.79314E-04
    9010.546     16.862   2.480  1.04953E+00  1.04244E+00  7.09053E-03
    9011.308     17.624   2.520  1.05548E+00  1.04047E+00  1.50096E-02
    9012.082     18.398   2.560  1.05913E+00  1.03837E+00  2.07566E-02
    9012.869     19.185   2.600  1.05895E+00  1.03616E+00  2.27843E-02
    9013.667     19.983   2.640  1.05439E+00  1.03390E+00  2.04878E-02
    9014.478     20.794   2.680  1.04559E+00  1.03159E+00  1.39950E-02
    9015.301     21.617   2.720  1.03380E+00  1.02927E+00  4.52690E-03
    9016.136     22.452   2.760  1.02064E+00  1.02692E+00 -6.27882E-03
    9016.983     23.300   2.800  1.00778E+00  1.02460E+00 -1.68169E-02
    9017.843     24.159   2.840  9.96584E-01  1.02228E+00 -2.56979E-02
    9018.715     25.031   2.880  9.87667E-01  1.02001E+00 -3.23393E-02
    9019.599     25.915   2.920  9.80717E-01  1.01780E+00 -3.70796E-02
    9020.495     26.811   2.960  9.74693E-01  1.01564E+00 -4.09446E-02
    9021.403     27.719   3.000  9.68353E-01  1.01356E+00 -4.52037E-02
    9022.324     28.640   3.040  9.60654E-01  1.01156E+00 -5.09016E-02
    9023.256     29.572   3.080  9.51281E-01  1.00964E+00 -5.83576E-02
    9024.201     30.517   3.120  9.40630E-01  1.00781E+00 -6.71820E-02
    9025.158     31.474   3.160  9.29422E-01  1.00610E+00 -7.66758E-02
    9026.127     32.444   3.200  9.18386E-01  1.00450E+00 -8.61161E-02
    9027.109     33.425   3.240  9.08401E-01  1.00302E+00 -9.46228E-02
    9028.103     34.419   3.280  9.00240E-01  1.00164E+00 -1.01403E-01
    9029.108     35.425   3.320  8.94634E-01  1.00038E+00 -1.05748E-01
    9030.126     36.443   3.360  8.91793E-01  9.99244E-01 -1.07451E-01
    9031.157     37.473   3.400  8.91697E-01  9.98231E-01 -1.06534E-01
    9032.199     38.515   3.440  8.94030E-01  9.97362E-01 -1.03332E-01
    9033.254     39.570   3.480  8.98326E-01  9.96595E-01 -9.82689E-02
    9034.320     40.637   3.520  9.04105E-01  9.95952E-01 -9.18476E-02
    9035.399     41.716   3.560  9.10965E-01  9.95433E-01 -8.44673E-02
    9036.491     42.807   3.600  9.18785E-01  9.95058E-01 -7.62728E-02
    9037.594     43.910   3.640  9.27562E-01  9.94784E-01 -6.72228E-02
    9038.710     45.026   3.680  9.37289E-01  9.94631E-01 -5.73417E-02
    9039.837     46.153   3.720  9.47761E-01  9.94598E-01 -4.68372E-02
    9040.977     47.293   3.760  9.58570E-01  9.94685E-01 -3.61151E-02
    9042.129     48.446   3.800  9.69114E-01  9.94866E-01 -2.57520E-02
    9043.294     49.610   3.840  9.78821E-01  9.95163E-01 -1.63420E-02
    9044.470     50.786   3.880  9.87419E-01  9.95574E-01 -8.15552E-03
    9045.659     51.975   3.920  9.95046E-01  9.96075E-01 -1.02935E-03
    9046.860     53.176   3.960  1.00212E+00  9.96662E-01  5.45870E-03
    9048.073     54.389   4.000  1.00910E+00  9.97334E-01  1.17696E-02
    9049.298     55.614   4.040  1.01640E+00  9.98110E-01  1.82856E-02
    9050.536     56.852   4.080  1.02415E+00  9.98945E-01  2.52066E-02
    9051.785     58.102   4.120  1.03233E+00  9.99858E-01  3.24749E-02
    9053.047     59.363   4.160  1.04063E+00  1.00085E+00  3.97815E-02
    9054.321     60.637   4.200  1.04848E+00  1.00188E+00  4.65977E-02
    9055.608     61.924   4.240  1.05523E+00  1.00297E+00  5.22643E-02
    9056.906     63.222   4.280  1.06018E+00  1.00411E+00  5.60622E-02
    9058.217     64.533   4.320  1.06272E+00  1.00530E+00  5.74160E-02
    9059.539     65.856   4.360  1.06266E+00  1.00651E+00  5.61491E-02
    9060.874     67.191   4.400  1.06045E+00  1.00775E+00  5.26970E-02
    9062.222     68.538   4.440  1.05704E+00  1.00902E+00  4.80211E-02
    9063.581     69.897   4.480  1.05369E+00  1.01030E+00  4.33856E-02
    9064.953     71.269   4.520  1.05166E+00  1.01161E+00  4.00517E-02
    9066.336     72.653   4.560  1.05189E+00  1.01290E+00  3.89982E-02
    9067.732     74.049   4.600  1.05478E+00  1.01420E+00  4.05811E-02
    9069.141     75.457   4.640  1.05992E+00  1.01547E+00  4.44435E-02
    9070.561     76.877   4.680  1.06639E+00  1.01671E+00  4.96722E-02
    9071.994     78.310   4.720  1.07297E+00  1.01795E+00  5.50294E-02
    9073.438     79.754   4.760  1.07840E+00  1.01916E+00  5.92405E-02
    9074.895     81.211   4.800  1.08165E+00  1.02032E+00  6.13329E-02
    9076.364     82.681   4.840  1.08225E+00  1.02146E+00  6.07959E-02
    9077.846     84.162   4.880  1.08008E+00  1.02253E+00  5.75558E-02
    9079.339     85.655   4.920  1.07549E+00  1.02357E+00  5.19138E-02
    9080.845     87.161   4.960  1.06887E+00  1.02455E+00  4.43229E-02
    9082.363     88.679   5.000  1.06062E+00  1.02545E+00  3.51735E-02
    9083.893     90.209   5.040  1.05109E+00  1.02630E+00  2.47900E-02
    9085.435     91.751   5.080  1.04076E+00  1.02707E+00  1.36860E-02
    9086.990     93.306   5.120  1.03047E+00  1.02779E+00  2.68741E-03
    9088.556     94.872   5.160  1.02111E+00  1.02843E+00 -7.31908E-03
    9090.135     96.451   5.200  1.01327E+00  1.02898E+00 -1.57121E-02
    9091.726     98.042   5.240  1.00710E+00  1.02946E+00 -2.23633E-02
    9093.329     99.646   5.280  1.00225E+00  1.02986E+00 -2.76064E-02
    9094.945    101.261   5.320  9.98184E-01  1.03019E+00 -3.20086E-02
    9096.573    102.889   5.360  9.94303E-01  1.03042E+00 -3.61210E-02
    9098.212    104.528   5.400  9.90329E-01  1.03059E+00 -4.02661E-02
    9099.864    106.180   5.440  9.86215E-01  1.03066E+00 -4.44470E-02
    9101.529    107.845   5.480  9.82303E-01  1.03067E+00 -4.83651E-02
    9103.205    109.521   5.520  9.79043E-01  1.03059E+00 -5.15507E-02
    9104.894    111.210   5.560  9.77005E-01  1.03041E+00 -5.34100E-02
    9106.594    112.910   5.600  9.76800E-01  1.03018E+00 -5.33794E-02
    9108.307    114.623   5.640  9.78637E-01  1.02989E+00 -5.12526E-02
    9110.032    116.349   5.680  9.82094E-01  1.02950E+00 -4.74056E-02
    9111.770    118.086   5.720  9.86390E-01  1.02906E+00 -4.26649E-02
    9113.519    119.835   5.760  9.90658E-01  1.02854E+00 -3.78808E-02
    9115.281    121.597   5.800  9.94408E-01  1.02797E+00 -3.35644E-02
    9117.055    123.371   5.840  9.97533E-01  1.02734E+00 -2.98043E-02
    9118.841    125.157   5.880  1.00023E+00  1.02666E+00 -2.64291E-02
    9120.639    126.956   5.920  1.00270E+00  1.02595E+00 -2.32497E-02
    9122.450    128.766   5.960  1.00488E+00  1.02517E+00 -2.02871E-02
    9124.273    130.589   6.000  1.00658E+00  1.02435E+00 -1.77691E-02
