# # comment:                                                     FEFF 9.9.1  
# # Source:
# # Structure
# # Reduced
# # space
# # abc:
# # angles:104.608006
# # sites:
# # POT  SCF 100  7.0000   0, screened core-hole, AFOLP (folp(0)= 1.150)
# # Abs   Z=29 Rmt= 1.264 Rnm= 1.326 K  shell
# # Pot 1 Z=29 Rmt= 1.261 Rnm= 1.327
# # Pot 2 Z=15 Rmt= 0.939 Rnm= 1.156
# # Pot 3 Z= 8 Rmt= 0.880 Rnm= 1.044
# # Gam_ch=1.729E+00 H-L exch Vi= 0.000E+00 Vr= 0.000E+00
# # Mu=-6.157E+00eV kf=2.513E+00 Vint=-1.726E+01eV Rs_int= 1.443
# FMS rfms= 9.0000
# # PATH  Rmax=-1.000,  Keep_limit= 0.00, Heap_limit 0.00  Pwcrit= 2.50%
#  S02=0.950  Temp=   0.00  Debye_temp=   0.00  Global_sig2= 0.00000
#  Energy zero shift, vr, vi    0.00000E+00   0.00000E+00
#  Curved wave amplitude ratio filter   4.000%
#     file         sig2 tot  cw amp ratio   deg  nlegs   reff  inp sig2
#     0/   0 paths used
#  xsedge+ 50, used to normalize mu           2.4816E-04
#  -----------------------------------------------------------------------
#  omega    e    k    mu    mu0     chi     @#
    8983.328     -9.967  -1.000  4.11324E-02  5.44985E-02 -1.33660E-02
    8983.626     -9.668  -0.960  4.33585E-02  5.85205E-02 -1.51620E-02
    8983.913     -9.382  -0.920  4.57573E-02  6.29978E-02 -1.72405E-02
    8984.187     -9.107  -0.880  4.83470E-02  6.79981E-02 -1.96511E-02
    8984.449     -8.845  -0.840  5.11481E-02  7.36007E-02 -2.24526E-02
    8984.699     -8.595  -0.800  5.41832E-02  7.98974E-02 -2.57142E-02
    8984.937     -8.358  -0.760  5.74772E-02  8.69938E-02 -2.95166E-02
    8985.163     -8.132  -0.720  6.10565E-02  9.50094E-02 -3.39530E-02
    8985.376     -7.919  -0.680  6.49487E-02  1.04076E-01 -3.91273E-02
    8985.577     -7.718  -0.640  6.91808E-02  1.14333E-01 -4.51520E-02
    8985.766     -7.529  -0.600  7.37769E-02  1.25917E-01 -5.21401E-02
    8985.943     -7.352  -0.560  7.87541E-02  1.38946E-01 -6.01920E-02
    8986.107     -7.187  -0.520  8.41165E-02  1.53490E-01 -6.93738E-02
    8986.260     -7.035  -0.480  8.98481E-02  1.69536E-01 -7.96878E-02
    8986.400     -6.895  -0.440  9.59037E-02  1.86941E-01 -9.10376E-02
    8986.528     -6.767  -0.400  1.02202E-01  2.05401E-01 -1.03199E-01
    8986.644     -6.651  -0.360  1.08621E-01  2.24433E-01 -1.15812E-01
    8986.748     -6.547  -0.320  1.15005E-01  2.43413E-01 -1.28409E-01
    8986.839     -6.456  -0.280  1.21173E-01  2.61647E-01 -1.40474E-01
    8986.918     -6.376  -0.240  1.26941E-01  2.78471E-01 -1.51529E-01
    8986.985     -6.309  -0.200  1.32134E-01  2.93328E-01 -1.61194E-01
    8987.040     -6.255  -0.160  1.36599E-01  3.05816E-01 -1.69217E-01
    8987.083     -6.212  -0.120  1.40212E-01  3.15680E-01 -1.75469E-01
    8987.113     -6.181  -0.080  1.42875E-01  3.22782E-01 -1.79907E-01
    8987.138     -6.157   0.000  1.45088E-01  3.28485E-01 -1.83397E-01
    8987.193     -6.102   0.120  1.50110E-01  3.41335E-01 -1.91225E-01
    8987.235     -6.059   0.160  1.54045E-01  3.51303E-01 -1.97258E-01
    8987.290     -6.005   0.200  1.59248E-01  3.64023E-01 -2.04775E-01
    8987.357     -5.938   0.240  1.65769E-01  3.79284E-01 -2.13516E-01
    8987.436     -5.858   0.280  1.73729E-01  3.96758E-01 -2.23028E-01
    8987.528     -5.767   0.320  1.83313E-01  4.15968E-01 -2.32655E-01
    8987.631     -5.663   0.360  1.94673E-01  4.36329E-01 -2.41656E-01
    8987.747     -5.547   0.400  2.08080E-01  4.57219E-01 -2.49140E-01
    8987.875     -5.419   0.440  2.23805E-01  4.78050E-01 -2.54245E-01
    8988.016     -5.279   0.480  2.42113E-01  4.98386E-01 -2.56273E-01
    8988.168     -5.127   0.520  2.63115E-01  5.17930E-01 -2.54814E-01
    8988.333     -4.962   0.560  2.86516E-01  5.36553E-01 -2.50038E-01
    8988.509     -4.785   0.600  3.11261E-01  5.54248E-01 -2.42986E-01
    8988.698     -4.596   0.640  3.35171E-01  5.71056E-01 -2.35885E-01
    8988.899     -4.395   0.680  3.55154E-01  5.87066E-01 -2.31912E-01
    8989.113     -4.182   0.720  3.68389E-01  6.02420E-01 -2.34031E-01
    8989.338     -3.956   0.760  3.74271E-01  6.17178E-01 -2.42907E-01
    8989.576     -3.719   0.800  3.75530E-01  6.31491E-01 -2.55960E-01
    8989.826     -3.469   0.840  3.76121E-01  6.45418E-01 -2.69297E-01
    8990.088     -3.207   0.880  3.78287E-01  6.59022E-01 -2.80735E-01
    8990.362     -2.932   0.920  3.81918E-01  6.72374E-01 -2.90456E-01
    8990.649     -2.646   0.960  3.86638E-01  6.85510E-01 -2.98872E-01
    8990.948     -2.347   1.000  3.94006E-01  6.98476E-01 -3.04470E-01
    8991.259     -2.036   1.040  4.06122E-01  7.11246E-01 -3.05124E-01
    8991.582     -1.713   1.080  4.22755E-01  7.23889E-01 -3.01134E-01
    8991.917     -1.378   1.120  4.41188E-01  7.36367E-01 -2.95179E-01
    8992.264     -1.030   1.160  4.60102E-01  7.48693E-01 -2.88591E-01
    8992.624     -0.671   1.200  4.81303E-01  7.60878E-01 -2.79575E-01
    8992.996     -0.299   1.240  5.07851E-01  7.72908E-01 -2.65057E-01
    8993.380      0.085   1.280  5.42602E-01  7.84748E-01 -2.42145E-01
    8993.776      0.482   1.320  5.85848E-01  7.96397E-01 -2.10549E-01
    8994.185      0.890   1.360  6.34069E-01  8.07856E-01 -1.73786E-01
    8994.605      1.311   1.400  6.87902E-01  8.19081E-01 -1.31179E-01
    8995.038      1.743   1.440  7.59301E-01  8.30069E-01 -7.07675E-02
    8995.483      2.188   1.480  8.61750E-01  8.40795E-01  2.09543E-02
    8995.940      2.646   1.520  9.99932E-01  8.51256E-01  1.48676E-01
    8996.410      3.115   1.560  1.16924E+00  8.61426E-01  3.07817E-01
    8996.891      3.597   1.600  1.35195E+00  8.71301E-01  4.80649E-01
    8997.385      4.090   1.640  1.51312E+00  8.80856E-01  6.32262E-01
    8997.891      4.596   1.680  1.63143E+00  8.90086E-01  7.41343E-01
    8998.409      5.114   1.720  1.71147E+00  8.98945E-01  8.12527E-01
    8998.939      5.645   1.760  1.75121E+00  9.07473E-01  8.43733E-01
    8999.482      6.187   1.800  1.73179E+00  9.15647E-01  8.16144E-01
    9000.037      6.742   1.840  1.64082E+00  9.23423E-01  7.17400E-01
    9000.604      7.309   1.880  1.50908E+00  9.30859E-01  5.78225E-01
    9001.183      7.888   1.920  1.37611E+00  9.37894E-01  4.38220E-01
    9001.774      8.479   1.960  1.25878E+00  9.44549E-01  3.14227E-01
    9002.378      9.083   2.000  1.15852E+00  9.50824E-01  2.07698E-01
    9002.993      9.699   2.040  1.07405E+00  9.56722E-01  1.17332E-01
    9003.621     10.327   2.080  1.00903E+00  9.62244E-01  4.67830E-02
    9004.261     10.967   2.120  9.72150E-01  9.67413E-01  4.73720E-03
    9004.914     11.619   2.160  9.67273E-01  9.72190E-01 -4.91708E-03
    9005.578     12.283   2.200  9.84800E-01  9.76621E-01  8.17957E-03
    9006.255     12.960   2.240  1.00921E+00  9.80689E-01  2.85174E-02
    9006.944     13.649   2.280  1.03188E+00  9.84419E-01  4.74569E-02
    9007.645     14.350   2.320  1.04965E+00  9.87797E-01  6.18573E-02
    9008.358     15.063   2.360  1.05859E+00  9.90868E-01  6.77256E-02
    9009.083     15.789   2.400  1.05780E+00  9.93640E-01  6.41557E-02
    9009.821     16.526   2.440  1.05000E+00  9.96098E-01  5.39023E-02
    9010.571     17.276   2.480  1.03355E+00  9.98269E-01  3.52777E-02
    9011.333     18.038   2.520  1.00753E+00  1.00018E+00  7.34927E-03
    9012.107     18.812   2.560  9.78147E-01  1.00181E+00 -2.36648E-02
    9012.893     19.599   2.600  9.50680E-01  1.00320E+00 -5.25188E-02
    9013.692     20.397   2.640  9.25068E-01  1.00437E+00 -7.92979E-02
    9014.503     21.208   2.680  9.02060E-01  1.00530E+00 -1.03240E-01
    9015.325     22.031   2.720  8.83909E-01  1.00603E+00 -1.22119E-01
    9016.161     22.866   2.760  8.69421E-01  1.00658E+00 -1.37157E-01
    9017.008     23.713   2.800  8.57974E-01  1.00694E+00 -1.48962E-01
    9017.867     24.573   2.840  8.48818E-01  1.00713E+00 -1.58310E-01
    9018.739     25.445   2.880  8.40529E-01  1.00718E+00 -1.66653E-01
    9019.623     26.328   2.920  8.39623E-01  1.00708E+00 -1.67461E-01
    9020.519     27.225   2.960  8.41747E-01  1.00686E+00 -1.65112E-01
    9021.428     28.133   3.000  8.46712E-01  1.00652E+00 -1.59804E-01
    9022.348     29.053   3.040  8.54252E-01  1.00608E+00 -1.51828E-01
    9023.281     29.986   3.080  8.64448E-01  1.00556E+00 -1.41109E-01
    9024.226     30.931   3.120  8.77884E-01  1.00495E+00 -1.27067E-01
    9025.183     31.888   3.160  8.94107E-01  1.00427E+00 -1.10161E-01
    9026.152     32.857   3.200  9.11209E-01  1.00351E+00 -9.23034E-02
    9027.133     33.839   3.240  9.27066E-01  1.00273E+00 -7.56655E-02
    9028.127     34.832   3.280  9.40258E-01  1.00189E+00 -6.16290E-02
    9029.133     35.838   3.320  9.50680E-01  1.00103E+00 -5.03457E-02
    9030.151     36.856   3.360  9.59299E-01  1.00013E+00 -4.08323E-02
    9031.181     37.886   3.400  9.67293E-01  9.99229E-01 -3.19356E-02
    9032.224     38.929   3.440  9.75473E-01  9.98319E-01 -2.28458E-02
    9033.278     39.983   3.480  9.84055E-01  9.97385E-01 -1.33303E-02
    9034.345     41.050   3.520  9.93023E-01  9.96474E-01 -3.45060E-03
    9035.424     42.129   3.560  1.00212E+00  9.95565E-01  6.55092E-03
    9036.515     43.220   3.600  1.01103E+00  9.94661E-01  1.63671E-02
    9037.618     44.324   3.640  1.01972E+00  9.93789E-01  2.59360E-02
    9038.734     45.439   3.680  1.02818E+00  9.92947E-01  3.52297E-02
    9039.862     46.567   3.720  1.03633E+00  9.92119E-01  4.42138E-02
    9041.002     47.707   3.760  1.04422E+00  9.91327E-01  5.28940E-02
    9042.154     48.859   3.800  1.05180E+00  9.90593E-01  6.12061E-02
    9043.318     50.024   3.840  1.05869E+00  9.89877E-01  6.88091E-02
    9044.495     51.200   3.880  1.06452E+00  9.89198E-01  7.53197E-02
    9045.683     52.389   3.920  1.06899E+00  9.88560E-01  8.04301E-02
    9046.884     53.590   3.960  1.07194E+00  9.87964E-01  8.39797E-02
    9048.097     54.803   4.000  1.07341E+00  9.87432E-01  8.59792E-02
    9049.323     56.028   4.040  1.07352E+00  9.86943E-01  8.65747E-02
    9050.560     57.266   4.080  1.07221E+00  9.86497E-01  8.57096E-02
    9051.810     58.515   4.120  1.06912E+00  9.86094E-01  8.30296E-02
    9053.072     59.777   4.160  1.06382E+00  9.85734E-01  7.80828E-02
    9054.346     61.051   4.200  1.05589E+00  9.85440E-01  7.04514E-02
    9055.632     62.337   4.240  1.04526E+00  9.85190E-01  6.00653E-02
    9056.931     63.636   4.280  1.03240E+00  9.84985E-01  4.74127E-02
    9058.241     64.946   4.320  1.01830E+00  9.84842E-01  3.34563E-02
    9059.564     66.269   4.360  1.00403E+00  9.84722E-01  1.93086E-02
    9060.899     67.604   4.400  9.90658E-01  9.84665E-01  5.99268E-03
    9062.246     68.952   4.440  9.78813E-01  9.84649E-01 -5.83633E-03
    9063.606     70.311   4.480  9.68782E-01  9.84675E-01 -1.58925E-02
    9064.977     71.683   4.520  9.60664E-01  9.84741E-01 -2.40762E-02
    9066.361     73.066   4.560  9.54433E-01  9.84844E-01 -3.04115E-02
    9067.757     74.462   4.600  9.49932E-01  9.84984E-01 -3.50516E-02
    9069.165     75.870   4.640  9.46876E-01  9.85140E-01 -3.82640E-02
    9070.585     77.291   4.680  9.44973E-01  9.85352E-01 -4.03798E-02
    9072.018     78.723   4.720  9.43952E-01  9.85578E-01 -4.16260E-02
    9073.463     80.168   4.760  9.43860E-01  9.85837E-01 -4.19767E-02
    9074.920     81.625   4.800  9.44966E-01  9.86106E-01 -4.11399E-02
    9076.389     83.094   4.840  9.47655E-01  9.86406E-01 -3.87503E-02
    9077.870     84.575   4.880  9.52153E-01  9.86737E-01 -3.45838E-02
    9079.364     86.069   4.920  9.58275E-01  9.87076E-01 -2.88009E-02
    9080.869     87.575   4.960  9.65433E-01  9.87420E-01 -2.19861E-02
    9082.387     89.093   5.000  9.72820E-01  9.87787E-01 -1.49665E-02
    9083.917     90.623   5.040  9.79539E-01  9.88135E-01 -8.59593E-03
    9085.460     92.165   5.080  9.84980E-01  9.88506E-01 -3.52662E-03
    9087.014     93.719   5.120  9.88782E-01  9.88877E-01 -9.58390E-05
    9088.581     95.286   5.160  9.90948E-01  9.89224E-01  1.72386E-03
    9090.160     96.865   5.200  9.91830E-01  9.89589E-01  2.24059E-03
    9091.751     98.456   5.240  9.91760E-01  9.89931E-01  1.82930E-03
    9093.354    100.059   5.280  9.91082E-01  9.90289E-01  7.93120E-04
    9094.969    101.675   5.320  9.89938E-01  9.90597E-01 -6.58504E-04
    9096.597    103.302   5.360  9.88577E-01  9.90918E-01 -2.34071E-03
    9098.237    104.942   5.400  9.87134E-01  9.91208E-01 -4.07401E-03
    9099.889    106.594   5.440  9.85717E-01  9.91466E-01 -5.74933E-03
    9101.553    108.258   5.480  9.84406E-01  9.91713E-01 -7.30704E-03
    9103.229    109.935   5.520  9.83230E-01  9.91927E-01 -8.69687E-03
    9104.918    111.623   5.560  9.82225E-01  9.92130E-01 -9.90522E-03
    9106.619    113.324   5.600  9.81338E-01  9.92297E-01 -1.09588E-02
    9108.332    115.037   5.640  9.80610E-01  9.92426E-01 -1.18155E-02
    9110.057    116.762   5.680  9.80273E-01  9.92517E-01 -1.22435E-02
    9111.794    118.500   5.720  9.80683E-01  9.92572E-01 -1.18888E-02
    9113.544    120.249   5.760  9.82104E-01  9.92613E-01 -1.05091E-02
    9115.306    122.011   5.800  9.84452E-01  9.92619E-01 -8.16653E-03
    9117.079    123.785   5.840  9.87352E-01  9.92584E-01 -5.23237E-03
    9118.866    125.571   5.880  9.90288E-01  9.92487E-01 -2.19888E-03
    9120.664    127.369   5.920  9.93006E-01  9.92377E-01  6.28778E-04
    9122.474    129.180   5.960  9.95608E-01  9.92256E-01  3.35147E-03
    9124.297    131.002   6.000  9.98576E-01  9.92049E-01  6.52673E-03
