# # comment:                                                     FEFF 9.9.1  
# # Source:
# # Structure
# # Reduced
# # space
# # abc:
# # angles:
# # sites:
# # POT  SCF 100  7.0000   0, screened core-hole, AFOLP (folp(0)= 1.150)
# # Abs   Z=29 Rmt= 1.237 Rnm= 1.303 K  shell
# # Pot 1 Z= 3 Rmt= 1.217 Rnm= 1.283
# # Pot 2 Z=25 Rmt= 1.261 Rnm= 1.401
# # Pot 3 Z=29 Rmt= 1.234 Rnm= 1.300
# # Pot 4 Z= 8 Rmt= 1.034 Rnm= 1.109
# # Gam_ch=1.729E+00 H-L exch Vi= 0.000E+00 Vr= 0.000E+00
# # Mu=-1.075E+01eV kf=2.071E+00 Vint=-1.815E+01eV Rs_int= 1.751
# FMS rfms= 9.0000
# # PATH  Rmax=-1.000,  Keep_limit= 0.00, Heap_limit 0.00  Pwcrit= 2.50%
#  S02=0.950  Temp=   0.00  Debye_temp=   0.00  Global_sig2= 0.00000
#  Energy zero shift, vr, vi    0.00000E+00   0.00000E+00
#  Curved wave amplitude ratio filter   4.000%
#     file         sig2 tot  cw amp ratio   deg  nlegs   reff  inp sig2
#     0/   0 paths used
#  xsedge+ 50, used to normalize mu           2.4562E-04
#  -----------------------------------------------------------------------
#  omega    e    k    mu    mu0     chi     @#
    8985.325    -14.565  -1.000  3.27913E-02  5.05722E-02 -1.77810E-02
    8985.624    -14.266  -0.960  3.42205E-02  5.41252E-02 -1.99046E-02
    8985.910    -13.980  -0.920  3.57305E-02  5.80618E-02 -2.23312E-02
    8986.185    -13.705  -0.880  3.73284E-02  6.24374E-02 -2.51090E-02
    8986.447    -13.443  -0.840  3.90222E-02  6.73163E-02 -2.82941E-02
    8986.697    -13.193  -0.800  4.08214E-02  7.27729E-02 -3.19515E-02
    8986.934    -12.955  -0.760  4.27367E-02  7.88923E-02 -3.61557E-02
    8987.160    -12.730  -0.720  4.47802E-02  8.57708E-02 -4.09905E-02
    8987.373    -12.516  -0.680  4.69653E-02  9.35137E-02 -4.65485E-02
    8987.574    -12.315  -0.640  4.93056E-02  1.02232E-01 -5.29268E-02
    8987.763    -12.126  -0.600  5.18140E-02  1.12036E-01 -6.02216E-02
    8987.940    -11.950  -0.560  5.45003E-02  1.23016E-01 -6.85155E-02
    8988.105    -11.785  -0.520  5.73670E-02  1.35227E-01 -7.78599E-02
    8988.257    -11.633  -0.480  6.04046E-02  1.48655E-01 -8.82502E-02
    8988.397    -11.492  -0.440  6.35854E-02  1.63182E-01 -9.95969E-02
    8988.525    -11.364  -0.400  6.68585E-02  1.78560E-01 -1.11701E-01
    8988.641    -11.249  -0.360  7.01489E-02  1.94395E-01 -1.24247E-01
    8988.745    -11.145  -0.320  7.33624E-02  2.10181E-01 -1.36819E-01
    8988.836    -11.053  -0.280  7.63977E-02  2.25352E-01 -1.48954E-01
    8988.916    -10.974  -0.240  7.91606E-02  2.39362E-01 -1.60201E-01
    8988.983    -10.907  -0.200  8.15761E-02  2.51753E-01 -1.70177E-01
    8989.037    -10.852  -0.160  8.35931E-02  2.62185E-01 -1.78592E-01
    8989.080    -10.810  -0.120  8.51823E-02  2.70440E-01 -1.85258E-01
    8989.111    -10.779  -0.080  8.63290E-02  2.76392E-01 -1.90063E-01
    8989.135    -10.755   0.000  8.72611E-02  2.81177E-01 -1.93916E-01
    8989.190    -10.700   0.120  8.93299E-02  2.91990E-01 -2.02660E-01
    8989.233    -10.657   0.160  9.08853E-02  3.00402E-01 -2.09517E-01
    8989.287    -10.602   0.200  9.28330E-02  3.11154E-01 -2.18321E-01
    8989.354    -10.535   0.240  9.51575E-02  3.24116E-01 -2.28959E-01
    8989.434    -10.456   0.280  9.77790E-02  3.39056E-01 -2.41277E-01
    8989.525    -10.365   0.320  1.00688E-01  3.55646E-01 -2.54959E-01
    8989.629    -10.261   0.360  1.03765E-01  3.73392E-01 -2.69627E-01
    8989.745    -10.145   0.400  1.07091E-01  3.91888E-01 -2.84797E-01
    8989.873    -10.017   0.440  1.10655E-01  4.10647E-01 -2.99992E-01
    8990.013     -9.877   0.480  1.14559E-01  4.29362E-01 -3.14803E-01
    8990.165     -9.725   0.520  1.18937E-01  4.47781E-01 -3.28844E-01
    8990.330     -9.560   0.560  1.23924E-01  4.65848E-01 -3.41924E-01
    8990.507     -9.383   0.600  1.29592E-01  4.83491E-01 -3.53899E-01
    8990.696     -9.194   0.640  1.36047E-01  5.00777E-01 -3.64731E-01
    8990.897     -8.993   0.680  1.43381E-01  5.17761E-01 -3.74380E-01
    8991.110     -8.780   0.720  1.51650E-01  5.34488E-01 -3.82838E-01
    8991.336     -8.554   0.760  1.60981E-01  5.51062E-01 -3.90081E-01
    8991.573     -8.316   0.800  1.71588E-01  5.67496E-01 -3.95908E-01
    8991.823     -8.066   0.840  1.84311E-01  5.83875E-01 -3.99564E-01
    8992.085     -7.804   0.880  2.00716E-01  6.00189E-01 -3.99472E-01
    8992.360     -7.530   0.920  2.22692E-01  6.16476E-01 -3.93785E-01
    8992.646     -7.243   0.960  2.51473E-01  6.32747E-01 -3.81274E-01
    8992.945     -6.945   1.000  2.85932E-01  6.49000E-01 -3.63067E-01
    8993.256     -6.634   1.040  3.21239E-01  6.65207E-01 -3.43968E-01
    8993.579     -6.311   1.080  3.52372E-01  6.81333E-01 -3.28962E-01
    8993.914     -5.975   1.120  3.82861E-01  6.97378E-01 -3.14517E-01
    8994.262     -5.628   1.160  4.26047E-01  7.13316E-01 -2.87269E-01
    8994.621     -5.268   1.200  4.94791E-01  7.29079E-01 -2.34288E-01
    8994.993     -4.897   1.240  5.89876E-01  7.44658E-01 -1.54782E-01
    8995.377     -4.512   1.280  6.92136E-01  7.60019E-01 -6.78831E-02
    8995.774     -4.116   1.320  7.66771E-01  7.75107E-01 -8.33588E-03
    8996.182     -3.708   1.360  8.00987E-01  7.89890E-01  1.10971E-02
    8996.603     -3.287   1.400  8.15698E-01  8.04331E-01  1.13672E-02
    8997.035     -2.854   1.440  8.18074E-01  8.18375E-01 -3.00658E-04
    8997.480     -2.409   1.480  8.08465E-01  8.32030E-01 -2.35653E-02
    8997.938     -1.952   1.520  7.96494E-01  8.45243E-01 -4.87484E-02
    8998.407     -1.483   1.560  7.89740E-01  8.57981E-01 -6.82406E-02
    8998.889     -1.001   1.600  7.94694E-01  8.70234E-01 -7.55402E-02
    8999.382     -0.507   1.640  8.16909E-01  8.81954E-01 -6.50453E-02
    8999.888     -0.001   1.680  8.57023E-01  8.93172E-01 -3.61490E-02
    9000.406      0.517   1.720  9.13626E-01  9.03822E-01  9.80436E-03
    9000.937      1.047   1.760  9.90629E-01  9.13922E-01  7.67066E-02
    9001.479      1.590   1.800  1.08214E+00  9.23468E-01  1.58675E-01
    9002.034      2.144   1.840  1.17834E+00  9.32438E-01  2.45904E-01
    9002.601      2.711   1.880  1.27847E+00  9.40856E-01  3.37619E-01
    9003.180      3.290   1.920  1.38510E+00  9.48702E-01  4.36395E-01
    9003.771      3.882   1.960  1.49313E+00  9.56001E-01  5.37134E-01
    9004.375      4.485   2.000  1.58290E+00  9.62757E-01  6.20141E-01
    9004.991      5.101   2.040  1.62823E+00  9.68977E-01  6.59253E-01
    9005.619      5.729   2.080  1.61281E+00  9.74669E-01  6.38137E-01
    9006.259      6.369   2.120  1.53404E+00  9.79881E-01  5.54163E-01
    9006.911      7.021   2.160  1.40740E+00  9.84580E-01  4.22817E-01
    9007.575      7.686   2.200  1.26279E+00  9.88816E-01  2.73977E-01
    9008.252      8.362   2.240  1.12883E+00  9.92602E-01  1.36225E-01
    9008.941      9.051   2.280  1.02173E+00  9.95967E-01  2.57656E-02
    9009.642      9.752   2.320  9.43157E-01  9.98922E-01 -5.57659E-02
    9010.355     10.465   2.360  8.90813E-01  1.00150E+00 -1.10686E-01
    9011.081     11.191   2.400  8.60913E-01  1.00369E+00 -1.42775E-01
    9011.818     11.928   2.440  8.48765E-01  1.00556E+00 -1.56798E-01
    9012.568     12.678   2.480  8.52598E-01  1.00711E+00 -1.54516E-01
    9013.330     13.440   2.520  8.66224E-01  1.00837E+00 -1.42148E-01
    9014.104     14.214   2.560  8.80287E-01  1.00935E+00 -1.29062E-01
    9014.890     15.001   2.600  8.95569E-01  1.01007E+00 -1.14506E-01
    9015.689     15.799   2.640  9.12302E-01  1.01056E+00 -9.82573E-02
    9016.500     16.610   2.680  9.29696E-01  1.01084E+00 -8.11399E-02
    9017.323     17.433   2.720  9.46300E-01  1.01094E+00 -6.46354E-02
    9018.158     18.268   2.760  9.60823E-01  1.01087E+00 -5.00424E-02
    9019.005     19.116   2.800  9.72378E-01  1.01061E+00 -3.82368E-02
    9019.865     19.975   2.840  9.80999E-01  1.01025E+00 -2.92548E-02
    9020.737     20.847   2.880  9.86984E-01  1.00977E+00 -2.27865E-02
    9021.620     21.731   2.920  9.90206E-01  1.00917E+00 -1.89670E-02
    9022.517     22.627   2.960  9.90355E-01  1.00849E+00 -1.81336E-02
    9023.425     23.535   3.000  9.86953E-01  1.00772E+00 -2.07694E-02
    9024.345     24.456   3.040  9.79944E-01  1.00690E+00 -2.69600E-02
    9025.278     25.388   3.080  9.69884E-01  1.00602E+00 -3.61362E-02
    9026.223     26.333   3.120  9.57759E-01  1.00512E+00 -4.73582E-02
    9027.180     27.290   3.160  9.44676E-01  1.00418E+00 -5.95022E-02
    9028.149     28.260   3.200  9.31886E-01  1.00323E+00 -7.13468E-02
    9029.131     29.241   3.240  9.20442E-01  1.00228E+00 -8.18414E-02
    9030.124     30.235   3.280  9.11178E-01  1.00133E+00 -9.01548E-02
    9031.130     31.240   3.320  9.04957E-01  1.00039E+00 -9.54287E-02
    9032.148     32.258   3.360  9.02642E-01  9.99446E-01 -9.68043E-02
    9033.178     33.289   3.400  9.04430E-01  9.98559E-01 -9.41292E-02
    9034.221     34.331   3.440  9.09936E-01  9.97686E-01 -8.77500E-02
    9035.275     35.386   3.480  9.18489E-01  9.96848E-01 -7.83592E-02
    9036.342     36.452   3.520  9.29200E-01  9.96029E-01 -6.68284E-02
    9037.421     37.531   3.560  9.41223E-01  9.95271E-01 -5.40481E-02
    9038.512     38.623   3.600  9.53766E-01  9.94579E-01 -4.08131E-02
    9039.616     39.726   3.640  9.65962E-01  9.93912E-01 -2.79500E-02
    9040.731     40.842   3.680  9.77184E-01  9.93311E-01 -1.61263E-02
    9041.859     41.969   3.720  9.87134E-01  9.92756E-01 -5.62147E-03
    9042.999     43.109   3.760  9.96012E-01  9.92271E-01  3.74083E-03
    9044.151     44.261   3.800  1.00423E+00  9.91835E-01  1.23935E-02
    9045.316     45.426   3.840  1.01233E+00  9.91469E-01  2.08606E-02
    9046.492     46.602   3.880  1.02066E+00  9.91153E-01  2.95077E-02
    9047.681     47.791   3.920  1.02931E+00  9.90908E-01  3.84013E-02
    9048.882     48.992   3.960  1.03804E+00  9.90711E-01  4.73276E-02
    9050.095     50.205   4.000  1.04646E+00  9.90584E-01  5.58753E-02
    9051.320     51.430   4.040  1.05403E+00  9.90503E-01  6.35228E-02
    9052.558     52.668   4.080  1.06013E+00  9.90471E-01  6.96598E-02
    9053.807     53.917   4.120  1.06428E+00  9.90509E-01  7.37755E-02
    9055.069     55.179   4.160  1.06619E+00  9.90615E-01  7.55780E-02
    9056.343     56.453   4.200  1.06573E+00  9.90744E-01  7.49871E-02
    9057.629     57.740   4.240  1.06306E+00  9.90938E-01  7.21221E-02
    9058.928     59.038   4.280  1.05841E+00  9.91176E-01  6.72377E-02
    9060.238     60.349   4.320  1.05203E+00  9.91458E-01  6.05747E-02
    9061.561     61.672   4.360  1.04416E+00  9.91801E-01  5.23621E-02
    9062.896     63.007   4.400  1.03520E+00  9.92163E-01  4.30351E-02
    9064.244     64.354   4.440  1.02595E+00  9.92561E-01  3.33894E-02
    9065.603     65.713   4.480  1.01736E+00  9.92996E-01  2.43652E-02
    9066.975     67.085   4.520  1.01018E+00  9.93466E-01  1.67160E-02
    9068.358     68.469   4.560  1.00475E+00  9.93946E-01  1.08077E-02
    9069.754     69.865   4.600  1.00104E+00  9.94458E-01  6.58367E-03
    9071.162     71.273   4.640  9.98687E-01  9.94978E-01  3.70928E-03
    9072.583     72.693   4.680  9.97296E-01  9.95526E-01  1.76963E-03
    9074.015     74.126   4.720  9.96441E-01  9.96079E-01  3.61498E-04
    9075.460     75.570   4.760  9.95810E-01  9.96637E-01 -8.27153E-04
    9076.917     77.027   4.800  9.95189E-01  9.97218E-01 -2.02892E-03
    9078.386     78.496   4.840  9.94444E-01  9.97778E-01 -3.33354E-03
    9079.867     79.978   4.880  9.93843E-01  9.98357E-01 -4.51470E-03
    9081.361     81.471   4.920  9.93827E-01  9.98912E-01 -5.08517E-03
    9082.867     82.977   4.960  9.95004E-01  9.99462E-01 -4.45709E-03
    9084.385     84.495   5.000  9.97709E-01  1.00001E+00 -2.29691E-03
    9085.915     86.025   5.040  1.00161E+00  1.00054E+00  1.07154E-03
    9087.457     87.567   5.080  1.00555E+00  1.00105E+00  4.50156E-03
    9089.011     89.122   5.120  1.00789E+00  1.00152E+00  6.37202E-03
    9090.578     90.688   5.160  1.00731E+00  1.00198E+00  5.32708E-03
    9092.157     92.267   5.200  1.00333E+00  1.00240E+00  9.27452E-04
    9093.748     93.858   5.240  9.96649E-01  1.00281E+00 -6.16590E-03
    9095.351     95.462   5.280  9.88663E-01  1.00317E+00 -1.45027E-02
    9096.967     97.077   5.320  9.80951E-01  1.00350E+00 -2.25501E-02
    9098.594     98.705   5.360  9.74463E-01  1.00380E+00 -2.93352E-02
    9100.234    100.344   5.400  9.69139E-01  1.00406E+00 -3.49178E-02
    9101.886    101.996   5.440  9.64159E-01  1.00430E+00 -4.01402E-02
    9103.550    103.661   5.480  9.58557E-01  1.00448E+00 -4.59205E-02
    9105.227    105.337   5.520  9.52176E-01  1.00461E+00 -5.24357E-02
    9106.915    107.026   5.560  9.45834E-01  1.00470E+00 -5.88706E-02
    9108.616    108.726   5.600  9.41095E-01  1.00476E+00 -6.36605E-02
    9110.329    110.439   5.640  9.39478E-01  1.00477E+00 -6.52875E-02
    9112.054    112.164   5.680  9.41699E-01  1.00473E+00 -6.30340E-02
    9113.792    113.902   5.720  9.47471E-01  1.00466E+00 -5.71867E-02
    9115.541    115.651   5.760  9.55833E-01  1.00452E+00 -4.86849E-02
    9117.303    117.413   5.800  9.65696E-01  1.00436E+00 -3.86659E-02
    9119.077    119.187   5.840  9.75923E-01  1.00417E+00 -2.82431E-02
    9120.863    120.973   5.880  9.85411E-01  1.00391E+00 -1.84957E-02
    9122.661    122.771   5.920  9.93238E-01  1.00363E+00 -1.03963E-02
    9124.472    124.582   5.960  9.98802E-01  1.00330E+00 -4.49591E-03
    9126.294    126.405   6.000  1.00263E+00  1.00292E+00 -2.92769E-04
