# # comment:                                                     FEFF 9.9.1  
# # Source:
# # Structure
# # Reduced
# # space
# # abc:
# # angles:
# # sites:
# # POT  SCF 100  7.0000   0, screened core-hole, AFOLP (folp(0)= 1.150)
# # Abs   Z=29 Rmt= 1.245 Rnm= 1.310 K  shell
# # Pot 1 Z=20 Rmt= 1.478 Rnm= 1.637
# # Pot 2 Z=29 Rmt= 1.220 Rnm= 1.286
# # Pot 3 Z= 8 Rmt= 1.051 Rnm= 1.125
# # Gam_ch=1.729E+00 H-L exch Vi= 0.000E+00 Vr= 0.000E+00
# # Mu=-1.015E+01eV kf=2.044E+00 Vint=-1.672E+01eV Rs_int= 1.774
# FMS rfms= 9.0000
# # PATH  Rmax=-1.000,  Keep_limit= 0.00, Heap_limit 0.00  Pwcrit= 2.50%
#  S02=0.950  Temp=   0.00  Debye_temp=   0.00  Global_sig2= 0.00000
#  Energy zero shift, vr, vi    0.00000E+00   0.00000E+00
#  Curved wave amplitude ratio filter   4.000%
#     file         sig2 tot  cw amp ratio   deg  nlegs   reff  inp sig2
#     0/   0 paths used
#  xsedge+ 50, used to normalize mu           2.4595E-04
#  -----------------------------------------------------------------------
#  omega    e    k    mu    mu0     chi     @#
    8984.422    -13.958  -1.000  2.75046E-02  4.94688E-02 -2.19642E-02
    8984.720    -13.659  -0.960  2.84982E-02  5.28869E-02 -2.43887E-02
    8985.007    -13.373  -0.920  2.95328E-02  5.66677E-02 -2.71349E-02
    8985.281    -13.098  -0.880  3.06111E-02  6.08629E-02 -3.02518E-02
    8985.543    -12.836  -0.840  3.17365E-02  6.55325E-02 -3.37960E-02
    8985.793    -12.586  -0.800  3.29125E-02  7.07455E-02 -3.78330E-02
    8986.031    -12.348  -0.760  3.41435E-02  7.65813E-02 -4.24378E-02
    8986.256    -12.123  -0.720  3.54344E-02  8.31290E-02 -4.76946E-02
    8986.470    -11.910  -0.680  3.67904E-02  9.04863E-02 -5.36959E-02
    8986.671    -11.708  -0.640  3.82169E-02  9.87562E-02 -6.05392E-02
    8986.860    -11.519  -0.600  3.97189E-02  1.08039E-01 -6.83201E-02
    8987.037    -11.343  -0.560  4.12995E-02  1.18420E-01 -7.71204E-02
    8987.201    -11.178  -0.520  4.29585E-02  1.29948E-01 -8.69895E-02
    8987.354    -11.026  -0.480  4.46897E-02  1.42609E-01 -9.79191E-02
    8987.494    -10.885  -0.440  4.64782E-02  1.56292E-01 -1.09814E-01
    8987.622    -10.757  -0.400  4.82982E-02  1.70765E-01 -1.22467E-01
    8987.738    -10.642  -0.360  5.01126E-02  1.85663E-01 -1.35550E-01
    8987.841    -10.538  -0.320  5.18755E-02  2.00511E-01 -1.48636E-01
    8987.933    -10.447  -0.280  5.35378E-02  2.14783E-01 -1.61245E-01
    8988.012    -10.367  -0.240  5.50544E-02  2.27968E-01 -1.72913E-01
    8988.079    -10.300  -0.200  5.63885E-02  2.39635E-01 -1.83246E-01
    8988.134    -10.245  -0.160  5.75141E-02  2.49464E-01 -1.91950E-01
    8988.177    -10.203  -0.120  5.84143E-02  2.57247E-01 -1.98833E-01
    8988.207    -10.172  -0.080  5.90789E-02  2.62862E-01 -2.03783E-01
    8988.232    -10.148   0.000  5.96535E-02  2.67379E-01 -2.07726E-01
    8988.286    -10.093   0.120  6.09437E-02  2.77570E-01 -2.16626E-01
    8988.329    -10.050   0.160  6.18825E-02  2.85529E-01 -2.23646E-01
    8988.384     -9.995   0.200  6.30514E-02  2.95704E-01 -2.32653E-01
    8988.451     -9.928   0.240  6.44213E-02  3.08006E-01 -2.43585E-01
    8988.530     -9.849   0.280  6.59400E-02  3.22208E-01 -2.56268E-01
    8988.622     -9.758   0.320  6.76164E-02  3.38020E-01 -2.70403E-01
    8988.725     -9.654   0.360  6.94141E-02  3.55032E-01 -2.85618E-01
    8988.841     -9.538   0.400  7.13012E-02  3.72806E-01 -3.01505E-01
    8988.969     -9.410   0.440  7.33507E-02  3.90997E-01 -3.17646E-01
    8989.109     -9.270   0.480  7.55455E-02  4.09247E-01 -3.33701E-01
    8989.262     -9.118   0.520  7.79901E-02  4.27386E-01 -3.49396E-01
    8989.426     -8.953   0.560  8.07514E-02  4.45307E-01 -3.64556E-01
    8989.603     -8.776   0.600  8.39751E-02  4.62999E-01 -3.79024E-01
    8989.792     -8.587   0.640  8.77656E-02  4.80483E-01 -3.92717E-01
    8989.993     -8.386   0.680  9.23308E-02  4.97803E-01 -4.05473E-01
    8990.207     -8.173   0.720  9.79078E-02  5.15016E-01 -4.17109E-01
    8990.432     -7.947   0.760  1.04871E-01  5.32194E-01 -4.27323E-01
    8990.670     -7.709   0.800  1.13605E-01  5.49338E-01 -4.35733E-01
    8990.920     -7.459   0.840  1.24652E-01  5.66544E-01 -4.41892E-01
    8991.182     -7.197   0.880  1.38158E-01  5.83771E-01 -4.45614E-01
    8991.456     -6.923   0.920  1.53310E-01  6.01029E-01 -4.47720E-01
    8991.743     -6.637   0.960  1.67749E-01  6.18359E-01 -4.50610E-01
    8992.042     -6.338   1.000  1.78466E-01  6.35690E-01 -4.57224E-01
    8992.352     -6.027   1.040  1.85419E-01  6.53007E-01 -4.67588E-01
    8992.676     -5.704   1.080  1.93157E-01  6.70307E-01 -4.77150E-01
    8993.011     -5.369   1.120  2.06914E-01  6.87522E-01 -4.80608E-01
    8993.358     -5.021   1.160  2.28139E-01  7.04621E-01 -4.76482E-01
    8993.718     -4.661   1.200  2.53651E-01  7.21569E-01 -4.67918E-01
    8994.090     -4.290   1.240  2.80963E-01  7.38289E-01 -4.57326E-01
    8994.474     -3.906   1.280  3.11733E-01  7.54763E-01 -4.43030E-01
    8994.870     -3.509   1.320  3.43753E-01  7.70932E-01 -4.27179E-01
    8995.279     -3.101   1.360  3.70687E-01  7.86756E-01 -4.16070E-01
    8995.699     -2.680   1.400  3.92984E-01  8.02178E-01 -4.09194E-01
    8996.132     -2.247   1.440  4.17551E-01  8.17177E-01 -3.99626E-01
    8996.577     -1.802   1.480  4.52097E-01  8.31699E-01 -3.79601E-01
    8997.034     -1.345   1.520  5.02967E-01  8.45707E-01 -3.42739E-01
    8997.504     -0.876   1.560  5.72104E-01  8.59166E-01 -2.87062E-01
    8997.985     -0.394   1.600  6.57711E-01  8.72087E-01 -2.14376E-01
    8998.479      0.100   1.640  7.60467E-01  8.84398E-01 -1.23932E-01
    8998.985      0.605   1.680  8.78834E-01  8.96113E-01 -1.72790E-02
    8999.503      1.124   1.720  9.98918E-01  9.07226E-01  9.16913E-02
    9000.033      1.654   1.760  1.10681E+00  9.17693E-01  1.89120E-01
    9000.576      2.197   1.800  1.21072E+00  9.27531E-01  2.83185E-01
    9001.131      2.751   1.840  1.33097E+00  9.36742E-01  3.94233E-01
    9001.698      3.318   1.880  1.48060E+00  9.45329E-01  5.35269E-01
    9002.277      3.897   1.920  1.64700E+00  9.53274E-01  6.93724E-01
    9002.868      4.489   1.960  1.77326E+00  9.60626E-01  8.12636E-01
    9003.472      5.092   2.000  1.82081E+00  9.67391E-01  8.53414E-01
    9004.087      5.708   2.040  1.82585E+00  9.73559E-01  8.52287E-01
    9004.715      6.336   2.080  1.77080E+00  9.79177E-01  7.91623E-01
    9005.355      6.976   2.120  1.60678E+00  9.84257E-01  6.22523E-01
    9006.007      7.628   2.160  1.39150E+00  9.88812E-01  4.02686E-01
    9006.672      8.293   2.200  1.20893E+00  9.92892E-01  2.16037E-01
    9007.349      8.969   2.240  1.08785E+00  9.96469E-01  9.13831E-02
    9008.037      9.658   2.280  1.01951E+00  9.99617E-01  1.98886E-02
    9008.738     10.359   2.320  9.89034E-01  1.00235E+00 -1.33153E-02
    9009.452     11.072   2.360  9.84774E-01  1.00468E+00 -1.99056E-02
    9010.177     11.798   2.400  9.98588E-01  1.00664E+00 -8.05253E-03
    9010.915     12.535   2.440  1.02040E+00  1.00826E+00  1.21314E-02
    9011.665     13.285   2.480  1.03004E+00  1.00957E+00  2.04725E-02
    9012.427     14.047   2.520  1.02653E+00  1.01058E+00  1.59570E-02
    9013.201     14.821   2.560  1.02171E+00  1.01133E+00  1.03820E-02
    9013.987     15.608   2.600  1.01840E+00  1.01182E+00  6.58628E-03
    9014.786     16.406   2.640  1.01458E+00  1.01211E+00  2.47246E-03
    9015.596     17.217   2.680  1.00748E+00  1.01218E+00 -4.70234E-03
    9016.419     18.040   2.720  9.95792E-01  1.01208E+00 -1.62835E-02
    9017.255     18.875   2.760  9.79661E-01  1.01181E+00 -3.21483E-02
    9018.102     19.722   2.800  9.59852E-01  1.01141E+00 -5.15585E-02
    9018.961     20.582   2.840  9.37483E-01  1.01089E+00 -7.34069E-02
    9019.833     21.454   2.880  9.13664E-01  1.01025E+00 -9.65896E-02
    9020.717     22.338   2.920  8.89803E-01  1.00953E+00 -1.19727E-01
    9021.613     23.234   2.960  8.67904E-01  1.00875E+00 -1.40846E-01
    9022.521     24.142   3.000  8.49551E-01  1.00790E+00 -1.58347E-01
    9023.442     25.063   3.040  8.35607E-01  1.00700E+00 -1.71394E-01
    9024.375     25.995   3.080  8.26565E-01  1.00607E+00 -1.79501E-01
    9025.319     26.940   3.120  8.21671E-01  1.00512E+00 -1.83447E-01
    9026.277     27.897   3.160  8.19981E-01  1.00414E+00 -1.84159E-01
    9027.246     28.866   3.200  8.20847E-01  1.00316E+00 -1.82315E-01
    9028.227     29.848   3.240  8.23901E-01  1.00221E+00 -1.78305E-01
    9029.221     30.842   3.280  8.28969E-01  1.00126E+00 -1.72288E-01
    9030.227     31.847   3.320  8.36251E-01  1.00032E+00 -1.64066E-01
    9031.245     32.865   3.360  8.46232E-01  9.99432E-01 -1.53200E-01
    9032.275     33.896   3.400  8.58889E-01  9.98562E-01 -1.39673E-01
    9033.317     34.938   3.440  8.74105E-01  9.97731E-01 -1.23626E-01
    9034.372     35.993   3.480  8.91548E-01  9.96940E-01 -1.05391E-01
    9035.439     37.059   3.520  9.10565E-01  9.96213E-01 -8.56479E-02
    9036.518     38.138   3.560  9.30091E-01  9.95510E-01 -6.54190E-02
    9037.609     39.230   3.600  9.49215E-01  9.94874E-01 -4.56584E-02
    9038.712     40.333   3.640  9.67244E-01  9.94307E-01 -2.70623E-02
    9039.828     41.449   3.680  9.83883E-01  9.93788E-01 -9.90479E-03
    9040.956     42.576   3.720  9.99409E-01  9.93316E-01  6.09319E-03
    9042.096     43.716   3.760  1.01455E+00  9.92913E-01  2.16343E-02
    9043.248     44.868   3.800  1.03004E+00  9.92560E-01  3.74840E-02
    9044.412     46.033   3.840  1.04663E+00  9.92278E-01  5.43503E-02
    9045.589     47.209   3.880  1.06479E+00  9.92045E-01  7.27467E-02
    9046.777     48.398   3.920  1.08442E+00  9.91882E-01  9.25376E-02
    9047.978     49.599   3.960  1.10435E+00  9.91789E-01  1.12559E-01
    9049.191     50.812   4.000  1.12247E+00  9.91723E-01  1.30751E-01
    9050.417     52.037   4.040  1.13627E+00  9.91725E-01  1.44542E-01
    9051.654     53.275   4.080  1.14347E+00  9.91795E-01  1.51678E-01
    9052.904     54.524   4.120  1.14305E+00  9.91910E-01  1.51137E-01
    9054.166     55.786   4.160  1.13557E+00  9.92068E-01  1.43498E-01
    9055.440     57.060   4.200  1.12278E+00  9.92268E-01  1.30507E-01
    9056.726     58.347   4.240  1.10702E+00  9.92509E-01  1.14514E-01
    9058.024     59.645   4.280  1.09054E+00  9.92789E-01  9.77470E-02
    9059.335     60.956   4.320  1.07482E+00  9.93110E-01  8.17132E-02
    9060.658     62.278   4.360  1.06050E+00  9.93490E-01  6.70100E-02
    9061.993     63.613   4.400  1.04750E+00  9.93862E-01  5.36345E-02
    9063.340     64.961   4.440  1.03576E+00  9.94289E-01  4.14704E-02
    9064.699     66.320   4.480  1.02528E+00  9.94729E-01  3.05516E-02
    9066.071     67.692   4.520  1.01637E+00  9.95200E-01  2.11657E-02
    9067.455     69.075   4.560  1.00929E+00  9.95679E-01  1.36132E-02
    9068.851     70.471   4.600  1.00405E+00  9.96185E-01  7.86943E-03
    9070.259     71.880   4.640  1.00009E+00  9.96696E-01  3.39744E-03
    9071.679     73.300   4.680  9.96453E-01  9.97209E-01 -7.56429E-04
    9073.112     74.733   4.720  9.92152E-01  9.97724E-01 -5.57213E-03
    9074.557     76.177   4.760  9.86644E-01  9.98238E-01 -1.15941E-02
    9076.014     77.634   4.800  9.79921E-01  9.98773E-01 -1.88521E-02
    9077.483     79.103   4.840  9.72242E-01  9.99282E-01 -2.70404E-02
    9078.964     80.585   4.880  9.64188E-01  9.99764E-01 -3.55759E-02
    9080.458     82.078   4.920  9.56581E-01  1.00026E+00 -4.36790E-02
    9081.963     83.584   4.960  9.50382E-01  1.00073E+00 -5.03452E-02
    9083.481     85.102   5.000  9.46674E-01  1.00119E+00 -5.45112E-02
    9085.011     86.632   5.040  9.46172E-01  1.00161E+00 -5.54384E-02
    9086.554     88.174   5.080  9.49114E-01  1.00200E+00 -5.28862E-02
    9088.108     89.729   5.120  9.55261E-01  1.00238E+00 -4.71179E-02
    9089.675     91.295   5.160  9.63909E-01  1.00272E+00 -3.88130E-02
    9091.254     92.874   5.200  9.73868E-01  1.00305E+00 -2.91835E-02
    9092.845     94.465   5.240  9.83159E-01  1.00334E+00 -2.01838E-02
    9094.448     96.068   5.280  9.89511E-01  1.00357E+00 -1.40617E-02
    9096.063     97.684   5.320  9.91386E-01  1.00379E+00 -1.23992E-02
    9097.691     99.312   5.360  9.88585E-01  1.00396E+00 -1.53738E-02
    9099.331    100.951   5.400  9.82121E-01  1.00409E+00 -2.19716E-02
    9100.983    102.603   5.440  9.73432E-01  1.00419E+00 -3.07563E-02
    9102.647    104.268   5.480  9.63539E-01  1.00427E+00 -4.07264E-02
    9104.323    105.944   5.520  9.52768E-01  1.00428E+00 -5.15118E-02
    9106.012    107.633   5.560  9.41451E-01  1.00425E+00 -6.27994E-02
    9107.713    109.333   5.600  9.30565E-01  1.00418E+00 -7.36151E-02
    9109.426    111.046   5.640  9.21821E-01  1.00407E+00 -8.22468E-02
    9111.151    112.771   5.680  9.17217E-01  1.00392E+00 -8.66987E-02
    9112.888    114.509   5.720  9.18407E-01  1.00372E+00 -8.53177E-02
    9114.638    116.258   5.760  9.26296E-01  1.00350E+00 -7.71991E-02
    9116.399    118.020   5.800  9.40983E-01  1.00325E+00 -6.22685E-02
    9118.173    119.794   5.840  9.61579E-01  1.00295E+00 -4.13670E-02
    9119.960    121.580   5.880  9.86175E-01  1.00260E+00 -1.64300E-02
    9121.758    123.378   5.920  1.01176E+00  1.00225E+00  9.50537E-03
    9123.568    125.189   5.960  1.03463E+00  1.00187E+00  3.27600E-02
    9125.391    127.012   6.000  1.05170E+00  1.00143E+00  5.02645E-02
