# # comment:                                                     FEFF 9.9.1  
# # Source:
# # Structure
# # Reduced
# # space
# # abc:
# # angles:118.356009
# # sites:
# # POT  SCF 100  7.0000   0, screened core-hole, AFOLP (folp(0)= 1.150)
# # Abs   Z=29 Rmt= 1.168 Rnm= 1.294 K  shell
# # Pot 1 Z=29 Rmt= 1.235 Rnm= 1.302
# # Pot 2 Z= 8 Rmt= 1.024 Rnm= 1.124
# # Gam_ch=1.729E+00 H-L exch Vi= 0.000E+00 Vr= 0.000E+00
# # Mu=-7.222E+00eV kf=2.165E+00 Vint=-1.475E+01eV Rs_int= 1.675
# FMS rfms= 9.0000
# # PATH  Rmax=-1.000,  Keep_limit= 0.00, Heap_limit 0.00  Pwcrit= 2.50%
#  S02=0.950  Temp=   0.00  Debye_temp=   0.00  Global_sig2= 0.00000
#  Energy zero shift, vr, vi    0.00000E+00   0.00000E+00
#  Curved wave amplitude ratio filter   4.000%
#     file         sig2 tot  cw amp ratio   deg  nlegs   reff  inp sig2
#     0/   0 paths used
#  xsedge+ 50, used to normalize mu           2.4342E-04
#  -----------------------------------------------------------------------
#  omega    e    k    mu    mu0     chi     @#
    8983.518    -11.032  -1.000  3.46888E-02  5.45017E-02 -1.98128E-02
    8983.817    -10.734  -0.960  3.63690E-02  5.84119E-02 -2.20430E-02
    8984.103    -10.447  -0.920  3.81686E-02  6.27497E-02 -2.45811E-02
    8984.378    -10.173  -0.880  4.01010E-02  6.75770E-02 -2.74760E-02
    8984.640     -9.911  -0.840  4.21814E-02  7.29659E-02 -3.07846E-02
    8984.890     -9.661  -0.800  4.44271E-02  7.89998E-02 -3.45728E-02
    8985.128     -9.423  -0.760  4.68581E-02  8.57742E-02 -3.89162E-02
    8985.353     -9.197  -0.720  4.94966E-02  9.33969E-02 -4.39003E-02
    8985.566     -8.984  -0.680  5.23671E-02  1.01986E-01 -4.96191E-02
    8985.768     -8.783  -0.640  5.54950E-02  1.11667E-01 -5.61721E-02
    8985.957     -8.594  -0.600  5.89046E-02  1.22562E-01 -6.36571E-02
    8986.133     -8.417  -0.560  6.26157E-02  1.34774E-01 -7.21584E-02
    8986.298     -8.253  -0.520  6.66375E-02  1.48365E-01 -8.17277E-02
    8986.450     -8.100  -0.480  7.09610E-02  1.63320E-01 -9.23586E-02
    8986.591     -7.960  -0.440  7.55501E-02  1.79507E-01 -1.03957E-01
    8986.719     -7.832  -0.400  8.03337E-02  1.96647E-01 -1.16314E-01
    8986.834     -7.716  -0.360  8.52030E-02  2.14304E-01 -1.29101E-01
    8986.938     -7.612  -0.320  9.00183E-02  2.31908E-01 -1.41890E-01
    8987.029     -7.521  -0.280  9.46241E-02  2.48827E-01 -1.54203E-01
    8987.109     -7.442  -0.240  9.88696E-02  2.64451E-01 -1.65582E-01
    8987.176     -7.375  -0.200  1.02627E-01  2.78268E-01 -1.75642E-01
    8987.231     -7.320  -0.160  1.05799E-01  2.89900E-01 -1.84102E-01
    8987.273     -7.277  -0.120  1.08321E-01  2.99103E-01 -1.90782E-01
    8987.304     -7.247  -0.080  1.10154E-01  3.05737E-01 -1.95583E-01
    8987.328     -7.222   0.000  1.11659E-01  3.11070E-01 -1.99411E-01
    8987.383     -7.167   0.120  1.15040E-01  3.23107E-01 -2.08068E-01
    8987.426     -7.125   0.160  1.17620E-01  3.32479E-01 -2.14859E-01
    8987.481     -7.070   0.200  1.20893E-01  3.44467E-01 -2.23574E-01
    8987.548     -7.003   0.240  1.24763E-01  3.58885E-01 -2.34121E-01
    8987.627     -6.924   0.280  1.29214E-01  3.75530E-01 -2.46316E-01
    8987.718     -6.832   0.320  1.34039E-01  3.93949E-01 -2.59910E-01
    8987.822     -6.729   0.360  1.39048E-01  4.13671E-01 -2.74623E-01
    8987.938     -6.613   0.400  1.43998E-01  4.34172E-01 -2.90174E-01
    8988.066     -6.485   0.440  1.48604E-01  4.54931E-01 -3.06327E-01
    8988.206     -6.344   0.480  1.52681E-01  4.75595E-01 -3.22914E-01
    8988.358     -6.192   0.520  1.56251E-01  4.95887E-01 -3.39635E-01
    8988.523     -6.028   0.560  1.59710E-01  5.15715E-01 -3.56005E-01
    8988.700     -5.851   0.600  1.63771E-01  5.35026E-01 -3.71255E-01
    8988.889     -5.662   0.640  1.69488E-01  5.53869E-01 -3.84381E-01
    8989.090     -5.461   0.680  1.77923E-01  5.72286E-01 -3.94363E-01
    8989.303     -5.247   0.720  1.90037E-01  5.90371E-01 -4.00333E-01
    8989.529     -5.022   0.760  2.06578E-01  6.08194E-01 -4.01617E-01
    8989.767     -4.784   0.800  2.28203E-01  6.25799E-01 -3.97596E-01
    8990.016     -4.534   0.840  2.55496E-01  6.43253E-01 -3.87757E-01
    8990.279     -4.272   0.880  2.88774E-01  6.60551E-01 -3.71778E-01
    8990.553     -3.998   0.920  3.28059E-01  6.77737E-01 -3.49678E-01
    8990.839     -3.711   0.960  3.72594E-01  6.94820E-01 -3.22227E-01
    8991.138     -3.412   1.000  4.18053E-01  7.11760E-01 -2.93707E-01
    8991.449     -3.101   1.040  4.55366E-01  7.28569E-01 -2.73203E-01
    8991.772     -2.778   1.080  4.77611E-01  7.45191E-01 -2.67580E-01
    8992.107     -2.443   1.120  4.88345E-01  7.61626E-01 -2.73281E-01
    8992.455     -2.096   1.160  5.00055E-01  7.77827E-01 -2.77772E-01
    8992.815     -1.736   1.200  5.25499E-01  7.93745E-01 -2.68246E-01
    8993.186     -1.364   1.240  5.68497E-01  8.09368E-01 -2.40871E-01
    8993.570     -0.980   1.280  6.18113E-01  8.24624E-01 -2.06511E-01
    8993.967     -0.584   1.320  6.53785E-01  8.39477E-01 -1.85692E-01
    8994.375     -0.175   1.360  6.62463E-01  8.53914E-01 -1.91451E-01
    8994.796      0.245   1.400  6.48849E-01  8.67880E-01 -2.19031E-01
    8995.229      0.678   1.440  6.31177E-01  8.81342E-01 -2.50165E-01
    8995.674      1.123   1.480  6.27019E-01  8.94288E-01 -2.67269E-01
    8996.131      1.580   1.520  6.40864E-01  9.06645E-01 -2.65780E-01
    8996.600      2.050   1.560  6.62347E-01  9.18445E-01 -2.56099E-01
    8997.082      2.531   1.600  6.75085E-01  9.29619E-01 -2.54535E-01
    8997.576      3.025   1.640  6.76259E-01  9.40203E-01 -2.63944E-01
    8998.081      3.531   1.680  6.80563E-01  9.50133E-01 -2.69570E-01
    8998.600      4.049   1.720  7.03226E-01  9.59446E-01 -2.56220E-01
    8999.130      4.579   1.760  7.51885E-01  9.68123E-01 -2.16238E-01
    8999.673      5.122   1.800  8.24219E-01  9.76166E-01 -1.51947E-01
    9000.227      5.677   1.840  9.07824E-01  9.83578E-01 -7.57540E-02
    9000.794      6.244   1.880  9.97172E-01  9.90364E-01  6.80741E-03
    9001.373      6.823   1.920  1.10420E+00  9.96554E-01  1.07646E-01
    9001.965      7.414   1.960  1.24310E+00  1.00215E+00  2.40949E-01
    9002.568      8.018   2.000  1.41360E+00  1.00717E+00  4.06426E-01
    9003.184      8.633   2.040  1.58090E+00  1.01164E+00  5.69261E-01
    9003.812      9.261   2.080  1.68579E+00  1.01557E+00  6.70225E-01
    9004.452      9.901   2.120  1.69810E+00  1.01899E+00  6.79110E-01
    9005.104     10.554   2.160  1.62774E+00  1.02192E+00  6.05821E-01
    9005.768     11.218   2.200  1.50892E+00  1.02439E+00  4.84527E-01
    9006.445     11.895   2.240  1.37809E+00  1.02644E+00  3.51650E-01
    9007.134     12.584   2.280  1.26786E+00  1.02807E+00  2.39791E-01
    9007.835     13.285   2.320  1.19388E+00  1.02932E+00  1.64558E-01
    9008.548     13.998   2.360  1.14783E+00  1.03023E+00  1.17602E-01
    9009.274     14.723   2.400  1.11944E+00  1.03079E+00  8.86528E-02
    9010.011     15.461   2.440  1.10854E+00  1.03107E+00  7.74712E-02
    9010.761     16.211   2.480  1.10609E+00  1.03107E+00  7.50255E-02
    9011.523     16.973   2.520  1.09515E+00  1.03079E+00  6.43557E-02
    9012.297     17.747   2.560  1.07797E+00  1.03032E+00  4.76464E-02
    9013.084     18.533   2.600  1.07562E+00  1.02962E+00  4.60039E-02
    9013.882     19.332   2.640  1.08719E+00  1.02874E+00  5.84509E-02
    9014.693     20.143   2.680  1.10172E+00  1.02773E+00  7.39952E-02
    9015.516     20.965   2.720  1.11258E+00  1.02656E+00  8.60224E-02
    9016.351     21.801   2.760  1.11765E+00  1.02526E+00  9.23893E-02
    9017.198     22.648   2.800  1.11679E+00  1.02388E+00  9.29114E-02
    9018.058     23.507   2.840  1.10981E+00  1.02241E+00  8.74015E-02
    9018.930     24.379   2.880  1.09622E+00  1.02086E+00  7.53645E-02
    9019.814     25.263   2.920  1.07579E+00  1.01929E+00  5.65017E-02
    9020.710     26.159   2.960  1.04927E+00  1.01765E+00  3.16131E-02
    9021.618     27.068   3.000  1.01840E+00  1.01601E+00  2.38911E-03
    9022.539     27.988   3.040  9.85371E-01  1.01436E+00 -2.89840E-02
    9023.471     28.921   3.080  9.52868E-01  1.01268E+00 -5.98150E-02
    9024.416     29.866   3.120  9.23285E-01  1.01106E+00 -8.77730E-02
    9025.373     30.823   3.160  8.97476E-01  1.00944E+00 -1.11966E-01
    9026.342     31.792   3.200  8.75646E-01  1.00784E+00 -1.32196E-01
    9027.324     32.773   3.240  8.57696E-01  1.00630E+00 -1.48607E-01
    9028.318     33.767   3.280  8.43191E-01  1.00481E+00 -1.61616E-01
    9029.323     34.773   3.320  8.31749E-01  1.00336E+00 -1.71608E-01
    9030.341     35.791   3.360  8.23380E-01  1.00198E+00 -1.78601E-01
    9031.372     36.821   3.400  8.18078E-01  1.00068E+00 -1.82602E-01
    9032.414     37.864   3.440  8.16131E-01  9.99433E-01 -1.83302E-01
    9033.469     38.918   3.480  8.18014E-01  9.98285E-01 -1.80272E-01
    9034.535     39.985   3.520  8.23950E-01  9.97198E-01 -1.73248E-01
    9035.614     41.064   3.560  8.33763E-01  9.96193E-01 -1.62430E-01
    9036.706     42.155   3.600  8.47086E-01  9.95291E-01 -1.48206E-01
    9037.809     43.258   3.640  8.63278E-01  9.94476E-01 -1.31199E-01
    9038.924     44.374   3.680  8.81492E-01  9.93746E-01 -1.12254E-01
    9040.052     45.502   3.720  9.00956E-01  9.93100E-01 -9.21446E-02
    9041.192     46.642   3.760  9.21148E-01  9.92540E-01 -7.13919E-02
    9042.344     47.794   3.800  9.41730E-01  9.92088E-01 -5.03580E-02
    9043.509     48.958   3.840  9.62377E-01  9.91723E-01 -2.93460E-02
    9044.685     50.135   3.880  9.82856E-01  9.91467E-01 -8.61048E-03
    9045.874     51.323   3.920  1.00279E+00  9.91275E-01  1.15108E-02
    9047.075     52.524   3.960  1.02177E+00  9.91187E-01  3.05872E-02
    9048.288     53.737   4.000  1.03934E+00  9.91185E-01  4.81513E-02
    9049.513     54.963   4.040  1.05495E+00  9.91266E-01  6.36831E-02
    9050.751     56.200   4.080  1.06801E+00  9.91428E-01  7.65769E-02
    9052.000     57.450   4.120  1.07806E+00  9.91672E-01  8.63903E-02
    9053.262     58.712   4.160  1.08499E+00  9.91995E-01  9.29899E-02
    9054.536     59.986   4.200  1.08877E+00  9.92398E-01  9.63725E-02
    9055.823     61.272   4.240  1.08933E+00  9.92878E-01  9.64552E-02
    9057.121     62.571   4.280  1.08654E+00  9.93412E-01  9.31315E-02
    9058.432     63.881   4.320  1.08047E+00  9.94019E-01  8.64507E-02
    9059.754     65.204   4.360  1.07160E+00  9.94699E-01  7.68993E-02
    9061.089     66.539   4.400  1.06089E+00  9.95426E-01  6.54681E-02
    9062.437     67.886   4.440  1.04955E+00  9.96198E-01  5.33496E-02
    9063.796     69.246   4.480  1.03858E+00  9.97013E-01  4.15676E-02
    9065.168     70.617   4.520  1.02870E+00  9.97892E-01  3.08070E-02
    9066.551     72.001   4.560  1.02015E+00  9.98788E-01  2.13607E-02
    9067.947     73.397   4.600  1.01297E+00  9.99721E-01  1.32481E-02
    9069.356     74.805   4.640  1.00708E+00  1.00069E+00  6.39235E-03
    9070.776     76.225   4.680  1.00251E+00  1.00169E+00  8.20779E-04
    9072.209     77.658   4.720  9.99440E-01  1.00270E+00 -3.26238E-03
    9073.653     79.103   4.760  9.98323E-01  1.00372E+00 -5.39399E-03
    9075.110     80.560   4.800  9.99825E-01  1.00476E+00 -4.93178E-03
    9076.579     82.029   4.840  1.00454E+00  1.00578E+00 -1.23422E-03
    9078.061     83.510   4.880  1.01288E+00  1.00682E+00  6.06325E-03
    9079.554     85.004   4.920  1.02456E+00  1.00786E+00  1.67032E-02
    9081.060     86.509   4.960  1.03838E+00  1.00887E+00  2.95179E-02
    9082.578     88.027   5.000  1.05250E+00  1.00987E+00  4.26361E-02
    9084.108     89.557   5.040  1.06496E+00  1.01083E+00  5.41314E-02
    9085.650     91.100   5.080  1.07445E+00  1.01176E+00  6.26868E-02
    9087.205     92.654   5.120  1.08050E+00  1.01268E+00  6.78213E-02
    9088.771     94.221   5.160  1.08304E+00  1.01356E+00  6.94828E-02
    9090.350     95.800   5.200  1.08199E+00  1.01440E+00  6.75963E-02
    9091.941     97.391   5.240  1.07719E+00  1.01519E+00  6.19978E-02
    9093.544     98.994   5.280  1.06863E+00  1.01594E+00  5.26882E-02
    9095.160    100.609   5.320  1.05659E+00  1.01665E+00  3.99367E-02
    9096.787    102.237   5.360  1.04155E+00  1.01729E+00  2.42666E-02
    9098.427    103.877   5.400  1.02430E+00  1.01787E+00  6.42934E-03
    9100.079    105.529   5.440  1.00588E+00  1.01839E+00 -1.25052E-02
    9101.744    107.193   5.480  9.87658E-01  1.01885E+00 -3.11913E-02
    9103.420    108.869   5.520  9.70997E-01  1.01926E+00 -4.82641E-02
    9105.108    110.558   5.560  9.56734E-01  1.01958E+00 -6.28412E-02
    9106.809    112.259   5.600  9.45117E-01  1.01984E+00 -7.47196E-02
    9108.522    113.972   5.640  9.35853E-01  1.02005E+00 -8.41928E-02
    9110.247    115.697   5.680  9.28550E-01  1.02018E+00 -9.16301E-02
    9111.985    117.434   5.720  9.23074E-01  1.02024E+00 -9.71617E-02
    9113.734    119.184   5.760  9.19697E-01  1.02022E+00 -1.00519E-01
    9115.496    120.946   5.800  9.18970E-01  1.02014E+00 -1.01172E-01
    9117.270    122.719   5.840  9.21414E-01  1.01997E+00 -9.85544E-02
    9119.056    124.506   5.880  9.27415E-01  1.01977E+00 -9.23531E-02
    9120.854    126.304   5.920  9.36726E-01  1.01947E+00 -8.27438E-02
    9122.665    128.114   5.960  9.48426E-01  1.01911E+00 -7.06882E-02
    9124.488    129.937   6.000  9.61242E-01  1.01866E+00 -5.74167E-02
