# # comment:                                                     FEFF 9.9.1  
# # Source:
# # Structure
# # Reduced
# # space
# # abc:
# # angles:
# # sites:
# # POT  SCF 100  7.0000   0, screened core-hole, AFOLP (folp(0)= 1.150)
# # Abs   Z=29 Rmt= 1.227 Rnm= 1.294 K  shell
# # Pot 1 Z=38 Rmt= 1.750 Rnm= 1.829
# # Pot 2 Z=29 Rmt= 1.227 Rnm= 1.294
# # Pot 3 Z= 8 Rmt= 1.064 Rnm= 1.115
# # Gam_ch=1.729E+00 H-L exch Vi= 0.000E+00 Vr= 0.000E+00
# # Mu=-9.964E+00eV kf=1.933E+00 Vint=-1.736E+01eV Rs_int= 1.877
# FMS rfms= 9.0000
# # PATH  Rmax=-1.000,  Keep_limit= 0.00, Heap_limit 0.00  Pwcrit= 2.50%
#  S02=0.950  Temp=   0.00  Debye_temp=   0.00  Global_sig2= 0.00000
#  Energy zero shift, vr, vi    0.00000E+00   0.00000E+00
#  Curved wave amplitude ratio filter   4.000%
#     file         sig2 tot  cw amp ratio   deg  nlegs   reff  inp sig2
#     0/   0 paths used
#  xsedge+ 50, used to normalize mu           2.4425E-04
#  -----------------------------------------------------------------------
#  omega    e    k    mu    mu0     chi     @#
    8985.135    -13.774  -1.000  3.35856E-02  5.36184E-02 -2.00328E-02
    8985.433    -13.475  -0.960  3.51765E-02  5.74549E-02 -2.22784E-02
    8985.720    -13.189  -0.920  3.68852E-02  6.17101E-02 -2.48250E-02
    8985.994    -12.915  -0.880  3.87266E-02  6.64449E-02 -2.77183E-02
    8986.256    -12.653  -0.840  4.07186E-02  7.17299E-02 -3.10112E-02
    8986.506    -12.403  -0.800  4.28819E-02  7.76465E-02 -3.47646E-02
    8986.744    -12.165  -0.760  4.52405E-02  8.42884E-02 -3.90479E-02
    8986.969    -11.939  -0.720  4.78219E-02  9.17609E-02 -4.39391E-02
    8987.183    -11.726  -0.680  5.06566E-02  1.00180E-01 -4.95234E-02
    8987.384    -11.525  -0.640  5.37774E-02  1.09668E-01 -5.58904E-02
    8987.573    -11.336  -0.600  5.72165E-02  1.20344E-01 -6.31275E-02
    8987.750    -11.159  -0.560  6.10016E-02  1.32310E-01 -7.13086E-02
    8987.914    -10.994  -0.520  6.51493E-02  1.45626E-01 -8.04768E-02
    8988.067    -10.842  -0.480  6.96557E-02  1.60277E-01 -9.06209E-02
    8988.207    -10.702  -0.440  7.44859E-02  1.76134E-01 -1.01648E-01
    8988.335    -10.574  -0.400  7.95646E-02  1.92924E-01 -1.13359E-01
    8988.451    -10.458  -0.360  8.47720E-02  2.10219E-01 -1.25447E-01
    8988.554    -10.354  -0.320  8.99508E-02  2.27463E-01 -1.37512E-01
    8988.646    -10.263  -0.280  9.49236E-02  2.44035E-01 -1.49112E-01
    8988.725    -10.184  -0.240  9.95165E-02  2.59341E-01 -1.59824E-01
    8988.792    -10.117  -0.200  1.03581E-01  2.72876E-01 -1.69295E-01
    8988.847    -10.062  -0.160  1.07007E-01  2.84272E-01 -1.77265E-01
    8988.890    -10.019  -0.120  1.09723E-01  2.93287E-01 -1.83565E-01
    8988.920     -9.989  -0.080  1.11690E-01  2.99788E-01 -1.88097E-01
    8988.945     -9.964   0.000  1.13297E-01  3.05014E-01 -1.91716E-01
    8988.999     -9.909   0.120  1.16833E-01  3.16799E-01 -1.99966E-01
    8989.042     -9.867   0.160  1.19538E-01  3.25990E-01 -2.06452E-01
    8989.097     -9.812   0.200  1.22928E-01  3.37729E-01 -2.14801E-01
    8989.164     -9.745   0.240  1.26892E-01  3.51873E-01 -2.24981E-01
    8989.243     -9.666   0.280  1.31263E-01  3.68164E-01 -2.36901E-01
    8989.335     -9.574   0.320  1.35822E-01  3.86240E-01 -2.50419E-01
    8989.438     -9.470   0.360  1.40168E-01  4.05582E-01 -2.65414E-01
    8989.554     -9.355   0.400  1.43944E-01  4.25677E-01 -2.81733E-01
    8989.682     -9.227   0.440  1.46827E-01  4.46056E-01 -2.99228E-01
    8989.822     -9.086   0.480  1.48744E-01  4.66334E-01 -3.17591E-01
    8989.975     -8.934   0.520  1.49964E-01  4.86280E-01 -3.36316E-01
    8990.139     -8.769   0.560  1.51073E-01  5.05764E-01 -3.54691E-01
    8990.316     -8.593   0.600  1.52839E-01  5.24752E-01 -3.71913E-01
    8990.505     -8.404   0.640  1.55977E-01  5.43294E-01 -3.87317E-01
    8990.706     -8.202   0.680  1.61057E-01  5.61428E-01 -4.00371E-01
    8990.920     -7.989   0.720  1.68562E-01  5.79246E-01 -4.10684E-01
    8991.145     -7.764   0.760  1.78750E-01  5.96796E-01 -4.18046E-01
    8991.383     -7.526   0.800  1.91660E-01  6.14159E-01 -4.22499E-01
    8991.633     -7.276   0.840  2.06627E-01  6.31361E-01 -4.24734E-01
    8991.895     -7.014   0.880  2.22388E-01  6.48435E-01 -4.26047E-01
    8992.169     -6.739   0.920  2.37730E-01  6.65382E-01 -4.27652E-01
    8992.456     -6.453   0.960  2.52964E-01  6.82212E-01 -4.29248E-01
    8992.755     -6.154   1.000  2.69998E-01  6.98923E-01 -4.28925E-01
    8993.065     -5.843   1.040  2.90975E-01  7.15488E-01 -4.24513E-01
    8993.388     -5.520   1.080  3.15964E-01  7.31911E-01 -4.15947E-01
    8993.724     -5.185   1.120  3.41823E-01  7.48109E-01 -4.06287E-01
    8994.071     -4.837   1.160  3.65931E-01  7.64078E-01 -3.98147E-01
    8994.431     -4.478   1.200  3.91092E-01  7.79788E-01 -3.88697E-01
    8994.803     -4.106   1.240  4.22147E-01  7.95189E-01 -3.73042E-01
    8995.187     -3.722   1.280  4.58718E-01  8.10248E-01 -3.51530E-01
    8995.583     -3.326   1.320  4.94460E-01  8.24931E-01 -3.30471E-01
    8995.991     -2.917   1.360  5.23805E-01  8.39183E-01 -3.15378E-01
    8996.412     -2.497   1.400  5.48564E-01  8.52973E-01 -3.04409E-01
    8996.845     -2.064   1.440  5.77044E-01  8.66265E-01 -2.89221E-01
    8997.290     -1.619   1.480  6.20455E-01  8.79050E-01 -2.58595E-01
    8997.747     -1.162   1.520  6.86420E-01  8.91297E-01 -2.04877E-01
    8998.217     -0.692   1.560  7.74516E-01  9.02978E-01 -1.28461E-01
    8998.698     -0.211   1.600  8.76755E-01  9.14064E-01 -3.73093E-02
    8999.192      0.283   1.640  9.83970E-01  9.24572E-01  5.93986E-02
    8999.698      0.789   1.680  1.09300E+00  9.34457E-01  1.58540E-01
    9000.216      1.307   1.720  1.19752E+00  9.43739E-01  2.53776E-01
    9000.746      1.838   1.760  1.27515E+00  9.52419E-01  3.22728E-01
    9001.289      2.380   1.800  1.31327E+00  9.60477E-01  3.52798E-01
    9001.844      2.935   1.840  1.34280E+00  9.67937E-01  3.74858E-01
    9002.411      3.502   1.880  1.40174E+00  9.74787E-01  4.26956E-01
    9002.990      4.081   1.920  1.45916E+00  9.81073E-01  4.78083E-01
    9003.581      4.672   1.960  1.47502E+00  9.86782E-01  4.88240E-01
    9004.184      5.276   2.000  1.45508E+00  9.91944E-01  4.63136E-01
    9004.800      5.891   2.040  1.41436E+00  9.96569E-01  4.17794E-01
    9005.428      6.519   2.080  1.36717E+00  1.00069E+00  3.66481E-01
    9006.068      7.159   2.120  1.32907E+00  1.00434E+00  3.24732E-01
    9006.720      7.812   2.160  1.30792E+00  1.00751E+00  3.00416E-01
    9007.385      8.476   2.200  1.29528E+00  1.01025E+00  2.85035E-01
    9008.062      9.153   2.240  1.26822E+00  1.01257E+00  2.55647E-01
    9008.750      9.842   2.280  1.21343E+00  1.01449E+00  1.98935E-01
    9009.451     10.543   2.320  1.14396E+00  1.01606E+00  1.27899E-01
    9010.165     11.256   2.360  1.08709E+00  1.01728E+00  6.98148E-02
    9010.890     11.981   2.400  1.05386E+00  1.01820E+00  3.56636E-02
    9011.628     12.719   2.440  1.03536E+00  1.01884E+00  1.65123E-02
    9012.377     13.469   2.480  1.02575E+00  1.01921E+00  6.54127E-03
    9013.139     14.231   2.520  1.02179E+00  1.01934E+00  2.44817E-03
    9013.914     15.005   2.560  1.02063E+00  1.01925E+00  1.37372E-03
    9014.700     15.791   2.600  1.02021E+00  1.01896E+00  1.24850E-03
    9015.499     16.590   2.640  1.01858E+00  1.01853E+00  5.33353E-05
    9016.309     17.401   2.680  1.01411E+00  1.01791E+00 -3.79909E-03
    9017.132     18.224   2.720  1.00573E+00  1.01718E+00 -1.14533E-02
    9017.967     19.059   2.760  9.92726E-01  1.01631E+00 -2.35838E-02
    9018.815     19.906   2.800  9.75079E-01  1.01537E+00 -4.02917E-02
    9019.674     20.766   2.840  9.54029E-01  1.01433E+00 -6.02989E-02
    9020.546     21.637   2.880  9.31701E-01  1.01323E+00 -8.15297E-02
    9021.430     22.521   2.920  9.10056E-01  1.01209E+00 -1.02032E-01
    9022.326     23.417   2.960  8.90506E-01  1.01090E+00 -1.20397E-01
    9023.234     24.326   3.000  8.73667E-01  1.00969E+00 -1.36018E-01
    9024.155     25.246   3.040  8.59994E-01  1.00848E+00 -1.48487E-01
    9025.088     26.179   3.080  8.50106E-01  1.00725E+00 -1.57149E-01
    9026.032     27.124   3.120  8.44734E-01  1.00603E+00 -1.61295E-01
    9026.990     28.081   3.160  8.43642E-01  1.00483E+00 -1.61190E-01
    9027.959     29.050   3.200  8.46295E-01  1.00367E+00 -1.57375E-01
    9028.940     30.031   3.240  8.51917E-01  1.00252E+00 -1.50603E-01
    9029.934     31.025   3.280  8.59591E-01  1.00143E+00 -1.41839E-01
    9030.940     32.031   3.320  8.68288E-01  1.00037E+00 -1.32077E-01
    9031.958     33.049   3.360  8.77449E-01  9.99365E-01 -1.21916E-01
    9032.988     34.079   3.400  8.87124E-01  9.98433E-01 -1.11309E-01
    9034.030     35.122   3.440  8.97484E-01  9.97552E-01 -1.00068E-01
    9035.085     36.176   3.480  9.09177E-01  9.96721E-01 -8.75440E-02
    9036.152     37.243   3.520  9.23064E-01  9.95963E-01 -7.28994E-02
    9037.231     38.322   3.560  9.39634E-01  9.95282E-01 -5.56484E-02
    9038.322     39.413   3.600  9.58608E-01  9.94678E-01 -3.60699E-02
    9039.425     40.517   3.640  9.79043E-01  9.94150E-01 -1.51073E-02
    9040.541     41.632   3.680  9.99346E-01  9.93678E-01  5.66769E-03
    9041.669     42.760   3.720  1.01754E+00  9.93285E-01  2.42590E-02
    9042.809     43.900   3.760  1.03186E+00  9.92991E-01  3.88647E-02
    9043.961     45.052   3.800  1.04110E+00  9.92751E-01  4.83533E-02
    9045.125     46.216   3.840  1.04529E+00  9.92567E-01  5.27260E-02
    9046.302     47.393   3.880  1.04599E+00  9.92481E-01  5.35067E-02
    9047.490     48.582   3.920  1.04527E+00  9.92450E-01  5.28184E-02
    9048.691     49.782   3.960  1.04495E+00  9.92494E-01  5.24550E-02
    9049.904     50.996   4.000  1.04574E+00  9.92615E-01  5.31279E-02
    9051.130     52.221   4.040  1.04723E+00  9.92810E-01  5.44209E-02
    9052.367     53.458   4.080  1.04877E+00  9.93054E-01  5.57120E-02
    9053.617     54.708   4.120  1.05024E+00  9.93346E-01  5.68920E-02
    9054.879     55.970   4.160  1.05219E+00  9.93707E-01  5.84791E-02
    9056.153     57.244   4.200  1.05501E+00  9.94116E-01  6.08936E-02
    9057.439     58.530   4.240  1.05857E+00  9.94591E-01  6.39762E-02
    9058.737     59.829   4.280  1.06213E+00  9.95087E-01  6.70432E-02
    9060.048     61.139   4.320  1.06501E+00  9.95647E-01  6.93671E-02
    9061.371     62.462   4.360  1.06677E+00  9.96246E-01  7.05226E-02
    9062.706     63.797   4.400  1.06725E+00  9.96862E-01  7.03905E-02
    9064.053     65.144   4.440  1.06647E+00  9.97534E-01  6.89391E-02
    9065.412     66.504   4.480  1.06409E+00  9.98218E-01  6.58692E-02
    9066.784     67.875   4.520  1.05973E+00  9.98911E-01  6.08194E-02
    9068.168     69.259   4.560  1.05338E+00  9.99634E-01  5.37442E-02
    9069.564     70.655   4.600  1.04558E+00  1.00038E+00  4.52008E-02
    9070.972     72.063   4.640  1.03728E+00  1.00112E+00  3.61636E-02
    9072.392     73.484   4.680  1.02950E+00  1.00187E+00  2.76305E-02
    9073.825     74.916   4.720  1.02284E+00  1.00263E+00  2.02119E-02
    9075.270     76.361   4.760  1.01730E+00  1.00336E+00  1.39413E-02
    9076.727     77.818   4.800  1.01241E+00  1.00411E+00  8.29793E-03
    9078.196     79.287   4.840  1.00724E+00  1.00483E+00  2.40737E-03
    9079.677     80.768   4.880  1.00111E+00  1.00555E+00 -4.43689E-03
    9081.171     82.262   4.920  9.94060E-01  1.00625E+00 -1.21929E-02
    9082.676     83.767   4.960  9.86949E-01  1.00690E+00 -1.99531E-02
    9084.194     85.285   5.000  9.81117E-01  1.00756E+00 -2.64439E-02
    9085.724     86.815   5.040  9.77357E-01  1.00816E+00 -3.08051E-02
    9087.266     88.358   5.080  9.75844E-01  1.00875E+00 -3.29037E-02
    9088.821     89.912   5.120  9.76188E-01  1.00929E+00 -3.31059E-02
    9090.388     91.479   5.160  9.77811E-01  1.00980E+00 -3.19886E-02
    9091.966     93.058   5.200  9.80086E-01  1.01026E+00 -3.01747E-02
    9093.558     94.649   5.240  9.82282E-01  1.01066E+00 -2.83753E-02
    9095.161     96.252   5.280  9.83635E-01  1.01103E+00 -2.73993E-02
    9096.776     97.867   5.320  9.83365E-01  1.01137E+00 -2.80017E-02
    9098.404     99.495   5.360  9.81025E-01  1.01163E+00 -3.06059E-02
    9100.044    101.135   5.400  9.76734E-01  1.01185E+00 -3.51160E-02
    9101.696    102.787   5.440  9.71075E-01  1.01202E+00 -4.09495E-02
    9103.360    104.451   5.480  9.64964E-01  1.01215E+00 -4.71880E-02
    9105.036    106.128   5.520  9.59503E-01  1.01221E+00 -5.27080E-02
    9106.725    107.816   5.560  9.55847E-01  1.01222E+00 -5.63765E-02
    9108.426    109.517   5.600  9.54904E-01  1.01219E+00 -5.72875E-02
    9110.139    111.230   5.640  9.57163E-01  1.01211E+00 -5.49501E-02
    9111.864    112.955   5.680  9.62694E-01  1.01197E+00 -4.92729E-02
    9113.601    114.692   5.720  9.71170E-01  1.01178E+00 -4.06062E-02
    9115.351    116.442   5.760  9.81503E-01  1.01154E+00 -3.00373E-02
    9117.112    118.204   5.800  9.91723E-01  1.01126E+00 -1.95392E-02
    9118.886    119.978   5.840  9.99671E-01  1.01092E+00 -1.12471E-02
    9120.672    121.764   5.880  1.00434E+00  1.01053E+00 -6.19707E-03
    9122.471    123.562   5.920  1.00645E+00  1.01014E+00 -3.68378E-03
    9124.281    125.373   5.960  1.00780E+00  1.00968E+00 -1.88104E-03
    9126.104    127.195   6.000  1.01026E+00  1.00915E+00  1.10625E-03
