# # comment:                                                     FEFF 9.9.1  
# # Source:
# # Structure
# # Reduced
# # space
# # abc:
# # angles:
# # sites:
# # POT  SCF 100  7.0000   0, screened core-hole, AFOLP (folp(0)= 1.150)
# # Abs   Z=29 Rmt= 1.132 Rnm= 1.261 K  shell
# # Pot 1 Z= 3 Rmt= 1.212 Rnm= 1.296
# # Pot 2 Z=29 Rmt= 1.121 Rnm= 1.251
# # Pot 3 Z= 8 Rmt= 1.011 Rnm= 1.117
# # Gam_ch=1.729E+00 H-L exch Vi= 0.000E+00 Vr= 0.000E+00
# # Mu=-7.406E+00eV kf=2.108E+00 Vint=-1.525E+01eV Rs_int= 1.721
# FMS rfms= 9.0000
# # PATH  Rmax=-1.000,  Keep_limit= 0.00, Heap_limit 0.00  Pwcrit= 2.50%
#  S02=0.950  Temp=   0.00  Debye_temp=   0.00  Global_sig2= 0.00000
#  Energy zero shift, vr, vi    0.00000E+00   0.00000E+00
#  Curved wave amplitude ratio filter   4.000%
#     file         sig2 tot  cw amp ratio   deg  nlegs   reff  inp sig2
#     0/   0 paths used
#  xsedge+ 50, used to normalize mu           2.4284E-04
#  -----------------------------------------------------------------------
#  omega    e    k    mu    mu0     chi     @#
    8983.915    -11.216  -1.000  3.52393E-02  5.61270E-02 -2.08878E-02
    8984.214    -10.917  -0.960  3.70210E-02  6.02049E-02 -2.31839E-02
    8984.501    -10.631  -0.920  3.89350E-02  6.47331E-02 -2.57981E-02
    8984.775    -10.357  -0.880  4.09948E-02  6.97775E-02 -2.87826E-02
    8985.037    -10.094  -0.840  4.32152E-02  7.54143E-02 -3.21991E-02
    8985.287     -9.844  -0.800  4.56124E-02  8.17322E-02 -3.61198E-02
    8985.525     -9.607  -0.760  4.82038E-02  8.88325E-02 -4.06287E-02
    8985.750     -9.381  -0.720  5.10079E-02  9.68297E-02 -4.58219E-02
    8985.964     -9.168  -0.680  5.40433E-02  1.05850E-01 -5.18065E-02
    8986.165     -8.967  -0.640  5.73281E-02  1.16025E-01 -5.86973E-02
    8986.354     -8.778  -0.600  6.08775E-02  1.27487E-01 -6.66093E-02
    8986.531     -8.601  -0.560  6.47016E-02  1.40345E-01 -7.56432E-02
    8986.695     -8.436  -0.520  6.88009E-02  1.54665E-01 -8.58639E-02
    8986.848     -8.284  -0.480  7.31616E-02  1.70431E-01 -9.72696E-02
    8986.988     -8.144  -0.440  7.77498E-02  1.87506E-01 -1.09756E-01
    8987.116     -8.016  -0.400  8.25062E-02  2.05594E-01 -1.23087E-01
    8987.232     -7.900  -0.360  8.73441E-02  2.24230E-01 -1.36886E-01
    8987.335     -7.796  -0.320  9.21523E-02  2.42813E-01 -1.50661E-01
    8987.427     -7.705  -0.280  9.68024E-02  2.60673E-01 -1.63871E-01
    8987.506     -7.626  -0.240  1.01161E-01  2.77164E-01 -1.76004E-01
    8987.573     -7.558  -0.200  1.05098E-01  2.91745E-01 -1.86647E-01
    8987.628     -7.504  -0.160  1.08499E-01  3.04017E-01 -1.95518E-01
    8987.671     -7.461  -0.120  1.11266E-01  3.13723E-01 -2.02457E-01
    8987.701     -7.430  -0.080  1.13320E-01  3.20720E-01 -2.07399E-01
    8987.725     -7.406   0.000  1.15049E-01  3.26344E-01 -2.11295E-01
    8987.780     -7.351   0.120  1.18936E-01  3.39024E-01 -2.20088E-01
    8987.823     -7.309   0.160  1.21988E-01  3.48886E-01 -2.26898E-01
    8987.878     -7.254   0.200  1.26011E-01  3.61501E-01 -2.35490E-01
    8987.945     -7.187   0.240  1.31085E-01  3.76689E-01 -2.45605E-01
    8988.024     -7.107   0.280  1.37344E-01  3.94186E-01 -2.56841E-01
    8988.116     -7.016   0.320  1.44843E-01  4.13505E-01 -2.68662E-01
    8988.219     -6.912   0.360  1.53846E-01  4.34183E-01 -2.80337E-01
    8988.335     -6.796   0.400  1.64467E-01  4.55592E-01 -2.91125E-01
    8988.463     -6.668   0.440  1.76953E-01  4.77237E-01 -3.00285E-01
    8988.603     -6.528   0.480  1.91423E-01  4.98700E-01 -3.07276E-01
    8988.756     -6.376   0.520  2.08005E-01  5.19702E-01 -3.11697E-01
    8988.920     -6.211   0.560  2.26646E-01  5.40104E-01 -3.13459E-01
    8989.097     -6.034   0.600  2.47123E-01  5.59913E-01 -3.12790E-01
    8989.286     -5.846   0.640  2.68499E-01  5.79119E-01 -3.10620E-01
    8989.487     -5.644   0.680  2.88753E-01  5.97812E-01 -3.09059E-01
    8989.701     -5.431   0.720  3.04823E-01  6.16071E-01 -3.11248E-01
    8989.926     -5.205   0.760  3.14610E-01  6.33975E-01 -3.19365E-01
    8990.164     -4.968   0.800  3.19550E-01  6.51593E-01 -3.32043E-01
    8990.414     -4.718   0.840  3.24298E-01  6.68959E-01 -3.44662E-01
    8990.676     -4.456   0.880  3.32617E-01  6.86114E-01 -3.53498E-01
    8990.950     -4.181   0.920  3.44024E-01  7.03085E-01 -3.59061E-01
    8991.237     -3.895   0.960  3.55675E-01  7.19867E-01 -3.64192E-01
    8991.535     -3.596   1.000  3.66274E-01  7.36462E-01 -3.70189E-01
    8991.846     -3.285   1.040  3.74654E-01  7.52848E-01 -3.78193E-01
    8992.169     -2.962   1.080  3.77737E-01  7.69010E-01 -3.91273E-01
    8992.505     -2.627   1.120  3.75119E-01  7.84931E-01 -4.09812E-01
    8992.852     -2.279   1.160  3.72585E-01  8.00567E-01 -4.27982E-01
    8993.212     -1.920   1.200  3.77597E-01  8.15893E-01 -4.38296E-01
    8993.584     -1.548   1.240  3.94583E-01  8.30858E-01 -4.36275E-01
    8993.968     -1.164   1.280  4.24007E-01  8.45434E-01 -4.21427E-01
    8994.364     -0.768   1.320  4.63890E-01  8.59588E-01 -3.95697E-01
    8994.772     -0.359   1.360  5.10735E-01  8.73287E-01 -3.62552E-01
    8995.193      0.061   1.400  5.58639E-01  8.86501E-01 -3.27862E-01
    8995.626      0.494   1.440  6.02246E-01  8.99177E-01 -2.96931E-01
    8996.071      0.939   1.480  6.40814E-01  9.11305E-01 -2.70492E-01
    8996.528      1.397   1.520  6.76749E-01  9.22879E-01 -2.46130E-01
    8996.997      1.866   1.560  7.11067E-01  9.33850E-01 -2.22783E-01
    8997.479      2.347   1.600  7.40301E-01  9.44233E-01 -2.03932E-01
    8997.973      2.841   1.640  7.63976E-01  9.53986E-01 -1.90009E-01
    8998.479      3.347   1.680  7.83464E-01  9.63145E-01 -1.79681E-01
    8998.997      3.865   1.720  8.01075E-01  9.71650E-01 -1.70575E-01
    8999.527      4.396   1.760  8.32207E-01  9.79545E-01 -1.47338E-01
    9000.070      4.938   1.800  8.93183E-01  9.86833E-01 -9.36492E-02
    9000.625      5.493   1.840  9.78680E-01  9.93496E-01 -1.48160E-02
    9001.191      6.060   1.880  1.06667E+00  9.99563E-01  6.71036E-02
    9001.771      6.639   1.920  1.14874E+00  1.00504E+00  1.43698E-01
    9002.362      7.230   1.960  1.22599E+00  1.00996E+00  2.16022E-01
    9002.965      7.834   2.000  1.29432E+00  1.01432E+00  2.80003E-01
    9003.581      8.450   2.040  1.34980E+00  1.01817E+00  3.31629E-01
    9004.209      9.077   2.080  1.38875E+00  1.02150E+00  3.67243E-01
    9004.849      9.718   2.120  1.40272E+00  1.02436E+00  3.78354E-01
    9005.501     10.370   2.160  1.39303E+00  1.02676E+00  3.66266E-01
    9006.166     11.034   2.200  1.37441E+00  1.02872E+00  3.45695E-01
    9006.842     11.711   2.240  1.35939E+00  1.03028E+00  3.29108E-01
    9007.531     12.400   2.280  1.35609E+00  1.03147E+00  3.24628E-01
    9008.232     13.101   2.320  1.36619E+00  1.03231E+00  3.33878E-01
    9008.946     13.814   2.360  1.38275E+00  1.03282E+00  3.49928E-01
    9009.671     14.539   2.400  1.39528E+00  1.03301E+00  3.62272E-01
    9010.409     15.277   2.440  1.39019E+00  1.03296E+00  3.57227E-01
    9011.158     16.027   2.480  1.35524E+00  1.03264E+00  3.22595E-01
    9011.920     16.789   2.520  1.29066E+00  1.03210E+00  2.58557E-01
    9012.695     17.563   2.560  1.22325E+00  1.03136E+00  1.91888E-01
    9013.481     18.349   2.600  1.16986E+00  1.03044E+00  1.39420E-01
    9014.280     19.148   2.640  1.12772E+00  1.02935E+00  9.83672E-02
    9015.090     19.959   2.680  1.09372E+00  1.02812E+00  6.56005E-02
    9015.913     20.782   2.720  1.06572E+00  1.02678E+00  3.89401E-02
    9016.748     21.617   2.760  1.04240E+00  1.02535E+00  1.70588E-02
    9017.596     22.464   2.800  1.02293E+00  1.02383E+00 -9.00001E-04
    9018.455     23.324   2.840  1.00660E+00  1.02224E+00 -1.56467E-02
    9019.327     24.195   2.880  9.92582E-01  1.02061E+00 -2.80249E-02
    9020.211     25.079   2.920  9.79881E-01  1.01895E+00 -3.90724E-02
    9021.107     25.975   2.960  9.67896E-01  1.01727E+00 -4.93708E-02
    9022.015     26.884   3.000  9.56583E-01  1.01557E+00 -5.89916E-02
    9022.936     27.804   3.040  9.46220E-01  1.01386E+00 -6.76425E-02
    9023.868     28.737   3.080  9.37279E-01  1.01220E+00 -7.49182E-02
    9024.813     29.682   3.120  9.30012E-01  1.01054E+00 -8.05315E-02
    9025.770     30.639   3.160  9.24422E-01  1.00893E+00 -8.45051E-02
    9026.740     31.608   3.200  9.20207E-01  1.00735E+00 -8.71446E-02
    9027.721     32.590   3.240  9.17065E-01  1.00582E+00 -8.87554E-02
    9028.715     33.583   3.280  9.14422E-01  1.00436E+00 -8.99362E-02
    9029.721     34.589   3.320  9.11665E-01  1.00295E+00 -9.12831E-02
    9030.739     35.607   3.360  9.08332E-01  1.00163E+00 -9.33022E-02
    9031.769     36.637   3.400  9.03886E-01  1.00035E+00 -9.64687E-02
    9032.811     37.680   3.440  8.98238E-01  9.99177E-01 -1.00938E-01
    9033.866     38.734   3.480  8.91703E-01  9.98081E-01 -1.06378E-01
    9034.933     39.801   3.520  8.85110E-01  9.97069E-01 -1.11960E-01
    9036.012     40.880   3.560  8.79090E-01  9.96165E-01 -1.17075E-01
    9037.103     41.971   3.600  8.74234E-01  9.95323E-01 -1.21089E-01
    9038.206     43.075   3.640  8.71125E-01  9.94589E-01 -1.23464E-01
    9039.322     44.190   3.680  8.70110E-01  9.93942E-01 -1.23831E-01
    9040.450     45.318   3.720  8.71460E-01  9.93404E-01 -1.21944E-01
    9041.589     46.458   3.760  8.75345E-01  9.92933E-01 -1.17588E-01
    9042.742     47.610   3.800  8.81869E-01  9.92592E-01 -1.10723E-01
    9043.906     48.774   3.840  8.90729E-01  9.92318E-01 -1.01589E-01
    9045.082     49.951   3.880  9.01678E-01  9.92151E-01 -9.04722E-02
    9046.271     51.140   3.920  9.14470E-01  9.92069E-01 -7.75986E-02
    9047.472     52.341   3.960  9.28851E-01  9.92072E-01 -6.32206E-02
    9048.685     53.554   4.000  9.44499E-01  9.92161E-01 -4.76626E-02
    9049.910     54.779   4.040  9.61058E-01  9.92357E-01 -3.12988E-02
    9051.148     56.016   4.080  9.77972E-01  9.92634E-01 -1.46628E-02
    9052.398     57.266   4.120  9.94575E-01  9.92972E-01  1.60322E-03
    9053.660     58.528   4.160  1.01029E+00  9.93410E-01  1.68763E-02
    9054.934     59.802   4.200  1.02458E+00  9.93905E-01  3.06713E-02
    9056.220     61.088   4.240  1.03719E+00  9.94475E-01  4.27184E-02
    9057.518     62.387   4.280  1.04829E+00  9.95120E-01  5.31672E-02
    9058.829     63.697   4.320  1.05818E+00  9.95818E-01  6.23598E-02
    9060.152     65.020   4.360  1.06713E+00  9.96586E-01  7.05443E-02
    9061.487     66.355   4.400  1.07516E+00  9.97402E-01  7.77583E-02
    9062.834     67.702   4.440  1.08215E+00  9.98285E-01  8.38633E-02
    9064.193     69.062   4.480  1.08781E+00  9.99190E-01  8.86186E-02
    9065.565     70.433   4.520  1.09187E+00  1.00015E+00  9.17107E-02
    9066.949     71.817   4.560  1.09404E+00  1.00113E+00  9.29096E-02
    9068.345     73.213   4.600  1.09416E+00  1.00215E+00  9.20084E-02
    9069.753     74.621   4.640  1.09218E+00  1.00320E+00  8.89834E-02
    9071.173     76.042   4.680  1.08838E+00  1.00426E+00  8.41192E-02
    9072.606     77.474   4.720  1.08327E+00  1.00535E+00  7.79228E-02
    9074.051     78.919   4.760  1.07739E+00  1.00644E+00  7.09444E-02
    9075.507     80.376   4.800  1.07120E+00  1.00753E+00  6.36637E-02
    9076.977     81.845   4.840  1.06499E+00  1.00863E+00  5.63632E-02
    9078.458     83.326   4.880  1.05892E+00  1.00972E+00  4.92052E-02
    9079.951     84.820   4.920  1.05311E+00  1.01078E+00  4.23362E-02
    9081.457     86.326   4.960  1.04772E+00  1.01185E+00  3.58675E-02
    9082.975     87.844   5.000  1.04272E+00  1.01287E+00  2.98509E-02
    9084.505     89.374   5.040  1.03816E+00  1.01388E+00  2.42797E-02
    9086.047     90.916   5.080  1.03394E+00  1.01487E+00  1.90734E-02
    9087.602     92.470   5.120  1.02998E+00  1.01580E+00  1.41778E-02
    9089.169     94.037   5.160  1.02622E+00  1.01669E+00  9.53516E-03
    9090.747     95.616   5.200  1.02262E+00  1.01756E+00  5.06385E-03
    9092.338     97.207   5.240  1.01906E+00  1.01836E+00  7.02095E-04
    9093.942     98.810   5.280  1.01562E+00  1.01912E+00 -3.50037E-03
    9095.557    100.426   5.320  1.01246E+00  1.01980E+00 -7.34248E-03
    9097.185    102.053   5.360  1.00978E+00  1.02046E+00 -1.06777E-02
    9098.825    103.693   5.400  1.00740E+00  1.02102E+00 -1.36204E-02
    9100.477    105.345   5.440  1.00500E+00  1.02156E+00 -1.65509E-02
    9102.141    107.009   5.480  1.00204E+00  1.02199E+00 -1.99518E-02
    9103.817    108.686   5.520  9.98220E-01  1.02237E+00 -2.41523E-02
    9105.506    110.374   5.560  9.93591E-01  1.02268E+00 -2.90881E-02
    9107.207    112.075   5.600  9.88696E-01  1.02293E+00 -3.42353E-02
    9108.920    113.788   5.640  9.84180E-01  1.02311E+00 -3.89275E-02
    9110.645    115.513   5.680  9.80592E-01  1.02320E+00 -4.26121E-02
    9112.382    117.251   5.720  9.78320E-01  1.02322E+00 -4.49013E-02
    9114.132    119.000   5.760  9.77735E-01  1.02316E+00 -4.54265E-02
    9115.893    120.762   5.800  9.79111E-01  1.02305E+00 -4.39378E-02
    9117.667    122.536   5.840  9.82387E-01  1.02286E+00 -4.04741E-02
    9119.453    124.322   5.880  9.87086E-01  1.02260E+00 -3.55131E-02
    9121.252    126.120   5.920  9.92394E-01  1.02229E+00 -2.98913E-02
    9123.062    127.931   5.960  9.97334E-01  1.02189E+00 -2.45558E-02
    9124.885    129.753   6.000  1.00105E+00  1.02136E+00 -2.03149E-02
