# # comment:                                                     FEFF 9.9.1  
# # Source:
# # Structure
# # Reduced
# # space
# # abc:
# # angles:104.941215
# # sites:
# # POT  SCF 100  7.0000   0, screened core-hole, AFOLP (folp(0)= 1.150)
# # Abs   Z=29 Rmt= 1.210 Rnm= 1.310 K  shell
# # Pot 1 Z=23 Rmt= 1.091 Rnm= 1.310
# # Pot 2 Z=29 Rmt= 1.196 Rnm= 1.306
# # Pot 3 Z=17 Rmt= 1.564 Rnm= 1.631
# # Pot 4 Z= 8 Rmt= 1.026 Rnm= 1.103
# # Gam_ch=1.729E+00 H-L exch Vi= 0.000E+00 Vr= 0.000E+00
# # Mu=-7.941E+00eV kf=2.189E+00 Vint=-1.574E+01eV Rs_int= 1.656
# FMS rfms= 9.0000
# # PATH  Rmax=-1.000,  Keep_limit= 0.00, Heap_limit 0.00  Pwcrit= 2.50%
#  S02=0.950  Temp=   0.00  Debye_temp=   0.00  Global_sig2= 0.00000
#  Energy zero shift, vr, vi    0.00000E+00   0.00000E+00
#  Curved wave amplitude ratio filter   4.000%
#     file         sig2 tot  cw amp ratio   deg  nlegs   reff  inp sig2
#     0/   0 paths used
#  xsedge+ 50, used to normalize mu           2.4483E-04
#  -----------------------------------------------------------------------
#  omega    e    k    mu    mu0     chi     @#
    8983.823    -11.751  -1.000  3.54305E-02  5.36082E-02 -1.81776E-02
    8984.122    -11.453  -0.960  3.71428E-02  5.74600E-02 -2.03172E-02
    8984.408    -11.166  -0.920  3.89701E-02  6.17346E-02 -2.27645E-02
    8984.682    -10.892  -0.880  4.09235E-02  6.64937E-02 -2.55702E-02
    8984.945    -10.630  -0.840  4.30153E-02  7.18088E-02 -2.87934E-02
    8985.195    -10.380  -0.800  4.52594E-02  7.77627E-02 -3.25033E-02
    8985.432    -10.142  -0.760  4.76710E-02  8.44505E-02 -3.67794E-02
    8985.658     -9.916  -0.720  5.02668E-02  9.19793E-02 -4.17125E-02
    8985.871     -9.703  -0.680  5.30642E-02  1.00467E-01 -4.74028E-02
    8986.072     -9.502  -0.640  5.60808E-02  1.10038E-01 -5.39572E-02
    8986.261     -9.313  -0.600  5.93321E-02  1.20814E-01 -6.14819E-02
    8986.438     -9.136  -0.560  6.28293E-02  1.32899E-01 -7.00694E-02
    8986.603     -8.971  -0.520  6.65745E-02  1.46353E-01 -7.97786E-02
    8986.755     -8.819  -0.480  7.05552E-02  1.61162E-01 -9.06073E-02
    8986.895     -8.679  -0.440  7.47379E-02  1.77197E-01 -1.02459E-01
    8987.023     -8.551  -0.400  7.90624E-02  1.94180E-01 -1.15117E-01
    8987.139     -8.435  -0.360  8.34409E-02  2.11676E-01 -1.28235E-01
    8987.243     -8.331  -0.320  8.77621E-02  2.29121E-01 -1.41358E-01
    8987.334     -8.240  -0.280  9.19025E-02  2.45885E-01 -1.53983E-01
    8987.413     -8.161  -0.240  9.57403E-02  2.61365E-01 -1.65625E-01
    8987.481     -8.094  -0.200  9.91662E-02  2.75053E-01 -1.75886E-01
    8987.535     -8.039  -0.160  1.02090E-01  2.86573E-01 -1.84483E-01
    8987.578     -7.996  -0.120  1.04441E-01  2.95685E-01 -1.91244E-01
    8987.609     -7.966  -0.080  1.06166E-01  3.02253E-01 -1.96087E-01
    8987.633     -7.941   0.000  1.07590E-01  3.07533E-01 -1.99943E-01
    8987.688     -7.886   0.120  1.10877E-01  3.19438E-01 -2.08562E-01
    8987.730     -7.844   0.160  1.13423E-01  3.28700E-01 -2.15278E-01
    8987.785     -7.789   0.200  1.16750E-01  3.40547E-01 -2.23797E-01
    8987.852     -7.722   0.240  1.20856E-01  3.54809E-01 -2.33953E-01
    8987.932     -7.643   0.280  1.25821E-01  3.71239E-01 -2.45418E-01
    8988.023     -7.551   0.320  1.31623E-01  3.89423E-01 -2.57800E-01
    8988.127     -7.447   0.360  1.38288E-01  4.08845E-01 -2.70557E-01
    8988.243     -7.332   0.400  1.45804E-01  4.29000E-01 -2.83196E-01
    8988.371     -7.204   0.440  1.54043E-01  4.49365E-01 -2.95323E-01
    8988.511     -7.063   0.480  1.62831E-01  4.69587E-01 -3.06756E-01
    8988.663     -6.911   0.520  1.71814E-01  4.89408E-01 -3.17594E-01
    8988.828     -6.746   0.560  1.80699E-01  5.08695E-01 -3.27996E-01
    8989.005     -6.570   0.600  1.89404E-01  5.27416E-01 -3.38012E-01
    8989.194     -6.381   0.640  1.98320E-01  5.45622E-01 -3.47302E-01
    8989.395     -6.180   0.680  2.08061E-01  5.63396E-01 -3.55335E-01
    8989.608     -5.966   0.720  2.18987E-01  5.80774E-01 -3.61787E-01
    8989.834     -5.741   0.760  2.31075E-01  5.97849E-01 -3.66774E-01
    8990.071     -5.503   0.800  2.44038E-01  6.14685E-01 -3.70647E-01
    8990.321     -5.253   0.840  2.57817E-01  6.31313E-01 -3.73495E-01
    8990.583     -4.991   0.880  2.73379E-01  6.47813E-01 -3.74434E-01
    8990.858     -4.716   0.920  2.92904E-01  6.64168E-01 -3.71264E-01
    8991.144     -4.430   0.960  3.19331E-01  6.80373E-01 -3.61042E-01
    8991.443     -4.131   1.000  3.55283E-01  6.96472E-01 -3.41189E-01
    8991.754     -3.820   1.040  4.02517E-01  7.12440E-01 -3.09922E-01
    8992.077     -3.497   1.080  4.63284E-01  7.28224E-01 -2.64941E-01
    8992.412     -3.162   1.120  5.40762E-01  7.43827E-01 -2.03065E-01
    8992.760     -2.815   1.160  6.33974E-01  7.59226E-01 -1.25252E-01
    8993.119     -2.455   1.200  7.27382E-01  7.74377E-01 -4.69950E-02
    8993.491     -2.083   1.240  7.83398E-01  7.89251E-01 -5.85302E-03
    8993.875     -1.699   1.280  7.70523E-01  8.03796E-01 -3.32731E-02
    8994.271     -1.303   1.320  7.10015E-01  8.18024E-01 -1.08010E-01
    8994.680     -0.894   1.360  6.46866E-01  8.31841E-01 -1.84975E-01
    8995.101     -0.474   1.400  6.03566E-01  8.45256E-01 -2.41690E-01
    8995.533     -0.041   1.440  5.85436E-01  8.58237E-01 -2.72801E-01
    8995.978      0.404   1.480  5.90976E-01  8.70735E-01 -2.79760E-01
    8996.436      0.861   1.520  6.13049E-01  8.82761E-01 -2.69711E-01
    8996.905      1.331   1.560  6.43548E-01  8.94242E-01 -2.50693E-01
    8997.386      1.812   1.600  6.81702E-01  9.05214E-01 -2.23513E-01
    8997.880      2.306   1.640  7.29844E-01  9.15613E-01 -1.85769E-01
    8998.386      2.812   1.680  7.83918E-01  9.25474E-01 -1.41556E-01
    8998.904      3.330   1.720  8.35948E-01  9.34753E-01 -9.88050E-02
    8999.435      3.861   1.760  8.87768E-01  9.43472E-01 -5.57046E-02
    8999.977      4.403   1.800  9.56394E-01  9.51633E-01  4.76184E-03
    9000.532      4.958   1.840  1.06085E+00  9.59215E-01  1.01632E-01
    9001.099      5.525   1.880  1.20636E+00  9.66224E-01  2.40132E-01
    9001.678      6.104   1.920  1.36803E+00  9.72705E-01  3.95327E-01
    9002.269      6.695   1.960  1.48396E+00  9.78645E-01  5.05317E-01
    9002.873      7.299   2.000  1.52059E+00  9.84051E-01  5.36542E-01
    9003.489      7.914   2.040  1.51848E+00  9.88954E-01  5.29526E-01
    9004.116      8.542   2.080  1.51514E+00  9.93360E-01  5.21784E-01
    9004.757      9.182   2.120  1.50210E+00  9.97301E-01  5.04798E-01
    9005.409      9.835   2.160  1.46099E+00  1.00079E+00  4.60202E-01
    9006.073     10.499   2.200  1.38449E+00  1.00386E+00  3.80635E-01
    9006.750     11.176   2.240  1.28030E+00  1.00651E+00  2.73791E-01
    9007.439     11.865   2.280  1.17242E+00  1.00878E+00  1.63639E-01
    9008.140     12.566   2.320  1.08635E+00  1.01069E+00  7.56567E-02
    9008.853     13.279   2.360  1.03487E+00  1.01226E+00  2.26040E-02
    9009.578     14.004   2.400  1.01645E+00  1.01351E+00  2.94554E-03
    9010.316     14.742   2.440  1.02211E+00  1.01447E+00  7.64715E-03
    9011.066     15.492   2.480  1.03934E+00  1.01516E+00  2.41783E-02
    9011.828     16.254   2.520  1.05487E+00  1.01561E+00  3.92608E-02
    9012.602     17.028   2.560  1.05689E+00  1.01584E+00  4.10440E-02
    9013.388     17.814   2.600  1.04514E+00  1.01585E+00  2.92922E-02
    9014.187     18.613   2.640  1.03583E+00  1.01568E+00  2.01537E-02
    9014.998     19.424   2.680  1.03491E+00  1.01536E+00  1.95449E-02
    9015.821     20.247   2.720  1.03840E+00  1.01487E+00  2.35336E-02
    9016.656     21.082   2.760  1.04125E+00  1.01427E+00  2.69776E-02
    9017.503     21.929   2.800  1.03934E+00  1.01355E+00  2.57832E-02
    9018.363     22.789   2.840  1.03062E+00  1.01275E+00  1.78759E-02
    9019.234     23.660   2.880  1.01565E+00  1.01186E+00  3.79021E-03
    9020.118     24.544   2.920  9.96105E-01  1.01089E+00 -1.47871E-02
    9021.014     25.440   2.960  9.74203E-01  1.00988E+00 -3.56762E-02
    9021.923     26.349   3.000  9.51743E-01  1.00885E+00 -5.71039E-02
    9022.843     27.269   3.040  9.30099E-01  1.00776E+00 -7.76597E-02
    9023.776     28.202   3.080  9.10837E-01  1.00668E+00 -9.58442E-02
    9024.721     29.147   3.120  8.95127E-01  1.00558E+00 -1.10453E-01
    9025.678     30.104   3.160  8.83518E-01  1.00448E+00 -1.20958E-01
    9026.647     31.073   3.200  8.76142E-01  1.00340E+00 -1.27259E-01
    9027.629     32.054   3.240  8.72821E-01  1.00233E+00 -1.29512E-01
    9028.622     33.048   3.280  8.73017E-01  1.00130E+00 -1.28282E-01
    9029.628     34.054   3.320  8.75986E-01  1.00030E+00 -1.24317E-01
    9030.646     35.072   3.360  8.80887E-01  9.99346E-01 -1.18459E-01
    9031.676     36.102   3.400  8.86647E-01  9.98431E-01 -1.11783E-01
    9032.719     37.145   3.440  8.92320E-01  9.97581E-01 -1.05261E-01
    9033.773     38.199   3.480  8.97230E-01  9.96756E-01 -9.95259E-02
    9034.840     39.266   3.520  9.01170E-01  9.95999E-01 -9.48289E-02
    9035.919     40.345   3.560  9.04185E-01  9.95312E-01 -9.11269E-02
    9037.010     41.436   3.600  9.06877E-01  9.94677E-01 -8.77998E-02
    9038.114     42.540   3.640  9.10125E-01  9.94114E-01 -8.39890E-02
    9039.229     43.655   3.680  9.14702E-01  9.93601E-01 -7.88987E-02
    9040.357     44.783   3.720  9.21193E-01  9.93163E-01 -7.19701E-02
    9041.497     45.923   3.760  9.29935E-01  9.92802E-01 -6.28664E-02
    9042.649     47.075   3.800  9.40953E-01  9.92514E-01 -5.15609E-02
    9043.813     48.239   3.840  9.53921E-01  9.92278E-01 -3.83576E-02
    9044.990     49.416   3.880  9.68368E-01  9.92115E-01 -2.37475E-02
    9046.179     50.605   3.920  9.83711E-01  9.92004E-01 -8.29320E-03
    9047.380     51.805   3.960  9.99442E-01  9.91966E-01  7.47530E-03
    9048.593     53.019   4.000  1.01520E+00  9.92001E-01  2.31950E-02
    9049.818     54.244   4.040  1.03064E+00  9.92086E-01  3.85552E-02
    9051.055     55.481   4.080  1.04529E+00  9.92242E-01  5.30528E-02
    9052.305     56.731   4.120  1.05840E+00  9.92444E-01  6.59590E-02
    9053.567     57.993   4.160  1.06918E+00  9.92693E-01  7.64829E-02
    9054.841     59.267   4.200  1.07692E+00  9.93009E-01  8.39156E-02
    9056.127     60.553   4.240  1.08123E+00  9.93370E-01  8.78622E-02
    9057.426     61.852   4.280  1.08225E+00  9.93775E-01  8.84778E-02
    9058.736     63.162   4.320  1.08063E+00  9.94221E-01  8.64057E-02
    9060.059     64.485   4.360  1.07734E+00  9.94727E-01  8.26134E-02
    9061.394     65.820   4.400  1.07346E+00  9.95251E-01  7.82047E-02
    9062.741     67.167   4.440  1.06996E+00  9.95808E-01  7.41499E-02
    9064.101     68.527   4.480  1.06735E+00  9.96377E-01  7.09777E-02
    9065.472     69.898   4.520  1.06565E+00  9.96979E-01  6.86725E-02
    9066.856     71.282   4.560  1.06438E+00  9.97612E-01  6.67723E-02
    9068.252     72.678   4.600  1.06293E+00  9.98254E-01  6.46775E-02
    9069.660     74.086   4.640  1.06088E+00  9.98922E-01  6.19576E-02
    9071.081     75.507   4.680  1.05811E+00  9.99571E-01  5.85350E-02
    9072.513     76.939   4.720  1.05478E+00  1.00024E+00  5.45322E-02
    9073.958     78.384   4.760  1.05105E+00  1.00092E+00  5.01294E-02
    9075.415     79.841   4.800  1.04699E+00  1.00159E+00  4.54007E-02
    9076.884     81.310   4.840  1.04237E+00  1.00223E+00  4.01386E-02
    9078.365     82.791   4.880  1.03673E+00  1.00289E+00  3.38371E-02
    9079.859     84.285   4.920  1.02940E+00  1.00353E+00  2.58699E-02
    9081.365     85.790   4.960  1.01994E+00  1.00413E+00  1.58131E-02
    9082.883     87.308   5.000  1.00855E+00  1.00472E+00  3.83302E-03
    9084.413     88.838   5.040  9.95973E-01  1.00530E+00 -9.32439E-03
    9085.955     90.381   5.080  9.83230E-01  1.00584E+00 -2.26115E-02
    9087.509     91.935   5.120  9.71369E-01  1.00635E+00 -3.49798E-02
    9089.076     93.502   5.160  9.61299E-01  1.00682E+00 -4.55198E-02
    9090.655     95.081   5.200  9.53718E-01  1.00727E+00 -5.35544E-02
    9092.246     96.672   5.240  9.48857E-01  1.00766E+00 -5.88054E-02
    9093.849     98.275   5.280  9.46643E-01  1.00803E+00 -6.13904E-02
    9095.465     99.890   5.320  9.46597E-01  1.00834E+00 -6.17424E-02
    9097.092    101.518   5.360  9.48272E-01  1.00860E+00 -6.03318E-02
    9098.732    103.158   5.400  9.51215E-01  1.00885E+00 -5.76329E-02
    9100.384    104.810   5.440  9.54925E-01  1.00903E+00 -5.41016E-02
    9102.048    106.474   5.480  9.58975E-01  1.00916E+00 -5.01856E-02
    9103.725    108.150   5.520  9.63035E-01  1.00925E+00 -4.62174E-02
    9105.413    109.839   5.560  9.66974E-01  1.00930E+00 -4.23230E-02
    9107.114    111.540   5.600  9.70942E-01  1.00928E+00 -3.83333E-02
    9108.827    113.253   5.640  9.75369E-01  1.00921E+00 -3.38413E-02
    9110.552    114.978   5.680  9.80709E-01  1.00913E+00 -2.84165E-02
    9112.290    116.715   5.720  9.87047E-01  1.00897E+00 -2.19248E-02
    9114.039    118.465   5.760  9.94092E-01  1.00875E+00 -1.46611E-02
    9115.801    120.227   5.800  1.00122E+00  1.00852E+00 -7.29269E-03
    9117.575    122.001   5.840  1.00752E+00  1.00824E+00 -7.15432E-04
    9119.361    123.787   5.880  1.01192E+00  1.00790E+00  4.02131E-03
    9121.159    125.585   5.920  1.01352E+00  1.00755E+00  5.97317E-03
    9122.970    127.395   5.960  1.01196E+00  1.00713E+00  4.83412E-03
    9124.792    129.218   6.000  1.00806E+00  1.00667E+00  1.38797E-03
