# # comment:                                                     FEFF 9.9.1  
# # Source:
# # Structure
# # Reduced
# # space
# # abc:
# # angles:
# # sites:
# # POT  SCF 100  7.0000   0, screened core-hole, AFOLP (folp(0)= 1.150)
# # Abs   Z=29 Rmt= 1.301 Rnm= 1.380 K  shell
# # Pot 1 Z= 3 Rmt= 1.372 Rnm= 1.435
# # Pot 2 Z=29 Rmt= 1.285 Rnm= 1.369
# # Pot 3 Z= 6 Rmt= 0.716 Rnm= 0.928
# # Pot 4 Z= 8 Rmt= 0.852 Rnm= 1.015
# # Gam_ch=1.729E+00 H-L exch Vi= 0.000E+00 Vr= 0.000E+00
# # Mu=-6.445E+00eV kf=2.505E+00 Vint=-1.753E+01eV Rs_int= 1.448
# FMS rfms= 9.0000
# # PATH  Rmax=-1.000,  Keep_limit= 0.00, Heap_limit 0.00  Pwcrit= 2.50%
#  S02=0.950  Temp=   0.00  Debye_temp=   0.00  Global_sig2= 0.00000
#  Energy zero shift, vr, vi    0.00000E+00   0.00000E+00
#  Curved wave amplitude ratio filter   4.000%
#     file         sig2 tot  cw amp ratio   deg  nlegs   reff  inp sig2
#     0/   0 paths used
#  xsedge+ 50, used to normalize mu           2.4850E-04
#  -----------------------------------------------------------------------
#  omega    e    k    mu    mu0     chi     @#
    8983.676    -10.255  -1.000  5.36846E-02  5.45051E-02 -8.20527E-04
    8983.975     -9.956  -0.960  5.77993E-02  5.85163E-02 -7.16984E-04
    8984.261     -9.670  -0.920  6.24210E-02  6.29801E-02 -5.59096E-04
    8984.536     -9.396  -0.880  6.76330E-02  6.79642E-02 -3.31233E-04
    8984.798     -9.133  -0.840  7.35330E-02  7.35470E-02 -1.40058E-05
    8985.048     -8.883  -0.800  8.02363E-02  7.98199E-02  4.16407E-04
    8985.285     -8.646  -0.760  8.78765E-02  8.68876E-02  9.88886E-04
    8985.511     -8.420  -0.720  9.66065E-02  9.48687E-02  1.73780E-03
    8985.724     -8.207  -0.680  1.06597E-01  1.03894E-01  2.70296E-03
    8985.925     -8.006  -0.640  1.18030E-01  1.14102E-01  3.92862E-03
    8986.114     -7.817  -0.600  1.31089E-01  1.25628E-01  5.46089E-03
    8986.291     -7.640  -0.560  1.45931E-01  1.38589E-01  7.34269E-03
    8986.456     -7.475  -0.520  1.62660E-01  1.53054E-01  9.60537E-03
    8986.608     -7.323  -0.480  1.81268E-01  1.69011E-01  1.22570E-02
    8986.748     -7.183  -0.440  2.01586E-01  1.86317E-01  1.52688E-02
    8986.876     -7.055  -0.400  2.23234E-01  2.04670E-01  1.85644E-02
    8986.992     -6.939  -0.360  2.45609E-01  2.23591E-01  2.20177E-02
    8987.096     -6.835  -0.320  2.67925E-01  2.42460E-01  2.54658E-02
    8987.187     -6.744  -0.280  2.89322E-01  2.60587E-01  2.87357E-02
    8987.267     -6.665  -0.240  3.08987E-01  2.77312E-01  3.16757E-02
    8987.334     -6.597  -0.200  3.26262E-01  2.92083E-01  3.41791E-02
    8987.388     -6.543  -0.160  3.40690E-01  3.04500E-01  3.61907E-02
    8987.431     -6.500  -0.120  3.52001E-01  3.14308E-01  3.76927E-02
    8987.462     -6.469  -0.080  3.60056E-01  3.21370E-01  3.86860E-02
    8987.486     -6.445   0.000  3.66337E-01  3.27040E-01  3.92974E-02
    8987.541     -6.390   0.120  3.80773E-01  3.39819E-01  4.09538E-02
    8987.584     -6.348   0.160  3.92123E-01  3.49740E-01  4.23838E-02
    8987.638     -6.293   0.200  4.06575E-01  3.62373E-01  4.42026E-02
    8987.705     -6.226   0.240  4.23853E-01  3.77552E-01  4.63007E-02
    8987.785     -6.146   0.280  4.43453E-01  3.94952E-01  4.85009E-02
    8987.876     -6.055   0.320  4.64622E-01  4.14081E-01  5.05409E-02
    8987.980     -5.951   0.360  4.86414E-01  4.34361E-01  5.20538E-02
    8988.096     -5.835   0.400  5.07725E-01  4.55173E-01  5.25519E-02
    8988.224     -5.707   0.440  5.27303E-01  4.75956E-01  5.13471E-02
    8988.364     -5.567   0.480  5.43779E-01  4.96238E-01  4.75408E-02
    8988.516     -5.415   0.520  5.55859E-01  5.15786E-01  4.00725E-02
    8988.681     -5.250   0.560  5.62375E-01  5.34413E-01  2.79617E-02
    8988.858     -5.073   0.600  5.62883E-01  5.52149E-01  1.07348E-02
    8989.047     -4.885   0.640  5.58001E-01  5.69019E-01 -1.10182E-02
    8989.248     -4.683   0.680  5.49928E-01  5.85130E-01 -3.52018E-02
    8989.461     -4.470   0.720  5.41887E-01  6.00601E-01 -5.87141E-02
    8989.687     -4.244   0.760  5.36222E-01  6.15511E-01 -7.92886E-02
    8989.924     -4.007   0.800  5.32587E-01  6.29972E-01 -9.73855E-02
    8990.174     -3.757   0.840  5.28175E-01  6.44083E-01 -1.15908E-01
    8990.436     -3.495   0.880  5.20465E-01  6.57905E-01 -1.37440E-01
    8990.711     -3.220   0.920  5.09718E-01  6.71486E-01 -1.61768E-01
    8990.997     -2.934   0.960  4.98982E-01  6.84884E-01 -1.85902E-01
    8991.296     -2.635   1.000  4.92171E-01  6.98102E-01 -2.05931E-01
    8991.607     -2.324   1.040  4.92098E-01  7.11177E-01 -2.19079E-01
    8991.930     -2.001   1.080  4.99263E-01  7.24115E-01 -2.24852E-01
    8992.265     -1.666   1.120  5.13129E-01  7.36916E-01 -2.23788E-01
    8992.613     -1.318   1.160  5.33353E-01  7.49596E-01 -2.16242E-01
    8992.972     -0.959   1.200  5.58752E-01  7.62120E-01 -2.03368E-01
    8993.344     -0.587   1.240  5.87591E-01  7.74498E-01 -1.86907E-01
    8993.728     -0.203   1.280  6.19825E-01  7.86732E-01 -1.66907E-01
    8994.125      0.193   1.320  6.57233E-01  7.98761E-01 -1.41527E-01
    8994.533      0.602   1.360  7.00708E-01  8.10603E-01 -1.09895E-01
    8994.954      1.022   1.400  7.44557E-01  8.22235E-01 -7.76782E-02
    8995.386      1.455   1.440  7.78130E-01  8.33634E-01 -5.55032E-02
    8995.831      1.900   1.480  7.99338E-01  8.44751E-01 -4.54131E-02
    8996.289      2.358   1.520  8.17367E-01  8.55623E-01 -3.82555E-02
    8996.758      2.827   1.560  8.36672E-01  8.66202E-01 -2.95299E-02
    8997.240      3.308   1.600  8.50898E-01  8.76464E-01 -2.55652E-02
    8997.733      3.802   1.640  8.57844E-01  8.86402E-01 -2.85581E-02
    8998.239      4.308   1.680  8.64360E-01  8.95990E-01 -3.16299E-02
    8998.757      4.826   1.720  8.77340E-01  9.05223E-01 -2.78836E-02
    8999.288      5.357   1.760  8.99693E-01  9.14098E-01 -1.44045E-02
    8999.830      5.899   1.800  9.28338E-01  9.22590E-01  5.74823E-03
    9000.385      6.454   1.840  9.61979E-01  9.30715E-01  3.12647E-02
    9000.952      7.021   1.880  9.99959E-01  9.38410E-01  6.15485E-02
    9001.531      7.600   1.920  1.03496E+00  9.45737E-01  8.92216E-02
    9002.122      8.191   1.960  1.06466E+00  9.52632E-01  1.12033E-01
    9002.726      8.795   2.000  1.09981E+00  9.59153E-01  1.40652E-01
    9003.342      9.411   2.040  1.14360E+00  9.65244E-01  1.78356E-01
    9003.970     10.038   2.080  1.18642E+00  9.70946E-01  2.15473E-01
    9004.610     10.679   2.120  1.21770E+00  9.76241E-01  2.41458E-01
    9005.262     11.331   2.160  1.22869E+00  9.81130E-01  2.47558E-01
    9005.926     11.995   2.200  1.21463E+00  9.85639E-01  2.28991E-01
    9006.603     12.672   2.240  1.18439E+00  9.89772E-01  1.94620E-01
    9007.292     13.361   2.280  1.15974E+00  9.93533E-01  1.66211E-01
    9007.993     14.062   2.320  1.15433E+00  9.96928E-01  1.57400E-01
    9008.706     14.775   2.360  1.16103E+00  9.99983E-01  1.61046E-01
    9009.432     15.500   2.400  1.16383E+00  1.00268E+00  1.61144E-01
    9010.169     16.238   2.440  1.15632E+00  1.00505E+00  1.51263E-01
    9010.919     16.988   2.480  1.13776E+00  1.00713E+00  1.30636E-01
    9011.681     17.750   2.520  1.10847E+00  1.00888E+00  9.95841E-02
    9012.455     18.524   2.560  1.07399E+00  1.01038E+00  6.36121E-02
    9013.241     19.310   2.600  1.04161E+00  1.01159E+00  3.00157E-02
    9014.040     20.109   2.640  1.01614E+00  1.01253E+00  3.61031E-03
    9014.851     20.920   2.680  9.98685E-01  1.01325E+00 -1.45651E-02
    9015.674     21.743   2.720  9.85896E-01  1.01373E+00 -2.78375E-02
    9016.509     22.578   2.760  9.74903E-01  1.01401E+00 -3.91059E-02
    9017.356     23.425   2.800  9.66438E-01  1.01410E+00 -4.76668E-02
    9018.216     24.285   2.840  9.60815E-01  1.01401E+00 -5.31916E-02
    9019.088     25.156   2.880  9.55444E-01  1.01374E+00 -5.82990E-02
    9019.971     26.040   2.920  9.50185E-01  1.01332E+00 -6.31356E-02
    9020.868     26.936   2.960  9.46253E-01  1.01277E+00 -6.65160E-02
    9021.776     27.845   3.000  9.44093E-01  1.01209E+00 -6.79990E-02
    9022.696     28.765   3.040  9.43286E-01  1.01130E+00 -6.80117E-02
    9023.629     29.698   3.080  9.43255E-01  1.01041E+00 -6.71589E-02
    9024.574     30.643   3.120  9.43726E-01  1.00944E+00 -6.57181E-02
    9025.531     31.600   3.160  9.44704E-01  1.00840E+00 -6.36919E-02
    9026.500     32.569   3.200  9.45960E-01  1.00728E+00 -6.13152E-02
    9027.482     33.551   3.240  9.47191E-01  1.00613E+00 -5.89367E-02
    9028.475     34.544   3.280  9.48053E-01  1.00492E+00 -5.68657E-02
    9029.481     35.550   3.320  9.48399E-01  1.00369E+00 -5.52932E-02
    9030.499     36.568   3.360  9.48287E-01  1.00243E+00 -5.41473E-02
    9031.529     37.598   3.400  9.48059E-01  1.00117E+00 -5.31086E-02
    9032.572     38.641   3.440  9.48118E-01  9.99898E-01 -5.17801E-02
    9033.626     39.695   3.480  9.48727E-01  9.98629E-01 -4.99023E-02
    9034.693     40.762   3.520  9.50208E-01  9.97364E-01 -4.71559E-02
    9035.772     41.841   3.560  9.52781E-01  9.96126E-01 -4.33446E-02
    9036.863     42.932   3.600  9.56298E-01  9.94897E-01 -3.85990E-02
    9037.967     44.036   3.640  9.60428E-01  9.93701E-01 -3.32734E-02
    9039.082     45.151   3.680  9.64705E-01  9.92544E-01 -2.78384E-02
    9040.210     46.279   3.720  9.68708E-01  9.91425E-01 -2.27164E-02
    9041.350     47.419   3.760  9.72237E-01  9.90346E-01 -1.81089E-02
    9042.502     48.571   3.800  9.75354E-01  9.89310E-01 -1.39559E-02
    9043.666     49.735   3.840  9.78179E-01  9.88340E-01 -1.01614E-02
    9044.843     50.912   3.880  9.80770E-01  9.87417E-01 -6.64696E-03
    9046.032     52.101   3.920  9.83158E-01  9.86539E-01 -3.38162E-03
    9047.233     53.302   3.960  9.85390E-01  9.85731E-01 -3.41933E-04
    9048.446     54.515   4.000  9.87509E-01  9.84995E-01  2.51387E-03
    9049.671     55.740   4.040  9.89602E-01  9.84307E-01  5.29536E-03
    9050.909     56.977   4.080  9.91771E-01  9.83668E-01  8.10354E-03
    9052.158     58.227   4.120  9.94095E-01  9.83101E-01  1.09941E-02
    9053.420     59.489   4.160  9.96629E-01  9.82608E-01  1.40216E-02
    9054.694     60.763   4.200  9.99453E-01  9.82187E-01  1.72662E-02
    9055.980     62.049   4.240  1.00264E+00  9.81816E-01  2.08250E-02
    9057.279     63.348   4.280  1.00627E+00  9.81494E-01  2.47731E-02
    9058.589     64.658   4.320  1.01038E+00  9.81243E-01  2.91362E-02
    9059.912     65.981   4.360  1.01490E+00  9.81065E-01  3.38336E-02
    9061.247     67.316   4.400  1.01970E+00  9.80957E-01  3.87437E-02
    9062.594     68.663   4.440  1.02466E+00  9.80877E-01  4.37796E-02
    9063.954     70.023   4.480  1.02966E+00  9.80864E-01  4.88010E-02
    9065.325     71.394   4.520  1.03440E+00  9.80919E-01  5.34812E-02
    9066.709     72.778   4.560  1.03831E+00  9.81021E-01  5.72866E-02
    9068.105     74.174   4.600  1.04079E+00  9.81166E-01  5.96199E-02
    9069.513     75.582   4.640  1.04141E+00  9.81354E-01  6.00523E-02
    9070.934     77.003   4.680  1.04014E+00  9.81605E-01  5.85305E-02
    9072.366     78.435   4.720  1.03719E+00  9.81875E-01  5.53116E-02
    9073.811     79.880   4.760  1.03291E+00  9.82204E-01  5.07092E-02
    9075.268     81.337   4.800  1.02746E+00  9.82550E-01  4.49149E-02
    9076.737     82.806   4.840  1.02086E+00  9.82930E-01  3.79318E-02
    9078.218     84.287   4.880  1.01298E+00  9.83344E-01  2.96389E-02
    9079.712     85.781   4.920  1.00380E+00  9.83769E-01  2.00266E-02
    9081.218     87.287   4.960  9.93585E-01  9.84224E-01  9.36173E-03
    9082.736     88.805   5.000  9.82894E-01  9.84686E-01 -1.79278E-03
    9084.266     90.335   5.040  9.72439E-01  9.85177E-01 -1.27378E-02
    9085.808     91.877   5.080  9.62778E-01  9.85673E-01 -2.28952E-02
    9087.362     93.431   5.120  9.54252E-01  9.86171E-01 -3.19188E-02
    9088.929     94.998   5.160  9.47011E-01  9.86670E-01 -3.96591E-02
    9090.508     96.577   5.200  9.41198E-01  9.87190E-01 -4.59926E-02
    9092.099     98.168   5.240  9.36939E-01  9.87685E-01 -5.07463E-02
    9093.702     99.771   5.280  9.34423E-01  9.88152E-01 -5.37295E-02
    9095.318    101.387   5.320  9.33785E-01  9.88635E-01 -5.48494E-02
    9096.945    103.014   5.360  9.34909E-01  9.89090E-01 -5.41804E-02
    9098.585    104.654   5.400  9.37542E-01  9.89535E-01 -5.19929E-02
    9100.237    106.306   5.440  9.41253E-01  9.89948E-01 -4.86950E-02
    9101.901    107.970   5.480  9.45637E-01  9.90326E-01 -4.46884E-02
    9103.578    109.647   5.520  9.50436E-01  9.90691E-01 -4.02545E-02
    9105.266    111.335   5.560  9.55470E-01  9.91019E-01 -3.55495E-02
    9106.967    113.036   5.600  9.60662E-01  9.91310E-01 -3.06483E-02
    9108.680    114.749   5.640  9.65980E-01  9.91562E-01 -2.55818E-02
    9110.405    116.474   5.680  9.71488E-01  9.91776E-01 -2.02872E-02
    9112.143    118.212   5.720  9.77353E-01  9.91972E-01 -1.46192E-02
    9113.892    119.961   5.760  9.83684E-01  9.92105E-01 -8.42183E-03
    9115.654    121.723   5.800  9.90508E-01  9.92197E-01 -1.68910E-03
    9117.428    123.497   5.840  9.97557E-01  9.92247E-01  5.31054E-03
    9119.214    125.283   5.880  1.00429E+00  9.92256E-01  1.20362E-02
    9121.012    127.081   5.920  1.01006E+00  9.92224E-01  1.78332E-02
    9122.823    128.892   5.960  1.01428E+00  9.92143E-01  2.21327E-02
    9124.645    130.714   6.000  1.01654E+00  9.91964E-01  2.45726E-02
