# # comment:                                                     FEFF 9.9.1  
# # Source:
# # Structure
# # Reduced
# # space
# # abc:
# # angles:
# # sites:
# # POT  SCF 100  7.0000   0, screened core-hole, AFOLP (folp(0)= 1.150)
# # Abs   Z=29 Rmt= 1.279 Rnm= 1.354 K  shell
# # Pot 1 Z=25 Rmt= 1.311 Rnm= 1.411
# # Pot 2 Z=29 Rmt= 1.270 Rnm= 1.349
# # Pot 3 Z= 8 Rmt= 1.033 Rnm= 1.103
# # Gam_ch=1.729E+00 H-L exch Vi= 0.000E+00 Vr= 0.000E+00
# # Mu=-1.064E+01eV kf=2.163E+00 Vint=-1.791E+01eV Rs_int= 1.676
# FMS rfms= 9.0000
# # PATH  Rmax=-1.000,  Keep_limit= 0.00, Heap_limit 0.00  Pwcrit= 2.50%
#  S02=0.950  Temp=   0.00  Debye_temp=   0.00  Global_sig2= 0.00000
#  Energy zero shift, vr, vi    0.00000E+00   0.00000E+00
#  Curved wave amplitude ratio filter   4.000%
#     file         sig2 tot  cw amp ratio   deg  nlegs   reff  inp sig2
#     0/   0 paths used
#  xsedge+ 50, used to normalize mu           2.5003E-04
#  -----------------------------------------------------------------------
#  omega    e    k    mu    mu0     chi     @#
    8984.169    -14.445  -1.000  3.13519E-02  4.48010E-02 -1.34492E-02
    8984.467    -14.146  -0.960  3.28120E-02  4.78008E-02 -1.49888E-02
    8984.754    -13.860  -0.920  3.43721E-02  5.11142E-02 -1.67422E-02
    8985.028    -13.586  -0.880  3.60427E-02  5.47859E-02 -1.87432E-02
    8985.290    -13.323  -0.840  3.78359E-02  5.88677E-02 -2.10318E-02
    8985.540    -13.073  -0.800  3.97654E-02  6.34193E-02 -2.36539E-02
    8985.778    -12.836  -0.760  4.18466E-02  6.85092E-02 -2.66626E-02
    8986.003    -12.610  -0.720  4.40966E-02  7.42148E-02 -3.01181E-02
    8986.217    -12.397  -0.680  4.65337E-02  8.06205E-02 -3.40869E-02
    8986.418    -12.196  -0.640  4.91763E-02  8.78157E-02 -3.86394E-02
    8986.607    -12.007  -0.600  5.20418E-02  9.58873E-02 -4.38455E-02
    8986.784    -11.830  -0.560  5.51428E-02  1.04909E-01 -4.97663E-02
    8986.948    -11.665  -0.520  5.84827E-02  1.14924E-01 -5.64409E-02
    8987.101    -11.513  -0.480  6.20496E-02  1.25918E-01 -6.38687E-02
    8987.241    -11.373  -0.440  6.58089E-02  1.37798E-01 -7.19887E-02
    8987.369    -11.245  -0.400  6.96976E-02  1.50359E-01 -8.06611E-02
    8987.485    -11.129  -0.360  7.36239E-02  1.63285E-01 -8.96608E-02
    8987.588    -11.025  -0.320  7.74740E-02  1.76164E-01 -9.86903E-02
    8987.680    -10.934  -0.280  8.11259E-02  1.88539E-01 -1.07414E-01
    8987.759    -10.855  -0.240  8.44665E-02  1.99968E-01 -1.15502E-01
    8987.826    -10.787  -0.200  8.74038E-02  2.10078E-01 -1.22674E-01
    8987.881    -10.733  -0.160  8.98708E-02  2.18593E-01 -1.28722E-01
    8987.924    -10.690  -0.120  9.18211E-02  2.25333E-01 -1.33511E-01
    8987.954    -10.659  -0.080  9.32233E-02  2.30194E-01 -1.36970E-01
    8987.979    -10.635   0.000  9.43338E-02  2.34104E-01 -1.39770E-01
    8988.033    -10.580   0.120  9.70835E-02  2.42933E-01 -1.45850E-01
    8988.076    -10.538   0.160  9.92184E-02  2.49811E-01 -1.50593E-01
    8988.131    -10.483   0.200  1.01974E-01  2.58611E-01 -1.56637E-01
    8988.198    -10.416   0.240  1.05363E-01  2.69237E-01 -1.63874E-01
    8988.277    -10.336   0.280  1.09398E-01  2.81503E-01 -1.72105E-01
    8988.369    -10.245   0.320  1.14109E-01  2.95126E-01 -1.81017E-01
    8988.472    -10.141   0.360  1.19601E-01  3.09776E-01 -1.90175E-01
    8988.588    -10.026   0.400  1.26033E-01  3.25075E-01 -1.99042E-01
    8988.716     -9.897   0.440  1.33652E-01  3.40687E-01 -2.07035E-01
    8988.856     -9.757   0.480  1.42674E-01  3.56331E-01 -2.13657E-01
    8989.009     -9.605   0.520  1.53222E-01  3.71864E-01 -2.18641E-01
    8989.173     -9.440   0.560  1.64929E-01  3.87190E-01 -2.22261E-01
    8989.350     -9.264   0.600  1.76702E-01  4.02307E-01 -2.25605E-01
    8989.539     -9.075   0.640  1.86719E-01  4.17256E-01 -2.30537E-01
    8989.740     -8.873   0.680  1.92917E-01  4.32082E-01 -2.39166E-01
    8989.954     -8.660   0.720  1.94393E-01  4.46837E-01 -2.52444E-01
    8990.179     -8.434   0.760  1.92475E-01  4.61612E-01 -2.69137E-01
    8990.417     -8.197   0.800  1.90242E-01  4.76451E-01 -2.86210E-01
    8990.667     -7.947   0.840  1.91031E-01  4.91392E-01 -3.00362E-01
    8990.929     -7.685   0.880  1.97281E-01  5.06478E-01 -3.09196E-01
    8991.203     -7.410   0.920  2.10616E-01  5.21704E-01 -3.11088E-01
    8991.490     -7.124   0.960  2.32931E-01  5.37119E-01 -3.04188E-01
    8991.789     -6.825   1.000  2.66941E-01  5.52702E-01 -2.85761E-01
    8992.099     -6.514   1.040  3.15626E-01  5.68445E-01 -2.52819E-01
    8992.422     -6.191   1.080  3.78864E-01  5.84355E-01 -2.05491E-01
    8992.758     -5.856   1.120  4.46965E-01  6.00393E-01 -1.53428E-01
    8993.105     -5.508   1.160  4.97150E-01  6.16558E-01 -1.19408E-01
    8993.465     -5.149   1.200  5.07508E-01  6.32802E-01 -1.25294E-01
    8993.837     -4.777   1.240  4.84740E-01  6.49116E-01 -1.64376E-01
    8994.221     -4.393   1.280  4.59256E-01  6.65449E-01 -2.06193E-01
    8994.617     -3.997   1.320  4.50205E-01  6.81768E-01 -2.31563E-01
    8995.025     -3.588   1.360  4.58439E-01  6.98036E-01 -2.39597E-01
    8995.446     -3.168   1.400  4.80484E-01  7.14218E-01 -2.33734E-01
    8995.879     -2.735   1.440  5.13370E-01  7.30256E-01 -2.16885E-01
    8996.324     -2.290   1.480  5.55464E-01  7.46132E-01 -1.90668E-01
    8996.781     -1.833   1.520  6.11245E-01  7.61808E-01 -1.50563E-01
    8997.251     -1.363   1.560  6.85975E-01  7.77226E-01 -9.12506E-02
    8997.732     -0.882   1.600  7.60689E-01  7.92348E-01 -3.16593E-02
    8998.226     -0.388   1.640  7.91871E-01  8.07137E-01 -1.52664E-02
    8998.732      0.118   1.680  7.71731E-01  8.21577E-01 -4.98462E-02
    8999.250      0.636   1.720  7.43769E-01  8.35632E-01 -9.18627E-02
    8999.780      1.167   1.760  7.44013E-01  8.49246E-01 -1.05233E-01
    9000.323      1.709   1.800  7.88318E-01  8.62407E-01 -7.40881E-02
    9000.878      2.264   1.840  8.94464E-01  8.75101E-01  1.93636E-02
    9001.445      2.831   1.880  1.07720E+00  8.87278E-01  1.89922E-01
    9002.024      3.410   1.920  1.30068E+00  8.98928E-01  4.01753E-01
    9002.615      4.001   1.960  1.44131E+00  9.10044E-01  5.31268E-01
    9003.218      4.605   2.000  1.40945E+00  9.20599E-01  4.88846E-01
    9003.834      5.221   2.040  1.30202E+00  9.30589E-01  3.71428E-01
    9004.462      5.848   2.080  1.23848E+00  9.40029E-01  2.98450E-01
    9005.102      6.488   2.120  1.22442E+00  9.48880E-01  2.75542E-01
    9005.754      7.141   2.160  1.22477E+00  9.57159E-01  2.67610E-01
    9006.419      7.805   2.200  1.24057E+00  9.64848E-01  2.75719E-01
    9007.095      8.482   2.240  1.27329E+00  9.71990E-01  3.01304E-01
    9007.784      9.171   2.280  1.28994E+00  9.78547E-01  3.11396E-01
    9008.485      9.872   2.320  1.26781E+00  9.84565E-01  2.83245E-01
    9009.199     10.585   2.360  1.21140E+00  9.90049E-01  2.21350E-01
    9009.924     11.310   2.400  1.12073E+00  9.94987E-01  1.25743E-01
    9010.662     12.048   2.440  1.01476E+00  9.99406E-01  1.53510E-02
    9011.411     12.798   2.480  9.41377E-01  1.00335E+00 -6.19766E-02
    9012.173     13.560   2.520  9.11071E-01  1.00680E+00 -9.57293E-02
    9012.948     14.334   2.560  9.06709E-01  1.00980E+00 -1.03086E-01
    9013.734     15.120   2.600  9.18178E-01  1.01235E+00 -9.41705E-02
    9014.533     15.919   2.640  9.31467E-01  1.01447E+00 -8.30026E-02
    9015.343     16.730   2.680  9.46901E-01  1.01621E+00 -6.93099E-02
    9016.166     17.553   2.720  9.61525E-01  1.01758E+00 -5.60601E-02
    9017.001     18.388   2.760  9.71610E-01  1.01858E+00 -4.69698E-02
    9017.849     19.235   2.800  9.76929E-01  1.01927E+00 -4.23399E-02
    9018.708     20.095   2.840  9.79440E-01  1.01964E+00 -4.02038E-02
    9019.580     20.966   2.880  9.80932E-01  1.01973E+00 -3.88012E-02
    9020.464     21.850   2.920  9.82201E-01  1.01955E+00 -3.73486E-02
    9021.360     22.746   2.960  9.82465E-01  1.01914E+00 -3.66797E-02
    9022.268     23.655   3.000  9.79740E-01  1.01851E+00 -3.87682E-02
    9023.189     24.575   3.040  9.72582E-01  1.01767E+00 -4.50867E-02
    9024.122     25.508   3.080  9.61464E-01  1.01664E+00 -5.51748E-02
    9025.066     26.453   3.120  9.48483E-01  1.01547E+00 -6.69845E-02
    9026.023     27.410   3.160  9.35631E-01  1.01414E+00 -7.85128E-02
    9026.993     28.379   3.200  9.24108E-01  1.01270E+00 -8.85896E-02
    9027.974     29.361   3.240  9.14413E-01  1.01116E+00 -9.67454E-02
    9028.968     30.354   3.280  9.06734E-01  1.00951E+00 -1.02779E-01
    9029.974     31.360   3.320  9.01399E-01  1.00781E+00 -1.06410E-01
    9030.992     32.378   3.360  8.98697E-01  1.00603E+00 -1.07338E-01
    9032.022     33.408   3.400  8.98338E-01  1.00422E+00 -1.05878E-01
    9033.064     34.451   3.440  8.99752E-01  1.00236E+00 -1.02608E-01
    9034.119     35.505   3.480  9.02469E-01  1.00049E+00 -9.80259E-02
    9035.186     36.572   3.520  9.06173E-01  9.98624E-01 -9.24512E-02
    9036.265     37.651   3.560  9.10626E-01  9.96733E-01 -8.61070E-02
    9037.356     38.742   3.600  9.15969E-01  9.94888E-01 -7.89188E-02
    9038.459     39.846   3.640  9.22428E-01  9.93034E-01 -7.06053E-02
    9039.575     40.961   3.680  9.30498E-01  9.91236E-01 -6.07382E-02
    9040.703     42.089   3.720  9.40587E-01  9.89478E-01 -4.88915E-02
    9041.843     43.229   3.760  9.52851E-01  9.87763E-01 -3.49125E-02
    9042.995     44.381   3.800  9.66927E-01  9.86093E-01 -1.91656E-02
    9044.159     45.545   3.840  9.82389E-01  9.84492E-01 -2.10251E-03
    9045.336     46.722   3.880  9.99053E-01  9.82943E-01  1.61102E-02
    9046.524     47.911   3.920  1.01678E+00  9.81489E-01  3.52858E-02
    9047.725     49.112   3.960  1.03473E+00  9.80092E-01  5.46362E-02
    9048.938     50.325   4.000  1.05148E+00  9.78772E-01  7.27099E-02
    9050.164     51.550   4.040  1.06533E+00  9.77532E-01  8.78014E-02
    9051.401     52.787   4.080  1.07533E+00  9.76395E-01  9.89384E-02
    9052.651     54.037   4.120  1.08217E+00  9.75320E-01  1.06848E-01
    9053.913     55.299   4.160  1.08778E+00  9.74348E-01  1.13432E-01
    9055.187     56.573   4.200  1.09384E+00  9.73460E-01  1.20383E-01
    9056.473     57.859   4.240  1.10122E+00  9.72657E-01  1.28564E-01
    9057.771     59.158   4.280  1.10974E+00  9.71959E-01  1.37782E-01
    9059.082     60.468   4.320  1.11757E+00  9.71345E-01  1.46221E-01
    9060.405     61.791   4.360  1.12074E+00  9.70816E-01  1.49923E-01
    9061.740     63.126   4.400  1.11426E+00  9.70392E-01  1.43870E-01
    9063.087     64.473   4.440  1.09489E+00  9.70030E-01  1.24856E-01
    9064.446     65.833   4.480  1.06361E+00  9.69770E-01  9.38399E-02
    9065.818     67.204   4.520  1.02514E+00  9.69593E-01  5.55443E-02
    9067.202     68.588   4.560  9.85263E-01  9.69496E-01  1.57674E-02
    9068.598     69.984   4.600  9.48471E-01  9.69478E-01 -2.10073E-02
    9070.006     71.392   4.640  9.17375E-01  9.69540E-01 -5.21647E-02
    9071.426     72.813   4.680  8.93148E-01  9.69679E-01 -7.65312E-02
    9072.859     74.245   4.720  8.76072E-01  9.69893E-01 -9.38204E-02
    9074.304     75.690   4.760  8.65840E-01  9.70159E-01 -1.04318E-01
    9075.761     77.147   4.800  8.61966E-01  9.70496E-01 -1.08530E-01
    9077.230     78.616   4.840  8.64083E-01  9.70905E-01 -1.06822E-01
    9078.711     80.097   4.880  8.72080E-01  9.71360E-01 -9.92802E-02
    9080.205     81.591   4.920  8.86024E-01  9.71857E-01 -8.58329E-02
    9081.710     83.097   4.960  9.05870E-01  9.72394E-01 -6.65241E-02
    9083.228     84.615   5.000  9.30553E-01  9.72972E-01 -4.24188E-02
    9084.758     86.145   5.040  9.57218E-01  9.73588E-01 -1.63702E-02
    9086.300     87.687   5.080  9.81752E-01  9.74242E-01  7.51055E-03
    9087.855     89.241   5.120  1.00072E+00  9.74930E-01  2.57868E-02
    9089.422     90.808   5.160  1.01305E+00  9.75627E-01  3.74226E-02
    9091.000     92.387   5.200  1.01982E+00  9.76353E-01  4.34669E-02
    9092.592     93.978   5.240  1.02239E+00  9.77085E-01  4.53057E-02
    9094.195     95.581   5.280  1.02133E+00  9.77818E-01  4.35120E-02
    9095.810     97.197   5.320  1.01657E+00  9.78552E-01  3.80169E-02
    9097.438     98.824   5.360  1.00809E+00  9.79307E-01  2.87786E-02
    9099.078    100.464   5.400  9.96133E-01  9.80013E-01  1.61201E-02
    9100.730    102.116   5.440  9.81636E-01  9.80734E-01  9.02148E-04
    9102.394    103.780   5.480  9.66116E-01  9.81426E-01 -1.53095E-02
    9104.070    105.457   5.520  9.51574E-01  9.82106E-01 -3.05323E-02
    9105.759    107.145   5.560  9.39371E-01  9.82730E-01 -4.33587E-02
    9107.460    108.846   5.600  9.29712E-01  9.83361E-01 -5.36490E-02
    9109.173    110.559   5.640  9.21596E-01  9.83933E-01 -6.23375E-02
    9110.898    112.284   5.680  9.13942E-01  9.84464E-01 -7.05214E-02
    9112.635    114.021   5.720  9.06323E-01  9.84952E-01 -7.86294E-02
    9114.385    115.771   5.760  8.99528E-01  9.85398E-01 -8.58702E-02
    9116.146    117.533   5.800  8.95370E-01  9.85800E-01 -9.04297E-02
    9117.920    119.307   5.840  8.95653E-01  9.86132E-01 -9.04789E-02
    9119.706    121.093   5.880  9.01318E-01  9.86418E-01 -8.51000E-02
    9121.505    122.891   5.920  9.12505E-01  9.86654E-01 -7.41489E-02
    9123.315    124.702   5.960  9.29271E-01  9.86807E-01 -5.75369E-02
    9125.138    126.524   6.000  9.52601E-01  9.86880E-01 -3.42796E-02
