# # comment:                                                     FEFF 9.9.1  
# # Source:
# # Structure
# # Reduced
# # space
# # abc:
# # angles:
# # sites:
# # POT  SCF 100  7.0000   0, screened core-hole, AFOLP (folp(0)= 1.150)
# # Abs   Z=29 Rmt= 1.161 Rnm= 1.331 K  shell
# # Pot 1 Z=22 Rmt= 1.269 Rnm= 1.403
# # Pot 2 Z=29 Rmt= 1.312 Rnm= 1.385
# # Pot 3 Z= 8 Rmt= 0.966 Rnm= 1.088
# # Gam_ch=1.729E+00 H-L exch Vi= 0.000E+00 Vr= 0.000E+00
# # Mu=-8.734E+00eV kf=2.168E+00 Vint=-1.773E+01eV Rs_int= 1.673
# FMS rfms= 9.0000
# # PATH  Rmax=-1.000,  Keep_limit= 0.00, Heap_limit 0.00  Pwcrit= 2.50%
#  S02=0.950  Temp=   0.00  Debye_temp=   0.00  Global_sig2= 0.00000
#  Energy zero shift, vr, vi    0.00000E+00   0.00000E+00
#  Curved wave amplitude ratio filter   4.000%
#     file         sig2 tot  cw amp ratio   deg  nlegs   reff  inp sig2
#     0/   0 paths used
#  xsedge+ 50, used to normalize mu           2.4869E-04
#  -----------------------------------------------------------------------
#  omega    e    k    mu    mu0     chi     @#
    8984.122    -12.544  -1.000  4.63035E-02  5.22667E-02 -5.96319E-03
    8984.421    -12.245  -0.960  4.95360E-02  5.60200E-02 -6.48397E-03
    8984.707    -11.958  -0.920  5.31399E-02  6.01875E-02 -7.04761E-03
    8984.982    -11.684  -0.880  5.71750E-02  6.48299E-02 -7.65486E-03
    8985.244    -11.422  -0.840  6.17127E-02  7.00180E-02 -8.30528E-03
    8985.494    -11.172  -0.800  6.68370E-02  7.58337E-02 -8.99674E-03
    8985.732    -10.934  -0.760  7.26462E-02  8.23710E-02 -9.72481E-03
    8985.957    -10.709  -0.720  7.92538E-02  8.97360E-02 -1.04823E-02
    8986.171    -10.495  -0.680  8.67872E-02  9.80457E-02 -1.12585E-02
    8986.372    -10.294  -0.640  9.53835E-02  1.07423E-01 -1.20398E-02
    8986.561    -10.105  -0.600  1.05180E-01  1.17990E-01 -1.28100E-02
    8986.737     -9.928  -0.560  1.16296E-01  1.29849E-01 -1.35530E-02
    8986.902     -9.764  -0.520  1.28804E-01  1.43061E-01 -1.42578E-02
    8987.054     -9.611  -0.480  1.42688E-01  1.57613E-01 -1.49252E-02
    8987.195     -9.471  -0.440  1.57801E-01  1.73377E-01 -1.55755E-02
    8987.323     -9.343  -0.400  1.73825E-01  1.90078E-01 -1.62533E-02
    8987.438     -9.227  -0.360  1.90265E-01  2.07288E-01 -1.70229E-02
    8987.542     -9.124  -0.320  2.06495E-01  2.24446E-01 -1.79512E-02
    8987.634     -9.032  -0.280  2.21851E-01  2.40932E-01 -1.90813E-02
    8987.713     -8.953  -0.240  2.35742E-01  2.56150E-01 -2.04079E-02
    8987.780     -8.886  -0.200  2.47732E-01  2.69599E-01 -2.18664E-02
    8987.835     -8.831  -0.160  2.57571E-01  2.80913E-01 -2.33418E-02
    8987.877     -8.788  -0.120  2.65162E-01  2.89857E-01 -2.46955E-02
    8987.908     -8.758  -0.080  2.70502E-01  2.96302E-01 -2.58001E-02
    8987.932     -8.734   0.000  2.74625E-01  3.01481E-01 -2.68557E-02
    8987.987     -8.679   0.120  2.83618E-01  3.13155E-01 -2.95365E-02
    8988.030     -8.636   0.160  2.90618E-01  3.22239E-01 -3.16218E-02
    8988.085     -8.581   0.200  2.99319E-01  3.33812E-01 -3.44933E-02
    8988.152     -8.514   0.240  3.09434E-01  3.47759E-01 -3.83242E-02
    8988.231     -8.435   0.280  3.20488E-01  3.63783E-01 -4.32948E-02
    8988.322     -8.343   0.320  3.31935E-01  3.81482E-01 -4.95466E-02
    8988.426     -8.240   0.360  3.43188E-01  4.00334E-01 -5.71459E-02
    8988.542     -8.124   0.400  3.53786E-01  4.19825E-01 -6.60397E-02
    8988.670     -7.996   0.440  3.63334E-01  4.39429E-01 -7.60945E-02
    8988.810     -7.856   0.480  3.71637E-01  4.58788E-01 -8.71507E-02
    8988.962     -7.703   0.520  3.78558E-01  4.77644E-01 -9.90861E-02
    8989.127     -7.539   0.560  3.84134E-01  4.95887E-01 -1.11753E-01
    8989.304     -7.362   0.600  3.88674E-01  5.13486E-01 -1.24812E-01
    8989.493     -7.173   0.640  3.92931E-01  5.30478E-01 -1.37547E-01
    8989.694     -6.972   0.680  3.98048E-01  5.46951E-01 -1.48902E-01
    8989.907     -6.758   0.720  4.05262E-01  5.63007E-01 -1.57745E-01
    8990.133     -6.533   0.760  4.15494E-01  5.78707E-01 -1.63213E-01
    8990.371     -6.295   0.800  4.29140E-01  5.94143E-01 -1.65003E-01
    8990.621     -6.045   0.840  4.45689E-01  6.09374E-01 -1.63685E-01
    8990.883     -5.783   0.880  4.63796E-01  6.24447E-01 -1.60651E-01
    8991.157     -5.509   0.920  4.81647E-01  6.39416E-01 -1.57769E-01
    8991.444     -5.222   0.960  4.97695E-01  6.54262E-01 -1.56568E-01
    8991.742     -4.924   1.000  5.12102E-01  6.69038E-01 -1.56936E-01
    8992.053     -4.613   1.040  5.27087E-01  6.83728E-01 -1.56642E-01
    8992.376     -4.290   1.080  5.45764E-01  6.98328E-01 -1.52564E-01
    8992.712     -3.954   1.120  5.69578E-01  7.12846E-01 -1.43269E-01
    8993.059     -3.607   1.160  5.96250E-01  7.27249E-01 -1.30999E-01
    8993.419     -3.247   1.200  6.19329E-01  7.41518E-01 -1.22189E-01
    8993.790     -2.875   1.240  6.32812E-01  7.55630E-01 -1.22818E-01
    8994.175     -2.491   1.280  6.37478E-01  7.69560E-01 -1.32082E-01
    8994.571     -2.095   1.320  6.37959E-01  7.83282E-01 -1.45324E-01
    8994.979     -1.687   1.360  6.38824E-01  7.96768E-01 -1.57944E-01
    8995.400     -1.266   1.400  6.44624E-01  8.10006E-01 -1.65383E-01
    8995.833     -0.833   1.440  6.57579E-01  8.22929E-01 -1.65351E-01
    8996.278     -0.388   1.480  6.76442E-01  8.35547E-01 -1.59105E-01
    8996.735      0.069   1.520  6.97899E-01  8.47830E-01 -1.49931E-01
    8997.204      0.538   1.560  7.20079E-01  8.59749E-01 -1.39670E-01
    8997.686      1.020   1.600  7.46214E-01  8.71253E-01 -1.25040E-01
    8998.180      1.514   1.640  7.79497E-01  8.82375E-01 -1.02878E-01
    8998.686      2.020   1.680  8.15459E-01  8.93050E-01 -7.75902E-02
    8999.204      2.538   1.720  8.47842E-01  9.03289E-01 -5.54470E-02
    8999.734      3.068   1.760  8.79141E-01  9.13086E-01 -3.39455E-02
    9000.277      3.611   1.800  9.16495E-01  9.22399E-01 -5.90451E-03
    9000.831      4.166   1.840  9.59221E-01  9.31245E-01  2.79756E-02
    9001.398      4.732   1.880  9.97649E-01  9.39601E-01  5.80478E-02
    9001.977      5.312   1.920  1.02765E+00  9.47487E-01  8.01665E-02
    9002.569      5.903   1.960  1.05531E+00  9.54883E-01  1.00430E-01
    9003.172      6.506   2.000  1.08249E+00  9.61790E-01  1.20696E-01
    9003.788      7.122   2.040  1.10511E+00  9.68233E-01  1.36877E-01
    9004.416      7.750   2.080  1.12569E+00  9.74193E-01  1.51495E-01
    9005.056      8.390   2.120  1.14863E+00  9.79717E-01  1.68915E-01
    9005.708      9.042   2.160  1.17067E+00  9.84768E-01  1.85907E-01
    9006.373      9.707   2.200  1.18886E+00  9.89372E-01  1.99490E-01
    9007.049     10.383   2.240  1.20033E+00  9.93558E-01  2.06773E-01
    9007.738     11.072   2.280  1.19476E+00  9.97311E-01  1.97445E-01
    9008.439     11.773   2.320  1.16870E+00  1.00068E+00  1.68023E-01
    9009.152     12.487   2.360  1.13369E+00  1.00367E+00  1.30014E-01
    9009.878     13.212   2.400  1.09973E+00  1.00628E+00  9.34536E-02
    9010.615     13.950   2.440  1.07281E+00  1.00854E+00  6.42649E-02
    9011.365     14.699   2.480  1.05696E+00  1.01048E+00  4.64857E-02
    9012.127     15.461   2.520  1.05275E+00  1.01209E+00  4.06569E-02
    9012.901     16.236   2.560  1.05945E+00  1.01341E+00  4.60398E-02
    9013.688     17.022   2.600  1.07083E+00  1.01443E+00  5.63993E-02
    9014.486     17.820   2.640  1.07711E+00  1.01521E+00  6.18996E-02
    9015.297     18.631   2.680  1.07798E+00  1.01573E+00  6.22499E-02
    9016.120     19.454   2.720  1.07517E+00  1.01604E+00  5.91310E-02
    9016.955     20.289   2.760  1.06998E+00  1.01614E+00  5.38466E-02
    9017.803     21.137   2.800  1.06244E+00  1.01604E+00  4.63996E-02
    9018.662     21.996   2.840  1.05247E+00  1.01577E+00  3.67071E-02
    9019.534     22.868   2.880  1.04053E+00  1.01534E+00  2.51994E-02
    9020.418     23.752   2.920  1.02745E+00  1.01475E+00  1.27065E-02
    9021.314     24.648   2.960  1.01433E+00  1.01404E+00  2.90703E-04
    9022.222     25.556   3.000  1.00222E+00  1.01322E+00 -1.09988E-02
    9023.143     26.477   3.040  9.91572E-01  1.01230E+00 -2.07279E-02
    9024.075     27.409   3.080  9.82538E-01  1.01129E+00 -2.87521E-02
    9025.020     28.354   3.120  9.75143E-01  1.01020E+00 -3.50564E-02
    9025.977     29.311   3.160  9.69118E-01  1.00904E+00 -3.99194E-02
    9026.946     30.281   3.200  9.64340E-01  1.00785E+00 -4.35068E-02
    9027.928     31.262   3.240  9.60737E-01  1.00659E+00 -4.58569E-02
    9028.922     32.256   3.280  9.58195E-01  1.00530E+00 -4.71076E-02
    9029.927     33.262   3.320  9.56307E-01  1.00400E+00 -4.76928E-02
    9030.945     34.280   3.360  9.54479E-01  1.00269E+00 -4.82118E-02
    9031.976     35.310   3.400  9.52184E-01  1.00138E+00 -4.91958E-02
    9033.018     36.352   3.440  9.49108E-01  1.00007E+00 -5.09596E-02
    9034.073     37.407   3.480  9.45386E-01  9.98758E-01 -5.33716E-02
    9035.139     38.474   3.520  9.41594E-01  9.97455E-01 -5.58609E-02
    9036.218     39.553   3.560  9.38588E-01  9.96182E-01 -5.75943E-02
    9037.310     40.644   3.600  9.37010E-01  9.94943E-01 -5.79333E-02
    9038.413     41.747   3.640  9.37213E-01  9.93740E-01 -5.65264E-02
    9039.529     42.863   3.680  9.39121E-01  9.92555E-01 -5.34339E-02
    9040.656     43.991   3.720  9.42228E-01  9.91430E-01 -4.92017E-02
    9041.796     45.130   3.760  9.45710E-01  9.90346E-01 -4.46358E-02
    9042.948     46.283   3.800  9.48807E-01  9.89304E-01 -4.04970E-02
    9044.113     47.447   3.840  9.51034E-01  9.88309E-01 -3.72745E-02
    9045.289     48.623   3.880  9.52250E-01  9.87380E-01 -3.51299E-02
    9046.478     49.812   3.920  9.52595E-01  9.86498E-01 -3.39026E-02
    9047.679     51.013   3.960  9.52429E-01  9.85685E-01 -3.32560E-02
    9048.892     52.226   4.000  9.52162E-01  9.84920E-01 -3.27580E-02
    9050.117     53.451   4.040  9.52306E-01  9.84203E-01 -3.18974E-02
    9051.355     54.689   4.080  9.53496E-01  9.83577E-01 -3.00816E-02
    9052.604     55.939   4.120  9.56249E-01  9.82982E-01 -2.67325E-02
    9053.866     57.200   4.160  9.61104E-01  9.82477E-01 -2.13728E-02
    9055.140     58.475   4.200  9.68282E-01  9.82000E-01 -1.37176E-02
    9056.427     59.761   4.240  9.77719E-01  9.81613E-01 -3.89374E-03
    9057.725     61.059   4.280  9.88612E-01  9.81254E-01  7.35800E-03
    9059.036     62.370   4.320  9.99780E-01  9.80986E-01  1.87944E-02
    9060.359     63.693   4.360  1.00969E+00  9.80744E-01  2.89423E-02
    9061.694     65.028   4.400  1.01711E+00  9.80571E-01  3.65379E-02
    9063.041     66.375   4.440  1.02144E+00  9.80466E-01  4.09738E-02
    9064.400     67.734   4.480  1.02282E+00  9.80407E-01  4.24134E-02
    9065.772     69.106   4.520  1.02191E+00  9.80391E-01  4.15193E-02
    9067.156     70.490   4.560  1.01955E+00  9.80417E-01  3.91362E-02
    9068.552     71.886   4.600  1.01661E+00  9.80485E-01  3.61252E-02
    9069.960     73.294   4.640  1.01384E+00  9.80618E-01  3.32185E-02
    9071.380     74.714   4.680  1.01180E+00  9.80793E-01  3.10079E-02
    9072.813     76.147   4.720  1.01090E+00  9.80983E-01  2.99136E-02
    9074.257     77.592   4.760  1.01137E+00  9.81232E-01  3.01409E-02
    9075.714     79.048   4.800  1.01312E+00  9.81497E-01  3.16265E-02
    9077.183     80.518   4.840  1.01580E+00  9.81796E-01  3.40051E-02
    9078.665     81.999   4.880  1.01872E+00  9.82127E-01  3.65891E-02
    9080.158     83.492   4.920  1.02103E+00  9.82469E-01  3.85624E-02
    9081.664     84.998   4.960  1.02217E+00  9.82842E-01  3.93279E-02
    9083.182     86.516   5.000  1.02197E+00  9.83224E-01  3.87436E-02
    9084.712     88.046   5.040  1.02063E+00  9.83633E-01  3.69927E-02
    9086.254     89.588   5.080  1.01826E+00  9.84045E-01  3.42113E-02
    9087.809     91.143   5.120  1.01491E+00  9.84461E-01  3.04488E-02
    9089.375     92.710   5.160  1.01082E+00  9.84878E-01  2.59399E-02
    9090.954     94.288   5.200  1.00642E+00  9.85296E-01  2.11264E-02
    9092.545     95.879   5.240  1.00211E+00  9.85735E-01  1.63782E-02
    9094.149     97.483   5.280  9.97902E-01  9.86150E-01  1.17516E-02
    9095.764     99.098   5.320  9.93585E-01  9.86561E-01  7.02368E-03
    9097.392    100.726   5.360  9.88795E-01  9.86967E-01  1.82786E-03
    9099.031    102.366   5.400  9.83133E-01  9.87343E-01 -4.20979E-03
    9100.683    104.018   5.440  9.76464E-01  9.87710E-01 -1.12458E-02
    9102.348    105.682   5.480  9.69064E-01  9.88046E-01 -1.89824E-02
    9104.024    107.358   5.520  9.61758E-01  9.88375E-01 -2.66176E-02
    9105.713    109.047   5.560  9.55655E-01  9.88694E-01 -3.30391E-02
    9107.413    110.748   5.600  9.51845E-01  9.88980E-01 -3.71358E-02
    9109.126    112.460   5.640  9.51062E-01  9.89229E-01 -3.81672E-02
    9110.851    114.186   5.680  9.53373E-01  9.89442E-01 -3.60685E-02
    9112.589    115.923   5.720  9.58125E-01  9.89640E-01 -3.15156E-02
    9114.338    117.673   5.760  9.64103E-01  9.89779E-01 -2.56759E-02
    9116.100    119.434   5.800  9.70095E-01  9.89903E-01 -1.98077E-02
    9117.874    121.208   5.840  9.75034E-01  9.89992E-01 -1.49572E-02
    9119.660    122.994   5.880  9.78246E-01  9.90066E-01 -1.18203E-02
    9121.458    124.793   5.920  9.79388E-01  9.90077E-01 -1.06893E-02
    9123.269    126.603   5.960  9.78739E-01  9.90041E-01 -1.13026E-02
    9125.092    128.426   6.000  9.77251E-01  9.89943E-01 -1.26917E-02
