# # comment:                                                     FEFF 9.9.1  
# # Source:
# # Structure
# # Reduced
# # space
# # abc:
# # angles:
# # sites:
# # POT  SCF 100  7.0000   0, screened core-hole, AFOLP (folp(0)= 1.150)
# # Abs   Z=29 Rmt= 1.269 Rnm= 1.340 K  shell
# # Pot 1 Z=29 Rmt= 1.267 Rnm= 1.340
# # Pot 2 Z= 8 Rmt= 1.013 Rnm= 1.089
# # Pot 3 Z=73 Rmt= 1.322 Rnm= 1.469
# # Gam_ch=1.729E+00 H-L exch Vi= 0.000E+00 Vr= 0.000E+00
# # Mu=-6.366E+00eV kf=2.245E+00 Vint=-1.647E+01eV Rs_int= 1.615
# FMS rfms= 9.0000
# # PATH  Rmax=-1.000,  Keep_limit= 0.00, Heap_limit 0.00  Pwcrit= 2.50%
#  S02=0.950  Temp=   0.00  Debye_temp=   0.00  Global_sig2= 0.00000
#  Energy zero shift, vr, vi    0.00000E+00   0.00000E+00
#  Curved wave amplitude ratio filter   4.000%
#     file         sig2 tot  cw amp ratio   deg  nlegs   reff  inp sig2
#     0/   0 paths used
#  xsedge+ 50, used to normalize mu           2.4667E-04
#  -----------------------------------------------------------------------
#  omega    e    k    mu    mu0     chi     @#
    8983.594    -10.176  -1.000  4.47174E-02  5.45797E-02 -9.86230E-03
    8983.893     -9.877  -0.960  4.72905E-02  5.85919E-02 -1.13015E-02
    8984.180     -9.591  -0.920  5.00627E-02  6.30559E-02 -1.29932E-02
    8984.454     -9.316  -0.880  5.30527E-02  6.80386E-02 -1.49860E-02
    8984.716     -9.054  -0.840  5.62804E-02  7.36183E-02 -1.73379E-02
    8984.966     -8.804  -0.800  5.97678E-02  7.98857E-02 -2.01179E-02
    8985.204     -8.567  -0.760  6.35381E-02  8.69447E-02 -2.34066E-02
    8985.429     -8.341  -0.720  6.76157E-02  9.49134E-02 -2.72977E-02
    8985.643     -8.128  -0.680  7.20250E-02  1.03921E-01 -3.18964E-02
    8985.844     -7.927  -0.640  7.67893E-02  1.14106E-01 -3.73167E-02
    8986.033     -7.738  -0.600  8.19280E-02  1.25602E-01 -4.36741E-02
    8986.210     -7.561  -0.560  8.74528E-02  1.38525E-01 -5.10721E-02
    8986.374     -7.396  -0.520  9.33626E-02  1.52944E-01 -5.95812E-02
    8986.527     -7.244  -0.480  9.96356E-02  1.68844E-01 -6.92088E-02
    8986.667     -7.104  -0.440  1.06222E-01  1.86087E-01 -7.98649E-02
    8986.795     -6.976  -0.400  1.13035E-01  2.04369E-01 -9.13338E-02
    8986.911     -6.860  -0.360  1.19950E-01  2.23216E-01 -1.03265E-01
    8987.014     -6.756  -0.320  1.26807E-01  2.42010E-01 -1.15204E-01
    8987.106     -6.665  -0.280  1.33420E-01  2.60068E-01 -1.26648E-01
    8987.185     -6.585  -0.240  1.39597E-01  2.76731E-01 -1.37134E-01
    8987.252     -6.518  -0.200  1.45154E-01  2.91451E-01 -1.46297E-01
    8987.307     -6.464  -0.160  1.49931E-01  3.03827E-01 -1.53896E-01
    8987.349     -6.421  -0.120  1.53795E-01  3.13606E-01 -1.59811E-01
    8987.380     -6.390  -0.080  1.56645E-01  3.20648E-01 -1.64003E-01
    8987.404     -6.366   0.000  1.59016E-01  3.26304E-01 -1.67288E-01
    8987.459     -6.311   0.120  1.64319E-01  3.39038E-01 -1.74719E-01
    8987.502     -6.268   0.160  1.68499E-01  3.48944E-01 -1.80445E-01
    8987.557     -6.214   0.200  1.73970E-01  3.61561E-01 -1.87591E-01
    8987.624     -6.147   0.240  1.80820E-01  3.76727E-01 -1.95907E-01
    8987.703     -6.067   0.280  1.89143E-01  3.94124E-01 -2.04981E-01
    8987.795     -5.976   0.320  1.98965E-01  4.13252E-01 -2.14287E-01
    8987.898     -5.872   0.360  2.10398E-01  4.33578E-01 -2.23179E-01
    8988.014     -5.756   0.400  2.23451E-01  4.54456E-01 -2.31004E-01
    8988.142     -5.628   0.440  2.38086E-01  4.75334E-01 -2.37249E-01
    8988.282     -5.488   0.480  2.54278E-01  4.95806E-01 -2.41528E-01
    8988.435     -5.336   0.520  2.71896E-01  5.15537E-01 -2.43642E-01
    8988.599     -5.171   0.560  2.90936E-01  5.34446E-01 -2.43510E-01
    8988.776     -4.994   0.600  3.11595E-01  5.52481E-01 -2.40886E-01
    8988.965     -4.805   0.640  3.34633E-01  5.69702E-01 -2.35069E-01
    8989.166     -4.604   0.680  3.61648E-01  5.86173E-01 -2.24526E-01
    8989.379     -4.391   0.720  3.95209E-01  6.02051E-01 -2.06842E-01
    8989.605     -4.165   0.760  4.38456E-01  6.17390E-01 -1.78934E-01
    8989.843     -3.928   0.800  4.94664E-01  6.32296E-01 -1.37632E-01
    8990.093     -3.678   0.840  5.66011E-01  6.46861E-01 -8.08506E-02
    8990.355     -3.416   0.880  6.51720E-01  6.61126E-01 -9.40577E-03
    8990.629     -3.141   0.920  7.45674E-01  6.75135E-01  7.05392E-02
    8990.916     -2.855   0.960  8.30039E-01  6.88961E-01  1.41079E-01
    8991.214     -2.556   1.000  8.73186E-01  7.02582E-01  1.70604E-01
    8991.525     -2.245   1.040  8.58673E-01  7.16030E-01  1.42643E-01
    8991.848     -1.922   1.080  8.09748E-01  7.29331E-01  8.04172E-02
    8992.184     -1.587   1.120  7.60564E-01  7.42461E-01  1.81027E-02
    8992.531     -1.239   1.160  7.26430E-01  7.55390E-01 -2.89595E-02
    8992.891     -0.880   1.200  7.04429E-01  7.68167E-01 -6.37378E-02
    8993.263     -0.508   1.240  6.88366E-01  7.80734E-01 -9.23684E-02
    8993.647     -0.124   1.280  6.83329E-01  7.93072E-01 -1.09743E-01
    8994.043      0.273   1.320  6.95694E-01  8.05178E-01 -1.09484E-01
    8994.451      0.681   1.360  7.22288E-01  8.17052E-01 -9.47647E-02
    8994.872      1.102   1.400  7.56273E-01  8.28629E-01 -7.23552E-02
    8995.305      1.534   1.440  7.96690E-01  8.39923E-01 -4.32325E-02
    8995.750      1.979   1.480  8.47371E-01  8.50908E-01 -3.53654E-03
    8996.207      2.437   1.520  9.04219E-01  8.61559E-01  4.26593E-02
    8996.676      2.906   1.560  9.52602E-01  8.71873E-01  8.07286E-02
    8997.158      3.388   1.600  9.89211E-01  8.81822E-01  1.07389E-01
    8997.652      3.881   1.640  1.01813E+00  8.91401E-01  1.26730E-01
    8998.158      4.387   1.680  1.02408E+00  9.00588E-01  1.23493E-01
    8998.676      4.905   1.720  1.00473E+00  9.09379E-01  9.53505E-02
    8999.206      5.436   1.760  9.87347E-01  9.17751E-01  6.95960E-02
    8999.749      5.978   1.800  9.96515E-01  9.25722E-01  7.07925E-02
    9000.303      6.533   1.840  1.03498E+00  9.33293E-01  1.01685E-01
    9000.870      7.100   1.880  1.08097E+00  9.40424E-01  1.40550E-01
    9001.449      7.679   1.920  1.10878E+00  9.47154E-01  1.61629E-01
    9002.041      8.270   1.960  1.11533E+00  9.53465E-01  1.61866E-01
    9002.644      8.874   2.000  1.12598E+00  9.59383E-01  1.66594E-01
    9003.260      9.490   2.040  1.15421E+00  9.64866E-01  1.89348E-01
    9003.888     10.118   2.080  1.17985E+00  9.69961E-01  2.09890E-01
    9004.528     10.758   2.120  1.17861E+00  9.74673E-01  2.03941E-01
    9005.180     11.410   2.160  1.15323E+00  9.78987E-01  1.74240E-01
    9005.845     12.074   2.200  1.12811E+00  9.82946E-01  1.45168E-01
    9006.521     12.751   2.240  1.12663E+00  9.86541E-01  1.40091E-01
    9007.210     13.440   2.280  1.16108E+00  9.89796E-01  1.71280E-01
    9007.911     14.141   2.320  1.22504E+00  9.92698E-01  2.32346E-01
    9008.624     14.854   2.360  1.28146E+00  9.95295E-01  2.86164E-01
    9009.350     15.580   2.400  1.28339E+00  9.97596E-01  2.85796E-01
    9010.087     16.317   2.440  1.22610E+00  9.99607E-01  2.26496E-01
    9010.837     17.067   2.480  1.14564E+00  1.00134E+00  1.44304E-01
    9011.599     17.829   2.520  1.07304E+00  1.00281E+00  7.02304E-02
    9012.373     18.603   2.560  1.01806E+00  1.00404E+00  1.40149E-02
    9013.160     19.390   2.600  9.80427E-01  1.00503E+00 -2.46031E-02
    9013.958     20.188   2.640  9.59337E-01  1.00581E+00 -4.64737E-02
    9014.769     20.999   2.680  9.50523E-01  1.00641E+00 -5.58875E-02
    9015.592     21.822   2.720  9.45559E-01  1.00682E+00 -6.12578E-02
    9016.427     22.657   2.760  9.42195E-01  1.00708E+00 -6.48819E-02
    9017.275     23.504   2.800  9.37623E-01  1.00716E+00 -6.95335E-02
    9018.134     24.364   2.840  9.29784E-01  1.00710E+00 -7.73207E-02
    9019.006     25.236   2.880  9.19388E-01  1.00695E+00 -8.75597E-02
    9019.890     26.119   2.920  9.08532E-01  1.00665E+00 -9.81198E-02
    9020.786     27.016   2.960  8.98631E-01  1.00626E+00 -1.07634E-01
    9021.694     27.924   3.000  8.89340E-01  1.00581E+00 -1.16473E-01
    9022.615     28.844   3.040  8.79905E-01  1.00526E+00 -1.25355E-01
    9023.547     29.777   3.080  8.70719E-01  1.00465E+00 -1.33932E-01
    9024.492     30.722   3.120  8.62942E-01  1.00397E+00 -1.41031E-01
    9025.449     31.679   3.160  8.57637E-01  1.00325E+00 -1.45612E-01
    9026.419     32.648   3.200  8.55675E-01  1.00251E+00 -1.46834E-01
    9027.400     33.630   3.240  8.57718E-01  1.00173E+00 -1.44016E-01
    9028.394     34.623   3.280  8.63810E-01  1.00095E+00 -1.37139E-01
    9029.400     35.629   3.320  8.73554E-01  1.00013E+00 -1.26581E-01
    9030.418     36.647   3.360  8.86255E-01  9.99318E-01 -1.13063E-01
    9031.448     37.677   3.400  9.00986E-01  9.98522E-01 -9.75362E-02
    9032.490     38.720   3.440  9.16673E-01  9.97710E-01 -8.10368E-02
    9033.545     39.774   3.480  9.32900E-01  9.96945E-01 -6.40448E-02
    9034.612     40.841   3.520  9.49590E-01  9.96169E-01 -4.65782E-02
    9035.691     41.920   3.560  9.66705E-01  9.95445E-01 -2.87404E-02
    9036.782     43.011   3.600  9.83641E-01  9.94734E-01 -1.10922E-02
    9037.885     44.115   3.640  9.99220E-01  9.94057E-01  5.16369E-03
    9039.001     45.230   3.680  1.01184E+00  9.93395E-01  1.84429E-02
    9040.128     46.358   3.720  1.02035E+00  9.92794E-01  2.75533E-02
    9041.268     47.498   3.760  1.02453E+00  9.92234E-01  3.22977E-02
    9042.421     48.650   3.800  1.02513E+00  9.91716E-01  3.34152E-02
    9043.585     49.815   3.840  1.02327E+00  9.91240E-01  3.20312E-02
    9044.761     50.991   3.880  1.02012E+00  9.90827E-01  2.92904E-02
    9045.950     52.180   3.920  1.01675E+00  9.90437E-01  2.63146E-02
    9047.151     53.381   3.960  1.01448E+00  9.90111E-01  2.43667E-02
    9048.364     54.594   4.000  1.01471E+00  9.89828E-01  2.48777E-02
    9049.589     55.819   4.040  1.01870E+00  9.89591E-01  2.91058E-02
    9050.827     57.057   4.080  1.02694E+00  9.89419E-01  3.75248E-02
    9052.077     58.306   4.120  1.03889E+00  9.89291E-01  4.95967E-02
    9053.338     59.568   4.160  1.05308E+00  9.89205E-01  6.38776E-02
    9054.612     60.842   4.200  1.06758E+00  9.89161E-01  7.84162E-02
    9055.899     62.128   4.240  1.08035E+00  9.89159E-01  9.11892E-02
    9057.197     63.427   4.280  1.08970E+00  9.89198E-01  1.00497E-01
    9058.508     64.737   4.320  1.09459E+00  9.89300E-01  1.05287E-01
    9059.831     66.060   4.360  1.09452E+00  9.89422E-01  1.05097E-01
    9061.166     67.395   4.400  1.08950E+00  9.89604E-01  9.98985E-02
    9062.513     68.743   4.440  1.08000E+00  9.89803E-01  9.01917E-02
    9063.872     70.102   4.480  1.06717E+00  9.90061E-01  7.71076E-02
    9065.244     71.474   4.520  1.05277E+00  9.90334E-01  6.24319E-02
    9066.628     72.857   4.560  1.03886E+00  9.90640E-01  4.82200E-02
    9068.024     74.253   4.600  1.02701E+00  9.90957E-01  3.60484E-02
    9069.432     75.661   4.640  1.01785E+00  9.91307E-01  2.65406E-02
    9070.852     77.082   4.680  1.01101E+00  9.91689E-01  1.93228E-02
    9072.285     78.514   4.720  1.00539E+00  9.92080E-01  1.33095E-02
    9073.729     79.959   4.760  9.99765E-01  9.92499E-01  7.26624E-03
    9075.186     81.416   4.800  9.93277E-01  9.92924E-01  3.53099E-04
    9076.656     82.885   4.840  9.85716E-01  9.93350E-01 -7.63434E-03
    9078.137     84.366   4.880  9.77456E-01  9.93779E-01 -1.63235E-02
    9079.630     85.860   4.920  9.69076E-01  9.94232E-01 -2.51561E-02
    9081.136     87.366   4.960  9.60824E-01  9.94662E-01 -3.38374E-02
    9082.654     88.884   5.000  9.52650E-01  9.95089E-01 -4.24386E-02
    9084.184     90.414   5.040  9.44301E-01  9.95537E-01 -5.12359E-02
    9085.726     91.956   5.080  9.35675E-01  9.95958E-01 -6.02837E-02
    9087.281     93.510   5.120  9.27108E-01  9.96351E-01 -6.92426E-02
    9088.847     95.077   5.160  9.19219E-01  9.96758E-01 -7.75389E-02
    9090.426     96.656   5.200  9.12646E-01  9.97136E-01 -8.44908E-02
    9092.017     98.247   5.240  9.08121E-01  9.97484E-01 -8.93629E-02
    9093.621     99.850   5.280  9.06509E-01  9.97843E-01 -9.13345E-02
    9095.236    101.466   5.320  9.08361E-01  9.98147E-01 -8.97866E-02
    9096.864    103.093   5.360  9.13911E-01  9.98438E-01 -8.45269E-02
    9098.503    104.733   5.400  9.22899E-01  9.98693E-01 -7.57944E-02
    9100.156    106.385   5.440  9.34865E-01  9.98913E-01 -6.40474E-02
    9101.820    108.049   5.480  9.49413E-01  9.99119E-01 -4.97061E-02
    9103.496    109.726   5.520  9.66163E-01  9.99289E-01 -3.31253E-02
    9105.185    111.414   5.560  9.84618E-01  9.99420E-01 -1.48020E-02
    9106.885    113.115   5.600  1.00402E+00  9.99513E-01  4.50812E-03
    9108.598    114.828   5.640  1.02343E+00  9.99591E-01  2.38399E-02
    9110.324    116.553   5.680  1.04178E+00  9.99606E-01  4.21736E-02
    9112.061    118.291   5.720  1.05797E+00  9.99581E-01  5.83890E-02
    9113.810    120.040   5.760  1.07045E+00  9.99540E-01  7.09054E-02
    9115.572    121.802   5.800  1.07702E+00  9.99440E-01  7.75765E-02
    9117.346    123.576   5.840  1.07582E+00  9.99324E-01  7.64940E-02
    9119.132    125.362   5.880  1.06647E+00  9.99171E-01  6.73009E-02
    9120.931    127.160   5.920  1.05088E+00  9.98981E-01  5.19036E-02
    9122.741    128.971   5.960  1.03259E+00  9.98724E-01  3.38658E-02
    9124.564    130.793   6.000  1.01515E+00  9.98430E-01  1.67199E-02
