# # comment:                                                     FEFF 9.9.1  
# # Source:
# # Structure
# # Reduced
# # space
# # abc:
# # angles:
# # sites:
# # POT  SCF 100  7.0000   0, screened core-hole, AFOLP (folp(0)= 1.150)
# # Abs   Z=29 Rmt= 1.337 Rnm= 1.401 K  shell
# # Pot 1 Z=37 Rmt= 2.080 Rnm= 2.147
# # Pot 2 Z=73 Rmt= 1.309 Rnm= 1.463
# # Pot 3 Z=29 Rmt= 1.308 Rnm= 1.374
# # Pot 4 Z= 8 Rmt= 1.006 Rnm= 1.090
# # Gam_ch=1.729E+00 H-L exch Vi= 0.000E+00 Vr= 0.000E+00
# # Mu=-6.838E+00eV kf=2.210E+00 Vint=-1.641E+01eV Rs_int= 1.641
# FMS rfms= 9.0000
# # PATH  Rmax=-1.000,  Keep_limit= 0.00, Heap_limit 0.00  Pwcrit= 2.50%
#  S02=0.950  Temp=   0.00  Debye_temp=   0.00  Global_sig2= 0.00000
#  Energy zero shift, vr, vi    0.00000E+00   0.00000E+00
#  Curved wave amplitude ratio filter   4.000%
#     file         sig2 tot  cw amp ratio   deg  nlegs   reff  inp sig2
#     0/   0 paths used
#  xsedge+ 50, used to normalize mu           2.4615E-04
#  -----------------------------------------------------------------------
#  omega    e    k    mu    mu0     chi     @#
    8983.564    -10.648  -1.000  4.78027E-02  5.37963E-02 -5.99359E-03
    8983.863    -10.350  -0.960  5.07423E-02  5.76972E-02 -6.95486E-03
    8984.150    -10.063  -0.920  5.39427E-02  6.20320E-02 -8.08925E-03
    8984.424     -9.789  -0.880  5.74348E-02  6.68646E-02 -9.42978E-03
    8984.686     -9.527  -0.840  6.12536E-02  7.22695E-02 -1.10158E-02
    8984.936     -9.277  -0.800  6.54388E-02  7.83330E-02 -1.28941E-02
    8985.174     -9.039  -0.760  7.00346E-02  8.51541E-02 -1.51196E-02
    8985.399     -8.814  -0.720  7.50893E-02  9.28449E-02 -1.77556E-02
    8985.613     -8.600  -0.680  8.06549E-02  1.01529E-01 -2.08738E-02
    8985.814     -8.399  -0.640  8.67841E-02  1.11336E-01 -2.45515E-02
    8986.003     -8.210  -0.600  9.35269E-02  1.22394E-01 -2.88667E-02
    8986.180     -8.033  -0.560  1.00923E-01  1.34812E-01 -3.38884E-02
    8986.344     -7.869  -0.520  1.08994E-01  1.48655E-01 -3.96610E-02
    8986.497     -7.716  -0.480  1.17727E-01  1.63910E-01 -4.61828E-02
    8986.637     -7.576  -0.440  1.27060E-01  1.80441E-01 -5.33806E-02
    8986.765     -7.448  -0.400  1.36870E-01  1.97961E-01 -6.10905E-02
    8986.881     -7.332  -0.360  1.46962E-01  2.16017E-01 -6.90544E-02
    8986.984     -7.229  -0.320  1.57076E-01  2.34021E-01 -7.69445E-02
    8987.076     -7.137  -0.280  1.66905E-01  2.51319E-01 -8.44141E-02
    8987.155     -7.058  -0.240  1.76127E-01  2.67284E-01 -9.11572E-02
    8987.222     -6.991  -0.200  1.84438E-01  2.81391E-01 -9.69528E-02
    8987.277     -6.936  -0.160  1.91577E-01  2.93256E-01 -1.01679E-01
    8987.320     -6.893  -0.120  1.97339E-01  3.02634E-01 -1.05296E-01
    8987.350     -6.863  -0.080  2.01575E-01  3.09390E-01 -1.07815E-01
    8987.374     -6.838   0.000  2.05080E-01  3.14818E-01 -1.09738E-01
    8987.429     -6.784   0.120  2.12784E-01  3.27040E-01 -1.14255E-01
    8987.472     -6.741   0.160  2.18889E-01  3.36552E-01 -1.17663E-01
    8987.527     -6.686   0.200  2.26829E-01  3.48697E-01 -1.21868E-01
    8987.594     -6.619   0.240  2.36633E-01  3.63287E-01 -1.26654E-01
    8987.673     -6.540   0.280  2.48283E-01  3.80027E-01 -1.31744E-01
    8987.765     -6.448   0.320  2.61667E-01  3.98505E-01 -1.36838E-01
    8987.868     -6.345   0.360  2.76512E-01  4.18146E-01 -1.41634E-01
    8987.984     -6.229   0.400  2.92472E-01  4.38404E-01 -1.45931E-01
    8988.112     -6.101   0.440  3.09114E-01  4.58758E-01 -1.49644E-01
    8988.252     -5.961   0.480  3.26002E-01  4.78788E-01 -1.52786E-01
    8988.405     -5.808   0.520  3.42748E-01  4.98219E-01 -1.55471E-01
    8988.569     -5.644   0.560  3.59109E-01  5.16934E-01 -1.57825E-01
    8988.746     -5.467   0.600  3.75017E-01  5.34924E-01 -1.59907E-01
    8988.935     -5.278   0.640  3.90894E-01  5.52227E-01 -1.61333E-01
    8989.136     -5.077   0.680  4.08019E-01  5.68919E-01 -1.60900E-01
    8989.350     -4.863   0.720  4.28595E-01  5.85109E-01 -1.56514E-01
    8989.575     -4.638   0.760  4.55018E-01  6.00906E-01 -1.45888E-01
    8989.813     -4.400   0.800  4.87853E-01  6.16346E-01 -1.28492E-01
    8990.063     -4.150   0.840  5.23529E-01  6.31559E-01 -1.08030E-01
    8990.325     -3.888   0.880  5.54223E-01  6.46554E-01 -9.23306E-02
    8990.599     -3.614   0.920  5.72952E-01  6.61390E-01 -8.84378E-02
    8990.886     -3.327   0.960  5.79162E-01  6.76075E-01 -9.69129E-02
    8991.184     -3.028   1.000  5.80492E-01  6.90665E-01 -1.10172E-01
    8991.495     -2.718   1.040  5.89365E-01  7.05144E-01 -1.15779E-01
    8991.818     -2.394   1.080  6.18001E-01  7.19513E-01 -1.01513E-01
    8992.154     -2.059   1.120  6.75333E-01  7.33766E-01 -5.84326E-02
    8992.501     -1.712   1.160  7.64328E-01  7.47888E-01  1.64408E-02
    8992.861     -1.352   1.200  8.78842E-01  7.61862E-01  1.16980E-01
    8993.233     -0.980   1.240  9.95404E-01  7.75666E-01  2.19737E-01
    8993.617     -0.596   1.280  1.07145E+00  7.89279E-01  2.82170E-01
    8994.013     -0.200   1.320  1.08946E+00  8.02674E-01  2.86787E-01
    8994.421      0.208   1.360  1.08749E+00  8.15822E-01  2.71665E-01
    8994.842      0.629   1.400  1.10699E+00  8.28696E-01  2.78294E-01
    8995.275      1.062   1.440  1.15882E+00  8.41289E-01  3.17534E-01
    8995.720      1.507   1.480  1.21711E+00  8.53549E-01  3.63559E-01
    8996.177      1.964   1.520  1.21542E+00  8.65445E-01  3.49971E-01
    8996.646      2.434   1.560  1.13218E+00  8.76991E-01  2.55184E-01
    8997.128      2.915   1.600  1.02692E+00  8.88138E-01  1.38786E-01
    8997.622      3.409   1.640  9.48991E-01  8.98855E-01  5.01367E-02
    8998.128      3.915   1.680  9.19841E-01  9.09137E-01  1.07041E-02
    8998.646      4.433   1.720  9.47727E-01  9.18977E-01  2.87500E-02
    8999.176      4.963   1.760  1.00253E+00  9.28370E-01  7.41604E-02
    8999.719      5.506   1.800  1.01617E+00  9.37273E-01  7.89014E-02
    9000.274      6.061   1.840  9.76214E-01  9.45701E-01  3.05127E-02
    9000.840      6.628   1.880  9.37264E-01  9.53634E-01 -1.63696E-02
    9001.420      7.207   1.920  9.27287E-01  9.61090E-01 -3.38036E-02
    9002.011      7.798   1.960  9.37582E-01  9.68051E-01 -3.04693E-02
    9002.614      8.401   2.000  9.57070E-01  9.74538E-01 -1.74676E-02
    9003.230      9.017   2.040  9.84458E-01  9.80512E-01  3.94615E-03
    9003.858      9.645   2.080  1.01699E+00  9.86040E-01  3.09528E-02
    9004.498     10.285   2.120  1.04517E+00  9.91086E-01  5.40806E-02
    9005.150     10.937   2.160  1.07275E+00  9.95675E-01  7.70792E-02
    9005.815     11.602   2.200  1.11652E+00  9.99834E-01  1.16690E-01
    9006.491     12.279   2.240  1.17462E+00  1.00355E+00  1.71066E-01
    9007.180     12.967   2.280  1.22076E+00  1.00685E+00  2.13906E-01
    9007.881     13.668   2.320  1.23483E+00  1.00977E+00  2.25062E-01
    9008.595     14.382   2.360  1.22821E+00  1.01228E+00  2.15929E-01
    9009.320     15.107   2.400  1.22280E+00  1.01443E+00  2.08367E-01
    9010.058     15.845   2.440  1.21819E+00  1.01624E+00  2.01951E-01
    9010.807     16.594   2.480  1.19217E+00  1.01771E+00  1.74459E-01
    9011.569     17.356   2.520  1.13171E+00  1.01887E+00  1.12832E-01
    9012.344     18.131   2.560  1.05295E+00  1.01977E+00  3.31846E-02
    9013.130     18.917   2.600  9.78019E-01  1.02038E+00 -4.23582E-02
    9013.928     19.716   2.640  9.26843E-01  1.02074E+00 -9.38968E-02
    9014.739     20.526   2.680  8.99774E-01  1.02086E+00 -1.21089E-01
    9015.562     21.349   2.720  8.83816E-01  1.02080E+00 -1.36981E-01
    9016.397     22.184   2.760  8.71550E-01  1.02051E+00 -1.48961E-01
    9017.245     23.032   2.800  8.59615E-01  1.02007E+00 -1.60459E-01
    9018.104     23.891   2.840  8.47855E-01  1.01946E+00 -1.71601E-01
    9018.976     24.763   2.880  8.37532E-01  1.01873E+00 -1.81193E-01
    9019.860     25.647   2.920  8.30052E-01  1.01785E+00 -1.87798E-01
    9020.756     26.543   2.960  8.26624E-01  1.01688E+00 -1.90255E-01
    9021.664     27.451   3.000  8.27616E-01  1.01580E+00 -1.88183E-01
    9022.585     28.372   3.040  8.32766E-01  1.01466E+00 -1.81893E-01
    9023.517     29.305   3.080  8.42055E-01  1.01345E+00 -1.71392E-01
    9024.462     30.249   3.120  8.55573E-01  1.01219E+00 -1.56614E-01
    9025.419     31.207   3.160  8.72637E-01  1.01091E+00 -1.38272E-01
    9026.389     32.176   3.200  8.92304E-01  1.00958E+00 -1.17271E-01
    9027.370     33.157   3.240  9.13748E-01  1.00826E+00 -9.45074E-02
    9028.364     34.151   3.280  9.35774E-01  1.00691E+00 -7.11370E-02
    9029.370     35.157   3.320  9.57617E-01  1.00559E+00 -4.79727E-02
    9030.388     36.175   3.360  9.78905E-01  1.00427E+00 -2.53679E-02
    9031.418     37.205   3.400  9.99676E-01  1.00297E+00 -3.29194E-03
    9032.460     38.247   3.440  1.02019E+00  1.00172E+00  1.84717E-02
    9033.515     39.302   3.480  1.04056E+00  1.00048E+00  4.00769E-02
    9034.582     40.369   3.520  1.06053E+00  9.99313E-01  6.12136E-02
    9035.661     41.448   3.560  1.07920E+00  9.98165E-01  8.10395E-02
    9036.752     42.539   3.600  1.09564E+00  9.97106E-01  9.85295E-02
    9037.855     43.642   3.640  1.10835E+00  9.96074E-01  1.12272E-01
    9038.971     44.758   3.680  1.11568E+00  9.95114E-01  1.20565E-01
    9040.099     45.886   3.720  1.11638E+00  9.94229E-01  1.22155E-01
    9041.238     47.026   3.760  1.11020E+00  9.93419E-01  1.16785E-01
    9042.391     48.178   3.800  1.09814E+00  9.92686E-01  1.05458E-01
    9043.555     49.342   3.840  1.08207E+00  9.92006E-01  9.00668E-02
    9044.731     50.519   3.880  1.06422E+00  9.91405E-01  7.28185E-02
    9045.920     51.707   3.920  1.04674E+00  9.90883E-01  5.58617E-02
    9047.121     52.908   3.960  1.03165E+00  9.90460E-01  4.11942E-02
    9048.334     54.121   4.000  1.02055E+00  9.90094E-01  3.04558E-02
    9049.559     55.347   4.040  1.01437E+00  9.89784E-01  2.45895E-02
    9050.797     56.584   4.080  1.01308E+00  9.89574E-01  2.35069E-02
    9052.047     57.834   4.120  1.01554E+00  9.89441E-01  2.60985E-02
    9053.308     59.096   4.160  1.01985E+00  9.89365E-01  3.04865E-02
    9054.583     60.370   4.200  1.02390E+00  9.89385E-01  3.45134E-02
    9055.869     61.656   4.240  1.02586E+00  9.89460E-01  3.64052E-02
    9057.167     62.954   4.280  1.02484E+00  9.89585E-01  3.52542E-02
    9058.478     64.265   4.320  1.02084E+00  9.89803E-01  3.10414E-02
    9059.801     65.588   4.360  1.01433E+00  9.90051E-01  2.42775E-02
    9061.136     66.923   4.400  1.00604E+00  9.90367E-01  1.56707E-02
    9062.483     68.270   4.440  9.96740E-01  9.90753E-01  5.98636E-03
    9063.842     69.629   4.480  9.87129E-01  9.91184E-01 -4.05531E-03
    9065.214     71.001   4.520  9.77899E-01  9.91657E-01 -1.37579E-02
    9066.598     72.385   4.560  9.69605E-01  9.92169E-01 -2.25646E-02
    9067.994     73.781   4.600  9.62642E-01  9.92720E-01 -3.00777E-02
    9069.402     75.189   4.640  9.57350E-01  9.93285E-01 -3.59349E-02
    9070.822     76.609   4.680  9.54083E-01  9.93906E-01 -3.98236E-02
    9072.255     78.042   4.720  9.52963E-01  9.94538E-01 -4.15753E-02
    9073.700     79.487   4.760  9.53944E-01  9.95177E-01 -4.12329E-02
    9075.156     80.944   4.800  9.56716E-01  9.95844E-01 -3.91278E-02
    9076.626     82.413   4.840  9.60609E-01  9.96515E-01 -3.59065E-02
    9078.107     83.894   4.880  9.64739E-01  9.97190E-01 -3.24512E-02
    9079.600     85.388   4.920  9.67990E-01  9.97886E-01 -2.98962E-02
    9081.106     86.893   4.960  9.69078E-01  9.98558E-01 -2.94805E-02
    9082.624     88.411   5.000  9.67065E-01  9.99223E-01 -3.21582E-02
    9084.154     89.941   5.040  9.61887E-01  9.99858E-01 -3.79708E-02
    9085.696     91.484   5.080  9.54684E-01  1.00048E+00 -4.58014E-02
    9087.251     93.038   5.120  9.47380E-01  1.00110E+00 -5.37223E-02
    9088.818     94.605   5.160  9.41967E-01  1.00168E+00 -5.97175E-02
    9090.396     96.184   5.200  9.39978E-01  1.00223E+00 -6.22501E-02
    9091.987     97.775   5.240  9.42278E-01  1.00273E+00 -6.04549E-02
    9093.591     99.378   5.280  9.49031E-01  1.00320E+00 -5.41690E-02
    9095.206    100.993   5.320  9.59759E-01  1.00365E+00 -4.38885E-02
    9096.834    102.621   5.360  9.73380E-01  1.00403E+00 -3.06505E-02
    9098.474    104.261   5.400  9.88627E-01  1.00437E+00 -1.57410E-02
    9100.126    105.913   5.440  1.00431E+00  1.00466E+00 -3.49427E-04
    9101.790    107.577   5.480  1.01952E+00  1.00489E+00  1.46354E-02
    9103.466    109.253   5.520  1.03367E+00  1.00509E+00  2.85820E-02
    9105.155    110.942   5.560  1.04617E+00  1.00522E+00  4.09509E-02
    9106.856    112.643   5.600  1.05657E+00  1.00528E+00  5.12871E-02
    9108.568    114.356   5.640  1.06466E+00  1.00529E+00  5.93645E-02
    9110.294    116.081   5.680  1.07040E+00  1.00526E+00  6.51369E-02
    9112.031    117.818   5.720  1.07360E+00  1.00515E+00  6.84467E-02
    9113.781    119.568   5.760  1.07382E+00  1.00500E+00  6.88225E-02
    9115.542    121.329   5.800  1.07051E+00  1.00478E+00  6.57332E-02
    9117.316    123.103   5.840  1.06364E+00  1.00451E+00  5.91289E-02
    9119.102    124.889   5.880  1.05388E+00  1.00421E+00  4.96705E-02
    9120.901    126.688   5.920  1.04234E+00  1.00386E+00  3.84800E-02
    9122.711    128.498   5.960  1.03028E+00  1.00344E+00  2.68379E-02
    9124.534    130.321   6.000  1.01885E+00  1.00294E+00  1.59035E-02
