# # comment:                                                     FEFF 9.9.1  
# # Source:
# # Structure
# # Reduced
# # space
# # abc:
# # angles:108.672349
# # sites:
# # POT  SCF 100  7.0000   0, screened core-hole, AFOLP (folp(0)= 1.150)
# # Abs   Z=29 Rmt= 1.296 Rnm= 1.377 K  shell
# # Pot 1 Z=29 Rmt= 1.251 Rnm= 1.367
# # Pot 2 Z= 8 Rmt= 0.985 Rnm= 1.115
# # Pot 3 Z= 9 Rmt= 1.080 Rnm= 1.138
# # Gam_ch=1.729E+00 H-L exch Vi= 0.000E+00 Vr= 0.000E+00
# # Mu=-6.911E+00eV kf=2.007E+00 Vint=-1.310E+01eV Rs_int= 1.807
# FMS rfms= 9.0000
# # PATH  Rmax=-1.000,  Keep_limit= 0.00, Heap_limit 0.00  Pwcrit= 2.50%
#  S02=0.950  Temp=   0.00  Debye_temp=   0.00  Global_sig2= 0.00000
#  Energy zero shift, vr, vi    0.00000E+00   0.00000E+00
#  Curved wave amplitude ratio filter   4.000%
#     file         sig2 tot  cw amp ratio   deg  nlegs   reff  inp sig2
#     0/   0 paths used
#  xsedge+ 50, used to normalize mu           2.4286E-04
#  -----------------------------------------------------------------------
#  omega    e    k    mu    mu0     chi     @#
    8983.344    -10.721  -1.000  3.44427E-02  5.40849E-02 -1.96423E-02
    8983.643    -10.423  -0.960  3.59084E-02  5.79347E-02 -2.20263E-02
    8983.929    -10.136  -0.920  3.74475E-02  6.21999E-02 -2.47524E-02
    8984.204     -9.862  -0.880  3.90648E-02  6.69400E-02 -2.78752E-02
    8984.466     -9.600  -0.840  4.07654E-02  7.22240E-02 -3.14585E-02
    8984.716     -9.350  -0.800  4.25554E-02  7.81314E-02 -3.55760E-02
    8984.953     -9.112  -0.760  4.44413E-02  8.47535E-02 -4.03122E-02
    8985.179     -8.886  -0.720  4.64301E-02  9.21927E-02 -4.57626E-02
    8985.392     -8.673  -0.680  4.85294E-02  1.00562E-01 -5.20323E-02
    8985.593     -8.472  -0.640  5.07463E-02  1.09979E-01 -5.92322E-02
    8985.782     -8.283  -0.600  5.30872E-02  1.20559E-01 -6.74719E-02
    8985.959     -8.106  -0.560  5.55552E-02  1.32401E-01 -7.68460E-02
    8986.124     -7.942  -0.520  5.81483E-02  1.45562E-01 -8.74134E-02
    8986.276     -7.789  -0.480  6.08553E-02  1.60025E-01 -9.91692E-02
    8986.416     -7.649  -0.440  6.36520E-02  1.75664E-01 -1.12012E-01
    8986.544     -7.521  -0.400  6.64981E-02  1.92213E-01 -1.25715E-01
    8986.660     -7.405  -0.360  6.93362E-02  2.09254E-01 -1.39918E-01
    8986.764     -7.302  -0.320  7.20957E-02  2.26244E-01 -1.54148E-01
    8986.855     -7.210  -0.280  7.47002E-02  2.42578E-01 -1.67878E-01
    8986.935     -7.131  -0.240  7.70777E-02  2.57671E-01 -1.80594E-01
    8987.002     -7.064  -0.200  7.91683E-02  2.71030E-01 -1.91862E-01
    8987.056     -7.009  -0.160  8.09269E-02  2.82286E-01 -2.01359E-01
    8987.099     -6.966  -0.120  8.23228E-02  2.91199E-01 -2.08877E-01
    8987.130     -6.936  -0.080  8.33362E-02  2.97631E-01 -2.14294E-01
    8987.154     -6.911   0.000  8.41688E-02  3.02805E-01 -2.18636E-01
    8987.209     -6.856   0.120  8.61398E-02  3.14499E-01 -2.28359E-01
    8987.252     -6.814   0.160  8.76181E-02  3.23604E-01 -2.35986E-01
    8987.306     -6.759   0.200  8.94599E-02  3.35248E-01 -2.45788E-01
    8987.373     -6.692   0.240  9.17131E-02  3.49347E-01 -2.57634E-01
    8987.453     -6.613   0.280  9.43027E-02  3.65627E-01 -2.71324E-01
    8987.544     -6.521   0.320  9.72136E-02  3.83735E-01 -2.86522E-01
    8987.648     -6.418   0.360  1.00453E-01  4.03227E-01 -3.02774E-01
    8987.764     -6.302   0.400  1.04047E-01  4.23624E-01 -3.19576E-01
    8987.892     -6.174   0.440  1.08070E-01  4.44444E-01 -3.36374E-01
    8988.032     -6.034   0.480  1.12657E-01  4.65345E-01 -3.52688E-01
    8988.184     -5.881   0.520  1.18060E-01  4.86106E-01 -3.68046E-01
    8988.349     -5.717   0.560  1.24474E-01  5.06580E-01 -3.82107E-01
    8988.526     -5.540   0.600  1.32089E-01  5.26730E-01 -3.94641E-01
    8988.715     -5.351   0.640  1.41055E-01  5.46594E-01 -4.05539E-01
    8988.916     -5.150   0.680  1.51291E-01  5.66200E-01 -4.14908E-01
    8989.129     -4.936   0.720  1.62645E-01  5.85582E-01 -4.22937E-01
    8989.355     -4.711   0.760  1.75026E-01  6.04815E-01 -4.29789E-01
    8989.592     -4.473   0.800  1.88607E-01  6.23921E-01 -4.35314E-01
    8989.842     -4.223   0.840  2.03979E-01  6.42910E-01 -4.38931E-01
    8990.104     -3.961   0.880  2.22190E-01  6.61759E-01 -4.39569E-01
    8990.379     -3.687   0.920  2.44553E-01  6.80493E-01 -4.35940E-01
    8990.665     -3.400   0.960  2.71913E-01  6.99086E-01 -4.27174E-01
    8990.964     -3.101   1.000  3.03938E-01  7.17481E-01 -4.13543E-01
    8991.275     -2.790   1.040  3.39306E-01  7.35635E-01 -3.96329E-01
    8991.598     -2.467   1.080  3.77044E-01  7.53540E-01 -3.76496E-01
    8991.933     -2.132   1.120  4.17566E-01  7.71080E-01 -3.53514E-01
    8992.281     -1.785   1.160  4.61844E-01  7.88261E-01 -3.26416E-01
    8992.640     -1.425   1.200  5.08881E-01  8.05002E-01 -2.96121E-01
    8993.012     -1.053   1.240  5.54886E-01  8.21246E-01 -2.66359E-01
    8993.396     -0.669   1.280  5.95190E-01  8.36953E-01 -2.41762E-01
    8993.793     -0.273   1.320  6.28103E-01  8.52064E-01 -2.23961E-01
    8994.201      0.136   1.360  6.59129E-01  8.66564E-01 -2.07435E-01
    8994.622      0.556   1.400  6.99205E-01  8.80396E-01 -1.81191E-01
    8995.054      0.989   1.440  7.58008E-01  8.93552E-01 -1.35545E-01
    8995.499      1.434   1.480  8.39053E-01  9.05981E-01 -6.69286E-02
    8995.957      1.891   1.520  9.38548E-01  9.17674E-01  2.08738E-02
    8996.426      2.361   1.560  1.05030E+00  9.28629E-01  1.21673E-01
    8996.908      2.842   1.600  1.16918E+00  9.38824E-01  2.30352E-01
    8997.401      3.336   1.640  1.29085E+00  9.48283E-01  3.42565E-01
    8997.907      3.842   1.680  1.41123E+00  9.56988E-01  4.54240E-01
    8998.425      4.360   1.720  1.51968E+00  9.64969E-01  5.54712E-01
    8998.956      4.890   1.760  1.59864E+00  9.72232E-01  6.26411E-01
    8999.498      5.433   1.800  1.63811E+00  9.78790E-01  6.59319E-01
    9000.053      5.988   1.840  1.64531E+00  9.84697E-01  6.60611E-01
    9000.620      6.555   1.880  1.63108E+00  9.89947E-01  6.41131E-01
    9001.199      7.134   1.920  1.59303E+00  9.94575E-01  5.98457E-01
    9001.790      7.725   1.960  1.52257E+00  9.98638E-01  5.23936E-01
    9002.394      8.329   2.000  1.42089E+00  1.00215E+00  4.18732E-01
    9003.010      8.944   2.040  1.30540E+00  1.00514E+00  3.00260E-01
    9003.638      9.572   2.080  1.19677E+00  1.00765E+00  1.89117E-01
    9004.278     10.212   2.120  1.10235E+00  1.00971E+00  9.26313E-02
    9004.930     10.865   2.160  1.02238E+00  1.01136E+00  1.10185E-02
    9005.594     11.529   2.200  9.58521E-01  1.01262E+00 -5.41018E-02
    9006.271     12.206   2.240  9.12526E-01  1.01355E+00 -1.01022E-01
    9006.960     12.894   2.280  8.86633E-01  1.01415E+00 -1.27516E-01
    9007.661     13.595   2.320  8.83372E-01  1.01448E+00 -1.31110E-01
    9008.374     14.309   2.360  9.00987E-01  1.01454E+00 -1.13558E-01
    9009.100     15.034   2.400  9.34013E-01  1.01441E+00 -8.03994E-02
    9009.837     15.772   2.440  9.70306E-01  1.01408E+00 -4.37704E-02
    9010.587     16.522   2.480  9.91725E-01  1.01355E+00 -2.18256E-02
    9011.349     17.284   2.520  1.00059E+00  1.01291E+00 -1.23225E-02
    9012.123     18.058   2.560  1.00151E+00  1.01213E+00 -1.06185E-02
    9012.910     18.844   2.600  9.98076E-01  1.01125E+00 -1.31745E-02
    9013.708     19.643   2.640  9.91910E-01  1.01031E+00 -1.84037E-02
    9014.519     20.453   2.680  9.83485E-01  1.00930E+00 -2.58191E-02
    9015.342     21.276   2.720  9.72634E-01  1.00825E+00 -3.56163E-02
    9016.177     22.112   2.760  9.59377E-01  1.00716E+00 -4.77838E-02
    9017.024     22.959   2.800  9.43838E-01  1.00607E+00 -6.22274E-02
    9017.884     23.818   2.840  9.26690E-01  1.00499E+00 -7.83005E-02
    9018.756     24.690   2.880  9.08727E-01  1.00392E+00 -9.51953E-02
    9019.639     25.574   2.920  8.90862E-01  1.00286E+00 -1.12002E-01
    9020.536     26.470   2.960  8.74241E-01  1.00184E+00 -1.27602E-01
    9021.444     27.378   3.000  8.59917E-01  1.00088E+00 -1.40967E-01
    9022.364     28.299   3.040  8.48756E-01  9.99952E-01 -1.51196E-01
    9023.297     29.232   3.080  8.41675E-01  9.99109E-01 -1.57434E-01
    9024.242     30.177   3.120  8.39297E-01  9.98318E-01 -1.59021E-01
    9025.199     31.134   3.160  8.41639E-01  9.97582E-01 -1.55942E-01
    9026.168     32.103   3.200  8.48300E-01  9.96943E-01 -1.48644E-01
    9027.150     33.084   3.240  8.58977E-01  9.96362E-01 -1.37385E-01
    9028.143     34.078   3.280  8.73385E-01  9.95862E-01 -1.22477E-01
    9029.149     35.084   3.320  8.91319E-01  9.95466E-01 -1.04147E-01
    9030.167     36.102   3.360  9.12472E-01  9.95131E-01 -8.26595E-02
    9031.197     37.132   3.400  9.36463E-01  9.94901E-01 -5.84373E-02
    9032.240     38.174   3.440  9.62444E-01  9.94753E-01 -3.23087E-02
    9033.294     39.229   3.480  9.89163E-01  9.94687E-01 -5.52414E-03
    9034.361     40.296   3.520  1.01506E+00  9.94682E-01  2.03791E-02
    9035.440     41.375   3.560  1.03871E+00  9.94779E-01  4.39306E-02
    9036.531     42.466   3.600  1.05891E+00  9.94960E-01  6.39501E-02
    9037.635     43.569   3.640  1.07499E+00  9.95222E-01  7.97715E-02
    9038.750     44.685   3.680  1.08698E+00  9.95563E-01  9.14150E-02
    9039.878     45.813   3.720  1.09529E+00  9.95981E-01  9.93061E-02
    9041.018     46.953   3.760  1.10041E+00  9.96455E-01  1.03959E-01
    9042.170     48.105   3.800  1.10278E+00  9.97024E-01  1.05757E-01
    9043.335     49.269   3.840  1.10260E+00  9.97621E-01  1.04976E-01
    9044.511     50.446   3.880  1.10023E+00  9.98290E-01  1.01939E-01
    9045.700     51.634   3.920  1.09601E+00  9.99029E-01  9.69800E-02
    9046.901     52.835   3.960  1.09025E+00  9.99810E-01  9.04384E-02
    9048.114     54.048   4.000  1.08320E+00  1.00061E+00  8.25836E-02
    9049.339     55.274   4.040  1.07524E+00  1.00148E+00  7.37656E-02
    9050.577     56.511   4.080  1.06659E+00  1.00238E+00  6.42133E-02
    9051.826     57.761   4.120  1.05752E+00  1.00332E+00  5.42026E-02
    9053.088     59.023   4.160  1.04836E+00  1.00427E+00  4.40929E-02
    9054.362     60.297   4.200  1.03948E+00  1.00522E+00  3.42617E-02
    9055.648     61.583   4.240  1.03122E+00  1.00621E+00  2.50075E-02
    9056.947     62.881   4.280  1.02378E+00  1.00722E+00  1.65659E-02
    9058.257     64.192   4.320  1.01742E+00  1.00821E+00  9.21600E-03
    9059.580     65.515   4.360  1.01253E+00  1.00920E+00  3.33245E-03
    9060.915     66.850   4.400  1.00936E+00  1.01020E+00 -8.40812E-04
    9062.263     68.197   4.440  1.00771E+00  1.01116E+00 -3.44785E-03
    9063.622     69.557   4.480  1.00709E+00  1.01213E+00 -5.03904E-03
    9064.994     70.928   4.520  1.00662E+00  1.01306E+00 -6.44424E-03
    9066.377     72.312   4.560  1.00553E+00  1.01396E+00 -8.43251E-03
    9067.773     73.708   4.600  1.00341E+00  1.01485E+00 -1.14378E-02
    9069.181     75.116   4.640  1.00024E+00  1.01569E+00 -1.54556E-02
    9070.602     76.536   4.680  9.96360E-01  1.01648E+00 -2.01168E-02
    9072.034     77.969   4.720  9.92290E-01  1.01724E+00 -2.49482E-02
    9073.479     79.414   4.760  9.88437E-01  1.01796E+00 -2.95178E-02
    9074.936     80.871   4.800  9.85190E-01  1.01860E+00 -3.34126E-02
    9076.405     82.340   4.840  9.82839E-01  1.01920E+00 -3.63642E-02
    9077.887     83.821   4.880  9.81431E-01  1.01976E+00 -3.83251E-02
    9079.380     85.315   4.920  9.80825E-01  1.02024E+00 -3.94113E-02
    9080.886     86.820   4.960  9.80895E-01  1.02067E+00 -3.97711E-02
    9082.404     88.338   5.000  9.81555E-01  1.02104E+00 -3.94893E-02
    9083.934     89.868   5.040  9.82653E-01  1.02133E+00 -3.86757E-02
    9085.476     91.411   5.080  9.83957E-01  1.02158E+00 -3.76238E-02
    9087.030     92.965   5.120  9.84982E-01  1.02176E+00 -3.67771E-02
    9088.597     94.532   5.160  9.85372E-01  1.02186E+00 -3.64915E-02
    9090.176     96.111   5.200  9.85213E-01  1.02191E+00 -3.66994E-02
    9091.767     97.702   5.240  9.85079E-01  1.02189E+00 -3.68076E-02
    9093.370     99.305   5.280  9.85960E-01  1.02179E+00 -3.58259E-02
    9094.986    100.920   5.320  9.88936E-01  1.02164E+00 -3.27000E-02
    9096.613    102.548   5.360  9.94741E-01  1.02144E+00 -2.66942E-02
    9098.253    104.188   5.400  1.00341E+00  1.02116E+00 -1.77519E-02
    9099.905    105.840   5.440  1.01420E+00  1.02085E+00 -6.64458E-03
    9101.569    107.504   5.480  1.02571E+00  1.02048E+00  5.23451E-03
    9103.246    109.180   5.520  1.03647E+00  1.02005E+00  1.64237E-02
    9104.934    110.869   5.560  1.04551E+00  1.01959E+00  2.59219E-02
    9106.635    112.570   5.600  1.05238E+00  1.01907E+00  3.33105E-02
    9108.348    114.283   5.640  1.05693E+00  1.01850E+00  3.84270E-02
    9110.073    116.008   5.680  1.05895E+00  1.01790E+00  4.10563E-02
    9111.811    117.745   5.720  1.05827E+00  1.01725E+00  4.10202E-02
    9113.560    119.495   5.760  1.05517E+00  1.01657E+00  3.85941E-02
    9115.322    121.257   5.800  1.05056E+00  1.01588E+00  3.46812E-02
    9117.096    123.030   5.840  1.04562E+00  1.01516E+00  3.04610E-02
    9118.882    124.817   5.880  1.04121E+00  1.01441E+00  2.68001E-02
    9120.680    126.615   5.920  1.03758E+00  1.01366E+00  2.39149E-02
    9122.491    128.425   5.960  1.03437E+00  1.01293E+00  2.14483E-02
    9124.313    130.248   6.000  1.03093E+00  1.01215E+00  1.87794E-02
