# # comment:                                                     FEFF 9.9.1  
# # Source:
# # Structure
# # Reduced
# # space
# # abc:
# # angles:128.044266
# # sites:
# # POT  SCF 100  7.0000   0, screened core-hole, AFOLP (folp(0)= 1.150)
# # Abs   Z=29 Rmt= 1.231 Rnm= 1.331 K  shell
# # Pot 1 Z=29 Rmt= 1.231 Rnm= 1.331
# # Pot 2 Z=47 Rmt= 1.433 Rnm= 1.551
# # Pot 3 Z= 8 Rmt= 1.005 Rnm= 1.103
# # Gam_ch=1.729E+00 H-L exch Vi= 0.000E+00 Vr= 0.000E+00
# # Mu=-6.242E+00eV kf=2.035E+00 Vint=-1.417E+01eV Rs_int= 1.782
# FMS rfms= 9.0000
# # PATH  Rmax=-1.000,  Keep_limit= 0.00, Heap_limit 0.00  Pwcrit= 2.50%
#  S02=0.950  Temp=   0.00  Debye_temp=   0.00  Global_sig2= 0.00000
#  Energy zero shift, vr, vi    0.00000E+00   0.00000E+00
#  Curved wave amplitude ratio filter   4.000%
#     file         sig2 tot  cw amp ratio   deg  nlegs   reff  inp sig2
#     0/   0 paths used
#  xsedge+ 50, used to normalize mu           2.4270E-04
#  -----------------------------------------------------------------------
#  omega    e    k    mu    mu0     chi     @#
    8983.529    -10.052  -1.000  4.11396E-02  5.69216E-02 -1.57819E-02
    8983.828     -9.753  -0.960  4.35269E-02  6.10991E-02 -1.75723E-02
    8984.114     -9.467  -0.920  4.61293E-02  6.57420E-02 -1.96126E-02
    8984.389     -9.193  -0.880  4.89740E-02  7.09183E-02 -2.19443E-02
    8984.651     -8.931  -0.840  5.20915E-02  7.67075E-02 -2.46159E-02
    8984.901     -8.681  -0.800  5.55166E-02  8.32016E-02 -2.76850E-02
    8985.138     -8.443  -0.760  5.92875E-02  9.05059E-02 -3.12185E-02
    8985.364     -8.217  -0.720  6.34463E-02  9.87396E-02 -3.52934E-02
    8985.577     -8.004  -0.680  6.80375E-02  1.08034E-01 -3.99962E-02
    8985.778     -7.803  -0.640  7.31062E-02  1.18526E-01 -4.54202E-02
    8985.967     -7.614  -0.600  7.86946E-02  1.30353E-01 -5.16585E-02
    8986.144     -7.437  -0.560  8.48364E-02  1.43630E-01 -5.87932E-02
    8986.309     -7.272  -0.520  9.15490E-02  1.58424E-01 -6.68754E-02
    8986.461     -7.120  -0.480  9.88225E-02  1.74722E-01 -7.58993E-02
    8986.601     -6.980  -0.440  1.06608E-01  1.92379E-01 -8.57714E-02
    8986.729     -6.852  -0.400  1.14804E-01  2.11089E-01 -9.62851E-02
    8986.845     -6.736  -0.360  1.23256E-01  2.30372E-01 -1.07116E-01
    8986.949     -6.632  -0.320  1.31753E-01  2.49601E-01 -1.17848E-01
    8987.040     -6.541  -0.280  1.40048E-01  2.68081E-01 -1.28033E-01
    8987.120     -6.462  -0.240  1.47876E-01  2.85144E-01 -1.37269E-01
    8987.187     -6.395  -0.200  1.54980E-01  3.00228E-01 -1.45249E-01
    8987.242     -6.340  -0.160  1.61129E-01  3.12921E-01 -1.51793E-01
    8987.284     -6.297  -0.120  1.66129E-01  3.22958E-01 -1.56830E-01
    8987.315     -6.267  -0.080  1.69830E-01  3.30191E-01 -1.60361E-01
    8987.339     -6.242   0.000  1.72917E-01  3.36004E-01 -1.63087E-01
    8987.394     -6.187   0.120  1.79940E-01  3.49117E-01 -1.69177E-01
    8987.437     -6.145   0.160  1.85487E-01  3.59315E-01 -1.73828E-01
    8987.491     -6.090   0.200  1.92795E-01  3.72335E-01 -1.79540E-01
    8987.559     -6.023   0.240  2.02020E-01  3.88009E-01 -1.85989E-01
    8987.638     -5.943   0.280  2.13324E-01  4.06056E-01 -1.92732E-01
    8987.729     -5.852   0.320  2.26804E-01  4.25972E-01 -1.99168E-01
    8987.833     -5.748   0.360  2.42608E-01  4.47243E-01 -2.04635E-01
    8987.949     -5.633   0.400  2.60724E-01  4.69238E-01 -2.08514E-01
    8988.077     -5.505   0.440  2.80934E-01  4.91437E-01 -2.10503E-01
    8988.217     -5.364   0.480  3.02495E-01  5.13359E-01 -2.10863E-01
    8988.369     -5.212   0.520  3.24001E-01  5.34776E-01 -2.10775E-01
    8988.534     -5.047   0.560  3.43060E-01  5.55502E-01 -2.12442E-01
    8988.711     -4.871   0.600  3.57016E-01  5.75520E-01 -2.18505E-01
    8988.900     -4.682   0.640  3.64248E-01  5.94864E-01 -2.30616E-01
    8989.101     -4.480   0.680  3.65572E-01  6.13604E-01 -2.48032E-01
    8989.314     -4.267   0.720  3.63981E-01  6.31847E-01 -2.67866E-01
    8989.540     -4.042   0.760  3.62561E-01  6.49613E-01 -2.87051E-01
    8989.777     -3.804   0.800  3.62977E-01  6.67036E-01 -3.04059E-01
    8990.027     -3.554   0.840  3.65008E-01  6.84112E-01 -3.19104E-01
    8990.290     -3.292   0.880  3.67739E-01  7.00928E-01 -3.33189E-01
    8990.564     -3.017   0.920  3.70295E-01  7.17451E-01 -3.47156E-01
    8990.850     -2.731   0.960  3.72160E-01  7.33740E-01 -3.61580E-01
    8991.149     -2.432   1.000  3.73117E-01  7.49781E-01 -3.76664E-01
    8991.460     -2.121   1.040  3.74360E-01  7.65531E-01 -3.91171E-01
    8991.783     -1.798   1.080  3.78802E-01  7.81021E-01 -4.02219E-01
    8992.118     -1.463   1.120  3.88976E-01  7.96174E-01 -4.07198E-01
    8992.466     -1.115   1.160  4.05670E-01  8.11012E-01 -4.05342E-01
    8992.825     -0.756   1.200  4.28387E-01  8.25468E-01 -3.97081E-01
    8993.197     -0.384   1.240  4.56848E-01  8.39539E-01 -3.82691E-01
    8993.581      0.000   1.280  4.92072E-01  8.53175E-01 -3.61102E-01
    8993.978      0.396   1.320  5.36736E-01  8.66347E-01 -3.29611E-01
    8994.386      0.805   1.360  5.93023E-01  8.79029E-01 -2.86007E-01
    8994.807      1.225   1.400  6.57557E-01  8.91215E-01 -2.33657E-01
    8995.239      1.658   1.440  7.18037E-01  9.02852E-01 -1.84815E-01
    8995.684      2.103   1.480  7.63395E-01  9.13935E-01 -1.50540E-01
    8996.142      2.560   1.520  8.01050E-01  9.24462E-01 -1.23412E-01
    8996.611      3.030   1.560  8.45976E-01  9.34387E-01 -8.84109E-02
    8997.093      3.511   1.600  9.00903E-01  9.43728E-01 -4.28247E-02
    8997.586      4.005   1.640  9.65210E-01  9.52465E-01  1.27451E-02
    8998.092      4.511   1.680  1.04465E+00  9.60600E-01  8.40474E-02
    8998.611      5.029   1.720  1.14312E+00  9.68156E-01  1.74964E-01
    8999.141      5.560   1.760  1.25369E+00  9.75117E-01  2.78573E-01
    8999.683      6.102   1.800  1.35844E+00  9.81489E-01  3.76955E-01
    9000.238      6.657   1.840  1.43379E+00  9.87300E-01  4.46490E-01
    9000.805      7.224   1.880  1.46955E+00  9.92558E-01  4.76993E-01
    9001.384      7.803   1.920  1.47611E+00  9.97273E-01  4.78832E-01
    9001.975      8.394   1.960  1.46359E+00  1.00150E+00  4.62094E-01
    9002.579      8.998   2.000  1.43732E+00  1.00520E+00  4.32123E-01
    9003.195      9.613   2.040  1.40157E+00  1.00845E+00  3.93114E-01
    9003.823     10.241   2.080  1.35946E+00  1.01125E+00  3.48210E-01
    9004.463     10.881   2.120  1.31209E+00  1.01363E+00  2.98461E-01
    9005.115     11.534   2.160  1.25758E+00  1.01560E+00  2.41980E-01
    9005.779     12.198   2.200  1.19750E+00  1.01721E+00  1.80282E-01
    9006.456     12.875   2.240  1.14010E+00  1.01848E+00  1.21615E-01
    9007.145     13.564   2.280  1.09803E+00  1.01943E+00  7.85995E-02
    9007.846     14.265   2.320  1.08134E+00  1.02005E+00  6.12908E-02
    9008.559     14.978   2.360  1.08480E+00  1.02043E+00  6.43653E-02
    9009.285     15.703   2.400  1.09115E+00  1.02055E+00  7.06044E-02
    9010.022     16.441   2.440  1.09136E+00  1.02046E+00  7.08919E-02
    9010.772     17.191   2.480  1.08597E+00  1.02015E+00  6.58185E-02
    9011.534     17.953   2.520  1.08058E+00  1.01969E+00  6.08918E-02
    9012.308     18.727   2.560  1.07493E+00  1.01904E+00  5.58807E-02
    9013.095     19.513   2.600  1.06700E+00  1.01829E+00  4.87103E-02
    9013.893     20.312   2.640  1.05483E+00  1.01738E+00  3.74501E-02
    9014.704     21.123   2.680  1.03804E+00  1.01641E+00  2.16312E-02
    9015.527     21.946   2.720  1.01799E+00  1.01533E+00  2.65516E-03
    9016.362     22.781   2.760  9.96805E-01  1.01420E+00 -1.73944E-02
    9017.209     23.628   2.800  9.75814E-01  1.01302E+00 -3.72053E-02
    9018.069     24.488   2.840  9.56005E-01  1.01180E+00 -5.57939E-02
    9018.941     25.359   2.880  9.38142E-01  1.01057E+00 -7.24247E-02
    9019.825     26.243   2.920  9.23123E-01  1.00931E+00 -8.61851E-02
    9020.721     27.139   2.960  9.12449E-01  1.00807E+00 -9.56181E-02
    9021.629     28.048   3.000  9.06293E-01  1.00681E+00 -1.00517E-01
    9022.549     28.968   3.040  9.04038E-01  1.00561E+00 -1.01567E-01
    9023.482     29.901   3.080  9.04479E-01  1.00441E+00 -9.99361E-02
    9024.427     30.846   3.120  9.05660E-01  1.00326E+00 -9.76030E-02
    9025.384     31.803   3.160  9.04998E-01  1.00218E+00 -9.71774E-02
    9026.353     32.772   3.200  9.00375E-01  1.00113E+00 -1.00759E-01
    9027.335     33.753   3.240  8.91550E-01  1.00014E+00 -1.08591E-01
    9028.328     34.747   3.280  8.79968E-01  9.99220E-01 -1.19252E-01
    9029.334     35.753   3.320  8.68180E-01  9.98352E-01 -1.30172E-01
    9030.352     36.771   3.360  8.58860E-01  9.97582E-01 -1.38722E-01
    9031.382     37.801   3.400  8.53911E-01  9.96869E-01 -1.42958E-01
    9032.425     38.844   3.440  8.54447E-01  9.96233E-01 -1.41787E-01
    9033.479     39.898   3.480  8.61032E-01  9.95678E-01 -1.34646E-01
    9034.546     40.965   3.520  8.73647E-01  9.95204E-01 -1.21557E-01
    9035.625     42.044   3.560  8.91258E-01  9.94813E-01 -1.03555E-01
    9036.716     43.135   3.600  9.12462E-01  9.94526E-01 -8.20632E-02
    9037.820     44.239   3.640  9.35572E-01  9.94299E-01 -5.87266E-02
    9038.935     45.354   3.680  9.59019E-01  9.94154E-01 -3.51349E-02
    9040.063     46.482   3.720  9.81458E-01  9.94111E-01 -1.26523E-02
    9041.203     47.622   3.760  1.00181E+00  9.94128E-01  7.68495E-03
    9042.355     48.774   3.800  1.01914E+00  9.94226E-01  2.49185E-02
    9043.520     49.938   3.840  1.03256E+00  9.94426E-01  3.81376E-02
    9044.696     51.115   3.880  1.04162E+00  9.94682E-01  4.69340E-02
    9045.885     52.304   3.920  1.04682E+00  9.95014E-01  5.18047E-02
    9047.086     53.504   3.960  1.04963E+00  9.95402E-01  5.42285E-02
    9048.299     54.718   4.000  1.05219E+00  9.95886E-01  5.63068E-02
    9049.524     55.943   4.040  1.05620E+00  9.96420E-01  5.97782E-02
    9050.762     57.180   4.080  1.06228E+00  9.97003E-01  6.52782E-02
    9052.011     58.430   4.120  1.06989E+00  9.97657E-01  7.22291E-02
    9053.273     59.692   4.160  1.07785E+00  9.98357E-01  7.94888E-02
    9054.547     60.966   4.200  1.08511E+00  9.99101E-01  8.60100E-02
    9055.833     62.252   4.240  1.09110E+00  9.99907E-01  9.11943E-02
    9057.132     63.551   4.280  1.09549E+00  1.00073E+00  9.47580E-02
    9058.442     64.861   4.320  1.09766E+00  1.00159E+00  9.60682E-02
    9059.765     66.184   4.360  1.09648E+00  1.00249E+00  9.39909E-02
    9061.100     67.519   4.400  1.09098E+00  1.00342E+00  8.75544E-02
    9062.448     68.866   4.440  1.08097E+00  1.00436E+00  7.66032E-02
    9063.807     70.226   4.480  1.06701E+00  1.00531E+00  6.17034E-02
    9065.179     71.597   4.520  1.05027E+00  1.00628E+00  4.39944E-02
    9066.562     72.981   4.560  1.03247E+00  1.00725E+00  2.52112E-02
    9067.958     74.377   4.600  1.01575E+00  1.00823E+00  7.51724E-03
    9069.366     75.785   4.640  1.00214E+00  1.00920E+00 -7.05793E-03
    9070.787     77.206   4.680  9.92930E-01  1.01014E+00 -1.72099E-02
    9072.219     78.638   4.720  9.88398E-01  1.01107E+00 -2.26762E-02
    9073.664     80.083   4.760  9.87945E-01  1.01200E+00 -2.40552E-02
    9075.121     81.540   4.800  9.90599E-01  1.01289E+00 -2.22951E-02
    9076.590     83.009   4.840  9.95594E-01  1.01377E+00 -1.81805E-02
    9078.072     84.490   4.880  1.00249E+00  1.01462E+00 -1.21314E-02
    9079.565     85.984   4.920  1.01104E+00  1.01542E+00 -4.38378E-03
    9081.071     87.490   4.960  1.02068E+00  1.01618E+00  4.49323E-03
    9082.589     89.007   5.000  1.03012E+00  1.01690E+00  1.32213E-02
    9084.119     90.537   5.040  1.03741E+00  1.01755E+00  1.98559E-02
    9085.661     92.080   5.080  1.04061E+00  1.01818E+00  2.24289E-02
    9087.215     93.634   5.120  1.03854E+00  1.01874E+00  1.98029E-02
    9088.782     95.201   5.160  1.03141E+00  1.01925E+00  1.21597E-02
    9090.361     96.780   5.200  1.02057E+00  1.01971E+00  8.60267E-04
    9091.952     98.371   5.240  1.00794E+00  1.02010E+00 -1.21569E-02
    9093.555     99.974   5.280  9.95581E-01  1.02044E+00 -2.48589E-02
    9095.171    101.589   5.320  9.85124E-01  1.02071E+00 -3.55828E-02
    9096.798    103.217   5.360  9.77677E-01  1.02092E+00 -4.32465E-02
    9098.438    104.857   5.400  9.73680E-01  1.02106E+00 -4.73845E-02
    9100.090    106.509   5.440  9.73107E-01  1.02115E+00 -4.80471E-02
    9101.754    108.173   5.480  9.75454E-01  1.02117E+00 -4.57166E-02
    9103.431    109.850   5.520  9.79986E-01  1.02113E+00 -4.11491E-02
    9105.119    111.538   5.560  9.85800E-01  1.02103E+00 -3.52246E-02
    9106.820    113.239   5.600  9.91823E-01  1.02084E+00 -2.90203E-02
    9108.533    114.952   5.640  9.96623E-01  1.02063E+00 -2.40114E-02
    9110.258    116.677   5.680  9.98597E-01  1.02033E+00 -2.17346E-02
    9111.996    118.414   5.720  9.96913E-01  1.02000E+00 -2.30916E-02
    9113.745    120.164   5.760  9.91686E-01  1.01961E+00 -2.79218E-02
    9115.507    121.926   5.800  9.83980E-01  1.01914E+00 -3.51620E-02
    9117.281    123.700   5.840  9.75453E-01  1.01866E+00 -4.32048E-02
    9119.067    125.486   5.880  9.67869E-01  1.01811E+00 -5.02430E-02
    9120.865    127.284   5.920  9.62954E-01  1.01753E+00 -5.45753E-02
    9122.676    129.095   5.960  9.62140E-01  1.01694E+00 -5.47974E-02
    9124.498    130.917   6.000  9.66632E-01  1.01625E+00 -4.96172E-02
