# # comment:                                                     FEFF 9.9.1  
# # Source:
# # Structure
# # Reduced
# # space
# # abc:
# # angles:150.557812
# # sites:
# # POT  SCF 100  7.0000   0, screened core-hole, AFOLP (folp(0)= 1.150)
# # Abs   Z=29 Rmt= 1.201 Rnm= 1.291 K  shell
# # Pot 1 Z=38 Rmt= 1.716 Rnm= 1.780
# # Pot 2 Z=20 Rmt= 1.670 Rnm= 1.739
# # Pot 3 Z=29 Rmt= 1.201 Rnm= 1.291
# # Pot 4 Z= 8 Rmt= 1.083 Rnm= 1.133
# # Gam_ch=1.729E+00 H-L exch Vi= 0.000E+00 Vr= 0.000E+00
# # Mu=-1.006E+01eV kf=1.939E+00 Vint=-1.870E+01eV Rs_int= 1.870
# FMS rfms= 9.0000
# # PATH  Rmax=-1.000,  Keep_limit= 0.00, Heap_limit 0.00  Pwcrit= 2.50%
#  S02=0.950  Temp=   0.00  Debye_temp=   0.00  Global_sig2= 0.00000
#  Energy zero shift, vr, vi    0.00000E+00   0.00000E+00
#  Curved wave amplitude ratio filter   4.000%
#     file         sig2 tot  cw amp ratio   deg  nlegs   reff  inp sig2
#     0/   0 paths used
#  xsedge+ 50, used to normalize mu           2.4527E-04
#  -----------------------------------------------------------------------
#  omega    e    k    mu    mu0     chi     @#
    8985.826    -13.873  -1.000  3.95697E-02  5.50843E-02 -1.55145E-02
    8986.124    -13.574  -0.960  4.18945E-02  5.91060E-02 -1.72114E-02
    8986.411    -13.288  -0.920  4.44508E-02  6.35756E-02 -1.91248E-02
    8986.685    -13.013  -0.880  4.72736E-02  6.85593E-02 -2.12856E-02
    8986.947    -12.751  -0.840  5.04042E-02  7.41336E-02 -2.37294E-02
    8987.197    -12.501  -0.800  5.38909E-02  8.03875E-02 -2.64966E-02
    8987.435    -12.263  -0.760  5.77894E-02  8.74229E-02 -2.96335E-02
    8987.661    -12.038  -0.720  6.21636E-02  9.53552E-02 -3.31916E-02
    8987.874    -11.825  -0.680  6.70840E-02  1.04311E-01 -3.72271E-02
    8988.075    -11.623  -0.640  7.26261E-02  1.14425E-01 -4.17986E-02
    8988.264    -11.434  -0.600  7.88650E-02  1.25827E-01 -4.69624E-02
    8988.441    -11.258  -0.560  8.58667E-02  1.38631E-01 -5.27645E-02
    8988.605    -11.093  -0.520  9.36748E-02  1.52903E-01 -5.92282E-02
    8988.758    -10.941  -0.480  1.02291E-01  1.68628E-01 -6.63364E-02
    8988.898    -10.800  -0.440  1.11655E-01  1.85668E-01 -7.40123E-02
    8989.026    -10.672  -0.400  1.21623E-01  2.03726E-01 -8.21034E-02
    8989.142    -10.557  -0.360  1.31958E-01  2.22337E-01 -9.03793E-02
    8989.246    -10.453  -0.320  1.42345E-01  2.40896E-01 -9.85507E-02
    8989.337    -10.362  -0.280  1.52421E-01  2.58729E-01 -1.06309E-01
    8989.416    -10.282  -0.240  1.61819E-01  2.75191E-01 -1.13372E-01
    8989.483    -10.215  -0.200  1.70216E-01  2.89741E-01 -1.19524E-01
    8989.538    -10.160  -0.160  1.77354E-01  3.01980E-01 -1.24626E-01
    8989.581    -10.118  -0.120  1.83047E-01  3.11655E-01 -1.28608E-01
    8989.611    -10.087  -0.080  1.87179E-01  3.18626E-01 -1.31447E-01
    8989.636    -10.063   0.000  1.90518E-01  3.24226E-01 -1.33708E-01
    8989.691    -10.008   0.120  1.98110E-01  3.36860E-01 -1.38750E-01
    8989.733     -9.965   0.160  2.04033E-01  3.46678E-01 -1.42646E-01
    8989.788     -9.910   0.200  2.11629E-01  3.59208E-01 -1.47578E-01
    8989.855     -9.843   0.240  2.20815E-01  3.74299E-01 -1.53485E-01
    8989.934     -9.764   0.280  2.31332E-01  3.91614E-01 -1.60282E-01
    8990.026     -9.673   0.320  2.42787E-01  4.10736E-01 -1.67949E-01
    8990.129     -9.569   0.360  2.54497E-01  4.31120E-01 -1.76623E-01
    8990.245     -9.453   0.400  2.65460E-01  4.52168E-01 -1.86708E-01
    8990.373     -9.325   0.440  2.74414E-01  4.73329E-01 -1.98915E-01
    8990.514     -9.185   0.480  2.80074E-01  4.94195E-01 -2.14122E-01
    8990.666     -9.033   0.520  2.81649E-01  5.14485E-01 -2.32836E-01
    8990.831     -8.868   0.560  2.79343E-01  5.34096E-01 -2.54754E-01
    8991.007     -8.691   0.600  2.74347E-01  5.52957E-01 -2.78609E-01
    8991.196     -8.502   0.640  2.68368E-01  5.71142E-01 -3.02773E-01
    8991.397     -8.301   0.680  2.62840E-01  5.88705E-01 -3.25865E-01
    8991.611     -8.088   0.720  2.58562E-01  6.05755E-01 -3.47193E-01
    8991.836     -7.862   0.760  2.55864E-01  6.22375E-01 -3.66511E-01
    8992.074     -7.624   0.800  2.54882E-01  6.38643E-01 -3.83761E-01
    8992.324     -7.374   0.840  2.55802E-01  6.54599E-01 -3.98797E-01
    8992.586     -7.112   0.880  2.59044E-01  6.70314E-01 -4.11270E-01
    8992.860     -6.838   0.920  2.65175E-01  6.85800E-01 -4.20625E-01
    8993.147     -6.552   0.960  2.74763E-01  7.01102E-01 -4.26338E-01
    8993.446     -6.253   1.000  2.87717E-01  7.16231E-01 -4.28513E-01
    8993.757     -5.942   1.040  3.03420E-01  7.31148E-01 -4.27728E-01
    8994.080     -5.619   1.080  3.21477E-01  7.45870E-01 -4.24392E-01
    8994.415     -5.284   1.120  3.42186E-01  7.60365E-01 -4.18179E-01
    8994.762     -4.936   1.160  3.67532E-01  7.74658E-01 -4.07126E-01
    8995.122     -4.576   1.200  4.01575E-01  7.88667E-01 -3.87092E-01
    8995.494     -4.205   1.240  4.48220E-01  8.02412E-01 -3.54191E-01
    8995.878     -3.821   1.280  5.04919E-01  8.15846E-01 -3.10928E-01
    8996.274     -3.424   1.320  5.61507E-01  8.28944E-01 -2.67437E-01
    8996.683     -3.016   1.360  6.09553E-01  8.41697E-01 -2.32144E-01
    8997.103     -2.595   1.400  6.52686E-01  8.54038E-01 -2.01352E-01
    8997.536     -2.162   1.440  7.06604E-01  8.66000E-01 -1.59395E-01
    8997.981     -1.717   1.480  7.86563E-01  8.77514E-01 -9.09510E-02
    8998.438     -1.260   1.520  8.90238E-01  8.88572E-01  1.66633E-03
    8998.908     -0.791   1.560  9.84603E-01  8.99149E-01  8.54543E-02
    8999.389     -0.309   1.600  1.02225E+00  9.09262E-01  1.12990E-01
    8999.883      0.185   1.640  1.00741E+00  9.18887E-01  8.85199E-02
    9000.389      0.690   1.680  9.98169E-01  9.28000E-01  7.01689E-02
    9000.907      1.209   1.720  1.04136E+00  9.36599E-01  1.04761E-01
    9001.438      1.739   1.760  1.15921E+00  9.44684E-01  2.14527E-01
    9001.980      2.282   1.800  1.35245E+00  9.52258E-01  4.00196E-01
    9002.535      2.836   1.840  1.55425E+00  9.59322E-01  5.94929E-01
    9003.102      3.403   1.880  1.62709E+00  9.65879E-01  6.61208E-01
    9003.681      3.982   1.920  1.54249E+00  9.71936E-01  5.70550E-01
    9004.272      4.574   1.960  1.40327E+00  9.77518E-01  4.25755E-01
    9004.876      5.177   2.000  1.28669E+00  9.82610E-01  3.04081E-01
    9005.491      5.793   2.040  1.20533E+00  9.87263E-01  2.18064E-01
    9006.119      6.421   2.080  1.14598E+00  9.91463E-01  1.54516E-01
    9006.759      7.061   2.120  1.09857E+00  9.95218E-01  1.03351E-01
    9007.412      7.713   2.160  1.06148E+00  9.98558E-01  6.29228E-02
    9008.076      8.378   2.200  1.03742E+00  1.00153E+00  3.58833E-02
    9008.753      9.054   2.240  1.03216E+00  1.00411E+00  2.80436E-02
    9009.442      9.743   2.280  1.05113E+00  1.00633E+00  4.47995E-02
    9010.143     10.444   2.320  1.09340E+00  1.00823E+00  8.51701E-02
    9010.856     11.157   2.360  1.14828E+00  1.00981E+00  1.38467E-01
    9011.581     11.883   2.400  1.19157E+00  1.01110E+00  1.80475E-01
    9012.319     12.620   2.440  1.21054E+00  1.01210E+00  1.98432E-01
    9013.069     13.370   2.480  1.20601E+00  1.01288E+00  1.93136E-01
    9013.831     14.132   2.520  1.18616E+00  1.01339E+00  1.72770E-01
    9014.605     14.906   2.560  1.15933E+00  1.01371E+00  1.45623E-01
    9015.391     15.693   2.600  1.13049E+00  1.01383E+00  1.16655E-01
    9016.190     16.491   2.640  1.09991E+00  1.01378E+00  8.61329E-02
    9017.001     17.302   2.680  1.06693E+00  1.01356E+00  5.33632E-02
    9017.823     18.125   2.720  1.03221E+00  1.01319E+00  1.90218E-02
    9018.659     18.960   2.760  9.97115E-01  1.01272E+00 -1.56023E-02
    9019.506     19.807   2.800  9.62575E-01  1.01212E+00 -4.95495E-02
    9020.366     20.667   2.840  9.29522E-01  1.01142E+00 -8.18965E-02
    9021.237     21.539   2.880  8.98877E-01  1.01065E+00 -1.11775E-01
    9022.121     22.423   2.920  8.71590E-01  1.00981E+00 -1.38219E-01
    9023.017     23.319   2.960  8.48986E-01  1.00892E+00 -1.59931E-01
    9023.926     24.227   3.000  8.31506E-01  1.00798E+00 -1.76477E-01
    9024.846     25.148   3.040  8.18991E-01  1.00701E+00 -1.88019E-01
    9025.779     26.080   3.080  8.11192E-01  1.00603E+00 -1.94834E-01
    9026.724     27.025   3.120  8.07829E-01  1.00501E+00 -1.97184E-01
    9027.681     27.982   3.160  8.08666E-01  1.00402E+00 -1.95352E-01
    9028.650     28.951   3.200  8.13511E-01  1.00300E+00 -1.89492E-01
    9029.631     29.933   3.240  8.22263E-01  1.00202E+00 -1.79752E-01
    9030.625     30.927   3.280  8.34268E-01  1.00106E+00 -1.66789E-01
    9031.631     31.932   3.320  8.48896E-01  1.00011E+00 -1.51214E-01
    9032.649     32.950   3.360  8.65739E-01  9.99199E-01 -1.33460E-01
    9033.679     33.981   3.400  8.84363E-01  9.98326E-01 -1.13963E-01
    9034.722     35.023   3.440  9.04149E-01  9.97493E-01 -9.33433E-02
    9035.776     36.078   3.480  9.24594E-01  9.96702E-01 -7.21079E-02
    9036.843     37.144   3.520  9.45532E-01  9.95978E-01 -5.04458E-02
    9037.922     38.223   3.560  9.66984E-01  9.95299E-01 -2.83152E-02
    9039.013     39.315   3.600  9.88751E-01  9.94666E-01 -5.91423E-03
    9040.116     40.418   3.640  1.01010E+00  9.94101E-01  1.59969E-02
    9041.232     41.534   3.680  1.02989E+00  9.93585E-01  3.63028E-02
    9042.360     42.661   3.720  1.04690E+00  9.93119E-01  5.37804E-02
    9043.500     43.801   3.760  1.05991E+00  9.92743E-01  6.71700E-02
    9044.652     44.953   3.800  1.06749E+00  9.92397E-01  7.50966E-02
    9045.816     46.118   3.840  1.06880E+00  9.92142E-01  7.66565E-02
    9046.993     47.294   3.880  1.06424E+00  9.91917E-01  7.23276E-02
    9048.181     48.483   3.920  1.05572E+00  9.91782E-01  6.39423E-02
    9049.382     49.684   3.960  1.04558E+00  9.91675E-01  5.39019E-02
    9050.595     50.897   4.000  1.03600E+00  9.91638E-01  4.43661E-02
    9051.821     52.122   4.040  1.02818E+00  9.91670E-01  3.65111E-02
    9053.058     53.360   4.080  1.02223E+00  9.91749E-01  3.04822E-02
    9054.308     54.609   4.120  1.01769E+00  9.91875E-01  2.58120E-02
    9055.570     55.871   4.160  1.01404E+00  9.92067E-01  2.19696E-02
    9056.844     57.145   4.200  1.01088E+00  9.92304E-01  1.85723E-02
    9058.130     58.432   4.240  1.00792E+00  9.92583E-01  1.53405E-02
    9059.429     59.730   4.280  1.00500E+00  9.92901E-01  1.21015E-02
    9060.739     61.041   4.320  1.00212E+00  9.93260E-01  8.86148E-03
    9062.062     62.363   4.360  9.99679E-01  9.93654E-01  6.02479E-03
    9063.397     63.698   4.400  9.98724E-01  9.94065E-01  4.65871E-03
    9064.744     65.046   4.440  1.00103E+00  9.94533E-01  6.49929E-03
    9066.104     66.405   4.480  1.00839E+00  9.95014E-01  1.33748E-02
    9067.475     67.777   4.520  1.02187E+00  9.95528E-01  2.63413E-02
    9068.859     69.160   4.560  1.04080E+00  9.96072E-01  4.47327E-02
    9070.255     70.556   4.600  1.06229E+00  9.96601E-01  6.56870E-02
    9071.663     71.965   4.640  1.08187E+00  9.97158E-01  8.47116E-02
    9073.083     73.385   4.680  1.09516E+00  9.97740E-01  9.74205E-02
    9074.516     74.818   4.720  1.09986E+00  9.98303E-01  1.01559E-01
    9075.961     76.262   4.760  1.09664E+00  9.98889E-01  9.77540E-02
    9077.418     77.719   4.800  1.08781E+00  9.99473E-01  8.83325E-02
    9078.887     79.188   4.840  1.07551E+00  1.00003E+00  7.54767E-02
    9080.368     80.670   4.880  1.06095E+00  1.00058E+00  6.03682E-02
    9081.862     82.163   4.920  1.04448E+00  1.00113E+00  4.33497E-02
    9083.367     83.669   4.960  1.02626E+00  1.00167E+00  2.45897E-02
    9084.885     85.187   5.000  1.00701E+00  1.00219E+00  4.82551E-03
    9086.415     86.717   5.040  9.88070E-01  1.00269E+00 -1.46169E-02
    9087.958     88.259   5.080  9.70978E-01  1.00316E+00 -3.21772E-02
    9089.512     89.814   5.120  9.57012E-01  1.00361E+00 -4.65995E-02
    9091.079     91.380   5.160  9.46918E-01  1.00403E+00 -5.71146E-02
    9092.658     92.959   5.200  9.41173E-01  1.00441E+00 -6.32419E-02
    9094.249     94.550   5.240  9.39924E-01  1.00476E+00 -6.48347E-02
    9095.852     96.153   5.280  9.42790E-01  1.00509E+00 -6.22973E-02
    9097.467     97.769   5.320  9.48406E-01  1.00536E+00 -5.69488E-02
    9099.095     99.396   5.360  9.54908E-01  1.00560E+00 -5.06964E-02
    9100.735    101.036   5.400  9.60396E-01  1.00581E+00 -4.54165E-02
    9102.387    102.688   5.440  9.63373E-01  1.00596E+00 -4.25838E-02
    9104.051    104.353   5.480  9.62957E-01  1.00608E+00 -4.31228E-02
    9105.727    106.029   5.520  9.59210E-01  1.00614E+00 -4.69318E-02
    9107.416    107.718   5.560  9.53574E-01  1.00618E+00 -5.26091E-02
    9109.117    109.418   5.600  9.48041E-01  1.00616E+00 -5.81191E-02
    9110.830    111.131   5.640  9.44187E-01  1.00612E+00 -6.19307E-02
    9112.555    112.856   5.680  9.42605E-01  1.00601E+00 -6.34057E-02
    9114.292    114.594   5.720  9.43423E-01  1.00586E+00 -6.24406E-02
    9116.042    116.343   5.760  9.46748E-01  1.00570E+00 -5.89512E-02
    9117.804    118.105   5.800  9.52699E-01  1.00547E+00 -5.27713E-02
    9119.577    119.879   5.840  9.61323E-01  1.00520E+00 -4.38773E-02
    9121.364    121.665   5.880  9.72373E-01  1.00489E+00 -3.25204E-02
    9123.162    123.463   5.920  9.85451E-01  1.00455E+00 -1.91003E-02
    9124.972    125.274   5.960  9.99896E-01  1.00420E+00 -4.30311E-03
    9126.795    127.097   6.000  1.01458E+00  1.00376E+00  1.08255E-02
