# # comment:                                                     FEFF 9.9.1  
# # Source:
# # Structure
# # Reduced
# # space
# # abc:
# # angles:
# # sites:
# # POT  SCF 100  7.0000   0, screened core-hole, AFOLP (folp(0)= 1.150)
# # Abs   Z=29 Rmt= 1.240 Rnm= 1.309 K  shell
# # Pot 1 Z=22 Rmt= 1.271 Rnm= 1.422
# # Pot 2 Z=29 Rmt= 1.240 Rnm= 1.309
# # Pot 3 Z=52 Rmt= 1.264 Rnm= 1.431
# # Pot 4 Z= 8 Rmt= 1.022 Rnm= 1.128
# # Gam_ch=1.729E+00 H-L exch Vi= 0.000E+00 Vr= 0.000E+00
# # Mu=-9.099E+00eV kf=2.168E+00 Vint=-1.609E+01eV Rs_int= 1.673
# FMS rfms= 9.0000
# # PATH  Rmax=-1.000,  Keep_limit= 0.00, Heap_limit 0.00  Pwcrit= 2.50%
#  S02=0.950  Temp=   0.00  Debye_temp=   0.00  Global_sig2= 0.00000
#  Energy zero shift, vr, vi    0.00000E+00   0.00000E+00
#  Curved wave amplitude ratio filter   4.000%
#     file         sig2 tot  cw amp ratio   deg  nlegs   reff  inp sig2
#     0/   0 paths used
#  xsedge+ 50, used to normalize mu           2.4561E-04
#  -----------------------------------------------------------------------
#  omega    e    k    mu    mu0     chi     @#
    8984.013    -12.909  -1.000  2.88835E-02  5.07495E-02 -2.18660E-02
    8984.312    -12.610  -0.960  3.00007E-02  5.43105E-02 -2.43098E-02
    8984.599    -12.323  -0.920  3.11725E-02  5.82547E-02 -2.70822E-02
    8984.873    -12.049  -0.880  3.24033E-02  6.26372E-02 -3.02339E-02
    8985.135    -11.787  -0.840  3.36983E-02  6.75220E-02 -3.38237E-02
    8985.385    -11.537  -0.800  3.50633E-02  7.29830E-02 -3.79197E-02
    8985.623    -11.299  -0.760  3.65049E-02  7.91048E-02 -4.25999E-02
    8985.848    -11.074  -0.720  3.80305E-02  8.59829E-02 -4.79523E-02
    8986.062    -10.860  -0.680  3.96480E-02  9.37219E-02 -5.40739E-02
    8986.263    -10.659  -0.640  4.13653E-02  1.02432E-01 -6.10669E-02
    8986.452    -10.470  -0.600  4.31896E-02  1.12222E-01 -6.90321E-02
    8986.629    -10.293  -0.560  4.51257E-02  1.23182E-01 -7.80562E-02
    8986.793    -10.129  -0.520  4.71739E-02  1.35366E-01 -8.81923E-02
    8986.946     -9.976  -0.480  4.93266E-02  1.48760E-01 -9.94333E-02
    8987.086     -9.836  -0.440  5.15650E-02  1.63246E-01 -1.11681E-01
    8987.214     -9.708  -0.400  5.38566E-02  1.78577E-01 -1.24721E-01
    8987.330     -9.592  -0.360  5.61541E-02  1.94364E-01 -1.38210E-01
    8987.433     -9.489  -0.320  5.83992E-02  2.10100E-01 -1.51701E-01
    8987.525     -9.397  -0.280  6.05294E-02  2.25225E-01 -1.64695E-01
    8987.604     -9.318  -0.240  6.24854E-02  2.39195E-01 -1.76709E-01
    8987.671     -9.251  -0.200  6.42173E-02  2.51553E-01 -1.87335E-01
    8987.726     -9.196  -0.160  6.56869E-02  2.61960E-01 -1.96273E-01
    8987.769     -9.153  -0.120  6.68666E-02  2.70197E-01 -2.03331E-01
    8987.799     -9.123  -0.080  6.77363E-02  2.76138E-01 -2.08402E-01
    8987.823     -9.099   0.000  6.84727E-02  2.80916E-01 -2.12443E-01
    8987.878     -9.044   0.120  7.01349E-02  2.91702E-01 -2.21567E-01
    8987.921     -9.001   0.160  7.13986E-02  3.00115E-01 -2.28716E-01
    8987.976     -8.946   0.200  7.29701E-02  3.10850E-01 -2.37879E-01
    8988.043     -8.879   0.240  7.49042E-02  3.23823E-01 -2.48919E-01
    8988.122     -8.800   0.280  7.71899E-02  3.38788E-01 -2.61598E-01
    8988.214     -8.708   0.320  7.98167E-02  3.55385E-01 -2.75568E-01
    8988.317     -8.605   0.360  8.28655E-02  3.73228E-01 -2.90362E-01
    8988.433     -8.489   0.400  8.63211E-02  3.91799E-01 -3.05478E-01
    8988.561     -8.361   0.440  9.02580E-02  4.10702E-01 -3.20444E-01
    8988.701     -8.221   0.480  9.47431E-02  4.29611E-01 -3.34868E-01
    8988.854     -8.068   0.520  9.97905E-02  4.48279E-01 -3.48489E-01
    8989.018     -7.904   0.560  1.05287E-01  4.66630E-01 -3.61343E-01
    8989.195     -7.727   0.600  1.10931E-01  4.84633E-01 -3.73702E-01
    8989.384     -7.538   0.640  1.16188E-01  5.02311E-01 -3.86123E-01
    8989.585     -7.337   0.680  1.20566E-01  5.19696E-01 -3.99130E-01
    8989.799     -7.123   0.720  1.24247E-01  5.36888E-01 -4.12641E-01
    8990.024     -6.898   0.760  1.28068E-01  5.53948E-01 -4.25880E-01
    8990.262     -6.660   0.800  1.32903E-01  5.70886E-01 -4.37983E-01
    8990.512     -6.410   0.840  1.39336E-01  5.87760E-01 -4.48424E-01
    8990.774     -6.148   0.880  1.47658E-01  6.04617E-01 -4.56959E-01
    8991.048     -5.874   0.920  1.57817E-01  6.21433E-01 -4.63616E-01
    8991.335     -5.587   0.960  1.69602E-01  6.38211E-01 -4.68609E-01
    8991.633     -5.289   1.000  1.83017E-01  6.54947E-01 -4.71930E-01
    8991.944     -4.978   1.040  1.98469E-01  6.71629E-01 -4.73160E-01
    8992.267     -4.655   1.080  2.16076E-01  6.88218E-01 -4.72143E-01
    8992.603     -4.319   1.120  2.35474E-01  7.04671E-01 -4.69198E-01
    8992.950     -3.972   1.160  2.56832E-01  7.20958E-01 -4.64126E-01
    8993.310     -3.612   1.200  2.80947E-01  7.37070E-01 -4.56123E-01
    8993.682     -3.240   1.240  3.06533E-01  7.52912E-01 -4.46379E-01
    8994.066     -2.856   1.280  3.30097E-01  7.68489E-01 -4.38392E-01
    8994.462     -2.460   1.320  3.51513E-01  7.83727E-01 -4.32214E-01
    8994.870     -2.052   1.360  3.74703E-01  7.98610E-01 -4.23907E-01
    8995.291     -1.631   1.400  4.03766E-01  8.13102E-01 -4.09336E-01
    8995.724     -1.198   1.440  4.45625E-01  8.27148E-01 -3.81523E-01
    8996.169     -0.753   1.480  5.10416E-01  8.40713E-01 -3.30297E-01
    8996.626     -0.296   1.520  6.05531E-01  8.53787E-01 -2.48256E-01
    8997.095      0.173   1.560  7.27632E-01  8.66317E-01 -1.38686E-01
    8997.577      0.655   1.600  8.44154E-01  8.78316E-01 -3.41623E-02
    8998.071      1.149   1.640  9.19994E-01  8.89755E-01  3.02387E-02
    8998.577      1.655   1.680  9.76750E-01  9.00609E-01  7.61412E-02
    8999.095      2.173   1.720  1.04649E+00  9.10873E-01  1.35613E-01
    8999.625      2.703   1.760  1.12682E+00  9.20526E-01  2.06294E-01
    9000.168      3.246   1.800  1.20835E+00  9.29610E-01  2.78735E-01
    9000.722      3.801   1.840  1.30304E+00  9.38085E-01  3.64959E-01
    9001.289      4.367   1.880  1.41617E+00  9.45997E-01  4.70177E-01
    9001.869      4.947   1.920  1.53155E+00  9.53309E-01  5.78246E-01
    9002.460      5.538   1.960  1.63121E+00  9.60068E-01  6.71141E-01
    9003.063      6.141   2.000  1.68981E+00  9.66281E-01  7.23530E-01
    9003.679      6.757   2.040  1.69043E+00  9.71937E-01  7.18493E-01
    9004.307      7.385   2.080  1.64453E+00  9.77087E-01  6.67447E-01
    9004.947      8.025   2.120  1.56252E+00  9.81761E-01  5.80756E-01
    9005.599      8.677   2.160  1.45802E+00  9.85929E-01  4.72087E-01
    9006.264      9.342   2.200  1.35260E+00  9.89664E-01  3.62937E-01
    9006.940     10.018   2.240  1.25810E+00  9.92958E-01  2.65147E-01
    9007.629     10.707   2.280  1.17799E+00  9.95863E-01  1.82127E-01
    9008.330     11.408   2.320  1.11112E+00  9.98370E-01  1.12751E-01
    9009.044     12.122   2.360  1.05766E+00  1.00051E+00  5.71523E-02
    9009.769     12.847   2.400  1.00870E+00  1.00234E+00  6.35157E-03
    9010.507     13.585   2.440  9.56895E-01  1.00386E+00 -4.69628E-02
    9011.256     14.334   2.480  9.18451E-01  1.00508E+00 -8.66310E-02
    9012.018     15.096   2.520  9.11285E-01  1.00605E+00 -9.47674E-02
    9012.793     15.871   2.560  9.36489E-01  1.00678E+00 -7.02895E-02
    9013.579     16.657   2.600  9.79187E-01  1.00729E+00 -2.81052E-02
    9014.377     17.455   2.640  1.01238E+00  1.00760E+00  4.78161E-03
    9015.188     18.266   2.680  1.03148E+00  1.00772E+00  2.37578E-02
    9016.011     19.089   2.720  1.03360E+00  1.00770E+00  2.58990E-02
    9016.846     19.924   2.760  1.01962E+00  1.00754E+00  1.20777E-02
    9017.694     20.772   2.800  9.93773E-01  1.00724E+00 -1.34700E-02
    9018.553     21.631   2.840  9.62527E-01  1.00685E+00 -4.43216E-02
    9019.425     22.503   2.880  9.30828E-01  1.00637E+00 -7.55402E-02
    9020.309     23.387   2.920  9.01048E-01  1.00581E+00 -1.04760E-01
    9021.205     24.283   2.960  8.74538E-01  1.00520E+00 -1.30658E-01
    9022.113     25.191   3.000  8.51668E-01  1.00454E+00 -1.52869E-01
    9023.034     26.112   3.040  8.32545E-01  1.00382E+00 -1.71272E-01
    9023.966     27.044   3.080  8.17952E-01  1.00308E+00 -1.85131E-01
    9024.911     27.989   3.120  8.07928E-01  1.00234E+00 -1.94413E-01
    9025.868     28.946   3.160  8.02211E-01  1.00159E+00 -1.99383E-01
    9026.838     29.916   3.200  8.00634E-01  1.00083E+00 -2.00191E-01
    9027.819     30.897   3.240  8.03056E-01  1.00008E+00 -1.97026E-01
    9028.813     31.891   3.280  8.09262E-01  9.99368E-01 -1.90106E-01
    9029.819     32.897   3.320  8.19088E-01  9.98664E-01 -1.79576E-01
    9030.837     33.915   3.360  8.32310E-01  9.97992E-01 -1.65682E-01
    9031.867     34.945   3.400  8.47994E-01  9.97336E-01 -1.49342E-01
    9032.909     35.987   3.440  8.65329E-01  9.96738E-01 -1.31410E-01
    9033.964     37.042   3.480  8.83887E-01  9.96181E-01 -1.12294E-01
    9035.031     38.109   3.520  9.03716E-01  9.95645E-01 -9.19288E-02
    9036.110     39.188   3.560  9.25161E-01  9.95174E-01 -7.00128E-02
    9037.201     40.279   3.600  9.48371E-01  9.94767E-01 -4.63956E-02
    9038.304     41.382   3.640  9.72831E-01  9.94385E-01 -2.15537E-02
    9039.420     42.498   3.680  9.97432E-01  9.94071E-01  3.36145E-03
    9040.547     43.626   3.720  1.02080E+00  9.93823E-01  2.69769E-02
    9041.687     44.765   3.760  1.04168E+00  9.93600E-01  4.80822E-02
    9042.840     45.918   3.800  1.05926E+00  9.93443E-01  6.58169E-02
    9044.004     47.082   3.840  1.07341E+00  9.93333E-01  8.00752E-02
    9045.180     48.258   3.880  1.08486E+00  9.93291E-01  9.15653E-02
    9046.369     49.447   3.920  1.09468E+00  9.93294E-01  1.01388E-01
    9047.570     50.648   3.960  1.10376E+00  9.93342E-01  1.10415E-01
    9048.783     51.861   4.000  1.11237E+00  9.93455E-01  1.18912E-01
    9050.008     53.086   4.040  1.11991E+00  9.93590E-01  1.26316E-01
    9051.246     54.324   4.080  1.12526E+00  9.93788E-01  1.31473E-01
    9052.496     55.574   4.120  1.12725E+00  9.94028E-01  1.33226E-01
    9053.757     56.835   4.160  1.12516E+00  9.94308E-01  1.30854E-01
    9055.032     58.110   4.200  1.11880E+00  9.94625E-01  1.24172E-01
    9056.318     59.396   4.240  1.10846E+00  9.94958E-01  1.13504E-01
    9057.616     60.694   4.280  1.09487E+00  9.95348E-01  9.95205E-02
    9058.927     62.005   4.320  1.07882E+00  9.95751E-01  8.30715E-02
    9060.250     63.328   4.360  1.06141E+00  9.96187E-01  6.52223E-02
    9061.585     64.663   4.400  1.04391E+00  9.96633E-01  4.72780E-02
    9062.932     66.010   4.440  1.02764E+00  9.97109E-01  3.05352E-02
    9064.291     67.369   4.480  1.01354E+00  9.97614E-01  1.59310E-02
    9065.663     68.741   4.520  1.00201E+00  9.98102E-01  3.90634E-03
    9067.047     70.125   4.560  9.93062E-01  9.98614E-01 -5.55125E-03
    9068.443     71.521   4.600  9.86420E-01  9.99128E-01 -1.27080E-02
    9069.851     72.929   4.640  9.81750E-01  9.99643E-01 -1.78931E-02
    9071.271     74.349   4.680  9.78682E-01  1.00016E+00 -2.14744E-02
    9072.704     75.782   4.720  9.76763E-01  1.00067E+00 -2.39056E-02
    9074.149     77.227   4.760  9.75525E-01  1.00118E+00 -2.56518E-02
    9075.605     78.683   4.800  9.74622E-01  1.00168E+00 -2.70575E-02
    9077.075     80.153   4.840  9.73883E-01  1.00215E+00 -2.82698E-02
    9078.556     81.634   4.880  9.73339E-01  1.00262E+00 -2.92778E-02
    9080.049     83.127   4.920  9.72895E-01  1.00305E+00 -3.01531E-02
    9081.555     84.633   4.960  9.72420E-01  1.00347E+00 -3.10478E-02
    9083.073     86.151   5.000  9.71821E-01  1.00385E+00 -3.20329E-02
    9084.603     87.681   5.040  9.71220E-01  1.00420E+00 -3.29840E-02
    9086.145     89.223   5.080  9.70906E-01  1.00454E+00 -3.36347E-02
    9087.700     90.778   5.120  9.71048E-01  1.00484E+00 -3.37933E-02
    9089.267     92.345   5.160  9.71754E-01  1.00510E+00 -3.33506E-02
    9090.845     93.923   5.200  9.73149E-01  1.00535E+00 -3.22023E-02
    9092.436     95.514   5.240  9.75230E-01  1.00554E+00 -3.03075E-02
    9094.040     97.118   5.280  9.77906E-01  1.00571E+00 -2.78014E-02
    9095.655     98.733   5.320  9.80758E-01  1.00583E+00 -2.50770E-02
    9097.283    100.361   5.360  9.83379E-01  1.00590E+00 -2.25215E-02
    9098.923    102.001   5.400  9.85596E-01  1.00595E+00 -2.03517E-02
    9100.575    103.653   5.440  9.87380E-01  1.00596E+00 -1.85761E-02
    9102.239    105.317   5.480  9.88662E-01  1.00592E+00 -1.72620E-02
    9103.915    106.993   5.520  9.89173E-01  1.00585E+00 -1.66776E-02
    9105.604    108.682   5.560  9.88549E-01  1.00574E+00 -1.71875E-02
    9107.305    110.383   5.600  9.86599E-01  1.00558E+00 -1.89823E-02
    9109.017    112.095   5.640  9.83420E-01  1.00536E+00 -2.19434E-02
    9110.743    113.821   5.680  9.79501E-01  1.00515E+00 -2.56517E-02
    9112.480    115.558   5.720  9.75458E-01  1.00488E+00 -2.94233E-02
    9114.230    117.308   5.760  9.72237E-01  1.00457E+00 -3.23323E-02
    9115.991    119.069   5.800  9.70860E-01  1.00422E+00 -3.33620E-02
    9117.765    120.843   5.840  9.72125E-01  1.00386E+00 -3.17387E-02
    9119.551    122.629   5.880  9.76148E-01  1.00347E+00 -2.73246E-02
    9121.350    124.428   5.920  9.82226E-01  1.00305E+00 -2.08232E-02
    9123.160    126.238   5.960  9.89034E-01  1.00260E+00 -1.35625E-02
    9124.983    128.061   6.000  9.95460E-01  1.00212E+00 -6.65826E-03
