# # comment:                                                     FEFF 9.9.1  
# # Source:
# # Structure
# # Reduced
# # space
# # abc:
# # angles:
# # sites:
# # POT  SCF 100  7.0000   0, screened core-hole, AFOLP (folp(0)= 1.150)
# # Abs   Z=29 Rmt= 1.133 Rnm= 1.269 K  shell
# # Pot 1 Z=30 Rmt= 1.253 Rnm= 1.412
# # Pot 2 Z=29 Rmt= 1.160 Rnm= 1.274
# # Pot 3 Z=15 Rmt= 0.910 Rnm= 1.158
# # Pot 4 Z= 8 Rmt= 1.025 Rnm= 1.123
# # Gam_ch=1.729E+00 H-L exch Vi= 0.000E+00 Vr= 0.000E+00
# # Mu=-7.729E+00eV kf=2.259E+00 Vint=-1.502E+01eV Rs_int= 1.606
# FMS rfms= 9.0000
# # PATH  Rmax=-1.000,  Keep_limit= 0.00, Heap_limit 0.00  Pwcrit= 2.50%
#  S02=0.950  Temp=   0.00  Debye_temp=   0.00  Global_sig2= 0.00000
#  Energy zero shift, vr, vi    0.00000E+00   0.00000E+00
#  Curved wave amplitude ratio filter   4.000%
#     file         sig2 tot  cw amp ratio   deg  nlegs   reff  inp sig2
#     0/   0 paths used
#  xsedge+ 50, used to normalize mu           2.4345E-04
#  -----------------------------------------------------------------------
#  omega    e    k    mu    mu0     chi     @#
    8983.545    -11.539  -1.000  3.21212E-02  5.52473E-02 -2.31261E-02
    8983.844    -11.240  -0.960  3.35497E-02  5.92138E-02 -2.56641E-02
    8984.131    -10.953  -0.920  3.50697E-02  6.36133E-02 -2.85436E-02
    8984.405    -10.679  -0.880  3.66909E-02  6.85083E-02 -3.18173E-02
    8984.667    -10.417  -0.840  3.84251E-02  7.39716E-02 -3.55465E-02
    8984.917    -10.167  -0.800  4.02858E-02  8.00874E-02 -3.98016E-02
    8985.155     -9.929  -0.760  4.22887E-02  8.69521E-02 -4.46634E-02
    8985.380     -9.704  -0.720  4.44519E-02  9.46744E-02 -5.02225E-02
    8985.594     -9.490  -0.680  4.67955E-02  1.03374E-01 -5.65782E-02
    8985.795     -9.289  -0.640  4.93410E-02  1.13176E-01 -6.38350E-02
    8985.984     -9.100  -0.600  5.21090E-02  1.24204E-01 -7.20953E-02
    8986.161     -8.923  -0.560  5.51158E-02  1.36563E-01 -8.14475E-02
    8986.325     -8.759  -0.520  5.83679E-02  1.50314E-01 -9.19465E-02
    8986.478     -8.606  -0.480  6.18539E-02  1.65442E-01 -1.03588E-01
    8986.618     -8.466  -0.440  6.55355E-02  1.81813E-01 -1.16278E-01
    8986.746     -8.338  -0.400  6.93408E-02  1.99148E-01 -1.29807E-01
    8986.862     -8.222  -0.360  7.31644E-02  2.17002E-01 -1.43838E-01
    8986.965     -8.119  -0.320  7.68778E-02  2.34804E-01 -1.57926E-01
    8987.057     -8.027  -0.280  8.03490E-02  2.51914E-01 -1.71565E-01
    8987.136     -7.948  -0.240  8.34653E-02  2.67717E-01 -1.84252E-01
    8987.203     -7.881  -0.200  8.61475E-02  2.81694E-01 -1.95547E-01
    8987.258     -7.826  -0.160  8.83538E-02  2.93463E-01 -2.05110E-01
    8987.301     -7.783  -0.120  9.00719E-02  3.02776E-01 -2.12704E-01
    8987.331     -7.753  -0.080  9.13058E-02  3.09491E-01 -2.18185E-01
    8987.355     -7.729   0.000  9.23248E-02  3.14891E-01 -2.22566E-01
    8987.410     -7.674   0.120  9.45004E-02  3.27071E-01 -2.32570E-01
    8987.453     -7.631   0.160  9.60923E-02  3.36553E-01 -2.40460E-01
    8987.508     -7.576   0.200  9.80488E-02  3.48688E-01 -2.50639E-01
    8987.575     -7.509   0.240  1.00274E-01  3.63313E-01 -2.63039E-01
    8987.654     -7.430   0.280  1.02672E-01  3.80163E-01 -2.77491E-01
    8987.746     -7.338   0.320  1.05176E-01  3.98867E-01 -2.93691E-01
    8987.849     -7.235   0.360  1.07660E-01  4.18894E-01 -3.11234E-01
    8987.965     -7.119   0.400  1.10087E-01  4.39718E-01 -3.29632E-01
    8988.093     -6.991   0.440  1.12481E-01  4.60880E-01 -3.48399E-01
    8988.233     -6.851   0.480  1.14900E-01  4.81942E-01 -3.67042E-01
    8988.386     -6.698   0.520  1.17579E-01  5.02688E-01 -3.85109E-01
    8988.550     -6.534   0.560  1.20827E-01  5.22986E-01 -4.02158E-01
    8988.727     -6.357   0.600  1.25124E-01  5.42800E-01 -4.17676E-01
    8988.916     -6.168   0.640  1.30970E-01  5.62158E-01 -4.31188E-01
    8989.117     -5.967   0.680  1.38911E-01  5.81143E-01 -4.42232E-01
    8989.330     -5.754   0.720  1.49474E-01  5.99786E-01 -4.50311E-01
    8989.556     -5.528   0.760  1.63371E-01  6.18196E-01 -4.54825E-01
    8989.794     -5.290   0.800  1.81584E-01  6.36414E-01 -4.54830E-01
    8990.044     -5.040   0.840  2.05607E-01  6.54445E-01 -4.48837E-01
    8990.306     -4.778   0.880  2.37319E-01  6.72363E-01 -4.35044E-01
    8990.580     -4.504   0.920  2.77085E-01  6.90167E-01 -4.13082E-01
    8990.867     -4.217   0.960  3.20226E-01  7.07824E-01 -3.87599E-01
    8991.165     -3.919   1.000  3.56093E-01  7.25353E-01 -3.69260E-01
    8991.476     -3.608   1.040  3.77251E-01  7.42721E-01 -3.65470E-01
    8991.799     -3.285   1.080  3.89051E-01  7.59892E-01 -3.70840E-01
    8992.135     -2.949   1.120  4.03294E-01  7.76840E-01 -3.73545E-01
    8992.482     -2.602   1.160  4.27521E-01  7.93517E-01 -3.65996E-01
    8992.842     -2.242   1.200  4.60635E-01  8.09871E-01 -3.49236E-01
    8993.214     -1.870   1.240  4.93971E-01  8.25868E-01 -3.31898E-01
    8993.598     -1.486   1.280  5.22127E-01  8.41475E-01 -3.19347E-01
    8993.994     -1.090   1.320  5.51329E-01  8.56633E-01 -3.05304E-01
    8994.402     -0.682   1.360  5.84311E-01  8.71328E-01 -2.87017E-01
    8994.823     -0.261   1.400  6.11117E-01  8.85464E-01 -2.74347E-01
    8995.256      0.172   1.440  6.25684E-01  8.99067E-01 -2.73384E-01
    8995.701      0.617   1.480  6.33151E-01  9.12065E-01 -2.78914E-01
    8996.158      1.074   1.520  6.39961E-01  9.24465E-01 -2.84504E-01
    8996.627      1.543   1.560  6.46386E-01  9.36200E-01 -2.89813E-01
    8997.109      2.025   1.600  6.52422E-01  9.47302E-01 -2.94881E-01
    8997.603      2.519   1.640  6.65252E-01  9.57727E-01 -2.92475E-01
    8998.109      3.025   1.680  6.91827E-01  9.67469E-01 -2.75642E-01
    8998.627      3.543   1.720  7.32266E-01  9.76531E-01 -2.44264E-01
    8999.157      4.073   1.760  7.84228E-01  9.84912E-01 -2.00684E-01
    8999.700      4.616   1.800  8.48425E-01  9.92618E-01 -1.44193E-01
    9000.254      5.170   1.840  9.29460E-01  9.99655E-01 -7.01945E-02
    9000.821      5.737   1.880  1.02901E+00  1.00603E+00  2.29785E-02
    9001.401      6.317   1.920  1.14529E+00  1.01179E+00  1.33502E-01
    9001.992      6.908   1.960  1.26620E+00  1.01690E+00  2.49296E-01
    9002.595      7.511   2.000  1.36648E+00  1.02145E+00  3.45030E-01
    9003.211      8.127   2.040  1.44954E+00  1.02539E+00  4.24150E-01
    9003.839      8.755   2.080  1.53381E+00  1.02881E+00  5.04994E-01
    9004.479      9.395   2.120  1.59289E+00  1.03170E+00  5.61186E-01
    9005.131     10.047   2.160  1.57597E+00  1.03411E+00  5.41855E-01
    9005.796     10.712   2.200  1.48226E+00  1.03604E+00  4.46214E-01
    9006.472     11.388   2.240  1.35986E+00  1.03752E+00  3.22332E-01
    9007.161     12.077   2.280  1.24986E+00  1.03861E+00  2.11242E-01
    9007.862     12.778   2.320  1.17342E+00  1.03933E+00  1.34089E-01
    9008.575     13.491   2.360  1.13662E+00  1.03970E+00  9.69163E-02
    9009.301     14.217   2.400  1.13757E+00  1.03975E+00  9.78267E-02
    9010.039     14.954   2.440  1.16396E+00  1.03950E+00  1.24455E-01
    9010.788     15.704   2.480  1.19885E+00  1.03900E+00  1.59853E-01
    9011.550     16.466   2.520  1.22929E+00  1.03825E+00  1.91038E-01
    9012.324     17.240   2.560  1.24575E+00  1.03729E+00  2.08455E-01
    9013.111     18.027   2.600  1.24248E+00  1.03613E+00  2.06348E-01
    9013.909     18.825   2.640  1.21943E+00  1.03480E+00  1.84623E-01
    9014.720     19.636   2.680  1.18010E+00  1.03334E+00  1.46762E-01
    9015.543     20.459   2.720  1.14679E+00  1.03176E+00  1.15035E-01
    9016.378     21.294   2.760  1.12136E+00  1.03008E+00  9.12776E-02
    9017.226     22.142   2.800  1.10059E+00  1.02832E+00  7.22764E-02
    9018.085     23.001   2.840  1.08170E+00  1.02648E+00  5.52255E-02
    9018.957     23.873   2.880  1.06322E+00  1.02459E+00  3.86244E-02
    9019.841     24.757   2.920  1.04512E+00  1.02269E+00  2.24252E-02
    9020.737     25.653   2.960  1.02798E+00  1.02076E+00  7.21502E-03
    9021.645     26.561   3.000  1.01178E+00  1.01880E+00 -7.02104E-03
    9022.566     27.482   3.040  9.95796E-01  1.01689E+00 -2.10917E-02
    9023.498     28.414   3.080  9.79260E-01  1.01496E+00 -3.57027E-02
    9024.443     29.359   3.120  9.62207E-01  1.01309E+00 -5.08841E-02
    9025.400     30.316   3.160  9.45130E-01  1.01124E+00 -6.61082E-02
    9026.370     31.286   3.200  9.29158E-01  1.00945E+00 -8.02899E-02
    9027.351     32.267   3.240  9.15212E-01  1.00771E+00 -9.24938E-02
    9028.345     33.261   3.280  9.03771E-01  1.00601E+00 -1.02242E-01
    9029.351     34.267   3.320  8.94939E-01  1.00439E+00 -1.09456E-01
    9030.369     35.285   3.360  8.88562E-01  1.00288E+00 -1.14315E-01
    9031.399     36.315   3.400  8.83742E-01  1.00142E+00 -1.17677E-01
    9032.441     37.357   3.440  8.79584E-01  1.00004E+00 -1.20458E-01
    9033.496     38.412   3.480  8.75531E-01  9.98749E-01 -1.23218E-01
    9034.563     39.479   3.520  8.71525E-01  9.97564E-01 -1.26039E-01
    9035.642     40.558   3.560  8.67791E-01  9.96465E-01 -1.28674E-01
    9036.733     41.649   3.600  8.64882E-01  9.95456E-01 -1.30574E-01
    9037.836     42.752   3.640  8.63481E-01  9.94558E-01 -1.31077E-01
    9038.952     43.868   3.680  8.64045E-01  9.93771E-01 -1.29727E-01
    9040.079     44.995   3.720  8.66849E-01  9.93052E-01 -1.26203E-01
    9041.219     46.135   3.760  8.72217E-01  9.92466E-01 -1.20249E-01
    9042.372     47.288   3.800  8.80172E-01  9.91949E-01 -1.11777E-01
    9043.536     48.452   3.840  8.90479E-01  9.91542E-01 -1.01063E-01
    9044.712     49.628   3.880  9.02714E-01  9.91247E-01 -8.85329E-02
    9045.901     50.817   3.920  9.16313E-01  9.91041E-01 -7.47280E-02
    9047.102     52.018   3.960  9.30748E-01  9.90923E-01 -6.01747E-02
    9048.315     53.231   4.000  9.45654E-01  9.90913E-01 -4.52588E-02
    9049.540     54.456   4.040  9.60892E-01  9.90989E-01 -3.00965E-02
    9050.778     55.694   4.080  9.76445E-01  9.91150E-01 -1.47043E-02
    9052.028     56.944   4.120  9.92286E-01  9.91392E-01  8.93380E-04
    9053.289     58.205   4.160  1.00824E+00  9.91717E-01  1.65271E-02
    9054.563     59.479   4.200  1.02386E+00  9.92122E-01  3.17352E-02
    9055.850     60.766   4.240  1.03833E+00  9.92607E-01  4.57271E-02
    9057.148     62.064   4.280  1.05074E+00  9.93170E-01  5.75691E-02
    9058.459     63.375   4.320  1.06023E+00  9.93808E-01  6.64218E-02
    9059.782     64.698   4.360  1.06634E+00  9.94495E-01  7.18416E-02
    9061.117     66.033   4.400  1.06937E+00  9.95232E-01  7.41377E-02
    9062.464     67.380   4.440  1.07025E+00  9.96036E-01  7.42167E-02
    9063.823     68.739   4.480  1.07002E+00  9.96884E-01  7.31383E-02
    9065.195     70.111   4.520  1.06952E+00  9.97775E-01  7.17429E-02
    9066.579     71.495   4.560  1.06915E+00  9.98706E-01  7.04462E-02
    9067.975     72.891   4.600  1.06892E+00  9.99675E-01  6.92415E-02
    9069.383     74.299   4.640  1.06851E+00  1.00068E+00  6.78302E-02
    9070.803     75.719   4.680  1.06768E+00  1.00169E+00  6.59855E-02
    9072.236     77.152   4.720  1.06634E+00  1.00274E+00  6.36006E-02
    9073.680     78.596   4.760  1.06452E+00  1.00379E+00  6.07354E-02
    9075.137     80.053   4.800  1.06235E+00  1.00484E+00  5.75037E-02
    9076.607     81.523   4.840  1.05988E+00  1.00592E+00  5.39634E-02
    9078.088     83.004   4.880  1.05713E+00  1.00697E+00  5.01607E-02
    9079.581     84.497   4.920  1.05431E+00  1.00802E+00  4.62895E-02
    9081.087     86.003   4.960  1.05171E+00  1.00906E+00  4.26530E-02
    9082.605     87.521   5.000  1.04968E+00  1.01007E+00  3.96083E-02
    9084.135     89.051   5.040  1.04844E+00  1.01107E+00  3.73701E-02
    9085.677     90.593   5.080  1.04792E+00  1.01203E+00  3.58909E-02
    9087.232     92.148   5.120  1.04779E+00  1.01296E+00  3.48321E-02
    9088.798     93.714   5.160  1.04742E+00  1.01387E+00  3.35538E-02
    9090.377     95.293   5.200  1.04599E+00  1.01471E+00  3.12796E-02
    9091.968     96.884   5.240  1.04283E+00  1.01551E+00  2.73270E-02
    9093.572     98.488   5.280  1.03761E+00  1.01626E+00  2.13458E-02
    9095.187    100.103   5.320  1.03036E+00  1.01697E+00  1.33893E-02
    9096.815    101.731   5.360  1.02147E+00  1.01761E+00  3.86933E-03
    9098.455    103.371   5.400  1.01164E+00  1.01819E+00 -6.55275E-03
    9100.107    105.023   5.440  1.00165E+00  1.01873E+00 -1.70795E-02
    9101.771    106.687   5.480  9.92321E-01  1.01919E+00 -2.68739E-02
    9103.447    108.363   5.520  9.84388E-01  1.01958E+00 -3.51923E-02
    9105.136    110.052   5.560  9.78255E-01  1.01989E+00 -4.16338E-02
    9106.836    111.752   5.600  9.73925E-01  1.02015E+00 -4.62202E-02
    9108.549    113.465   5.640  9.71081E-01  1.02033E+00 -4.92467E-02
    9110.275    115.191   5.680  9.69391E-01  1.02046E+00 -5.10646E-02
    9112.012    116.928   5.720  9.68553E-01  1.02051E+00 -5.19547E-02
    9113.762    118.678   5.760  9.68459E-01  1.02048E+00 -5.20222E-02
    9115.523    120.439   5.800  9.69170E-01  1.02038E+00 -5.12064E-02
    9117.297    122.213   5.840  9.70775E-01  1.02019E+00 -4.94197E-02
    9119.083    123.999   5.880  9.73152E-01  1.01996E+00 -4.68108E-02
    9120.882    125.798   5.920  9.75844E-01  1.01966E+00 -4.38116E-02
    9122.692    127.608   5.960  9.78347E-01  1.01926E+00 -4.09177E-02
    9124.515    129.431   6.000  9.80495E-01  1.01877E+00 -3.82741E-02
