# # comment:                                                     FEFF 9.9.1  
# # Source:
# # Structure
# # Reduced
# # space
# # abc:
# # angles:
# # sites:
# # POT  SCF 100  7.0000   0, screened core-hole, AFOLP (folp(0)= 1.150)
# # Abs   Z=29 Rmt= 1.205 Rnm= 1.328 K  shell
# # Pot 1 Z=29 Rmt= 1.245 Rnm= 1.337
# # Pot 2 Z= 8 Rmt= 1.000 Rnm= 1.099
# # Pot 3 Z= 9 Rmt= 1.086 Rnm= 1.145
# # Gam_ch=1.729E+00 H-L exch Vi= 0.000E+00 Vr= 0.000E+00
# # Mu=-6.893E+00eV kf=2.096E+00 Vint=-1.393E+01eV Rs_int= 1.731
# FMS rfms= 9.0000
# # PATH  Rmax=-1.000,  Keep_limit= 0.00, Heap_limit 0.00  Pwcrit= 2.50%
#  S02=0.950  Temp=   0.00  Debye_temp=   0.00  Global_sig2= 0.00000
#  Energy zero shift, vr, vi    0.00000E+00   0.00000E+00
#  Curved wave amplitude ratio filter   4.000%
#     file         sig2 tot  cw amp ratio   deg  nlegs   reff  inp sig2
#     0/   0 paths used
#  xsedge+ 50, used to normalize mu           2.4276E-04
#  -----------------------------------------------------------------------
#  omega    e    k    mu    mu0     chi     @#
    8983.426    -10.703  -1.000  3.75202E-02  5.59647E-02 -1.84446E-02
    8983.724    -10.405  -0.960  3.93656E-02  6.00079E-02 -2.06423E-02
    8984.011    -10.118  -0.920  4.13310E-02  6.44939E-02 -2.31629E-02
    8984.285     -9.844  -0.880  4.34266E-02  6.94870E-02 -2.60605E-02
    8984.547     -9.582  -0.840  4.56630E-02  7.50617E-02 -2.93986E-02
    8984.797     -9.332  -0.800  4.80525E-02  8.13041E-02 -3.32516E-02
    8985.035     -9.094  -0.760  5.06079E-02  8.83129E-02 -3.77050E-02
    8985.261     -8.869  -0.720  5.33433E-02  9.61996E-02 -4.28563E-02
    8985.474     -8.655  -0.680  5.62729E-02  1.05086E-01 -4.88133E-02
    8985.675     -8.454  -0.640  5.94106E-02  1.15102E-01 -5.56911E-02
    8985.864     -8.265  -0.600  6.27680E-02  1.26372E-01 -6.36043E-02
    8986.041     -8.088  -0.560  6.63512E-02  1.39005E-01 -7.26536E-02
    8986.205     -7.924  -0.520  7.01566E-02  1.53063E-01 -8.29059E-02
    8986.358     -7.771  -0.480  7.41641E-02  1.68529E-01 -9.43650E-02
    8986.498     -7.631  -0.440  7.83305E-02  1.85270E-01 -1.06939E-01
    8986.626     -7.503  -0.400  8.25839E-02  2.02996E-01 -1.20412E-01
    8986.742     -7.387  -0.360  8.68247E-02  2.21256E-01 -1.34432E-01
    8986.846     -7.284  -0.320  9.09332E-02  2.39464E-01 -1.48531E-01
    8986.937     -7.192  -0.280  9.47858E-02  2.56965E-01 -1.62179E-01
    8987.016     -7.113  -0.240  9.82728E-02  2.73130E-01 -1.74857E-01
    8987.083     -7.046  -0.200  1.01310E-01  2.87429E-01 -1.86118E-01
    8987.138     -6.991  -0.160  1.03842E-01  2.99469E-01 -1.95626E-01
    8987.181     -6.948  -0.120  1.05835E-01  3.08996E-01 -2.03161E-01
    8987.211     -6.918  -0.080  1.07269E-01  3.15867E-01 -2.08597E-01
    8987.236     -6.893   0.000  1.08427E-01  3.21391E-01 -2.12965E-01
    8987.291     -6.839   0.120  1.11173E-01  3.33863E-01 -2.22690E-01
    8987.333     -6.796   0.160  1.13220E-01  3.43551E-01 -2.30331E-01
    8987.388     -6.741   0.200  1.15876E-01  3.55981E-01 -2.40105E-01
    8987.455     -6.674   0.240  1.19076E-01  3.70946E-01 -2.51869E-01
    8987.534     -6.595   0.280  1.22826E-01  3.88197E-01 -2.65371E-01
    8987.626     -6.503   0.320  1.27176E-01  4.07335E-01 -2.80160E-01
    8987.729     -6.400   0.360  1.32192E-01  4.27841E-01 -2.95649E-01
    8987.845     -6.284   0.400  1.38034E-01  4.49176E-01 -3.11142E-01
    8987.973     -6.156   0.440  1.44955E-01  4.70829E-01 -3.25874E-01
    8988.113     -6.016   0.480  1.53355E-01  4.92418E-01 -3.39063E-01
    8988.266     -5.863   0.520  1.63677E-01  5.13656E-01 -3.49979E-01
    8988.430     -5.699   0.560  1.76517E-01  5.34428E-01 -3.57912E-01
    8988.607     -5.522   0.600  1.92541E-01  5.54697E-01 -3.62156E-01
    8988.796     -5.333   0.640  2.12494E-01  5.74511E-01 -3.62016E-01
    8988.997     -5.132   0.680  2.36990E-01  5.93887E-01 -3.56898E-01
    8989.211     -4.918   0.720  2.66573E-01  6.12919E-01 -3.46346E-01
    8989.436     -4.693   0.760  3.01319E-01  6.31675E-01 -3.30356E-01
    8989.674     -4.455   0.800  3.40596E-01  6.50172E-01 -3.09576E-01
    8989.924     -4.205   0.840  3.82944E-01  6.68476E-01 -2.85532E-01
    8990.186     -3.943   0.880  4.26557E-01  6.86598E-01 -2.60041E-01
    8990.460     -3.669   0.920  4.70337E-01  7.04556E-01 -2.34219E-01
    8990.747     -3.382   0.960  5.14076E-01  7.22314E-01 -2.08238E-01
    8991.046     -3.083   1.000  5.56123E-01  7.39870E-01 -1.83747E-01
    8991.357     -2.773   1.040  5.89691E-01  7.57188E-01 -1.67497E-01
    8991.680     -2.449   1.080  6.07095E-01  7.74251E-01 -1.67156E-01
    8992.015     -2.114   1.120  6.11464E-01  7.91012E-01 -1.79548E-01
    8992.362     -1.767   1.160  6.15712E-01  8.07423E-01 -1.91711E-01
    8992.722     -1.407   1.200  6.24505E-01  8.23451E-01 -1.98946E-01
    8993.094     -1.035   1.240  6.24535E-01  8.39043E-01 -2.14508E-01
    8993.478     -0.651   1.280  6.04292E-01  8.54164E-01 -2.49872E-01
    8993.874     -0.255   1.320  5.75097E-01  8.68760E-01 -2.93662E-01
    8994.283      0.153   1.360  5.55737E-01  8.82817E-01 -3.27080E-01
    8994.703      0.574   1.400  5.54381E-01  8.96281E-01 -3.41901E-01
    8995.136      1.007   1.440  5.71302E-01  9.09141E-01 -3.37839E-01
    8995.581      1.452   1.480  6.05230E-01  9.21346E-01 -3.16116E-01
    8996.038      1.909   1.520  6.55657E-01  9.32890E-01 -2.77233E-01
    8996.508      2.379   1.560  7.23246E-01  9.43745E-01 -2.20499E-01
    8996.989      2.860   1.600  8.05159E-01  9.53910E-01 -1.48750E-01
    8997.483      3.354   1.640  8.90035E-01  9.63384E-01 -7.33484E-02
    8997.989      3.860   1.680  9.66709E-01  9.72167E-01 -5.45739E-03
    8998.507      4.378   1.720  1.03559E+00  9.80262E-01  5.53294E-02
    8999.037      4.908   1.760  1.10212E+00  9.87679E-01  1.14444E-01
    8999.580      5.451   1.800  1.16243E+00  9.94422E-01  1.68005E-01
    9000.135      6.006   1.840  1.20469E+00  1.00050E+00  2.04191E-01
    9000.702      6.573   1.880  1.22814E+00  1.00596E+00  2.22179E-01
    9001.281      7.152   1.920  1.24874E+00  1.01081E+00  2.37932E-01
    9001.872      7.743   1.960  1.27933E+00  1.01506E+00  2.64266E-01
    9002.476      8.346   2.000  1.31582E+00  1.01874E+00  2.97085E-01
    9003.091      8.962   2.040  1.34641E+00  1.02190E+00  3.24511E-01
    9003.719      9.590   2.080  1.35844E+00  1.02456E+00  3.33887E-01
    9004.359     10.230   2.120  1.35114E+00  1.02674E+00  3.24398E-01
    9005.012     10.882   2.160  1.34659E+00  1.02848E+00  3.18112E-01
    9005.676     11.547   2.200  1.35893E+00  1.02980E+00  3.29132E-01
    9006.353     12.224   2.240  1.37542E+00  1.03074E+00  3.44674E-01
    9007.041     12.912   2.280  1.37514E+00  1.03134E+00  3.43802E-01
    9007.743     13.613   2.320  1.35213E+00  1.03161E+00  3.20528E-01
    9008.456     14.327   2.360  1.31839E+00  1.03158E+00  2.86813E-01
    9009.181     15.052   2.400  1.28081E+00  1.03130E+00  2.49509E-01
    9009.919     15.790   2.440  1.23441E+00  1.03077E+00  2.03636E-01
    9010.669     16.539   2.480  1.17541E+00  1.03006E+00  1.45350E-01
    9011.431     17.301   2.520  1.11465E+00  1.02914E+00  8.55086E-02
    9012.205     18.076   2.560  1.07001E+00  1.02806E+00  4.19434E-02
    9012.991     18.862   2.600  1.03880E+00  1.02683E+00  1.19765E-02
    9013.790     19.661   2.640  1.01550E+00  1.02549E+00 -9.99068E-03
    9014.600     20.471   2.680  9.96745E-01  1.02407E+00 -2.73214E-02
    9015.423     21.294   2.720  9.81084E-01  1.02256E+00 -4.14767E-02
    9016.259     22.129   2.760  9.67685E-01  1.02100E+00 -5.33172E-02
    9017.106     22.977   2.800  9.56313E-01  1.01938E+00 -6.30647E-02
    9017.965     23.836   2.840  9.46992E-01  1.01774E+00 -7.07473E-02
    9018.837     24.708   2.880  9.39177E-01  1.01609E+00 -7.69173E-02
    9019.721     25.592   2.920  9.32224E-01  1.01445E+00 -8.22235E-02
    9020.617     26.488   2.960  9.25725E-01  1.01281E+00 -8.70814E-02
    9021.526     27.396   3.000  9.19650E-01  1.01120E+00 -9.15474E-02
    9022.446     28.317   3.040  9.14306E-01  1.00963E+00 -9.53203E-02
    9023.379     29.250   3.080  9.09920E-01  1.00809E+00 -9.81744E-02
    9024.324     30.194   3.120  9.06457E-01  1.00661E+00 -1.00152E-01
    9025.281     31.152   3.160  9.03295E-01  1.00519E+00 -1.01897E-01
    9026.250     32.121   3.200  8.99623E-01  1.00383E+00 -1.04205E-01
    9027.231     33.102   3.240  8.95100E-01  1.00254E+00 -1.07439E-01
    9028.225     34.096   3.280  8.89823E-01  1.00133E+00 -1.11507E-01
    9029.231     35.102   3.320  8.84308E-01  1.00020E+00 -1.15893E-01
    9030.249     36.120   3.360  8.79449E-01  9.99156E-01 -1.19707E-01
    9031.279     37.150   3.400  8.76268E-01  9.98217E-01 -1.21948E-01
    9032.321     38.192   3.440  8.75436E-01  9.97342E-01 -1.21906E-01
    9033.376     39.247   3.480  8.77317E-01  9.96574E-01 -1.19257E-01
    9034.443     40.314   3.520  8.81728E-01  9.95896E-01 -1.14167E-01
    9035.522     41.393   3.560  8.88223E-01  9.95326E-01 -1.07104E-01
    9036.613     42.484   3.600  8.96212E-01  9.94845E-01 -9.86330E-02
    9037.716     43.587   3.640  9.05156E-01  9.94451E-01 -8.92950E-02
    9038.832     44.703   3.680  9.14642E-01  9.94165E-01 -7.95229E-02
    9039.960     45.831   3.720  9.24437E-01  9.93968E-01 -6.95308E-02
    9041.100     46.971   3.760  9.34705E-01  9.93856E-01 -5.91510E-02
    9042.252     48.123   3.800  9.45920E-01  9.93828E-01 -4.79080E-02
    9043.416     49.287   3.840  9.58696E-01  9.93905E-01 -3.52093E-02
    9044.593     50.464   3.880  9.73499E-01  9.94045E-01 -2.05465E-02
    9045.781     51.652   3.920  9.90653E-01  9.94290E-01 -3.63741E-03
    9046.982     52.853   3.960  1.00996E+00  9.94616E-01  1.53418E-02
    9048.195     54.066   4.000  1.03063E+00  9.94998E-01  3.56336E-02
    9049.421     55.292   4.040  1.05158E+00  9.95479E-01  5.61020E-02
    9050.658     56.529   4.080  1.07137E+00  9.96013E-01  7.53525E-02
    9051.908     57.779   4.120  1.08861E+00  9.96598E-01  9.20172E-02
    9053.170     59.041   4.160  1.10233E+00  9.97255E-01  1.05070E-01
    9054.444     60.315   4.200  1.11176E+00  9.97982E-01  1.13778E-01
    9055.730     61.601   4.240  1.11638E+00  9.98753E-01  1.17627E-01
    9057.028     62.899   4.280  1.11609E+00  9.99546E-01  1.16540E-01
    9058.339     64.210   4.320  1.11151E+00  1.00040E+00  1.11115E-01
    9059.662     65.533   4.360  1.10392E+00  1.00129E+00  1.02628E-01
    9060.997     66.868   4.400  1.09486E+00  1.00220E+00  9.26617E-02
    9062.344     68.215   4.440  1.08563E+00  1.00316E+00  8.24715E-02
    9063.704     69.574   4.480  1.07681E+00  1.00411E+00  7.27028E-02
    9065.075     70.946   4.520  1.06857E+00  1.00508E+00  6.34819E-02
    9066.459     72.330   4.560  1.06082E+00  1.00609E+00  5.47363E-02
    9067.855     73.726   4.600  1.05349E+00  1.00707E+00  4.64196E-02
    9069.263     75.134   4.640  1.04663E+00  1.00805E+00  3.85807E-02
    9070.683     76.554   4.680  1.04034E+00  1.00902E+00  3.13159E-02
    9072.116     77.987   4.720  1.03460E+00  1.00999E+00  2.46115E-02
    9073.561     79.432   4.760  1.02920E+00  1.01096E+00  1.82419E-02
    9075.018     80.889   4.800  1.02373E+00  1.01189E+00  1.18385E-02
    9076.487     82.358   4.840  1.01783E+00  1.01278E+00  5.04397E-03
    9077.968     83.839   4.880  1.01131E+00  1.01366E+00 -2.34907E-03
    9079.462     85.333   4.920  1.00420E+00  1.01451E+00 -1.03050E-02
    9080.967     86.838   4.960  9.96806E-01  1.01531E+00 -1.85010E-02
    9082.485     88.356   5.000  9.89748E-01  1.01606E+00 -2.63164E-02
    9084.015     89.886   5.040  9.83818E-01  1.01675E+00 -3.29369E-02
    9085.558     91.429   5.080  9.79799E-01  1.01742E+00 -3.76231E-02
    9087.112     92.983   5.120  9.78101E-01  1.01802E+00 -3.99209E-02
    9088.679     94.550   5.160  9.78752E-01  1.01857E+00 -3.98215E-02
    9090.258     96.129   5.200  9.81339E-01  1.01908E+00 -3.77366E-02
    9091.849     97.720   5.240  9.85118E-01  1.01951E+00 -3.43872E-02
    9093.452     99.323   5.280  9.89213E-01  1.01986E+00 -3.06477E-02
    9095.067    100.938   5.320  9.92864E-01  1.02019E+00 -2.73235E-02
    9096.695    102.566   5.360  9.95549E-01  1.02042E+00 -2.48691E-02
    9098.335    104.206   5.400  9.97432E-01  1.02060E+00 -2.31643E-02
    9099.987    105.858   5.440  9.99120E-01  1.02072E+00 -2.16027E-02
    9101.651    107.522   5.480  1.00126E+00  1.02075E+00 -1.94875E-02
    9103.327    109.198   5.520  1.00427E+00  1.02075E+00 -1.64804E-02
    9105.016    110.887   5.560  1.00782E+00  1.02068E+00 -1.28565E-02
    9106.717    112.588   5.600  1.01113E+00  1.02053E+00 -9.39707E-03
    9108.430    114.301   5.640  1.01330E+00  1.02031E+00 -7.00082E-03
    9110.155    116.026   5.680  1.01383E+00  1.02006E+00 -6.22369E-03
    9111.892    117.763   5.720  1.01247E+00  1.01971E+00 -7.24513E-03
    9113.642    119.513   5.760  1.00929E+00  1.01935E+00 -1.00622E-02
    9115.404    121.274   5.800  1.00448E+00  1.01892E+00 -1.44348E-02
    9117.177    123.048   5.840  9.98835E-01  1.01844E+00 -1.96025E-02
    9118.964    124.834   5.880  9.93455E-01  1.01790E+00 -2.44408E-02
    9120.762    126.633   5.920  9.89301E-01  1.01734E+00 -2.80398E-02
    9122.572    128.443   5.960  9.86633E-01  1.01672E+00 -3.00915E-02
    9124.395    130.266   6.000  9.85352E-01  1.01606E+00 -3.07133E-02
