# # comment:                                                     FEFF 9.9.1  
# # Source:
# # Structure
# # Reduced
# # space
# # abc:
# # angles:
# # sites:
# # POT  SCF 100  7.0000   0, screened core-hole, AFOLP (folp(0)= 1.150)
# # Abs   Z=29 Rmt= 1.200 Rnm= 1.291 K  shell
# # Pot 1 Z=56 Rmt= 1.955 Rnm= 2.010
# # Pot 2 Z=29 Rmt= 1.200 Rnm= 1.291
# # Pot 3 Z=80 Rmt= 1.372 Rnm= 1.552
# # Pot 4 Z= 8 Rmt= 1.056 Rnm= 1.110
# # Gam_ch=1.729E+00 H-L exch Vi= 0.000E+00 Vr= 0.000E+00
# # Mu=-8.596E+00eV kf=1.940E+00 Vint=-1.702E+01eV Rs_int= 1.870
# FMS rfms= 9.0000
# # PATH  Rmax=-1.000,  Keep_limit= 0.00, Heap_limit 0.00  Pwcrit= 2.50%
#  S02=0.950  Temp=   0.00  Debye_temp=   0.00  Global_sig2= 0.00000
#  Energy zero shift, vr, vi    0.00000E+00   0.00000E+00
#  Curved wave amplitude ratio filter   4.000%
#     file         sig2 tot  cw amp ratio   deg  nlegs   reff  inp sig2
#     0/   0 paths used
#  xsedge+ 50, used to normalize mu           2.4233E-04
#  -----------------------------------------------------------------------
#  omega    e    k    mu    mu0     chi     @#
    8985.458    -12.406  -1.000  4.42029E-02  6.05306E-02 -1.63278E-02
    8985.757    -12.107  -0.960  4.68039E-02  6.50761E-02 -1.82721E-02
    8986.044    -11.821  -0.920  4.96390E-02  7.01364E-02 -2.04974E-02
    8986.318    -11.547  -0.880  5.27386E-02  7.57879E-02 -2.30493E-02
    8986.580    -11.285  -0.840  5.61382E-02  8.21195E-02 -2.59813E-02
    8986.830    -11.035  -0.800  5.98787E-02  8.92342E-02 -2.93554E-02
    8987.068    -10.797  -0.760  6.40072E-02  9.72500E-02 -3.32428E-02
    8987.293    -10.571  -0.720  6.85768E-02  1.06301E-01 -3.77238E-02
    8987.507    -10.358  -0.680  7.36458E-02  1.16533E-01 -4.28873E-02
    8987.708    -10.157  -0.640  7.92757E-02  1.28103E-01 -4.88271E-02
    8987.897     -9.968  -0.600  8.55263E-02  1.41163E-01 -5.56362E-02
    8988.074     -9.791  -0.560  9.24469E-02  1.55843E-01 -6.33957E-02
    8988.238     -9.626  -0.520  1.00063E-01  1.72221E-01 -7.21581E-02
    8988.391     -9.474  -0.480  1.08357E-01  1.90281E-01 -8.19242E-02
    8988.531     -9.334  -0.440  1.17248E-01  2.09865E-01 -9.26165E-02
    8988.659     -9.206  -0.400  1.26573E-01  2.30630E-01 -1.04056E-01
    8988.775     -9.090  -0.360  1.36084E-01  2.52038E-01 -1.15953E-01
    8988.878     -8.986  -0.320  1.45466E-01  2.73391E-01 -1.27925E-01
    8988.970     -8.895  -0.280  1.54377E-01  2.93912E-01 -1.39535E-01
    8989.049     -8.816  -0.240  1.62503E-01  3.12855E-01 -1.50352E-01
    8989.116     -8.749  -0.200  1.69598E-01  3.29595E-01 -1.59997E-01
    8989.171     -8.694  -0.160  1.75498E-01  3.43676E-01 -1.68178E-01
    8989.213     -8.651  -0.120  1.80118E-01  3.54806E-01 -1.74689E-01
    8989.244     -8.621  -0.080  1.83423E-01  3.62823E-01 -1.79400E-01
    8989.268     -8.596   0.000  1.86068E-01  3.69264E-01 -1.83195E-01
    8989.323     -8.541   0.120  1.91865E-01  3.83792E-01 -1.91927E-01
    8989.366     -8.499   0.160  1.96286E-01  3.95061E-01 -1.98775E-01
    8989.421     -8.444   0.200  2.01879E-01  4.09467E-01 -2.07588E-01
    8989.488     -8.377   0.240  2.08484E-01  4.26792E-01 -2.18308E-01
    8989.567     -8.297   0.280  2.15914E-01  4.46667E-01 -2.30752E-01
    8989.658     -8.206   0.320  2.24006E-01  4.68603E-01 -2.44597E-01
    8989.762     -8.102   0.360  2.32559E-01  4.91927E-01 -2.59368E-01
    8989.878     -7.987   0.400  2.41557E-01  5.15964E-01 -2.74407E-01
    8990.006     -7.859   0.440  2.51169E-01  5.40076E-01 -2.88907E-01
    8990.146     -7.718   0.480  2.61819E-01  5.63786E-01 -3.01967E-01
    8990.299     -7.566   0.520  2.74041E-01  5.86745E-01 -3.12704E-01
    8990.463     -7.401   0.560  2.88483E-01  6.08831E-01 -3.20348E-01
    8990.640     -7.225   0.600  3.05500E-01  6.29961E-01 -3.24462E-01
    8990.829     -7.036   0.640  3.25216E-01  6.50198E-01 -3.24982E-01
    8991.030     -6.834   0.680  3.47529E-01  6.69604E-01 -3.22075E-01
    8991.243     -6.621   0.720  3.72539E-01  6.88300E-01 -3.15761E-01
    8991.469     -6.396   0.760  4.00816E-01  7.06362E-01 -3.05546E-01
    8991.707     -6.158   0.800  4.33134E-01  7.23857E-01 -2.90723E-01
    8991.957     -5.908   0.840  4.69494E-01  7.40877E-01 -2.71383E-01
    8992.219     -5.646   0.880  5.07949E-01  7.57457E-01 -2.49508E-01
    8992.493     -5.371   0.920  5.44050E-01  7.73616E-01 -2.29565E-01
    8992.780     -5.085   0.960  5.70885E-01  7.89402E-01 -2.18517E-01
    8993.078     -4.786   1.000  5.81077E-01  8.04787E-01 -2.23710E-01
    8993.389     -4.475   1.040  5.73125E-01  8.19777E-01 -2.46652E-01
    8993.712     -4.152   1.080  5.55247E-01  8.34369E-01 -2.79122E-01
    8994.048     -3.817   1.120  5.40068E-01  8.48553E-01 -3.08485E-01
    8994.395     -3.469   1.160  5.37068E-01  8.62273E-01 -3.25205E-01
    8994.755     -3.110   1.200  5.50936E-01  8.75554E-01 -3.24618E-01
    8995.127     -2.738   1.240  5.84083E-01  8.88333E-01 -3.04250E-01
    8995.511     -2.354   1.280  6.36375E-01  9.00629E-01 -2.64255E-01
    8995.907     -1.958   1.320  6.95297E-01  9.12378E-01 -2.17081E-01
    8996.315     -1.549   1.360  7.35431E-01  9.23578E-01 -1.88148E-01
    8996.736     -1.129   1.400  7.50232E-01  9.34226E-01 -1.83995E-01
    8997.169     -0.696   1.440  7.66089E-01  9.44279E-01 -1.78190E-01
    8997.614     -0.251   1.480  8.06945E-01  9.53756E-01 -1.46811E-01
    8998.071      0.206   1.520  8.70528E-01  9.62617E-01 -9.20895E-02
    8998.540      0.676   1.560  9.30579E-01  9.70904E-01 -4.03245E-02
    8999.022      1.157   1.600  9.62830E-01  9.78558E-01 -1.57286E-02
    8999.516      1.651   1.640  9.73390E-01  9.85625E-01 -1.22356E-02
    9000.022      2.157   1.680  9.93768E-01  9.92111E-01  1.65676E-03
    9000.540      2.675   1.720  1.06557E+00  9.98022E-01  6.75513E-02
    9001.070      3.206   1.760  1.21890E+00  1.00335E+00  2.15549E-01
    9001.613      3.748   1.800  1.43480E+00  1.00811E+00  4.26684E-01
    9002.167      4.303   1.840  1.62870E+00  1.01237E+00  6.16328E-01
    9002.734      4.870   1.880  1.68867E+00  1.01610E+00  6.72577E-01
    9003.313      5.449   1.920  1.59353E+00  1.01932E+00  5.74213E-01
    9003.905      6.040   1.960  1.44761E+00  1.02209E+00  4.25524E-01
    9004.508      6.644   2.000  1.32984E+00  1.02440E+00  3.05439E-01
    9005.124      7.259   2.040  1.25242E+00  1.02631E+00  2.26104E-01
    9005.752      7.887   2.080  1.21007E+00  1.02781E+00  1.82258E-01
    9006.392      8.527   2.120  1.19319E+00  1.02894E+00  1.64251E-01
    9007.044      9.180   2.160  1.18594E+00  1.02974E+00  1.56194E-01
    9007.709      9.844   2.200  1.17045E+00  1.03022E+00  1.40234E-01
    9008.385     10.521   2.240  1.13985E+00  1.03040E+00  1.09456E-01
    9009.074     11.210   2.280  1.10253E+00  1.03032E+00  7.22176E-02
    9009.775     11.911   2.320  1.06836E+00  1.02999E+00  3.83686E-02
    9010.488     12.624   2.360  1.04877E+00  1.02945E+00  1.93189E-02
    9011.214     13.349   2.400  1.04548E+00  1.02872E+00  1.67519E-02
    9011.951     14.087   2.440  1.05096E+00  1.02783E+00  2.31277E-02
    9012.701     14.837   2.480  1.06409E+00  1.02678E+00  3.73173E-02
    9013.463     15.599   2.520  1.08350E+00  1.02562E+00  5.78895E-02
    9014.237     16.373   2.560  1.10498E+00  1.02434E+00  8.06402E-02
    9015.024     17.159   2.600  1.12244E+00  1.02295E+00  9.94920E-02
    9015.822     17.958   2.640  1.13032E+00  1.02152E+00  1.08794E-01
    9016.633     18.769   2.680  1.12562E+00  1.02002E+00  1.05597E-01
    9017.456     19.592   2.720  1.10910E+00  1.01848E+00  9.06221E-02
    9018.291     20.427   2.760  1.08423E+00  1.01691E+00  6.73278E-02
    9019.139     21.274   2.800  1.05517E+00  1.01534E+00  3.98292E-02
    9019.998     22.134   2.840  1.02488E+00  1.01376E+00  1.11231E-02
    9020.870     23.005   2.880  9.95492E-01  1.01220E+00 -1.67110E-02
    9021.754     23.889   2.920  9.67984E-01  1.01067E+00 -4.26903E-02
    9022.650     24.785   2.960  9.42613E-01  1.00916E+00 -6.65486E-02
    9023.558     25.694   3.000  9.19581E-01  1.00769E+00 -8.81071E-02
    9024.479     26.614   3.040  8.98923E-01  1.00628E+00 -1.07357E-01
    9025.411     27.547   3.080  8.80596E-01  1.00492E+00 -1.24324E-01
    9026.356     28.492   3.120  8.64875E-01  1.00363E+00 -1.38758E-01
    9027.313     29.449   3.160  8.51856E-01  1.00242E+00 -1.50565E-01
    9028.283     30.418   3.200  8.41704E-01  1.00127E+00 -1.59561E-01
    9029.264     31.400   3.240  8.34809E-01  1.00019E+00 -1.65379E-01
    9030.258     32.393   3.280  8.31650E-01  9.99214E-01 -1.67565E-01
    9031.264     33.399   3.320  8.32287E-01  9.98304E-01 -1.66017E-01
    9032.282     34.417   3.360  8.36499E-01  9.97498E-01 -1.60999E-01
    9033.312     35.447   3.400  8.43848E-01  9.96778E-01 -1.52929E-01
    9034.354     36.490   3.440  8.53608E-01  9.96144E-01 -1.42536E-01
    9035.409     37.544   3.480  8.65373E-01  9.95619E-01 -1.30246E-01
    9036.476     38.611   3.520  8.79189E-01  9.95181E-01 -1.15992E-01
    9037.555     39.690   3.560  8.95348E-01  9.94828E-01 -9.94799E-02
    9038.646     40.781   3.600  9.13702E-01  9.94562E-01 -8.08595E-02
    9039.749     41.885   3.640  9.33376E-01  9.94404E-01 -6.10278E-02
    9040.865     43.000   3.680  9.52928E-01  9.94331E-01 -4.14038E-02
    9041.992     44.128   3.720  9.71032E-01  9.94343E-01 -2.33110E-02
    9043.132     45.268   3.760  9.87331E-01  9.94438E-01 -7.10611E-03
    9044.285     46.420   3.800  1.00241E+00  9.94617E-01  7.78879E-03
    9045.449     47.584   3.840  1.01700E+00  9.94899E-01  2.20969E-02
    9046.625     48.761   3.880  1.03141E+00  9.95240E-01  3.61668E-02
    9047.814     49.950   3.920  1.04525E+00  9.95659E-01  4.95932E-02
    9049.015     51.150   3.960  1.05753E+00  9.96156E-01  6.13755E-02
    9050.228     52.364   4.000  1.06717E+00  9.96729E-01  7.04401E-02
    9051.453     53.589   4.040  1.07358E+00  9.97353E-01  7.62291E-02
    9052.691     54.826   4.080  1.07697E+00  9.98048E-01  7.89229E-02
    9053.941     56.076   4.120  1.07808E+00  9.98790E-01  7.92877E-02
    9055.202     57.338   4.160  1.07801E+00  9.99577E-01  7.84296E-02
    9056.476     58.612   4.200  1.07770E+00  1.00043E+00  7.72689E-02
    9057.763     59.898   4.240  1.07756E+00  1.00130E+00  7.62570E-02
    9059.061     61.197   4.280  1.07762E+00  1.00221E+00  7.54156E-02
    9060.372     62.507   4.320  1.07768E+00  1.00317E+00  7.45053E-02
    9061.695     63.830   4.360  1.07708E+00  1.00413E+00  7.29442E-02
    9063.030     65.165   4.400  1.07517E+00  1.00514E+00  7.00307E-02
    9064.377     66.512   4.440  1.07159E+00  1.00616E+00  6.54357E-02
    9065.736     67.872   4.480  1.06657E+00  1.00718E+00  5.93890E-02
    9067.108     69.243   4.520  1.06081E+00  1.00820E+00  5.26080E-02
    9068.492     70.627   4.560  1.05519E+00  1.00922E+00  4.59707E-02
    9069.888     72.023   4.600  1.05039E+00  1.01024E+00  4.01500E-02
    9071.296     73.431   4.640  1.04673E+00  1.01122E+00  3.55092E-02
    9072.716     74.852   4.680  1.04434E+00  1.01223E+00  3.21161E-02
    9074.149     76.284   4.720  1.04295E+00  1.01320E+00  2.97493E-02
    9075.593     77.729   4.760  1.04199E+00  1.01413E+00  2.78581E-02
    9077.050     79.186   4.800  1.04063E+00  1.01503E+00  2.56018E-02
    9078.520     80.655   4.840  1.03787E+00  1.01591E+00  2.19580E-02
    9080.001     82.136   4.880  1.03274E+00  1.01676E+00  1.59781E-02
    9081.494     83.630   4.920  1.02478E+00  1.01756E+00  7.22476E-03
    9083.000     85.136   4.960  1.01444E+00  1.01829E+00 -3.85273E-03
    9084.518     86.653   5.000  1.00321E+00  1.01900E+00 -1.57932E-02
    9086.048     88.184   5.040  9.93124E-01  1.01964E+00 -2.65186E-02
    9087.590     89.726   5.080  9.86188E-01  1.02023E+00 -3.40461E-02
    9089.145     91.280   5.120  9.83659E-01  1.02075E+00 -3.70940E-02
    9090.711     92.847   5.160  9.85720E-01  1.02122E+00 -3.55024E-02
    9092.290     94.426   5.200  9.91469E-01  1.02164E+00 -3.01714E-02
    9093.881     96.017   5.240  9.99050E-01  1.02196E+00 -2.29117E-02
    9095.485     97.620   5.280  1.00622E+00  1.02225E+00 -1.60351E-02
    9097.100     99.236   5.320  1.01090E+00  1.02247E+00 -1.15682E-02
    9098.728    100.863   5.360  1.01176E+00  1.02261E+00 -1.08446E-02
    9100.367    102.503   5.400  1.00884E+00  1.02267E+00 -1.38299E-02
    9102.019    104.155   5.440  1.00346E+00  1.02269E+00 -1.92278E-02
    9103.684    105.819   5.480  9.97279E-01  1.02265E+00 -2.53677E-02
    9105.360    107.496   5.520  9.91482E-01  1.02253E+00 -3.10511E-02
    9107.049    109.184   5.560  9.86351E-01  1.02234E+00 -3.59933E-02
    9108.749    110.885   5.600  9.81626E-01  1.02210E+00 -4.04794E-02
    9110.462    112.598   5.640  9.76991E-01  1.02179E+00 -4.48013E-02
    9112.188    114.323   5.680  9.72848E-01  1.02143E+00 -4.85851E-02
    9113.925    116.060   5.720  9.70038E-01  1.02103E+00 -5.09890E-02
    9115.674    117.810   5.760  9.69452E-01  1.02055E+00 -5.11002E-02
    9117.436    119.572   5.800  9.71596E-01  1.02003E+00 -4.84373E-02
    9119.210    121.346   5.840  9.76043E-01  1.01947E+00 -4.34285E-02
    9120.996    123.132   5.880  9.81448E-01  1.01885E+00 -3.74000E-02
    9122.795    124.930   5.920  9.86367E-01  1.01822E+00 -3.18484E-02
    9124.605    126.741   5.960  9.90096E-01  1.01755E+00 -2.74573E-02
    9126.428    128.563   6.000  9.93170E-01  1.01682E+00 -2.36533E-02
