# # comment:                                                     FEFF 9.9.1  
# # Source:
# # Structure
# # Reduced
# # space
# # abc:
# # angles:
# # sites:
# # POT  SCF 100  7.0000   0, screened core-hole, AFOLP (folp(0)= 1.150)
# # Abs   Z=29 Rmt= 1.145 Rnm= 1.332 K  shell
# # Pot 1 Z=29 Rmt= 1.145 Rnm= 1.332
# # Pot 2 Z= 8 Rmt= 0.967 Rnm= 1.102
# # Gam_ch=1.729E+00 H-L exch Vi= 0.000E+00 Vr= 0.000E+00
# # Mu=-6.729E+00eV kf=2.099E+00 Vint=-1.450E+01eV Rs_int= 1.728
# FMS rfms= 9.0000
# # PATH  Rmax=-1.000,  Keep_limit= 0.00, Heap_limit 0.00  Pwcrit= 2.50%
#  S02=0.950  Temp=   0.00  Debye_temp=   0.00  Global_sig2= 0.00000
#  Energy zero shift, vr, vi    0.00000E+00   0.00000E+00
#  Curved wave amplitude ratio filter   4.000%
#     file         sig2 tot  cw amp ratio   deg  nlegs   reff  inp sig2
#     0/   0 paths used
#  xsedge+ 50, used to normalize mu           2.4275E-04
#  -----------------------------------------------------------------------
#  omega    e    k    mu    mu0     chi     @#
    8983.611    -10.539  -1.000  4.62534E-02  5.69690E-02 -1.07156E-02
    8983.909    -10.240  -0.960  4.92496E-02  6.11217E-02 -1.18721E-02
    8984.196     -9.954  -0.920  5.25456E-02  6.57337E-02 -1.31881E-02
    8984.470     -9.679  -0.880  5.61818E-02  7.08719E-02 -1.46901E-02
    8984.732     -9.417  -0.840  6.02047E-02  7.66144E-02 -1.64097E-02
    8984.982     -9.167  -0.800  6.46673E-02  8.30513E-02 -1.83840E-02
    8985.220     -8.930  -0.760  6.96297E-02  9.02861E-02 -2.06564E-02
    8985.446     -8.704  -0.720  7.51585E-02  9.84355E-02 -2.32769E-02
    8985.659     -8.491  -0.680  8.13261E-02  1.07628E-01 -2.63017E-02
    8985.860     -8.290  -0.640  8.82074E-02  1.17999E-01 -2.97912E-02
    8986.049     -8.101  -0.600  9.58747E-02  1.29680E-01 -3.38056E-02
    8986.226     -7.924  -0.560  1.04389E-01  1.42786E-01 -3.83976E-02
    8986.390     -7.759  -0.520  1.13784E-01  1.57383E-01 -4.35987E-02
    8986.543     -7.607  -0.480  1.24052E-01  1.73454E-01 -4.94021E-02
    8986.683     -7.467  -0.440  1.35118E-01  1.90860E-01 -5.57421E-02
    8986.811     -7.339  -0.400  1.46820E-01  2.09298E-01 -6.24779E-02
    8986.927     -7.223  -0.360  1.58906E-01  2.28297E-01 -6.93914E-02
    8987.031     -7.119  -0.320  1.71034E-01  2.47242E-01 -7.62079E-02
    8987.122     -7.028  -0.280  1.82812E-01  2.65450E-01 -8.26379E-02
    8987.201     -6.948  -0.240  1.93836E-01  2.82262E-01 -8.84269E-02
    8987.268     -6.881  -0.200  2.03736E-01  2.97128E-01 -9.33923E-02
    8987.323     -6.826  -0.160  2.12206E-01  3.09640E-01 -9.74342E-02
    8987.366     -6.784  -0.120  2.19014E-01  3.19536E-01 -1.00522E-01
    8987.396     -6.753  -0.080  2.24001E-01  3.26669E-01 -1.02668E-01
    8987.421     -6.729   0.000  2.28099E-01  3.32402E-01 -1.04302E-01
    8987.476     -6.674   0.120  2.37182E-01  3.45341E-01 -1.08159E-01
    8987.518     -6.631   0.160  2.44338E-01  3.55399E-01 -1.11062E-01
    8987.573     -6.577   0.200  2.53619E-01  3.68255E-01 -1.14636E-01
    8987.640     -6.509   0.240  2.65043E-01  3.83746E-01 -1.18702E-01
    8987.719     -6.430   0.280  2.78552E-01  4.01581E-01 -1.23028E-01
    8987.811     -6.339   0.320  2.93910E-01  4.21289E-01 -1.27379E-01
    8987.914     -6.235   0.360  3.10821E-01  4.42374E-01 -1.31553E-01
    8988.030     -6.119   0.400  3.28698E-01  4.64220E-01 -1.35523E-01
    8988.158     -5.991   0.440  3.46840E-01  4.86303E-01 -1.39463E-01
    8988.299     -5.851   0.480  3.64385E-01  5.08194E-01 -1.43809E-01
    8988.451     -5.699   0.520  3.80586E-01  5.29633E-01 -1.49047E-01
    8988.615     -5.534   0.560  3.94996E-01  5.50477E-01 -1.55481E-01
    8988.792     -5.357   0.600  4.07824E-01  5.70689E-01 -1.62865E-01
    8988.981     -5.168   0.640  4.20113E-01  5.90304E-01 -1.70190E-01
    8989.182     -4.967   0.680  4.33509E-01  6.09368E-01 -1.75859E-01
    8989.396     -4.754   0.720  4.49779E-01  6.28004E-01 -1.78226E-01
    8989.621     -4.528   0.760  4.70055E-01  6.46272E-01 -1.76218E-01
    8989.859     -4.291   0.800  4.94430E-01  6.64220E-01 -1.69790E-01
    8990.109     -4.041   0.840  5.21916E-01  6.81923E-01 -1.60008E-01
    8990.371     -3.778   0.880  5.50767E-01  6.99382E-01 -1.48615E-01
    8990.645     -3.504   0.920  5.78820E-01  7.16643E-01 -1.37823E-01
    8990.932     -3.218   0.960  6.02731E-01  7.33680E-01 -1.30950E-01
    8991.231     -2.919   1.000  6.17956E-01  7.50518E-01 -1.32562E-01
    8991.542     -2.608   1.040  6.20885E-01  7.67130E-01 -1.46245E-01
    8991.865     -2.285   1.080  6.12518E-01  7.83503E-01 -1.70985E-01
    8992.200     -1.950   1.120  5.98723E-01  7.99578E-01 -2.00855E-01
    8992.547     -1.602   1.160  5.85633E-01  8.15330E-01 -2.29697E-01
    8992.907     -1.243   1.200  5.76315E-01  8.30754E-01 -2.54439E-01
    8993.279     -0.871   1.240  5.71735E-01  8.45780E-01 -2.74045E-01
    8993.663     -0.487   1.280  5.73241E-01  8.60397E-01 -2.87156E-01
    8994.059     -0.090   1.320  5.82631E-01  8.74531E-01 -2.91900E-01
    8994.468      0.318   1.360  5.99848E-01  8.88192E-01 -2.88344E-01
    8994.888      0.739   1.400  6.20145E-01  9.01308E-01 -2.81162E-01
    8995.321      1.171   1.440  6.36667E-01  9.13867E-01 -2.77200E-01
    8995.766      1.616   1.480  6.49332E-01  9.25862E-01 -2.76530E-01
    8996.223      2.074   1.520  6.68404E-01  9.37243E-01 -2.68840E-01
    8996.693      2.543   1.560  7.05974E-01  9.48005E-01 -2.42031E-01
    8997.174      3.025   1.600  7.67437E-01  9.58122E-01 -1.90685E-01
    8997.668      3.518   1.640  8.49708E-01  9.67613E-01 -1.17905E-01
    8998.174      4.024   1.680  9.41606E-01  9.76435E-01 -3.48291E-02
    8998.692      4.543   1.720  1.02751E+00  9.84632E-01  4.28801E-02
    8999.222      5.073   1.760  1.09212E+00  9.92166E-01  9.99560E-02
    8999.765      5.615   1.800  1.12398E+00  9.99082E-01  1.24900E-01
    9000.320      6.170   1.840  1.12623E+00  1.00535E+00  1.20887E-01
    9000.887      6.737   1.880  1.12297E+00  1.01103E+00  1.11941E-01
    9001.466      7.316   1.920  1.13584E+00  1.01610E+00  1.19740E-01
    9002.057      7.907   1.960  1.16318E+00  1.02058E+00  1.42603E-01
    9002.661      8.511   2.000  1.19201E+00  1.02453E+00  1.67482E-01
    9003.276      9.127   2.040  1.21842E+00  1.02793E+00  1.90495E-01
    9003.904      9.755   2.080  1.24476E+00  1.03083E+00  2.13926E-01
    9004.544     10.395   2.120  1.26528E+00  1.03325E+00  2.32035E-01
    9005.197     11.047   2.160  1.27577E+00  1.03523E+00  2.40540E-01
    9005.861     11.711   2.200  1.28757E+00  1.03676E+00  2.50805E-01
    9006.538     12.388   2.240  1.29475E+00  1.03791E+00  2.56842E-01
    9007.227     13.077   2.280  1.26818E+00  1.03868E+00  2.29506E-01
    9007.928     13.778   2.320  1.21268E+00  1.03908E+00  1.73595E-01
    9008.641     14.491   2.360  1.16201E+00  1.03921E+00  1.22805E-01
    9009.366     15.217   2.400  1.13260E+00  1.03902E+00  9.35746E-02
    9010.104     15.954   2.440  1.11813E+00  1.03858E+00  7.95588E-02
    9010.854     16.704   2.480  1.10331E+00  1.03789E+00  6.54205E-02
    9011.616     17.466   2.520  1.07700E+00  1.03701E+00  3.99952E-02
    9012.390     18.240   2.560  1.04778E+00  1.03592E+00  1.18555E-02
    9013.176     19.027   2.600  1.02436E+00  1.03467E+00 -1.03123E-02
    9013.975     19.825   2.640  1.00942E+00  1.03327E+00 -2.38533E-02
    9014.786     20.636   2.680  1.00223E+00  1.03176E+00 -2.95280E-02
    9015.608     21.459   2.720  1.00191E+00  1.03013E+00 -2.82192E-02
    9016.444     22.294   2.760  1.00714E+00  1.02842E+00 -2.12842E-02
    9017.291     23.141   2.800  1.01652E+00  1.02665E+00 -1.01303E-02
    9018.150     24.001   2.840  1.02868E+00  1.02482E+00  3.85892E-03
    9019.022     24.873   2.880  1.04182E+00  1.02296E+00  1.88540E-02
    9019.906     25.757   2.920  1.05409E+00  1.02107E+00  3.30137E-02
    9020.802     26.653   2.960  1.06351E+00  1.01918E+00  4.43329E-02
    9021.711     27.561   3.000  1.06825E+00  1.01729E+00  5.09618E-02
    9022.631     28.481   3.040  1.06699E+00  1.01542E+00  5.15664E-02
    9023.564     29.414   3.080  1.05975E+00  1.01359E+00  4.61532E-02
    9024.509     30.359   3.120  1.04781E+00  1.01178E+00  3.60342E-02
    9025.466     31.316   3.160  1.03309E+00  1.01001E+00  2.30852E-02
    9026.435     32.285   3.200  1.01746E+00  1.00830E+00  9.15550E-03
    9027.416     33.267   3.240  1.00250E+00  1.00667E+00 -4.16488E-03
    9028.410     34.260   3.280  9.88859E-01  1.00509E+00 -1.62297E-02
    9029.416     35.266   3.320  9.76489E-01  1.00358E+00 -2.70939E-02
    9030.434     36.284   3.360  9.65104E-01  1.00214E+00 -3.70323E-02
    9031.464     37.314   3.400  9.54388E-01  1.00079E+00 -4.64054E-02
    9032.507     38.357   3.440  9.43999E-01  9.99535E-01 -5.55365E-02
    9033.561     39.411   3.480  9.33734E-01  9.98384E-01 -6.46500E-02
    9034.628     40.478   3.520  9.23621E-01  9.97299E-01 -7.36779E-02
    9035.707     41.557   3.560  9.13901E-01  9.96323E-01 -8.24228E-02
    9036.798     42.648   3.600  9.05169E-01  9.95459E-01 -9.02903E-02
    9037.901     43.752   3.640  8.98175E-01  9.94684E-01 -9.65098E-02
    9039.017     44.867   3.680  8.93557E-01  9.93999E-01 -1.00442E-01
    9040.145     45.995   3.720  8.91638E-01  9.93425E-01 -1.01788E-01
    9041.285     47.135   3.760  8.92477E-01  9.92942E-01 -1.00465E-01
    9042.437     48.287   3.800  8.96010E-01  9.92570E-01 -9.65591E-02
    9043.601     49.452   3.840  9.02020E-01  9.92289E-01 -9.02692E-02
    9044.778     50.628   3.880  9.10355E-01  9.92118E-01 -8.17629E-02
    9045.966     51.817   3.920  9.20900E-01  9.92035E-01 -7.11347E-02
    9047.167     53.018   3.960  9.33604E-01  9.92038E-01 -5.84348E-02
    9048.380     54.231   4.000  9.48396E-01  9.92129E-01 -4.37328E-02
    9049.606     55.456   4.040  9.65201E-01  9.92326E-01 -2.71249E-02
    9050.843     56.694   4.080  9.83695E-01  9.92608E-01 -8.91289E-03
    9052.093     57.943   4.120  1.00324E+00  9.92974E-01  1.02620E-02
    9053.355     59.205   4.160  1.02288E+00  9.93421E-01  2.94567E-02
    9054.629     60.479   4.200  1.04136E+00  9.93946E-01  4.74174E-02
    9055.915     61.765   4.240  1.05720E+00  9.94528E-01  6.26733E-02
    9057.213     63.064   4.280  1.06911E+00  9.95206E-01  7.39009E-02
    9058.524     64.375   4.320  1.07609E+00  9.95937E-01  8.01570E-02
    9059.847     65.697   4.360  1.07776E+00  9.96717E-01  8.10433E-02
    9061.182     67.032   4.400  1.07443E+00  9.97566E-01  7.68676E-02
    9062.529     68.380   4.440  1.06710E+00  9.98462E-01  6.86367E-02
    9063.889     69.739   4.480  1.05723E+00  9.99401E-01  5.78301E-02
    9065.260     71.111   4.520  1.04646E+00  1.00040E+00  4.60546E-02
    9066.644     72.494   4.560  1.03616E+00  1.00142E+00  3.47398E-02
    9068.040     73.890   4.600  1.02727E+00  1.00247E+00  2.47927E-02
    9069.448     75.298   4.640  1.02010E+00  1.00354E+00  1.65588E-02
    9070.868     76.719   4.680  1.01449E+00  1.00463E+00  9.86462E-03
    9072.301     78.151   4.720  1.00998E+00  1.00573E+00  4.24780E-03
    9073.746     79.596   4.760  1.00613E+00  1.00686E+00 -7.23886E-04
    9075.203     81.053   4.800  1.00278E+00  1.00799E+00 -5.20574E-03
    9076.672     82.522   4.840  9.99970E-01  1.00909E+00 -9.12057E-03
    9078.153     84.004   4.880  9.97902E-01  1.01021E+00 -1.23119E-02
    9079.647     85.497   4.920  9.96696E-01  1.01131E+00 -1.46129E-02
    9081.152     87.003   4.960  9.96584E-01  1.01239E+00 -1.58098E-02
    9082.670     88.521   5.000  9.97866E-01  1.01345E+00 -1.55792E-02
    9084.200     90.051   5.040  1.00089E+00  1.01446E+00 -1.35655E-02
    9085.743     91.593   5.080  1.00581E+00  1.01546E+00 -9.64750E-03
    9087.297     93.148   5.120  1.01233E+00  1.01642E+00 -4.09361E-03
    9088.864     94.714   5.160  1.01978E+00  1.01734E+00  2.43584E-03
    9090.443     96.293   5.200  1.02729E+00  1.01819E+00  9.10087E-03
    9092.034     97.884   5.240  1.03420E+00  1.01902E+00  1.51808E-02
    9093.637     99.487   5.280  1.04006E+00  1.01978E+00  2.02739E-02
    9095.252    101.103   5.320  1.04481E+00  1.02049E+00  2.43195E-02
    9096.880    102.730   5.360  1.04851E+00  1.02113E+00  2.73769E-02
    9098.520    104.370   5.400  1.05115E+00  1.02172E+00  2.94386E-02
    9100.172    106.022   5.440  1.05278E+00  1.02222E+00  3.05543E-02
    9101.836    107.686   5.480  1.05383E+00  1.02266E+00  3.11736E-02
    9103.512    109.363   5.520  1.05517E+00  1.02304E+00  3.21376E-02
    9105.201    111.051   5.560  1.05767E+00  1.02334E+00  3.43330E-02
    9106.902    112.752   5.600  1.06180E+00  1.02356E+00  3.82348E-02
    9108.615    114.465   5.640  1.06719E+00  1.02373E+00  4.34511E-02
    9110.340    116.190   5.680  1.07234E+00  1.02382E+00  4.85196E-02
    9112.077    117.928   5.720  1.07505E+00  1.02381E+00  5.12341E-02
    9113.827    119.677   5.760  1.07321E+00  1.02375E+00  4.94624E-02
    9115.589    121.439   5.800  1.06558E+00  1.02363E+00  4.19573E-02
    9117.362    123.213   5.840  1.05206E+00  1.02341E+00  2.86519E-02
    9119.149    124.999   5.880  1.03361E+00  1.02314E+00  1.04740E-02
    9120.947    126.797   5.920  1.01194E+00  1.02279E+00 -1.08528E-02
    9122.757    128.608   5.960  9.89519E-01  1.02236E+00 -3.28387E-02
    9124.580    130.430   6.000  9.68920E-01  1.02182E+00 -5.29009E-02
