# # comment:                                                     FEFF 9.9.1  
# # Source:
# # Structure
# # Reduced
# # space
# # abc:
# # angles:
# # sites:
# # POT  SCF 100  7.0000   0, screened core-hole, AFOLP (folp(0)= 1.150)
# # Abs   Z=29 Rmt= 1.262 Rnm= 1.332 K  shell
# # Pot 1 Z= 3 Rmt= 1.284 Rnm= 1.347
# # Pot 2 Z=29 Rmt= 1.274 Rnm= 1.345
# # Pot 3 Z=51 Rmt= 1.317 Rnm= 1.453
# # Pot 4 Z= 8 Rmt= 1.046 Rnm= 1.105
# # Gam_ch=1.729E+00 H-L exch Vi= 0.000E+00 Vr= 0.000E+00
# # Mu=-7.242E+00eV kf=2.084E+00 Vint=-1.652E+01eV Rs_int= 1.741
# FMS rfms= 9.0000
# # PATH  Rmax=-1.000,  Keep_limit= 0.00, Heap_limit 0.00  Pwcrit= 2.50%
#  S02=0.950  Temp=   0.00  Debye_temp=   0.00  Global_sig2= 0.00000
#  Energy zero shift, vr, vi    0.00000E+00   0.00000E+00
#  Curved wave amplitude ratio filter   4.000%
#     file         sig2 tot  cw amp ratio   deg  nlegs   reff  inp sig2
#     0/   0 paths used
#  xsedge+ 50, used to normalize mu           2.4558E-04
#  -----------------------------------------------------------------------
#  omega    e    k    mu    mu0     chi     @#
    8984.090    -11.052  -1.000  4.01015E-02  5.47122E-02 -1.46108E-02
    8984.388    -10.753  -0.960  4.21633E-02  5.87262E-02 -1.65629E-02
    8984.675    -10.466  -0.920  4.43609E-02  6.31904E-02 -1.88295E-02
    8984.949    -10.192  -0.880  4.67040E-02  6.81713E-02 -2.14673E-02
    8985.211     -9.930  -0.840  4.92033E-02  7.37467E-02 -2.45435E-02
    8985.461     -9.680  -0.800  5.18693E-02  8.00065E-02 -2.81373E-02
    8985.699     -9.442  -0.760  5.47127E-02  8.70540E-02 -3.23413E-02
    8985.925     -9.217  -0.720  5.77441E-02  9.50058E-02 -3.72618E-02
    8986.138     -9.003  -0.680  6.09727E-02  1.03991E-01 -4.30180E-02
    8986.339     -8.802  -0.640  6.44062E-02  1.14144E-01 -4.97383E-02
    8986.528     -8.613  -0.600  6.80486E-02  1.25601E-01 -5.75520E-02
    8986.705     -8.436  -0.560  7.18988E-02  1.38473E-01 -6.65743E-02
    8986.869     -8.272  -0.520  7.59478E-02  1.52830E-01 -7.68825E-02
    8987.022     -8.120  -0.480  8.01748E-02  1.68657E-01 -8.84826E-02
    8987.162     -7.979  -0.440  8.45444E-02  1.85815E-01 -1.01271E-01
    8987.290     -7.851  -0.400  8.90026E-02  2.04005E-01 -1.15002E-01
    8987.406     -7.735  -0.360  9.34761E-02  2.22754E-01 -1.29278E-01
    8987.509     -7.632  -0.320  9.78737E-02  2.41451E-01 -1.43578E-01
    8987.601     -7.540  -0.280  1.02092E-01  2.59417E-01 -1.57325E-01
    8987.680     -7.461  -0.240  1.06023E-01  2.75998E-01 -1.69974E-01
    8987.747     -7.394  -0.200  1.09562E-01  2.90648E-01 -1.81086E-01
    8987.802     -7.339  -0.160  1.12610E-01  3.02968E-01 -1.90358E-01
    8987.845     -7.297  -0.120  1.15084E-01  3.12704E-01 -1.97620E-01
    8987.875     -7.266  -0.080  1.16916E-01  3.19717E-01 -2.02801E-01
    8987.900     -7.242   0.000  1.18452E-01  3.25349E-01 -2.06897E-01
    8987.954     -7.187   0.120  1.21996E-01  3.38042E-01 -2.16046E-01
    8987.997     -7.144   0.160  1.24773E-01  3.47910E-01 -2.23137E-01
    8988.052     -7.089   0.200  1.28412E-01  3.60503E-01 -2.32091E-01
    8988.119     -7.022   0.240  1.33009E-01  3.75645E-01 -2.42636E-01
    8988.198     -6.943   0.280  1.38654E-01  3.93006E-01 -2.54352E-01
    8988.290     -6.852   0.320  1.45504E-01  4.12136E-01 -2.66632E-01
    8988.393     -6.748   0.360  1.53768E-01  4.32496E-01 -2.78729E-01
    8988.509     -6.632   0.400  1.63647E-01  4.53450E-01 -2.89803E-01
    8988.637     -6.504   0.440  1.75489E-01  4.74457E-01 -2.98968E-01
    8988.777     -6.364   0.480  1.89687E-01  4.95096E-01 -3.05408E-01
    8988.930     -6.211   0.520  2.06754E-01  5.15080E-01 -3.08326E-01
    8989.094     -6.047   0.560  2.27313E-01  5.34285E-01 -3.06972E-01
    8989.271     -5.870   0.600  2.51997E-01  5.52680E-01 -3.00683E-01
    8989.460     -5.681   0.640  2.81078E-01  5.70302E-01 -2.89225E-01
    8989.661     -5.480   0.680  3.14093E-01  5.87250E-01 -2.73157E-01
    8989.875     -5.267   0.720  3.49486E-01  6.03596E-01 -2.54110E-01
    8990.100     -5.041   0.760  3.85127E-01  6.19470E-01 -2.34343E-01
    8990.338     -4.803   0.800  4.19050E-01  6.34933E-01 -2.15883E-01
    8990.588     -4.553   0.840  4.49988E-01  6.50033E-01 -2.00045E-01
    8990.850     -4.291   0.880  4.77627E-01  6.64864E-01 -1.87237E-01
    8991.124     -4.017   0.920  5.02469E-01  6.79466E-01 -1.76997E-01
    8991.411     -3.730   0.960  5.25186E-01  6.93824E-01 -1.68639E-01
    8991.710     -3.432   1.000  5.46319E-01  7.07999E-01 -1.61680E-01
    8992.020     -3.121   1.040  5.66225E-01  7.21975E-01 -1.55751E-01
    8992.344     -2.798   1.080  5.83082E-01  7.35753E-01 -1.52671E-01
    8992.679     -2.462   1.120  5.91582E-01  7.49345E-01 -1.57763E-01
    8993.026     -2.115   1.160  5.89790E-01  7.62701E-01 -1.72910E-01
    8993.386     -1.755   1.200  5.86095E-01  7.75844E-01 -1.89750E-01
    8993.758     -1.383   1.240  5.91684E-01  7.88736E-01 -1.97052E-01
    8994.142     -0.999   1.280  6.08845E-01  8.01355E-01 -1.92509E-01
    8994.538     -0.603   1.320  6.32935E-01  8.13676E-01 -1.80741E-01
    8994.947     -0.195   1.360  6.61978E-01  8.25696E-01 -1.63718E-01
    8995.367      0.226   1.400  6.98006E-01  8.37391E-01 -1.39385E-01
    8995.800      0.659   1.440  7.45415E-01  8.48734E-01 -1.03319E-01
    8996.245      1.104   1.480  8.10922E-01  8.59699E-01 -4.87767E-02
    8996.702      1.561   1.520  8.98183E-01  8.70281E-01  2.79022E-02
    8997.172      2.030   1.560  9.97260E-01  8.80455E-01  1.16806E-01
    8997.653      2.512   1.600  1.09355E+00  8.90218E-01  2.03335E-01
    8998.147      3.006   1.640  1.20065E+00  8.99546E-01  3.01107E-01
    8998.653      3.512   1.680  1.35321E+00  9.08456E-01  4.44755E-01
    8999.171      4.030   1.720  1.50923E+00  9.16905E-01  5.92328E-01
    8999.701      4.560   1.760  1.57502E+00  9.24914E-01  6.50106E-01
    9000.244      5.103   1.800  1.55137E+00  9.32465E-01  6.18903E-01
    9000.799      5.657   1.840  1.48088E+00  9.39578E-01  5.41306E-01
    9001.366      6.224   1.880  1.39861E+00  9.46255E-01  4.52350E-01
    9001.945      6.803   1.920  1.32683E+00  9.52480E-01  3.74354E-01
    9002.536      7.395   1.960  1.26542E+00  9.58277E-01  3.07146E-01
    9003.140      7.998   2.000  1.19610E+00  9.63651E-01  2.32449E-01
    9003.755      8.614   2.040  1.11365E+00  9.68607E-01  1.45046E-01
    9004.383      9.242   2.080  1.03276E+00  9.73152E-01  5.96035E-02
    9005.023      9.882   2.120  9.68024E-01  9.77314E-01 -9.28945E-03
    9005.675     10.534   2.160  9.23660E-01  9.81099E-01 -5.74391E-02
    9006.340     11.199   2.200  8.96439E-01  9.84536E-01 -8.80967E-02
    9007.017     11.875   2.240  8.81881E-01  9.87613E-01 -1.05732E-01
    9007.705     12.564   2.280  8.79277E-01  9.90359E-01 -1.11082E-01
    9008.406     13.265   2.320  8.92002E-01  9.92802E-01 -1.00801E-01
    9009.120     13.978   2.360  9.23838E-01  9.94950E-01 -7.11120E-02
    9009.845     14.704   2.400  9.71319E-01  9.96814E-01 -2.54950E-02
    9010.583     15.441   2.440  1.02091E+00  9.98401E-01  2.25073E-02
    9011.333     16.191   2.480  1.06071E+00  9.99761E-01  6.09469E-02
    9012.095     16.953   2.520  1.08818E+00  1.00090E+00  8.72786E-02
    9012.869     17.727   2.560  1.10346E+00  1.00181E+00  1.01643E-01
    9013.655     18.514   2.600  1.10727E+00  1.00252E+00  1.04750E-01
    9014.454     19.312   2.640  1.09873E+00  1.00308E+00  9.56499E-02
    9015.264     20.123   2.680  1.07864E+00  1.00345E+00  7.51875E-02
    9016.087     20.946   2.720  1.05104E+00  1.00369E+00  4.73550E-02
    9016.923     21.781   2.760  1.02028E+00  1.00379E+00  1.64840E-02
    9017.770     22.629   2.800  9.88872E-01  1.00378E+00 -1.49081E-02
    9018.629     23.488   2.840  9.58953E-01  1.00365E+00 -4.46960E-02
    9019.501     24.360   2.880  9.32951E-01  1.00345E+00 -7.04990E-02
    9020.385     25.244   2.920  9.12031E-01  1.00315E+00 -9.11173E-02
    9021.281     26.140   2.960  8.96076E-01  1.00279E+00 -1.06714E-01
    9022.189     27.048   3.000  8.84137E-01  1.00236E+00 -1.18223E-01
    9023.110     27.969   3.040  8.74835E-01  1.00191E+00 -1.27070E-01
    9024.043     28.901   3.080  8.67226E-01  1.00139E+00 -1.34162E-01
    9024.988     29.846   3.120  8.61937E-01  1.00086E+00 -1.38919E-01
    9025.945     30.803   3.160  8.59496E-01  1.00029E+00 -1.40797E-01
    9026.914     31.773   3.200  8.60387E-01  9.99722E-01 -1.39336E-01
    9027.895     32.754   3.240  8.64663E-01  9.99149E-01 -1.34486E-01
    9028.889     33.748   3.280  8.71938E-01  9.98595E-01 -1.26657E-01
    9029.895     34.753   3.320  8.81612E-01  9.98024E-01 -1.16412E-01
    9030.913     35.772   3.360  8.93383E-01  9.97478E-01 -1.04096E-01
    9031.943     36.802   3.400  9.07107E-01  9.96941E-01 -8.98337E-02
    9032.985     37.844   3.440  9.22189E-01  9.96433E-01 -7.42438E-02
    9034.040     38.899   3.480  9.37780E-01  9.95938E-01 -5.81579E-02
    9035.107     39.966   3.520  9.53006E-01  9.95500E-01 -4.24940E-02
    9036.186     41.045   3.560  9.67147E-01  9.95076E-01 -2.79290E-02
    9037.277     42.136   3.600  9.80084E-01  9.94691E-01 -1.46075E-02
    9038.380     43.239   3.640  9.92209E-01  9.94367E-01 -2.15797E-03
    9039.496     44.355   3.680  1.00402E+00  9.94059E-01  9.95637E-03
    9040.624     45.482   3.720  1.01588E+00  9.93791E-01  2.20886E-02
    9041.764     46.622   3.760  1.02779E+00  9.93565E-01  3.42253E-02
    9042.916     47.774   3.800  1.03927E+00  9.93402E-01  4.58656E-02
    9044.080     48.939   3.840  1.04929E+00  9.93280E-01  5.60102E-02
    9045.257     50.115   3.880  1.05679E+00  9.93178E-01  6.36107E-02
    9046.445     51.304   3.920  1.06090E+00  9.93138E-01  6.77625E-02
    9047.646     52.505   3.960  1.06115E+00  9.93140E-01  6.80059E-02
    9048.859     53.718   4.000  1.05787E+00  9.93183E-01  6.46867E-02
    9050.085     54.943   4.040  1.05226E+00  9.93266E-01  5.89939E-02
    9051.322     56.181   4.080  1.04582E+00  9.93389E-01  5.24286E-02
    9052.572     57.431   4.120  1.03974E+00  9.93551E-01  4.61865E-02
    9053.834     58.692   4.160  1.03475E+00  9.93751E-01  4.09955E-02
    9055.108     59.966   4.200  1.03113E+00  9.93990E-01  3.71382E-02
    9056.394     61.253   4.240  1.02898E+00  9.94263E-01  3.47122E-02
    9057.692     62.551   4.280  1.02834E+00  9.94550E-01  3.37891E-02
    9059.003     63.862   4.320  1.02925E+00  9.94871E-01  3.43770E-02
    9060.326     65.185   4.360  1.03154E+00  9.95228E-01  3.63104E-02
    9061.661     66.520   4.400  1.03485E+00  9.95616E-01  3.92321E-02
    9063.008     67.867   4.440  1.03873E+00  9.96013E-01  4.27184E-02
    9064.368     69.226   4.480  1.04275E+00  9.96416E-01  4.63350E-02
    9065.739     70.598   4.520  1.04655E+00  9.96847E-01  4.97066E-02
    9067.123     71.982   4.560  1.04975E+00  9.97285E-01  5.24603E-02
    9068.519     73.378   4.600  1.05191E+00  9.97748E-01  5.41661E-02
    9069.927     74.786   4.640  1.05264E+00  9.98192E-01  5.44448E-02
    9071.347     76.206   4.680  1.05181E+00  9.98660E-01  5.31465E-02
    9072.780     77.639   4.720  1.04938E+00  9.99128E-01  5.02546E-02
    9074.225     79.083   4.760  1.04521E+00  9.99592E-01  4.56189E-02
    9075.682     80.540   4.800  1.03890E+00  1.00003E+00  3.88660E-02
    9077.151     82.009   4.840  1.03012E+00  1.00049E+00  2.96272E-02
    9078.632     83.491   4.880  1.01887E+00  1.00092E+00  1.79462E-02
    9080.126     84.984   4.920  1.00577E+00  1.00135E+00  4.42495E-03
    9081.631     86.490   4.960  9.91702E-01  1.00176E+00 -1.00620E-02
    9083.149     88.008   5.000  9.77538E-01  1.00215E+00 -2.46118E-02
    9084.679     89.538   5.040  9.64205E-01  1.00250E+00 -3.82981E-02
    9086.222     91.080   5.080  9.52731E-01  1.00285E+00 -5.01142E-02
    9087.776     92.635   5.120  9.44032E-01  1.00318E+00 -5.91453E-02
    9089.343     94.201   5.160  9.38534E-01  1.00348E+00 -6.49419E-02
    9090.922     95.780   5.200  9.36131E-01  1.00374E+00 -6.76077E-02
    9092.513     97.371   5.240  9.36157E-01  1.00399E+00 -6.78322E-02
    9094.116     98.975   5.280  9.37557E-01  1.00420E+00 -6.66460E-02
    9095.731    100.590   5.320  9.39212E-01  1.00438E+00 -6.51652E-02
    9097.359    102.218   5.360  9.40200E-01  1.00451E+00 -6.43133E-02
    9098.999    103.857   5.400  9.40047E-01  1.00461E+00 -6.45635E-02
    9100.651    105.509   5.440  9.38968E-01  1.00469E+00 -6.57243E-02
    9102.315    107.174   5.480  9.37720E-01  1.00471E+00 -6.69936E-02
    9103.991    108.850   5.520  9.37448E-01  1.00472E+00 -6.72693E-02
    9105.680    110.539   5.560  9.39190E-01  1.00468E+00 -6.54946E-02
    9107.381    112.239   5.600  9.43794E-01  1.00461E+00 -6.08182E-02
    9109.094    113.952   5.640  9.51753E-01  1.00450E+00 -5.27501E-02
    9110.819    115.678   5.680  9.63011E-01  1.00438E+00 -4.13660E-02
    9112.556    117.415   5.720  9.76818E-01  1.00419E+00 -2.73709E-02
    9114.306    119.164   5.760  9.92059E-01  1.00396E+00 -1.19046E-02
    9116.067    120.926   5.800  1.00746E+00  1.00372E+00  3.73799E-03
    9117.841    122.700   5.840  1.02183E+00  1.00345E+00  1.83748E-02
    9119.628    124.486   5.880  1.03427E+00  1.00314E+00  3.11242E-02
    9121.426    126.285   5.920  1.04430E+00  1.00280E+00  4.14967E-02
    9123.236    128.095   5.960  1.05172E+00  1.00245E+00  4.92631E-02
    9125.059    129.918   6.000  1.05630E+00  1.00206E+00  5.42442E-02
