# # comment:                                                     FEFF 9.9.1  
# # Source:
# # Structure
# # Reduced
# # space
# # abc:
# # angles:
# # sites:
# # POT  SCF 100  7.0000   0, screened core-hole, AFOLP (folp(0)= 1.150)
# # Abs   Z=29 Rmt= 1.286 Rnm= 1.351 K  shell
# # Pot 1 Z=29 Rmt= 1.286 Rnm= 1.351
# # Pot 2 Z= 1 Rmt= 0.910 Rnm= 0.959
# # Pot 3 Z= 6 Rmt= 0.712 Rnm= 0.926
# # Pot 4 Z= 8 Rmt= 0.856 Rnm= 1.012
# # Gam_ch=1.729E+00 H-L exch Vi= 0.000E+00 Vr= 0.000E+00
# # Mu=-6.388E+00eV kf=2.574E+00 Vint=-1.701E+01eV Rs_int= 1.409
# FMS rfms= 9.0000
# # PATH  Rmax=-1.000,  Keep_limit= 0.00, Heap_limit 0.00  Pwcrit= 2.50%
#  S02=0.950  Temp=   0.00  Debye_temp=   0.00  Global_sig2= 0.00000
#  Energy zero shift, vr, vi    0.00000E+00   0.00000E+00
#  Curved wave amplitude ratio filter   4.000%
#     file         sig2 tot  cw amp ratio   deg  nlegs   reff  inp sig2
#     0/   0 paths used
#  xsedge+ 50, used to normalize mu           2.4863E-04
#  -----------------------------------------------------------------------
#  omega    e    k    mu    mu0     chi     @#
    8983.320    -10.198  -1.000  4.25775E-02  5.23556E-02 -9.77808E-03
    8983.618     -9.900  -0.960  4.51698E-02  5.61601E-02 -1.09904E-02
    8983.905     -9.613  -0.920  4.80105E-02  6.03905E-02 -1.23799E-02
    8984.179     -9.339  -0.880  5.11340E-02  6.51099E-02 -1.39758E-02
    8984.441     -9.077  -0.840  5.45799E-02  7.03919E-02 -1.58120E-02
    8984.691     -8.827  -0.800  5.83940E-02  7.63220E-02 -1.79281E-02
    8984.929     -8.589  -0.760  6.26285E-02  8.29983E-02 -2.03698E-02
    8985.154     -8.364  -0.720  6.73423E-02  9.05315E-02 -2.31892E-02
    8985.368     -8.150  -0.680  7.26000E-02  9.90441E-02 -2.64441E-02
    8985.569     -7.949  -0.640  7.84694E-02  1.08665E-01 -3.01958E-02
    8985.758     -7.760  -0.600  8.50167E-02  1.19522E-01 -3.45051E-02
    8985.935     -7.583  -0.560  9.22983E-02  1.31723E-01 -3.94243E-02
    8986.099     -7.419  -0.520  1.00348E-01  1.45333E-01 -4.49848E-02
    8986.252     -7.266  -0.480  1.09158E-01  1.60338E-01 -5.11801E-02
    8986.392     -7.126  -0.440  1.18662E-01  1.76607E-01 -5.79459E-02
    8986.520     -6.998  -0.400  1.28711E-01  1.93855E-01 -6.51446E-02
    8986.636     -6.882  -0.360  1.39072E-01  2.11634E-01 -7.25617E-02
    8986.739     -6.779  -0.320  1.49438E-01  2.29362E-01 -7.99237E-02
    8986.831     -6.687  -0.280  1.59457E-01  2.46393E-01 -8.69361E-02
    8986.910     -6.608  -0.240  1.68779E-01  2.62108E-01 -9.33299E-02
    8986.977     -6.541  -0.200  1.77092E-01  2.75990E-01 -9.88974E-02
    8987.032     -6.486  -0.160  1.84155E-01  2.87660E-01 -1.03506E-01
    8987.075     -6.443  -0.120  1.89793E-01  2.96881E-01 -1.07087E-01
    8987.105     -6.413  -0.080  1.93898E-01  3.03520E-01 -1.09622E-01
    8987.130     -6.388   0.000  1.97251E-01  3.08852E-01 -1.11601E-01
    8987.184     -6.334   0.120  2.04612E-01  3.20870E-01 -1.16258E-01
    8987.227     -6.291   0.160  2.10378E-01  3.30203E-01 -1.19826E-01
    8987.282     -6.236   0.200  2.17766E-01  3.42092E-01 -1.24326E-01
    8987.349     -6.169   0.240  2.26796E-01  3.56404E-01 -1.29608E-01
    8987.428     -6.090   0.280  2.37275E-01  3.72798E-01 -1.35523E-01
    8987.520     -5.998   0.320  2.48960E-01  3.90837E-01 -1.41877E-01
    8987.623     -5.895   0.360  2.61485E-01  4.09982E-01 -1.48497E-01
    8987.739     -5.779   0.400  2.74332E-01  4.29683E-01 -1.55351E-01
    8987.867     -5.651   0.440  2.86811E-01  4.49376E-01 -1.62565E-01
    8988.007     -5.511   0.480  2.98244E-01  4.68661E-01 -1.70417E-01
    8988.160     -5.358   0.520  3.08045E-01  4.87282E-01 -1.79237E-01
    8988.324     -5.194   0.560  3.16004E-01  5.05123E-01 -1.89119E-01
    8988.501     -5.017   0.600  3.22518E-01  5.22154E-01 -1.99636E-01
    8988.690     -4.828   0.640  3.28700E-01  5.38437E-01 -2.09737E-01
    8988.891     -4.627   0.680  3.36176E-01  5.54070E-01 -2.17894E-01
    8989.105     -4.413   0.720  3.46490E-01  5.69125E-01 -2.22635E-01
    8989.330     -4.188   0.760  3.60312E-01  5.83714E-01 -2.23402E-01
    8989.568     -3.950   0.800  3.76810E-01  5.97941E-01 -2.21131E-01
    8989.818     -3.700   0.840  3.94385E-01  6.11853E-01 -2.17468E-01
    8990.080     -3.438   0.880  4.12465E-01  6.25570E-01 -2.13105E-01
    8990.354     -3.164   0.920  4.31743E-01  6.39094E-01 -2.07350E-01
    8990.641     -2.877   0.960  4.52912E-01  6.52456E-01 -1.99544E-01
    8990.940     -2.579   1.000  4.75694E-01  6.65738E-01 -1.90044E-01
    8991.250     -2.268   1.040  4.98495E-01  6.78892E-01 -1.80397E-01
    8991.573     -1.945   1.080  5.18810E-01  6.91983E-01 -1.73173E-01
    8991.909     -1.609   1.120  5.33957E-01  7.04968E-01 -1.71011E-01
    8992.256     -1.262   1.160  5.44153E-01  7.17859E-01 -1.73706E-01
    8992.616     -0.902   1.200  5.53428E-01  7.30664E-01 -1.77236E-01
    8992.988     -0.530   1.240  5.66253E-01  7.43348E-01 -1.77095E-01
    8993.372     -0.146   1.280  5.84798E-01  7.55911E-01 -1.71113E-01
    8993.768      0.250   1.320  6.09801E-01  7.68333E-01 -1.58532E-01
    8994.176      0.658   1.360  6.42186E-01  7.80590E-01 -1.38404E-01
    8994.597      1.079   1.400  6.81727E-01  7.92677E-01 -1.10951E-01
    8995.030      1.512   1.440  7.25539E-01  8.04550E-01 -7.90104E-02
    8995.475      1.957   1.480  7.72701E-01  8.16200E-01 -4.34989E-02
    8995.932      2.414   1.520  8.26633E-01  8.27602E-01 -9.68572E-04
    8996.402      2.883   1.560  8.87840E-01  8.38748E-01  4.90918E-02
    8996.883      3.365   1.600  9.47459E-01  8.49591E-01  9.78679E-02
    8997.377      3.859   1.640  9.96057E-01  8.60165E-01  1.35892E-01
    8997.883      4.365   1.680  1.03619E+00  8.70403E-01  1.65785E-01
    8998.401      4.883   1.720  1.07781E+00  8.80297E-01  1.97513E-01
    8998.931      5.413   1.760  1.13251E+00  8.89861E-01  2.42648E-01
    8999.474      5.956   1.800  1.20653E+00  8.99053E-01  3.07481E-01
    9000.029      6.511   1.840  1.28529E+00  9.07866E-01  3.77421E-01
    9000.596      7.078   1.880  1.33908E+00  9.16297E-01  4.22783E-01
    9001.175      7.657   1.920  1.36005E+00  9.24344E-01  4.35703E-01
    9001.766      8.248   1.960  1.35661E+00  9.32004E-01  4.24606E-01
    9002.369      8.851   2.000  1.32654E+00  9.39256E-01  3.87280E-01
    9002.985      9.467   2.040  1.27561E+00  9.46099E-01  3.29510E-01
    9003.613     10.095   2.080  1.22610E+00  9.52555E-01  2.73541E-01
    9004.253     10.735   2.120  1.18134E+00  9.58603E-01  2.22737E-01
    9004.905     11.387   2.160  1.12874E+00  9.64245E-01  1.64491E-01
    9005.570     12.052   2.200  1.07165E+00  9.69504E-01  1.02148E-01
    9006.247     12.728   2.240  1.02839E+00  9.74363E-01  5.40272E-02
    9006.935     13.417   2.280  1.00690E+00  9.78847E-01  2.80494E-02
    9007.636     14.118   2.320  1.00249E+00  9.82962E-01  1.95235E-02
    9008.350     14.832   2.360  1.00733E+00  9.86709E-01  2.06228E-02
    9009.075     15.557   2.400  1.01349E+00  9.90116E-01  2.33757E-02
    9009.813     16.295   2.440  1.01638E+00  9.93169E-01  2.32095E-02
    9010.562     17.044   2.480  1.01787E+00  9.95894E-01  2.19790E-02
    9011.324     17.806   2.520  1.02120E+00  9.98319E-01  2.28823E-02
    9012.099     18.581   2.560  1.02870E+00  1.00043E+00  2.82673E-02
    9012.885     19.367   2.600  1.04089E+00  1.00225E+00  3.86439E-02
    9013.684     20.166   2.640  1.05484E+00  1.00379E+00  5.10499E-02
    9014.494     20.976   2.680  1.06696E+00  1.00508E+00  6.18831E-02
    9015.317     21.799   2.720  1.07359E+00  1.00612E+00  6.74665E-02
    9016.152     22.634   2.760  1.06886E+00  1.00695E+00  6.19167E-02
    9017.000     23.482   2.800  1.04885E+00  1.00754E+00  4.13122E-02
    9017.859     24.341   2.840  1.01563E+00  1.00793E+00  7.69875E-03
    9018.731     25.213   2.880  9.73416E-01  1.00815E+00 -3.47342E-02
    9019.615     26.097   2.920  9.29322E-01  1.00820E+00 -7.88760E-02
    9020.511     26.993   2.960  8.98005E-01  1.00806E+00 -1.10059E-01
    9021.419     27.901   3.000  8.81715E-01  1.00780E+00 -1.26081E-01
    9022.340     28.822   3.040  8.72578E-01  1.00740E+00 -1.34825E-01
    9023.273     29.755   3.080  8.66899E-01  1.00689E+00 -1.39987E-01
    9024.217     30.699   3.120  8.63227E-01  1.00628E+00 -1.43051E-01
    9025.175     31.656   3.160  8.61124E-01  1.00556E+00 -1.44438E-01
    9026.144     32.626   3.200  8.60547E-01  1.00478E+00 -1.44236E-01
    9027.125     33.607   3.240  8.61861E-01  1.00391E+00 -1.42047E-01
    9028.119     34.601   3.280  8.65716E-01  1.00300E+00 -1.37285E-01
    9029.125     35.607   3.320  8.72307E-01  1.00203E+00 -1.29721E-01
    9030.143     36.625   3.360  8.81502E-01  1.00101E+00 -1.19510E-01
    9031.173     37.655   3.400  8.93009E-01  9.99960E-01 -1.06951E-01
    9032.215     38.697   3.440  9.06309E-01  9.98899E-01 -9.25901E-02
    9033.270     39.752   3.480  9.20604E-01  9.97831E-01 -7.72271E-02
    9034.337     40.819   3.520  9.35301E-01  9.96759E-01 -6.14585E-02
    9035.416     41.898   3.560  9.49893E-01  9.95687E-01 -4.57937E-02
    9036.507     42.989   3.600  9.64050E-01  9.94617E-01 -3.05677E-02
    9037.610     44.092   3.640  9.77558E-01  9.93554E-01 -1.59961E-02
    9038.726     45.208   3.680  9.90246E-01  9.92520E-01 -2.27415E-03
    9039.854     46.336   3.720  1.00193E+00  9.91519E-01  1.04102E-02
    9040.994     47.476   3.760  1.01259E+00  9.90532E-01  2.20560E-02
    9042.146     48.628   3.800  1.02236E+00  9.89604E-01  3.27585E-02
    9043.310     49.792   3.840  1.03111E+00  9.88694E-01  4.24169E-02
    9044.487     50.969   3.880  1.03852E+00  9.87845E-01  5.06703E-02
    9045.675     52.157   3.920  1.04399E+00  9.87040E-01  5.69538E-02
    9046.876     53.358   3.960  1.04696E+00  9.86277E-01  6.06806E-02
    9048.089     54.571   4.000  1.04708E+00  9.85555E-01  6.15201E-02
    9049.315     55.797   4.040  1.04458E+00  9.84880E-01  5.96995E-02
    9050.552     57.034   4.080  1.04014E+00  9.84274E-01  5.58686E-02
    9051.802     58.284   4.120  1.03470E+00  9.83736E-01  5.09592E-02
    9053.064     59.546   4.160  1.02922E+00  9.83246E-01  4.59774E-02
    9054.338     60.820   4.200  1.02460E+00  9.82802E-01  4.18003E-02
    9055.624     62.106   4.240  1.02143E+00  9.82426E-01  3.90070E-02
    9056.922     63.404   4.280  1.01991E+00  9.82097E-01  3.78174E-02
    9058.233     64.715   4.320  1.01998E+00  9.81815E-01  3.81607E-02
    9059.556     66.038   4.360  1.02128E+00  9.81604E-01  3.96753E-02
    9060.891     67.373   4.400  1.02332E+00  9.81461E-01  4.18624E-02
    9062.238     68.720   4.440  1.02562E+00  9.81363E-01  4.42536E-02
    9063.597     70.079   4.480  1.02777E+00  9.81310E-01  4.64610E-02
    9064.969     71.451   4.520  1.02945E+00  9.81301E-01  4.81439E-02
    9066.353     72.835   4.560  1.03033E+00  9.81356E-01  4.89753E-02
    9067.749     74.231   4.600  1.03005E+00  9.81432E-01  4.86210E-02
    9069.157     75.639   4.640  1.02830E+00  9.81571E-01  4.67308E-02
    9070.577     77.059   4.680  1.02477E+00  9.81752E-01  4.30202E-02
    9072.010     78.492   4.720  1.01930E+00  9.81973E-01  3.73279E-02
    9073.455     79.937   4.760  1.01186E+00  9.82232E-01  2.96288E-02
    9074.912     81.394   4.800  1.00268E+00  9.82526E-01  2.01550E-02
    9076.381     82.863   4.840  9.92245E-01  9.82834E-01  9.41071E-03
    9077.862     84.344   4.880  9.81289E-01  9.83174E-01 -1.88535E-03
    9079.356     85.838   4.920  9.70639E-01  9.83547E-01 -1.29088E-02
    9080.861     87.343   4.960  9.60987E-01  9.83931E-01 -2.29439E-02
    9082.379     88.861   5.000  9.52880E-01  9.84343E-01 -3.14635E-02
    9083.909     90.391   5.040  9.46571E-01  9.84763E-01 -3.81920E-02
    9085.451     91.933   5.080  9.42097E-01  9.85208E-01 -4.31114E-02
    9087.006     93.488   5.120  9.39309E-01  9.85634E-01 -4.63254E-02
    9088.573     95.055   5.160  9.38045E-01  9.86080E-01 -4.80354E-02
    9090.151     96.633   5.200  9.38083E-01  9.86506E-01 -4.84224E-02
    9091.743     98.225   5.240  9.39242E-01  9.86951E-01 -4.77087E-02
    9093.346     99.828   5.280  9.41209E-01  9.87370E-01 -4.61604E-02
    9094.961    101.443   5.320  9.43738E-01  9.87785E-01 -4.40464E-02
    9096.589    103.071   5.360  9.46605E-01  9.88195E-01 -4.15900E-02
    9098.229    104.711   5.400  9.49671E-01  9.88597E-01 -3.89264E-02
    9099.881    106.363   5.440  9.52858E-01  9.88968E-01 -3.61102E-02
    9101.545    108.027   5.480  9.56187E-01  9.89306E-01 -3.31189E-02
    9103.221    109.703   5.520  9.59707E-01  9.89631E-01 -2.99240E-02
    9104.910    111.392   5.560  9.63324E-01  9.89921E-01 -2.65976E-02
    9106.611    113.093   5.600  9.66836E-01  9.90176E-01 -2.33403E-02
    9108.324    114.806   5.640  9.70056E-01  9.90416E-01 -2.03592E-02
    9110.049    116.531   5.680  9.72876E-01  9.90596E-01 -1.77201E-02
    9111.786    118.268   5.720  9.75445E-01  9.90761E-01 -1.53158E-02
    9113.536    120.018   5.760  9.77971E-01  9.90888E-01 -1.29169E-02
    9115.297    121.779   5.800  9.80711E-01  9.90976E-01 -1.02647E-02
    9117.071    123.553   5.840  9.83860E-01  9.91024E-01 -7.16399E-03
    9118.857    125.339   5.880  9.87461E-01  9.91033E-01 -3.57165E-03
    9120.656    127.138   5.920  9.91351E-01  9.90999E-01  3.52525E-04
    9122.466    128.948   5.960  9.95158E-01  9.90895E-01  4.26321E-03
    9124.289    130.771   6.000  9.98534E-01  9.90752E-01  7.78253E-03
