# # comment:                                                     FEFF 9.9.1  
# # Source:
# # Structure
# # Reduced
# # space
# # abc:
# # angles:114.552313
# # sites:
# # POT  SCF 100  7.0000   0, screened core-hole, AFOLP (folp(0)= 1.150)
# # Abs   Z=29 Rmt= 1.271 Rnm= 1.341 K  shell
# # Pot 1 Z=67 Rmt= 1.582 Rnm= 1.666
# # Pot 2 Z=29 Rmt= 1.271 Rnm= 1.342
# # Pot 3 Z=14 Rmt= 1.009 Rnm= 1.218
# # Pot 4 Z= 8 Rmt= 0.941 Rnm= 1.065
# # Gam_ch=1.729E+00 H-L exch Vi= 0.000E+00 Vr= 0.000E+00
# # Mu=-7.069E+00eV kf=2.344E+00 Vint=-1.814E+01eV Rs_int= 1.547
# FMS rfms= 9.0000
# # PATH  Rmax=-1.000,  Keep_limit= 0.00, Heap_limit 0.00  Pwcrit= 2.50%
#  S02=0.950  Temp=   0.00  Debye_temp=   0.00  Global_sig2= 0.00000
#  Energy zero shift, vr, vi    0.00000E+00   0.00000E+00
#  Curved wave amplitude ratio filter   4.000%
#     file         sig2 tot  cw amp ratio   deg  nlegs   reff  inp sig2
#     0/   0 paths used
#  xsedge+ 50, used to normalize mu           2.4937E-04
#  -----------------------------------------------------------------------
#  omega    e    k    mu    mu0     chi     @#
    8983.603    -10.879  -1.000  4.61142E-02  5.24697E-02 -6.35551E-03
    8983.901    -10.581  -0.960  4.90599E-02  5.62800E-02 -7.22013E-03
    8984.188    -10.294  -0.920  5.22844E-02  6.05168E-02 -8.23235E-03
    8984.462    -10.020  -0.880  5.58219E-02  6.52433E-02 -9.42143E-03
    8984.724     -9.758  -0.840  5.97106E-02  7.05334E-02 -1.08229E-02
    8984.974     -9.508  -0.800  6.39932E-02  7.64727E-02 -1.24795E-02
    8985.212     -9.270  -0.760  6.87169E-02  8.31593E-02 -1.44424E-02
    8985.437     -9.044  -0.720  7.39328E-02  9.07046E-02 -1.67718E-02
    8985.651     -8.831  -0.680  7.96944E-02  9.92310E-02 -1.95366E-02
    8985.852     -8.630  -0.640  8.60555E-02  1.08868E-01 -2.28127E-02
    8986.041     -8.441  -0.600  9.30656E-02  1.19744E-01 -2.66779E-02
    8986.218     -8.264  -0.560  1.00763E-01  1.31966E-01 -3.12028E-02
    8986.382     -8.099  -0.520  1.09166E-01  1.45601E-01 -3.64351E-02
    8986.535     -7.947  -0.480  1.18256E-01  1.60634E-01 -4.23780E-02
    8986.675     -7.807  -0.440  1.27969E-01  1.76934E-01 -4.89650E-02
    8986.803     -7.679  -0.400  1.38175E-01  1.94215E-01 -5.60396E-02
    8986.919     -7.563  -0.360  1.48676E-01  2.12028E-01 -6.33512E-02
    8987.022     -7.459  -0.320  1.59209E-01  2.29789E-01 -7.05799E-02
    8987.114     -7.368  -0.280  1.69465E-01  2.46852E-01 -7.73872E-02
    8987.193     -7.289  -0.240  1.79117E-01  2.62595E-01 -8.34784E-02
    8987.260     -7.222  -0.200  1.87851E-01  2.76500E-01 -8.86489E-02
    8987.315     -7.167  -0.160  1.95390E-01  2.88190E-01 -9.27999E-02
    8987.358     -7.124  -0.120  2.01504E-01  2.97425E-01 -9.59211E-02
    8987.388     -7.094  -0.080  2.06017E-01  3.04074E-01 -9.80566E-02
    8987.413     -7.069   0.000  2.09762E-01  3.09413E-01 -9.96508E-02
    8987.467     -7.014   0.120  2.18147E-01  3.21459E-01 -1.03311E-01
    8987.510     -6.972   0.160  2.24788E-01  3.30787E-01 -1.05998E-01
    8987.565     -6.917   0.200  2.33576E-01  3.42718E-01 -1.09142E-01
    8987.632     -6.850   0.240  2.44589E-01  3.57020E-01 -1.12430E-01
    8987.711     -6.771   0.280  2.58026E-01  3.73427E-01 -1.15401E-01
    8987.803     -6.679   0.320  2.73957E-01  3.91482E-01 -1.17524E-01
    8987.906     -6.575   0.360  2.92447E-01  4.10641E-01 -1.18194E-01
    8988.022     -6.460   0.400  3.13454E-01  4.30331E-01 -1.16877E-01
    8988.150     -6.332   0.440  3.36781E-01  4.50005E-01 -1.13225E-01
    8988.290     -6.191   0.480  3.62224E-01  4.69261E-01 -1.07037E-01
    8988.443     -6.039   0.520  3.89533E-01  4.87844E-01 -9.83110E-02
    8988.607     -5.874   0.560  4.18451E-01  5.05635E-01 -8.71840E-02
    8988.784     -5.698   0.600  4.48580E-01  5.22608E-01 -7.40280E-02
    8988.973     -5.509   0.640  4.79142E-01  5.38825E-01 -5.96836E-02
    8989.174     -5.307   0.680  5.08663E-01  5.54364E-01 -4.57006E-02
    8989.388     -5.094   0.720  5.34799E-01  5.69339E-01 -3.45400E-02
    8989.613     -4.869   0.760  5.54836E-01  5.83866E-01 -2.90304E-02
    8989.851     -4.631   0.800  5.67484E-01  5.98008E-01 -3.05239E-02
    8990.101     -4.381   0.840  5.74162E-01  6.11876E-01 -3.77149E-02
    8990.363     -4.119   0.880  5.76910E-01  6.25510E-01 -4.85998E-02
    8990.637     -3.844   0.920  5.75850E-01  6.38995E-01 -6.31445E-02
    8990.924     -3.558   0.960  5.69780E-01  6.52344E-01 -8.25640E-02
    8991.223     -3.259   1.000  5.59265E-01  6.65599E-01 -1.06334E-01
    8991.533     -2.948   1.040  5.47954E-01  6.78773E-01 -1.30820E-01
    8991.856     -2.625   1.080  5.40494E-01  6.91873E-01 -1.51379E-01
    8992.192     -2.290   1.120  5.39384E-01  7.04897E-01 -1.65514E-01
    8992.539     -1.943   1.160  5.44395E-01  7.17879E-01 -1.73484E-01
    8992.899     -1.583   1.200  5.53488E-01  7.30787E-01 -1.77298E-01
    8993.271     -1.211   1.240  5.64709E-01  7.43585E-01 -1.78876E-01
    8993.655     -0.827   1.280  5.78284E-01  7.56318E-01 -1.78034E-01
    8994.051     -0.431   1.320  5.96054E-01  7.68922E-01 -1.72868E-01
    8994.459     -0.022   1.360  6.20569E-01  7.81374E-01 -1.60805E-01
    8994.880      0.398   1.400  6.56437E-01  7.93692E-01 -1.37255E-01
    8995.313      0.831   1.440  7.09097E-01  8.05848E-01 -9.67508E-02
    8995.758      1.276   1.480  7.77205E-01  8.17795E-01 -4.05903E-02
    8996.215      1.733   1.520  8.54152E-01  8.29505E-01  2.46469E-02
    8996.685      2.203   1.560  9.32311E-01  8.40992E-01  9.13188E-02
    8997.166      2.684   1.600  9.87316E-01  8.52227E-01  1.35089E-01
    8997.660      3.178   1.640  9.97678E-01  8.63161E-01  1.34518E-01
    8998.166      3.684   1.680  9.79361E-01  8.73807E-01  1.05554E-01
    8998.684      4.202   1.720  9.63326E-01  8.84116E-01  7.92102E-02
    8999.214      4.733   1.760  9.70948E-01  8.94101E-01  7.68462E-02
    8999.757      5.275   1.800  1.01057E+00  9.03717E-01  1.06856E-01
    9000.312      5.830   1.840  1.07674E+00  9.12956E-01  1.63782E-01
    9000.879      6.397   1.880  1.14973E+00  9.21832E-01  2.27897E-01
    9001.458      6.976   1.920  1.20435E+00  9.30302E-01  2.74049E-01
    9002.049      7.567   1.960  1.23109E+00  9.38362E-01  2.92731E-01
    9002.652      8.171   2.000  1.24082E+00  9.46029E-01  2.94789E-01
    9003.268      8.786   2.040  1.24470E+00  9.53259E-01  2.91441E-01
    9003.896      9.414   2.080  1.24297E+00  9.60095E-01  2.82877E-01
    9004.536     10.054   2.120  1.22777E+00  9.66492E-01  2.61275E-01
    9005.188     10.707   2.160  1.19911E+00  9.72471E-01  2.26642E-01
    9005.853     11.371   2.200  1.16695E+00  9.78016E-01  1.88937E-01
    9006.530     12.048   2.240  1.14103E+00  9.83168E-01  1.57865E-01
    9007.218     12.737   2.280  1.13196E+00  9.87889E-01  1.44073E-01
    9007.919     13.438   2.320  1.14289E+00  9.92223E-01  1.50667E-01
    9008.633     14.151   2.360  1.16483E+00  9.96134E-01  1.68692E-01
    9009.358     14.876   2.400  1.18412E+00  9.99688E-01  1.84432E-01
    9010.096     15.614   2.440  1.19125E+00  1.00285E+00  1.88401E-01
    9010.845     16.364   2.480  1.18052E+00  1.00564E+00  1.74875E-01
    9011.607     17.126   2.520  1.15237E+00  1.00808E+00  1.44293E-01
    9012.382     17.900   2.560  1.11085E+00  1.01018E+00  1.00671E-01
    9013.168     18.686   2.600  1.05962E+00  1.01195E+00  4.76678E-02
    9013.967     19.485   2.640  1.00966E+00  1.01343E+00 -3.77284E-03
    9014.777     20.296   2.680  9.73740E-01  1.01460E+00 -4.08569E-02
    9015.600     21.119   2.720  9.52936E-01  1.01548E+00 -6.25438E-02
    9016.435     21.954   2.760  9.44515E-01  1.01611E+00 -7.15945E-02
    9017.283     22.801   2.800  9.36054E-01  1.01647E+00 -8.04165E-02
    9018.142     23.661   2.840  9.25062E-01  1.01661E+00 -9.15505E-02
    9019.014     24.532   2.880  9.13362E-01  1.01655E+00 -1.03185E-01
    9019.898     25.416   2.920  9.02675E-01  1.01628E+00 -1.13602E-01
    9020.794     26.312   2.960  8.93501E-01  1.01581E+00 -1.22311E-01
    9021.702     27.221   3.000  8.85476E-01  1.01518E+00 -1.29706E-01
    9022.623     28.141   3.040  8.78115E-01  1.01439E+00 -1.36277E-01
    9023.556     29.074   3.080  8.71497E-01  1.01347E+00 -1.41975E-01
    9024.500     30.019   3.120  8.66073E-01  1.01243E+00 -1.46354E-01
    9025.458     30.976   3.160  8.62078E-01  1.01127E+00 -1.49189E-01
    9026.427     31.945   3.200  8.59526E-01  1.01002E+00 -1.50492E-01
    9027.408     32.926   3.240  8.58505E-01  1.00868E+00 -1.50179E-01
    9028.402     33.920   3.280  8.59512E-01  1.00727E+00 -1.47762E-01
    9029.408     34.926   3.320  8.63111E-01  1.00581E+00 -1.42704E-01
    9030.426     35.944   3.360  8.69972E-01  1.00429E+00 -1.34319E-01
    9031.456     36.974   3.400  8.80735E-01  1.00275E+00 -1.22013E-01
    9032.498     38.017   3.440  8.95042E-01  1.00119E+00 -1.06151E-01
    9033.553     39.071   3.480  9.11844E-01  9.99611E-01 -8.77678E-02
    9034.620     40.138   3.520  9.29888E-01  9.98024E-01 -6.81366E-02
    9035.699     41.217   3.560  9.47862E-01  9.96437E-01 -4.85747E-02
    9036.790     42.308   3.600  9.64736E-01  9.94855E-01 -3.01194E-02
    9037.893     43.412   3.640  9.80068E-01  9.93305E-01 -1.32367E-02
    9039.009     44.527   3.680  9.93787E-01  9.91788E-01  1.99844E-03
    9040.137     45.655   3.720  1.00611E+00  9.90310E-01  1.58047E-02
    9041.277     46.795   3.760  1.01750E+00  9.88870E-01  2.86278E-02
    9042.429     47.947   3.800  1.02834E+00  9.87473E-01  4.08715E-02
    9043.593     49.111   3.840  1.03862E+00  9.86121E-01  5.24956E-02
    9044.770     50.288   3.880  1.04801E+00  9.84838E-01  6.31763E-02
    9045.958     51.477   3.920  1.05606E+00  9.83626E-01  7.24328E-02
    9047.159     52.677   3.960  1.06220E+00  9.82465E-01  7.97326E-02
    9048.372     53.891   4.000  1.06603E+00  9.81376E-01  8.46530E-02
    9049.598     55.116   4.040  1.06757E+00  9.80341E-01  8.72316E-02
    9050.835     56.353   4.080  1.06722E+00  9.79404E-01  8.78132E-02
    9052.085     57.603   4.120  1.06534E+00  9.78522E-01  8.68177E-02
    9053.347     58.865   4.160  1.06237E+00  9.77718E-01  8.46501E-02
    9054.621     60.139   4.200  1.05846E+00  9.77014E-01  8.14417E-02
    9055.907     61.425   4.240  1.05343E+00  9.76368E-01  7.70656E-02
    9057.205     62.724   4.280  1.04718E+00  9.75799E-01  7.13833E-02
    9058.516     64.034   4.320  1.03978E+00  9.75311E-01  6.44732E-02
    9059.839     65.357   4.360  1.03150E+00  9.74924E-01  5.65753E-02
    9061.174     66.692   4.400  1.02268E+00  9.74592E-01  4.80848E-02
    9062.521     68.039   4.440  1.01381E+00  9.74338E-01  3.94735E-02
    9063.880     69.399   4.480  1.00534E+00  9.74162E-01  3.11756E-02
    9065.252     70.770   4.520  9.97650E-01  9.74061E-01  2.35888E-02
    9066.636     72.154   4.560  9.91025E-01  9.74015E-01  1.70101E-02
    9068.032     73.550   4.600  9.85597E-01  9.74064E-01  1.15326E-02
    9069.440     74.958   4.640  9.81273E-01  9.74166E-01  7.10770E-03
    9070.860     76.379   4.680  9.78016E-01  9.74318E-01  3.69816E-03
    9072.293     77.811   4.720  9.75824E-01  9.74562E-01  1.26170E-03
    9073.738     79.256   4.760  9.74509E-01  9.74833E-01 -3.23563E-04
    9075.195     80.713   4.800  9.73809E-01  9.75171E-01 -1.36236E-03
    9076.664     82.182   4.840  9.73205E-01  9.75575E-01 -2.37044E-03
    9078.145     83.663   4.880  9.72039E-01  9.75999E-01 -3.96010E-03
    9079.639     85.157   4.920  9.69818E-01  9.76464E-01 -6.64626E-03
    9081.144     86.662   4.960  9.66303E-01  9.76990E-01 -1.06866E-02
    9082.662     88.180   5.000  9.61573E-01  9.77531E-01 -1.59580E-02
    9084.192     89.710   5.040  9.56121E-01  9.78107E-01 -2.19862E-02
    9085.734     91.253   5.080  9.50639E-01  9.78717E-01 -2.80781E-02
    9087.289     92.807   5.120  9.45816E-01  9.79336E-01 -3.35193E-02
    9088.856     94.374   5.160  9.42107E-01  9.79983E-01 -3.78757E-02
    9090.434     95.953   5.200  9.39562E-01  9.80636E-01 -4.10735E-02
    9092.026     97.544   5.240  9.38005E-01  9.81290E-01 -4.32844E-02
    9093.629     99.147   5.280  9.37290E-01  9.81943E-01 -4.46529E-02
    9095.244    100.762   5.320  9.37423E-01  9.82596E-01 -4.51731E-02
    9096.872    102.390   5.360  9.38485E-01  9.83247E-01 -4.47618E-02
    9098.512    104.030   5.400  9.40495E-01  9.83891E-01 -4.33952E-02
    9100.164    105.682   5.440  9.43343E-01  9.84504E-01 -4.11610E-02
    9101.828    107.346   5.480  9.46897E-01  9.85086E-01 -3.81888E-02
    9103.504    109.023   5.520  9.51106E-01  9.85679E-01 -3.45730E-02
    9105.193    110.711   5.560  9.55801E-01  9.86216E-01 -3.04152E-02
    9106.894    112.412   5.600  9.60806E-01  9.86738E-01 -2.59318E-02
    9108.607    114.125   5.640  9.65731E-01  9.87199E-01 -2.14677E-02
    9110.332    115.850   5.680  9.70248E-01  9.87642E-01 -1.73940E-02
    9112.069    117.587   5.720  9.74012E-01  9.88045E-01 -1.40333E-02
    9113.819    119.337   5.760  9.76783E-01  9.88384E-01 -1.16010E-02
    9115.580    121.099   5.800  9.78617E-01  9.88702E-01 -1.00847E-02
    9117.354    122.873   5.840  9.79834E-01  9.88953E-01 -9.11900E-03
    9119.140    124.659   5.880  9.81136E-01  9.89156E-01 -8.02001E-03
    9120.939    126.457   5.920  9.83227E-01  9.89289E-01 -6.06168E-03
    9122.749    128.268   5.960  9.86636E-01  9.89391E-01 -2.75408E-03
    9124.572    130.090   6.000  9.91464E-01  9.89360E-01  2.10346E-03
