# # comment:                                                     FEFF 9.9.1  
# # Source:
# # Structure
# # Reduced
# # space
# # abc:
# # angles:
# # sites:
# # POT  SCF 100  7.0000   0, screened core-hole, AFOLP (folp(0)= 1.150)
# # Abs   Z=29 Rmt= 1.325 Rnm= 1.399 K  shell
# # Pot 1 Z=20 Rmt= 1.641 Rnm= 1.726
# # Pot 2 Z=29 Rmt= 1.261 Rnm= 1.374
# # Pot 3 Z=42 Rmt= 1.157 Rnm= 1.358
# # Pot 4 Z= 8 Rmt= 0.941 Rnm= 1.082
# # Gam_ch=1.729E+00 H-L exch Vi= 0.000E+00 Vr= 0.000E+00
# # Mu=-5.954E+00eV kf=2.237E+00 Vint=-1.578E+01eV Rs_int= 1.621
# FMS rfms= 9.0000
# # PATH  Rmax=-1.000,  Keep_limit= 0.00, Heap_limit 0.00  Pwcrit= 2.50%
#  S02=0.950  Temp=   0.00  Debye_temp=   0.00  Global_sig2= 0.00000
#  Energy zero shift, vr, vi    0.00000E+00   0.00000E+00
#  Curved wave amplitude ratio filter   4.000%
#     file         sig2 tot  cw amp ratio   deg  nlegs   reff  inp sig2
#     0/   0 paths used
#  xsedge+ 50, used to normalize mu           2.4588E-04
#  -----------------------------------------------------------------------
#  omega    e    k    mu    mu0     chi     @#
    8983.676     -9.764  -1.000  4.96859E-02  5.72925E-02 -7.60662E-03
    8983.975     -9.465  -0.960  5.29458E-02  6.15575E-02 -8.61172E-03
    8984.261     -9.179  -0.920  5.65352E-02  6.63057E-02 -9.77044E-03
    8984.536     -8.904  -0.880  6.05003E-02  7.16090E-02 -1.11086E-02
    8984.798     -8.642  -0.840  6.48946E-02  7.75512E-02 -1.26566E-02
    8985.048     -8.392  -0.800  6.97798E-02  8.42295E-02 -1.44497E-02
    8985.285     -8.155  -0.760  7.52265E-02  9.17556E-02 -1.65291E-02
    8985.511     -7.929  -0.720  8.13144E-02  1.00256E-01 -1.89413E-02
    8985.724     -7.716  -0.680  8.81308E-02  1.09869E-01 -2.17382E-02
    8985.925     -7.515  -0.640  9.57674E-02  1.20743E-01 -2.49752E-02
    8986.114     -7.326  -0.600  1.04313E-01  1.33021E-01 -2.87078E-02
    8986.291     -7.149  -0.560  1.13844E-01  1.46828E-01 -3.29848E-02
    8986.456     -6.984  -0.520  1.24400E-01  1.62239E-01 -3.78387E-02
    8986.608     -6.832  -0.480  1.35966E-01  1.79237E-01 -4.32713E-02
    8986.748     -6.692  -0.440  1.48436E-01  1.97673E-01 -4.92377E-02
    8986.876     -6.564  -0.400  1.61593E-01  2.17225E-01 -5.56320E-02
    8986.992     -6.448  -0.360  1.75102E-01  2.37383E-01 -6.22818E-02
    8987.096     -6.344  -0.320  1.88529E-01  2.57488E-01 -6.89587E-02
    8987.187     -6.253  -0.280  2.01399E-01  2.76805E-01 -7.54054E-02
    8987.267     -6.173  -0.240  2.13259E-01  2.94631E-01 -8.13714E-02
    8987.334     -6.106  -0.200  2.23732E-01  3.10378E-01 -8.66460E-02
    8987.388     -6.052  -0.160  2.32542E-01  3.23618E-01 -9.10757E-02
    8987.431     -6.009  -0.120  2.39513E-01  3.34078E-01 -9.45648E-02
    8987.462     -5.978  -0.080  2.44545E-01  3.41610E-01 -9.70657E-02
    8987.486     -5.954   0.000  2.48600E-01  3.47659E-01 -9.90587E-02
    8987.541     -5.899   0.120  2.57658E-01  3.61297E-01 -1.03639E-01
    8987.584     -5.856   0.160  2.64711E-01  3.71874E-01 -1.07163E-01
    8987.638     -5.802   0.200  2.73783E-01  3.85392E-01 -1.11608E-01
    8987.705     -5.735   0.240  2.84750E-01  4.01594E-01 -1.16844E-01
    8987.785     -5.655   0.280  2.97560E-01  4.20202E-01 -1.22642E-01
    8987.876     -5.564   0.320  3.11976E-01  4.40660E-01 -1.28684E-01
    8987.980     -5.460   0.360  3.27845E-01  4.62377E-01 -1.34532E-01
    8988.096     -5.344   0.400  3.44980E-01  4.84703E-01 -1.39723E-01
    8988.224     -5.216   0.440  3.63157E-01  5.07006E-01 -1.43849E-01
    8988.364     -5.076   0.480  3.82182E-01  5.28847E-01 -1.46665E-01
    8988.516     -4.924   0.520  4.01618E-01  5.49893E-01 -1.48276E-01
    8988.681     -4.759   0.560  4.20867E-01  5.70032E-01 -1.49165E-01
    8988.858     -4.582   0.600  4.39157E-01  5.89207E-01 -1.50050E-01
    8989.047     -4.393   0.640  4.55842E-01  6.07485E-01 -1.51643E-01
    8989.248     -4.192   0.680  4.70662E-01  6.24972E-01 -1.54310E-01
    8989.461     -3.979   0.720  4.83881E-01  6.41729E-01 -1.57849E-01
    8989.687     -3.753   0.760  4.96496E-01  6.57900E-01 -1.61404E-01
    8989.924     -3.516   0.800  5.09756E-01  6.73553E-01 -1.63797E-01
    8990.174     -3.266   0.840  5.24414E-01  6.88767E-01 -1.64353E-01
    8990.436     -3.004   0.880  5.39854E-01  7.03645E-01 -1.63791E-01
    8990.711     -2.729   0.920  5.53827E-01  7.18193E-01 -1.64367E-01
    8990.997     -2.443   0.960  5.63377E-01  7.32443E-01 -1.69066E-01
    8991.296     -2.144   1.000  5.66995E-01  7.46438E-01 -1.79444E-01
    8991.607     -1.833   1.040  5.67317E-01  7.60171E-01 -1.92853E-01
    8991.930     -1.510   1.080  5.70929E-01  7.73664E-01 -2.02735E-01
    8992.265     -1.175   1.120  5.84209E-01  7.86894E-01 -2.02684E-01
    8992.613     -0.827   1.160  6.10312E-01  7.99873E-01 -1.89561E-01
    8992.972     -0.468   1.200  6.47894E-01  8.12567E-01 -1.64673E-01
    8993.344     -0.096   1.240  6.91509E-01  8.24961E-01 -1.33452E-01
    8993.728      0.288   1.280  7.34424E-01  8.37054E-01 -1.02630E-01
    8994.125      0.684   1.320  7.72524E-01  8.48826E-01 -7.63027E-02
    8994.533      1.093   1.360  8.07510E-01  8.60254E-01 -5.27443E-02
    8994.954      1.514   1.400  8.44937E-01  8.71294E-01 -2.63574E-02
    8995.386      1.946   1.440  8.91227E-01  8.81983E-01  9.24381E-03
    8995.831      2.391   1.480  9.51325E-01  8.92257E-01  5.90683E-02
    8996.289      2.849   1.520  1.02261E+00  9.02112E-01  1.20493E-01
    8996.758      3.318   1.560  1.09695E+00  9.11546E-01  1.85405E-01
    8997.240      3.800   1.600  1.17014E+00  9.20556E-01  2.49588E-01
    8997.733      4.293   1.640  1.23710E+00  9.29097E-01  3.08004E-01
    8998.239      4.799   1.680  1.28260E+00  9.37192E-01  3.45410E-01
    8998.757      5.317   1.720  1.29192E+00  9.44840E-01  3.47082E-01
    8999.288      5.848   1.760  1.27251E+00  9.52043E-01  3.20471E-01
    8999.830      6.390   1.800  1.24804E+00  9.58779E-01  2.89262E-01
    9000.385      6.945   1.840  1.23259E+00  9.65053E-01  2.67532E-01
    9000.952      7.512   1.880  1.22797E+00  9.70890E-01  2.57077E-01
    9001.531      8.091   1.920  1.23244E+00  9.76271E-01  2.56166E-01
    9002.122      8.682   1.960  1.23935E+00  9.81224E-01  2.58123E-01
    9002.726      9.286   2.000  1.23841E+00  9.85756E-01  2.52654E-01
    9003.342      9.902   2.040  1.22708E+00  9.89892E-01  2.37192E-01
    9003.970     10.529   2.080  1.21176E+00  9.93619E-01  2.18138E-01
    9004.610     11.170   2.120  1.19433E+00  9.96965E-01  1.97361E-01
    9005.262     11.822   2.160  1.17079E+00  9.99940E-01  1.70846E-01
    9005.926     12.486   2.200  1.14178E+00  1.00257E+00  1.39210E-01
    9006.603     13.163   2.240  1.11628E+00  1.00485E+00  1.11432E-01
    9007.292     13.852   2.280  1.10269E+00  1.00684E+00  9.58509E-02
    9007.993     14.553   2.320  1.10025E+00  1.00852E+00  9.17369E-02
    9008.706     15.266   2.360  1.09965E+00  1.00990E+00  8.97512E-02
    9009.432     15.991   2.400  1.08936E+00  1.01103E+00  7.83300E-02
    9010.169     16.729   2.440  1.06300E+00  1.01192E+00  5.10806E-02
    9010.919     17.479   2.480  1.02105E+00  1.01258E+00  8.46707E-03
    9011.681     18.241   2.520  9.70698E-01  1.01304E+00 -4.23418E-02
    9012.455     19.015   2.560  9.22683E-01  1.01330E+00 -9.06123E-02
    9013.241     19.801   2.600  8.84176E-01  1.01338E+00 -1.29203E-01
    9014.040     20.600   2.640  8.60998E-01  1.01330E+00 -1.52300E-01
    9014.851     21.411   2.680  8.55686E-01  1.01306E+00 -1.57376E-01
    9015.674     22.234   2.720  8.59574E-01  1.01272E+00 -1.53147E-01
    9016.509     23.069   2.760  8.66718E-01  1.01226E+00 -1.45543E-01
    9017.356     23.916   2.800  8.74234E-01  1.01171E+00 -1.37477E-01
    9018.216     24.776   2.840  8.81432E-01  1.01107E+00 -1.29643E-01
    9019.088     25.647   2.880  8.87874E-01  1.01036E+00 -1.22485E-01
    9019.971     26.531   2.920  8.93294E-01  1.00957E+00 -1.16276E-01
    9020.868     27.428   2.960  8.97701E-01  1.00875E+00 -1.11054E-01
    9021.776     28.336   3.000  9.01326E-01  1.00788E+00 -1.06552E-01
    9022.696     29.256   3.040  9.04912E-01  1.00699E+00 -1.02077E-01
    9023.629     30.189   3.080  9.09401E-01  1.00609E+00 -9.66864E-02
    9024.574     31.134   3.120  9.15254E-01  1.00516E+00 -8.99075E-02
    9025.531     32.091   3.160  9.22552E-01  1.00426E+00 -8.17033E-02
    9026.500     33.060   3.200  9.31191E-01  1.00335E+00 -7.21594E-02
    9027.482     34.042   3.240  9.41046E-01  1.00245E+00 -6.14053E-02
    9028.475     35.035   3.280  9.51788E-01  1.00158E+00 -4.97931E-02
    9029.481     36.041   3.320  9.62961E-01  1.00072E+00 -3.77592E-02
    9030.499     37.059   3.360  9.74134E-01  9.99896E-01 -2.57625E-02
    9031.529     38.089   3.400  9.84875E-01  9.99110E-01 -1.42356E-02
    9032.572     39.132   3.440  9.94985E-01  9.98384E-01 -3.39924E-03
    9033.626     40.186   3.480  1.00437E+00  9.97678E-01  6.69462E-03
    9034.693     41.253   3.520  1.01295E+00  9.97014E-01  1.59371E-02
    9035.772     42.332   3.560  1.02061E+00  9.96417E-01  2.41915E-02
    9036.863     43.423   3.600  1.02715E+00  9.95865E-01  3.12890E-02
    9037.967     44.527   3.640  1.03253E+00  9.95380E-01  3.71462E-02
    9039.082     45.642   3.680  1.03678E+00  9.94943E-01  4.18377E-02
    9040.210     46.770   3.720  1.04021E+00  9.94552E-01  4.56617E-02
    9041.350     47.910   3.760  1.04314E+00  9.94229E-01  4.89161E-02
    9042.502     49.062   3.800  1.04560E+00  9.93953E-01  5.16431E-02
    9043.666     50.226   3.840  1.04746E+00  9.93724E-01  5.37351E-02
    9044.843     51.403   3.880  1.04856E+00  9.93564E-01  5.49934E-02
    9046.032     52.592   3.920  1.04872E+00  9.93472E-01  5.52440E-02
    9047.233     53.793   3.960  1.04782E+00  9.93407E-01  5.44176E-02
    9048.446     55.006   4.000  1.04613E+00  9.93407E-01  5.27219E-02
    9049.671     56.231   4.040  1.04390E+00  9.93474E-01  5.04219E-02
    9050.909     57.468   4.080  1.04134E+00  9.93565E-01  4.77722E-02
    9052.158     58.718   4.120  1.03867E+00  9.93720E-01  4.49508E-02
    9053.420     59.980   4.160  1.03598E+00  9.93918E-01  4.20591E-02
    9054.694     61.254   4.200  1.03321E+00  9.94157E-01  3.90571E-02
    9055.980     62.540   4.240  1.03024E+00  9.94434E-01  3.58047E-02
    9057.279     63.839   4.280  1.02685E+00  9.94750E-01  3.21017E-02
    9058.589     65.149   4.320  1.02289E+00  9.95104E-01  2.77857E-02
    9059.912     66.472   4.360  1.01839E+00  9.95471E-01  2.29176E-02
    9061.247     67.807   4.400  1.01378E+00  9.95894E-01  1.78879E-02
    9062.594     69.154   4.440  1.00959E+00  9.96328E-01  1.32615E-02
    9063.954     70.514   4.480  1.00625E+00  9.96770E-01  9.48251E-03
    9065.325     71.885   4.520  1.00390E+00  9.97241E-01  6.65959E-03
    9066.709     73.269   4.560  1.00221E+00  9.97718E-01  4.48996E-03
    9068.105     74.665   4.600  1.00062E+00  9.98221E-01  2.40052E-03
    9069.513     76.073   4.640  9.98489E-01  9.98704E-01 -2.15016E-04
    9070.934     77.494   4.680  9.95393E-01  9.99210E-01 -3.81766E-03
    9072.366     78.926   4.720  9.91157E-01  9.99718E-01 -8.56102E-03
    9073.811     80.371   4.760  9.85974E-01  1.00022E+00 -1.42480E-02
    9075.268     81.828   4.800  9.80241E-01  1.00070E+00 -2.04607E-02
    9076.737     83.297   4.840  9.74491E-01  1.00120E+00 -2.67066E-02
    9078.218     84.778   4.880  9.69217E-01  1.00166E+00 -3.24464E-02
    9079.712     86.272   4.920  9.64956E-01  1.00210E+00 -3.71405E-02
    9081.218     87.778   4.960  9.62251E-01  1.00252E+00 -4.02708E-02
    9082.736     89.296   5.000  9.61472E-01  1.00294E+00 -4.14660E-02
    9084.266     90.826   5.040  9.62632E-01  1.00332E+00 -4.06859E-02
    9085.808     92.368   5.080  9.65413E-01  1.00366E+00 -3.82494E-02
    9087.362     93.922   5.120  9.69221E-01  1.00399E+00 -3.47717E-02
    9088.929     95.489   5.160  9.73287E-01  1.00426E+00 -3.09754E-02
    9090.508     97.068   5.200  9.77053E-01  1.00452E+00 -2.74632E-02
    9092.099     98.659   5.240  9.80148E-01  1.00473E+00 -2.45847E-02
    9093.702    100.262   5.280  9.82503E-01  1.00491E+00 -2.24054E-02
    9095.318    101.878   5.320  9.84207E-01  1.00505E+00 -2.08381E-02
    9096.945    103.505   5.360  9.85407E-01  1.00516E+00 -1.97563E-02
    9098.585    105.145   5.400  9.86166E-01  1.00522E+00 -1.90530E-02
    9100.237    106.797   5.440  9.86624E-01  1.00523E+00 -1.86075E-02
    9101.901    108.461   5.480  9.86977E-01  1.00520E+00 -1.82245E-02
    9103.578    110.138   5.520  9.87600E-01  1.00513E+00 -1.75294E-02
    9105.266    111.826   5.560  9.89115E-01  1.00502E+00 -1.59020E-02
    9106.967    113.527   5.600  9.92330E-01  1.00486E+00 -1.25330E-02
    9108.680    115.240   5.640  9.97946E-01  1.00467E+00 -6.72225E-03
    9110.405    116.965   5.680  1.00613E+00  1.00443E+00  1.69683E-03
    9112.143    118.703   5.720  1.01626E+00  1.00416E+00  1.21039E-02
    9113.892    120.452   5.760  1.02706E+00  1.00384E+00  2.32152E-02
    9115.654    122.214   5.800  1.03693E+00  1.00349E+00  3.34455E-02
    9117.428    123.988   5.840  1.04440E+00  1.00310E+00  4.13023E-02
    9119.214    125.774   5.880  1.04841E+00  1.00267E+00  4.57414E-02
    9121.012    127.572   5.920  1.04862E+00  1.00221E+00  4.64015E-02
    9122.823    129.383   5.960  1.04532E+00  1.00175E+00  4.35703E-02
    9124.645    131.205   6.000  1.03901E+00  1.00123E+00  3.77726E-02
