# # comment:                                                     FEFF 9.9.1  
# # Source:
# # Structure
# # Reduced
# # space
# # abc:
# # angles:
# # sites:
# # POT  SCF 100  7.0000   0, screened core-hole, AFOLP (folp(0)= 1.150)
# # Abs   Z=29 Rmt= 1.177 Rnm= 1.339 K  shell
# # Pot 1 Z=19 Rmt= 1.946 Rnm= 2.005
# # Pot 2 Z=29 Rmt= 1.180 Rnm= 1.338
# # Pot 3 Z= 8 Rmt= 1.038 Rnm= 1.121
# # Gam_ch=1.729E+00 H-L exch Vi= 0.000E+00 Vr= 0.000E+00
# # Mu=-7.144E+00eV kf=1.908E+00 Vint=-1.475E+01eV Rs_int= 1.900
# FMS rfms= 9.0000
# # PATH  Rmax=-1.000,  Keep_limit= 0.00, Heap_limit 0.00  Pwcrit= 2.50%
#  S02=0.950  Temp=   0.00  Debye_temp=   0.00  Global_sig2= 0.00000
#  Energy zero shift, vr, vi    0.00000E+00   0.00000E+00
#  Curved wave amplitude ratio filter   4.000%
#     file         sig2 tot  cw amp ratio   deg  nlegs   reff  inp sig2
#     0/   0 paths used
#  xsedge+ 50, used to normalize mu           2.4177E-04
#  -----------------------------------------------------------------------
#  omega    e    k    mu    mu0     chi     @#
    8984.291    -10.954  -1.000  4.89868E-02  5.93402E-02 -1.03534E-02
    8984.590    -10.655  -0.960  5.23351E-02  6.37097E-02 -1.13746E-02
    8984.876    -10.368  -0.920  5.60550E-02  6.85649E-02 -1.25099E-02
    8985.151    -10.094  -0.880  6.02046E-02  7.39766E-02 -1.37721E-02
    8985.413     -9.832  -0.840  6.48519E-02  8.00275E-02 -1.51756E-02
    8985.663     -9.582  -0.800  7.00772E-02  8.68130E-02 -1.67358E-02
    8985.900     -9.344  -0.760  7.59733E-02  9.44426E-02 -1.84693E-02
    8986.126     -9.119  -0.720  8.26464E-02  1.03040E-01 -2.03935E-02
    8986.339     -8.905  -0.680  9.02149E-02  1.12741E-01 -2.25260E-02
    8986.540     -8.704  -0.640  9.88054E-02  1.23689E-01 -2.48833E-02
    8986.729     -8.515  -0.600  1.08544E-01  1.36024E-01 -2.74795E-02
    8986.906     -8.338  -0.560  1.19543E-01  1.49866E-01 -3.03234E-02
    8987.071     -8.174  -0.520  1.31872E-01  1.65286E-01 -3.34142E-02
    8987.223     -8.022  -0.480  1.45531E-01  1.82267E-01 -3.67364E-02
    8987.363     -7.881  -0.440  1.60406E-01  2.00660E-01 -4.02542E-02
    8987.491     -7.753  -0.400  1.76241E-01  2.20147E-01 -4.39067E-02
    8987.607     -7.637  -0.360  1.92621E-01  2.40229E-01 -4.76079E-02
    8987.711     -7.534  -0.320  2.09002E-01  2.60255E-01 -5.12522E-02
    8987.802     -7.442  -0.280  2.24776E-01  2.79503E-01 -5.47267E-02
    8987.882     -7.363  -0.240  2.39353E-01  2.97278E-01 -5.79248E-02
    8987.949     -7.296  -0.200  2.52239E-01  3.12995E-01 -6.07561E-02
    8988.003     -7.241  -0.160  2.63074E-01  3.26224E-01 -6.31496E-02
    8988.046     -7.199  -0.120  2.71636E-01  3.36688E-01 -6.50518E-02
    8988.077     -7.168  -0.080  2.77803E-01  3.44231E-01 -6.64271E-02
    8988.101     -7.144   0.000  2.82754E-01  3.50294E-01 -6.75394E-02
    8988.156     -7.089   0.120  2.93548E-01  3.63973E-01 -7.04254E-02
    8988.199     -7.046   0.160  3.01980E-01  3.74615E-01 -7.26344E-02
    8988.253     -6.991   0.200  3.12676E-01  3.88208E-01 -7.55325E-02
    8988.320     -6.924   0.240  3.25416E-01  4.04606E-01 -7.91896E-02
    8988.400     -6.845   0.280  3.39743E-01  4.23457E-01 -8.37135E-02
    8988.491     -6.754   0.320  3.54991E-01  4.44308E-01 -8.93171E-02
    8988.595     -6.650   0.360  3.70259E-01  4.66612E-01 -9.63529E-02
    8988.711     -6.534   0.400  3.84386E-01  4.89703E-01 -1.05317E-01
    8988.839     -6.406   0.440  3.96221E-01  5.13066E-01 -1.16845E-01
    8988.979     -6.266   0.480  4.04682E-01  5.36226E-01 -1.31544E-01
    8989.131     -6.113   0.520  4.09115E-01  5.58888E-01 -1.49773E-01
    8989.296     -5.949   0.560  4.09481E-01  5.80901E-01 -1.71420E-01
    8989.473     -5.772   0.600  4.06568E-01  6.02246E-01 -1.95677E-01
    8989.662     -5.583   0.640  4.01979E-01  6.22934E-01 -2.20955E-01
    8989.863     -5.382   0.680  3.97921E-01  6.43039E-01 -2.45118E-01
    8990.076     -5.169   0.720  3.96644E-01  6.62645E-01 -2.66001E-01
    8990.302     -4.943   0.760  3.99802E-01  6.81812E-01 -2.82010E-01
    8990.539     -4.705   0.800  4.08221E-01  7.00611E-01 -2.92389E-01
    8990.789     -4.455   0.840  4.22067E-01  7.19099E-01 -2.97032E-01
    8991.051     -4.193   0.880  4.41090E-01  7.37298E-01 -2.96208E-01
    8991.326     -3.919   0.920  4.64733E-01  7.55213E-01 -2.90480E-01
    8991.612     -3.632   0.960  4.92142E-01  7.72857E-01 -2.80715E-01
    8991.911     -3.334   1.000  5.22084E-01  7.90192E-01 -2.68108E-01
    8992.222     -3.023   1.040  5.53088E-01  8.07232E-01 -2.54143E-01
    8992.545     -2.700   1.080  5.84017E-01  8.23920E-01 -2.39903E-01
    8992.880     -2.364   1.120  6.15313E-01  8.40238E-01 -2.24925E-01
    8993.228     -2.017   1.160  6.47594E-01  8.56160E-01 -2.08566E-01
    8993.587     -1.657   1.200  6.79012E-01  8.71617E-01 -1.92605E-01
    8993.959     -1.285   1.240  7.07075E-01  8.86579E-01 -1.79504E-01
    8994.343     -0.901   1.280  7.32484E-01  9.01035E-01 -1.68551E-01
    8994.739     -0.505   1.320  7.57816E-01  9.14912E-01 -1.57096E-01
    8995.148     -0.097   1.360  7.82770E-01  9.28180E-01 -1.45410E-01
    8995.569      0.324   1.400  8.03558E-01  9.40849E-01 -1.37291E-01
    8996.001      0.757   1.440  8.17175E-01  9.52850E-01 -1.35675E-01
    8996.446      1.202   1.480  8.25420E-01  9.64175E-01 -1.38754E-01
    8996.904      1.659   1.520  8.34898E-01  9.74797E-01 -1.39899E-01
    8997.373      2.128   1.560  8.51254E-01  9.84734E-01 -1.33480E-01
    8997.855      2.610   1.600  8.74011E-01  9.93946E-01 -1.19935E-01
    8998.348      3.104   1.640  9.00189E-01  1.00245E+00 -1.02265E-01
    8998.854      3.610   1.680  9.28947E-01  1.01024E+00 -8.12930E-02
    8999.372      4.128   1.720  9.62797E-01  1.01733E+00 -5.45340E-02
    8999.903      4.658   1.760  1.00511E+00  1.02373E+00 -1.86242E-02
    9000.445      5.201   1.800  1.05956E+00  1.02947E+00  3.00831E-02
    9001.000      5.755   1.840  1.12490E+00  1.03453E+00  9.03746E-02
    9001.567      6.322   1.880  1.18739E+00  1.03897E+00  1.48422E-01
    9002.146      6.901   1.920  1.22707E+00  1.04280E+00  1.84268E-01
    9002.737      7.493   1.960  1.23812E+00  1.04602E+00  1.92097E-01
    9003.341      8.096   2.000  1.23442E+00  1.04871E+00  1.85707E-01
    9003.957      8.712   2.040  1.23304E+00  1.05087E+00  1.82170E-01
    9004.584      9.340   2.080  1.23883E+00  1.05252E+00  1.86315E-01
    9005.225      9.980   2.120  1.24516E+00  1.05372E+00  1.91433E-01
    9005.877     10.632   2.160  1.24375E+00  1.05448E+00  1.89263E-01
    9006.541     11.297   2.200  1.23314E+00  1.05485E+00  1.78292E-01
    9007.218     11.973   2.240  1.21847E+00  1.05484E+00  1.63633E-01
    9007.907     12.662   2.280  1.20187E+00  1.05447E+00  1.47397E-01
    9008.608     13.363   2.320  1.18240E+00  1.05382E+00  1.28582E-01
    9009.321     14.076   2.360  1.16562E+00  1.05288E+00  1.12739E-01
    9010.046     14.802   2.400  1.15282E+00  1.05169E+00  1.01127E-01
    9010.784     15.539   2.440  1.14141E+00  1.05029E+00  9.11266E-02
    9011.534     16.289   2.480  1.13053E+00  1.04868E+00  8.18577E-02
    9012.296     17.051   2.520  1.12034E+00  1.04689E+00  7.34460E-02
    9013.070     17.825   2.560  1.11132E+00  1.04498E+00  6.63455E-02
    9013.856     18.612   2.600  1.10343E+00  1.04293E+00  6.04978E-02
    9014.655     19.410   2.640  1.09642E+00  1.04077E+00  5.56532E-02
    9015.466     20.221   2.680  1.08912E+00  1.03855E+00  5.05666E-02
    9016.289     21.044   2.720  1.08060E+00  1.03625E+00  4.43429E-02
    9017.124     21.879   2.760  1.07037E+00  1.03391E+00  3.64578E-02
    9017.971     22.727   2.800  1.05821E+00  1.03156E+00  2.66547E-02
    9018.831     23.586   2.840  1.04451E+00  1.02920E+00  1.53058E-02
    9019.703     24.458   2.880  1.02997E+00  1.02682E+00  3.15443E-03
    9020.586     25.342   2.920  1.01529E+00  1.02449E+00 -9.19840E-03
    9021.483     26.238   2.960  1.00111E+00  1.02217E+00 -2.10577E-02
    9022.391     27.146   3.000  9.88253E-01  1.01989E+00 -3.16376E-02
    9023.311     28.067   3.040  9.77378E-01  1.01766E+00 -4.02779E-02
    9024.244     28.999   3.080  9.68852E-01  1.01549E+00 -4.66396E-02
    9025.189     29.944   3.120  9.62794E-01  1.01338E+00 -5.05866E-02
    9026.146     30.901   3.160  9.58990E-01  1.01137E+00 -5.23805E-02
    9027.115     31.871   3.200  9.56940E-01  1.00942E+00 -5.24830E-02
    9028.097     32.852   3.240  9.56236E-01  1.00758E+00 -5.13450E-02
    9029.090     33.846   3.280  9.56430E-01  1.00583E+00 -4.93974E-02
    9030.096     34.851   3.320  9.57109E-01  1.00419E+00 -4.70771E-02
    9031.114     35.870   3.360  9.57814E-01  1.00264E+00 -4.48234E-02
    9032.144     36.900   3.400  9.58271E-01  1.00120E+00 -4.29329E-02
    9033.187     37.942   3.440  9.58087E-01  9.99865E-01 -4.17780E-02
    9034.241     38.997   3.480  9.57141E-01  9.98666E-01 -4.15253E-02
    9035.308     40.064   3.520  9.55408E-01  9.97565E-01 -4.21566E-02
    9036.387     41.143   3.560  9.53085E-01  9.96583E-01 -4.34979E-02
    9037.478     42.234   3.600  9.50430E-01  9.95720E-01 -4.52902E-02
    9038.582     43.337   3.640  9.47724E-01  9.94954E-01 -4.72298E-02
    9039.697     44.453   3.680  9.45245E-01  9.94330E-01 -4.90849E-02
    9040.825     45.580   3.720  9.42983E-01  9.93805E-01 -5.08220E-02
    9041.965     46.720   3.760  9.40944E-01  9.93398E-01 -5.24541E-02
    9043.117     47.872   3.800  9.39145E-01  9.93110E-01 -5.39653E-02
    9044.281     49.037   3.840  9.37656E-01  9.92941E-01 -5.52849E-02
    9045.458     50.213   3.880  9.36563E-01  9.92867E-01 -5.63038E-02
    9046.647     51.402   3.920  9.36141E-01  9.92908E-01 -5.67671E-02
    9047.848     52.603   3.960  9.36744E-01  9.93066E-01 -5.63218E-02
    9049.061     53.816   4.000  9.38723E-01  9.93314E-01 -5.45911E-02
    9050.286     55.041   4.040  9.42452E-01  9.93673E-01 -5.12212E-02
    9051.523     56.279   4.080  9.48152E-01  9.94098E-01 -4.59457E-02
    9052.773     57.529   4.120  9.55904E-01  9.94631E-01 -3.87267E-02
    9054.035     58.790   4.160  9.65496E-01  9.95271E-01 -2.97758E-02
    9055.309     60.064   4.200  9.76493E-01  9.95971E-01 -1.94786E-02
    9056.595     61.351   4.240  9.88505E-01  9.96750E-01 -8.24498E-03
    9057.894     62.649   4.280  1.00117E+00  9.97606E-01  3.56309E-03
    9059.204     63.960   4.320  1.01414E+00  9.98514E-01  1.56301E-02
    9060.527     65.283   4.360  1.02717E+00  9.99496E-01  2.76743E-02
    9061.862     66.618   4.400  1.03992E+00  1.00055E+00  3.93751E-02
    9063.209     67.965   4.440  1.05196E+00  1.00162E+00  5.03359E-02
    9064.569     69.324   4.480  1.06275E+00  1.00276E+00  5.99856E-02
    9065.940     70.696   4.520  1.07163E+00  1.00394E+00  6.76840E-02
    9067.324     72.080   4.560  1.07818E+00  1.00514E+00  7.30428E-02
    9068.720     73.476   4.600  1.08257E+00  1.00639E+00  7.61796E-02
    9070.128     74.884   4.640  1.08520E+00  1.00763E+00  7.75684E-02
    9071.549     76.304   4.680  1.08658E+00  1.00892E+00  7.76510E-02
    9072.981     77.737   4.720  1.08676E+00  1.01020E+00  7.65564E-02
    9074.426     79.181   4.760  1.08557E+00  1.01149E+00  7.40705E-02
    9075.883     80.638   4.800  1.08268E+00  1.01277E+00  6.99104E-02
    9077.352     82.107   4.840  1.07795E+00  1.01406E+00  6.38969E-02
    9078.833     83.589   4.880  1.07130E+00  1.01530E+00  5.60036E-02
    9080.327     85.082   4.920  1.06296E+00  1.01655E+00  4.64148E-02
    9081.833     86.588   4.960  1.05333E+00  1.01776E+00  3.55675E-02
    9083.351     88.106   5.000  1.04304E+00  1.01894E+00  2.40978E-02
    9084.881     89.636   5.040  1.03285E+00  1.02008E+00  1.27699E-02
    9086.423     91.178   5.080  1.02355E+00  1.02118E+00  2.37520E-03
    9087.977     92.733   5.120  1.01590E+00  1.02223E+00 -6.32272E-03
    9089.544     94.299   5.160  1.01049E+00  1.02323E+00 -1.27461E-02
    9091.123     95.878   5.200  1.00756E+00  1.02417E+00 -1.66108E-02
    9092.714     97.469   5.240  1.00709E+00  1.02505E+00 -1.79628E-02
    9094.317     99.073   5.280  1.00862E+00  1.02588E+00 -1.72637E-02
    9095.933    100.688   5.320  1.01113E+00  1.02661E+00 -1.54856E-02
    9097.560    102.316   5.360  1.01330E+00  1.02729E+00 -1.39936E-02
    9099.200    103.955   5.400  1.01395E+00  1.02791E+00 -1.39597E-02
    9100.852    105.607   5.440  1.01252E+00  1.02843E+00 -1.59062E-02
    9102.516    107.272   5.480  1.00952E+00  1.02886E+00 -1.93488E-02
    9104.193    108.948   5.520  1.00601E+00  1.02924E+00 -2.32300E-02
    9105.881    110.637   5.560  1.00309E+00  1.02951E+00 -2.64239E-02
    9107.582    112.337   5.600  1.00161E+00  1.02972E+00 -2.81114E-02
    9109.295    114.050   5.640  1.00157E+00  1.02983E+00 -2.82625E-02
    9111.020    115.776   5.680  1.00264E+00  1.02988E+00 -2.72413E-02
    9112.758    117.513   5.720  1.00395E+00  1.02982E+00 -2.58738E-02
    9114.507    119.262   5.760  1.00469E+00  1.02968E+00 -2.49919E-02
    9116.269    121.024   5.800  1.00451E+00  1.02948E+00 -2.49703E-02
    9118.043    122.798   5.840  1.00359E+00  1.02918E+00 -2.55845E-02
    9119.829    124.584   5.880  1.00272E+00  1.02882E+00 -2.61055E-02
    9121.627    126.383   5.920  1.00267E+00  1.02839E+00 -2.57223E-02
    9123.438    128.193   5.960  1.00389E+00  1.02785E+00 -2.39583E-02
    9125.260    130.016   6.000  1.00655E+00  1.02722E+00 -2.06702E-02
