# # comment:                                                     FEFF 9.9.1  
# # Source:
# # Structure
# # Reduced
# # space
# # abc:
# # angles:
# # sites:
# # POT  SCF 100  7.0000   0, screened core-hole, AFOLP (folp(0)= 1.150)
# # Abs   Z=29 Rmt= 1.270 Rnm= 1.347 K  shell
# # Pot 1 Z=25 Rmt= 1.319 Rnm= 1.413
# # Pot 2 Z=29 Rmt= 1.270 Rnm= 1.347
# # Pot 3 Z= 8 Rmt= 1.029 Rnm= 1.100
# # Gam_ch=1.729E+00 H-L exch Vi= 0.000E+00 Vr= 0.000E+00
# # Mu=-1.072E+01eV kf=2.165E+00 Vint=-1.810E+01eV Rs_int= 1.675
# FMS rfms= 9.0000
# # PATH  Rmax=-1.000,  Keep_limit= 0.00, Heap_limit 0.00  Pwcrit= 2.50%
#  S02=0.950  Temp=   0.00  Debye_temp=   0.00  Global_sig2= 0.00000
#  Energy zero shift, vr, vi    0.00000E+00   0.00000E+00
#  Curved wave amplitude ratio filter   4.000%
#     file         sig2 tot  cw amp ratio   deg  nlegs   reff  inp sig2
#     0/   0 paths used
#  xsedge+ 50, used to normalize mu           2.5045E-04
#  -----------------------------------------------------------------------
#  omega    e    k    mu    mu0     chi     @#
    8984.147    -14.525  -1.000  3.09581E-02  4.44525E-02 -1.34944E-02
    8984.445    -14.227  -0.960  3.24025E-02  4.74236E-02 -1.50211E-02
    8984.732    -13.940  -0.920  3.39478E-02  5.07053E-02 -1.67575E-02
    8985.006    -13.666  -0.880  3.56051E-02  5.43417E-02 -1.87366E-02
    8985.268    -13.404  -0.840  3.73871E-02  5.83842E-02 -2.09972E-02
    8985.518    -13.154  -0.800  3.93081E-02  6.28921E-02 -2.35840E-02
    8985.756    -12.916  -0.760  4.13846E-02  6.79333E-02 -2.65487E-02
    8985.982    -12.691  -0.720  4.36346E-02  7.35842E-02 -2.99496E-02
    8986.195    -12.477  -0.680  4.60777E-02  7.99289E-02 -3.38512E-02
    8986.396    -12.276  -0.640  4.87339E-02  8.70557E-02 -3.83218E-02
    8986.585    -12.087  -0.600  5.16217E-02  9.50510E-02 -4.34293E-02
    8986.762    -11.910  -0.560  5.47548E-02  1.03988E-01 -4.92330E-02
    8986.927    -11.746  -0.520  5.81371E-02  1.13909E-01 -5.57714E-02
    8987.079    -11.593  -0.480  6.17558E-02  1.24801E-01 -6.30449E-02
    8987.219    -11.453  -0.440  6.55737E-02  1.36569E-01 -7.09958E-02
    8987.347    -11.325  -0.400  6.95232E-02  1.49014E-01 -7.94909E-02
    8987.463    -11.209  -0.360  7.35060E-02  1.61820E-01 -8.83142E-02
    8987.567    -11.106  -0.320  7.74018E-02  1.74580E-01 -9.71782E-02
    8987.658    -11.014  -0.280  8.10841E-02  1.86840E-01 -1.05756E-01
    8987.737    -10.935  -0.240  8.44387E-02  1.98162E-01 -1.13723E-01
    8987.804    -10.868  -0.200  8.73762E-02  2.08176E-01 -1.20800E-01
    8987.859    -10.813  -0.160  8.98349E-02  2.16611E-01 -1.26776E-01
    8987.902    -10.770  -0.120  9.17736E-02  2.23286E-01 -1.31512E-01
    8987.932    -10.740  -0.080  9.31652E-02  2.28100E-01 -1.34935E-01
    8987.957    -10.716   0.000  9.42655E-02  2.31973E-01 -1.37707E-01
    8988.012    -10.661   0.120  9.69965E-02  2.40718E-01 -1.43721E-01
    8988.054    -10.618   0.160  9.91138E-02  2.47527E-01 -1.48413E-01
    8988.109    -10.563   0.200  1.01855E-01  2.56240E-01 -1.54385E-01
    8988.176    -10.496   0.240  1.05241E-01  2.66760E-01 -1.61519E-01
    8988.255    -10.417   0.280  1.09305E-01  2.78901E-01 -1.69596E-01
    8988.347    -10.325   0.320  1.14127E-01  2.92397E-01 -1.78271E-01
    8988.451    -10.222   0.360  1.19819E-01  3.06884E-01 -1.87064E-01
    8988.566    -10.106   0.400  1.26611E-01  3.22013E-01 -1.95402E-01
    8988.694     -9.978   0.440  1.34732E-01  3.37429E-01 -2.02697E-01
    8988.835     -9.838   0.480  1.44415E-01  3.52895E-01 -2.08480E-01
    8988.987     -9.685   0.520  1.55585E-01  3.68227E-01 -2.12642E-01
    8989.152     -9.521   0.560  1.67624E-01  3.83352E-01 -2.15728E-01
    8989.328     -9.344   0.600  1.79143E-01  3.98267E-01 -2.19124E-01
    8989.517     -9.155   0.640  1.87983E-01  4.12993E-01 -2.25010E-01
    8989.718     -8.954   0.680  1.92101E-01  4.27594E-01 -2.35493E-01
    8989.932     -8.740   0.720  1.91037E-01  4.42144E-01 -2.51107E-01
    8990.157     -8.515   0.760  1.86922E-01  4.56694E-01 -2.69772E-01
    8990.395     -8.277   0.800  1.83557E-01  4.71308E-01 -2.87751E-01
    8990.645     -8.027   0.840  1.84167E-01  4.86024E-01 -3.01856E-01
    8990.907     -7.765   0.880  1.90548E-01  5.00885E-01 -3.10338E-01
    8991.182     -7.491   0.920  2.03815E-01  5.15911E-01 -3.12095E-01
    8991.468     -7.204   0.960  2.25506E-01  5.31107E-01 -3.05601E-01
    8991.767     -6.906   1.000  2.58227E-01  5.46472E-01 -2.88246E-01
    8992.078     -6.595   1.040  3.04867E-01  5.62022E-01 -2.57155E-01
    8992.401     -6.272   1.080  3.65258E-01  5.77745E-01 -2.12487E-01
    8992.736     -5.936   1.120  4.30092E-01  5.93602E-01 -1.63509E-01
    8993.083     -5.589   1.160  4.76679E-01  6.09612E-01 -1.32933E-01
    8993.443     -5.229   1.200  4.82544E-01  6.25710E-01 -1.43166E-01
    8993.815     -4.857   1.240  4.57356E-01  6.41887E-01 -1.84531E-01
    8994.199     -4.473   1.280  4.33794E-01  6.58112E-01 -2.24318E-01
    8994.595     -4.077   1.320  4.27141E-01  6.74334E-01 -2.47193E-01
    8995.004     -3.669   1.360  4.35047E-01  6.90537E-01 -2.55489E-01
    8995.424     -3.248   1.400  4.54844E-01  7.06686E-01 -2.51841E-01
    8995.857     -2.815   1.440  4.85442E-01  7.22724E-01 -2.37282E-01
    8996.302     -2.370   1.480  5.25892E-01  7.38613E-01 -2.12720E-01
    8996.759     -1.913   1.520  5.81300E-01  7.54315E-01 -1.73015E-01
    8997.229     -1.444   1.560  6.58196E-01  7.69792E-01 -1.11597E-01
    8997.710     -0.962   1.600  7.38735E-01  7.85007E-01 -4.62726E-02
    8998.204     -0.468   1.640  7.78636E-01  7.99924E-01 -2.12873E-02
    8998.710      0.038   1.680  7.64864E-01  8.14503E-01 -4.96388E-02
    8999.228      0.556   1.720  7.37224E-01  8.28709E-01 -9.14845E-02
    8999.759      1.086   1.760  7.35578E-01  8.42527E-01 -1.06949E-01
    9000.301      1.629   1.800  7.76970E-01  8.55902E-01 -7.89325E-02
    9000.856      2.184   1.840  8.77318E-01  8.68803E-01  8.51544E-03
    9001.423      2.750   1.880  1.05406E+00  8.81237E-01  1.72825E-01
    9002.002      3.330   1.920  1.28116E+00  8.93174E-01  3.87981E-01
    9002.593      3.921   1.960  1.43860E+00  9.04565E-01  5.34031E-01
    9003.197      4.524   2.000  1.41491E+00  9.15442E-01  4.99464E-01
    9003.812      5.140   2.040  1.29718E+00  9.25738E-01  3.71445E-01
    9004.440      5.768   2.080  1.22498E+00  9.35491E-01  2.89488E-01
    9005.080      6.408   2.120  1.21055E+00  9.44655E-01  2.65896E-01
    9005.733      7.060   2.160  1.21358E+00  9.53271E-01  2.60311E-01
    9006.397      7.725   2.200  1.23206E+00  9.61297E-01  2.70761E-01
    9007.074      8.401   2.240  1.26877E+00  9.68754E-01  3.00019E-01
    9007.763      9.090   2.280  1.28933E+00  9.75626E-01  3.13703E-01
    9008.464      9.791   2.320  1.26849E+00  9.81957E-01  2.86535E-01
    9009.177     10.505   2.360  1.21807E+00  9.87751E-01  2.30319E-01
    9009.902     11.230   2.400  1.13913E+00  9.92993E-01  1.46135E-01
    9010.640     11.968   2.440  1.03852E+00  9.97691E-01  4.08272E-02
    9011.390     12.717   2.480  9.63877E-01  1.00191E+00 -3.80344E-02
    9012.152     13.479   2.520  9.31762E-01  1.00560E+00 -7.38426E-02
    9012.926     14.254   2.560  9.24501E-01  1.00886E+00 -8.43584E-02
    9013.712     15.040   2.600  9.35011E-01  1.01162E+00 -7.66128E-02
    9014.511     15.839   2.640  9.49047E-01  1.01397E+00 -6.49231E-02
    9015.322     16.649   2.680  9.65191E-01  1.01591E+00 -5.07182E-02
    9016.145     17.472   2.720  9.80615E-01  1.01745E+00 -3.68362E-02
    9016.980     18.307   2.760  9.90529E-01  1.01863E+00 -2.80968E-02
    9017.827     19.155   2.800  9.93895E-01  1.01945E+00 -2.55514E-02
    9018.687     20.014   2.840  9.93450E-01  1.01994E+00 -2.64928E-02
    9019.558     20.886   2.880  9.92028E-01  1.02015E+00 -2.81173E-02
    9020.442     21.770   2.920  9.90750E-01  1.02005E+00 -2.92975E-02
    9021.338     22.666   2.960  9.88519E-01  1.01972E+00 -3.12002E-02
    9022.247     23.574   3.000  9.82804E-01  1.01913E+00 -3.63276E-02
    9023.167     24.495   3.040  9.72015E-01  1.01833E+00 -4.63181E-02
    9024.100     25.428   3.080  9.57127E-01  1.01734E+00 -6.02092E-02
    9025.045     26.372   3.120  9.40974E-01  1.01617E+00 -7.51986E-02
    9026.002     27.329   3.160  9.25910E-01  1.01485E+00 -8.89386E-02
    9026.971     28.299   3.200  9.13090E-01  1.01340E+00 -1.00306E-01
    9027.952     29.280   3.240  9.02771E-01  1.01180E+00 -1.09031E-01
    9028.946     30.274   3.280  8.95045E-01  1.01014E+00 -1.15093E-01
    9029.952     31.280   3.320  8.90076E-01  1.00837E+00 -1.18292E-01
    9030.970     32.298   3.360  8.88134E-01  1.00652E+00 -1.18389E-01
    9032.000     33.328   3.400  8.88835E-01  1.00463E+00 -1.15797E-01
    9033.043     34.370   3.440  8.91449E-01  1.00272E+00 -1.11270E-01
    9034.097     35.425   3.480  8.95224E-01  1.00075E+00 -1.05528E-01
    9035.164     36.492   3.520  8.99743E-01  9.98797E-01 -9.90537E-02
    9036.243     37.571   3.560  9.04693E-01  9.96819E-01 -9.21258E-02
    9037.334     38.662   3.600  9.10246E-01  9.94845E-01 -8.45990E-02
    9038.438     39.765   3.640  9.16769E-01  9.92920E-01 -7.61507E-02
    9039.553     40.881   3.680  9.24557E-01  9.90987E-01 -6.64302E-02
    9040.681     42.009   3.720  9.33982E-01  9.89113E-01 -5.51304E-02
    9041.821     43.149   3.760  9.45197E-01  9.87280E-01 -4.20832E-02
    9042.973     44.301   3.800  9.57989E-01  9.85493E-01 -2.75040E-02
    9044.137     45.465   3.840  9.72100E-01  9.83777E-01 -1.16762E-02
    9045.314     46.642   3.880  9.87593E-01  9.82132E-01  5.46135E-03
    9046.502     47.830   3.920  1.00468E+00  9.80540E-01  2.41392E-02
    9047.703     49.031   3.960  1.02314E+00  9.79025E-01  4.41137E-02
    9048.916     50.244   4.000  1.04187E+00  9.77612E-01  6.42535E-02
    9050.142     51.470   4.040  1.05884E+00  9.76258E-01  8.25818E-02
    9051.379     52.707   4.080  1.07214E+00  9.75006E-01  9.71351E-02
    9052.629     53.957   4.120  1.08120E+00  9.73817E-01  1.07379E-01
    9053.891     55.219   4.160  1.08725E+00  9.72754E-01  1.14491E-01
    9055.165     56.493   4.200  1.09212E+00  9.71757E-01  1.20363E-01
    9056.451     57.779   4.240  1.09771E+00  9.70864E-01  1.26843E-01
    9057.750     59.077   4.280  1.10517E+00  9.70059E-01  1.35111E-01
    9059.060     60.388   4.320  1.11395E+00  9.69363E-01  1.44582E-01
    9060.383     61.711   4.360  1.12051E+00  9.68751E-01  1.51754E-01
    9061.718     63.046   4.400  1.11912E+00  9.68225E-01  1.50897E-01
    9063.065     64.393   4.440  1.10499E+00  9.67806E-01  1.37183E-01
    9064.425     65.752   4.480  1.07734E+00  9.67473E-01  1.09871E-01
    9065.796     67.124   4.520  1.04006E+00  9.67246E-01  7.28104E-02
    9067.180     68.508   4.560  9.99170E-01  9.67080E-01  3.20902E-02
    9068.576     69.904   4.600  9.60227E-01  9.67016E-01 -6.78918E-03
    9069.984     71.312   4.640  9.26839E-01  9.67035E-01 -4.01963E-02
    9071.405     72.732   4.680  9.00751E-01  9.67133E-01 -6.63822E-02
    9072.837     74.165   4.720  8.82406E-01  9.67309E-01 -8.49021E-02
    9074.282     75.610   4.760  8.71387E-01  9.67539E-01 -9.61526E-02
    9075.739     77.067   4.800  8.66981E-01  9.67865E-01 -1.00884E-01
    9077.208     78.536   4.840  8.68456E-01  9.68240E-01 -9.97843E-02
    9078.689     80.017   4.880  8.75337E-01  9.68665E-01 -9.33281E-02
    9080.183     81.510   4.920  8.87338E-01  9.69160E-01 -8.18219E-02
    9081.688     83.016   4.960  9.04395E-01  9.69722E-01 -6.53265E-02
    9083.206     84.534   5.000  9.26057E-01  9.70305E-01 -4.42485E-02
    9084.736     86.064   5.040  9.50584E-01  9.70949E-01 -2.03658E-02
    9086.279     87.606   5.080  9.74521E-01  9.71611E-01  2.91000E-03
    9087.833     89.161   5.120  9.94200E-01  9.72328E-01  2.18724E-02
    9089.400     90.728   5.160  1.00758E+00  9.73037E-01  3.45449E-02
    9090.979     92.306   5.200  1.01517E+00  9.73797E-01  4.13743E-02
    9092.570     93.898   5.240  1.01852E+00  9.74565E-01  4.39514E-02
    9094.173     95.501   5.280  1.01855E+00  9.75339E-01  4.32131E-02
    9095.788     97.116   5.320  1.01504E+00  9.76114E-01  3.89257E-02
    9097.416     98.744   5.360  1.00735E+00  9.76910E-01  3.04432E-02
    9099.056    100.384   5.400  9.95238E-01  9.77684E-01  1.75542E-02
    9100.708    102.036   5.440  9.79443E-01  9.78452E-01  9.91214E-04
    9102.372    103.700   5.480  9.61880E-01  9.79213E-01 -1.73324E-02
    9104.048    105.376   5.520  9.45197E-01  9.79941E-01 -3.47439E-02
    9105.737    107.065   5.560  9.31560E-01  9.80634E-01 -4.90735E-02
    9107.438    108.766   5.600  9.21703E-01  9.81312E-01 -5.96095E-02
    9109.151    110.479   5.640  9.14727E-01  9.81931E-01 -6.72044E-02
    9110.876    112.204   5.680  9.09073E-01  9.82534E-01 -7.34608E-02
    9112.613    113.941   5.720  9.03435E-01  9.83097E-01 -7.96620E-02
    9114.363    115.691   5.760  8.97696E-01  9.83616E-01 -8.59204E-02
    9116.125    117.452   5.800  8.93110E-01  9.84068E-01 -9.09581E-02
    9117.899    119.226   5.840  8.91672E-01  9.84474E-01 -9.28025E-02
    9119.685    121.012   5.880  8.94812E-01  9.84832E-01 -9.00201E-02
    9121.483    122.811   5.920  9.03006E-01  9.85114E-01 -8.21075E-02
    9123.293    124.621   5.960  9.16559E-01  9.85335E-01 -6.87761E-02
    9125.116    126.444   6.000  9.36768E-01  9.85449E-01 -4.86801E-02
