# # comment:                                                     FEFF 9.9.1  
# # Source:
# # Structure
# # Reduced
# # space
# # abc:
# # angles:
# # sites:
# # POT  SCF 100  7.0000   0, screened core-hole, AFOLP (folp(0)= 1.150)
# # Abs   Z=29 Rmt= 1.252 Rnm= 1.330 K  shell
# # Pot 1 Z=29 Rmt= 1.252 Rnm= 1.330
# # Pot 2 Z=15 Rmt= 0.941 Rnm= 1.156
# # Pot 3 Z= 8 Rmt= 0.873 Rnm= 1.040
# # Gam_ch=1.729E+00 H-L exch Vi= 0.000E+00 Vr= 0.000E+00
# # Mu=-6.458E+00eV kf=2.451E+00 Vint=-1.660E+01eV Rs_int= 1.480
# FMS rfms= 9.0000
# # PATH  Rmax=-1.000,  Keep_limit= 0.00, Heap_limit 0.00  Pwcrit= 2.50%
#  S02=0.950  Temp=   0.00  Debye_temp=   0.00  Global_sig2= 0.00000
#  Energy zero shift, vr, vi    0.00000E+00   0.00000E+00
#  Curved wave amplitude ratio filter   4.000%
#     file         sig2 tot  cw amp ratio   deg  nlegs   reff  inp sig2
#     0/   0 paths used
#  xsedge+ 50, used to normalize mu           2.4755E-04
#  -----------------------------------------------------------------------
#  omega    e    k    mu    mu0     chi     @#
    8983.339    -10.268  -1.000  4.12157E-02  5.29006E-02 -1.16849E-02
    8983.637     -9.969  -0.960  4.36246E-02  5.67523E-02 -1.31278E-02
    8983.924     -9.682  -0.920  4.62427E-02  6.10353E-02 -1.47926E-02
    8984.198     -9.408  -0.880  4.90940E-02  6.58132E-02 -1.67192E-02
    8984.460     -9.146  -0.840  5.22055E-02  7.11607E-02 -1.89552E-02
    8984.710     -8.896  -0.800  5.56073E-02  7.71639E-02 -2.15566E-02
    8984.948     -8.658  -0.760  5.93324E-02  8.39221E-02 -2.45897E-02
    8985.173     -8.433  -0.720  6.34166E-02  9.15474E-02 -2.81308E-02
    8985.387     -8.219  -0.680  6.78970E-02  1.00163E-01 -3.22663E-02
    8985.588     -8.018  -0.640  7.28108E-02  1.09900E-01 -3.70894E-02
    8985.777     -7.829  -0.600  7.81918E-02  1.20887E-01 -4.26949E-02
    8985.954     -7.652  -0.560  8.40651E-02  1.33232E-01 -4.91673E-02
    8986.118     -7.488  -0.520  9.04395E-02  1.47003E-01 -5.65632E-02
    8986.271     -7.335  -0.480  9.72979E-02  1.62184E-01 -6.48861E-02
    8986.411     -7.195  -0.440  1.04585E-01  1.78643E-01 -7.40574E-02
    8986.539     -7.067  -0.400  1.12199E-01  1.96091E-01 -8.38915E-02
    8986.655     -6.951  -0.360  1.19986E-01  2.14076E-01 -9.40895E-02
    8986.758     -6.848  -0.320  1.27747E-01  2.32009E-01 -1.04262E-01
    8986.850     -6.756  -0.280  1.35255E-01  2.49239E-01 -1.13984E-01
    8986.929     -6.677  -0.240  1.42277E-01  2.65139E-01 -1.22862E-01
    8986.996     -6.610  -0.200  1.48594E-01  2.79184E-01 -1.30590E-01
    8987.051     -6.555  -0.160  1.54021E-01  2.90994E-01 -1.36973E-01
    8987.094     -6.512  -0.120  1.58404E-01  3.00325E-01 -1.41921E-01
    8987.124     -6.482  -0.080  1.61628E-01  3.07044E-01 -1.45417E-01
    8987.149     -6.458   0.000  1.64291E-01  3.12441E-01 -1.48149E-01
    8987.203     -6.403   0.120  1.70371E-01  3.24605E-01 -1.54235E-01
    8987.246     -6.360   0.160  1.75159E-01  3.34049E-01 -1.58889E-01
    8987.301     -6.305   0.200  1.81457E-01  3.46110E-01 -1.64653E-01
    8987.368     -6.238   0.240  1.89364E-01  3.60594E-01 -1.71230E-01
    8987.447     -6.159   0.280  1.98970E-01  3.77202E-01 -1.78232E-01
    8987.539     -6.067   0.320  2.10399E-01  3.95494E-01 -1.85095E-01
    8987.642     -5.964   0.360  2.23740E-01  4.14908E-01 -1.91169E-01
    8987.758     -5.848   0.400  2.39068E-01  4.34889E-01 -1.95821E-01
    8987.886     -5.720   0.440  2.56387E-01  4.54910E-01 -1.98523E-01
    8988.026     -5.580   0.480  2.75495E-01  4.74508E-01 -1.99013E-01
    8988.179     -5.427   0.520  2.96240E-01  4.93485E-01 -1.97245E-01
    8988.343     -5.263   0.560  3.18437E-01  5.11664E-01 -1.93227E-01
    8988.520     -5.086   0.600  3.42326E-01  5.29034E-01 -1.86708E-01
    8988.709     -4.897   0.640  3.68549E-01  5.45675E-01 -1.77126E-01
    8988.910     -4.696   0.680  3.97112E-01  5.61646E-01 -1.64535E-01
    8989.124     -4.482   0.720  4.26043E-01  5.77058E-01 -1.51015E-01
    8989.349     -4.257   0.760  4.51134E-01  5.92001E-01 -1.40867E-01
    8989.587     -4.019   0.800  4.68846E-01  6.06559E-01 -1.37713E-01
    8989.837     -3.769   0.840  4.79329E-01  6.20838E-01 -1.41509E-01
    8990.099     -3.507   0.880  4.85014E-01  6.34855E-01 -1.49841E-01
    8990.373     -3.233   0.920  4.87257E-01  6.48693E-01 -1.61435E-01
    8990.660     -2.946   0.960  4.85567E-01  6.62361E-01 -1.76794E-01
    8990.959     -2.648   1.000  4.80215E-01  6.75901E-01 -1.95686E-01
    8991.269     -2.337   1.040  4.74339E-01  6.89321E-01 -2.14982E-01
    8991.593     -2.014   1.080  4.73200E-01  7.02623E-01 -2.29424E-01
    8991.928     -1.678   1.120  4.81104E-01  7.15805E-01 -2.34701E-01
    8992.275     -1.331   1.160  4.98171E-01  7.28858E-01 -2.30687E-01
    8992.635     -0.971   1.200  5.19147E-01  7.41788E-01 -2.22641E-01
    8993.007     -0.599   1.240  5.37378E-01  7.54577E-01 -2.17199E-01
    8993.391     -0.215   1.280  5.51809E-01  7.67188E-01 -2.15379E-01
    8993.787      0.181   1.320  5.67514E-01  7.79617E-01 -2.12103E-01
    8994.196      0.589   1.360  5.88731E-01  7.91860E-01 -2.03129E-01
    8994.616      1.010   1.400  6.14503E-01  8.03851E-01 -1.89348E-01
    8995.049      1.443   1.440  6.42540E-01  8.15628E-01 -1.73088E-01
    8995.494      1.888   1.480  6.74485E-01  8.27121E-01 -1.52636E-01
    8995.951      2.345   1.520  7.15502E-01  8.38324E-01 -1.22822E-01
    8996.421      2.814   1.560  7.64080E-01  8.49231E-01 -8.51509E-02
    8996.902      3.296   1.600  8.10907E-01  8.59815E-01 -4.89081E-02
    8997.396      3.790   1.640  8.53343E-01  8.70069E-01 -1.67261E-02
    8997.902      4.296   1.680  8.98901E-01  8.79948E-01  1.89532E-02
    8998.420      4.814   1.720  9.55891E-01  8.89467E-01  6.64233E-02
    8998.950      5.344   1.760  1.02634E+00  8.98623E-01  1.27720E-01
    8999.493      5.887   1.800  1.10492E+00  9.07370E-01  1.97554E-01
    9000.048      6.442   1.840  1.18631E+00  9.15726E-01  2.70584E-01
    9000.615      7.008   1.880  1.26096E+00  9.23689E-01  3.37274E-01
    9001.194      7.588   1.920  1.30874E+00  9.31219E-01  3.77519E-01
    9001.785      8.179   1.960  1.32309E+00  9.38373E-01  3.84717E-01
    9002.389      8.782   2.000  1.31724E+00  9.45093E-01  3.72147E-01
    9003.004      9.398   2.040  1.30060E+00  9.51422E-01  3.49178E-01
    9003.632     10.026   2.080  1.27524E+00  9.57319E-01  3.17920E-01
    9004.272     10.666   2.120  1.24354E+00  9.62851E-01  2.80688E-01
    9004.924     11.318   2.160  1.21235E+00  9.67957E-01  2.44398E-01
    9005.589     11.983   2.200  1.18812E+00  9.72705E-01  2.15420E-01
    9006.266     12.659   2.240  1.17025E+00  9.77058E-01  1.93195E-01
    9006.954     13.348   2.280  1.15350E+00  9.81062E-01  1.72433E-01
    9007.655     14.049   2.320  1.13185E+00  9.84683E-01  1.47169E-01
    9008.369     14.763   2.360  1.10436E+00  9.87987E-01  1.16377E-01
    9009.094     15.488   2.400  1.07981E+00  9.90941E-01  8.88706E-02
    9009.832     16.226   2.440  1.06661E+00  9.93592E-01  7.30214E-02
    9010.581     16.975   2.480  1.06523E+00  9.95947E-01  6.92782E-02
    9011.343     17.737   2.520  1.07175E+00  9.97993E-01  7.37577E-02
    9012.118     18.512   2.560  1.07926E+00  9.99779E-01  7.94778E-02
    9012.904     19.298   2.600  1.08068E+00  1.00129E+00  7.93906E-02
    9013.703     20.096   2.640  1.07442E+00  1.00258E+00  7.18403E-02
    9014.513     20.907   2.680  1.06387E+00  1.00363E+00  6.02424E-02
    9015.336     21.730   2.720  1.05315E+00  1.00444E+00  4.87044E-02
    9016.172     22.565   2.760  1.04214E+00  1.00508E+00  3.70688E-02
    9017.019     23.413   2.800  1.02510E+00  1.00553E+00  1.95677E-02
    9017.878     24.272   2.840  9.99363E-01  1.00580E+00 -6.44124E-03
    9018.750     25.144   2.880  9.73525E-01  1.00591E+00 -3.23899E-02
    9019.634     26.028   2.920  9.52788E-01  1.00589E+00 -5.31020E-02
    9020.530     26.924   2.960  9.36749E-01  1.00574E+00 -6.89891E-02
    9021.438     27.832   3.000  9.24057E-01  1.00547E+00 -8.14094E-02
    9022.359     28.753   3.040  9.13279E-01  1.00508E+00 -9.18010E-02
    9023.292     29.685   3.080  9.03584E-01  1.00463E+00 -1.01043E-01
    9024.236     30.630   3.120  8.94740E-01  1.00407E+00 -1.09330E-01
    9025.194     31.587   3.160  8.86876E-01  1.00346E+00 -1.16581E-01
    9026.163     32.557   3.200  8.79937E-01  1.00277E+00 -1.22835E-01
    9027.144     33.538   3.240  8.74041E-01  1.00204E+00 -1.27999E-01
    9028.138     34.532   3.280  8.69631E-01  1.00127E+00 -1.31635E-01
    9029.144     35.538   3.320  8.66838E-01  1.00046E+00 -1.33617E-01
    9030.162     36.556   3.360  8.65929E-01  9.99633E-01 -1.33704E-01
    9031.192     37.586   3.400  8.67251E-01  9.98802E-01 -1.31551E-01
    9032.234     38.628   3.440  8.70999E-01  9.97946E-01 -1.26947E-01
    9033.289     39.683   3.480  8.77281E-01  9.97109E-01 -1.19828E-01
    9034.356     40.750   3.520  8.86004E-01  9.96253E-01 -1.10249E-01
    9035.435     41.829   3.560  8.96994E-01  9.95423E-01 -9.84287E-02
    9036.526     42.920   3.600  9.09506E-01  9.94622E-01 -8.51164E-02
    9037.629     44.023   3.640  9.22929E-01  9.93830E-01 -7.09015E-02
    9038.745     45.139   3.680  9.36876E-01  9.93070E-01 -5.61938E-02
    9039.873     46.267   3.720  9.51063E-01  9.92323E-01 -4.12595E-02
    9041.013     47.406   3.760  9.65334E-01  9.91612E-01 -2.62776E-02
    9042.165     48.559   3.800  9.79538E-01  9.90961E-01 -1.14229E-02
    9043.329     49.723   3.840  9.93221E-01  9.90329E-01  2.89191E-03
    9044.506     50.899   3.880  1.00583E+00  9.89757E-01  1.60739E-02
    9045.694     52.088   3.920  1.01680E+00  9.89206E-01  2.75923E-02
    9046.895     53.289   3.960  1.02583E+00  9.88718E-01  3.71088E-02
    9048.108     54.502   4.000  1.03284E+00  9.88273E-01  4.45693E-02
    9049.334     55.727   4.040  1.03819E+00  9.87871E-01  5.03228E-02
    9050.571     56.965   4.080  1.04239E+00  9.87512E-01  5.48822E-02
    9051.821     58.215   4.120  1.04595E+00  9.87219E-01  5.87263E-02
    9053.083     59.476   4.160  1.04924E+00  9.86971E-01  6.22650E-02
    9054.357     60.751   4.200  1.05257E+00  9.86768E-01  6.58037E-02
    9055.643     62.037   4.240  1.05608E+00  9.86628E-01  6.94565E-02
    9056.941     63.335   4.280  1.05958E+00  9.86511E-01  7.30713E-02
    9058.252     64.646   4.320  1.06281E+00  9.86457E-01  7.63488E-02
    9059.575     65.969   4.360  1.06521E+00  9.86446E-01  7.87624E-02
    9060.910     67.304   4.400  1.06618E+00  9.86477E-01  7.97036E-02
    9062.257     68.651   4.440  1.06523E+00  9.86550E-01  7.86814E-02
    9063.616     70.010   4.480  1.06212E+00  9.86684E-01  7.54365E-02
    9064.988     71.382   4.520  1.05688E+00  9.86835E-01  7.00478E-02
    9066.372     72.766   4.560  1.04996E+00  9.87024E-01  6.29406E-02
    9067.768     74.162   4.600  1.04195E+00  9.87249E-01  5.47031E-02
    9069.176     75.570   4.640  1.03331E+00  9.87509E-01  4.57993E-02
    9070.596     76.990   4.680  1.02428E+00  9.87781E-01  3.65013E-02
    9072.029     78.423   4.720  1.01503E+00  9.88088E-01  2.69447E-02
    9073.474     79.868   4.760  1.00569E+00  9.88426E-01  1.72656E-02
    9074.931     81.324   4.800  9.96550E-01  9.88774E-01  7.77612E-03
    9076.400     82.794   4.840  9.88049E-01  9.89152E-01 -1.10238E-03
    9077.881     84.275   4.880  9.80560E-01  9.89537E-01 -8.97696E-03
    9079.375     85.768   4.920  9.74391E-01  9.89947E-01 -1.55564E-02
    9080.880     87.274   4.960  9.69661E-01  9.90339E-01 -2.06780E-02
    9082.398     88.792   5.000  9.66507E-01  9.90754E-01 -2.42478E-02
    9083.928     90.322   5.040  9.64906E-01  9.91172E-01 -2.62653E-02
    9085.471     91.864   5.080  9.64722E-01  9.91589E-01 -2.68668E-02
    9087.025     93.419   5.120  9.65656E-01  9.92001E-01 -2.63455E-02
    9088.592     94.986   5.160  9.67182E-01  9.92388E-01 -2.52058E-02
    9090.171     96.564   5.200  9.68681E-01  9.92769E-01 -2.40879E-02
    9091.762     98.155   5.240  9.69551E-01  9.93167E-01 -2.36159E-02
    9093.365     99.759   5.280  9.69324E-01  9.93513E-01 -2.41899E-02
    9094.980    101.374   5.320  9.67932E-01  9.93851E-01 -2.59193E-02
    9096.608    103.002   5.360  9.65523E-01  9.94179E-01 -2.86558E-02
    9098.248    104.642   5.400  9.62471E-01  9.94476E-01 -3.20043E-02
    9099.900    106.294   5.440  9.59411E-01  9.94762E-01 -3.53511E-02
    9101.564    107.958   5.480  9.57053E-01  9.95013E-01 -3.79601E-02
    9103.240    109.634   5.520  9.56021E-01  9.95229E-01 -3.92078E-02
    9104.929    111.323   5.560  9.56611E-01  9.95429E-01 -3.88181E-02
    9106.630    113.024   5.600  9.58602E-01  9.95570E-01 -3.69674E-02
    9108.343    114.736   5.640  9.61535E-01  9.95695E-01 -3.41603E-02
    9110.068    116.462   5.680  9.64849E-01  9.95783E-01 -3.09336E-02
    9111.805    118.199   5.720  9.68245E-01  9.95832E-01 -2.75863E-02
    9113.555    119.949   5.760  9.71725E-01  9.95841E-01 -2.41160E-02
    9115.316    121.710   5.800  9.75401E-01  9.95810E-01 -2.04094E-02
    9117.090    123.484   5.840  9.79257E-01  9.95741E-01 -1.64841E-02
    9118.876    125.270   5.880  9.83046E-01  9.95633E-01 -1.25870E-02
    9120.675    127.069   5.920  9.86390E-01  9.95486E-01 -9.09686E-03
    9122.485    128.879   5.960  9.88964E-01  9.95299E-01 -6.33539E-03
    9124.308    130.702   6.000  9.90746E-01  9.95078E-01 -4.33208E-03
