# # comment:                                                     FEFF 9.9.1  
# # Source:
# # Structure
# # Reduced
# # space
# # abc:
# # angles:
# # sites:
# # POT  SCF 100  7.0000   0, screened core-hole, AFOLP (folp(0)= 1.150)
# # Abs   Z=29 Rmt= 1.270 Rnm= 1.340 K  shell
# # Pot 1 Z= 3 Rmt= 1.313 Rnm= 1.410
# # Pot 2 Z=29 Rmt= 1.282 Rnm= 1.371
# # Pot 3 Z=52 Rmt= 1.289 Rnm= 1.430
# # Pot 4 Z= 8 Rmt= 1.008 Rnm= 1.087
# # Gam_ch=1.729E+00 H-L exch Vi= 0.000E+00 Vr= 0.000E+00
# # Mu=-6.171E+00eV kf=2.041E+00 Vint=-1.567E+01eV Rs_int= 1.777
# FMS rfms= 9.0000
# # PATH  Rmax=-1.000,  Keep_limit= 0.00, Heap_limit 0.00  Pwcrit= 2.50%
#  S02=0.950  Temp=   0.00  Debye_temp=   0.00  Global_sig2= 0.00000
#  Energy zero shift, vr, vi    0.00000E+00   0.00000E+00
#  Curved wave amplitude ratio filter   4.000%
#     file         sig2 tot  cw amp ratio   deg  nlegs   reff  inp sig2
#     0/   0 paths used
#  xsedge+ 50, used to normalize mu           2.4473E-04
#  -----------------------------------------------------------------------
#  omega    e    k    mu    mu0     chi     @#
    8983.815     -9.981  -1.000  4.28006E-02  5.67302E-02 -1.39296E-02
    8984.113     -9.682  -0.960  4.51178E-02  6.09536E-02 -1.58358E-02
    8984.400     -9.396  -0.920  4.76025E-02  6.56558E-02 -1.80533E-02
    8984.674     -9.121  -0.880  5.02695E-02  7.09080E-02 -2.06385E-02
    8984.936     -8.859  -0.840  5.31346E-02  7.67931E-02 -2.36585E-02
    8985.186     -8.609  -0.800  5.62151E-02  8.34075E-02 -2.71925E-02
    8985.424     -8.371  -0.760  5.95288E-02  9.08618E-02 -3.13330E-02
    8985.650     -8.146  -0.720  6.30943E-02  9.92810E-02 -3.61867E-02
    8985.863     -7.933  -0.680  6.69298E-02  1.08803E-01 -4.18733E-02
    8986.064     -7.731  -0.640  7.10517E-02  1.19574E-01 -4.85219E-02
    8986.253     -7.542  -0.600  7.54730E-02  1.31736E-01 -5.62629E-02
    8986.430     -7.366  -0.560  8.02000E-02  1.45413E-01 -6.52126E-02
    8986.595     -7.201  -0.520  8.52280E-02  1.60677E-01 -7.54492E-02
    8986.747     -7.049  -0.480  9.05358E-02  1.77515E-01 -8.69790E-02
    8986.887     -6.908  -0.440  9.60796E-02  1.95777E-01 -9.96976E-02
    8987.015     -6.780  -0.400  1.01788E-01  2.15144E-01 -1.13357E-01
    8987.131     -6.665  -0.360  1.07559E-01  2.35113E-01 -1.27554E-01
    8987.235     -6.561  -0.320  1.13264E-01  2.55028E-01 -1.41764E-01
    8987.326     -6.470  -0.280  1.18757E-01  2.74164E-01 -1.55407E-01
    8987.405     -6.390  -0.240  1.23886E-01  2.91824E-01 -1.67938E-01
    8987.472     -6.323  -0.200  1.28505E-01  3.07424E-01 -1.78919E-01
    8987.527     -6.268  -0.160  1.32482E-01  3.20541E-01 -1.88058E-01
    8987.570     -6.226  -0.120  1.35708E-01  3.30904E-01 -1.95197E-01
    8987.600     -6.195  -0.080  1.38093E-01  3.38367E-01 -2.00274E-01
    8987.625     -6.171   0.000  1.40086E-01  3.44360E-01 -2.04274E-01
    8987.680     -6.116   0.120  1.44618E-01  3.57866E-01 -2.13248E-01
    8987.722     -6.073   0.160  1.48189E-01  3.68362E-01 -2.20173E-01
    8987.777     -6.018   0.200  1.52878E-01  3.81731E-01 -2.28853E-01
    8987.844     -5.951   0.240  1.58817E-01  3.97802E-01 -2.38985E-01
    8987.923     -5.872   0.280  1.66155E-01  4.16239E-01 -2.50084E-01
    8988.015     -5.781   0.320  1.75088E-01  4.36533E-01 -2.61445E-01
    8988.119     -5.677   0.360  1.85823E-01  4.58060E-01 -2.72236E-01
    8988.234     -5.561   0.400  1.98746E-01  4.80196E-01 -2.81451E-01
    8988.362     -5.433   0.440  2.14178E-01  5.02315E-01 -2.88137E-01
    8988.503     -5.293   0.480  2.32538E-01  5.23984E-01 -2.91446E-01
    8988.655     -5.141   0.520  2.54010E-01  5.44874E-01 -2.90864E-01
    8988.820     -4.976   0.560  2.78559E-01  5.64851E-01 -2.86292E-01
    8988.996     -4.799   0.600  3.05797E-01  5.83900E-01 -2.78103E-01
    8989.185     -4.610   0.640  3.35193E-01  6.02043E-01 -2.66850E-01
    8989.387     -4.409   0.680  3.66315E-01  6.19385E-01 -2.53070E-01
    8989.600     -4.196   0.720  3.98356E-01  6.36005E-01 -2.37649E-01
    8989.825     -3.970   0.760  4.28981E-01  6.52044E-01 -2.23063E-01
    8990.063     -3.732   0.800  4.53870E-01  6.67548E-01 -2.13678E-01
    8990.313     -3.482   0.840  4.69513E-01  6.82613E-01 -2.13100E-01
    8990.575     -3.220   0.880  4.76604E-01  6.97320E-01 -2.20716E-01
    8990.850     -2.946   0.920  4.79577E-01  7.11673E-01 -2.32097E-01
    8991.136     -2.660   0.960  4.84325E-01  7.25746E-01 -2.41421E-01
    8991.435     -2.361   1.000  4.96680E-01  7.39516E-01 -2.42836E-01
    8991.746     -2.050   1.040  5.19873E-01  7.53016E-01 -2.33143E-01
    8992.069     -1.727   1.080  5.50990E-01  7.66247E-01 -2.15257E-01
    8992.404     -1.392   1.120  5.83468E-01  7.79208E-01 -1.95740E-01
    8992.751     -1.044   1.160  6.14913E-01  7.91888E-01 -1.76976E-01
    8993.111     -0.684   1.200  6.47940E-01  8.04256E-01 -1.56316E-01
    8993.483     -0.313   1.240  6.85343E-01  8.16334E-01 -1.30991E-01
    8993.867      0.071   1.280  7.28852E-01  8.28063E-01 -9.92112E-02
    8994.263      0.468   1.320  7.79214E-01  8.39463E-01 -6.02490E-02
    8994.672      0.876   1.360  8.32201E-01  8.50492E-01 -1.82907E-02
    8995.092      1.297   1.400  8.80988E-01  8.61170E-01  1.98181E-02
    8995.525      1.730   1.440  9.30030E-01  8.71431E-01  5.85991E-02
    8995.970      2.175   1.480  9.91195E-01  8.81295E-01  1.09900E-01
    8996.427      2.632   1.520  1.06253E+00  8.90759E-01  1.71769E-01
    8996.897      3.101   1.560  1.13423E+00  8.99783E-01  2.34452E-01
    8997.378      3.583   1.600  1.21178E+00  9.08383E-01  3.03398E-01
    8997.872      4.077   1.640  1.30136E+00  9.16540E-01  3.84821E-01
    8998.378      4.582   1.680  1.39752E+00  9.24255E-01  4.73263E-01
    8998.896      5.101   1.720  1.49339E+00  9.31528E-01  5.61859E-01
    8999.427      5.631   1.760  1.56206E+00  9.38364E-01  6.23701E-01
    8999.969      6.174   1.800  1.57671E+00  9.44766E-01  6.31949E-01
    9000.524      6.728   1.840  1.53317E+00  9.50736E-01  5.82438E-01
    9001.091      7.295   1.880  1.44464E+00  9.56301E-01  4.88340E-01
    9001.670      7.874   1.920  1.32685E+00  9.61424E-01  3.65425E-01
    9002.261      8.466   1.960  1.19868E+00  9.66155E-01  2.32529E-01
    9002.865      9.069   2.000  1.08102E+00  9.70498E-01  1.10520E-01
    9003.480      9.685   2.040  9.86401E-01  9.74462E-01  1.19392E-02
    9004.108     10.313   2.080  9.18046E-01  9.78076E-01 -6.00293E-02
    9004.748     10.953   2.120  8.75125E-01  9.81327E-01 -1.06202E-01
    9005.401     11.605   2.160  8.56758E-01  9.84264E-01 -1.27505E-01
    9006.065     12.269   2.200  8.61937E-01  9.86875E-01 -1.24938E-01
    9006.742     12.946   2.240  8.87358E-01  9.89190E-01 -1.01833E-01
    9007.431     13.635   2.280  9.25557E-01  9.91218E-01 -6.56612E-02
    9008.132     14.336   2.320  9.65617E-01  9.93008E-01 -2.73911E-02
    9008.845     15.049   2.360  9.97769E-01  9.94529E-01  3.24093E-03
    9009.570     15.775   2.400  1.01978E+00  9.95831E-01  2.39499E-02
    9010.308     16.512   2.440  1.03857E+00  9.96921E-01  4.16531E-02
    9011.058     17.262   2.480  1.05876E+00  9.97809E-01  6.09523E-02
    9011.820     18.024   2.520  1.07425E+00  9.98524E-01  7.57304E-02
    9012.594     18.798   2.560  1.07999E+00  9.99094E-01  8.08949E-02
    9013.380     19.585   2.600  1.07043E+00  9.99486E-01  7.09476E-02
    9014.179     20.383   2.640  1.04740E+00  9.99770E-01  4.76340E-02
    9014.990     21.194   2.680  1.01840E+00  9.99932E-01  1.84646E-02
    9015.813     22.017   2.720  9.90565E-01  9.99999E-01 -9.43439E-03
    9016.648     22.852   2.760  9.66960E-01  9.99958E-01 -3.29980E-02
    9017.495     23.699   2.800  9.48090E-01  9.99855E-01 -5.17649E-02
    9018.355     24.559   2.840  9.33689E-01  9.99677E-01 -6.59873E-02
    9019.226     25.431   2.880  9.22895E-01  9.99448E-01 -7.65531E-02
    9020.110     26.315   2.920  9.14473E-01  9.99153E-01 -8.46799E-02
    9021.006     27.211   2.960  9.07987E-01  9.98840E-01 -9.08531E-02
    9021.915     28.119   3.000  9.02594E-01  9.98514E-01 -9.59193E-02
    9022.835     29.040   3.040  8.97433E-01  9.98158E-01 -1.00725E-01
    9023.768     29.972   3.080  8.92218E-01  9.97794E-01 -1.05576E-01
    9024.713     30.917   3.120  8.87451E-01  9.97428E-01 -1.09977E-01
    9025.670     31.874   3.160  8.84190E-01  9.97063E-01 -1.12873E-01
    9026.639     32.843   3.200  8.83707E-01  9.96701E-01 -1.12994E-01
    9027.620     33.825   3.240  8.86971E-01  9.96368E-01 -1.09396E-01
    9028.614     34.819   3.280  8.93982E-01  9.96064E-01 -1.02081E-01
    9029.620     35.824   3.320  9.04018E-01  9.95770E-01 -9.17526E-02
    9030.638     36.842   3.360  9.16035E-01  9.95490E-01 -7.94544E-02
    9031.668     37.873   3.400  9.29017E-01  9.95265E-01 -6.62484E-02
    9032.711     38.915   3.440  9.42021E-01  9.95078E-01 -5.30579E-02
    9033.765     39.970   3.480  9.54631E-01  9.94909E-01 -4.02775E-02
    9034.832     41.036   3.520  9.66967E-01  9.94799E-01 -2.78325E-02
    9035.911     42.115   3.560  9.79003E-01  9.94708E-01 -1.57052E-02
    9037.002     43.207   3.600  9.90390E-01  9.94679E-01 -4.28837E-03
    9038.106     44.310   3.640  1.00038E+00  9.94689E-01  5.68678E-03
    9039.221     45.426   3.680  1.00836E+00  9.94719E-01  1.36428E-02
    9040.349     46.553   3.720  1.01441E+00  9.94811E-01  1.95943E-02
    9041.489     47.693   3.760  1.01905E+00  9.94943E-01  2.41062E-02
    9042.641     48.845   3.800  1.02296E+00  9.95117E-01  2.78386E-02
    9043.805     50.010   3.840  1.02657E+00  9.95331E-01  3.12383E-02
    9044.982     51.186   3.880  1.03024E+00  9.95585E-01  3.46544E-02
    9046.171     52.375   3.920  1.03426E+00  9.95877E-01  3.83812E-02
    9047.371     53.576   3.960  1.03876E+00  9.96207E-01  4.25525E-02
    9048.585     54.789   4.000  1.04361E+00  9.96573E-01  4.70416E-02
    9049.810     56.014   4.040  1.04836E+00  9.96955E-01  5.14053E-02
    9051.047     57.252   4.080  1.05221E+00  9.97393E-01  5.48147E-02
    9052.297     58.501   4.120  1.05420E+00  9.97843E-01  5.63597E-02
    9053.559     59.763   4.160  1.05388E+00  9.98303E-01  5.55760E-02
    9054.833     61.037   4.200  1.05155E+00  9.98816E-01  5.27380E-02
    9056.119     62.324   4.240  1.04809E+00  9.99318E-01  4.87684E-02
    9057.418     63.622   4.280  1.04463E+00  9.99869E-01  4.47572E-02
    9058.728     64.933   4.320  1.04200E+00  1.00040E+00  4.15935E-02
    9060.051     66.255   4.360  1.04062E+00  1.00097E+00  3.96509E-02
    9061.386     67.590   4.400  1.04036E+00  1.00153E+00  3.88332E-02
    9062.733     68.938   4.440  1.04085E+00  1.00210E+00  3.87530E-02
    9064.093     70.297   4.480  1.04157E+00  1.00268E+00  3.88886E-02
    9065.464     71.669   4.520  1.04195E+00  1.00325E+00  3.87040E-02
    9066.848     73.052   4.560  1.04160E+00  1.00381E+00  3.77907E-02
    9068.244     74.448   4.600  1.04031E+00  1.00436E+00  3.59429E-02
    9069.652     75.857   4.640  1.03805E+00  1.00489E+00  3.31622E-02
    9071.073     77.277   4.680  1.03503E+00  1.00543E+00  2.95961E-02
    9072.505     78.710   4.720  1.03138E+00  1.00595E+00  2.54279E-02
    9073.950     80.154   4.760  1.02726E+00  1.00643E+00  2.08274E-02
    9075.407     81.611   4.800  1.02287E+00  1.00690E+00  1.59751E-02
    9076.876     83.080   4.840  1.01826E+00  1.00733E+00  1.09318E-02
    9078.357     84.562   4.880  1.01337E+00  1.00775E+00  5.61907E-03
    9079.851     86.055   4.920  1.00804E+00  1.00814E+00 -1.05206E-04
    9081.356     87.561   4.960  1.00220E+00  1.00849E+00 -6.29423E-03
    9082.874     89.079   5.000  9.96022E-01  1.00883E+00 -1.28077E-02
    9084.404     90.609   5.040  9.89674E-01  1.00913E+00 -1.94512E-02
    9085.947     92.151   5.080  9.83280E-01  1.00936E+00 -2.60794E-02
    9087.501     93.706   5.120  9.77003E-01  1.00958E+00 -3.25719E-02
    9089.068     95.272   5.160  9.70932E-01  1.00975E+00 -3.88207E-02
    9090.647     96.851   5.200  9.65194E-01  1.00989E+00 -4.46944E-02
    9092.238     98.442   5.240  9.59928E-01  1.00998E+00 -5.00553E-02
    9093.841    100.045   5.280  9.55314E-01  1.01004E+00 -5.47252E-02
    9095.456    101.661   5.320  9.51577E-01  1.01005E+00 -5.84764E-02
    9097.084    103.288   5.360  9.48954E-01  1.01005E+00 -6.10962E-02
    9098.724    104.928   5.400  9.47530E-01  1.00998E+00 -6.24537E-02
    9100.376    106.580   5.440  9.47380E-01  1.00987E+00 -6.24935E-02
    9102.040    108.245   5.480  9.48628E-01  1.00972E+00 -6.10944E-02
    9103.717    109.921   5.520  9.51563E-01  1.00953E+00 -5.79699E-02
    9105.405    111.609   5.560  9.56594E-01  1.00933E+00 -5.27335E-02
    9107.106    113.310   5.600  9.63840E-01  1.00906E+00 -4.52201E-02
    9108.819    115.023   5.640  9.72872E-01  1.00878E+00 -3.59047E-02
    9110.544    116.748   5.680  9.82400E-01  1.00846E+00 -2.60561E-02
    9112.281    118.486   5.720  9.90803E-01  1.00810E+00 -1.72949E-02
    9114.031    120.235   5.760  9.96874E-01  1.00770E+00 -1.08286E-02
    9115.793    121.997   5.800  1.00033E+00  1.00727E+00 -6.94457E-03
    9117.567    123.771   5.840  1.00187E+00  1.00683E+00 -4.95793E-03
    9119.353    125.557   5.880  1.00285E+00  1.00636E+00 -3.51493E-03
    9121.151    127.355   5.920  1.00474E+00  1.00586E+00 -1.12075E-03
    9122.962    129.166   5.960  1.00862E+00  1.00536E+00  3.25211E-03
    9124.784    130.989   6.000  1.01488E+00  1.00485E+00  1.00260E-02
