# # comment:                                                     FEFF 9.9.1  
# # Source:
# # Structure
# # Reduced
# # space
# # abc:
# # angles:109.471221
# # sites:
# # POT  SCF 100  7.0000   0, screened core-hole, AFOLP (folp(0)= 1.150)
# # Abs   Z=29 Rmt= 1.231 Rnm= 1.304 K  shell
# # Pot 1 Z=11 Rmt= 1.510 Rnm= 1.510
# # Pot 2 Z=23 Rmt= 1.240 Rnm= 1.371
# # Pot 3 Z=29 Rmt= 1.231 Rnm= 1.304
# # Pot 4 Z= 8 Rmt= 1.002 Rnm= 1.096
# # Gam_ch=1.729E+00 H-L exch Vi= 0.000E+00 Vr= 0.000E+00
# # Mu=-1.053E+01eV kf=2.222E+00 Vint=-1.854E+01eV Rs_int= 1.632
# FMS rfms= 9.0000
# # PATH  Rmax=-1.000,  Keep_limit= 0.00, Heap_limit 0.00  Pwcrit= 2.50%
#  S02=0.950  Temp=   0.00  Debye_temp=   0.00  Global_sig2= 0.00000
#  Energy zero shift, vr, vi    0.00000E+00   0.00000E+00
#  Curved wave amplitude ratio filter   4.000%
#     file         sig2 tot  cw amp ratio   deg  nlegs   reff  inp sig2
#     0/   0 paths used
#  xsedge+ 50, used to normalize mu           2.4758E-04
#  -----------------------------------------------------------------------
#  omega    e    k    mu    mu0     chi     @#
    8984.862    -14.338  -1.000  3.42319E-02  5.00689E-02 -1.58370E-02
    8985.161    -14.039  -0.960  3.58457E-02  5.35932E-02 -1.77475E-02
    8985.448    -13.753  -0.920  3.75639E-02  5.74999E-02 -1.99360E-02
    8985.722    -13.478  -0.880  3.93967E-02  6.18446E-02 -2.24478E-02
    8985.984    -13.216  -0.840  4.13558E-02  6.66916E-02 -2.53359E-02
    8986.234    -12.966  -0.800  4.34544E-02  7.21158E-02 -2.86614E-02
    8986.472    -12.729  -0.760  4.57075E-02  7.82026E-02 -3.24951E-02
    8986.697    -12.503  -0.720  4.81320E-02  8.50485E-02 -3.69166E-02
    8986.911    -12.290  -0.680  5.07458E-02  9.27598E-02 -4.20140E-02
    8987.112    -12.088  -0.640  5.35679E-02  1.01448E-01 -4.78804E-02
    8987.301    -11.900  -0.600  5.66158E-02  1.11224E-01 -5.46079E-02
    8987.478    -11.723  -0.560  5.99035E-02  1.22179E-01 -6.22756E-02
    8987.642    -11.558  -0.520  6.34370E-02  1.34369E-01 -7.09324E-02
    8987.795    -11.406  -0.480  6.72082E-02  1.47781E-01 -8.05726E-02
    8987.935    -11.266  -0.440  7.11886E-02  1.62296E-01 -9.11073E-02
    8988.063    -11.138  -0.400  7.53230E-02  1.77664E-01 -1.02341E-01
    8988.179    -11.022  -0.360  7.95273E-02  1.93494E-01 -1.13966E-01
    8988.282    -10.918  -0.320  8.36916E-02  2.09273E-01 -1.25581E-01
    8988.374    -10.827  -0.280  8.76911E-02  2.24436E-01 -1.36745E-01
    8988.453    -10.747  -0.240  9.14001E-02  2.38437E-01 -1.47036E-01
    8988.520    -10.680  -0.200  9.47061E-02  2.50815E-01 -1.56109E-01
    8988.575    -10.625  -0.160  9.75184E-02  2.61234E-01 -1.63715E-01
    8988.618    -10.583  -0.120  9.97710E-02  2.69475E-01 -1.69704E-01
    8988.648    -10.552  -0.080  1.01419E-01  2.75415E-01 -1.73996E-01
    8988.672    -10.528   0.000  1.02780E-01  2.80189E-01 -1.77409E-01
    8988.727    -10.473   0.120  1.05786E-01  2.90967E-01 -1.85182E-01
    8988.770    -10.430   0.160  1.08100E-01  2.99341E-01 -1.91241E-01
    8988.825    -10.376   0.200  1.11082E-01  3.10067E-01 -1.98985E-01
    8988.892    -10.308   0.240  1.14665E-01  3.22969E-01 -2.08304E-01
    8988.971    -10.229   0.280  1.18830E-01  3.37827E-01 -2.18997E-01
    8989.063    -10.138   0.320  1.23474E-01  3.54285E-01 -2.30811E-01
    8989.166    -10.034   0.360  1.28431E-01  3.71878E-01 -2.43448E-01
    8989.282     -9.918   0.400  1.33458E-01  3.90151E-01 -2.56693E-01
    8989.410     -9.790   0.440  1.38260E-01  4.08631E-01 -2.70371E-01
    8989.550     -9.650   0.480  1.42530E-01  4.27002E-01 -2.84472E-01
    8989.703     -9.498   0.520  1.46037E-01  4.45033E-01 -2.98996E-01
    8989.867     -9.333   0.560  1.48847E-01  4.62624E-01 -3.13776E-01
    8990.044     -9.156   0.600  1.51485E-01  4.79725E-01 -3.28240E-01
    8990.233     -8.967   0.640  1.55031E-01  4.96426E-01 -3.41395E-01
    8990.434     -8.766   0.680  1.60675E-01  5.12746E-01 -3.52071E-01
    8990.648     -8.553   0.720  1.69545E-01  5.28774E-01 -3.59228E-01
    8990.873     -8.327   0.760  1.82554E-01  5.44618E-01 -3.62063E-01
    8991.111     -8.090   0.800  1.99910E-01  5.60277E-01 -3.60368E-01
    8991.361     -7.840   0.840  2.20919E-01  5.75860E-01 -3.54942E-01
    8991.623     -7.577   0.880  2.43971E-01  5.91383E-01 -3.47412E-01
    8991.897     -7.303   0.920  2.67852E-01  6.06871E-01 -3.39018E-01
    8992.184     -7.017   0.960  2.92985E-01  6.22336E-01 -3.29350E-01
    8992.482     -6.718   1.000  3.21298E-01  6.37763E-01 -3.16466E-01
    8992.793     -6.407   1.040  3.55400E-01  6.53190E-01 -2.97789E-01
    8993.116     -6.084   1.080  3.99214E-01  6.68585E-01 -2.69370E-01
    8993.452     -5.749   1.120  4.61808E-01  6.83914E-01 -2.22106E-01
    8993.799     -5.401   1.160  5.58219E-01  6.99155E-01 -1.40936E-01
    8994.159     -5.042   1.200  7.00122E-01  7.14303E-01 -1.41815E-02
    8994.531     -4.670   1.240  8.69666E-01  7.29314E-01  1.40351E-01
    8994.915     -4.286   1.280  9.84111E-01  7.44158E-01  2.39953E-01
    8995.311     -3.889   1.320  9.58858E-01  7.58803E-01  2.00055E-01
    8995.719     -3.481   1.360  8.33294E-01  7.73217E-01  6.00767E-02
    8996.140     -3.060   1.400  7.09828E-01  7.87369E-01 -7.75416E-02
    8996.573     -2.628   1.440  6.41468E-01  8.01227E-01 -1.59758E-01
    8997.018     -2.183   1.480  6.39850E-01  8.14755E-01 -1.74905E-01
    8997.475     -1.725   1.520  6.90537E-01  8.27902E-01 -1.37365E-01
    8997.944     -1.256   1.560  7.49476E-01  8.40675E-01 -9.11993E-02
    8998.426     -0.774   1.600  7.93363E-01  8.53046E-01 -5.96834E-02
    8998.920     -0.281   1.640  8.44840E-01  8.64964E-01 -2.01239E-02
    8999.426      0.225   1.680  9.02463E-01  8.76438E-01  2.60244E-02
    8999.944      0.744   1.720  9.50448E-01  8.87424E-01  6.30239E-02
    9000.474      1.274   1.760  9.87106E-01  8.97933E-01  8.91731E-02
    9001.017      1.816   1.800  9.99098E-01  9.07941E-01  9.11566E-02
    9001.571      2.371   1.840  9.73669E-01  9.17446E-01  5.62232E-02
    9002.138      2.938   1.880  9.41927E-01  9.26424E-01  1.55029E-02
    9002.718      3.517   1.920  9.37035E-01  9.34896E-01  2.13878E-03
    9003.309      4.109   1.960  9.60219E-01  9.42862E-01  1.73566E-02
    9003.912      4.712   2.000  1.01407E+00  9.50304E-01  6.37626E-02
    9004.528      5.328   2.040  1.10995E+00  9.57224E-01  1.52722E-01
    9005.156      5.956   2.080  1.22033E+00  9.63668E-01  2.56657E-01
    9005.796      6.596   2.120  1.27957E+00  9.69620E-01  3.09954E-01
    9006.448      7.248   2.160  1.28365E+00  9.75085E-01  3.08565E-01
    9007.113      7.912   2.200  1.26580E+00  9.80072E-01  2.85726E-01
    9007.789      8.589   2.240  1.23093E+00  9.84628E-01  2.46303E-01
    9008.478      9.278   2.280  1.18332E+00  9.88740E-01  1.94585E-01
    9009.179      9.979   2.320  1.15076E+00  9.92437E-01  1.58323E-01
    9009.892     10.692   2.360  1.16177E+00  9.95709E-01  1.66065E-01
    9010.618     11.418   2.400  1.21082E+00  9.98625E-01  2.12199E-01
    9011.356     12.155   2.440  1.26509E+00  1.00117E+00  2.63920E-01
    9012.105     12.905   2.480  1.29536E+00  1.00337E+00  2.91991E-01
    9012.867     13.667   2.520  1.28019E+00  1.00523E+00  2.74963E-01
    9013.642     14.441   2.560  1.21032E+00  1.00680E+00  2.03515E-01
    9014.428     15.228   2.600  1.10618E+00  1.00806E+00  9.81220E-02
    9015.226     16.026   2.640  1.01793E+00  1.00909E+00  8.84638E-03
    9016.037     16.837   2.680  9.75527E-01  1.00985E+00 -3.43185E-02
    9016.860     17.660   2.720  9.60753E-01  1.01037E+00 -4.96127E-02
    9017.695     18.495   2.760  9.55589E-01  1.01070E+00 -5.51091E-02
    9018.543     19.342   2.800  9.51618E-01  1.01081E+00 -5.91923E-02
    9019.402     20.202   2.840  9.47345E-01  1.01077E+00 -6.34288E-02
    9020.274     21.074   2.880  9.43381E-01  1.01055E+00 -6.71733E-02
    9021.158     21.958   2.920  9.39515E-01  1.01022E+00 -7.07072E-02
    9022.054     22.854   2.960  9.34054E-01  1.00972E+00 -7.56706E-02
    9022.962     23.762   3.000  9.25341E-01  1.00915E+00 -8.38084E-02
    9023.883     24.682   3.040  9.12825E-01  1.00846E+00 -9.56346E-02
    9024.815     25.615   3.080  8.97718E-01  1.00767E+00 -1.09948E-01
    9025.760     26.560   3.120  8.82211E-01  1.00682E+00 -1.24604E-01
    9026.717     27.517   3.160  8.68121E-01  1.00591E+00 -1.37792E-01
    9027.687     28.486   3.200  8.56493E-01  1.00495E+00 -1.48452E-01
    9028.668     29.468   3.240  8.48377E-01  1.00396E+00 -1.55581E-01
    9029.662     30.461   3.280  8.44117E-01  1.00293E+00 -1.58818E-01
    9030.668     31.467   3.320  8.43961E-01  1.00188E+00 -1.57919E-01
    9031.686     32.485   3.360  8.48250E-01  1.00084E+00 -1.52590E-01
    9032.716     33.515   3.400  8.56893E-01  9.99777E-01 -1.42884E-01
    9033.758     34.558   3.440  8.69262E-01  9.98715E-01 -1.29453E-01
    9034.813     35.613   3.480  8.84599E-01  9.97678E-01 -1.13079E-01
    9035.880     36.679   3.520  9.02181E-01  9.96651E-01 -9.44700E-02
    9036.959     37.758   3.560  9.21185E-01  9.95653E-01 -7.44687E-02
    9038.050     38.849   3.600  9.41086E-01  9.94690E-01 -5.36042E-02
    9039.153     39.953   3.640  9.61699E-01  9.93742E-01 -3.20427E-02
    9040.269     41.068   3.680  9.82909E-01  9.92831E-01 -9.92249E-03
    9041.396     42.196   3.720  1.00421E+00  9.91984E-01  1.22219E-02
    9042.536     43.336   3.760  1.02440E+00  9.91179E-01  3.32228E-02
    9043.689     44.488   3.800  1.04169E+00  9.90416E-01  5.12730E-02
    9044.853     45.653   3.840  1.05415E+00  9.89695E-01  6.44562E-02
    9046.029     46.829   3.880  1.06063E+00  9.89020E-01  7.16095E-02
    9047.218     48.018   3.920  1.06089E+00  9.88412E-01  7.24812E-02
    9048.419     49.219   3.960  1.05536E+00  9.87851E-01  6.75137E-02
    9049.632     50.432   4.000  1.04480E+00  9.87357E-01  5.74473E-02
    9050.857     51.657   4.040  1.02994E+00  9.86910E-01  4.30290E-02
    9052.095     52.895   4.080  1.01192E+00  9.86511E-01  2.54101E-02
    9053.345     54.144   4.120  9.92960E-01  9.86178E-01  6.78271E-03
    9054.606     55.406   4.160  9.76332E-01  9.85890E-01 -9.55802E-03
    9055.881     56.680   4.200  9.65682E-01  9.85651E-01 -1.99691E-02
    9057.167     57.966   4.240  9.64004E-01  9.85481E-01 -2.14777E-02
    9058.465     59.265   4.280  9.72849E-01  9.85377E-01 -1.25281E-02
    9059.776     60.576   4.320  9.91774E-01  9.85297E-01  6.47749E-03
    9061.099     61.898   4.360  1.01820E+00  9.85282E-01  3.29178E-02
    9062.434     63.233   4.400  1.04756E+00  9.85310E-01  6.22536E-02
    9063.781     64.581   4.440  1.07436E+00  9.85379E-01  8.89764E-02
    9065.140     65.940   4.480  1.09366E+00  9.85492E-01  1.08171E-01
    9066.512     67.312   4.520  1.10247E+00  9.85666E-01  1.16807E-01
    9067.896     68.695   4.560  1.10047E+00  9.85857E-01  1.14609E-01
    9069.292     70.091   4.600  1.08971E+00  9.86084E-01  1.03625E-01
    9070.700     71.500   4.640  1.07358E+00  9.86349E-01  8.72262E-02
    9072.120     72.920   4.680  1.05555E+00  9.86648E-01  6.89039E-02
    9073.553     74.352   4.720  1.03844E+00  9.86959E-01  5.14844E-02
    9074.998     75.797   4.760  1.02419E+00  9.87303E-01  3.68890E-02
    9076.454     77.254   4.800  1.01372E+00  9.87679E-01  2.60380E-02
    9077.924     78.723   4.840  1.00690E+00  9.88062E-01  1.88361E-02
    9079.405     80.205   4.880  1.00307E+00  9.88450E-01  1.46189E-02
    9080.898     81.698   4.920  1.00160E+00  9.88865E-01  1.27317E-02
    9082.404     83.204   4.960  1.00186E+00  9.89285E-01  1.25728E-02
    9083.922     84.722   5.000  1.00292E+00  9.89708E-01  1.32159E-02
    9085.452     86.252   5.040  1.00327E+00  9.90132E-01  1.31341E-02
    9086.994     87.794   5.080  1.00134E+00  9.90577E-01  1.07671E-02
    9088.549     89.349   5.120  9.95873E-01  9.90999E-01  4.87401E-03
    9090.116     90.915   5.160  9.85979E-01  9.91416E-01 -5.43711E-03
    9091.694     92.494   5.200  9.71242E-01  9.91827E-01 -2.05842E-02
    9093.285     94.085   5.240  9.52166E-01  9.92210E-01 -4.00440E-02
    9094.889     95.688   5.280  9.30661E-01  9.92587E-01 -6.19254E-02
    9096.504     97.304   5.320  9.09411E-01  9.92955E-01 -8.35438E-02
    9098.132     98.931   5.360  8.90895E-01  9.93293E-01 -1.02398E-01
    9099.772    100.571   5.400  8.76806E-01  9.93621E-01 -1.16815E-01
    9101.424    102.223   5.440  8.67971E-01  9.93916E-01 -1.25945E-01
    9103.088    103.887   5.480  8.64669E-01  9.94197E-01 -1.29528E-01
    9104.764    105.564   5.520  8.66729E-01  9.94419E-01 -1.27690E-01
    9106.453    107.252   5.560  8.73723E-01  9.94628E-01 -1.20905E-01
    9108.154    108.953   5.600  8.84874E-01  9.94802E-01 -1.09929E-01
    9109.866    110.666   5.640  8.99486E-01  9.94961E-01 -9.54752E-02
    9111.592    112.391   5.680  9.17230E-01  9.95059E-01 -7.78290E-02
    9113.329    114.129   5.720  9.38383E-01  9.95142E-01 -5.67593E-02
    9115.079    115.878   5.760  9.63390E-01  9.95190E-01 -3.17997E-02
    9116.840    117.640   5.800  9.92390E-01  9.95196E-01 -2.80662E-03
    9118.614    119.414   5.840  1.02429E+00  9.95162E-01  2.91280E-02
    9120.400    121.200   5.880  1.05591E+00  9.95065E-01  6.08495E-02
    9122.199    122.998   5.920  1.08275E+00  9.94957E-01  8.77951E-02
    9124.009    124.809   5.960  1.10102E+00  9.94835E-01  1.06182E-01
    9125.832    126.631   6.000  1.10887E+00  9.94625E-01  1.14243E-01
