# # comment:                                                     FEFF 9.9.1  
# # Source:
# # Structure
# # Reduced
# # space
# # abc:
# # angles:109.471221
# # sites:
# # POT  SCF 100  7.0000   0, screened core-hole, AFOLP (folp(0)= 1.150)
# # Abs   Z=29 Rmt= 1.163 Rnm= 1.269 K  shell
# # Pot 1 Z=65 Rmt= 1.710 Rnm= 1.756
# # Pot 2 Z=26 Rmt= 1.298 Rnm= 1.399
# # Pot 3 Z=29 Rmt= 1.163 Rnm= 1.269
# # Pot 4 Z= 8 Rmt= 1.029 Rnm= 1.100
# # Gam_ch=1.729E+00 H-L exch Vi= 0.000E+00 Vr= 0.000E+00
# # Mu=-1.015E+01eV kf=2.173E+00 Vint=-1.772E+01eV Rs_int= 1.669
# FMS rfms= 9.0000
# # PATH  Rmax=-1.000,  Keep_limit= 0.00, Heap_limit 0.00  Pwcrit= 2.50%
#  S02=0.950  Temp=   0.00  Debye_temp=   0.00  Global_sig2= 0.00000
#  Energy zero shift, vr, vi    0.00000E+00   0.00000E+00
#  Curved wave amplitude ratio filter   4.000%
#     file         sig2 tot  cw amp ratio   deg  nlegs   reff  inp sig2
#     0/   0 paths used
#  xsedge+ 50, used to normalize mu           2.4721E-04
#  -----------------------------------------------------------------------
#  omega    e    k    mu    mu0     chi     @#
    8984.389    -13.957  -1.000  3.25674E-02  5.10806E-02 -1.85132E-02
    8984.688    -13.658  -0.960  3.40554E-02  5.46709E-02 -2.06155E-02
    8984.974    -13.372  -0.920  3.56342E-02  5.86488E-02 -2.30146E-02
    8985.248    -13.098  -0.880  3.73115E-02  6.30702E-02 -2.57587E-02
    8985.511    -12.835  -0.840  3.90953E-02  6.80001E-02 -2.89048E-02
    8985.761    -12.586  -0.800  4.09945E-02  7.35137E-02 -3.25191E-02
    8985.998    -12.348  -0.760  4.30189E-02  7.96970E-02 -3.66780E-02
    8986.224    -12.122  -0.720  4.51785E-02  8.66471E-02 -4.14685E-02
    8986.437    -11.909  -0.680  4.74837E-02  9.44707E-02 -4.69870E-02
    8986.638    -11.708  -0.640  4.99442E-02  1.03280E-01 -5.33359E-02
    8986.827    -11.519  -0.600  5.25683E-02  1.13186E-01 -6.06172E-02
    8987.004    -11.342  -0.560  5.53605E-02  1.24280E-01 -6.89196E-02
    8987.169    -11.177  -0.520  5.83196E-02  1.36619E-01 -7.82991E-02
    8987.321    -11.025  -0.480  6.14346E-02  1.50187E-01 -8.87523E-02
    8987.461    -10.885  -0.440  6.46811E-02  1.64866E-01 -1.00185E-01
    8987.589    -10.757  -0.400  6.80184E-02  1.80404E-01 -1.12386E-01
    8987.705    -10.641  -0.360  7.13873E-02  1.96405E-01 -1.25018E-01
    8987.809    -10.537  -0.320  7.47130E-02  2.12355E-01 -1.37642E-01
    8987.900    -10.446  -0.280  7.79104E-02  2.27684E-01 -1.49774E-01
    8987.979    -10.367  -0.240  8.08918E-02  2.41840E-01 -1.60948E-01
    8988.047    -10.300  -0.200  8.35737E-02  2.54359E-01 -1.70785E-01
    8988.101    -10.245  -0.160  8.58817E-02  2.64899E-01 -1.79017E-01
    8988.144    -10.202  -0.120  8.77518E-02  2.73239E-01 -1.85487E-01
    8988.175    -10.172  -0.080  8.91327E-02  2.79252E-01 -1.90119E-01
    8988.199    -10.147   0.000  9.02810E-02  2.84087E-01 -1.93806E-01
    8988.254    -10.092   0.120  9.30235E-02  2.95000E-01 -2.01977E-01
    8988.296    -10.050   0.160  9.51337E-02  3.03489E-01 -2.08355E-01
    8988.351     -9.995   0.200  9.79112E-02  3.14358E-01 -2.16447E-01
    8988.418     -9.928   0.240  1.01389E-01  3.27457E-01 -2.26068E-01
    8988.498     -9.848   0.280  1.05623E-01  3.42548E-01 -2.36925E-01
    8988.589     -9.757   0.320  1.10668E-01  3.59279E-01 -2.48611E-01
    8988.693     -9.653   0.360  1.16594E-01  3.77212E-01 -2.60618E-01
    8988.809     -9.538   0.400  1.23409E-01  3.95873E-01 -2.72464E-01
    8988.937     -9.410   0.440  1.31047E-01  4.14793E-01 -2.83746E-01
    8989.077     -9.269   0.480  1.39340E-01  4.33678E-01 -2.94338E-01
    8989.229     -9.117   0.520  1.47891E-01  4.52275E-01 -3.04384E-01
    8989.394     -8.952   0.560  1.56186E-01  4.70468E-01 -3.14282E-01
    8989.571     -8.776   0.600  1.63818E-01  4.88286E-01 -3.24468E-01
    8989.760     -8.587   0.640  1.70457E-01  5.05696E-01 -3.35239E-01
    8989.961     -8.385   0.680  1.76022E-01  5.22816E-01 -3.46794E-01
    8990.174     -8.172   0.720  1.80483E-01  5.39692E-01 -3.59209E-01
    8990.400     -7.946   0.760  1.84406E-01  5.56411E-01 -3.72005E-01
    8990.637     -7.709   0.800  1.89237E-01  5.73007E-01 -3.83770E-01
    8990.887     -7.459   0.840  1.97568E-01  5.89527E-01 -3.91960E-01
    8991.149     -7.197   0.880  2.12436E-01  6.06024E-01 -3.93588E-01
    8991.424     -6.922   0.920  2.37023E-01  6.22517E-01 -3.85494E-01
    8991.710     -6.636   0.960  2.75011E-01  6.38977E-01 -3.63966E-01
    8992.009     -6.337   1.000  3.30291E-01  6.55445E-01 -3.25153E-01
    8992.320     -6.026   1.040  4.02692E-01  6.71872E-01 -2.69181E-01
    8992.643     -5.703   1.080  4.80279E-01  6.88246E-01 -2.07966E-01
    8992.978     -5.368   1.120  5.45954E-01  7.04565E-01 -1.58610E-01
    8993.326     -5.020   1.160  6.06918E-01  7.20785E-01 -1.13867E-01
    8993.685     -4.661   1.200  6.90978E-01  7.36859E-01 -4.58806E-02
    8994.057     -4.289   1.240  7.91125E-01  7.52755E-01  3.83704E-02
    8994.441     -3.905   1.280  8.35258E-01  7.68440E-01  6.68185E-02
    8994.837     -3.509   1.320  7.71477E-01  7.83859E-01 -1.23826E-02
    8995.246     -3.100   1.360  6.52068E-01  7.99000E-01 -1.46932E-01
    8995.667     -2.680   1.400  5.52252E-01  8.13805E-01 -2.61554E-01
    8996.099     -2.247   1.440  4.98650E-01  8.28260E-01 -3.29610E-01
    8996.544     -1.802   1.480  4.81994E-01  8.42287E-01 -3.60293E-01
    8997.002     -1.345   1.520  4.85454E-01  8.55875E-01 -3.70421E-01
    8997.471     -0.875   1.560  4.99248E-01  8.69010E-01 -3.69762E-01
    8997.952     -0.394   1.600  5.25518E-01  8.81639E-01 -3.56120E-01
    8998.446      0.100   1.640  5.67848E-01  8.93752E-01 -3.25905E-01
    8998.952      0.606   1.680  6.22483E-01  9.05322E-01 -2.82839E-01
    8999.470      1.124   1.720  6.91166E-01  9.16339E-01 -2.25173E-01
    9000.001      1.655   1.760  7.73077E-01  9.26779E-01 -1.53702E-01
    9000.543      2.197   1.800  8.51612E-01  9.36659E-01 -8.50473E-02
    9001.098      2.752   1.840  9.17120E-01  9.45936E-01 -2.88153E-02
    9001.665      3.319   1.880  9.59311E-01  9.54628E-01  4.68339E-03
    9002.244      3.898   1.920  9.74353E-01  9.62737E-01  1.16160E-02
    9002.835      4.489   1.960  9.96893E-01  9.70268E-01  2.66252E-02
    9003.439      5.093   2.000  1.05462E+00  9.77223E-01  7.73953E-02
    9004.055      5.708   2.040  1.12936E+00  9.83608E-01  1.45752E-01
    9004.682      6.336   2.080  1.18607E+00  9.89449E-01  1.96621E-01
    9005.323      6.976   2.120  1.22551E+00  9.94755E-01  2.30758E-01
    9005.975      7.629   2.160  1.26732E+00  9.99532E-01  2.67785E-01
    9006.639      8.293   2.200  1.33148E+00  1.00381E+00  3.27669E-01
    9007.316      8.970   2.240  1.42398E+00  1.00758E+00  4.16397E-01
    9008.005      9.659   2.280  1.50361E+00  1.01092E+00  4.92696E-01
    9008.706     10.360   2.320  1.52225E+00  1.01380E+00  5.08452E-01
    9009.419     11.073   2.360  1.48696E+00  1.01625E+00  4.70710E-01
    9010.144     11.798   2.400  1.42392E+00  1.01832E+00  4.05592E-01
    9010.882     12.536   2.440  1.35117E+00  1.02002E+00  3.31149E-01
    9011.632     13.286   2.480  1.28384E+00  1.02136E+00  2.62473E-01
    9012.394     14.048   2.520  1.23302E+00  1.02237E+00  2.10648E-01
    9013.168     14.822   2.560  1.19838E+00  1.02309E+00  1.75293E-01
    9013.954     15.608   2.600  1.17033E+00  1.02352E+00  1.46810E-01
    9014.753     16.407   2.640  1.13853E+00  1.02370E+00  1.14825E-01
    9015.564     17.218   2.680  1.09936E+00  1.02364E+00  7.57257E-02
    9016.387     18.041   2.720  1.06244E+00  1.02334E+00  3.90981E-02
    9017.222     18.876   2.760  1.03437E+00  1.02286E+00  1.15057E-02
    9018.069     19.723   2.800  1.01622E+00  1.02220E+00 -5.98183E-03
    9018.929     20.583   2.840  1.00574E+00  1.02139E+00 -1.56441E-02
    9019.800     21.454   2.880  9.97932E-01  1.02043E+00 -2.24954E-02
    9020.684     22.338   2.920  9.88375E-01  1.01934E+00 -3.09669E-02
    9021.580     23.234   2.960  9.74898E-01  1.01816E+00 -4.32640E-02
    9022.489     24.143   3.000  9.57375E-01  1.01688E+00 -5.95014E-02
    9023.409     25.063   3.040  9.37348E-01  1.01553E+00 -7.81835E-02
    9024.342     25.996   3.080  9.17704E-01  1.01411E+00 -9.64104E-02
    9025.287     26.941   3.120  9.01228E-01  1.01265E+00 -1.11423E-01
    9026.244     27.898   3.160  8.89132E-01  1.01117E+00 -1.22039E-01
    9027.213     28.867   3.200  8.81603E-01  1.00964E+00 -1.28034E-01
    9028.195     29.849   3.240  8.78032E-01  1.00812E+00 -1.30083E-01
    9029.188     30.842   3.280  8.76862E-01  1.00657E+00 -1.29708E-01
    9030.194     31.848   3.320  8.76814E-01  1.00505E+00 -1.28234E-01
    9031.212     32.866   3.360  8.77088E-01  1.00353E+00 -1.26444E-01
    9032.242     33.896   3.400  8.77177E-01  1.00205E+00 -1.24869E-01
    9033.285     34.939   3.440  8.76663E-01  1.00057E+00 -1.23909E-01
    9034.339     35.993   3.480  8.75571E-01  9.99138E-01 -1.23567E-01
    9035.406     37.060   3.520  8.74430E-01  9.97765E-01 -1.23334E-01
    9036.485     38.139   3.560  8.74135E-01  9.96413E-01 -1.22278E-01
    9037.576     39.230   3.600  8.75979E-01  9.95129E-01 -1.19150E-01
    9038.680     40.334   3.640  8.80970E-01  9.93914E-01 -1.12944E-01
    9039.795     41.449   3.680  8.89496E-01  9.92748E-01 -1.03252E-01
    9040.923     42.577   3.720  9.01290E-01  9.91633E-01 -9.03431E-02
    9042.063     43.717   3.760  9.15740E-01  9.90612E-01 -7.48719E-02
    9043.215     44.869   3.800  9.31729E-01  9.89644E-01 -5.79145E-02
    9044.379     46.033   3.840  9.47760E-01  9.88729E-01 -4.09692E-02
    9045.556     47.210   3.880  9.62229E-01  9.87912E-01 -2.56834E-02
    9046.745     48.399   3.920  9.73690E-01  9.87151E-01 -1.34613E-02
    9047.946     49.600   3.960  9.81451E-01  9.86488E-01 -5.03732E-03
    9049.159     50.813   4.000  9.85779E-01  9.85882E-01 -1.03334E-04
    9050.384     52.038   4.040  9.88092E-01  9.85352E-01  2.73933E-03
    9051.621     53.275   4.080  9.90480E-01  9.84898E-01  5.58268E-03
    9052.871     54.525   4.120  9.94950E-01  9.84499E-01  1.04515E-02
    9054.133     55.787   4.160  1.00278E+00  9.84197E-01  1.85781E-02
    9055.407     57.061   4.200  1.01371E+00  9.83952E-01  2.97571E-02
    9056.693     58.347   4.240  1.02617E+00  9.83781E-01  4.23843E-02
    9057.992     59.646   4.280  1.03805E+00  9.83683E-01  5.43645E-02
    9059.302     60.956   4.320  1.04778E+00  9.83638E-01  6.41394E-02
    9060.625     62.279   4.360  1.05472E+00  9.83665E-01  7.10539E-02
    9061.960     63.614   4.400  1.05877E+00  9.83765E-01  7.50038E-02
    9063.307     64.961   4.440  1.05970E+00  9.83911E-01  7.57936E-02
    9064.667     66.321   4.480  1.05704E+00  9.84106E-01  7.29326E-02
    9066.038     67.692   4.520  1.05081E+00  9.84367E-01  6.64394E-02
    9067.422     69.076   4.560  1.04237E+00  9.84672E-01  5.76962E-02
    9068.818     70.472   4.600  1.03417E+00  9.85018E-01  4.91515E-02
    9070.226     71.880   4.640  1.02859E+00  9.85405E-01  4.31871E-02
    9071.647     73.301   4.680  1.02699E+00  9.85833E-01  4.11607E-02
    9073.079     74.733   4.720  1.02937E+00  9.86297E-01  4.30706E-02
    9074.524     76.178   4.760  1.03481E+00  9.86797E-01  4.80114E-02
    9075.981     77.635   4.800  1.04207E+00  9.87312E-01  5.47593E-02
    9077.450     79.104   4.840  1.04991E+00  9.87880E-01  6.20331E-02
    9078.931     80.585   4.880  1.05677E+00  9.88435E-01  6.83345E-02
    9080.425     82.079   4.920  1.06089E+00  9.89019E-01  7.18678E-02
    9081.931     83.585   4.960  1.06084E+00  9.89630E-01  7.12085E-02
    9083.449     85.102   5.000  1.05647E+00  9.90224E-01  6.62436E-02
    9084.979     86.633   5.040  1.04903E+00  9.90841E-01  5.81919E-02
    9086.521     88.175   5.080  1.04020E+00  9.91458E-01  4.87443E-02
    9088.075     89.729   5.120  1.03111E+00  9.92074E-01  3.90323E-02
    9089.642     91.296   5.160  1.02177E+00  9.92665E-01  2.91095E-02
    9091.221     92.875   5.200  1.01140E+00  9.93272E-01  1.81290E-02
    9092.812     94.466   5.240  9.98929E-01  9.93850E-01  5.07937E-03
    9094.415     96.069   5.280  9.83988E-01  9.94396E-01 -1.04087E-02
    9096.031     97.685   5.320  9.67206E-01  9.94934E-01 -2.77283E-02
    9097.658     99.312   5.360  9.49869E-01  9.95461E-01 -4.55926E-02
    9099.298    100.952   5.400  9.33501E-01  9.95954E-01 -6.24538E-02
    9100.950    102.604   5.440  9.19696E-01  9.96410E-01 -7.67149E-02
    9102.614    104.268   5.480  9.09964E-01  9.96828E-01 -8.68643E-02
    9104.291    105.945   5.520  9.05362E-01  9.97208E-01 -9.18462E-02
    9105.979    107.633   5.560  9.06181E-01  9.97573E-01 -9.13925E-02
    9107.680    109.334   5.600  9.11938E-01  9.97898E-01 -8.59599E-02
    9109.393    111.047   5.640  9.21721E-01  9.98160E-01 -7.64388E-02
    9111.118    112.772   5.680  9.34638E-01  9.98401E-01 -6.37627E-02
    9112.856    114.509   5.720  9.49848E-01  9.98576E-01 -4.87284E-02
    9114.605    116.259   5.760  9.66670E-01  9.98709E-01 -3.20391E-02
    9116.367    118.021   5.800  9.84199E-01  9.98799E-01 -1.46002E-02
    9118.141    119.795   5.840  1.00112E+00  9.98847E-01  2.26883E-03
    9119.927    121.581   5.880  1.01563E+00  9.98851E-01  1.67749E-02
    9121.725    123.379   5.920  1.02586E+00  9.98787E-01  2.70694E-02
    9123.536    125.190   5.960  1.03053E+00  9.98672E-01  3.18587E-02
    9125.358    127.012   6.000  1.02896E+00  9.98479E-01  3.04782E-02
