# # comment:                                                     FEFF 9.9.1  
# # Source:
# # Structure
# # Reduced
# # space
# # abc:
# # angles:
# # sites:
# # POT  SCF 100  7.0000   0, screened core-hole, AFOLP (folp(0)= 1.150)
# # Abs   Z=29 Rmt= 1.301 Rnm= 1.392 K  shell
# # Pot 1 Z= 3 Rmt= 1.266 Rnm= 1.328
# # Pot 2 Z=29 Rmt= 1.372 Rnm= 1.422
# # Pot 3 Z=15 Rmt= 0.945 Rnm= 1.156
# # Pot 4 Z= 8 Rmt= 0.917 Rnm= 1.036
# # Gam_ch=1.729E+00 H-L exch Vi= 0.000E+00 Vr= 0.000E+00
# # Mu=-5.763E+00eV kf=2.394E+00 Vint=-1.696E+01eV Rs_int= 1.515
# FMS rfms= 9.0000
# # PATH  Rmax=-1.000,  Keep_limit= 0.00, Heap_limit 0.00  Pwcrit= 2.50%
#  S02=0.950  Temp=   0.00  Debye_temp=   0.00  Global_sig2= 0.00000
#  Energy zero shift, vr, vi    0.00000E+00   0.00000E+00
#  Curved wave amplitude ratio filter   4.000%
#     file         sig2 tot  cw amp ratio   deg  nlegs   reff  inp sig2
#     0/   0 paths used
#  xsedge+ 50, used to normalize mu           2.4796E-04
#  -----------------------------------------------------------------------
#  omega    e    k    mu    mu0     chi     @#
    8983.548     -9.573  -1.000  5.70120E-02  5.61258E-02  8.86126E-04
    8983.847     -9.274  -0.960  6.13613E-02  6.02943E-02  1.06704E-03
    8984.133     -8.988  -0.920  6.62355E-02  6.49359E-02  1.29956E-03
    8984.408     -8.714  -0.880  7.17198E-02  7.01215E-02  1.59835E-03
    8984.670     -8.452  -0.840  7.79152E-02  7.59333E-02  1.98189E-03
    8984.920     -8.202  -0.800  8.49403E-02  8.24670E-02  2.47327E-03
    8985.157     -7.964  -0.760  9.29334E-02  8.98326E-02  3.10087E-03
    8985.383     -7.738  -0.720  1.02053E-01  9.81543E-02  3.89899E-03
    8985.596     -7.525  -0.680  1.12477E-01  1.07569E-01  4.90793E-03
    8985.798     -7.324  -0.640  1.24396E-01  1.18223E-01  6.17319E-03
    8985.987     -7.135  -0.600  1.38001E-01  1.30258E-01  7.74305E-03
    8986.163     -6.958  -0.560  1.53460E-01  1.43796E-01  9.66362E-03
    8986.328     -6.793  -0.520  1.70882E-01  1.58912E-01  1.19706E-02
    8986.480     -6.641  -0.480  1.90267E-01  1.75589E-01  1.46773E-02
    8986.620     -6.501  -0.440  2.11444E-01  1.93683E-01  1.77607E-02
    8986.749     -6.373  -0.400  2.34023E-01  2.12874E-01  2.11493E-02
    8986.864     -6.257  -0.360  2.57380E-01  2.32661E-01  2.47189E-02
    8986.968     -6.153  -0.320  2.80699E-01  2.52395E-01  2.83031E-02
    8987.059     -6.062  -0.280  3.03073E-01  2.71354E-01  3.17187E-02
    8987.139     -5.983  -0.240  3.23645E-01  2.88846E-01  3.47994E-02
    8987.206     -5.916  -0.200  3.41717E-01  3.04293E-01  3.74240E-02
    8987.261     -5.861  -0.160  3.56808E-01  3.17276E-01  3.95313E-02
    8987.303     -5.818  -0.120  3.68645E-01  3.27531E-01  4.11143E-02
    8987.334     -5.788  -0.080  3.77111E-01  3.34913E-01  4.21975E-02
    8987.358     -5.763   0.000  3.83837E-01  3.40841E-01  4.29965E-02
    8987.413     -5.708   0.120  3.98456E-01  3.54205E-01  4.42517E-02
    8987.456     -5.666   0.160  4.09822E-01  3.64562E-01  4.52594E-02
    8987.511     -5.611   0.200  4.24157E-01  3.77771E-01  4.63863E-02
    8987.578     -5.544   0.240  4.41057E-01  3.93634E-01  4.74234E-02
    8987.657     -5.464   0.280  4.59868E-01  4.11807E-01  4.80606E-02
    8987.748     -5.373   0.320  4.79639E-01  4.31773E-01  4.78651E-02
    8987.852     -5.269   0.360  4.99198E-01  4.52924E-01  4.62746E-02
    8987.968     -5.154   0.400  5.17217E-01  4.74588E-01  4.26292E-02
    8988.096     -5.026   0.440  5.32408E-01  4.96195E-01  3.62124E-02
    8988.236     -4.885   0.480  5.43613E-01  5.17292E-01  2.63207E-02
    8988.388     -4.733   0.520  5.49921E-01  5.37528E-01  1.23938E-02
    8988.553     -4.568   0.560  5.51043E-01  5.56829E-01 -5.78667E-03
    8988.730     -4.392   0.600  5.47277E-01  5.75106E-01 -2.78293E-02
    8988.919     -4.203   0.640  5.39981E-01  5.92466E-01 -5.24852E-02
    8989.120     -4.001   0.680  5.31346E-01  6.08999E-01 -7.76529E-02
    8989.333     -3.788   0.720  5.24103E-01  6.24813E-01 -1.00709E-01
    8989.559     -3.563   0.760  5.21002E-01  6.40012E-01 -1.19011E-01
    8989.796     -3.325   0.800  5.24444E-01  6.54713E-01 -1.30268E-01
    8990.046     -3.075   0.840  5.35887E-01  6.68995E-01 -1.33108E-01
    8990.309     -2.813   0.880  5.54868E-01  6.82929E-01 -1.28061E-01
    8990.583     -2.538   0.920  5.78629E-01  6.96585E-01 -1.17956E-01
    8990.869     -2.252   0.960  6.03864E-01  7.10003E-01 -1.06140E-01
    8991.168     -1.953   1.000  6.29446E-01  7.23189E-01 -9.37432E-02
    8991.479     -1.642   1.040  6.56104E-01  7.36200E-01 -8.00961E-02
    8991.802     -1.319   1.080  6.83639E-01  7.49026E-01 -6.53867E-02
    8992.137     -0.984   1.120  7.10568E-01  7.61667E-01 -5.10988E-02
    8992.485     -0.636   1.160  7.36092E-01  7.74158E-01 -3.80667E-02
    8992.844     -0.277   1.200  7.61011E-01  7.86451E-01 -2.54408E-02
    8993.216      0.095   1.240  7.87113E-01  7.98552E-01 -1.14398E-02
    8993.600      0.479   1.280  8.16636E-01  8.10446E-01  6.19053E-03
    8993.997      0.875   1.320  8.48405E-01  8.22131E-01  2.62735E-02
    8994.405      1.284   1.360  8.77675E-01  8.33567E-01  4.41083E-02
    8994.826      1.704   1.400  9.04338E-01  8.44773E-01  5.95650E-02
    8995.258      2.137   1.440  9.29417E-01  8.55684E-01  7.37327E-02
    8995.703      2.582   1.480  9.49290E-01  8.66316E-01  8.29744E-02
    8996.161      3.039   1.520  9.64196E-01  8.76664E-01  8.75316E-02
    8996.630      3.509   1.560  9.82451E-01  8.86665E-01  9.57862E-02
    8997.112      3.990   1.600  1.00755E+00  8.96332E-01  1.11222E-01
    8997.605      4.484   1.640  1.03456E+00  9.05662E-01  1.28898E-01
    8998.111      4.990   1.680  1.05862E+00  9.14630E-01  1.43992E-01
    8998.630      5.508   1.720  1.07682E+00  9.23213E-01  1.53606E-01
    8999.160      6.039   1.760  1.08581E+00  9.31406E-01  1.54402E-01
    8999.702      6.581   1.800  1.08524E+00  9.39228E-01  1.46015E-01
    9000.257      7.136   1.840  1.07963E+00  9.46637E-01  1.32992E-01
    9000.824      7.703   1.880  1.07276E+00  9.53652E-01  1.19107E-01
    9001.403      8.282   1.920  1.06818E+00  9.60253E-01  1.07928E-01
    9001.995      8.873   1.960  1.06958E+00  9.66440E-01  1.03137E-01
    9002.598      9.477   2.000  1.07555E+00  9.72235E-01  1.03314E-01
    9003.214     10.092   2.040  1.08023E+00  9.77641E-01  1.02585E-01
    9003.842     10.720   2.080  1.08027E+00  9.82639E-01  9.76328E-02
    9004.482     11.360   2.120  1.07611E+00  9.87233E-01  8.88775E-02
    9005.134     12.013   2.160  1.06671E+00  9.91447E-01  7.52647E-02
    9005.798     12.677   2.200  1.05147E+00  9.95307E-01  5.61619E-02
    9006.475     13.354   2.240  1.03531E+00  9.98777E-01  3.65276E-02
    9007.164     14.043   2.280  1.02190E+00  1.00190E+00  1.99956E-02
    9007.865     14.744   2.320  1.01148E+00  1.00467E+00  6.80952E-03
    9008.578     15.457   2.360  1.00538E+00  1.00713E+00 -1.75553E-03
    9009.304     16.182   2.400  1.00515E+00  1.00927E+00 -4.11692E-03
    9010.041     16.920   2.440  1.01020E+00  1.01108E+00 -8.82767E-04
    9010.791     17.670   2.480  1.01896E+00  1.01263E+00  6.33065E-03
    9011.553     18.432   2.520  1.02977E+00  1.01388E+00  1.58877E-02
    9012.327     19.206   2.560  1.04027E+00  1.01489E+00  2.53759E-02
    9013.114     19.992   2.600  1.04627E+00  1.01564E+00  3.06345E-02
    9013.912     20.791   2.640  1.04407E+00  1.01617E+00  2.78993E-02
    9014.723     21.602   2.680  1.03473E+00  1.01649E+00  1.82428E-02
    9015.546     22.425   2.720  1.02486E+00  1.01660E+00  8.26193E-03
    9016.381     23.260   2.760  1.02033E+00  1.01654E+00  3.78290E-03
    9017.228     24.107   2.800  1.01954E+00  1.01630E+00  3.24293E-03
    9018.088     24.967   2.840  1.01537E+00  1.01591E+00 -5.37834E-04
    9018.960     25.838   2.880  1.00682E+00  1.01537E+00 -8.55154E-03
    9019.844     26.722   2.920  9.96567E-01  1.01470E+00 -1.81332E-02
    9020.740     27.618   2.960  9.86971E-01  1.01391E+00 -2.69418E-02
    9021.648     28.527   3.000  9.79123E-01  1.01303E+00 -3.39109E-02
    9022.568     29.447   3.040  9.73104E-01  1.01207E+00 -3.89663E-02
    9023.501     30.380   3.080  9.68371E-01  1.01103E+00 -4.26542E-02
    9024.446     31.325   3.120  9.64209E-01  1.00993E+00 -4.57185E-02
    9025.403     32.282   3.160  9.59986E-01  1.00876E+00 -4.87750E-02
    9026.372     33.251   3.200  9.55341E-01  1.00755E+00 -5.22081E-02
    9027.354     34.232   3.240  9.50433E-01  1.00632E+00 -5.58868E-02
    9028.347     35.226   3.280  9.45817E-01  1.00504E+00 -5.92193E-02
    9029.353     36.232   3.320  9.42360E-01  1.00377E+00 -6.14047E-02
    9030.371     37.250   3.360  9.40792E-01  1.00247E+00 -6.16770E-02
    9031.402     38.280   3.400  9.41664E-01  1.00119E+00 -5.95288E-02
    9032.444     39.323   3.440  9.44962E-01  9.99920E-01 -5.49583E-02
    9033.499     40.377   3.480  9.50206E-01  9.98653E-01 -4.84465E-02
    9034.565     41.444   3.520  9.56757E-01  9.97416E-01 -4.06583E-02
    9035.644     42.523   3.560  9.63887E-01  9.96191E-01 -3.23037E-02
    9036.735     43.614   3.600  9.70936E-01  9.95022E-01 -2.40859E-02
    9037.839     44.718   3.640  9.77249E-01  9.93871E-01 -1.66224E-02
    9038.954     45.833   3.680  9.82362E-01  9.92760E-01 -1.03979E-02
    9040.082     46.961   3.720  9.86048E-01  9.91713E-01 -5.66506E-03
    9041.222     48.101   3.760  9.88415E-01  9.90709E-01 -2.29444E-03
    9042.374     49.253   3.800  9.89948E-01  9.89751E-01  1.96799E-04
    9043.539     50.417   3.840  9.91244E-01  9.88862E-01  2.38163E-03
    9044.715     51.594   3.880  9.92705E-01  9.88020E-01  4.68501E-03
    9045.904     52.783   3.920  9.94555E-01  9.87247E-01  7.30794E-03
    9047.105     53.983   3.960  9.96784E-01  9.86523E-01  1.02613E-02
    9048.318     55.197   4.000  9.99247E-01  9.85850E-01  1.33974E-02
    9049.543     56.422   4.040  1.00174E+00  9.85269E-01  1.64703E-02
    9050.781     57.659   4.080  1.00394E+00  9.84740E-01  1.92029E-02
    9052.030     58.909   4.120  1.00557E+00  9.84261E-01  2.13127E-02
    9053.292     60.171   4.160  1.00646E+00  9.83875E-01  2.25858E-02
    9054.566     61.445   4.200  1.00650E+00  9.83521E-01  2.29822E-02
    9055.852     62.731   4.240  1.00590E+00  9.83258E-01  2.26374E-02
    9057.151     64.030   4.280  1.00488E+00  9.83044E-01  2.18406E-02
    9058.462     65.340   4.320  1.00387E+00  9.82880E-01  2.09902E-02
    9059.784     66.663   4.360  1.00326E+00  9.82787E-01  2.04680E-02
    9061.119     67.998   4.400  1.00323E+00  9.82765E-01  2.04688E-02
    9062.467     69.345   4.440  1.00374E+00  9.82789E-01  2.09544E-02
    9063.826     70.705   4.480  1.00460E+00  9.82856E-01  2.17427E-02
    9065.198     72.076   4.520  1.00558E+00  9.82968E-01  2.26157E-02
    9066.581     73.460   4.560  1.00658E+00  9.83147E-01  2.34342E-02
    9067.977     74.856   4.600  1.00750E+00  9.83369E-01  2.41294E-02
    9069.386     76.264   4.640  1.00826E+00  9.83631E-01  2.46251E-02
    9070.806     77.685   4.680  1.00878E+00  9.83931E-01  2.48532E-02
    9072.238     79.117   4.720  1.00909E+00  9.84247E-01  2.48410E-02
    9073.683     80.562   4.760  1.00928E+00  9.84623E-01  2.46612E-02
    9075.140     82.019   4.800  1.00952E+00  9.85035E-01  2.44803E-02
    9076.609     83.488   4.840  1.00994E+00  9.85457E-01  2.44829E-02
    9078.091     84.969   4.880  1.01062E+00  9.85889E-01  2.47354E-02
    9079.584     86.463   4.920  1.01148E+00  9.86374E-01  2.51108E-02
    9081.090     87.969   4.960  1.01214E+00  9.86843E-01  2.53016E-02
    9082.608     89.486   5.000  1.01229E+00  9.87340E-01  2.49497E-02
    9084.138     91.016   5.040  1.01154E+00  9.87842E-01  2.36938E-02
    9085.680     92.559   5.080  1.00951E+00  9.88366E-01  2.11484E-02
    9087.235     94.113   5.120  1.00582E+00  9.88868E-01  1.69474E-02
    9088.801     95.680   5.160  1.00022E+00  9.89368E-01  1.08474E-02
    9090.380     97.259   5.200  9.92793E-01  9.89865E-01  2.92828E-03
    9091.971     98.850   5.240  9.84061E-01  9.90358E-01 -6.29732E-03
    9093.574    100.453   5.280  9.74848E-01  9.90846E-01 -1.59989E-02
    9095.190    102.068   5.320  9.65988E-01  9.91304E-01 -2.53161E-02
    9096.817    103.696   5.360  9.58082E-01  9.91751E-01 -3.36696E-02
    9098.457    105.336   5.400  9.51334E-01  9.92165E-01 -4.08308E-02
    9100.109    106.988   5.440  9.45682E-01  9.92545E-01 -4.68635E-02
    9101.773    108.652   5.480  9.40990E-01  9.92912E-01 -5.19222E-02
    9103.450    110.329   5.520  9.37199E-01  9.93244E-01 -5.60447E-02
    9105.138    112.017   5.560  9.34548E-01  9.93539E-01 -5.89913E-02
    9106.839    113.718   5.600  9.33498E-01  9.93818E-01 -6.03196E-02
    9108.552    115.431   5.640  9.34411E-01  9.94036E-01 -5.96246E-02
    9110.277    117.156   5.680  9.37515E-01  9.94235E-01 -5.67203E-02
    9112.015    118.893   5.720  9.42710E-01  9.94371E-01 -5.16610E-02
    9113.764    120.643   5.760  9.49814E-01  9.94467E-01 -4.46530E-02
    9115.526    122.405   5.800  9.58506E-01  9.94545E-01 -3.60388E-02
    9117.300    124.179   5.840  9.68226E-01  9.94558E-01 -2.63326E-02
    9119.086    125.965   5.880  9.78284E-01  9.94530E-01 -1.62461E-02
    9120.884    127.763   5.920  9.87828E-01  9.94460E-01 -6.63186E-03
    9122.695    129.574   5.960  9.96037E-01  9.94343E-01  1.69396E-03
    9124.518    131.396   6.000  1.00248E+00  9.94157E-01  8.32705E-03
