# # comment:                                                     FEFF 9.9.1  
# # Source:
# # Structure
# # Reduced
# # space
# # abc:
# # angles:
# # sites:
# # POT  SCF 100  7.0000   0, screened core-hole, AFOLP (folp(0)= 1.150)
# # Abs   Z=29 Rmt= 1.275 Rnm= 1.333 K  shell
# # Pot 1 Z=56 Rmt= 1.982 Rnm= 2.016
# # Pot 2 Z=29 Rmt= 1.286 Rnm= 1.346
# # Pot 3 Z=51 Rmt= 1.326 Rnm= 1.456
# # Pot 4 Z= 8 Rmt= 1.041 Rnm= 1.099
# # Gam_ch=1.729E+00 H-L exch Vi= 0.000E+00 Vr= 0.000E+00
# # Mu=-6.962E+00eV kf=2.106E+00 Vint=-1.745E+01eV Rs_int= 1.722
# FMS rfms= 9.0000
# # PATH  Rmax=-1.000,  Keep_limit= 0.00, Heap_limit 0.00  Pwcrit= 2.50%
#  S02=0.950  Temp=   0.00  Debye_temp=   0.00  Global_sig2= 0.00000
#  Energy zero shift, vr, vi    0.00000E+00   0.00000E+00
#  Curved wave amplitude ratio filter   4.000%
#     file         sig2 tot  cw amp ratio   deg  nlegs   reff  inp sig2
#     0/   0 paths used
#  xsedge+ 50, used to normalize mu           2.4473E-04
#  -----------------------------------------------------------------------
#  omega    e    k    mu    mu0     chi     @#
    8984.865    -10.772  -1.000  4.91147E-02  6.13476E-02 -1.22329E-02
    8985.164    -10.473  -0.960  5.19174E-02  6.60548E-02 -1.41374E-02
    8985.450    -10.186  -0.920  5.49384E-02  7.13077E-02 -1.63693E-02
    8985.725     -9.912  -0.880  5.82004E-02  7.71883E-02 -1.89880E-02
    8985.987     -9.650  -0.840  6.17291E-02  8.37929E-02 -2.20638E-02
    8986.237     -9.400  -0.800  6.55534E-02  9.12327E-02 -2.56793E-02
    8986.474     -9.162  -0.760  6.97051E-02  9.96359E-02 -2.99309E-02
    8986.700     -8.937  -0.720  7.42189E-02  1.09148E-01 -3.49288E-02
    8986.913     -8.723  -0.680  7.91317E-02  1.19928E-01 -4.07965E-02
    8987.115     -8.522  -0.640  8.44802E-02  1.32147E-01 -4.76666E-02
    8987.304     -8.333  -0.600  9.02984E-02  1.45971E-01 -5.56722E-02
    8987.480     -8.157  -0.560  9.66119E-02  1.61543E-01 -6.49310E-02
    8987.645     -7.992  -0.520  1.03430E-01  1.78950E-01 -7.55204E-02
    8987.797     -7.840  -0.480  1.10735E-01  1.98177E-01 -8.74426E-02
    8987.938     -7.699  -0.440  1.18470E-01  2.19054E-01 -1.00584E-01
    8988.066     -7.571  -0.400  1.26529E-01  2.41212E-01 -1.14683E-01
    8988.181     -7.455  -0.360  1.34750E-01  2.64069E-01 -1.29319E-01
    8988.285     -7.352  -0.320  1.42926E-01  2.86870E-01 -1.43944E-01
    8988.376     -7.260  -0.280  1.50817E-01  3.08778E-01 -1.57961E-01
    8988.456     -7.181  -0.240  1.58177E-01  3.28989E-01 -1.70812E-01
    8988.523     -7.114  -0.200  1.64780E-01  3.46835E-01 -1.82055E-01
    8988.578     -7.059  -0.160  1.70435E-01  3.61831E-01 -1.91396E-01
    8988.620     -7.017  -0.120  1.74991E-01  3.73672E-01 -1.98681E-01
    8988.651     -6.986  -0.080  1.78339E-01  3.82194E-01 -2.03854E-01
    8988.675     -6.962   0.000  1.81111E-01  3.89033E-01 -2.07922E-01
    8988.730     -6.907   0.120  1.87296E-01  4.04443E-01 -2.17147E-01
    8988.773     -6.864   0.160  1.92155E-01  4.16404E-01 -2.24249E-01
    8988.828     -6.809   0.200  1.98487E-01  4.31630E-01 -2.33143E-01
    8988.895     -6.742   0.240  2.06353E-01  4.49885E-01 -2.43532E-01
    8988.974     -6.663   0.280  2.15825E-01  4.70785E-01 -2.54960E-01
    8989.065     -6.572   0.320  2.26903E-01  4.93705E-01 -2.66802E-01
    8989.169     -6.468   0.360  2.39574E-01  5.17924E-01 -2.78350E-01
    8989.285     -6.352   0.400  2.53783E-01  5.42683E-01 -2.88899E-01
    8989.413     -6.224   0.440  2.69381E-01  5.67284E-01 -2.97904E-01
    8989.553     -6.084   0.480  2.86038E-01  5.91130E-01 -3.05092E-01
    8989.705     -5.931   0.520  3.03443E-01  6.13897E-01 -3.10454E-01
    8989.870     -5.767   0.560  3.21218E-01  6.35427E-01 -3.14209E-01
    8990.047     -5.590   0.600  3.39040E-01  6.55641E-01 -3.16601E-01
    8990.236     -5.401   0.640  3.56772E-01  6.74635E-01 -3.17863E-01
    8990.437     -5.200   0.680  3.74356E-01  6.92491E-01 -3.18135E-01
    8990.650     -4.987   0.720  3.91944E-01  7.09355E-01 -3.17411E-01
    8990.876     -4.761   0.760  4.09960E-01  7.25349E-01 -3.15389E-01
    8991.114     -4.523   0.800  4.28915E-01  7.40563E-01 -3.11647E-01
    8991.363     -4.273   0.840  4.49114E-01  7.55114E-01 -3.06000E-01
    8991.626     -4.011   0.880  4.70397E-01  7.69082E-01 -2.98685E-01
    8991.900     -3.737   0.920  4.92903E-01  7.82506E-01 -2.89603E-01
    8992.186     -3.450   0.960  5.18812E-01  7.95455E-01 -2.76642E-01
    8992.485     -3.152   1.000  5.52708E-01  8.07962E-01 -2.55254E-01
    8992.796     -2.841   1.040  5.99122E-01  8.20050E-01 -2.20928E-01
    8993.119     -2.518   1.080  6.59619E-01  8.31713E-01 -1.72094E-01
    8993.454     -2.182   1.120  7.32277E-01  8.42978E-01 -1.10701E-01
    8993.802     -1.835   1.160  8.10721E-01  8.53866E-01 -4.31441E-02
    8994.162     -1.475   1.200  8.82503E-01  8.64351E-01  1.81519E-02
    8994.533     -1.103   1.240  9.38261E-01  8.74424E-01  6.38363E-02
    8994.917     -0.719   1.280  9.83500E-01  8.84118E-01  9.93818E-02
    8995.314     -0.323   1.320  1.02896E+00  8.93398E-01  1.35561E-01
    8995.722      0.085   1.360  1.09156E+00  9.02249E-01  1.89311E-01
    8996.143      0.506   1.400  1.21369E+00  9.10697E-01  3.02990E-01
    8996.576      0.939   1.440  1.43542E+00  9.18728E-01  5.16695E-01
    8997.021      1.384   1.480  1.73973E+00  9.26344E-01  8.13384E-01
    8997.478      1.841   1.520  2.04660E+00  9.33528E-01  1.11308E+00
    8997.947      2.310   1.560  2.21981E+00  9.40286E-01  1.27952E+00
    8998.429      2.792   1.600  2.14087E+00  9.46620E-01  1.19425E+00
    8998.922      3.286   1.640  1.86189E+00  9.52539E-01  9.09348E-01
    8999.428      3.792   1.680  1.54067E+00  9.58045E-01  5.82622E-01
    8999.947      4.310   1.720  1.29112E+00  9.63166E-01  3.27953E-01
    9000.477      4.840   1.760  1.14691E+00  9.67868E-01  1.79044E-01
    9001.019      5.383   1.800  1.07195E+00  9.72198E-01  9.97484E-02
    9001.574      5.937   1.840  1.03421E+00  9.76144E-01  5.80629E-02
    9002.141      6.504   1.880  1.02101E+00  9.79753E-01  4.12562E-02
    9002.720      7.083   1.920  1.02211E+00  9.82992E-01  3.91165E-02
    9003.312      7.675   1.960  1.02159E+00  9.85913E-01  3.56746E-02
    9003.915      8.278   2.000  1.00787E+00  9.88501E-01  1.93649E-02
    9004.531      8.894   2.040  9.82710E-01  9.90787E-01 -8.07703E-03
    9005.159      9.522   2.080  9.57691E-01  9.92801E-01 -3.51098E-02
    9005.799     10.162   2.120  9.43791E-01  9.94553E-01 -5.07614E-02
    9006.451     10.814   2.160  9.43495E-01  9.96049E-01 -5.25546E-02
    9007.115     11.479   2.200  9.52193E-01  9.97322E-01 -4.51293E-02
    9007.792     12.155   2.240  9.64516E-01  9.98358E-01 -3.38414E-02
    9008.481     12.844   2.280  9.79262E-01  9.99207E-01 -1.99448E-02
    9009.182     13.545   2.320  9.95966E-01  9.99879E-01 -3.91272E-03
    9009.895     14.258   2.360  1.00782E+00  1.00038E+00  7.43708E-03
    9010.621     14.984   2.400  1.00720E+00  1.00072E+00  6.47571E-03
    9011.358     15.721   2.440  9.97591E-01  1.00093E+00 -3.33534E-03
    9012.108     16.471   2.480  9.87357E-01  1.00101E+00 -1.36501E-02
    9012.870     17.233   2.520  9.74652E-01  1.00099E+00 -2.63399E-02
    9013.644     18.007   2.560  9.54648E-01  1.00089E+00 -4.62382E-02
    9014.431     18.794   2.600  9.36773E-01  1.00070E+00 -6.39246E-02
    9015.229     19.592   2.640  9.27436E-01  1.00045E+00 -7.30167E-02
    9016.040     20.403   2.680  9.23088E-01  1.00014E+00 -7.70478E-02
    9016.863     21.226   2.720  9.16636E-01  9.99772E-01 -8.31367E-02
    9017.698     22.061   2.760  9.03930E-01  9.99390E-01 -9.54603E-02
    9018.545     22.909   2.800  8.86944E-01  9.98973E-01 -1.12029E-01
    9019.405     23.768   2.840  8.70355E-01  9.98546E-01 -1.28191E-01
    9020.277     24.640   2.880  8.57382E-01  9.98092E-01 -1.40710E-01
    9021.161     25.524   2.920  8.48203E-01  9.97655E-01 -1.49452E-01
    9022.057     26.420   2.960  8.42187E-01  9.97222E-01 -1.55034E-01
    9022.965     27.328   3.000  8.38874E-01  9.96793E-01 -1.57919E-01
    9023.885     28.249   3.040  8.38414E-01  9.96393E-01 -1.57979E-01
    9024.818     29.181   3.080  8.41516E-01  9.96024E-01 -1.54508E-01
    9025.763     30.126   3.120  8.48636E-01  9.95669E-01 -1.47032E-01
    9026.720     31.083   3.160  8.59214E-01  9.95349E-01 -1.36135E-01
    9027.689     32.053   3.200  8.72687E-01  9.95088E-01 -1.22401E-01
    9028.671     33.034   3.240  8.88414E-01  9.94845E-01 -1.06432E-01
    9029.664     34.028   3.280  9.06136E-01  9.94642E-01 -8.85059E-02
    9030.670     35.033   3.320  9.25956E-01  9.94501E-01 -6.85450E-02
    9031.688     36.051   3.360  9.48134E-01  9.94383E-01 -4.62485E-02
    9032.719     37.082   3.400  9.72953E-01  9.94329E-01 -2.13754E-02
    9033.761     38.124   3.440  1.00001E+00  9.94339E-01  5.67065E-03
    9034.816     39.179   3.480  1.02847E+00  9.94372E-01  3.40931E-02
    9035.882     40.246   3.520  1.05689E+00  9.94470E-01  6.24180E-02
    9036.961     41.325   3.560  1.08343E+00  9.94589E-01  8.88361E-02
    9038.053     42.416   3.600  1.10649E+00  9.94794E-01  1.11693E-01
    9039.156     43.519   3.640  1.12453E+00  9.95020E-01  1.29512E-01
    9040.271     44.635   3.680  1.13596E+00  9.95288E-01  1.40677E-01
    9041.399     45.762   3.720  1.13952E+00  9.95619E-01  1.43898E-01
    9042.539     46.902   3.760  1.13516E+00  9.95969E-01  1.39195E-01
    9043.691     48.054   3.800  1.12455E+00  9.96379E-01  1.28175E-01
    9044.856     49.219   3.840  1.11038E+00  9.96807E-01  1.13571E-01
    9046.032     50.395   3.880  1.09556E+00  9.97295E-01  9.82659E-02
    9047.221     51.584   3.920  1.08193E+00  9.97797E-01  8.41378E-02
    9048.422     52.785   3.960  1.07042E+00  9.98332E-01  7.20897E-02
    9049.635     53.998   4.000  1.06124E+00  9.98901E-01  6.23343E-02
    9050.860     55.223   4.040  1.05397E+00  9.99480E-01  5.44885E-02
    9052.098     56.461   4.080  1.04778E+00  1.00009E+00  4.76920E-02
    9053.347     57.710   4.120  1.04176E+00  1.00070E+00  4.10581E-02
    9054.609     58.972   4.160  1.03533E+00  1.00132E+00  3.40109E-02
    9055.883     60.246   4.200  1.02839E+00  1.00197E+00  2.64175E-02
    9057.170     61.533   4.240  1.02113E+00  1.00262E+00  1.85101E-02
    9058.468     62.831   4.280  1.01390E+00  1.00326E+00  1.06338E-02
    9059.779     64.142   4.320  1.00686E+00  1.00391E+00  2.94448E-03
    9061.101     65.465   4.360  9.99922E-01  1.00456E+00 -4.63347E-03
    9062.436     66.800   4.400  9.93150E-01  1.00519E+00 -1.20442E-02
    9063.784     68.147   4.440  9.86897E-01  1.00581E+00 -1.89083E-02
    9065.143     69.506   4.480  9.81733E-01  1.00641E+00 -2.46763E-02
    9066.515     70.878   4.520  9.77941E-01  1.00700E+00 -2.90625E-02
    9067.898     72.262   4.560  9.75167E-01  1.00757E+00 -3.23981E-02
    9069.294     73.658   4.600  9.72715E-01  1.00812E+00 -3.54009E-02
    9070.703     75.066   4.640  9.70153E-01  1.00863E+00 -3.84781E-02
    9072.123     76.486   4.680  9.67833E-01  1.00911E+00 -4.12754E-02
    9073.555     77.919   4.720  9.66601E-01  1.00955E+00 -4.29474E-02
    9075.000     79.363   4.760  9.67128E-01  1.00997E+00 -4.28447E-02
    9076.457     80.820   4.800  9.69278E-01  1.01036E+00 -4.10782E-02
    9077.926     82.289   4.840  9.72224E-01  1.01070E+00 -3.84755E-02
    9079.408     83.771   4.880  9.74897E-01  1.01098E+00 -3.60817E-02
    9080.901     85.264   4.920  9.76577E-01  1.01124E+00 -3.46624E-02
    9082.407     86.770   4.960  9.77102E-01  1.01146E+00 -3.43566E-02
    9083.925     88.288   5.000  9.76872E-01  1.01164E+00 -3.47638E-02
    9085.455     89.818   5.040  9.76450E-01  1.01177E+00 -3.53190E-02
    9086.997     91.360   5.080  9.76275E-01  1.01184E+00 -3.55618E-02
    9088.552     92.915   5.120  9.76745E-01  1.01188E+00 -3.51361E-02
    9090.118     94.481   5.160  9.78235E-01  1.01186E+00 -3.36254E-02
    9091.697     96.060   5.200  9.81260E-01  1.01180E+00 -3.05367E-02
    9093.288     97.651   5.240  9.86168E-01  1.01171E+00 -2.55461E-02
    9094.891     99.255   5.280  9.92911E-01  1.01157E+00 -1.86549E-02
    9096.507    100.870   5.320  1.00066E+00  1.01137E+00 -1.07096E-02
    9098.134    102.498   5.360  1.00844E+00  1.01114E+00 -2.70256E-03
    9099.774    104.137   5.400  1.01500E+00  1.01086E+00  4.14118E-03
    9101.426    105.789   5.440  1.01942E+00  1.01054E+00  8.87995E-03
    9103.090    107.454   5.480  1.02150E+00  1.01019E+00  1.13164E-02
    9104.767    109.130   5.520  1.02194E+00  1.00979E+00  1.21450E-02
    9106.455    110.819   5.560  1.02193E+00  1.00938E+00  1.25547E-02
    9108.156    112.519   5.600  1.02287E+00  1.00891E+00  1.39623E-02
    9109.869    114.232   5.640  1.02539E+00  1.00842E+00  1.69693E-02
    9111.594    115.958   5.680  1.02952E+00  1.00793E+00  2.15871E-02
    9113.332    117.695   5.720  1.03470E+00  1.00738E+00  2.73285E-02
    9115.081    119.444   5.760  1.04010E+00  1.00681E+00  3.32917E-02
    9116.843    121.206   5.800  1.04446E+00  1.00622E+00  3.82380E-02
    9118.617    122.980   5.840  1.04653E+00  1.00562E+00  4.09052E-02
    9120.403    124.766   5.880  1.04553E+00  1.00502E+00  4.05045E-02
    9122.201    126.565   5.920  1.04140E+00  1.00440E+00  3.70009E-02
    9124.012    128.375   5.960  1.03472E+00  1.00379E+00  3.09320E-02
    9125.835    130.198   6.000  1.02619E+00  1.00317E+00  2.30197E-02
