# # comment:                                                     FEFF 9.9.1  
# # Source:
# # Structure
# # Reduced
# # space
# # abc:
# # angles:
# # sites:
# # POT  SCF 100  7.0000   0, screened core-hole, AFOLP (folp(0)= 1.150)
# # Abs   Z=29 Rmt= 1.176 Rnm= 1.333 K  shell
# # Pot 1 Z=23 Rmt= 1.339 Rnm= 1.428
# # Pot 2 Z=29 Rmt= 1.176 Rnm= 1.333
# # Pot 3 Z= 8 Rmt= 0.993 Rnm= 1.079
# # Gam_ch=1.729E+00 H-L exch Vi= 0.000E+00 Vr= 0.000E+00
# # Mu=-9.754E+00eV kf=2.171E+00 Vint=-1.896E+01eV Rs_int= 1.671
# FMS rfms= 9.0000
# # PATH  Rmax=-1.000,  Keep_limit= 0.00, Heap_limit 0.00  Pwcrit= 2.50%
#  S02=0.950  Temp=   0.00  Debye_temp=   0.00  Global_sig2= 0.00000
#  Energy zero shift, vr, vi    0.00000E+00   0.00000E+00
#  Curved wave amplitude ratio filter   4.000%
#     file         sig2 tot  cw amp ratio   deg  nlegs   reff  inp sig2
#     0/   0 paths used
#  xsedge+ 50, used to normalize mu           2.5124E-04
#  -----------------------------------------------------------------------
#  omega    e    k    mu    mu0     chi     @#
    8984.294    -13.564  -1.000  4.62711E-02  4.95474E-02 -3.27623E-03
    8984.592    -13.265  -0.960  4.97258E-02  5.30563E-02 -3.33046E-03
    8984.879    -12.979  -0.920  5.36168E-02  5.69498E-02 -3.33299E-03
    8985.153    -12.704  -0.880  5.80193E-02  6.12842E-02 -3.26488E-03
    8985.415    -12.442  -0.840  6.30228E-02  6.61249E-02 -3.10214E-03
    8985.665    -12.192  -0.800  6.87333E-02  7.15480E-02 -2.81478E-03
    8985.903    -11.954  -0.760  7.52747E-02  7.76406E-02 -2.36587E-03
    8986.129    -11.729  -0.720  8.27901E-02  8.45009E-02 -1.71080E-03
    8986.342    -11.516  -0.680  9.14403E-02  9.22373E-02 -7.97058E-04
    8986.543    -11.314  -0.640  1.01399E-01  1.00964E-01  4.34924E-04
    8986.732    -11.125  -0.600  1.12843E-01  1.10794E-01  2.04925E-03
    8986.909    -10.949  -0.560  1.25931E-01  1.21821E-01  4.10936E-03
    8987.073    -10.784  -0.520  1.40773E-01  1.34104E-01  6.66932E-03
    8987.226    -10.632  -0.480  1.57389E-01  1.47628E-01  9.76124E-03
    8987.366    -10.491  -0.440  1.75655E-01  1.62275E-01  1.33797E-02
    8987.494    -10.363  -0.400  1.95258E-01  1.77791E-01  1.74662E-02
    8987.610    -10.248  -0.360  2.15676E-01  1.93777E-01  2.18996E-02
    8987.714    -10.144  -0.320  2.36211E-01  2.09713E-01  2.64984E-02
    8987.805    -10.052  -0.280  2.56065E-01  2.25024E-01  3.10403E-02
    8987.884     -9.973  -0.240  2.74452E-01  2.39157E-01  3.52952E-02
    8987.951     -9.906  -0.200  2.90710E-01  2.51647E-01  3.90630E-02
    8988.006     -9.851  -0.160  3.04357E-01  2.62153E-01  4.22041E-02
    8988.049     -9.809  -0.120  3.15110E-01  2.70459E-01  4.46501E-02
    8988.079     -9.778  -0.080  3.22832E-01  2.76444E-01  4.63881E-02
    8988.104     -9.754   0.000  3.29022E-01  2.81252E-01  4.77691E-02
    8988.159     -9.699   0.120  3.42140E-01  2.92095E-01  5.00444E-02
    8988.201     -9.656   0.160  3.52344E-01  3.00531E-01  5.18130E-02
    8988.256     -9.601   0.200  3.65100E-01  3.11279E-01  5.38209E-02
    8988.323     -9.534   0.240  3.79955E-01  3.24232E-01  5.57227E-02
    8988.402     -9.455   0.280  3.96049E-01  3.39117E-01  5.69312E-02
    8988.494     -9.364   0.320  4.12115E-01  3.55559E-01  5.65560E-02
    8988.597     -9.260   0.360  4.26454E-01  3.73073E-01  5.33812E-02
    8988.713     -9.144   0.400  4.37141E-01  3.91183E-01  4.59588E-02
    8988.841     -9.016   0.440  4.42274E-01  4.09397E-01  3.28769E-02
    8988.982     -8.876   0.480  4.40612E-01  4.27406E-01  1.32057E-02
    8989.134     -8.724   0.520  4.31998E-01  4.44950E-01 -1.29522E-02
    8989.299     -8.559   0.560  4.17880E-01  4.61929E-01 -4.40496E-02
    8989.475     -8.382   0.600  4.01146E-01  4.78336E-01 -7.71900E-02
    8989.664     -8.193   0.640  3.85361E-01  4.94222E-01 -1.08861E-01
    8989.865     -7.992   0.680  3.73548E-01  5.09632E-01 -1.36083E-01
    8990.079     -7.779   0.720  3.67230E-01  5.24662E-01 -1.57432E-01
    8990.304     -7.553   0.760  3.65770E-01  5.39430E-01 -1.73661E-01
    8990.542     -7.315   0.800  3.66527E-01  5.53963E-01 -1.87436E-01
    8990.792     -7.065   0.840  3.66418E-01  5.68355E-01 -2.01938E-01
    8991.054     -6.803   0.880  3.64311E-01  5.82632E-01 -2.18321E-01
    8991.328     -6.529   0.920  3.62749E-01  5.96845E-01 -2.34096E-01
    8991.615     -6.242   0.960  3.66131E-01  6.11036E-01 -2.44906E-01
    8991.914     -5.944   1.000  3.76275E-01  6.25199E-01 -2.48924E-01
    8992.225     -5.633   1.040  3.90408E-01  6.39355E-01 -2.48947E-01
    8992.548     -5.310   1.080  4.03577E-01  6.53482E-01 -2.49905E-01
    8992.883     -4.975   1.120  4.12852E-01  6.67592E-01 -2.54740E-01
    8993.230     -4.627   1.160  4.18391E-01  6.81671E-01 -2.63281E-01
    8993.590     -4.267   1.200  4.22329E-01  6.95703E-01 -2.73374E-01
    8993.962     -3.896   1.240  4.28590E-01  7.09664E-01 -2.81074E-01
    8994.346     -3.511   1.280  4.41484E-01  7.23531E-01 -2.82047E-01
    8994.742     -3.115   1.320  4.62780E-01  7.37300E-01 -2.74520E-01
    8995.151     -2.707   1.360  4.92215E-01  7.50903E-01 -2.58688E-01
    8995.571     -2.286   1.400  5.32661E-01  7.64351E-01 -2.31690E-01
    8996.004     -1.853   1.440  5.89968E-01  7.77615E-01 -1.87647E-01
    8996.449     -1.408   1.480  6.65223E-01  7.90645E-01 -1.25421E-01
    8996.906     -0.951   1.520  7.49335E-01  8.03430E-01 -5.40944E-02
    8997.376     -0.482   1.560  8.25008E-01  8.15962E-01  9.04639E-03
    8997.857     -0.000   1.600  8.79771E-01  8.28168E-01  5.16025E-02
    8998.351      0.494   1.640  9.17837E-01  8.40061E-01  7.77760E-02
    8998.857      1.000   1.680  9.47782E-01  8.51630E-01  9.61523E-02
    8999.375      1.518   1.720  9.69059E-01  8.62826E-01  1.06233E-01
    8999.906      2.048   1.760  9.71001E-01  8.73643E-01  9.73581E-02
    9000.448      2.591   1.800  9.50830E-01  8.84054E-01  6.67756E-02
    9001.003      3.145   1.840  9.34321E-01  8.94071E-01  4.02500E-02
    9001.570      3.712   1.880  9.46629E-01  9.03651E-01  4.29781E-02
    9002.149      4.291   1.920  9.98015E-01  9.12809E-01  8.52053E-02
    9002.740      4.883   1.960  1.08280E+00  9.21522E-01  1.61282E-01
    9003.344      5.486   2.000  1.17903E+00  9.29788E-01  2.49240E-01
    9003.959      6.102   2.040  1.25323E+00  9.37627E-01  3.15603E-01
    9004.587      6.730   2.080  1.27576E+00  9.44997E-01  3.30767E-01
    9005.227      7.370   2.120  1.25558E+00  9.51921E-01  3.03654E-01
    9005.880      8.022   2.160  1.21120E+00  9.58418E-01  2.52782E-01
    9006.544      8.687   2.200  1.14422E+00  9.64453E-01  1.79767E-01
    9007.221      9.363   2.240  1.07026E+00  9.70068E-01  1.00195E-01
    9007.910     10.052   2.280  1.00925E+00  9.75247E-01  3.40004E-02
    9008.611     10.753   2.320  9.69854E-01  9.80016E-01 -1.01616E-02
    9009.324     11.466   2.360  9.51608E-01  9.84378E-01 -3.27699E-02
    9010.049     12.192   2.400  9.40003E-01  9.88341E-01 -4.83382E-02
    9010.787     12.929   2.440  9.10872E-01  9.91911E-01 -8.10391E-02
    9011.537     13.679   2.480  8.63772E-01  9.95133E-01 -1.31361E-01
    9012.299     14.441   2.520  8.31418E-01  9.97975E-01 -1.66558E-01
    9013.073     15.215   2.560  8.38770E-01  1.00049E+00 -1.61716E-01
    9013.859     16.002   2.600  8.99319E-01  1.00267E+00 -1.03352E-01
    9014.658     16.800   2.640  9.71771E-01  1.00454E+00 -3.27699E-02
    9015.469     17.611   2.680  1.04158E+00  1.00612E+00  3.54624E-02
    9016.291     18.434   2.720  1.10216E+00  1.00742E+00  9.47461E-02
    9017.127     19.269   2.760  1.15159E+00  1.00844E+00  1.43145E-01
    9017.974     20.117   2.800  1.19040E+00  1.00922E+00  1.81179E-01
    9018.834     20.976   2.840  1.21751E+00  1.00979E+00  2.07726E-01
    9019.705     21.848   2.880  1.22934E+00  1.01012E+00  2.19224E-01
    9020.589     22.732   2.920  1.22161E+00  1.01025E+00  2.11359E-01
    9021.485     23.628   2.960  1.19297E+00  1.01019E+00  1.82782E-01
    9022.394     24.536   3.000  1.14878E+00  1.00998E+00  1.38800E-01
    9023.314     25.457   3.040  1.09816E+00  1.00959E+00  8.85700E-02
    9024.247     26.389   3.080  1.04867E+00  1.00907E+00  3.95992E-02
    9025.192     27.334   3.120  1.00539E+00  1.00840E+00 -3.00536E-03
    9026.149     28.291   3.160  9.70161E-01  1.00763E+00 -3.74717E-02
    9027.118     29.260   3.200  9.42311E-01  1.00675E+00 -6.44407E-02
    9028.099     30.242   3.240  9.20622E-01  1.00578E+00 -8.51629E-02
    9029.093     31.236   3.280  9.03763E-01  1.00474E+00 -1.00973E-01
    9030.099     32.241   3.320  8.90629E-01  1.00361E+00 -1.12983E-01
    9031.117     33.259   3.360  8.80676E-01  1.00244E+00 -1.21762E-01
    9032.147     34.290   3.400  8.73818E-01  1.00122E+00 -1.27402E-01
    9033.190     35.332   3.440  8.69951E-01  9.99960E-01 -1.30009E-01
    9034.244     36.387   3.480  8.69045E-01  9.98642E-01 -1.29597E-01
    9035.311     37.453   3.520  8.71176E-01  9.97332E-01 -1.26157E-01
    9036.390     38.532   3.560  8.76289E-01  9.95995E-01 -1.19706E-01
    9037.481     39.624   3.600  8.84215E-01  9.94653E-01 -1.10438E-01
    9038.584     40.727   3.640  8.94841E-01  9.93310E-01 -9.84692E-02
    9039.700     41.843   3.680  9.07972E-01  9.91969E-01 -8.39969E-02
    9040.828     42.970   3.720  9.23074E-01  9.90655E-01 -6.75805E-02
    9041.968     44.110   3.760  9.39121E-01  9.89347E-01 -5.02263E-02
    9043.120     45.262   3.800  9.54740E-01  9.88049E-01 -3.33089E-02
    9044.284     46.427   3.840  9.68622E-01  9.86806E-01 -1.81837E-02
    9045.461     47.603   3.880  9.79808E-01  9.85577E-01 -5.76917E-03
    9046.649     48.792   3.920  9.88071E-01  9.84384E-01  3.68630E-03
    9047.850     49.993   3.960  9.93747E-01  9.83232E-01  1.05153E-02
    9049.063     51.206   4.000  9.97724E-01  9.82140E-01  1.55839E-02
    9050.289     52.431   4.040  1.00106E+00  9.81071E-01  1.99884E-02
    9051.526     53.669   4.080  1.00467E+00  9.80063E-01  2.46053E-02
    9052.776     54.918   4.120  1.00877E+00  9.79098E-01  2.96741E-02
    9054.038     56.180   4.160  1.01288E+00  9.78177E-01  3.47071E-02
    9055.312     57.454   4.200  1.01595E+00  9.77301E-01  3.86453E-02
    9056.598     58.741   4.240  1.01675E+00  9.76493E-01  4.02569E-02
    9057.897     60.039   4.280  1.01473E+00  9.75752E-01  3.89783E-02
    9059.207     61.350   4.320  1.01033E+00  9.75037E-01  3.52917E-02
    9060.530     62.673   4.360  1.00464E+00  9.74409E-01  3.02277E-02
    9061.865     64.008   4.400  9.98366E-01  9.73807E-01  2.45583E-02
    9063.212     65.355   4.440  9.91686E-01  9.73272E-01  1.84144E-02
    9064.572     66.714   4.480  9.84535E-01  9.72783E-01  1.17520E-02
    9065.943     68.086   4.520  9.77385E-01  9.72361E-01  5.02336E-03
    9067.327     69.470   4.560  9.71281E-01  9.71987E-01 -7.06225E-04
    9068.723     70.865   4.600  9.67436E-01  9.71678E-01 -4.24212E-03
    9070.131     72.274   4.640  9.66548E-01  9.71391E-01 -4.84295E-03
    9071.551     73.694   4.680  9.68635E-01  9.71171E-01 -2.53539E-03
    9072.984     75.127   4.720  9.73077E-01  9.71016E-01  2.06109E-03
    9074.429     76.571   4.760  9.79021E-01  9.70882E-01  8.13888E-03
    9075.886     78.028   4.800  9.85839E-01  9.70809E-01  1.50302E-02
    9077.355     79.497   4.840  9.92851E-01  9.70756E-01  2.20949E-02
    9078.836     80.979   4.880  9.99149E-01  9.70763E-01  2.83858E-02
    9080.330     82.472   4.920  1.00357E+00  9.70809E-01  3.27602E-02
    9081.835     83.978   4.960  1.00538E+00  9.70870E-01  3.45102E-02
    9083.353     85.496   5.000  1.00476E+00  9.70969E-01  3.37940E-02
    9084.883     87.026   5.040  1.00273E+00  9.71125E-01  3.16090E-02
    9086.426     88.568   5.080  1.00065E+00  9.71293E-01  2.93542E-02
    9087.980     90.123   5.120  9.99845E-01  9.71471E-01  2.83732E-02
    9089.547     91.689   5.160  1.00117E+00  9.71681E-01  2.94907E-02
    9091.126     93.268   5.200  1.00465E+00  9.71922E-01  3.27295E-02
    9092.717     94.859   5.240  1.00944E+00  9.72172E-01  3.72677E-02
    9094.320     96.462   5.280  1.01397E+00  9.72449E-01  4.15175E-02
    9095.935     98.078   5.320  1.01651E+00  9.72711E-01  4.37970E-02
    9097.563     99.706   5.360  1.01622E+00  9.73019E-01  4.31974E-02
    9099.203    101.345   5.400  1.01314E+00  9.73308E-01  3.98332E-02
    9100.855    102.997   5.440  1.00774E+00  9.73598E-01  3.41434E-02
    9102.519    104.662   5.480  1.00005E+00  9.73910E-01  2.61375E-02
    9104.195    106.338   5.520  9.89727E-01  9.74199E-01  1.55271E-02
    9105.884    108.027   5.560  9.76871E-01  9.74485E-01  2.38657E-03
    9107.585    109.727   5.600  9.62073E-01  9.74768E-01 -1.26950E-02
    9109.298    111.440   5.640  9.45816E-01  9.75047E-01 -2.92315E-02
    9111.023    113.165   5.680  9.28517E-01  9.75322E-01 -4.68052E-02
    9112.760    114.903   5.720  9.11409E-01  9.75568E-01 -6.41590E-02
    9114.510    116.652   5.760  8.96748E-01  9.75805E-01 -7.90573E-02
    9116.272    118.414   5.800  8.86398E-01  9.76012E-01 -8.96143E-02
    9118.045    120.188   5.840  8.80843E-01  9.76209E-01 -9.53665E-02
    9119.832    121.974   5.880  8.79452E-01  9.76374E-01 -9.69218E-02
    9121.630    123.772   5.920  8.81507E-01  9.76530E-01 -9.50229E-02
    9123.440    125.583   5.960  8.86769E-01  9.76649E-01 -8.98799E-02
    9125.263    127.406   6.000  8.96429E-01  9.76751E-01 -8.03222E-02
