# # comment:                                                     FEFF 9.9.1  
# # Source:
# # Structure
# # Reduced
# # space
# # abc:
# # angles:102.699270
# # sites:
# # POT  SCF 100  7.0000   0, screened core-hole, AFOLP (folp(0)= 1.150)
# # Abs   Z=29 Rmt= 1.232 Rnm= 1.305 K  shell
# # Pot 1 Z=38 Rmt= 1.780 Rnm= 1.849
# # Pot 2 Z=13 Rmt= 1.157 Rnm= 1.328
# # Pot 3 Z=29 Rmt= 1.232 Rnm= 1.305
# # Pot 4 Z= 8 Rmt= 1.012 Rnm= 1.092
# # Gam_ch=1.729E+00 H-L exch Vi= 0.000E+00 Vr= 0.000E+00
# # Mu=-8.075E+00eV kf=2.082E+00 Vint=-1.699E+01eV Rs_int= 1.742
# FMS rfms= 9.0000
# # PATH  Rmax=-1.000,  Keep_limit= 0.00, Heap_limit 0.00  Pwcrit= 2.50%
#  S02=0.950  Temp=   0.00  Debye_temp=   0.00  Global_sig2= 0.00000
#  Energy zero shift, vr, vi    0.00000E+00   0.00000E+00
#  Curved wave amplitude ratio filter   4.000%
#     file         sig2 tot  cw amp ratio   deg  nlegs   reff  inp sig2
#     0/   0 paths used
#  xsedge+ 50, used to normalize mu           2.4499E-04
#  -----------------------------------------------------------------------
#  omega    e    k    mu    mu0     chi     @#
    8984.291    -11.885  -1.000  3.93779E-02  5.62620E-02 -1.68841E-02
    8984.590    -11.587  -0.960  4.14337E-02  6.04055E-02 -1.89718E-02
    8984.876    -11.300  -0.920  4.36386E-02  6.50137E-02 -2.13751E-02
    8985.151    -11.026  -0.880  4.60069E-02  7.01553E-02 -2.41484E-02
    8985.413    -10.764  -0.840  4.85547E-02  7.59102E-02 -2.73556E-02
    8985.663    -10.514  -0.800  5.12997E-02  8.23711E-02 -3.10714E-02
    8985.900    -10.276  -0.760  5.42616E-02  8.96443E-02 -3.53827E-02
    8986.126    -10.050  -0.720  5.74615E-02  9.78501E-02 -4.03885E-02
    8986.339     -9.837  -0.680  6.09217E-02  1.07121E-01 -4.61990E-02
    8986.540     -9.636  -0.640  6.46640E-02  1.17596E-01 -5.29320E-02
    8986.729     -9.447  -0.600  6.87078E-02  1.29413E-01 -6.07054E-02
    8986.906     -9.270  -0.560  7.30658E-02  1.42690E-01 -6.96239E-02
    8987.071     -9.105  -0.520  7.77379E-02  1.57495E-01 -7.97575E-02
    8987.223     -8.953  -0.480  8.27028E-02  1.73815E-01 -9.11124E-02
    8987.363     -8.813  -0.440  8.79087E-02  1.91506E-01 -1.03597E-01
    8987.491     -8.685  -0.400  9.32663E-02  2.10258E-01 -1.16992E-01
    8987.607     -8.569  -0.360  9.86484E-02  2.29588E-01 -1.30940E-01
    8987.711     -8.465  -0.320  1.03900E-01  2.48865E-01 -1.44965E-01
    8987.802     -8.374  -0.280  1.08858E-01  2.67388E-01 -1.58530E-01
    8987.882     -8.295  -0.240  1.13374E-01  2.84485E-01 -1.71111E-01
    8987.949     -8.228  -0.200  1.17329E-01  2.99593E-01 -1.82264E-01
    8988.003     -8.173  -0.160  1.20641E-01  3.12300E-01 -1.91660E-01
    8988.046     -8.130  -0.120  1.23256E-01  3.22344E-01 -1.99087E-01
    8988.077     -8.100  -0.080  1.25145E-01  3.29578E-01 -2.04433E-01
    8988.101     -8.075   0.000  1.26674E-01  3.35389E-01 -2.08714E-01
    8988.156     -8.020   0.120  1.30171E-01  3.48494E-01 -2.18323E-01
    8988.199     -7.978   0.160  1.32857E-01  3.58673E-01 -2.25816E-01
    8988.253     -7.923   0.200  1.36308E-01  3.71684E-01 -2.35376E-01
    8988.320     -7.856   0.240  1.40487E-01  3.87308E-01 -2.46821E-01
    8988.400     -7.777   0.280  1.45409E-01  4.05251E-01 -2.59841E-01
    8988.491     -7.685   0.320  1.51058E-01  4.25030E-01 -2.73972E-01
    8988.595     -7.581   0.360  1.57511E-01  4.46096E-01 -2.88586E-01
    8988.711     -7.466   0.400  1.64833E-01  4.67799E-01 -3.02966E-01
    8988.839     -7.338   0.440  1.73244E-01  4.89584E-01 -3.16339E-01
    8988.979     -7.197   0.480  1.83102E-01  5.11019E-01 -3.27917E-01
    8989.131     -7.045   0.520  1.94917E-01  5.31812E-01 -3.36894E-01
    8989.296     -6.880   0.560  2.09489E-01  5.51814E-01 -3.42325E-01
    8989.473     -6.704   0.600  2.27931E-01  5.71010E-01 -3.43079E-01
    8989.662     -6.515   0.640  2.51742E-01  5.89442E-01 -3.37700E-01
    8989.863     -6.313   0.680  2.82689E-01  6.07165E-01 -3.24476E-01
    8990.076     -6.100   0.720  3.22666E-01  6.24313E-01 -3.01647E-01
    8990.302     -5.875   0.760  3.72900E-01  6.40958E-01 -2.68058E-01
    8990.539     -5.637   0.800  4.32672E-01  6.57200E-01 -2.24528E-01
    8990.789     -5.387   0.840  4.96653E-01  6.73065E-01 -1.76412E-01
    8991.051     -5.125   0.880  5.53131E-01  6.88649E-01 -1.35518E-01
    8991.326     -4.850   0.920  5.86804E-01  7.03948E-01 -1.17145E-01
    8991.612     -4.564   0.960  5.88124E-01  7.19010E-01 -1.30885E-01
    8991.911     -4.265   1.000  5.61451E-01  7.33848E-01 -1.72396E-01
    8992.222     -3.954   1.040  5.22937E-01  7.48467E-01 -2.25530E-01
    8992.545     -3.631   1.080  4.88951E-01  7.62827E-01 -2.73876E-01
    8992.880     -3.296   1.120  4.67697E-01  7.76957E-01 -3.09260E-01
    8993.228     -2.949   1.160  4.60811E-01  7.90824E-01 -3.30013E-01
    8993.587     -2.589   1.200  4.67954E-01  8.04410E-01 -3.36457E-01
    8993.959     -2.217   1.240  4.86317E-01  8.17674E-01 -3.31358E-01
    8994.343     -1.833   1.280  5.10283E-01  8.30614E-01 -3.20331E-01
    8994.739     -1.437   1.320  5.35613E-01  8.43224E-01 -3.07611E-01
    8995.148     -1.028   1.360  5.59894E-01  8.55437E-01 -2.95543E-01
    8995.569     -0.608   1.400  5.80026E-01  8.67247E-01 -2.87221E-01
    8996.001     -0.175   1.440  5.99088E-01  8.78651E-01 -2.79563E-01
    8996.446      0.270   1.480  6.27176E-01  8.89602E-01 -2.62426E-01
    8996.904      0.727   1.520  6.74045E-01  9.00093E-01 -2.26048E-01
    8997.373      1.197   1.560  7.44333E-01  9.10121E-01 -1.65788E-01
    8997.855      1.678   1.600  8.39989E-01  9.19682E-01 -7.96930E-02
    8998.348      2.172   1.640  9.66078E-01  9.28714E-01  3.73647E-02
    8998.854      2.678   1.680  1.11387E+00  9.37274E-01  1.76596E-01
    8999.372      3.196   1.720  1.25685E+00  9.45322E-01  3.11531E-01
    8999.903      3.727   1.760  1.38556E+00  9.52861E-01  4.32697E-01
    9000.445      4.269   1.800  1.48787E+00  9.59892E-01  5.27976E-01
    9001.000      4.824   1.840  1.53548E+00  9.66439E-01  5.69038E-01
    9001.567      5.391   1.880  1.52690E+00  9.72486E-01  5.54413E-01
    9002.146      5.970   1.920  1.49625E+00  9.78059E-01  5.18189E-01
    9002.737      6.561   1.960  1.48298E+00  9.83165E-01  4.99811E-01
    9003.341      7.165   2.000  1.49170E+00  9.87789E-01  5.03906E-01
    9003.957      7.780   2.040  1.49317E+00  9.92000E-01  5.01168E-01
    9004.584      8.408   2.080  1.45967E+00  9.95767E-01  4.63905E-01
    9005.225      9.048   2.120  1.39005E+00  9.99119E-01  3.90931E-01
    9005.877      9.701   2.160  1.30044E+00  1.00209E+00  2.98359E-01
    9006.541     10.365   2.200  1.20848E+00  1.00466E+00  2.03826E-01
    9007.218     11.042   2.240  1.12882E+00  1.00690E+00  1.21914E-01
    9007.907     11.731   2.280  1.06856E+00  1.00879E+00  5.97643E-02
    9008.608     12.432   2.320  1.02522E+00  1.01038E+00  1.48387E-02
    9009.321     13.145   2.360  9.90934E-01  1.01167E+00 -2.07398E-02
    9010.046     13.870   2.400  9.61947E-01  1.01268E+00 -5.07378E-02
    9010.784     14.608   2.440  9.40349E-01  1.01344E+00 -7.30939E-02
    9011.534     15.358   2.480  9.27806E-01  1.01398E+00 -8.61748E-02
    9012.296     16.120   2.520  9.28047E-01  1.01429E+00 -8.62386E-02
    9013.070     16.894   2.560  9.31865E-01  1.01441E+00 -8.25432E-02
    9013.856     17.680   2.600  9.38072E-01  1.01436E+00 -7.62847E-02
    9014.655     18.479   2.640  9.44987E-01  1.01412E+00 -6.91355E-02
    9015.466     19.290   2.680  9.50655E-01  1.01377E+00 -6.31190E-02
    9016.289     20.113   2.720  9.53453E-01  1.01328E+00 -5.98243E-02
    9017.124     20.948   2.760  9.53082E-01  1.01268E+00 -5.96024E-02
    9017.971     21.795   2.800  9.50614E-01  1.01198E+00 -6.13662E-02
    9018.831     22.655   2.840  9.47838E-01  1.01121E+00 -6.33741E-02
    9019.703     23.526   2.880  9.46187E-01  1.01037E+00 -6.41819E-02
    9020.586     24.410   2.920  9.46229E-01  1.00945E+00 -6.32246E-02
    9021.483     25.306   2.960  9.47906E-01  1.00852E+00 -6.06095E-02
    9022.391     26.215   3.000  9.51118E-01  1.00754E+00 -5.64229E-02
    9023.311     27.135   3.040  9.55570E-01  1.00654E+00 -5.09652E-02
    9024.244     28.068   3.080  9.60932E-01  1.00554E+00 -4.46098E-02
    9025.189     29.013   3.120  9.66346E-01  1.00453E+00 -3.81792E-02
    9026.146     29.970   3.160  9.70436E-01  1.00353E+00 -3.30973E-02
    9027.115     30.939   3.200  9.71861E-01  1.00255E+00 -3.06847E-02
    9028.097     31.920   3.240  9.69833E-01  1.00157E+00 -3.17328E-02
    9029.090     32.914   3.280  9.64277E-01  1.00062E+00 -3.63404E-02
    9030.096     33.920   3.320  9.55936E-01  9.99708E-01 -4.37716E-02
    9031.114     34.938   3.360  9.46108E-01  9.98838E-01 -5.27299E-02
    9032.144     35.968   3.400  9.36267E-01  9.98029E-01 -6.17621E-02
    9033.187     37.011   3.440  9.27570E-01  9.97244E-01 -6.96731E-02
    9034.241     38.065   3.480  9.20989E-01  9.96523E-01 -7.55341E-02
    9035.308     39.132   3.520  9.17165E-01  9.95849E-01 -7.86840E-02
    9036.387     40.211   3.560  9.16307E-01  9.95221E-01 -7.89133E-02
    9037.478     41.302   3.600  9.18194E-01  9.94663E-01 -7.64694E-02
    9038.582     42.406   3.640  9.22620E-01  9.94177E-01 -7.15570E-02
    9039.697     43.521   3.680  9.29463E-01  9.93739E-01 -6.42761E-02
    9040.825     44.649   3.720  9.38570E-01  9.93352E-01 -5.47820E-02
    9041.965     45.789   3.760  9.49538E-01  9.93036E-01 -4.34978E-02
    9043.117     46.941   3.800  9.61383E-01  9.92793E-01 -3.14097E-02
    9044.281     48.105   3.840  9.72441E-01  9.92600E-01 -2.01592E-02
    9045.458     49.282   3.880  9.81066E-01  9.92481E-01 -1.14149E-02
    9046.647     50.471   3.920  9.86480E-01  9.92435E-01 -5.95511E-03
    9047.848     51.671   3.960  9.89118E-01  9.92436E-01 -3.31785E-03
    9049.061     52.885   4.000  9.90528E-01  9.92485E-01 -1.95764E-03
    9050.286     54.110   4.040  9.92613E-01  9.92604E-01  8.92655E-06
    9051.523     55.347   4.080  9.96950E-01  9.92770E-01  4.18017E-03
    9052.773     56.597   4.120  1.00449E+00  9.93005E-01  1.14819E-02
    9054.035     57.859   4.160  1.01544E+00  9.93284E-01  2.21514E-02
    9055.309     59.133   4.200  1.02942E+00  9.93605E-01  3.58105E-02
    9056.595     60.419   4.240  1.04550E+00  9.93968E-01  5.15353E-02
    9057.894     61.718   4.280  1.06233E+00  9.94371E-01  6.79576E-02
    9059.204     63.028   4.320  1.07846E+00  9.94812E-01  8.36507E-02
    9060.527     64.351   4.360  1.09277E+00  9.95292E-01  9.74767E-02
    9061.862     65.686   4.400  1.10479E+00  9.95808E-01  1.08977E-01
    9063.209     67.033   4.440  1.11462E+00  9.96338E-01  1.18279E-01
    9064.569     68.393   4.480  1.12220E+00  9.96921E-01  1.25279E-01
    9065.940     69.764   4.520  1.12642E+00  9.97491E-01  1.28933E-01
    9067.324     71.148   4.560  1.12563E+00  9.98092E-01  1.27537E-01
    9068.720     72.544   4.600  1.11856E+00  9.98721E-01  1.19834E-01
    9070.128     73.952   4.640  1.10531E+00  9.99355E-01  1.05953E-01
    9071.549     75.373   4.680  1.08753E+00  9.99991E-01  8.75392E-02
    9072.981     76.805   4.720  1.06751E+00  1.00062E+00  6.68902E-02
    9074.426     78.250   4.760  1.04710E+00  1.00126E+00  4.58489E-02
    9075.883     79.707   4.800  1.02733E+00  1.00186E+00  2.54665E-02
    9077.352     81.176   4.840  1.00878E+00  1.00249E+00  6.29215E-03
    9078.833     82.657   4.880  9.91891E-01  1.00308E+00 -1.11921E-02
    9080.327     84.151   4.920  9.77130E-01  1.00367E+00 -2.65433E-02
    9081.833     85.656   4.960  9.64630E-01  1.00425E+00 -3.96246E-02
    9083.351     87.174   5.000  9.54217E-01  1.00480E+00 -5.05860E-02
    9084.881     88.704   5.040  9.45658E-01  1.00532E+00 -5.96581E-02
    9086.423     90.247   5.080  9.38825E-01  1.00582E+00 -6.69912E-02
    9087.977     91.801   5.120  9.33661E-01  1.00628E+00 -7.26174E-02
    9089.544     93.368   5.160  9.30240E-01  1.00670E+00 -7.64634E-02
    9091.123     94.947   5.200  9.28679E-01  1.00709E+00 -7.84113E-02
    9092.714     96.538   5.240  9.28937E-01  1.00746E+00 -7.85225E-02
    9094.317     98.141   5.280  9.30847E-01  1.00776E+00 -7.69168E-02
    9095.933     99.756   5.320  9.34554E-01  1.00803E+00 -7.34734E-02
    9097.560    101.384   5.360  9.40468E-01  1.00827E+00 -6.78041E-02
    9099.200    103.024   5.400  9.48764E-01  1.00845E+00 -5.96877E-02
    9100.852    104.676   5.440  9.59131E-01  1.00859E+00 -4.94557E-02
    9102.516    106.340   5.480  9.70763E-01  1.00868E+00 -3.79172E-02
    9104.193    108.017   5.520  9.82647E-01  1.00873E+00 -2.60823E-02
    9105.881    109.705   5.560  9.93723E-01  1.00874E+00 -1.50152E-02
    9107.582    111.406   5.600  1.00286E+00  1.00870E+00 -5.84433E-03
    9109.295    113.119   5.640  1.00903E+00  1.00860E+00  4.28665E-04
    9111.020    114.844   5.680  1.01180E+00  1.00845E+00  3.34946E-03
    9112.758    116.581   5.720  1.01153E+00  1.00829E+00  3.24786E-03
    9114.507    118.331   5.760  1.00924E+00  1.00806E+00  1.18105E-03
    9116.269    120.093   5.800  1.00640E+00  1.00778E+00 -1.38869E-03
    9118.043    121.867   5.840  1.00436E+00  1.00747E+00 -3.11640E-03
    9119.829    123.653   5.880  1.00386E+00  1.00712E+00 -3.26227E-03
    9121.627    125.451   5.920  1.00485E+00  1.00674E+00 -1.88562E-03
    9123.438    127.261   5.960  1.00697E+00  1.00632E+00  6.55654E-04
    9125.260    129.084   6.000  1.00940E+00  1.00583E+00  3.56848E-03
