# # comment:                                                     FEFF 9.9.1  
# # Source:
# # Structure
# # Reduced
# # space
# # abc:
# # angles:
# # sites:
# # POT  SCF 100  7.0000   0, screened core-hole, AFOLP (folp(0)= 1.150)
# # Abs   Z=29 Rmt= 1.345 Rnm= 1.408 K  shell
# # Pot 1 Z= 3 Rmt= 1.282 Rnm= 1.343
# # Pot 2 Z=29 Rmt= 1.334 Rnm= 1.402
# # Pot 3 Z=15 Rmt= 0.945 Rnm= 1.155
# # Pot 4 Z= 8 Rmt= 0.938 Rnm= 1.038
# # Gam_ch=1.729E+00 H-L exch Vi= 0.000E+00 Vr= 0.000E+00
# # Mu=-6.187E+00eV kf=2.369E+00 Vint=-1.732E+01eV Rs_int= 1.531
# FMS rfms= 9.0000
# # PATH  Rmax=-1.000,  Keep_limit= 0.00, Heap_limit 0.00  Pwcrit= 2.50%
#  S02=0.950  Temp=   0.00  Debye_temp=   0.00  Global_sig2= 0.00000
#  Energy zero shift, vr, vi    0.00000E+00   0.00000E+00
#  Curved wave amplitude ratio filter   4.000%
#     file         sig2 tot  cw amp ratio   deg  nlegs   reff  inp sig2
#     0/   0 paths used
#  xsedge+ 50, used to normalize mu           2.4673E-04
#  -----------------------------------------------------------------------
#  omega    e    k    mu    mu0     chi     @#
    8983.619     -9.997  -1.000  5.24760E-02  5.50938E-02 -2.61783E-03
    8983.918     -9.699  -0.960  5.60601E-02  5.91363E-02 -3.07625E-03
    8984.204     -9.412  -0.920  6.00181E-02  6.36336E-02 -3.61548E-03
    8984.478     -9.138  -0.880  6.44028E-02  6.86532E-02 -4.25040E-03
    8984.741     -8.876  -0.840  6.92750E-02  7.42739E-02 -4.99885E-03
    8984.990     -8.626  -0.800  7.47050E-02  8.05870E-02 -5.88206E-03
    8985.228     -8.388  -0.760  8.07725E-02  8.76977E-02 -6.92517E-03
    8985.454     -8.163  -0.720  8.75670E-02  9.57245E-02 -8.15748E-03
    8985.667     -7.949  -0.680  9.51862E-02  1.04798E-01 -9.61231E-03
    8985.868     -7.748  -0.640  1.03732E-01  1.15058E-01 -1.13259E-02
    8986.057     -7.559  -0.600  1.13304E-01  1.26639E-01 -1.33351E-02
    8986.234     -7.382  -0.560  1.23986E-01  1.39658E-01 -1.56718E-02
    8986.399     -7.218  -0.520  1.35829E-01  1.54185E-01 -1.83554E-02
    8986.551     -7.065  -0.480  1.48824E-01  1.70205E-01 -2.13808E-02
    8986.691     -6.925  -0.440  1.62872E-01  1.87578E-01 -2.47055E-02
    8986.819     -6.797  -0.400  1.77759E-01  2.05998E-01 -2.82391E-02
    8986.935     -6.681  -0.360  1.93144E-01  2.24987E-01 -3.18431E-02
    8987.039     -6.578  -0.320  2.08577E-01  2.43923E-01 -3.53463E-02
    8987.130     -6.486  -0.280  2.23539E-01  2.62115E-01 -3.85753E-02
    8987.209     -6.407  -0.240  2.37511E-01  2.78900E-01 -4.13885E-02
    8987.276     -6.340  -0.200  2.50023E-01  2.93725E-01 -4.37017E-02
    8987.331     -6.285  -0.160  2.60696E-01  3.06188E-01 -4.54922E-02
    8987.374     -6.242  -0.120  2.69248E-01  3.16034E-01 -4.67859E-02
    8987.404     -6.212  -0.080  2.75488E-01  3.23123E-01 -4.76349E-02
    8987.429     -6.187   0.000  2.80579E-01  3.28816E-01 -4.82366E-02
    8987.484     -6.133   0.120  2.91946E-01  3.41657E-01 -4.97111E-02
    8987.526     -6.090   0.160  3.00913E-01  3.51616E-01 -5.07027E-02
    8987.581     -6.035   0.200  3.12561E-01  3.64316E-01 -5.17546E-02
    8987.648     -5.968   0.240  3.26923E-01  3.79569E-01 -5.26463E-02
    8987.728     -5.889   0.280  3.43928E-01  3.97051E-01 -5.31229E-02
    8987.819     -5.797   0.320  3.63417E-01  4.16294E-01 -5.28772E-02
    8987.923     -5.694   0.360  3.85019E-01  4.36697E-01 -5.16786E-02
    8988.038     -5.578   0.400  4.08157E-01  4.57647E-01 -4.94901E-02
    8988.166     -5.450   0.440  4.31965E-01  4.78603E-01 -4.66384E-02
    8988.307     -5.310   0.480  4.55079E-01  4.99092E-01 -4.40124E-02
    8988.459     -5.157   0.520  4.75720E-01  5.18841E-01 -4.31213E-02
    8988.624     -4.993   0.560  4.91881E-01  5.37727E-01 -4.58456E-02
    8988.800     -4.816   0.600  5.01980E-01  5.55738E-01 -5.37580E-02
    8988.989     -4.627   0.640  5.05694E-01  5.72898E-01 -6.72038E-02
    8989.191     -4.426   0.680  5.04605E-01  5.89357E-01 -8.47522E-02
    8989.404     -4.212   0.720  5.01585E-01  6.05172E-01 -1.03587E-01
    8989.629     -3.987   0.760  5.00113E-01  6.20463E-01 -1.20350E-01
    8989.867     -3.749   0.800  5.03387E-01  6.35362E-01 -1.31976E-01
    8990.117     -3.499   0.840  5.13309E-01  6.49907E-01 -1.36598E-01
    8990.379     -3.237   0.880  5.29625E-01  6.64199E-01 -1.34574E-01
    8990.654     -2.963   0.920  5.49930E-01  6.78286E-01 -1.28356E-01
    8990.940     -2.676   0.960  5.71384E-01  6.92202E-01 -1.20819E-01
    8991.239     -2.377   1.000  5.92445E-01  7.05974E-01 -1.13529E-01
    8991.550     -2.067   1.040  6.13412E-01  7.19615E-01 -1.06203E-01
    8991.873     -1.744   1.080  6.36294E-01  7.33151E-01 -9.68572E-02
    8992.208     -1.408   1.120  6.63857E-01  7.46580E-01 -8.27232E-02
    8992.556     -1.061   1.160  6.98313E-01  7.59874E-01 -6.15617E-02
    8992.915     -0.701   1.200  7.40425E-01  7.73065E-01 -3.26395E-02
    8993.287     -0.329   1.240  7.88361E-01  7.86092E-01  2.26865E-03
    8993.671      0.055   1.280  8.39069E-01  7.98979E-01  4.00904E-02
    8994.067      0.451   1.320  8.89821E-01  8.11682E-01  7.81399E-02
    8994.476      0.859   1.360  9.35338E-01  8.24176E-01  1.11161E-01
    8994.896      1.280   1.400  9.70229E-01  8.36458E-01  1.33771E-01
    8995.329      1.713   1.440  9.97879E-01  8.48500E-01  1.49379E-01
    8995.774      2.158   1.480  1.02715E+00  8.60275E-01  1.66874E-01
    8996.231      2.615   1.520  1.06374E+00  8.71754E-01  1.91988E-01
    8996.701      3.085   1.560  1.10979E+00  8.82908E-01  2.26886E-01
    8997.182      3.566   1.600  1.16279E+00  8.93730E-01  2.69061E-01
    8997.676      4.060   1.640  1.21608E+00  9.04211E-01  3.11873E-01
    8998.182      4.566   1.680  1.26482E+00  9.14303E-01  3.50515E-01
    8998.700      5.084   1.720  1.30255E+00  9.23999E-01  3.78550E-01
    8999.231      5.614   1.760  1.31699E+00  9.33273E-01  3.83713E-01
    8999.773      6.157   1.800  1.29642E+00  9.42140E-01  3.54279E-01
    9000.328      6.712   1.840  1.24701E+00  9.50573E-01  2.96433E-01
    9000.895      7.279   1.880  1.18994E+00  9.58551E-01  2.31385E-01
    9001.474      7.858   1.920  1.14336E+00  9.66069E-01  1.77288E-01
    9002.065      8.449   1.960  1.11230E+00  9.73146E-01  1.39152E-01
    9002.669      9.052   2.000  1.09318E+00  9.79742E-01  1.13438E-01
    9003.284      9.668   2.040  1.08211E+00  9.85897E-01  9.62152E-02
    9003.912     10.296   2.080  1.07829E+00  9.91572E-01  8.67156E-02
    9004.552     10.936   2.120  1.07935E+00  9.96810E-01  8.25375E-02
    9005.205     11.588   2.160  1.07561E+00  1.00157E+00  7.40397E-02
    9005.869     12.253   2.200  1.05861E+00  1.00591E+00  5.27009E-02
    9006.546     12.930   2.240  1.03258E+00  1.00982E+00  2.27602E-02
    9007.235     13.618   2.280  1.00772E+00  1.01329E+00 -5.56796E-03
    9007.936     14.319   2.320  9.87753E-01  1.01637E+00 -2.86175E-02
    9008.649     15.033   2.360  9.69925E-01  1.01903E+00 -4.91002E-02
    9009.374     15.758   2.400  9.53493E-01  1.02132E+00 -6.78302E-02
    9010.112     16.496   2.440  9.41913E-01  1.02325E+00 -8.13389E-02
    9010.862     17.245   2.480  9.37569E-01  1.02482E+00 -8.72519E-02
    9011.624     18.007   2.520  9.38214E-01  1.02606E+00 -8.78451E-02
    9012.398     18.782   2.560  9.39262E-01  1.02699E+00 -8.77321E-02
    9013.184     19.568   2.600  9.37727E-01  1.02762E+00 -8.98900E-02
    9013.983     20.367   2.640  9.32809E-01  1.02798E+00 -9.51692E-02
    9014.794     21.177   2.680  9.24605E-01  1.02807E+00 -1.03461E-01
    9015.617     22.000   2.720  9.14678E-01  1.02793E+00 -1.13252E-01
    9016.452     22.835   2.760  9.08024E-01  1.02756E+00 -1.19538E-01
    9017.299     23.683   2.800  9.10173E-01  1.02701E+00 -1.16837E-01
    9018.159     24.542   2.840  9.17713E-01  1.02626E+00 -1.08551E-01
    9019.030     25.414   2.880  9.27449E-01  1.02535E+00 -9.79029E-02
    9019.914     26.298   2.920  9.37840E-01  1.02430E+00 -8.64643E-02
    9020.810     27.194   2.960  9.48266E-01  1.02311E+00 -7.48423E-02
    9021.719     28.102   3.000  9.58682E-01  1.02181E+00 -6.31324E-02
    9022.639     29.023   3.040  9.68781E-01  1.02043E+00 -5.16504E-02
    9023.572     29.956   3.080  9.78038E-01  1.01894E+00 -4.09053E-02
    9024.517     30.900   3.120  9.86057E-01  1.01740E+00 -3.13444E-02
    9025.474     31.858   3.160  9.92405E-01  1.01581E+00 -2.34054E-02
    9026.443     32.827   3.200  9.96867E-01  1.01418E+00 -1.73126E-02
    9027.425     33.808   3.240  9.99635E-01  1.01251E+00 -1.28801E-02
    9028.418     34.802   3.280  1.00091E+00  1.01084E+00 -9.93235E-03
    9029.424     35.808   3.320  1.00084E+00  1.00917E+00 -8.32715E-03
    9030.442     36.826   3.360  9.99844E-01  1.00749E+00 -7.64837E-03
    9031.472     37.856   3.400  9.98741E-01  1.00585E+00 -7.10750E-03
    9032.515     38.898   3.440  9.98434E-01  1.00424E+00 -5.80456E-03
    9033.569     39.953   3.480  9.99652E-01  1.00265E+00 -2.99306E-03
    9034.636     41.020   3.520  1.00283E+00  1.00111E+00  1.71669E-03
    9035.715     42.099   3.560  1.00790E+00  9.99627E-01  8.26931E-03
    9036.806     43.190   3.600  1.01446E+00  9.98188E-01  1.62746E-02
    9037.910     44.293   3.640  1.02205E+00  9.96819E-01  2.52281E-02
    9039.025     45.409   3.680  1.03013E+00  9.95526E-01  3.46040E-02
    9040.153     46.537   3.720  1.03811E+00  9.94289E-01  4.38169E-02
    9041.293     47.677   3.760  1.04552E+00  9.93151E-01  5.23718E-02
    9042.445     48.829   3.800  1.05192E+00  9.92094E-01  5.98242E-02
    9043.609     49.993   3.840  1.05683E+00  9.91097E-01  6.57311E-02
    9044.786     51.170   3.880  1.05996E+00  9.90205E-01  6.97588E-02
    9045.975     52.358   3.920  1.06115E+00  9.89397E-01  7.17513E-02
    9047.175     53.559   3.960  1.06039E+00  9.88694E-01  7.16956E-02
    9048.389     54.772   4.000  1.05775E+00  9.88055E-01  6.96920E-02
    9049.614     55.998   4.040  1.05348E+00  9.87523E-01  6.59587E-02
    9050.851     57.235   4.080  1.04777E+00  9.87076E-01  6.06943E-02
    9052.101     58.485   4.120  1.04084E+00  9.86736E-01  5.41006E-02
    9053.363     59.747   4.160  1.03291E+00  9.86479E-01  4.64261E-02
    9054.637     61.021   4.200  1.02427E+00  9.86284E-01  3.79871E-02
    9055.923     62.307   4.240  1.01528E+00  9.86191E-01  2.90906E-02
    9057.222     63.605   4.280  1.00621E+00  9.86181E-01  2.00297E-02
    9058.532     64.916   4.320  9.97303E-01  9.86252E-01  1.10511E-02
    9059.855     66.239   4.360  9.88743E-01  9.86403E-01  2.34000E-03
    9061.190     67.574   4.400  9.80683E-01  9.86632E-01 -5.94883E-03
    9062.537     68.921   4.440  9.73226E-01  9.86937E-01 -1.37109E-02
    9063.897     70.280   4.480  9.66376E-01  9.87294E-01 -2.09171E-02
    9065.268     71.652   4.520  9.60191E-01  9.87722E-01 -2.75318E-02
    9066.652     73.036   4.560  9.54767E-01  9.88222E-01 -3.34548E-02
    9068.048     74.432   4.600  9.50206E-01  9.88745E-01 -3.85392E-02
    9069.456     75.840   4.640  9.46748E-01  9.89332E-01 -4.25836E-02
    9070.877     77.260   4.680  9.44574E-01  9.89962E-01 -4.53878E-02
    9072.309     78.693   4.720  9.43748E-01  9.90631E-01 -4.68832E-02
    9073.754     80.138   4.760  9.44197E-01  9.91337E-01 -4.71394E-02
    9075.211     81.595   4.800  9.45684E-01  9.92054E-01 -4.63696E-02
    9076.680     83.064   4.840  9.47964E-01  9.92803E-01 -4.48387E-02
    9078.161     84.545   4.880  9.50886E-01  9.93580E-01 -4.26941E-02
    9079.655     86.039   4.920  9.54469E-01  9.94341E-01 -3.98716E-02
    9081.161     87.544   4.960  9.58952E-01  9.95125E-01 -3.61731E-02
    9082.678     89.062   5.000  9.64505E-01  9.95910E-01 -3.14048E-02
    9084.209     90.592   5.040  9.71162E-01  9.96691E-01 -2.55284E-02
    9085.751     92.134   5.080  9.78772E-01  9.97443E-01 -1.86708E-02
    9087.305     93.689   5.120  9.87099E-01  9.98185E-01 -1.10856E-02
    9088.872     95.256   5.160  9.95766E-01  9.98896E-01 -3.12928E-03
    9090.451     96.834   5.200  1.00434E+00  9.99593E-01  4.75155E-03
    9092.042     98.426   5.240  1.01224E+00  1.00025E+00  1.19862E-02
    9093.645    100.029   5.280  1.01890E+00  1.00088E+00  1.80199E-02
    9095.261    101.644   5.320  1.02391E+00  1.00146E+00  2.24505E-02
    9096.888    103.272   5.360  1.02712E+00  1.00199E+00  2.51332E-02
    9098.528    104.912   5.400  1.02859E+00  1.00246E+00  2.61359E-02
    9100.180    106.564   5.440  1.02845E+00  1.00288E+00  2.55738E-02
    9101.844    108.228   5.480  1.02681E+00  1.00325E+00  2.35577E-02
    9103.521    109.904   5.520  1.02387E+00  1.00358E+00  2.02911E-02
    9105.209    111.593   5.560  1.01996E+00  1.00381E+00  1.61497E-02
    9106.910    113.294   5.600  1.01560E+00  1.00401E+00  1.15879E-02
    9108.623    115.007   5.640  1.01118E+00  1.00412E+00  7.06000E-03
    9110.348    116.732   5.680  1.00721E+00  1.00417E+00  3.03747E-03
    9112.085    118.469   5.720  1.00417E+00  1.00417E+00 -1.97733E-06
    9113.835    120.219   5.760  1.00236E+00  1.00411E+00 -1.74406E-03
    9115.597    121.980   5.800  1.00173E+00  1.00396E+00 -2.23060E-03
    9117.371    123.754   5.840  1.00190E+00  1.00374E+00 -1.84341E-03
    9119.157    125.540   5.880  1.00238E+00  1.00347E+00 -1.09886E-03
    9120.955    127.339   5.920  1.00271E+00  1.00314E+00 -4.24689E-04
    9122.766    129.149   5.960  1.00266E+00  1.00275E+00 -8.47347E-05
    9124.588    130.972   6.000  1.00210E+00  1.00224E+00 -1.41509E-04
