# # comment:                                                     FEFF 9.9.1  
# # Source:
# # Structure
# # Reduced
# # space
# # abc:
# # angles:
# # sites:
# # POT  SCF 100  7.0000   0, screened core-hole, AFOLP (folp(0)= 1.150)
# # Abs   Z=29 Rmt= 1.318 Rnm= 1.391 K  shell
# # Pot 1 Z=12 Rmt= 1.410 Rnm= 1.486
# # Pot 2 Z=29 Rmt= 1.307 Rnm= 1.376
# # Pot 3 Z=42 Rmt= 1.169 Rnm= 1.368
# # Pot 4 Z= 8 Rmt= 0.938 Rnm= 1.081
# # Gam_ch=1.729E+00 H-L exch Vi= 0.000E+00 Vr= 0.000E+00
# # Mu=-5.513E+00eV kf=2.270E+00 Vint=-1.578E+01eV Rs_int= 1.597
# FMS rfms= 9.0000
# # PATH  Rmax=-1.000,  Keep_limit= 0.00, Heap_limit 0.00  Pwcrit= 2.50%
#  S02=0.950  Temp=   0.00  Debye_temp=   0.00  Global_sig2= 0.00000
#  Energy zero shift, vr, vi    0.00000E+00   0.00000E+00
#  Curved wave amplitude ratio filter   4.000%
#     file         sig2 tot  cw amp ratio   deg  nlegs   reff  inp sig2
#     0/   0 paths used
#  xsedge+ 50, used to normalize mu           2.4589E-04
#  -----------------------------------------------------------------------
#  omega    e    k    mu    mu0     chi     @#
    8983.567     -9.323  -1.000  5.09372E-02  5.79555E-02 -7.01822E-03
    8983.866     -9.024  -0.960  5.43017E-02  6.22973E-02 -7.99556E-03
    8984.152     -8.738  -0.920  5.80073E-02  6.71338E-02 -9.12652E-03
    8984.427     -8.463  -0.880  6.21018E-02  7.25388E-02 -1.04370E-02
    8984.689     -8.201  -0.840  6.66413E-02  7.85986E-02 -1.19573E-02
    8984.939     -7.951  -0.800  7.16904E-02  8.54129E-02 -1.37225E-02
    8985.177     -7.714  -0.760  7.73236E-02  9.30967E-02 -1.57732E-02
    8985.402     -7.488  -0.720  8.36250E-02  1.01780E-01 -1.81550E-02
    8985.615     -7.275  -0.680  9.06872E-02  1.11606E-01 -2.09186E-02
    8985.817     -7.073  -0.640  9.86082E-02  1.22726E-01 -2.41177E-02
    8986.006     -6.885  -0.600  1.07483E-01  1.35289E-01 -2.78058E-02
    8986.182     -6.708  -0.560  1.17393E-01  1.49423E-01 -3.20304E-02
    8986.347     -6.543  -0.520  1.28381E-01  1.65205E-01 -3.68239E-02
    8986.499     -6.391  -0.480  1.40429E-01  1.82620E-01 -4.21911E-02
    8986.640     -6.251  -0.440  1.53418E-01  2.01513E-01 -4.80950E-02
    8986.768     -6.123  -0.400  1.67111E-01  2.21554E-01 -5.44429E-02
    8986.883     -6.007  -0.360  1.81138E-01  2.42219E-01 -6.10809E-02
    8986.987     -5.903  -0.320  1.95030E-01  2.62830E-01 -6.78000E-02
    8987.078     -5.812  -0.280  2.08277E-01  2.82633E-01 -7.43562E-02
    8987.158     -5.732  -0.240  2.20405E-01  3.00906E-01 -8.05012E-02
    8987.225     -5.665  -0.200  2.31033E-01  3.17044E-01 -8.60110E-02
    8987.280     -5.610  -0.160  2.39905E-01  3.30611E-01 -9.07062E-02
    8987.322     -5.568  -0.120  2.46868E-01  3.41327E-01 -9.44593E-02
    8987.353     -5.537  -0.080  2.51851E-01  3.49042E-01 -9.71907E-02
    8987.377     -5.513   0.000  2.55817E-01  3.55236E-01 -9.94193E-02
    8987.432     -5.458   0.120  2.64774E-01  3.69199E-01 -1.04426E-01
    8987.475     -5.415   0.160  2.71707E-01  3.80032E-01 -1.08325E-01
    8987.530     -5.361   0.200  2.80543E-01  3.93863E-01 -1.13320E-01
    8987.597     -5.293   0.240  2.91107E-01  4.10446E-01 -1.19339E-01
    8987.676     -5.214   0.280  3.03248E-01  4.29448E-01 -1.26199E-01
    8987.767     -5.123   0.320  3.16741E-01  4.50355E-01 -1.33614E-01
    8987.871     -5.019   0.360  3.31361E-01  4.72491E-01 -1.41130E-01
    8987.987     -4.903   0.400  3.47006E-01  4.95204E-01 -1.48197E-01
    8988.115     -4.775   0.440  3.63677E-01  5.17879E-01 -1.54202E-01
    8988.255     -4.635   0.480  3.81390E-01  5.40000E-01 -1.58610E-01
    8988.407     -4.483   0.520  4.00173E-01  5.61266E-01 -1.61093E-01
    8988.572     -4.318   0.560  4.19924E-01  5.81537E-01 -1.61614E-01
    8988.749     -4.141   0.600  4.40233E-01  6.00780E-01 -1.60548E-01
    8988.938     -3.952   0.640  4.60265E-01  6.19041E-01 -1.58777E-01
    8989.139     -3.751   0.680  4.78871E-01  6.36412E-01 -1.57540E-01
    8989.352     -3.538   0.720  4.95285E-01  6.53020E-01 -1.57736E-01
    8989.578     -3.312   0.760  5.09838E-01  6.68973E-01 -1.59135E-01
    8989.816     -3.075   0.800  5.24081E-01  6.84367E-01 -1.60285E-01
    8990.065     -2.825   0.840  5.40080E-01  6.99285E-01 -1.59205E-01
    8990.328     -2.562   0.880  5.59619E-01  7.13792E-01 -1.54173E-01
    8990.602     -2.288   0.920  5.83164E-01  7.27961E-01 -1.44797E-01
    8990.888     -2.002   0.960  6.08485E-01  7.41786E-01 -1.33302E-01
    8991.187     -1.703   1.000  6.30182E-01  7.55336E-01 -1.25154E-01
    8991.498     -1.392   1.040  6.43401E-01  7.68605E-01 -1.25204E-01
    8991.821     -1.069   1.080  6.49920E-01  7.81619E-01 -1.31699E-01
    8992.156     -0.734   1.120  6.56583E-01  7.94339E-01 -1.37756E-01
    8992.504     -0.386   1.160  6.69084E-01  8.06818E-01 -1.37734E-01
    8992.864     -0.027   1.200  6.89556E-01  8.18984E-01 -1.29429E-01
    8993.235      0.345   1.240  7.18926E-01  8.30866E-01 -1.11939E-01
    8993.619      0.729   1.280  7.57696E-01  8.42444E-01 -8.47476E-02
    8994.016      1.126   1.320  8.04735E-01  8.53700E-01 -4.89652E-02
    8994.424      1.534   1.360  8.57658E-01  8.64613E-01 -6.95435E-03
    8994.845      1.955   1.400  9.14507E-01  8.75181E-01  3.93255E-02
    8995.278      2.387   1.440  9.74379E-01  8.85363E-01  8.90152E-02
    8995.723      2.832   1.480  1.03494E+00  8.95176E-01  1.39763E-01
    8996.180      3.290   1.520  1.09045E+00  9.04575E-01  1.85871E-01
    8996.649      3.759   1.560  1.13744E+00  9.13582E-01  2.23862E-01
    8997.131      4.241   1.600  1.17598E+00  9.22173E-01  2.53811E-01
    8997.624      4.734   1.640  1.20522E+00  9.30328E-01  2.74891E-01
    8998.130      5.240   1.680  1.22889E+00  9.38066E-01  2.90828E-01
    8998.649      5.759   1.720  1.25066E+00  9.45367E-01  3.05290E-01
    8999.179      6.289   1.760  1.26177E+00  9.52232E-01  3.09537E-01
    8999.721      6.831   1.800  1.25476E+00  9.58662E-01  2.96097E-01
    9000.276      7.386   1.840  1.24022E+00  9.64662E-01  2.75560E-01
    9000.843      7.953   1.880  1.23106E+00  9.70235E-01  2.60827E-01
    9001.422      8.532   1.920  1.22680E+00  9.75385E-01  2.51411E-01
    9002.014      9.124   1.960  1.21933E+00  9.80140E-01  2.39190E-01
    9002.617      9.727   2.000  1.20367E+00  9.84503E-01  2.19171E-01
    9003.233     10.343   2.040  1.17962E+00  9.88462E-01  1.91157E-01
    9003.861     10.971   2.080  1.14771E+00  9.92042E-01  1.55670E-01
    9004.501     11.611   2.120  1.11382E+00  9.95271E-01  1.18553E-01
    9005.153     12.263   2.160  1.09094E+00  9.98137E-01  9.28073E-02
    9005.817     12.927   2.200  1.08636E+00  1.00069E+00  8.56686E-02
    9006.494     13.604   2.240  1.09394E+00  1.00292E+00  9.10246E-02
    9007.183     14.293   2.280  1.10065E+00  1.00485E+00  9.58061E-02
    9007.884     14.994   2.320  1.09655E+00  1.00649E+00  9.00611E-02
    9008.597     15.707   2.360  1.08219E+00  1.00787E+00  7.43204E-02
    9009.323     16.433   2.400  1.06666E+00  1.00900E+00  5.76600E-02
    9010.060     17.170   2.440  1.05817E+00  1.00989E+00  4.82795E-02
    9010.810     17.920   2.480  1.05627E+00  1.01057E+00  4.57028E-02
    9011.572     18.682   2.520  1.05006E+00  1.01104E+00  3.90187E-02
    9012.346     19.456   2.560  1.02936E+00  1.01134E+00  1.80230E-02
    9013.133     20.243   2.600  9.95247E-01  1.01147E+00 -1.62177E-02
    9013.931     21.041   2.640  9.55512E-01  1.01143E+00 -5.59218E-02
    9014.742     21.852   2.680  9.18376E-01  1.01129E+00 -9.29161E-02
    9015.565     22.675   2.720  8.89686E-01  1.01100E+00 -1.21318E-01
    9016.400     23.510   2.760  8.70235E-01  1.01060E+00 -1.40364E-01
    9017.247     24.357   2.800  8.59392E-01  1.01013E+00 -1.50733E-01
    9018.107     25.217   2.840  8.55704E-01  1.00955E+00 -1.53843E-01
    9018.979     26.089   2.880  8.56786E-01  1.00891E+00 -1.52126E-01
    9019.863     26.973   2.920  8.60484E-01  1.00823E+00 -1.47744E-01
    9020.759     27.869   2.960  8.65377E-01  1.00748E+00 -1.42098E-01
    9021.667     28.777   3.000  8.70725E-01  1.00670E+00 -1.35979E-01
    9022.587     29.697   3.040  8.76332E-01  1.00590E+00 -1.29565E-01
    9023.520     30.630   3.080  8.82416E-01  1.00506E+00 -1.22642E-01
    9024.465     31.575   3.120  8.89106E-01  1.00423E+00 -1.15128E-01
    9025.422     32.532   3.160  8.96439E-01  1.00339E+00 -1.06948E-01
    9026.391     33.501   3.200  9.04787E-01  1.00256E+00 -9.77760E-02
    9027.373     34.483   3.240  9.14512E-01  1.00175E+00 -8.72336E-02
    9028.366     35.476   3.280  9.25880E-01  1.00096E+00 -7.50752E-02
    9029.372     36.482   3.320  9.39043E-01  1.00018E+00 -6.11327E-02
    9030.390     37.500   3.360  9.53923E-01  9.99430E-01 -4.55067E-02
    9031.421     38.531   3.400  9.69940E-01  9.98722E-01 -2.87813E-02
    9032.463     39.573   3.440  9.86253E-01  9.98051E-01 -1.17981E-02
    9033.518     40.628   3.480  1.00197E+00  9.97419E-01  4.55195E-03
    9034.584     41.694   3.520  1.01617E+00  9.96828E-01  1.93429E-02
    9035.663     42.773   3.560  1.02813E+00  9.96280E-01  3.18496E-02
    9036.755     43.864   3.600  1.03742E+00  9.95775E-01  4.16492E-02
    9037.858     44.968   3.640  1.04395E+00  9.95336E-01  4.86162E-02
    9038.973     46.083   3.680  1.04786E+00  9.94942E-01  5.29214E-02
    9040.101     47.211   3.720  1.04974E+00  9.94615E-01  5.51231E-02
    9041.241     48.351   3.760  1.05025E+00  9.94313E-01  5.59382E-02
    9042.393     49.503   3.800  1.05001E+00  9.94079E-01  5.59301E-02
    9043.558     50.668   3.840  1.04941E+00  9.93913E-01  5.55011E-02
    9044.734     51.844   3.880  1.04866E+00  9.93793E-01  5.48666E-02
    9045.923     53.033   3.920  1.04778E+00  9.93717E-01  5.40611E-02
    9047.124     54.234   3.960  1.04675E+00  9.93686E-01  5.30621E-02
    9048.337     55.447   4.000  1.04571E+00  9.93720E-01  5.19857E-02
    9049.562     56.672   4.040  1.04476E+00  9.93799E-01  5.09642E-02
    9050.800     57.910   4.080  1.04401E+00  9.93920E-01  5.00911E-02
    9052.049     59.159   4.120  1.04342E+00  9.94083E-01  4.93410E-02
    9053.311     60.421   4.160  1.04288E+00  9.94287E-01  4.85954E-02
    9054.585     61.695   4.200  1.04219E+00  9.94552E-01  4.76337E-02
    9055.872     62.981   4.240  1.04108E+00  9.94834E-01  4.62417E-02
    9057.170     64.280   4.280  1.03939E+00  9.95153E-01  4.42347E-02
    9058.481     65.591   4.320  1.03697E+00  9.95507E-01  4.14670E-02
    9059.803     66.913   4.360  1.03382E+00  9.95874E-01  3.79468E-02
    9061.138     68.248   4.400  1.03022E+00  9.96295E-01  3.39243E-02
    9062.486     69.596   4.440  1.02645E+00  9.96705E-01  2.97462E-02
    9063.845     70.955   4.480  1.02280E+00  9.97165E-01  2.56336E-02
    9065.217     72.327   4.520  1.01916E+00  9.97611E-01  2.15494E-02
    9066.600     73.710   4.560  1.01522E+00  9.98084E-01  1.71404E-02
    9067.996     75.106   4.600  1.01047E+00  9.98583E-01  1.18874E-02
    9069.405     76.515   4.640  1.00445E+00  9.99063E-01  5.38575E-03
    9070.825     77.935   4.680  9.97092E-01  9.99563E-01 -2.47113E-03
    9072.257     79.367   4.720  9.88588E-01  1.00004E+00 -1.14522E-02
    9073.702     80.812   4.760  9.79482E-01  1.00051E+00 -2.10309E-02
    9075.159     82.269   4.800  9.70463E-01  1.00098E+00 -3.05183E-02
    9076.628     83.738   4.840  9.62233E-01  1.00145E+00 -3.92133E-02
    9078.110     85.220   4.880  9.55403E-01  1.00190E+00 -4.65013E-02
    9079.603     86.713   4.920  9.50337E-01  1.00233E+00 -5.19920E-02
    9081.109     88.219   4.960  9.47183E-01  1.00272E+00 -5.55383E-02
    9082.627     89.737   5.000  9.45898E-01  1.00310E+00 -5.72061E-02
    9084.157     91.267   5.040  9.46266E-01  1.00347E+00 -5.72069E-02
    9085.699     92.809   5.080  9.48051E-01  1.00379E+00 -5.57347E-02
    9087.254     94.364   5.120  9.51178E-01  1.00408E+00 -5.29063E-02
    9088.820     95.930   5.160  9.55586E-01  1.00437E+00 -4.87827E-02
    9090.399     97.509   5.200  9.61147E-01  1.00459E+00 -4.34452E-02
    9091.990     99.100   5.240  9.67606E-01  1.00478E+00 -3.71687E-02
    9093.593    100.703   5.280  9.74546E-01  1.00494E+00 -3.03969E-02
    9095.209    102.319   5.320  9.81418E-01  1.00507E+00 -2.36506E-02
    9096.836    103.946   5.360  9.87802E-01  1.00513E+00 -1.73293E-02
    9098.476    105.586   5.400  9.93562E-01  1.00518E+00 -1.16154E-02
    9100.128    107.238   5.440  9.98728E-01  1.00518E+00 -6.45363E-03
    9101.792    108.902   5.480  1.00347E+00  1.00512E+00 -1.64863E-03
    9103.469    110.579   5.520  1.00802E+00  1.00504E+00  2.97572E-03
    9105.157    112.267   5.560  1.01236E+00  1.00492E+00  7.43534E-03
    9106.858    113.968   5.600  1.01631E+00  1.00474E+00  1.15659E-02
    9108.571    115.681   5.640  1.01962E+00  1.00454E+00  1.50843E-02
    9110.296    117.406   5.680  1.02196E+00  1.00427E+00  1.76883E-02
    9112.034    119.144   5.720  1.02321E+00  1.00399E+00  1.92180E-02
    9113.783    120.893   5.760  1.02344E+00  1.00368E+00  1.97588E-02
    9115.545    122.655   5.800  1.02290E+00  1.00332E+00  1.95763E-02
    9117.319    124.429   5.840  1.02187E+00  1.00293E+00  1.89426E-02
    9119.105    126.215   5.880  1.02056E+00  1.00250E+00  1.80575E-02
    9120.903    128.013   5.920  1.01914E+00  1.00205E+00  1.70935E-02
    9122.714    129.824   5.960  1.01783E+00  1.00158E+00  1.62458E-02
    9124.537    131.647   6.000  1.01679E+00  1.00107E+00  1.57205E-02
