# # comment:                                                     FEFF 9.9.1  
# # Source:
# # Structure
# # Reduced
# # space
# # abc:
# # angles:
# # sites:
# # POT  SCF 100  7.0000   0, screened core-hole, AFOLP (folp(0)= 1.150)
# # Abs   Z=29 Rmt= 1.248 Rnm= 1.314 K  shell
# # Pot 1 Z=37 Rmt= 2.078 Rnm= 2.116
# # Pot 2 Z=29 Rmt= 1.248 Rnm= 1.314
# # Pot 3 Z= 6 Rmt= 0.708 Rnm= 0.926
# # Pot 4 Z= 8 Rmt= 0.859 Rnm= 1.022
# # Gam_ch=1.729E+00 H-L exch Vi= 0.000E+00 Vr= 0.000E+00
# # Mu=-7.792E+00eV kf=2.473E+00 Vint=-1.729E+01eV Rs_int= 1.466
# FMS rfms= 9.0000
# # PATH  Rmax=-1.000,  Keep_limit= 0.00, Heap_limit 0.00  Pwcrit= 2.50%
#  S02=0.950  Temp=   0.00  Debye_temp=   0.00  Global_sig2= 0.00000
#  Energy zero shift, vr, vi    0.00000E+00   0.00000E+00
#  Curved wave amplitude ratio filter   4.000%
#     file         sig2 tot  cw amp ratio   deg  nlegs   reff  inp sig2
#     0/   0 paths used
#  xsedge+ 50, used to normalize mu           2.4773E-04
#  -----------------------------------------------------------------------
#  omega    e    k    mu    mu0     chi     @#
    8983.788    -11.602  -1.000  3.65910E-02  5.06582E-02 -1.40672E-02
    8984.086    -11.303  -0.960  3.84441E-02  5.42838E-02 -1.58397E-02
    8984.373    -11.016  -0.920  4.04211E-02  5.83102E-02 -1.78891E-02
    8984.647    -10.742  -0.880  4.25318E-02  6.27963E-02 -2.02645E-02
    8984.909    -10.480  -0.840  4.47863E-02  6.78107E-02 -2.30244E-02
    8985.159    -10.230  -0.800  4.71955E-02  7.34331E-02 -2.62376E-02
    8985.397     -9.992  -0.760  4.97704E-02  7.97547E-02 -2.99843E-02
    8985.622     -9.767  -0.720  5.25223E-02  8.68788E-02 -3.43565E-02
    8985.836     -9.553  -0.680  5.54617E-02  9.49189E-02 -3.94572E-02
    8986.037     -9.352  -0.640  5.85981E-02  1.03995E-01 -4.53971E-02
    8986.226     -9.163  -0.600  6.19378E-02  1.14225E-01 -5.22876E-02
    8986.403     -8.987  -0.560  6.54823E-02  1.25710E-01 -6.02278E-02
    8986.567     -8.822  -0.520  6.92249E-02  1.38509E-01 -6.92842E-02
    8986.720     -8.670  -0.480  7.31467E-02  1.52609E-01 -7.94623E-02
    8986.860     -8.529  -0.440  7.72120E-02  1.67886E-01 -9.06740E-02
    8986.988     -8.401  -0.400  8.13646E-02  1.84074E-01 -1.02709E-01
    8987.104     -8.285  -0.360  8.55268E-02  2.00755E-01 -1.15228E-01
    8987.207     -8.182  -0.320  8.96028E-02  2.17387E-01 -1.27784E-01
    8987.299     -8.090  -0.280  9.34870E-02  2.33366E-01 -1.39879E-01
    8987.378     -8.011  -0.240  9.70741E-02  2.48113E-01 -1.51039E-01
    8987.445     -7.944  -0.200  1.00269E-01  2.61144E-01 -1.60875E-01
    8987.500     -7.889  -0.160  1.02992E-01  2.72104E-01 -1.69112E-01
    8987.543     -7.847  -0.120  1.05180E-01  2.80767E-01 -1.75587E-01
    8987.573     -7.816  -0.080  1.06785E-01  2.87007E-01 -1.80222E-01
    8987.598     -7.792   0.000  1.08116E-01  2.92020E-01 -1.83904E-01
    8987.652     -7.737   0.120  1.11156E-01  3.03318E-01 -1.92163E-01
    8987.695     -7.694   0.160  1.13528E-01  3.12117E-01 -1.98589E-01
    8987.750     -7.639   0.200  1.16569E-01  3.23328E-01 -2.06759E-01
    8987.817     -7.572   0.240  1.20338E-01  3.36799E-01 -2.16461E-01
    8987.896     -7.493   0.280  1.24900E-01  3.52276E-01 -2.27376E-01
    8987.988     -7.402   0.320  1.30307E-01  3.69364E-01 -2.39057E-01
    8988.091     -7.298   0.360  1.36637E-01  3.87531E-01 -2.50894E-01
    8988.207     -7.182   0.400  1.44111E-01  4.06292E-01 -2.62181E-01
    8988.335     -7.054   0.440  1.53000E-01  4.25130E-01 -2.72130E-01
    8988.475     -6.914   0.480  1.63749E-01  4.43676E-01 -2.79927E-01
    8988.628     -6.761   0.520  1.77045E-01  4.61697E-01 -2.84652E-01
    8988.792     -6.597   0.560  1.93784E-01  4.79086E-01 -2.85303E-01
    8988.969     -6.420   0.600  2.15086E-01  4.95814E-01 -2.80728E-01
    8989.158     -6.231   0.640  2.42254E-01  5.11936E-01 -2.69682E-01
    8989.359     -6.030   0.680  2.76332E-01  5.27502E-01 -2.51170E-01
    8989.573     -5.817   0.720  3.17152E-01  5.42632E-01 -2.25480E-01
    8989.798     -5.591   0.760  3.61985E-01  5.57429E-01 -1.95443E-01
    8990.036     -5.353   0.800  4.05450E-01  5.71923E-01 -1.66473E-01
    8990.286     -5.103   0.840  4.43028E-01  5.86215E-01 -1.43187E-01
    8990.548     -4.841   0.880  4.74360E-01  6.00354E-01 -1.25993E-01
    8990.822     -4.567   0.920  5.01683E-01  6.14395E-01 -1.12713E-01
    8991.109     -4.280   0.960  5.25309E-01  6.28322E-01 -1.03013E-01
    8991.408     -3.982   1.000  5.40764E-01  6.42210E-01 -1.01445E-01
    8991.718     -3.671   1.040  5.41275E-01  6.56023E-01 -1.14748E-01
    8992.042     -3.348   1.080  5.26706E-01  6.69782E-01 -1.43076E-01
    8992.377     -3.012   1.120  5.05628E-01  6.83480E-01 -1.77852E-01
    8992.724     -2.665   1.160  4.88044E-01  6.97103E-01 -2.09059E-01
    8993.084     -2.305   1.200  4.80012E-01  7.10655E-01 -2.30643E-01
    8993.456     -1.933   1.240  4.82886E-01  7.24099E-01 -2.41213E-01
    8993.840     -1.549   1.280  4.95769E-01  7.37409E-01 -2.41640E-01
    8994.236     -1.153   1.320  5.18730E-01  7.50583E-01 -2.31853E-01
    8994.645     -0.745   1.360  5.53250E-01  7.63594E-01 -2.10344E-01
    8995.065     -0.324   1.400  5.98119E-01  7.76394E-01 -1.78275E-01
    8995.498      0.109   1.440  6.49731E-01  7.88996E-01 -1.39266E-01
    8995.943      0.554   1.480  7.06972E-01  8.01351E-01 -9.43790E-02
    8996.400      1.011   1.520  7.67106E-01  8.13450E-01 -4.63446E-02
    8996.870      1.480   1.560  8.29891E-01  8.25265E-01  4.62613E-03
    8997.351      1.962   1.600  8.92441E-01  8.36746E-01  5.56945E-02
    8997.845      2.456   1.640  9.47603E-01  8.47926E-01  9.96768E-02
    8998.351      2.962   1.680  9.86022E-01  8.58756E-01  1.27267E-01
    8998.869      3.480   1.720  1.00616E+00  8.69210E-01  1.36953E-01
    8999.399      4.010   1.760  1.01471E+00  8.79281E-01  1.35425E-01
    8999.942      4.553   1.800  1.02074E+00  8.88984E-01  1.31757E-01
    9000.497      5.107   1.840  1.03135E+00  8.98253E-01  1.33099E-01
    9001.064      5.674   1.880  1.04420E+00  9.07127E-01  1.37070E-01
    9001.643      6.253   1.920  1.05127E+00  9.15581E-01  1.35684E-01
    9002.234      6.845   1.960  1.05373E+00  9.23615E-01  1.30119E-01
    9002.837      7.448   2.000  1.05834E+00  9.31207E-01  1.27137E-01
    9003.453      8.064   2.040  1.06819E+00  9.38378E-01  1.29814E-01
    9004.081      8.692   2.080  1.08397E+00  9.45129E-01  1.38843E-01
    9004.721      9.332   2.120  1.10375E+00  9.51461E-01  1.52292E-01
    9005.373      9.984   2.160  1.12265E+00  9.57356E-01  1.65290E-01
    9006.038     10.649   2.200  1.14042E+00  9.62861E-01  1.77555E-01
    9006.715     11.325   2.240  1.16032E+00  9.67936E-01  1.92382E-01
    9007.403     12.014   2.280  1.18202E+00  9.72628E-01  2.09387E-01
    9008.104     12.715   2.320  1.20070E+00  9.76943E-01  2.23755E-01
    9008.818     13.428   2.360  1.21242E+00  9.80866E-01  2.31550E-01
    9009.543     14.154   2.400  1.21797E+00  9.84444E-01  2.33525E-01
    9010.281     14.891   2.440  1.21958E+00  9.87665E-01  2.31913E-01
    9011.030     15.641   2.480  1.21666E+00  9.90574E-01  2.26089E-01
    9011.792     16.403   2.520  1.20628E+00  9.93137E-01  2.13146E-01
    9012.567     17.177   2.560  1.18740E+00  9.95404E-01  1.92001E-01
    9013.353     17.964   2.600  1.16113E+00  9.97361E-01  1.63764E-01
    9014.152     18.762   2.640  1.12897E+00  9.99059E-01  1.29907E-01
    9014.962     19.573   2.680  1.09117E+00  1.00050E+00  9.06688E-02
    9015.785     20.396   2.720  1.04835E+00  1.00170E+00  4.66492E-02
    9016.620     21.231   2.760  1.00285E+00  1.00267E+00  1.83335E-04
    9017.468     22.079   2.800  9.58581E-01  1.00342E+00 -4.48400E-02
    9018.327     22.938   2.840  9.19295E-01  1.00397E+00 -8.46793E-02
    9019.199     23.810   2.880  8.98774E-01  1.00435E+00 -1.05580E-01
    9020.083     24.694   2.920  8.92896E-01  1.00457E+00 -1.11671E-01
    9020.979     25.590   2.960  8.93524E-01  1.00462E+00 -1.11099E-01
    9021.887     26.498   3.000  8.96459E-01  1.00455E+00 -1.08087E-01
    9022.808     27.419   3.040  8.99406E-01  1.00432E+00 -1.04916E-01
    9023.741     28.351   3.080  9.01578E-01  1.00400E+00 -1.02423E-01
    9024.685     29.296   3.120  9.02962E-01  1.00357E+00 -1.00606E-01
    9025.643     30.253   3.160  9.04136E-01  1.00307E+00 -9.89327E-02
    9026.612     31.223   3.200  9.05306E-01  1.00247E+00 -9.71639E-02
    9027.593     32.204   3.240  9.06640E-01  1.00182E+00 -9.51785E-02
    9028.587     33.198   3.280  9.08023E-01  1.00112E+00 -9.30929E-02
    9029.593     34.203   3.320  9.09128E-01  1.00035E+00 -9.12218E-02
    9030.611     35.221   3.360  9.09805E-01  9.99564E-01 -8.97592E-02
    9031.641     36.252   3.400  9.10205E-01  9.98743E-01 -8.85385E-02
    9032.683     37.294   3.440  9.10694E-01  9.97892E-01 -8.71981E-02
    9033.738     38.349   3.480  9.11636E-01  9.97055E-01 -8.54196E-02
    9034.805     39.416   3.520  9.13270E-01  9.96196E-01 -8.29262E-02
    9035.884     40.495   3.560  9.15742E-01  9.95356E-01 -7.96139E-02
    9036.975     41.586   3.600  9.18930E-01  9.94500E-01 -7.55693E-02
    9038.078     42.689   3.640  9.22864E-01  9.93692E-01 -7.08274E-02
    9039.194     43.805   3.680  9.27567E-01  9.92872E-01 -6.53049E-02
    9040.322     44.932   3.720  9.33242E-01  9.92104E-01 -5.88627E-02
    9041.462     46.072   3.760  9.39988E-01  9.91351E-01 -5.13626E-02
    9042.614     47.224   3.800  9.48013E-01  9.90633E-01 -4.26201E-02
    9043.778     48.389   3.840  9.57321E-01  9.89953E-01 -3.26323E-02
    9044.955     49.565   3.880  9.67654E-01  9.89312E-01 -2.16582E-02
    9046.143     50.754   3.920  9.78524E-01  9.88712E-01 -1.01885E-02
    9047.344     51.955   3.960  9.89274E-01  9.88153E-01  1.12069E-03
    9048.557     53.168   4.000  9.99259E-01  9.87658E-01  1.16008E-02
    9049.783     54.393   4.040  1.00805E+00  9.87185E-01  2.08667E-02
    9051.020     55.631   4.080  1.01571E+00  9.86777E-01  2.89306E-02
    9052.270     56.880   4.120  1.02252E+00  9.86414E-01  3.61048E-02
    9053.532     58.142   4.160  1.02899E+00  9.86116E-01  4.28724E-02
    9054.806     59.416   4.200  1.03553E+00  9.85841E-01  4.96904E-02
    9056.092     60.703   4.240  1.04239E+00  9.85632E-01  5.67611E-02
    9057.390     62.001   4.280  1.04947E+00  9.85490E-01  6.39819E-02
    9058.701     63.312   4.320  1.05649E+00  9.85370E-01  7.11247E-02
    9060.024     64.635   4.360  1.06311E+00  9.85314E-01  7.77977E-02
    9061.359     65.970   4.400  1.06877E+00  9.85301E-01  8.34705E-02
    9062.706     67.317   4.440  1.07290E+00  9.85330E-01  8.75706E-02
    9064.065     68.676   4.480  1.07492E+00  9.85399E-01  8.95223E-02
    9065.437     70.048   4.520  1.07439E+00  9.85508E-01  8.88833E-02
    9066.821     71.432   4.560  1.07115E+00  9.85657E-01  8.54956E-02
    9068.217     72.828   4.600  1.06531E+00  9.85847E-01  7.94612E-02
    9069.625     74.236   4.640  1.05713E+00  9.86095E-01  7.10383E-02
    9071.045     75.656   4.680  1.04700E+00  9.86337E-01  6.06639E-02
    9072.478     77.089   4.720  1.03561E+00  9.86636E-01  4.89742E-02
    9073.923     78.533   4.760  1.02367E+00  9.86970E-01  3.66960E-02
    9075.380     79.990   4.800  1.01187E+00  9.87313E-01  2.45575E-02
    9076.849     81.459   4.840  1.00078E+00  9.87664E-01  1.31119E-02
    9078.330     82.941   4.880  9.90721E-01  9.88046E-01  2.67492E-03
    9079.824     84.434   4.920  9.81828E-01  9.88456E-01 -6.62792E-03
    9081.329     85.940   4.960  9.74016E-01  9.88848E-01 -1.48321E-02
    9082.847     87.458   5.000  9.67220E-01  9.89266E-01 -2.20465E-02
    9084.377     88.988   5.040  9.61416E-01  9.89689E-01 -2.82732E-02
    9085.920     90.530   5.080  9.56578E-01  9.90134E-01 -3.35570E-02
    9087.474     92.085   5.120  9.52759E-01  9.90557E-01 -3.77985E-02
    9089.041     93.651   5.160  9.50072E-01  9.90976E-01 -4.09044E-02
    9090.620     95.230   5.200  9.48630E-01  9.91392E-01 -4.27624E-02
    9092.211     96.821   5.240  9.48531E-01  9.91803E-01 -4.32725E-02
    9093.814     98.425   5.280  9.49757E-01  9.92185E-01 -4.24276E-02
    9095.429    100.040   5.320  9.52068E-01  9.92559E-01 -4.04910E-02
    9097.057    101.668   5.360  9.55174E-01  9.92927E-01 -3.77528E-02
    9098.697    103.307   5.400  9.58614E-01  9.93261E-01 -3.46471E-02
    9100.349    104.959   5.440  9.61982E-01  9.93563E-01 -3.15804E-02
    9102.013    106.624   5.480  9.64978E-01  9.93853E-01 -2.88742E-02
    9103.689    108.300   5.520  9.67426E-01  9.94131E-01 -2.67048E-02
    9105.378    109.989   5.560  9.69288E-01  9.94351E-01 -2.50627E-02
    9107.079    111.689   5.600  9.70759E-01  9.94553E-01 -2.37941E-02
    9108.792    113.402   5.640  9.71931E-01  9.94695E-01 -2.27637E-02
    9110.517    115.128   5.680  9.72910E-01  9.94821E-01 -2.19118E-02
    9112.254    116.865   5.720  9.73670E-01  9.94910E-01 -2.12400E-02
    9114.004    118.614   5.760  9.74254E-01  9.94961E-01 -2.07063E-02
    9115.765    120.376   5.800  9.74758E-01  9.94975E-01 -2.02162E-02
    9117.539    122.150   5.840  9.75262E-01  9.94972E-01 -1.97094E-02
    9119.325    123.936   5.880  9.75689E-01  9.94907E-01 -1.92175E-02
    9121.124    125.735   5.920  9.75980E-01  9.94800E-01 -1.88199E-02
    9122.934    127.545   5.960  9.76163E-01  9.94650E-01 -1.84874E-02
    9124.757    129.368   6.000  9.76521E-01  9.94436E-01 -1.79148E-02
