# # comment:                                                     FEFF 9.9.1  
# # Source:
# # Structure
# # Reduced
# # space
# # abc:
# # angles:
# # sites:
# # POT  SCF 100  7.0000   0, screened core-hole, AFOLP (folp(0)= 1.150)
# # Abs   Z=29 Rmt= 1.216 Rnm= 1.355 K  shell
# # Pot 1 Z=55 Rmt= 2.260 Rnm= 2.334
# # Pot 2 Z=29 Rmt= 1.246 Rnm= 1.379
# # Pot 3 Z=17 Rmt= 1.502 Rnm= 1.580
# # Pot 4 Z= 8 Rmt= 0.990 Rnm= 1.123
# # Gam_ch=1.729E+00 H-L exch Vi= 0.000E+00 Vr= 0.000E+00
# # Mu=-6.401E+00eV kf=1.599E+00 Vint=-1.088E+01eV Rs_int= 2.269
# FMS rfms= 9.0000
# # PATH  Rmax=-1.000,  Keep_limit= 0.00, Heap_limit 0.00  Pwcrit= 2.50%
#  S02=0.950  Temp=   0.00  Debye_temp=   0.00  Global_sig2= 0.00000
#  Energy zero shift, vr, vi    0.00000E+00   0.00000E+00
#  Curved wave amplitude ratio filter   4.000%
#     file         sig2 tot  cw amp ratio   deg  nlegs   reff  inp sig2
#     0/   0 paths used
#  xsedge+ 50, used to normalize mu           2.3592E-04
#  -----------------------------------------------------------------------
#  omega    e    k    mu    mu0     chi     @#
    8983.774    -10.211  -1.000  3.95127E-02  5.90065E-02 -1.94938E-02
    8984.073     -9.912  -0.960  4.13619E-02  6.31712E-02 -2.18093E-02
    8984.359     -9.626  -0.920  4.33122E-02  6.77717E-02 -2.44594E-02
    8984.634     -9.352  -0.880  4.53692E-02  7.28678E-02 -2.74987E-02
    8984.896     -9.089  -0.840  4.75387E-02  7.85291E-02 -3.09905E-02
    8985.146     -8.840  -0.800  4.98267E-02  8.48352E-02 -3.50085E-02
    8985.383     -8.602  -0.760  5.22395E-02  9.18768E-02 -3.96374E-02
    8985.609     -8.376  -0.720  5.47831E-02  9.97555E-02 -4.49724E-02
    8985.822     -8.163  -0.680  5.74633E-02  1.08582E-01 -5.11189E-02
    8986.023     -7.962  -0.640  6.02846E-02  1.18473E-01 -5.81881E-02
    8986.212     -7.773  -0.600  6.32498E-02  1.29540E-01 -6.62900E-02
    8986.389     -7.596  -0.560  6.63572E-02  1.41877E-01 -7.55199E-02
    8986.554     -7.431  -0.520  6.95990E-02  1.55538E-01 -8.59388E-02
    8986.706     -7.279  -0.480  7.29570E-02  1.70502E-01 -9.75448E-02
    8986.846     -7.139  -0.440  7.63994E-02  1.86641E-01 -1.10241E-01
    8986.974     -7.011  -0.400  7.98774E-02  2.03686E-01 -1.23809E-01
    8987.090     -6.895  -0.360  8.33253E-02  2.21220E-01 -1.37895E-01
    8987.194     -6.791  -0.320  8.66644E-02  2.38699E-01 -1.52035E-01
    8987.285     -6.700  -0.280  8.98117E-02  2.55516E-01 -1.65704E-01
    8987.365     -6.621  -0.240  9.26886E-02  2.71079E-01 -1.78390E-01
    8987.432     -6.554  -0.200  9.52283E-02  2.84881E-01 -1.89653E-01
    8987.486     -6.499  -0.160  9.73782E-02  2.96538E-01 -1.99160E-01
    8987.529     -6.456  -0.120  9.90990E-02  3.05791E-01 -2.06692E-01
    8987.560     -6.426  -0.080  1.00362E-01  3.12482E-01 -2.12120E-01
    8987.584     -6.401   0.000  1.01422E-01  3.17879E-01 -2.16457E-01
    8987.639     -6.346   0.120  1.03848E-01  3.30087E-01 -2.26239E-01
    8987.681     -6.304   0.160  1.05660E-01  3.39617E-01 -2.33957E-01
    8987.736     -6.249   0.200  1.08004E-01  3.51901E-01 -2.43897E-01
    8987.803     -6.182   0.240  1.10869E-01  3.66810E-01 -2.55941E-01
    8987.883     -6.102   0.280  1.14300E-01  3.84176E-01 -2.69875E-01
    8987.974     -6.011   0.320  1.18340E-01  4.03682E-01 -2.85342E-01
    8988.078     -5.907   0.360  1.23036E-01  4.24943E-01 -3.01908E-01
    8988.194     -5.792   0.400  1.28522E-01  4.47559E-01 -3.19037E-01
    8988.322     -5.664   0.440  1.34912E-01  4.71073E-01 -3.36161E-01
    8988.462     -5.523   0.480  1.42480E-01  4.95199E-01 -3.52719E-01
    8988.614     -5.371   0.520  1.51456E-01  5.19712E-01 -3.68256E-01
    8988.779     -5.206   0.560  1.62168E-01  5.44469E-01 -3.82300E-01
    8988.956     -5.030   0.600  1.75005E-01  5.69401E-01 -3.94395E-01
    8989.145     -4.841   0.640  1.90411E-01  5.94526E-01 -4.04115E-01
    8989.346     -4.639   0.680  2.08756E-01  6.19800E-01 -4.11044E-01
    8989.559     -4.426   0.720  2.30502E-01  6.45269E-01 -4.14768E-01
    8989.785     -4.201   0.760  2.56074E-01  6.70862E-01 -4.14788E-01
    8990.022     -3.963   0.800  2.86115E-01  6.96559E-01 -4.10444E-01
    8990.272     -3.713   0.840  3.21334E-01  7.22307E-01 -4.00973E-01
    8990.534     -3.451   0.880  3.62150E-01  7.48012E-01 -3.85862E-01
    8990.809     -3.176   0.920  4.08229E-01  7.73591E-01 -3.65361E-01
    8991.095     -2.890   0.960  4.58824E-01  7.98926E-01 -3.40102E-01
    8991.394     -2.591   1.000  5.13506E-01  8.23892E-01 -3.10386E-01
    8991.705     -2.280   1.040  5.70957E-01  8.48379E-01 -2.77422E-01
    8992.028     -1.957   1.080  6.26303E-01  8.72229E-01 -2.45926E-01
    8992.363     -1.622   1.120  6.73487E-01  8.95346E-01 -2.21859E-01
    8992.711     -1.274   1.160  7.11871E-01  9.17596E-01 -2.05725E-01
    8993.070     -0.915   1.200  7.47325E-01  9.38864E-01 -1.91538E-01
    8993.442     -0.543   1.240  7.85876E-01  9.59041E-01 -1.73166E-01
    8993.826     -0.159   1.280  8.29566E-01  9.78027E-01 -1.48461E-01
    8994.222      0.237   1.320  8.77977E-01  9.95788E-01 -1.17812E-01
    8994.631      0.646   1.360  9.30979E-01  1.01222E+00 -8.12361E-02
    8995.052      1.066   1.400  9.87690E-01  1.02733E+00 -3.96427E-02
    8995.484      1.499   1.440  1.04814E+00  1.04105E+00  7.08947E-03
    8995.929      1.944   1.480  1.10698E+00  1.05340E+00  5.35747E-02
    8996.387      2.401   1.520  1.15327E+00  1.06438E+00  8.88880E-02
    8996.856      2.871   1.560  1.18081E+00  1.07401E+00  1.06802E-01
    8997.338      3.352   1.600  1.19290E+00  1.08234E+00  1.10564E-01
    8997.831      3.846   1.640  1.19584E+00  1.08939E+00  1.06456E-01
    8998.337      4.352   1.680  1.19444E+00  1.09523E+00  9.92131E-02
    8998.855      4.870   1.720  1.19211E+00  1.09991E+00  9.21984E-02
    8999.386      5.401   1.760  1.18820E+00  1.10349E+00  8.47113E-02
    8999.928      5.943   1.800  1.17955E+00  1.10610E+00  7.34518E-02
    9000.483      6.498   1.840  1.16455E+00  1.10774E+00  5.68144E-02
    9001.050      7.065   1.880  1.14315E+00  1.10852E+00  3.46285E-02
    9001.629      7.644   1.920  1.11863E+00  1.10852E+00  1.01088E-02
    9002.220      8.235   1.960  1.10194E+00  1.10780E+00 -5.86010E-03
    9002.824      8.839   2.000  1.10496E+00  1.10647E+00 -1.50360E-03
    9003.440      9.454   2.040  1.12447E+00  1.10455E+00  1.99225E-02
    9004.067     10.082   2.080  1.15087E+00  1.10214E+00  4.87251E-02
    9004.708     10.722   2.120  1.17833E+00  1.09931E+00  7.90287E-02
    9005.360     11.375   2.160  1.20129E+00  1.09607E+00  1.05225E-01
    9006.024     12.039   2.200  1.21564E+00  1.09254E+00  1.23100E-01
    9006.701     12.716   2.240  1.22005E+00  1.08875E+00  1.31295E-01
    9007.390     13.405   2.280  1.21641E+00  1.08473E+00  1.31671E-01
    9008.091     14.106   2.320  1.20723E+00  1.08057E+00  1.26661E-01
    9008.804     14.819   2.360  1.19453E+00  1.07627E+00  1.18257E-01
    9009.529     15.544   2.400  1.17991E+00  1.07191E+00  1.07995E-01
    9010.267     16.282   2.440  1.16461E+00  1.06748E+00  9.71282E-02
    9011.017     17.032   2.480  1.14971E+00  1.06305E+00  8.66570E-02
    9011.779     17.794   2.520  1.13589E+00  1.05863E+00  7.72629E-02
    9012.553     18.568   2.560  1.12279E+00  1.05426E+00  6.85335E-02
    9013.339     19.354   2.600  1.10917E+00  1.04992E+00  5.92460E-02
    9014.138     20.153   2.640  1.09393E+00  1.04568E+00  4.82518E-02
    9014.949     20.964   2.680  1.07699E+00  1.04156E+00  3.54261E-02
    9015.772     21.787   2.720  1.05926E+00  1.03755E+00  2.17148E-02
    9016.607     22.622   2.760  1.04237E+00  1.03368E+00  8.69120E-03
    9017.454     23.469   2.800  1.02753E+00  1.02995E+00 -2.42546E-03
    9018.314     24.329   2.840  1.01550E+00  1.02640E+00 -1.08992E-02
    9019.185     25.200   2.880  1.00651E+00  1.02299E+00 -1.64796E-02
    9020.069     26.084   2.920  1.00034E+00  1.01976E+00 -1.94217E-02
    9020.966     26.980   2.960  9.96438E-01  1.01674E+00 -2.03054E-02
    9021.874     27.889   3.000  9.93915E-01  1.01390E+00 -1.99845E-02
    9022.794     28.809   3.040  9.91673E-01  1.01123E+00 -1.95554E-02
    9023.727     29.742   3.080  9.88738E-01  1.00878E+00 -2.00461E-02
    9024.672     30.687   3.120  9.84256E-01  1.00653E+00 -2.22742E-02
    9025.629     31.644   3.160  9.77623E-01  1.00448E+00 -2.68556E-02
    9026.598     32.613   3.200  9.68514E-01  1.00264E+00 -3.41217E-02
    9027.580     33.595   3.240  9.57130E-01  1.00101E+00 -4.38765E-02
    9028.573     34.588   3.280  9.44016E-01  9.99558E-01 -5.55418E-02
    9029.579     35.594   3.320  9.30125E-01  9.98332E-01 -6.82067E-02
    9030.597     36.612   3.360  9.16530E-01  9.97297E-01 -8.07671E-02
    9031.627     37.642   3.400  9.04431E-01  9.96464E-01 -9.20332E-02
    9032.670     38.685   3.440  8.94904E-01  9.95814E-01 -1.00910E-01
    9033.724     39.739   3.480  8.88886E-01  9.95365E-01 -1.06479E-01
    9034.791     40.806   3.520  8.87173E-01  9.95118E-01 -1.07946E-01
    9035.870     41.885   3.560  8.90095E-01  9.95048E-01 -1.04953E-01
    9036.961     42.976   3.600  8.97650E-01  9.95151E-01 -9.75018E-02
    9038.065     44.080   3.640  9.09437E-01  9.95448E-01 -8.60115E-02
    9039.180     45.195   3.680  9.24405E-01  9.95891E-01 -7.14855E-02
    9040.308     46.323   3.720  9.41375E-01  9.96499E-01 -5.51248E-02
    9041.448     47.463   3.760  9.59153E-01  9.97272E-01 -3.81191E-02
    9042.600     48.615   3.800  9.76827E-01  9.98205E-01 -2.13783E-02
    9043.764     49.779   3.840  9.93807E-01  9.99273E-01 -5.46610E-03
    9044.941     50.956   3.880  1.00985E+00  1.00047E+00  9.37787E-03
    9046.130     52.145   3.920  1.02496E+00  1.00182E+00  2.31341E-02
    9047.331     53.345   3.960  1.03908E+00  1.00327E+00  3.58096E-02
    9048.544     54.559   4.000  1.05218E+00  1.00484E+00  4.73445E-02
    9049.769     55.784   4.040  1.06405E+00  1.00650E+00  5.75523E-02
    9051.006     57.021   4.080  1.07435E+00  1.00825E+00  6.61041E-02
    9052.256     58.271   4.120  1.08275E+00  1.01010E+00  7.26455E-02
    9053.518     59.533   4.160  1.08893E+00  1.01202E+00  7.69157E-02
    9054.792     60.807   4.200  1.09292E+00  1.01401E+00  7.89046E-02
    9056.078     62.093   4.240  1.09503E+00  1.01607E+00  7.89578E-02
    9057.377     63.392   4.280  1.09589E+00  1.01816E+00  7.77349E-02
    9058.687     64.702   4.320  1.09635E+00  1.02031E+00  7.60437E-02
    9060.010     66.025   4.360  1.09702E+00  1.02246E+00  7.45592E-02
    9061.345     67.360   4.400  1.09807E+00  1.02463E+00  7.34445E-02
    9062.692     68.707   4.440  1.09906E+00  1.02682E+00  7.22388E-02
    9064.052     70.067   4.480  1.09903E+00  1.02898E+00  7.00504E-02
    9065.423     71.438   4.520  1.09719E+00  1.03116E+00  6.60302E-02
    9066.807     72.822   4.560  1.09296E+00  1.03329E+00  5.96717E-02
    9068.203     74.218   4.600  1.08630E+00  1.03540E+00  5.09082E-02
    9069.611     75.626   4.640  1.07718E+00  1.03746E+00  3.97148E-02
    9071.032     77.047   4.680  1.06577E+00  1.03948E+00  2.62918E-02
    9072.464     78.479   4.720  1.05250E+00  1.04143E+00  1.10765E-02
    9073.909     79.924   4.760  1.03825E+00  1.04332E+00 -5.07138E-03
    9075.366     81.381   4.800  1.02413E+00  1.04513E+00 -2.09962E-02
    9076.835     82.850   4.840  1.01122E+00  1.04685E+00 -3.56304E-02
    9078.316     84.331   4.880  1.00032E+00  1.04849E+00 -4.81693E-02
    9079.810     85.825   4.920  9.91775E-01  1.05001E+00 -5.82333E-02
    9081.316     87.331   4.960  9.85879E-01  1.05146E+00 -6.55789E-02
    9082.834     88.848   5.000  9.82780E-01  1.05277E+00 -6.99851E-02
    9084.364     90.379   5.040  9.82582E-01  1.05397E+00 -7.13907E-02
    9085.906     91.921   5.080  9.85111E-01  1.05506E+00 -6.99452E-02
    9087.460     93.475   5.120  9.90094E-01  1.05601E+00 -6.59199E-02
    9089.027     95.042   5.160  9.97243E-01  1.05684E+00 -5.96025E-02
    9090.606     96.621   5.200  1.00621E+00  1.05755E+00 -5.13369E-02
    9092.197     98.212   5.240  1.01645E+00  1.05815E+00 -4.17022E-02
    9093.800     99.815   5.280  1.02697E+00  1.05860E+00 -3.16289E-02
    9095.416    101.431   5.320  1.03678E+00  1.05892E+00 -2.21365E-02
    9097.043    103.058   5.360  1.04526E+00  1.05911E+00 -1.38442E-02
    9098.683    104.698   5.400  1.05239E+00  1.05917E+00 -6.77598E-03
    9100.335    106.350   5.440  1.05850E+00  1.05911E+00 -6.08239E-04
    9101.999    108.014   5.480  1.06390E+00  1.05895E+00  4.95429E-03
    9103.676    109.691   5.520  1.06860E+00  1.05864E+00  9.96698E-03
    9105.364    111.379   5.560  1.07253E+00  1.05823E+00  1.43024E-02
    9107.065    113.080   5.600  1.07543E+00  1.05770E+00  1.77301E-02
    9108.778    114.793   5.640  1.07717E+00  1.05708E+00  2.00939E-02
    9110.503    116.518   5.680  1.07782E+00  1.05634E+00  2.14821E-02
    9112.241    118.255   5.720  1.07767E+00  1.05551E+00  2.21609E-02
    9113.990    120.005   5.760  1.07701E+00  1.05461E+00  2.24015E-02
    9115.752    121.767   5.800  1.07604E+00  1.05362E+00  2.24271E-02
    9117.526    123.541   5.840  1.07506E+00  1.05255E+00  2.25035E-02
    9119.312    125.327   5.880  1.07430E+00  1.05145E+00  2.28534E-02
    9121.110    127.125   5.920  1.07374E+00  1.05027E+00  2.34652E-02
    9122.921    128.936   5.960  1.07302E+00  1.04904E+00  2.39748E-02
    9124.743    130.758   6.000  1.07144E+00  1.04775E+00  2.36908E-02
