# # comment:                                                     FEFF 9.9.1  
# # Source:
# # Structure
# # Reduced
# # space
# # abc:
# # angles:125.788407
# # sites:
# # POT  SCF 100  7.0000   0, screened core-hole, AFOLP (folp(0)= 1.150)
# # Abs   Z=29 Rmt= 1.179 Rnm= 1.285 K  shell
# # Pot 1 Z=62 Rmt= 1.679 Rnm= 1.756
# # Pot 2 Z=29 Rmt= 1.179 Rnm= 1.285
# # Pot 3 Z= 8 Rmt= 1.050 Rnm= 1.109
# # Gam_ch=1.729E+00 H-L exch Vi= 0.000E+00 Vr= 0.000E+00
# # Mu=-8.104E+00eV kf=2.120E+00 Vint=-1.653E+01eV Rs_int= 1.711
# FMS rfms= 9.0000
# # PATH  Rmax=-1.000,  Keep_limit= 0.00, Heap_limit 0.00  Pwcrit= 2.50%
#  S02=0.950  Temp=   0.00  Debye_temp=   0.00  Global_sig2= 0.00000
#  Energy zero shift, vr, vi    0.00000E+00   0.00000E+00
#  Curved wave amplitude ratio filter   4.000%
#     file         sig2 tot  cw amp ratio   deg  nlegs   reff  inp sig2
#     0/   0 paths used
#  xsedge+ 50, used to normalize mu           2.4563E-04
#  -----------------------------------------------------------------------
#  omega    e    k    mu    mu0     chi     @#
    8984.041    -11.914  -1.000  3.60041E-02  5.39510E-02 -1.79469E-02
    8984.339    -11.615  -0.960  3.78092E-02  5.78574E-02 -2.00482E-02
    8984.626    -11.328  -0.920  3.97379E-02  6.21963E-02 -2.24583E-02
    8984.900    -11.054  -0.880  4.18012E-02  6.70310E-02 -2.52298E-02
    8985.162    -10.792  -0.840  4.40105E-02  7.24354E-02 -2.84248E-02
    8985.412    -10.542  -0.800  4.63788E-02  7.84949E-02 -3.21161E-02
    8985.650    -10.304  -0.760  4.89195E-02  8.53074E-02 -3.63879E-02
    8985.876    -10.079  -0.720  5.16471E-02  9.29838E-02 -4.13367E-02
    8986.089     -9.865  -0.680  5.45762E-02  1.01646E-01 -4.70695E-02
    8986.290     -9.664  -0.640  5.77208E-02  1.11422E-01 -5.37012E-02
    8986.479     -9.475  -0.600  6.10922E-02  1.22438E-01 -6.13462E-02
    8986.656     -9.298  -0.560  6.46965E-02  1.34803E-01 -7.01061E-02
    8986.820     -9.134  -0.520  6.85301E-02  1.48578E-01 -8.00482E-02
    8986.973     -8.981  -0.480  7.25739E-02  1.63751E-01 -9.11770E-02
    8987.113     -8.841  -0.440  7.67868E-02  1.80187E-01 -1.03400E-01
    8987.241     -8.713  -0.400  8.11005E-02  1.97602E-01 -1.16502E-01
    8987.357     -8.597  -0.360  8.54193E-02  2.15547E-01 -1.30128E-01
    8987.460     -8.494  -0.320  8.96267E-02  2.33440E-01 -1.43814E-01
    8987.552     -8.402  -0.280  9.35992E-02  2.50635E-01 -1.57036E-01
    8987.631     -8.323  -0.240  9.72222E-02  2.66508E-01 -1.69286E-01
    8987.698     -8.256  -0.200  1.00403E-01  2.80539E-01 -1.80136E-01
    8987.753     -8.201  -0.160  1.03074E-01  2.92345E-01 -1.89271E-01
    8987.796     -8.158  -0.120  1.05191E-01  3.01679E-01 -1.96488E-01
    8987.826     -8.128  -0.080  1.06727E-01  3.08406E-01 -2.01678E-01
    8987.851     -8.104   0.000  1.07984E-01  3.13812E-01 -2.05827E-01
    8987.905     -8.049   0.120  1.10857E-01  3.26001E-01 -2.15144E-01
    8987.948     -8.006   0.160  1.13056E-01  3.35475E-01 -2.22419E-01
    8988.003     -7.951   0.200  1.15863E-01  3.47586E-01 -2.31723E-01
    8988.070     -7.884   0.240  1.19260E-01  3.62156E-01 -2.42896E-01
    8988.149     -7.805   0.280  1.23263E-01  3.78899E-01 -2.55637E-01
    8988.241     -7.713   0.320  1.27876E-01  3.97401E-01 -2.69525E-01
    8988.344     -7.610   0.360  1.33171E-01  4.17122E-01 -2.83951E-01
    8988.460     -7.494   0.400  1.39308E-01  4.37530E-01 -2.98223E-01
    8988.588     -7.366   0.440  1.46564E-01  4.58100E-01 -3.11535E-01
    8988.728     -7.226   0.480  1.55312E-01  4.78399E-01 -3.23087E-01
    8988.881     -7.073   0.520  1.66218E-01  4.98220E-01 -3.32002E-01
    8989.045     -6.909   0.560  1.80054E-01  5.17407E-01 -3.37353E-01
    8989.222     -6.732   0.600  1.97879E-01  5.35926E-01 -3.38047E-01
    8989.411     -6.543   0.640  2.21049E-01  5.53833E-01 -3.32784E-01
    8989.612     -6.342   0.680  2.51117E-01  5.71197E-01 -3.20079E-01
    8989.826     -6.128   0.720  2.89299E-01  5.88099E-01 -2.98800E-01
    8990.051     -5.903   0.760  3.35536E-01  6.04621E-01 -2.69085E-01
    8990.289     -5.665   0.800  3.87647E-01  6.20854E-01 -2.33206E-01
    8990.539     -5.415   0.840  4.42286E-01  6.36835E-01 -1.94549E-01
    8990.801     -5.153   0.880  4.96359E-01  6.52609E-01 -1.56250E-01
    8991.075     -4.879   0.920  5.43747E-01  6.68210E-01 -1.24463E-01
    8991.362     -4.592   0.960  5.71805E-01  6.83655E-01 -1.11851E-01
    8991.661     -4.294   1.000  5.70769E-01  6.98956E-01 -1.28187E-01
    8991.972     -3.983   1.040  5.47053E-01  7.14111E-01 -1.67058E-01
    8992.295     -3.660   1.080  5.16512E-01  7.29094E-01 -2.12581E-01
    8992.630     -3.324   1.120  4.89416E-01  7.43892E-01 -2.54476E-01
    8992.977     -2.977   1.160  4.67194E-01  7.58488E-01 -2.91294E-01
    8993.337     -2.617   1.200  4.47730E-01  7.72880E-01 -3.25151E-01
    8993.709     -2.245   1.240  4.32177E-01  7.87005E-01 -3.54829E-01
    8994.093     -1.861   1.280  4.24628E-01  8.00834E-01 -3.76206E-01
    8994.489     -1.465   1.320  4.28452E-01  8.14361E-01 -3.85909E-01
    8994.898     -1.057   1.360  4.45582E-01  8.27556E-01 -3.81975E-01
    8995.318     -0.636   1.400  4.73326E-01  8.40391E-01 -3.67065E-01
    8995.751     -0.203   1.440  5.03303E-01  8.52815E-01 -3.49512E-01
    8996.196      0.242   1.480  5.30820E-01  8.64821E-01 -3.34000E-01
    8996.653      0.699   1.520  5.57054E-01  8.76400E-01 -3.19346E-01
    8997.123      1.168   1.560  5.85646E-01  8.87503E-01 -3.01857E-01
    8997.604      1.650   1.600  6.26240E-01  8.98146E-01 -2.71906E-01
    8998.098      2.144   1.640  6.88124E-01  9.08284E-01 -2.20160E-01
    8998.604      2.650   1.680  7.67317E-01  9.17911E-01 -1.50594E-01
    8999.122      3.168   1.720  8.50533E-01  9.27046E-01 -7.65121E-02
    8999.652      3.698   1.760  9.24992E-01  9.35667E-01 -1.06750E-02
    9000.195      4.241   1.800  9.91282E-01  9.43754E-01  4.75274E-02
    9000.750      4.795   1.840  1.07408E+00  9.51329E-01  1.22748E-01
    9001.317      5.362   1.880  1.20029E+00  9.58395E-01  2.41899E-01
    9001.896      5.942   1.920  1.36750E+00  9.64956E-01  4.02546E-01
    9002.487      6.533   1.960  1.52801E+00  9.71015E-01  5.56992E-01
    9003.091      7.136   2.000  1.61720E+00  9.76579E-01  6.40620E-01
    9003.706      7.752   2.040  1.60114E+00  9.81676E-01  6.19466E-01
    9004.334      8.380   2.080  1.50547E+00  9.86313E-01  5.19157E-01
    9004.974      9.020   2.120  1.39595E+00  9.90498E-01  4.05452E-01
    9005.626      9.672   2.160  1.29585E+00  9.94239E-01  3.01613E-01
    9006.291     10.337   2.200  1.19942E+00  9.97588E-01  2.01828E-01
    9006.968     11.013   2.240  1.12438E+00  1.00055E+00  1.23823E-01
    9007.656     11.702   2.280  1.09300E+00  1.00313E+00  8.98733E-02
    9008.357     12.403   2.320  1.10270E+00  1.00536E+00  9.73459E-02
    9009.071     13.116   2.360  1.13037E+00  1.00725E+00  1.23121E-01
    9009.796     13.842   2.400  1.15408E+00  1.00883E+00  1.45249E-01
    9010.534     14.580   2.440  1.16743E+00  1.01013E+00  1.57303E-01
    9011.284     15.329   2.480  1.17613E+00  1.01114E+00  1.64996E-01
    9012.046     16.091   2.520  1.18093E+00  1.01191E+00  1.69023E-01
    9012.820     16.866   2.560  1.17268E+00  1.01244E+00  1.60241E-01
    9013.606     17.652   2.600  1.15382E+00  1.01277E+00  1.41052E-01
    9014.405     18.450   2.640  1.12887E+00  1.01291E+00  1.15960E-01
    9015.215     19.261   2.680  1.10008E+00  1.01286E+00  8.72205E-02
    9016.038     20.084   2.720  1.06944E+00  1.01265E+00  5.67839E-02
    9016.874     20.919   2.760  1.03965E+00  1.01231E+00  2.73376E-02
    9017.721     21.767   2.800  1.01278E+00  1.01184E+00  9.40181E-04
    9018.580     22.626   2.840  9.90208E-01  1.01127E+00 -2.10663E-02
    9019.452     23.498   2.880  9.71689E-01  1.01060E+00 -3.89105E-02
    9020.336     24.382   2.920  9.55664E-01  1.00984E+00 -5.41767E-02
    9021.232     25.278   2.960  9.40774E-01  1.00903E+00 -6.82538E-02
    9022.140     26.186   3.000  9.26055E-01  1.00814E+00 -8.20885E-02
    9023.061     27.107   3.040  9.11327E-01  1.00724E+00 -9.59105E-02
    9023.994     28.039   3.080  8.96997E-01  1.00627E+00 -1.09275E-01
    9024.939     28.984   3.120  8.84170E-01  1.00529E+00 -1.21124E-01
    9025.896     29.941   3.160  8.73796E-01  1.00431E+00 -1.30515E-01
    9026.865     30.911   3.200  8.66549E-01  1.00332E+00 -1.36775E-01
    9027.846     31.892   3.240  8.62693E-01  1.00234E+00 -1.39646E-01
    9028.840     32.886   3.280  8.61773E-01  1.00138E+00 -1.39608E-01
    9029.846     33.892   3.320  8.62891E-01  1.00043E+00 -1.37538E-01
    9030.864     34.910   3.360  8.65154E-01  9.99487E-01 -1.34333E-01
    9031.894     35.940   3.400  8.68075E-01  9.98580E-01 -1.30505E-01
    9032.936     36.982   3.440  8.71398E-01  9.97732E-01 -1.26334E-01
    9033.991     38.037   3.480  8.75535E-01  9.96903E-01 -1.21368E-01
    9035.058     39.104   3.520  8.81300E-01  9.96115E-01 -1.14815E-01
    9036.137     40.183   3.560  8.89286E-01  9.95392E-01 -1.06105E-01
    9037.228     41.274   3.600  8.99618E-01  9.94713E-01 -9.50948E-02
    9038.331     42.377   3.640  9.12000E-01  9.94080E-01 -8.20795E-02
    9039.447     43.493   3.680  9.25766E-01  9.93516E-01 -6.77494E-02
    9040.575     44.620   3.720  9.39933E-01  9.92999E-01 -5.30663E-02
    9041.715     45.760   3.760  9.53714E-01  9.92552E-01 -3.88378E-02
    9042.867     46.913   3.800  9.66463E-01  9.92152E-01 -2.56886E-02
    9044.031     48.077   3.840  9.77539E-01  9.91801E-01 -1.42615E-02
    9045.208     49.253   3.880  9.86546E-01  9.91521E-01 -4.97428E-03
    9046.396     50.442   3.920  9.93450E-01  9.91310E-01  2.14016E-03
    9047.597     51.643   3.960  9.98611E-01  9.91148E-01  7.46333E-03
    9048.810     52.856   4.000  1.00278E+00  9.91034E-01  1.17513E-02
    9050.036     54.081   4.040  1.00686E+00  9.90988E-01  1.58700E-02
    9051.273     55.319   4.080  1.01152E+00  9.90989E-01  2.05276E-02
    9052.523     56.569   4.120  1.01714E+00  9.91057E-01  2.60826E-02
    9053.785     57.830   4.160  1.02379E+00  9.91149E-01  3.26406E-02
    9055.059     59.105   4.200  1.03110E+00  9.91307E-01  3.97964E-02
    9056.345     60.391   4.240  1.03840E+00  9.91529E-01  4.68709E-02
    9057.643     61.689   4.280  1.04501E+00  9.91772E-01  5.32411E-02
    9058.954     63.000   4.320  1.05066E+00  9.92055E-01  5.86094E-02
    9060.277     64.323   4.360  1.05548E+00  9.92400E-01  6.30813E-02
    9061.612     65.658   4.400  1.05964E+00  9.92761E-01  6.68757E-02
    9062.959     67.005   4.440  1.06330E+00  9.93158E-01  7.01454E-02
    9064.319     68.364   4.480  1.06628E+00  9.93591E-01  7.26880E-02
    9065.690     69.736   4.520  1.06818E+00  9.94058E-01  7.41235E-02
    9067.074     71.120   4.560  1.06877E+00  9.94533E-01  7.42364E-02
    9068.470     72.516   4.600  1.06817E+00  9.95016E-01  7.31582E-02
    9069.878     73.924   4.640  1.06673E+00  9.95528E-01  7.12065E-02
    9071.298     75.344   4.680  1.06470E+00  9.96068E-01  6.86277E-02
    9072.731     76.777   4.720  1.06197E+00  9.96591E-01  6.53816E-02
    9074.176     78.222   4.760  1.05829E+00  9.97137E-01  6.11551E-02
    9075.633     79.678   4.800  1.05330E+00  9.97684E-01  5.56124E-02
    9077.102     81.148   4.840  1.04683E+00  9.98229E-01  4.86051E-02
    9078.583     82.629   4.880  1.03903E+00  9.98749E-01  4.02768E-02
    9080.077     84.122   4.920  1.03040E+00  9.99287E-01  3.11103E-02
    9081.582     85.628   4.960  1.02162E+00  9.99798E-01  2.18173E-02
    9083.100     87.146   5.000  1.01344E+00  1.00030E+00  1.31380E-02
    9084.630     88.676   5.040  1.00642E+00  1.00080E+00  5.62095E-03
    9086.173     90.218   5.080  1.00066E+00  1.00126E+00 -6.02481E-04
    9087.727     91.773   5.120  9.95859E-01  1.00169E+00 -5.83457E-03
    9089.294     93.340   5.160  9.91496E-01  1.00211E+00 -1.06156E-02
    9090.873     94.918   5.200  9.87216E-01  1.00250E+00 -1.52800E-02
    9092.464     96.509   5.240  9.83157E-01  1.00287E+00 -1.97111E-02
    9094.067     98.113   5.280  9.79725E-01  1.00320E+00 -2.34784E-02
    9095.682     99.728   5.320  9.77169E-01  1.00350E+00 -2.63304E-02
    9097.310    101.356   5.360  9.75220E-01  1.00376E+00 -2.85356E-02
    9098.950    102.996   5.400  9.73276E-01  1.00397E+00 -3.06958E-02
    9100.602    104.648   5.440  9.70932E-01  1.00415E+00 -3.32145E-02
    9102.266    106.312   5.480  9.68220E-01  1.00428E+00 -3.60637E-02
    9103.942    107.988   5.520  9.65420E-01  1.00440E+00 -3.89822E-02
    9105.631    109.677   5.560  9.62714E-01  1.00446E+00 -4.17438E-02
    9107.332    111.378   5.600  9.60369E-01  1.00447E+00 -4.41023E-02
    9109.045    113.090   5.640  9.58785E-01  1.00444E+00 -4.56600E-02
    9110.770    114.816   5.680  9.58530E-01  1.00440E+00 -4.58692E-02
    9112.507    116.553   5.720  9.59950E-01  1.00429E+00 -4.43417E-02
    9114.257    118.303   5.760  9.63026E-01  1.00414E+00 -4.11168E-02
    9116.018    120.064   5.800  9.67237E-01  1.00395E+00 -3.67183E-02
    9117.792    121.838   5.840  9.71743E-01  1.00375E+00 -3.20088E-02
    9119.579    123.624   5.880  9.75437E-01  1.00349E+00 -2.80503E-02
    9121.377    125.423   5.920  9.77408E-01  1.00319E+00 -2.57787E-02
    9123.187    127.233   5.960  9.77466E-01  1.00287E+00 -2.54086E-02
    9125.010    129.056   6.000  9.76373E-01  1.00247E+00 -2.60995E-02
