# # comment:                                                     FEFF 9.9.1  
# # Source:
# # Structure
# # Reduced
# # space
# # abc:
# # angles:125.359789
# # sites:
# # POT  SCF 100  7.0000   0, screened core-hole, AFOLP (folp(0)= 1.150)
# # Abs   Z=29 Rmt= 1.182 Rnm= 1.288 K  shell
# # Pot 1 Z=57 Rmt= 1.757 Rnm= 1.836
# # Pot 2 Z=29 Rmt= 1.182 Rnm= 1.288
# # Pot 3 Z= 8 Rmt= 1.054 Rnm= 1.113
# # Gam_ch=1.729E+00 H-L exch Vi= 0.000E+00 Vr= 0.000E+00
# # Mu=-8.287E+00eV kf=2.094E+00 Vint=-1.665E+01eV Rs_int= 1.732
# FMS rfms= 9.0000
# # PATH  Rmax=-1.000,  Keep_limit= 0.00, Heap_limit 0.00  Pwcrit= 2.50%
#  S02=0.950  Temp=   0.00  Debye_temp=   0.00  Global_sig2= 0.00000
#  Energy zero shift, vr, vi    0.00000E+00   0.00000E+00
#  Curved wave amplitude ratio filter   4.000%
#     file         sig2 tot  cw amp ratio   deg  nlegs   reff  inp sig2
#     0/   0 paths used
#  xsedge+ 50, used to normalize mu           2.4564E-04
#  -----------------------------------------------------------------------
#  omega    e    k    mu    mu0     chi     @#
    8984.166    -12.097  -1.000  3.69532E-02  5.39195E-02 -1.69663E-02
    8984.465    -11.799  -0.960  3.88903E-02  5.78204E-02 -1.89301E-02
    8984.751    -11.512  -0.920  4.09721E-02  6.21528E-02 -2.11807E-02
    8985.025    -11.238  -0.880  4.32128E-02  6.69798E-02 -2.37671E-02
    8985.287    -10.976  -0.840  4.56278E-02  7.23752E-02 -2.67473E-02
    8985.537    -10.726  -0.800  4.82342E-02  7.84239E-02 -3.01897E-02
    8985.775    -10.488  -0.760  5.10501E-02  8.52238E-02 -3.41737E-02
    8986.001    -10.262  -0.720  5.40948E-02  9.28851E-02 -3.87903E-02
    8986.214    -10.049  -0.680  5.73880E-02  1.01529E-01 -4.41414E-02
    8986.415     -9.848  -0.640  6.09485E-02  1.11285E-01 -5.03361E-02
    8986.604     -9.659  -0.600  6.47924E-02  1.22277E-01 -5.74841E-02
    8986.781     -9.482  -0.560  6.89292E-02  1.34612E-01 -6.56830E-02
    8986.946     -9.318  -0.520  7.33578E-02  1.48355E-01 -7.49975E-02
    8987.098     -9.165  -0.480  7.80591E-02  1.63491E-01 -8.54317E-02
    8987.238     -9.025  -0.440  8.29897E-02  1.79886E-01 -9.68965E-02
    8987.366     -8.897  -0.400  8.80756E-02  1.97257E-01 -1.09181E-01
    8987.482     -8.781  -0.360  9.32108E-02  2.15156E-01 -1.21946E-01
    8987.586     -8.678  -0.320  9.82641E-02  2.33004E-01 -1.34740E-01
    8987.677     -8.586  -0.280  1.03092E-01  2.50155E-01 -1.47063E-01
    8987.756     -8.507  -0.240  1.07553E-01  2.65988E-01 -1.58436E-01
    8987.823     -8.440  -0.200  1.11524E-01  2.79984E-01 -1.68460E-01
    8987.878     -8.385  -0.160  1.14906E-01  2.91760E-01 -1.76854E-01
    8987.921     -8.342  -0.120  1.17620E-01  3.01071E-01 -1.83451E-01
    8987.951     -8.312  -0.080  1.19608E-01  3.07780E-01 -1.88172E-01
    8987.976     -8.287   0.000  1.21248E-01  3.13172E-01 -1.91923E-01
    8988.031     -8.233   0.120  1.25019E-01  3.25339E-01 -2.00320E-01
    8988.073     -8.190   0.160  1.27924E-01  3.34782E-01 -2.06858E-01
    8988.128     -8.135   0.200  1.31742E-01  3.46856E-01 -2.15113E-01
    8988.195     -8.068   0.240  1.36509E-01  3.61401E-01 -2.24892E-01
    8988.275     -7.989   0.280  1.42309E-01  3.78116E-01 -2.35808E-01
    8988.366     -7.897   0.320  1.49254E-01  3.96587E-01 -2.47333E-01
    8988.470     -7.794   0.360  1.57543E-01  4.16277E-01 -2.58733E-01
    8988.585     -7.678   0.400  1.67459E-01  4.36656E-01 -2.69197E-01
    8988.713     -7.550   0.440  1.79336E-01  4.57201E-01 -2.77865E-01
    8988.854     -7.410   0.480  1.93498E-01  4.77503E-01 -2.84004E-01
    8989.006     -7.257   0.520  2.10088E-01  4.97313E-01 -2.87225E-01
    8989.171     -7.093   0.560  2.28830E-01  5.16497E-01 -2.87667E-01
    8989.347     -6.916   0.600  2.49020E-01  5.35042E-01 -2.86023E-01
    8989.536     -6.727   0.640  2.69967E-01  5.52983E-01 -2.83016E-01
    8989.738     -6.526   0.680  2.92038E-01  5.70387E-01 -2.78349E-01
    8989.951     -6.312   0.720  3.17314E-01  5.87336E-01 -2.70022E-01
    8990.176     -6.087   0.760  3.48825E-01  6.03911E-01 -2.55086E-01
    8990.414     -5.849   0.800  3.88334E-01  6.20201E-01 -2.31867E-01
    8990.664     -5.599   0.840  4.34569E-01  6.36246E-01 -2.01677E-01
    8990.926     -5.337   0.880  4.82594E-01  6.52088E-01 -1.69494E-01
    8991.201     -5.063   0.920  5.22199E-01  6.67780E-01 -1.45581E-01
    8991.487     -4.776   0.960  5.40165E-01  6.83318E-01 -1.43154E-01
    8991.786     -4.477   1.000  5.32554E-01  6.98693E-01 -1.66140E-01
    8992.097     -4.167   1.040  5.10074E-01  7.13926E-01 -2.03853E-01
    8992.420     -3.843   1.080  4.85095E-01  7.29009E-01 -2.43914E-01
    8992.755     -3.508   1.120  4.62249E-01  7.43887E-01 -2.81638E-01
    8993.103     -3.161   1.160  4.41498E-01  7.58583E-01 -3.17085E-01
    8993.462     -2.801   1.200  4.24004E-01  7.73035E-01 -3.49031E-01
    8993.834     -2.429   1.240  4.12888E-01  7.87260E-01 -3.74372E-01
    8994.218     -2.045   1.280  4.10970E-01  8.01189E-01 -3.90219E-01
    8994.614     -1.649   1.320  4.22197E-01  8.14793E-01 -3.92596E-01
    8995.023     -1.240   1.360  4.48302E-01  8.28066E-01 -3.79764E-01
    8995.443     -0.820   1.400  4.81979E-01  8.40956E-01 -3.58977E-01
    8995.876     -0.387   1.440  5.13999E-01  8.53454E-01 -3.39455E-01
    8996.321      0.058   1.480  5.42950E-01  8.65530E-01 -3.22580E-01
    8996.778      0.515   1.520  5.71499E-01  8.77178E-01 -3.05679E-01
    8997.248      0.985   1.560  6.04901E-01  8.88329E-01 -2.83428E-01
    8997.729      1.466   1.600  6.52530E-01  8.99017E-01 -2.46487E-01
    8998.223      1.960   1.640  7.19204E-01  9.09216E-01 -1.90012E-01
    8998.729      2.466   1.680  7.98422E-01  9.18882E-01 -1.20461E-01
    8999.247      2.984   1.720  8.77735E-01  9.28054E-01 -5.03183E-02
    8999.778      3.514   1.760  9.48982E-01  9.36689E-01  1.22933E-02
    9000.320      4.057   1.800  1.02532E+00  9.44808E-01  8.05078E-02
    9000.875      4.612   1.840  1.13089E+00  9.52411E-01  1.78484E-01
    9001.442      5.179   1.880  1.26924E+00  9.59483E-01  3.09754E-01
    9002.021      5.758   1.920  1.41517E+00  9.66046E-01  4.49128E-01
    9002.612      6.349   1.960  1.53372E+00  9.72107E-01  5.61615E-01
    9003.216      6.953   2.000  1.58428E+00  9.77691E-01  6.06593E-01
    9003.831      7.568   2.040  1.53732E+00  9.82765E-01  5.54555E-01
    9004.459      8.196   2.080  1.43492E+00  9.87397E-01  4.47518E-01
    9005.099      8.836   2.120  1.33174E+00  9.91575E-01  3.40164E-01
    9005.752      9.488   2.160  1.23937E+00  9.95307E-01  2.44065E-01
    9006.416     10.153   2.200  1.16756E+00  9.98625E-01  1.68932E-01
    9007.093     10.830   2.240  1.12946E+00  1.00156E+00  1.27898E-01
    9007.782     11.518   2.280  1.12472E+00  1.00412E+00  1.20605E-01
    9008.483     12.219   2.320  1.13954E+00  1.00632E+00  1.33230E-01
    9009.196     12.933   2.360  1.15777E+00  1.00820E+00  1.49568E-01
    9009.921     13.658   2.400  1.17031E+00  1.00974E+00  1.60569E-01
    9010.659     14.396   2.440  1.17852E+00  1.01101E+00  1.67516E-01
    9011.409     15.146   2.480  1.18332E+00  1.01200E+00  1.71327E-01
    9012.171     15.908   2.520  1.17692E+00  1.01273E+00  1.64192E-01
    9012.945     16.682   2.560  1.15964E+00  1.01323E+00  1.46416E-01
    9013.731     17.468   2.600  1.13474E+00  1.01351E+00  1.21230E-01
    9014.530     18.267   2.640  1.10630E+00  1.01362E+00  9.26871E-02
    9015.341     19.077   2.680  1.07746E+00  1.01353E+00  6.39293E-02
    9016.164     19.900   2.720  1.05113E+00  1.01330E+00  3.78287E-02
    9016.999     20.736   2.760  1.02888E+00  1.01292E+00  1.59556E-02
    9017.846     21.583   2.800  1.01032E+00  1.01242E+00 -2.09459E-03
    9018.706     22.442   2.840  9.94191E-01  1.01181E+00 -1.76201E-02
    9019.577     23.314   2.880  9.78835E-01  1.01110E+00 -3.22613E-02
    9020.461     24.198   2.920  9.62912E-01  1.01030E+00 -4.73876E-02
    9021.357     25.094   2.960  9.46241E-01  1.00945E+00 -6.32069E-02
    9022.266     26.002   3.000  9.29276E-01  1.00855E+00 -7.92737E-02
    9023.186     26.923   3.040  9.12859E-01  1.00759E+00 -9.47268E-02
    9024.119     27.856   3.080  8.98063E-01  1.00661E+00 -1.08543E-01
    9025.064     28.801   3.120  8.86022E-01  1.00561E+00 -1.19593E-01
    9026.021     29.758   3.160  8.77120E-01  1.00459E+00 -1.27475E-01
    9026.990     30.727   3.200  8.71195E-01  1.00357E+00 -1.32377E-01
    9027.971     31.708   3.240  8.67709E-01  1.00255E+00 -1.34843E-01
    9028.965     32.702   3.280  8.65725E-01  1.00156E+00 -1.35833E-01
    9029.971     33.708   3.320  8.64440E-01  1.00059E+00 -1.36153E-01
    9030.989     34.726   3.360  8.63635E-01  9.99620E-01 -1.35986E-01
    9032.019     35.756   3.400  8.63955E-01  9.98703E-01 -1.34748E-01
    9033.062     36.798   3.440  8.66049E-01  9.97824E-01 -1.31775E-01
    9034.116     37.853   3.480  8.70627E-01  9.96985E-01 -1.26359E-01
    9035.183     38.920   3.520  8.77991E-01  9.96188E-01 -1.18197E-01
    9036.262     39.999   3.560  8.87812E-01  9.95434E-01 -1.07622E-01
    9037.353     41.090   3.600  8.99428E-01  9.94724E-01 -9.52964E-02
    9038.457     42.193   3.640  9.12218E-01  9.94082E-01 -8.18638E-02
    9039.572     43.309   3.680  9.25662E-01  9.93509E-01 -6.78463E-02
    9040.700     44.437   3.720  9.39262E-01  9.92963E-01 -5.37010E-02
    9041.840     45.577   3.760  9.52777E-01  9.92485E-01 -3.97081E-02
    9042.992     46.729   3.800  9.65794E-01  9.92078E-01 -2.62842E-02
    9044.156     47.893   3.840  9.77665E-01  9.91721E-01 -1.40569E-02
    9045.333     49.070   3.880  9.87971E-01  9.91436E-01 -3.46518E-03
    9046.522     50.258   3.920  9.96682E-01  9.91199E-01  5.48298E-03
    9047.722     51.459   3.960  1.00409E+00  9.91032E-01  1.30616E-02
    9048.936     52.672   4.000  1.01065E+00  9.90915E-01  1.97316E-02
    9050.161     53.898   4.040  1.01686E+00  9.90865E-01  2.59911E-02
    9051.398     55.135   4.080  1.02302E+00  9.90863E-01  3.21529E-02
    9052.648     56.385   4.120  1.02905E+00  9.90909E-01  3.81363E-02
    9053.910     57.647   4.160  1.03475E+00  9.91020E-01  4.37318E-02
    9055.184     58.921   4.200  1.03984E+00  9.91175E-01  4.86667E-02
    9056.470     60.207   4.240  1.04418E+00  9.91373E-01  5.28022E-02
    9057.769     61.505   4.280  1.04782E+00  9.91614E-01  5.62053E-02
    9059.079     62.816   4.320  1.05092E+00  9.91896E-01  5.90213E-02
    9060.402     64.139   4.360  1.05359E+00  9.92239E-01  6.13542E-02
    9061.737     65.474   4.400  1.05575E+00  9.92599E-01  6.31527E-02
    9063.084     66.821   4.440  1.05746E+00  9.92996E-01  6.44612E-02
    9064.444     68.181   4.480  1.05885E+00  9.93429E-01  6.54164E-02
    9065.815     69.552   4.520  1.06017E+00  9.93896E-01  6.62696E-02
    9067.199     70.936   4.560  1.06157E+00  9.94371E-01  6.72001E-02
    9068.595     72.332   4.600  1.06294E+00  9.94854E-01  6.80862E-02
    9070.003     73.740   4.640  1.06376E+00  9.95366E-01  6.83912E-02
    9071.424     75.160   4.680  1.06330E+00  9.95907E-01  6.73917E-02
    9072.856     76.593   4.720  1.06086E+00  9.96430E-01  6.44335E-02
    9074.301     78.038   4.760  1.05612E+00  9.96977E-01  5.91476E-02
    9075.758     79.495   4.800  1.04923E+00  9.97526E-01  5.17042E-02
    9077.227     80.964   4.840  1.04092E+00  9.98074E-01  4.28475E-02
    9078.708     82.445   4.880  1.03227E+00  9.98620E-01  3.36525E-02
    9080.202     83.939   4.920  1.02431E+00  9.99162E-01  2.51493E-02
    9081.708     85.444   4.960  1.01764E+00  9.99674E-01  1.79637E-02
    9083.225     86.962   5.000  1.01241E+00  1.00018E+00  1.22268E-02
    9084.755     88.492   5.040  1.00835E+00  1.00068E+00  7.67525E-03
    9086.298     90.035   5.080  1.00498E+00  1.00114E+00  3.83157E-03
    9087.852     91.589   5.120  1.00186E+00  1.00158E+00  2.83017E-04
    9089.419     93.156   5.160  9.98862E-01  1.00202E+00 -3.16069E-03
    9090.998     94.735   5.200  9.95889E-01  1.00241E+00 -6.52146E-03
    9092.589     96.326   5.240  9.92851E-01  1.00278E+00 -9.92980E-03
    9094.192     97.929   5.280  9.89327E-01  1.00310E+00 -1.37676E-02
    9095.807     99.544   5.320  9.84973E-01  1.00342E+00 -1.84426E-02
    9097.435    101.172   5.360  9.79623E-01  1.00367E+00 -2.40509E-02
    9099.075    102.812   5.400  9.73581E-01  1.00389E+00 -3.03101E-02
    9100.727    104.464   5.440  9.67362E-01  1.00407E+00 -3.67088E-02
    9102.391    106.128   5.480  9.61542E-01  1.00423E+00 -4.26905E-02
    9104.068    107.804   5.520  9.56597E-01  1.00433E+00 -4.77355E-02
    9105.756    109.493   5.560  9.53019E-01  1.00441E+00 -5.13926E-02
    9107.457    111.194   5.600  9.51122E-01  1.00443E+00 -5.33065E-02
    9109.170    112.907   5.640  9.51068E-01  1.00440E+00 -5.33352E-02
    9110.895    114.632   5.680  9.52676E-01  1.00436E+00 -5.16833E-02
    9112.632    116.369   5.720  9.55272E-01  1.00425E+00 -4.89809E-02
    9114.382    118.119   5.760  9.57975E-01  1.00411E+00 -4.61314E-02
    9116.144    119.880   5.800  9.59955E-01  1.00394E+00 -4.39878E-02
    9117.918    121.654   5.840  9.60807E-01  1.00372E+00 -4.29103E-02
    9119.704    123.441   5.880  9.60939E-01  1.00345E+00 -4.25140E-02
    9121.502    125.239   5.920  9.61268E-01  1.00318E+00 -4.19095E-02
    9123.313    127.049   5.960  9.62739E-01  1.00284E+00 -4.01010E-02
    9125.135    128.872   6.000  9.66053E-01  1.00247E+00 -3.64138E-02
