# # comment:                                                     FEFF 9.9.1  
# # Source:
# # Structure
# # Reduced
# # space
# # abc:
# # angles:
# # sites:
# # POT  SCF 100  7.0000   0, screened core-hole, AFOLP (folp(0)= 1.150)
# # Abs   Z=29 Rmt= 1.258 Rnm= 1.329 K  shell
# # Pot 1 Z=26 Rmt= 1.262 Rnm= 1.356
# # Pot 2 Z=29 Rmt= 1.270 Rnm= 1.340
# # Pot 3 Z= 8 Rmt= 1.011 Rnm= 1.082
# # Gam_ch=1.729E+00 H-L exch Vi= 0.000E+00 Vr= 0.000E+00
# # Mu=-1.132E+01eV kf=2.239E+00 Vint=-1.918E+01eV Rs_int= 1.619
# FMS rfms= 9.0000
# # PATH  Rmax=-1.000,  Keep_limit= 0.00, Heap_limit 0.00  Pwcrit= 2.50%
#  S02=0.950  Temp=   0.00  Debye_temp=   0.00  Global_sig2= 0.00000
#  Energy zero shift, vr, vi    0.00000E+00   0.00000E+00
#  Curved wave amplitude ratio filter   4.000%
#     file         sig2 tot  cw amp ratio   deg  nlegs   reff  inp sig2
#     0/   0 paths used
#  xsedge+ 50, used to normalize mu           2.5153E-04
#  -----------------------------------------------------------------------
#  omega    e    k    mu    mu0     chi     @#
    8984.337    -15.133  -1.000  3.01814E-02  4.39400E-02 -1.37585E-02
    8984.636    -14.835  -0.960  3.15629E-02  4.68786E-02 -1.53157E-02
    8984.922    -14.548  -0.920  3.30383E-02  5.01257E-02 -1.70874E-02
    8985.197    -14.274  -0.880  3.46173E-02  5.37252E-02 -1.91079E-02
    8985.459    -14.012  -0.840  3.63113E-02  5.77283E-02 -2.14170E-02
    8985.709    -13.762  -0.800  3.81329E-02  6.21944E-02 -2.40615E-02
    8985.947    -13.524  -0.760  4.00963E-02  6.71911E-02 -2.70948E-02
    8986.172    -13.298  -0.720  4.22172E-02  7.27950E-02 -3.05778E-02
    8986.385    -13.085  -0.680  4.45121E-02  7.90901E-02 -3.45780E-02
    8986.587    -12.884  -0.640  4.69980E-02  8.61648E-02 -3.91668E-02
    8986.776    -12.695  -0.600  4.96900E-02  9.41056E-02 -4.44156E-02
    8986.952    -12.518  -0.560  5.25995E-02  1.02986E-01 -5.03863E-02
    8987.117    -12.354  -0.520  5.57293E-02  1.12848E-01 -5.71187E-02
    8987.269    -12.201  -0.480  5.90684E-02  1.23680E-01 -6.46118E-02
    8987.410    -12.061  -0.440  6.25855E-02  1.35388E-01 -7.28023E-02
    8987.538    -11.933  -0.400  6.62244E-02  1.47771E-01 -8.15462E-02
    8987.653    -11.817  -0.360  6.99027E-02  1.60515E-01 -9.06121E-02
    8987.757    -11.713  -0.320  7.35176E-02  1.73213E-01 -9.96955E-02
    8987.849    -11.622  -0.280  7.69583E-02  1.85413E-01 -1.08455E-01
    8987.928    -11.543  -0.240  8.01195E-02  1.96678E-01 -1.16558E-01
    8987.995    -11.476  -0.200  8.29133E-02  2.06640E-01 -1.23726E-01
    8988.050    -11.421  -0.160  8.52718E-02  2.15027E-01 -1.29755E-01
    8988.092    -11.378  -0.120  8.71442E-02  2.21664E-01 -1.34519E-01
    8988.123    -11.348  -0.080  8.84942E-02  2.26449E-01 -1.37955E-01
    8988.147    -11.323   0.000  8.95659E-02  2.30298E-01 -1.40732E-01
    8988.202    -11.268   0.120  9.23168E-02  2.38984E-01 -1.46668E-01
    8988.245    -11.226   0.160  9.44433E-02  2.45746E-01 -1.51303E-01
    8988.300    -11.171   0.200  9.72007E-02  2.54395E-01 -1.57194E-01
    8988.367    -11.104   0.240  1.00609E-01  2.64832E-01 -1.64223E-01
    8988.446    -11.025   0.280  1.04690E-01  2.76865E-01 -1.72176E-01
    8988.537    -10.933   0.320  1.09487E-01  2.90212E-01 -1.80724E-01
    8988.641    -10.830   0.360  1.15112E-01  3.04539E-01 -1.89427E-01
    8988.757    -10.714   0.400  1.21716E-01  3.19468E-01 -1.97752E-01
    8988.885    -10.586   0.440  1.29492E-01  3.34642E-01 -2.05151E-01
    8989.025    -10.445   0.480  1.38657E-01  3.49820E-01 -2.11163E-01
    8989.177    -10.293   0.520  1.49201E-01  3.64816E-01 -2.15616E-01
    8989.342    -10.128   0.560  1.60726E-01  3.79558E-01 -2.18832E-01
    8989.519     -9.952   0.600  1.72208E-01  3.94062E-01 -2.21854E-01
    8989.708     -9.763   0.640  1.81818E-01  4.08332E-01 -2.26513E-01
    8989.909     -9.562   0.680  1.87548E-01  4.22453E-01 -2.34904E-01
    8990.122     -9.348   0.720  1.88067E-01  4.36459E-01 -2.48392E-01
    8990.348     -9.123   0.760  1.84303E-01  4.50465E-01 -2.66162E-01
    8990.586     -8.885   0.800  1.79382E-01  4.64498E-01 -2.85116E-01
    8990.836     -8.635   0.840  1.77002E-01  4.78617E-01 -3.01615E-01
    8991.098     -8.373   0.880  1.79575E-01  4.92849E-01 -3.13275E-01
    8991.372     -8.099   0.920  1.88218E-01  5.07235E-01 -3.19017E-01
    8991.659     -7.812   0.960  2.03769E-01  5.21785E-01 -3.18016E-01
    8991.957     -7.513   1.000  2.27858E-01  5.36522E-01 -3.08664E-01
    8992.268     -7.202   1.040  2.63389E-01  5.51423E-01 -2.88034E-01
    8992.591     -6.879   1.080  3.13909E-01  5.66518E-01 -2.52610E-01
    8992.926     -6.544   1.120  3.80641E-01  5.81773E-01 -2.01132E-01
    8993.274     -6.197   1.160  4.56243E-01  5.97190E-01 -1.40946E-01
    8993.634     -5.837   1.200  5.17253E-01  6.12726E-01 -9.54723E-02
    8994.005     -5.465   1.240  5.32497E-01  6.28376E-01 -9.58787E-02
    8994.390     -5.081   1.280  5.00006E-01  6.44112E-01 -1.44106E-01
    8994.786     -4.685   1.320  4.58064E-01  6.59884E-01 -2.01820E-01
    8995.194     -4.276   1.360  4.37879E-01  6.75681E-01 -2.37802E-01
    8995.615     -3.856   1.400  4.41880E-01  6.91468E-01 -2.49588E-01
    8996.048     -3.423   1.440  4.63366E-01  7.07212E-01 -2.43846E-01
    8996.493     -2.978   1.480  4.97983E-01  7.22857E-01 -2.24874E-01
    8996.950     -2.521   1.520  5.41280E-01  7.38406E-01 -1.97127E-01
    8997.419     -2.051   1.560  5.91607E-01  7.53763E-01 -1.62156E-01
    8997.901     -1.570   1.600  6.54929E-01  7.68950E-01 -1.14021E-01
    8998.395     -1.076   1.640  7.21785E-01  7.83892E-01 -6.21070E-02
    8998.901     -0.570   1.680  7.57603E-01  7.98570E-01 -4.09670E-02
    8999.419     -0.052   1.720  7.47577E-01  8.12928E-01 -6.53514E-02
    8999.949      0.479   1.760  7.22832E-01  8.26972E-01 -1.04140E-01
    9000.492      1.021   1.800  7.22834E-01  8.40626E-01 -1.17792E-01
    9001.046      1.576   1.840  7.64397E-01  8.53895E-01 -8.94980E-02
    9001.613      2.143   1.880  8.54170E-01  8.66726E-01 -1.25556E-02
    9002.192      2.722   1.920  1.00551E+00  8.79107E-01  1.26402E-01
    9002.784      3.313   1.960  1.21712E+00  8.91027E-01  3.26096E-01
    9003.387      3.917   2.000  1.41753E+00  9.02436E-01  5.15096E-01
    9004.003      4.532   2.040  1.47526E+00  9.13326E-01  5.61934E-01
    9004.631      5.160   2.080  1.37322E+00  9.23689E-01  4.49527E-01
    9005.271      5.800   2.120  1.25709E+00  9.33519E-01  3.23571E-01
    9005.923      6.453   2.160  1.20350E+00  9.42792E-01  2.60711E-01
    9006.588      7.117   2.200  1.18760E+00  9.51506E-01  2.36094E-01
    9007.264      7.794   2.240  1.19783E+00  9.59679E-01  2.38147E-01
    9007.953      8.483   2.280  1.24462E+00  9.67270E-01  2.77353E-01
    9008.654      9.184   2.320  1.29196E+00  9.74300E-01  3.17663E-01
    9009.367      9.897   2.360  1.28924E+00  9.80791E-01  3.08445E-01
    9010.093     10.622   2.400  1.24554E+00  9.86707E-01  2.58828E-01
    9010.830     11.360   2.440  1.18505E+00  9.92112E-01  1.92941E-01
    9011.580     12.110   2.480  1.10229E+00  9.96971E-01  1.05319E-01
    9012.342     12.872   2.520  1.00791E+00  1.00131E+00  6.59379E-03
    9013.116     13.646   2.560  9.41428E-01  1.00514E+00 -6.37149E-02
    9013.903     14.432   2.600  9.11857E-01  1.00851E+00 -9.66542E-02
    9014.701     15.231   2.640  9.07019E-01  1.01140E+00 -1.04386E-01
    9015.512     16.042   2.680  9.16986E-01  1.01385E+00 -9.68675E-02
    9016.335     16.865   2.720  9.30654E-01  1.01587E+00 -8.52134E-02
    9017.170     17.700   2.760  9.46876E-01  1.01746E+00 -7.05802E-02
    9018.018     18.547   2.800  9.61281E-01  1.01869E+00 -5.74107E-02
    9018.877     19.407   2.840  9.70232E-01  1.01955E+00 -4.93136E-02
    9019.749     20.278   2.880  9.74504E-01  1.02005E+00 -4.55430E-02
    9020.633     21.162   2.920  9.77043E-01  1.02025E+00 -4.32039E-02
    9021.529     22.058   2.960  9.80013E-01  1.02014E+00 -4.01240E-02
    9022.437     22.967   3.000  9.83400E-01  1.01975E+00 -3.63494E-02
    9023.358     23.887   3.040  9.85660E-01  1.01911E+00 -3.34538E-02
    9024.290     24.820   3.080  9.84620E-01  1.01824E+00 -3.36228E-02
    9025.235     25.765   3.120  9.78540E-01  1.01717E+00 -3.86264E-02
    9026.192     26.722   3.160  9.67487E-01  1.01591E+00 -4.84284E-02
    9027.161     27.691   3.200  9.53457E-01  1.01448E+00 -6.10221E-02
    9028.143     28.672   3.240  9.39148E-01  1.01289E+00 -7.37366E-02
    9029.137     29.666   3.280  9.26278E-01  1.01117E+00 -8.48888E-02
    9030.142     30.672   3.320  9.15686E-01  1.00935E+00 -9.36653E-02
    9031.160     31.690   3.360  9.07693E-01  1.00743E+00 -9.97347E-02
    9032.191     32.720   3.400  9.02358E-01  1.00542E+00 -1.03065E-01
    9033.233     33.763   3.440  8.99480E-01  1.00335E+00 -1.03867E-01
    9034.288     34.817   3.480  8.98649E-01  1.00125E+00 -1.02597E-01
    9035.354     35.884   3.520  8.99311E-01  9.99109E-01 -9.97984E-02
    9036.433     36.963   3.560  9.00814E-01  9.96942E-01 -9.61286E-02
    9037.525     38.054   3.600  9.03035E-01  9.94773E-01 -9.17372E-02
    9038.628     39.157   3.640  9.06152E-01  9.92625E-01 -8.64728E-02
    9039.744     40.273   3.680  9.10405E-01  9.90484E-01 -8.00787E-02
    9040.871     41.401   3.720  9.16095E-01  9.88356E-01 -7.22616E-02
    9042.011     42.541   3.760  9.23583E-01  9.86287E-01 -6.27039E-02
    9043.163     43.693   3.800  9.33085E-01  9.84260E-01 -5.11745E-02
    9044.328     44.857   3.840  9.44453E-01  9.82280E-01 -3.78272E-02
    9045.504     46.034   3.880  9.57241E-01  9.80371E-01 -2.31300E-02
    9046.693     47.222   3.920  9.70917E-01  9.78536E-01 -7.61915E-03
    9047.894     48.423   3.960  9.85162E-01  9.76777E-01  8.38530E-03
    9049.107     49.636   4.000  1.00007E+00  9.75076E-01  2.49896E-02
    9050.332     50.862   4.040  1.01568E+00  9.73477E-01  4.22033E-02
    9051.570     52.099   4.080  1.03137E+00  9.71963E-01  5.94025E-02
    9052.819     53.349   4.120  1.04599E+00  9.70555E-01  7.54372E-02
    9054.081     54.611   4.160  1.05832E+00  9.69233E-01  8.90915E-02
    9055.355     55.885   4.200  1.06769E+00  9.67999E-01  9.96886E-02
    9056.642     57.171   4.240  1.07443E+00  9.66875E-01  1.07557E-01
    9057.940     58.470   4.280  1.07974E+00  9.65862E-01  1.13882E-01
    9059.251     59.780   4.320  1.08473E+00  9.64941E-01  1.19791E-01
    9060.574     61.103   4.360  1.09032E+00  9.64131E-01  1.26191E-01
    9061.909     62.438   4.400  1.09701E+00  9.63433E-01  1.33581E-01
    9063.256     63.785   4.440  1.10390E+00  9.62825E-01  1.41078E-01
    9064.615     65.145   4.480  1.10762E+00  9.62326E-01  1.45298E-01
    9065.987     66.516   4.520  1.10279E+00  9.61917E-01  1.40874E-01
    9067.371     67.900   4.560  1.08507E+00  9.61616E-01  1.23458E-01
    9068.766     69.296   4.600  1.05429E+00  9.61403E-01  9.28898E-02
    9070.175     70.704   4.640  1.01502E+00  9.61299E-01  5.37175E-02
    9071.595     72.125   4.680  9.73765E-01  9.61279E-01  1.24860E-02
    9073.028     73.557   4.720  9.35892E-01  9.61343E-01 -2.54514E-02
    9074.472     75.002   4.760  9.04471E-01  9.61512E-01 -5.70405E-02
    9075.929     76.459   4.800  8.80565E-01  9.61761E-01 -8.11959E-02
    9077.398     77.928   4.840  8.64133E-01  9.62067E-01 -9.79335E-02
    9078.880     79.409   4.880  8.54668E-01  9.62470E-01 -1.07802E-01
    9080.373     80.903   4.920  8.51403E-01  9.62927E-01 -1.11524E-01
    9081.879     82.408   4.960  8.53790E-01  9.63455E-01 -1.09664E-01
    9083.397     83.926   5.000  8.61435E-01  9.64030E-01 -1.02595E-01
    9084.927     85.456   5.040  8.74295E-01  9.64675E-01 -9.03799E-02
    9086.469     86.999   5.080  8.92496E-01  9.65363E-01 -7.28673E-02
    9088.024     88.553   5.120  9.15682E-01  9.66091E-01 -5.04087E-02
    9089.590     90.120   5.160  9.42046E-01  9.66858E-01 -2.48128E-02
    9091.169     91.699   5.200  9.67994E-01  9.67660E-01  3.34510E-04
    9092.760     93.290   5.240  9.89446E-01  9.68473E-01  2.09727E-02
    9094.363     94.893   5.280  1.00414E+00  9.69316E-01  3.48194E-02
    9095.979     96.508   5.320  1.01244E+00  9.70167E-01  4.22711E-02
    9097.607     98.136   5.360  1.01615E+00  9.71044E-01  4.51077E-02
    9099.246     99.776   5.400  1.01658E+00  9.71923E-01  4.46524E-02
    9100.898    101.428   5.440  1.01387E+00  9.72778E-01  4.10886E-02
    9102.563    103.092   5.480  1.00761E+00  9.73649E-01  3.39617E-02
    9104.239    104.768   5.520  9.97576E-01  9.74492E-01  2.30841E-02
    9105.928    106.457   5.560  9.84413E-01  9.75302E-01  9.11135E-03
    9107.628    108.158   5.600  9.69720E-01  9.76100E-01 -6.37930E-03
    9109.341    109.871   5.640  9.55647E-01  9.76862E-01 -2.12152E-02
    9111.066    111.596   5.680  9.44086E-01  9.77585E-01 -3.34991E-02
    9112.804    113.333   5.720  9.35674E-01  9.78267E-01 -4.25926E-02
    9114.553    115.083   5.760  9.29592E-01  9.78906E-01 -4.93140E-02
    9116.315    116.845   5.800  9.24235E-01  9.79478E-01 -5.52432E-02
    9118.089    118.619   5.840  9.18440E-01  9.80027E-01 -6.15864E-02
    9119.875    120.405   5.880  9.11999E-01  9.80503E-01 -6.85040E-02
    9121.673    122.203   5.920  9.05891E-01  9.80901E-01 -7.50106E-02
    9123.484    124.013   5.960  9.02010E-01  9.81234E-01 -7.92242E-02
    9125.307    125.836   6.000  9.02732E-01  9.81455E-01 -7.87231E-02
