# # comment:                                                     FEFF 9.9.1  
# # Source:
# # Structure
# # Reduced
# # space
# # abc:
# # angles:
# # sites:
# # POT  SCF 100  7.0000   0, screened core-hole, AFOLP (folp(0)= 1.150)
# # Abs   Z=29 Rmt= 1.237 Rnm= 1.319 K  shell
# # Pot 1 Z=13 Rmt= 1.226 Rnm= 1.328
# # Pot 2 Z=29 Rmt= 1.243 Rnm= 1.299
# # Pot 3 Z= 8 Rmt= 0.988 Rnm= 1.073
# # Gam_ch=1.729E+00 H-L exch Vi= 0.000E+00 Vr= 0.000E+00
# # Mu=-8.069E+00eV kf=2.274E+00 Vint=-1.817E+01eV Rs_int= 1.595
# FMS rfms= 9.0000
# # PATH  Rmax=-1.000,  Keep_limit= 0.00, Heap_limit 0.00  Pwcrit= 2.50%
#  S02=0.950  Temp=   0.00  Debye_temp=   0.00  Global_sig2= 0.00000
#  Energy zero shift, vr, vi    0.00000E+00   0.00000E+00
#  Curved wave amplitude ratio filter   4.000%
#     file         sig2 tot  cw amp ratio   deg  nlegs   reff  inp sig2
#     0/   0 paths used
#  xsedge+ 50, used to normalize mu           2.5019E-04
#  -----------------------------------------------------------------------
#  omega    e    k    mu    mu0     chi     @#
    8983.586    -11.879  -1.000  3.29696E-02  4.95854E-02 -1.66158E-02
    8983.885    -11.580  -0.960  3.44915E-02  5.31270E-02 -1.86355E-02
    8984.171    -11.294  -0.920  3.61038E-02  5.70606E-02 -2.09568E-02
    8984.446    -11.019  -0.880  3.78127E-02  6.14440E-02 -2.36313E-02
    8984.708    -10.757  -0.840  3.96249E-02  6.63446E-02 -2.67196E-02
    8984.958    -10.507  -0.800  4.15472E-02  7.18403E-02 -3.02931E-02
    8985.196    -10.270  -0.760  4.35866E-02  7.80209E-02 -3.44343E-02
    8985.421    -10.044  -0.720  4.57500E-02  8.49877E-02 -3.92377E-02
    8985.634     -9.831  -0.680  4.80437E-02  9.28522E-02 -4.48085E-02
    8985.836     -9.630  -0.640  5.04731E-02  1.01733E-01 -5.12594E-02
    8986.025     -9.441  -0.600  5.30413E-02  1.11744E-01 -5.87031E-02
    8986.201     -9.264  -0.560  5.57477E-02  1.22987E-01 -6.72390E-02
    8986.366     -9.099  -0.520  5.85860E-02  1.35518E-01 -7.69324E-02
    8986.518     -8.947  -0.480  6.15414E-02  1.49327E-01 -8.77852E-02
    8986.659     -8.807  -0.440  6.45874E-02  1.64290E-01 -9.97024E-02
    8986.787     -8.679  -0.400  6.76837E-02  1.80147E-01 -1.12464E-01
    8986.902     -8.563  -0.360  7.07752E-02  1.96489E-01 -1.25713E-01
    8987.006     -8.459  -0.320  7.37950E-02  2.12781E-01 -1.38986E-01
    8987.097     -8.368  -0.280  7.66695E-02  2.28434E-01 -1.51764E-01
    8987.177     -8.289  -0.240  7.93253E-02  2.42878E-01 -1.63552E-01
    8987.244     -8.221  -0.200  8.16952E-02  2.55639E-01 -1.73944E-01
    8987.299     -8.167  -0.160  8.37212E-02  2.66370E-01 -1.82649E-01
    8987.341     -8.124  -0.120  8.53553E-02  2.74850E-01 -1.89494E-01
    8987.372     -8.093  -0.080  8.65594E-02  2.80957E-01 -1.94398E-01
    8987.396     -8.069   0.000  8.75632E-02  2.85863E-01 -1.98300E-01
    8987.451     -8.014   0.120  8.99177E-02  2.96926E-01 -2.07008E-01
    8987.494     -7.972   0.160  9.17257E-02  3.05521E-01 -2.13795E-01
    8987.549     -7.917   0.200  9.40765E-02  3.16473E-01 -2.22396E-01
    8987.616     -7.850   0.240  9.70317E-02  3.29667E-01 -2.32636E-01
    8987.695     -7.770   0.280  1.00595E-01  3.44793E-01 -2.44198E-01
    8987.786     -7.679   0.320  1.04844E-01  3.61457E-01 -2.56613E-01
    8987.890     -7.575   0.360  1.09858E-01  3.79172E-01 -2.69313E-01
    8988.006     -7.459   0.400  1.15824E-01  3.97439E-01 -2.81615E-01
    8988.134     -7.331   0.440  1.22893E-01  4.15747E-01 -2.92854E-01
    8988.274     -7.191   0.480  1.31382E-01  4.33751E-01 -3.02369E-01
    8988.426     -7.039   0.520  1.41657E-01  4.51201E-01 -3.09543E-01
    8988.591     -6.874   0.560  1.54219E-01  4.67991E-01 -3.13773E-01
    8988.768     -6.697   0.600  1.69696E-01  4.84116E-01 -3.14420E-01
    8988.957     -6.508   0.640  1.88754E-01  4.99590E-01 -3.10835E-01
    8989.158     -6.307   0.680  2.12138E-01  5.14541E-01 -3.02404E-01
    8989.371     -6.094   0.720  2.40062E-01  5.29014E-01 -2.88953E-01
    8989.597     -5.868   0.760  2.71529E-01  5.43149E-01 -2.71620E-01
    8989.835     -5.631   0.800  3.02828E-01  5.56980E-01 -2.54151E-01
    8990.085     -5.381   0.840  3.28151E-01  5.70608E-01 -2.42456E-01
    8990.347     -5.119   0.880  3.43591E-01  5.84081E-01 -2.40490E-01
    8990.621     -4.844   0.920  3.50387E-01  5.97458E-01 -2.47071E-01
    8990.907     -4.558   0.960  3.52978E-01  6.10747E-01 -2.57769E-01
    8991.206     -4.259   1.000  3.56931E-01  6.23982E-01 -2.67052E-01
    8991.517     -3.948   1.040  3.67023E-01  6.37172E-01 -2.70149E-01
    8991.840     -3.625   1.080  3.83964E-01  6.50340E-01 -2.66376E-01
    8992.175     -3.290   1.120  4.03528E-01  6.63479E-01 -2.59951E-01
    8992.523     -2.942   1.160  4.22420E-01  6.76580E-01 -2.54160E-01
    8992.883     -2.583   1.200  4.42583E-01  6.89628E-01 -2.47046E-01
    8993.254     -2.211   1.240  4.68754E-01  7.02609E-01 -2.33855E-01
    8993.638     -1.827   1.280  5.03897E-01  7.15541E-01 -2.11643E-01
    8994.035     -1.431   1.320  5.46630E-01  7.28361E-01 -1.81731E-01
    8994.443     -1.022   1.360  5.89746E-01  7.41064E-01 -1.51318E-01
    8994.864     -0.601   1.400  6.25633E-01  7.53626E-01 -1.27993E-01
    8995.297     -0.169   1.440  6.52328E-01  7.66041E-01 -1.13713E-01
    8995.742      0.276   1.480  6.70290E-01  7.78280E-01 -1.07990E-01
    8996.199      0.734   1.520  6.84160E-01  7.90315E-01 -1.06155E-01
    8996.668      1.203   1.560  7.07067E-01  8.02140E-01 -9.50728E-02
    8997.150      1.685   1.600  7.59380E-01  8.13704E-01 -5.43238E-02
    8997.644      2.178   1.640  8.44779E-01  8.25021E-01  1.97578E-02
    8998.149      2.684   1.680  9.45757E-01  8.36041E-01  1.09716E-01
    8998.668      3.202   1.720  1.04539E+00  8.46758E-01  1.98636E-01
    8999.198      3.733   1.760  1.12236E+00  8.57165E-01  2.65196E-01
    8999.741      4.275   1.800  1.14748E+00  8.67234E-01  2.80247E-01
    9000.295      4.830   1.840  1.11813E+00  8.76961E-01  2.41168E-01
    9000.862      5.397   1.880  1.07793E+00  8.86321E-01  1.91611E-01
    9001.441      5.976   1.920  1.04918E+00  8.95327E-01  1.53854E-01
    9002.033      6.567   1.960  1.02769E+00  9.03938E-01  1.23751E-01
    9002.636      7.171   2.000  1.02211E+00  9.12171E-01  1.09944E-01
    9003.252      7.787   2.040  1.04083E+00  9.20023E-01  1.20805E-01
    9003.880      8.414   2.080  1.06903E+00  9.27473E-01  1.41560E-01
    9004.520      9.055   2.120  1.10000E+00  9.34521E-01  1.65481E-01
    9005.172      9.707   2.160  1.13981E+00  9.41188E-01  1.98619E-01
    9005.837     10.371   2.200  1.17854E+00  9.47454E-01  2.31090E-01
    9006.513     11.048   2.240  1.20635E+00  9.53341E-01  2.53009E-01
    9007.202     11.737   2.280  1.22732E+00  9.58831E-01  2.68487E-01
    9007.903     12.438   2.320  1.23467E+00  9.63949E-01  2.70721E-01
    9008.616     13.151   2.360  1.21360E+00  9.68679E-01  2.44917E-01
    9009.342     13.876   2.400  1.17481E+00  9.73062E-01  2.01750E-01
    9010.079     14.614   2.440  1.14839E+00  9.77086E-01  1.71309E-01
    9010.829     15.364   2.480  1.15045E+00  9.80774E-01  1.69674E-01
    9011.591     16.126   2.520  1.18412E+00  9.84113E-01  2.00011E-01
    9012.365     16.900   2.560  1.22993E+00  9.87128E-01  2.42798E-01
    9013.152     17.686   2.600  1.24311E+00  9.89843E-01  2.53265E-01
    9013.950     18.485   2.640  1.18666E+00  9.92248E-01  1.94413E-01
    9014.761     19.296   2.680  1.08290E+00  9.94367E-01  8.85328E-02
    9015.584     20.119   2.720  9.94037E-01  9.96208E-01 -2.17071E-03
    9016.419     20.954   2.760  9.34868E-01  9.97799E-01 -6.29304E-02
    9017.266     21.801   2.800  8.96274E-01  9.99145E-01 -1.02871E-01
    9018.126     22.661   2.840  8.71855E-01  1.00027E+00 -1.28419E-01
    9018.998     23.532   2.880  8.58278E-01  1.00117E+00 -1.42897E-01
    9019.882     24.416   2.920  8.52839E-01  1.00187E+00 -1.49032E-01
    9020.778     25.313   2.960  8.53109E-01  1.00237E+00 -1.49258E-01
    9021.686     26.221   3.000  8.56911E-01  1.00269E+00 -1.45782E-01
    9022.607     27.141   3.040  8.61867E-01  1.00283E+00 -1.40968E-01
    9023.539     28.074   3.080  8.66393E-01  1.00284E+00 -1.36448E-01
    9024.484     29.019   3.120  8.69680E-01  1.00272E+00 -1.33037E-01
    9025.441     29.976   3.160  8.71803E-01  1.00247E+00 -1.30665E-01
    9026.410     30.945   3.200  8.73491E-01  1.00208E+00 -1.28590E-01
    9027.392     31.927   3.240  8.75957E-01  1.00162E+00 -1.25663E-01
    9028.386     32.920   3.280  8.80073E-01  1.00103E+00 -1.20957E-01
    9029.391     33.926   3.320  8.85979E-01  1.00038E+00 -1.14401E-01
    9030.409     34.944   3.360  8.93251E-01  9.99673E-01 -1.06423E-01
    9031.440     35.974   3.400  9.01249E-01  9.98874E-01 -9.76252E-02
    9032.482     37.017   3.440  9.09510E-01  9.98048E-01 -8.85374E-02
    9033.537     38.071   3.480  9.17679E-01  9.97158E-01 -7.94795E-02
    9034.603     39.138   3.520  9.25597E-01  9.96250E-01 -7.06536E-02
    9035.682     40.217   3.560  9.33085E-01  9.95307E-01 -6.22225E-02
    9036.774     41.308   3.600  9.39764E-01  9.94332E-01 -5.45681E-02
    9037.877     42.412   3.640  9.45314E-01  9.93349E-01 -4.80343E-02
    9038.993     43.527   3.680  9.49550E-01  9.92363E-01 -4.28138E-02
    9040.120     44.655   3.720  9.52601E-01  9.91398E-01 -3.87970E-02
    9041.260     45.795   3.760  9.54952E-01  9.90413E-01 -3.54602E-02
    9042.412     46.947   3.800  9.57489E-01  9.89430E-01 -3.19419E-02
    9043.577     48.111   3.840  9.61294E-01  9.88477E-01 -2.71834E-02
    9044.753     49.288   3.880  9.67443E-01  9.87554E-01 -2.01112E-02
    9045.942     50.477   3.920  9.76958E-01  9.86642E-01 -9.68447E-03
    9047.143     51.678   3.960  9.90434E-01  9.85764E-01  4.67006E-03
    9048.356     52.891   4.000  1.00760E+00  9.84922E-01  2.26770E-02
    9049.581     54.116   4.040  1.02725E+00  9.84116E-01  4.31341E-02
    9050.819     55.353   4.080  1.04702E+00  9.83348E-01  6.36721E-02
    9052.068     56.603   4.120  1.06359E+00  9.82597E-01  8.09888E-02
    9053.330     57.865   4.160  1.07395E+00  9.81907E-01  9.20379E-02
    9054.604     59.139   4.200  1.07655E+00  9.81259E-01  9.52953E-02
    9055.891     60.425   4.240  1.07204E+00  9.80651E-01  9.13884E-02
    9057.189     61.724   4.280  1.06294E+00  9.80086E-01  8.28501E-02
    9058.500     63.034   4.320  1.05278E+00  9.79584E-01  7.31950E-02
    9059.822     64.357   4.360  1.04454E+00  9.79104E-01  6.54355E-02
    9061.157     65.692   4.400  1.04005E+00  9.78687E-01  6.13635E-02
    9062.505     67.039   4.440  1.03958E+00  9.78313E-01  6.12664E-02
    9063.864     68.399   4.480  1.04199E+00  9.77983E-01  6.40080E-02
    9065.236     69.770   4.520  1.04503E+00  9.77716E-01  6.73106E-02
    9066.619     71.154   4.560  1.04583E+00  9.77471E-01  6.83572E-02
    9068.015     72.550   4.600  1.04228E+00  9.77288E-01  6.49894E-02
    9069.424     73.958   4.640  1.03412E+00  9.77147E-01  5.69758E-02
    9070.844     75.379   4.680  1.02330E+00  9.77047E-01  4.62537E-02
    9072.277     76.811   4.720  1.01261E+00  9.76987E-01  3.56276E-02
    9073.721     78.256   4.760  1.00407E+00  9.76966E-01  2.71064E-02
    9075.178     79.713   4.800  9.98044E-01  9.76984E-01  2.10600E-02
    9076.647     81.182   4.840  9.93372E-01  9.77039E-01  1.63336E-02
    9078.129     82.663   4.880  9.88203E-01  9.77130E-01  1.10733E-02
    9079.622     84.157   4.920  9.81047E-01  9.77237E-01  3.81004E-03
    9081.128     85.663   4.960  9.71501E-01  9.77400E-01 -5.89963E-03
    9082.646     87.181   5.000  9.60258E-01  9.77577E-01 -1.73190E-02
    9084.176     88.711   5.040  9.48875E-01  9.77783E-01 -2.89085E-02
    9085.718     90.253   5.080  9.39120E-01  9.78000E-01 -3.88806E-02
    9087.273     91.807   5.120  9.32486E-01  9.78247E-01 -4.57606E-02
    9088.839     93.374   5.160  9.29667E-01  9.78499E-01 -4.88318E-02
    9090.418     94.953   5.200  9.30545E-01  9.78757E-01 -4.82120E-02
    9092.009     96.544   5.240  9.34301E-01  9.79041E-01 -4.47404E-02
    9093.612     98.147   5.280  9.39732E-01  9.79331E-01 -3.95988E-02
    9095.228     99.763   5.320  9.45720E-01  9.79624E-01 -3.39044E-02
    9096.856    101.390   5.360  9.51488E-01  9.79939E-01 -2.84509E-02
    9098.495    103.030   5.400  9.56469E-01  9.80233E-01 -2.37642E-02
    9100.147    104.682   5.440  9.60206E-01  9.80527E-01 -2.03208E-02
    9101.812    106.346   5.480  9.62207E-01  9.80840E-01 -1.86325E-02
    9103.488    108.023   5.520  9.62103E-01  9.81125E-01 -1.90222E-02
    9105.177    109.711   5.560  9.60127E-01  9.81383E-01 -2.12565E-02
    9106.877    111.412   5.600  9.57107E-01  9.81658E-01 -2.45503E-02
    9108.590    113.125   5.640  9.53854E-01  9.81903E-01 -2.80495E-02
    9110.315    114.850   5.680  9.50759E-01  9.82119E-01 -3.13592E-02
    9112.053    116.588   5.720  9.47742E-01  9.82347E-01 -3.46042E-02
    9113.802    118.337   5.760  9.44639E-01  9.82522E-01 -3.78831E-02
    9115.564    120.099   5.800  9.41947E-01  9.82687E-01 -4.07398E-02
    9117.338    121.873   5.840  9.40740E-01  9.82840E-01 -4.20998E-02
    9119.124    123.659   5.880  9.42323E-01  9.82934E-01 -4.06117E-02
    9120.922    125.457   5.920  9.47721E-01  9.83016E-01 -3.52946E-02
    9122.733    127.268   5.960  9.56786E-01  9.83059E-01 -2.62734E-02
    9124.556    129.090   6.000  9.68104E-01  9.83078E-01 -1.49742E-02
