# # comment:                                                     FEFF 9.9.1  
# # Source:
# # Structure
# # Reduced
# # space
# # abc:
# # angles:107.580080
# # sites:
# # POT  SCF 100  7.0000   0, screened core-hole, AFOLP (folp(0)= 1.150)
# # Abs   Z=29 Rmt= 1.117 Rnm= 1.255 K  shell
# # Pot 1 Z=56 Rmt= 1.912 Rnm= 1.978
# # Pot 2 Z=38 Rmt= 1.788 Rnm= 1.856
# # Pot 3 Z=29 Rmt= 1.121 Rnm= 1.259
# # Pot 4 Z= 8 Rmt= 1.086 Rnm= 1.141
# # Gam_ch=1.729E+00 H-L exch Vi= 0.000E+00 Vr= 0.000E+00
# # Mu=-9.635E+00eV kf=1.997E+00 Vint=-1.658E+01eV Rs_int= 1.816
# FMS rfms= 9.0000
# # PATH  Rmax=-1.000,  Keep_limit= 0.00, Heap_limit 0.00  Pwcrit= 2.50%
#  S02=0.950  Temp=   0.00  Debye_temp=   0.00  Global_sig2= 0.00000
#  Energy zero shift, vr, vi    0.00000E+00   0.00000E+00
#  Curved wave amplitude ratio filter   4.000%
#     file         sig2 tot  cw amp ratio   deg  nlegs   reff  inp sig2
#     0/   0 paths used
#  xsedge+ 50, used to normalize mu           2.4615E-04
#  -----------------------------------------------------------------------
#  omega    e    k    mu    mu0     chi     @#
    8984.615    -13.445  -1.000  2.88829E-02  5.11070E-02 -2.22241E-02
    8984.914    -13.146  -0.960  3.00974E-02  5.46523E-02 -2.45549E-02
    8985.200    -12.860  -0.920  3.13942E-02  5.85747E-02 -2.71805E-02
    8985.474    -12.586  -0.880  3.27842E-02  6.29280E-02 -3.01438E-02
    8985.736    -12.323  -0.840  3.42805E-02  6.77747E-02 -3.34942E-02
    8985.986    -12.074  -0.800  3.58985E-02  7.31869E-02 -3.72884E-02
    8986.224    -11.836  -0.760  3.76564E-02  7.92472E-02 -4.15907E-02
    8986.450    -11.610  -0.720  3.95757E-02  8.60485E-02 -4.64729E-02
    8986.663    -11.397  -0.680  4.16801E-02  9.36931E-02 -5.20129E-02
    8986.864    -11.196  -0.640  4.39957E-02  1.02288E-01 -5.82925E-02
    8987.053    -11.007  -0.600  4.65477E-02  1.11939E-01 -6.53911E-02
    8987.230    -10.830  -0.560  4.93571E-02  1.22734E-01 -7.33766E-02
    8987.395    -10.665  -0.520  5.24336E-02  1.34725E-01 -8.22909E-02
    8987.547    -10.513  -0.480  5.57666E-02  1.47896E-01 -9.21298E-02
    8987.687    -10.373  -0.440  5.93144E-02  1.62135E-01 -1.02820E-01
    8987.815    -10.245  -0.400  6.29969E-02  1.77196E-01 -1.14199E-01
    8987.931    -10.129  -0.360  6.66962E-02  1.92700E-01 -1.26004E-01
    8988.035    -10.025  -0.320  7.02698E-02  2.08153E-01 -1.37883E-01
    8988.126     -9.934  -0.280  7.35755E-02  2.23003E-01 -1.49428E-01
    8988.205     -9.855  -0.240  7.64979E-02  2.36722E-01 -1.60224E-01
    8988.272     -9.788  -0.200  7.89651E-02  2.48859E-01 -1.69894E-01
    8988.327     -9.733  -0.160  8.09477E-02  2.59082E-01 -1.78135E-01
    8988.370     -9.690  -0.120  8.24436E-02  2.67176E-01 -1.84732E-01
    8988.400     -9.660  -0.080  8.34660E-02  2.73014E-01 -1.89548E-01
    8988.425     -9.635   0.000  8.42150E-02  2.77710E-01 -1.93495E-01
    8988.480     -9.580   0.120  8.64942E-02  2.88321E-01 -2.01827E-01
    8988.522     -9.538   0.160  8.81278E-02  2.96590E-01 -2.08462E-01
    8988.577     -9.483   0.200  9.00963E-02  3.07157E-01 -2.17061E-01
    8988.644     -9.416   0.240  9.23350E-02  3.19926E-01 -2.27591E-01
    8988.723     -9.336   0.280  9.47331E-02  3.34679E-01 -2.39946E-01
    8988.815     -9.245   0.320  9.71529E-02  3.51066E-01 -2.53914E-01
    8988.919     -9.141   0.360  9.95677E-02  3.68679E-01 -2.69111E-01
    8989.034     -9.026   0.400  1.02007E-01  3.87074E-01 -2.85067E-01
    8989.162     -8.898   0.440  1.04543E-01  4.05849E-01 -3.01306E-01
    8989.303     -8.757   0.480  1.07291E-01  4.24671E-01 -3.17379E-01
    8989.455     -8.605   0.520  1.10294E-01  4.43340E-01 -3.33046E-01
    8989.620     -8.440   0.560  1.13516E-01  4.61765E-01 -3.48249E-01
    8989.796     -8.264   0.600  1.16795E-01  4.79918E-01 -3.63123E-01
    8989.985     -8.075   0.640  1.19915E-01  4.97822E-01 -3.77907E-01
    8990.187     -7.873   0.680  1.22777E-01  5.15528E-01 -3.92751E-01
    8990.400     -7.660   0.720  1.25562E-01  5.33140E-01 -4.07577E-01
    8990.625     -7.435   0.760  1.28668E-01  5.50673E-01 -4.22005E-01
    8990.863     -7.197   0.800  1.32874E-01  5.68219E-01 -4.35344E-01
    8991.113     -6.947   0.840  1.38906E-01  5.85775E-01 -4.46869E-01
    8991.375     -6.685   0.880  1.47569E-01  6.03408E-01 -4.55839E-01
    8991.650     -6.410   0.920  1.59355E-01  6.21093E-01 -4.61738E-01
    8991.936     -6.124   0.960  1.74402E-01  6.38833E-01 -4.64431E-01
    8992.235     -5.825   1.000  1.92130E-01  6.56644E-01 -4.64514E-01
    8992.546     -5.514   1.040  2.11193E-01  6.74471E-01 -4.63278E-01
    8992.869     -5.191   1.080  2.30351E-01  6.92295E-01 -4.61944E-01
    8993.204     -4.856   1.120  2.49623E-01  7.10090E-01 -4.60467E-01
    8993.552     -4.508   1.160  2.70950E-01  7.27806E-01 -4.56856E-01
    8993.911     -4.149   1.200  2.96635E-01  7.45409E-01 -4.48774E-01
    8994.283     -3.777   1.240  3.26747E-01  7.62842E-01 -4.36096E-01
    8994.667     -3.393   1.280  3.59210E-01  7.80068E-01 -4.20858E-01
    8995.063     -2.997   1.320  3.92476E-01  7.97004E-01 -4.04528E-01
    8995.472     -2.588   1.360  4.26346E-01  8.13652E-01 -3.87306E-01
    8995.892     -2.168   1.400  4.59164E-01  8.29910E-01 -3.70747E-01
    8996.325     -1.735   1.440  4.88204E-01  8.45778E-01 -3.57575E-01
    8996.770     -1.290   1.480  5.13412E-01  8.61176E-01 -3.47764E-01
    8997.227     -0.833   1.520  5.39449E-01  8.76105E-01 -3.36656E-01
    8997.697     -0.363   1.560  5.73201E-01  8.90469E-01 -3.17268E-01
    8998.178      0.118   1.600  6.16630E-01  9.04293E-01 -2.87664E-01
    8998.672      0.612   1.640  6.67329E-01  9.17502E-01 -2.50173E-01
    8999.178      1.118   1.680  7.27700E-01  9.30103E-01 -2.02403E-01
    8999.696      1.636   1.720  7.96934E-01  9.42047E-01 -1.45113E-01
    9000.227      2.167   1.760  8.67447E-01  9.53328E-01 -8.58808E-02
    9000.769      2.709   1.800  9.43825E-01  9.63939E-01 -2.01144E-02
    9001.324      3.264   1.840  1.03479E+00  9.73880E-01  6.09075E-02
    9001.891      3.831   1.880  1.13118E+00  9.83126E-01  1.48052E-01
    9002.470      4.410   1.920  1.20814E+00  9.91699E-01  2.16443E-01
    9003.061      5.001   1.960  1.25087E+00  9.99583E-01  2.51287E-01
    9003.665      5.605   2.000  1.26485E+00  1.00680E+00  2.58053E-01
    9004.280      6.220   2.040  1.25679E+00  1.01336E+00  2.43425E-01
    9004.908      6.848   2.080  1.23517E+00  1.01927E+00  2.15899E-01
    9005.548      7.488   2.120  1.21255E+00  1.02456E+00  1.87992E-01
    9006.201      8.141   2.160  1.20045E+00  1.02923E+00  1.71215E-01
    9006.865      8.805   2.200  1.20444E+00  1.03333E+00  1.71110E-01
    9007.542      9.482   2.240  1.22607E+00  1.03688E+00  1.89192E-01
    9008.231     10.171   2.280  1.26363E+00  1.03987E+00  2.23761E-01
    9008.932     10.872   2.320  1.30795E+00  1.04236E+00  2.65596E-01
    9009.645     11.585   2.360  1.34447E+00  1.04436E+00  3.00111E-01
    9010.370     12.310   2.400  1.36389E+00  1.04591E+00  3.17984E-01
    9011.108     13.048   2.440  1.35840E+00  1.04704E+00  3.11361E-01
    9011.858     13.798   2.480  1.33862E+00  1.04774E+00  2.90876E-01
    9012.620     14.560   2.520  1.30938E+00  1.04809E+00  2.61290E-01
    9013.394     15.334   2.560  1.27380E+00  1.04808E+00  2.25713E-01
    9014.180     16.120   2.600  1.23540E+00  1.04777E+00  1.87626E-01
    9014.979     16.919   2.640  1.19758E+00  1.04715E+00  1.50425E-01
    9015.790     17.730   2.680  1.16327E+00  1.04627E+00  1.17000E-01
    9016.613     18.553   2.720  1.13446E+00  1.04515E+00  8.93054E-02
    9017.448     19.388   2.760  1.11104E+00  1.04382E+00  6.72266E-02
    9018.295     20.235   2.800  1.09215E+00  1.04228E+00  4.98713E-02
    9019.155     21.095   2.840  1.07711E+00  1.04055E+00  3.65615E-02
    9020.026     21.966   2.880  1.06548E+00  1.03869E+00  2.67909E-02
    9020.910     22.850   2.920  1.05628E+00  1.03670E+00  1.95801E-02
    9021.806     23.746   2.960  1.04803E+00  1.03461E+00  1.34169E-02
    9022.715     24.655   3.000  1.03907E+00  1.03242E+00  6.65226E-03
    9023.635     25.575   3.040  1.02776E+00  1.03014E+00 -2.38668E-03
    9024.568     26.508   3.080  1.01332E+00  1.02782E+00 -1.44926E-02
    9025.513     27.453   3.120  9.95990E-01  1.02545E+00 -2.94571E-02
    9026.470     28.410   3.160  9.76690E-01  1.02304E+00 -4.63517E-02
    9027.439     29.379   3.200  9.56605E-01  1.02063E+00 -6.40226E-02
    9028.420     30.361   3.240  9.36949E-01  1.01821E+00 -8.12618E-02
    9029.414     31.354   3.280  9.18343E-01  1.01580E+00 -9.74557E-02
    9030.420     32.360   3.320  9.01104E-01  1.01341E+00 -1.12310E-01
    9031.438     33.378   3.360  8.85637E-01  1.01104E+00 -1.25406E-01
    9032.468     34.408   3.400  8.72406E-01  1.00873E+00 -1.36328E-01
    9033.511     35.451   3.440  8.61679E-01  1.00645E+00 -1.44770E-01
    9034.565     36.505   3.480  8.53777E-01  1.00422E+00 -1.50445E-01
    9035.632     37.572   3.520  8.49051E-01  1.00208E+00 -1.53026E-01
    9036.711     38.651   3.560  8.47452E-01  9.99982E-01 -1.52529E-01
    9037.802     39.742   3.600  8.48980E-01  9.97982E-01 -1.49002E-01
    9038.906     40.846   3.640  8.53554E-01  9.96048E-01 -1.42495E-01
    9040.021     41.961   3.680  8.61078E-01  9.94188E-01 -1.33111E-01
    9041.149     43.089   3.720  8.71217E-01  9.92434E-01 -1.21217E-01
    9042.289     44.229   3.760  8.83513E-01  9.90746E-01 -1.07233E-01
    9043.441     45.381   3.800  8.97334E-01  9.89186E-01 -9.18526E-02
    9044.605     46.545   3.840  9.11596E-01  9.87695E-01 -7.60994E-02
    9045.782     47.722   3.880  9.25237E-01  9.86314E-01 -6.10766E-02
    9046.971     48.911   3.920  9.37498E-01  9.85044E-01 -4.75457E-02
    9048.171     50.111   3.960  9.48083E-01  9.83865E-01 -3.57824E-02
    9049.385     51.325   4.000  9.57254E-01  9.82798E-01 -2.55440E-02
    9050.610     52.550   4.040  9.65605E-01  9.81822E-01 -1.62165E-02
    9051.847     53.787   4.080  9.73696E-01  9.80956E-01 -7.26047E-03
    9053.097     55.037   4.120  9.81673E-01  9.80183E-01  1.48999E-03
    9054.359     56.299   4.160  9.89320E-01  9.79520E-01  9.80005E-03
    9055.633     57.573   4.200  9.96197E-01  9.78949E-01  1.72486E-02
    9056.919     58.859   4.240  1.00195E+00  9.78490E-01  2.34560E-02
    9058.218     60.158   4.280  1.00651E+00  9.78142E-01  2.83654E-02
    9059.528     61.468   4.320  1.01014E+00  9.77882E-01  3.22614E-02
    9060.851     62.791   4.360  1.01332E+00  9.77708E-01  3.56122E-02
    9062.186     64.126   4.400  1.01650E+00  9.77619E-01  3.88772E-02
    9063.533     65.473   4.440  1.02003E+00  9.77636E-01  4.23905E-02
    9064.893     66.833   4.480  1.02404E+00  9.77736E-01  4.63073E-02
    9066.264     68.204   4.520  1.02846E+00  9.77896E-01  5.05627E-02
    9067.648     69.588   4.560  1.03316E+00  9.78158E-01  5.49990E-02
    9069.044     70.984   4.600  1.03779E+00  9.78502E-01  5.92899E-02
    9070.452     72.392   4.640  1.04200E+00  9.78921E-01  6.30798E-02
    9071.873     73.813   4.680  1.04554E+00  9.79394E-01  6.61500E-02
    9073.305     75.245   4.720  1.04843E+00  9.79938E-01  6.84877E-02
    9074.750     76.690   4.760  1.05073E+00  9.80533E-01  7.02014E-02
    9076.207     78.147   4.800  1.05264E+00  9.81197E-01  7.14437E-02
    9077.676     79.616   4.840  1.05413E+00  9.81908E-01  7.22232E-02
    9079.157     81.097   4.880  1.05490E+00  9.82684E-01  7.22200E-02
    9080.651     82.591   4.920  1.05429E+00  9.83482E-01  7.08114E-02
    9082.156     84.097   4.960  1.05167E+00  9.84339E-01  6.73351E-02
    9083.674     85.614   5.000  1.04673E+00  9.85211E-01  6.15165E-02
    9085.204     87.145   5.040  1.03988E+00  9.86116E-01  5.37600E-02
    9086.747     88.687   5.080  1.03204E+00  9.87030E-01  4.50064E-02
    9088.301     90.241   5.120  1.02443E+00  9.87974E-01  3.64592E-02
    9089.868     91.808   5.160  1.01806E+00  9.88926E-01  2.91377E-02
    9091.447     93.387   5.200  1.01337E+00  9.89902E-01  2.34667E-02
    9093.038     94.978   5.240  1.00992E+00  9.90857E-01  1.90653E-02
    9094.641     96.581   5.280  1.00677E+00  9.91832E-01  1.49341E-02
    9096.256     98.197   5.320  1.00279E+00  9.92782E-01  1.00078E-02
    9097.884     99.824   5.360  9.97395E-01  9.93724E-01  3.67092E-03
    9099.524    101.464   5.400  9.90671E-01  9.94639E-01 -3.96743E-03
    9101.176    103.116   5.440  9.83377E-01  9.95566E-01 -1.21885E-02
    9102.840    104.780   5.480  9.76383E-01  9.96437E-01 -2.00538E-02
    9104.517    106.457   5.520  9.70524E-01  9.97292E-01 -2.67680E-02
    9106.205    108.145   5.560  9.66261E-01  9.98109E-01 -3.18479E-02
    9107.906    109.846   5.600  9.63692E-01  9.98862E-01 -3.51694E-02
    9109.619    111.559   5.640  9.62462E-01  9.99597E-01 -3.71341E-02
    9111.344    113.284   5.680  9.61623E-01  1.00029E+00 -3.86684E-02
    9113.081    115.021   5.720  9.60176E-01  1.00094E+00 -4.07640E-02
    9114.831    116.771   5.760  9.57634E-01  1.00152E+00 -4.38856E-02
    9116.593    118.533   5.800  9.54346E-01  1.00205E+00 -4.77046E-02
    9118.367    120.307   5.840  9.51165E-01  1.00251E+00 -5.13422E-02
    9120.153    122.093   5.880  9.49010E-01  1.00291E+00 -5.39043E-02
    9121.951    123.891   5.920  9.48404E-01  1.00327E+00 -5.48645E-02
    9123.762    125.702   5.960  9.49424E-01  1.00353E+00 -5.41085E-02
    9125.584    127.524   6.000  9.52114E-01  1.00368E+00 -5.15619E-02
