# # comment:                                                     FEFF 9.9.1  
# # Source:
# # Structure
# # Reduced
# # space
# # abc:
# # angles:
# # sites:
# # POT  SCF 100  7.0000   0, screened core-hole, AFOLP (folp(0)= 1.150)
# # Abs   Z=29 Rmt= 1.185 Rnm= 1.245 K  shell
# # Pot 1 Z= 3 Rmt= 1.232 Rnm= 1.286
# # Pot 2 Z=27 Rmt= 1.205 Rnm= 1.309
# # Pot 3 Z=29 Rmt= 1.185 Rnm= 1.245
# # Pot 4 Z= 8 Rmt= 0.995 Rnm= 1.083
# # Gam_ch=1.729E+00 H-L exch Vi= 0.000E+00 Vr= 0.000E+00
# # Mu=-1.062E+01eV kf=2.218E+00 Vint=-1.837E+01eV Rs_int= 1.635
# FMS rfms= 9.0000
# # PATH  Rmax=-1.000,  Keep_limit= 0.00, Heap_limit 0.00  Pwcrit= 2.50%
#  S02=0.950  Temp=   0.00  Debye_temp=   0.00  Global_sig2= 0.00000
#  Energy zero shift, vr, vi    0.00000E+00   0.00000E+00
#  Curved wave amplitude ratio filter   4.000%
#     file         sig2 tot  cw amp ratio   deg  nlegs   reff  inp sig2
#     0/   0 paths used
#  xsedge+ 50, used to normalize mu           2.4584E-04
#  -----------------------------------------------------------------------
#  omega    e    k    mu    mu0     chi     @#
    8985.050    -14.432  -1.000  2.71064E-02  5.10776E-02 -2.39712E-02
    8985.349    -14.133  -0.960  2.81062E-02  5.46927E-02 -2.65865E-02
    8985.635    -13.847  -0.920  2.91548E-02  5.87010E-02 -2.95463E-02
    8985.910    -13.572  -0.880  3.02568E-02  6.31596E-02 -3.29027E-02
    8986.172    -13.310  -0.840  3.14178E-02  6.81346E-02 -3.67168E-02
    8986.422    -13.060  -0.800  3.26441E-02  7.37028E-02 -4.10587E-02
    8986.660    -12.823  -0.760  3.39430E-02  7.99522E-02 -4.60092E-02
    8986.885    -12.597  -0.720  3.53227E-02  8.69818E-02 -5.16592E-02
    8987.098    -12.384  -0.680  3.67921E-02  9.49008E-02 -5.81087E-02
    8987.300    -12.182  -0.640  3.83607E-02  1.03824E-01 -6.54634E-02
    8987.489    -11.993  -0.600  4.00371E-02  1.13864E-01 -7.38270E-02
    8987.665    -11.817  -0.560  4.18285E-02  1.25117E-01 -8.32882E-02
    8987.830    -11.652  -0.520  4.37379E-02  1.37638E-01 -9.39001E-02
    8987.982    -11.500  -0.480  4.57619E-02  1.51414E-01 -1.05652E-01
    8988.123    -11.360  -0.440  4.78870E-02  1.66324E-01 -1.18437E-01
    8988.251    -11.231  -0.400  5.00871E-02  1.82111E-01 -1.32024E-01
    8988.366    -11.116  -0.360  5.23219E-02  1.98372E-01 -1.46050E-01
    8988.470    -11.012  -0.320  5.45387E-02  2.14583E-01 -1.60044E-01
    8988.561    -10.921  -0.280  5.66763E-02  2.30162E-01 -1.73485E-01
    8988.641    -10.841  -0.240  5.86719E-02  2.44547E-01 -1.85875E-01
    8988.708    -10.774  -0.200  6.04669E-02  2.57266E-01 -1.96799E-01
    8988.763    -10.719  -0.160  6.20107E-02  2.67973E-01 -2.05963E-01
    8988.805    -10.677  -0.120  6.32635E-02  2.76443E-01 -2.13180E-01
    8988.836    -10.646  -0.080  6.41965E-02  2.82549E-01 -2.18352E-01
    8988.860    -10.622   0.000  6.50028E-02  2.87457E-01 -2.22454E-01
    8988.915    -10.567   0.120  6.68149E-02  2.98528E-01 -2.31713E-01
    8988.958    -10.524   0.160  6.81701E-02  3.07143E-01 -2.38973E-01
    8989.013    -10.469   0.200  6.98929E-02  3.18162E-01 -2.48269E-01
    8989.080    -10.402   0.240  7.19763E-02  3.31429E-01 -2.59453E-01
    8989.159    -10.323   0.280  7.44062E-02  3.46717E-01 -2.72311E-01
    8989.250    -10.232   0.320  7.71733E-02  3.63662E-01 -2.86489E-01
    8989.354    -10.128   0.360  8.01813E-02  3.81770E-01 -3.01588E-01
    8989.470    -10.012   0.400  8.33179E-02  4.00575E-01 -3.17257E-01
    8989.598     -9.884   0.440  8.64174E-02  4.19634E-01 -3.33216E-01
    8989.738     -9.744   0.480  8.92857E-02  4.38582E-01 -3.49296E-01
    8989.890     -9.592   0.520  9.16825E-02  4.57181E-01 -3.65499E-01
    8990.055     -9.427   0.560  9.34835E-02  4.75329E-01 -3.81846E-01
    8990.232     -9.250   0.600  9.47001E-02  4.92995E-01 -3.98295E-01
    8990.421     -9.061   0.640  9.56298E-02  5.10229E-01 -4.14599E-01
    8990.622     -8.860   0.680  9.66732E-02  5.27109E-01 -4.30436E-01
    8990.835     -8.647   0.720  9.82270E-02  5.43664E-01 -4.45437E-01
    8991.061     -8.421   0.760  1.00726E-01  5.60001E-01 -4.59276E-01
    8991.299     -8.184   0.800  1.04457E-01  5.76181E-01 -4.71724E-01
    8991.548     -7.934   0.840  1.09568E-01  5.92229E-01 -4.82662E-01
    8991.811     -7.671   0.880  1.16080E-01  6.08183E-01 -4.92103E-01
    8992.085     -7.397   0.920  1.23693E-01  6.24084E-01 -5.00390E-01
    8992.371     -7.111   0.960  1.31733E-01  6.39924E-01 -5.08191E-01
    8992.670     -6.812   1.000  1.39991E-01  6.55726E-01 -5.15735E-01
    8992.981     -6.501   1.040  1.48951E-01  6.71446E-01 -5.22495E-01
    8993.304     -6.178   1.080  1.59217E-01  6.87090E-01 -5.27873E-01
    8993.639     -5.843   1.120  1.70738E-01  7.02620E-01 -5.31883E-01
    8993.987     -5.495   1.160  1.84363E-01  7.18036E-01 -5.33674E-01
    8994.347     -5.136   1.200  2.02823E-01  7.33272E-01 -5.30449E-01
    8994.718     -4.764   1.240  2.29612E-01  7.48337E-01 -5.18726E-01
    8995.102     -4.380   1.280  2.65894E-01  7.63163E-01 -4.97269E-01
    8995.499     -3.983   1.320  3.07047E-01  7.77718E-01 -4.70671E-01
    8995.907     -3.575   1.360  3.43721E-01  7.91989E-01 -4.48268E-01
    8996.328     -3.154   1.400  3.72308E-01  8.05923E-01 -4.33614E-01
    8996.761     -2.722   1.440  4.04684E-01  8.19508E-01 -4.14824E-01
    8997.206     -2.277   1.480  4.53078E-01  8.32691E-01 -3.79613E-01
    8997.663     -1.819   1.520  5.12347E-01  8.45441E-01 -3.33093E-01
    8998.132     -1.350   1.560  5.70872E-01  8.57767E-01 -2.86894E-01
    8998.614     -0.868   1.600  6.28764E-01  8.69598E-01 -2.40834E-01
    8999.108     -0.375   1.640  6.92971E-01  8.80969E-01 -1.87999E-01
    8999.613      0.131   1.680  7.72333E-01  8.91811E-01 -1.19478E-01
    9000.132      0.650   1.720  8.75716E-01  9.02160E-01 -2.64437E-02
    9000.662      1.180   1.760  1.01014E+00  9.11971E-01  9.81701E-02
    9001.205      1.722   1.800  1.16384E+00  9.21242E-01  2.42593E-01
    9001.759      2.277   1.840  1.31355E+00  9.29975E-01  3.83574E-01
    9002.326      2.844   1.880  1.42787E+00  9.38188E-01  4.89686E-01
    9002.905      3.423   1.920  1.45485E+00  9.45862E-01  5.08986E-01
    9003.497      4.015   1.960  1.40960E+00  9.53003E-01  4.56592E-01
    9004.100      4.618   2.000  1.38274E+00  9.59637E-01  4.23103E-01
    9004.716      5.234   2.040  1.42780E+00  9.65746E-01  4.62058E-01
    9005.344      5.862   2.080  1.54420E+00  9.71378E-01  5.72823E-01
    9005.984      6.502   2.120  1.70083E+00  9.76523E-01  7.24309E-01
    9006.636      7.154   2.160  1.83557E+00  9.81185E-01  8.54384E-01
    9007.300      7.818   2.200  1.85735E+00  9.85416E-01  8.71935E-01
    9007.977      8.495   2.240  1.71621E+00  9.89226E-01  7.26988E-01
    9008.666      9.184   2.280  1.49658E+00  9.92603E-01  5.03976E-01
    9009.367      9.885   2.320  1.30496E+00  9.95599E-01  3.09362E-01
    9010.080     10.598   2.360  1.15854E+00  9.98222E-01  1.60318E-01
    9010.806     11.324   2.400  1.04917E+00  1.00049E+00  4.86863E-02
    9011.543     12.061   2.440  9.85434E-01  1.00244E+00 -1.70066E-02
    9012.293     12.811   2.480  9.72998E-01  1.00408E+00 -3.10772E-02
    9013.055     13.573   2.520  9.90774E-01  1.00542E+00 -1.46484E-02
    9013.829     14.347   2.560  9.97145E-01  1.00651E+00 -9.36717E-03
    9014.616     15.134   2.600  9.74567E-01  1.00733E+00 -3.27664E-02
    9015.414     15.932   2.640  9.50803E-01  1.00794E+00 -5.71360E-02
    9016.225     16.743   2.680  9.44350E-01  1.00836E+00 -6.40095E-02
    9017.048     17.566   2.720  9.48104E-01  1.00856E+00 -6.04565E-02
    9017.883     18.401   2.760  9.54302E-01  1.00862E+00 -5.43132E-02
    9018.730     19.248   2.800  9.59651E-01  1.00851E+00 -4.88600E-02
    9019.590     20.108   2.840  9.63283E-01  1.00828E+00 -4.49930E-02
    9020.462     20.980   2.880  9.65212E-01  1.00790E+00 -4.26859E-02
    9021.346     21.864   2.920  9.65753E-01  1.00745E+00 -4.16931E-02
    9022.242     22.760   2.960  9.64382E-01  1.00689E+00 -4.25031E-02
    9023.150     23.668   3.000  9.59568E-01  1.00624E+00 -4.66761E-02
    9024.071     24.588   3.040  9.48839E-01  1.00555E+00 -5.67102E-02
    9025.003     25.521   3.080  9.30825E-01  1.00479E+00 -7.39633E-02
    9025.948     26.466   3.120  9.07270E-01  1.00401E+00 -9.67352E-02
    9026.905     27.423   3.160  8.82062E-01  1.00319E+00 -1.21124E-01
    9027.874     28.392   3.200  8.58517E-01  1.00233E+00 -1.43817E-01
    9028.856     29.374   3.240  8.38687E-01  1.00150E+00 -1.62811E-01
    9029.850     30.367   3.280  8.22950E-01  1.00064E+00 -1.77689E-01
    9030.855     31.373   3.320  8.11373E-01  9.99781E-01 -1.88408E-01
    9031.873     32.391   3.360  8.04087E-01  9.98951E-01 -1.94865E-01
    9032.904     33.422   3.400  8.00893E-01  9.98150E-01 -1.97257E-01
    9033.946     34.464   3.440  8.01431E-01  9.97360E-01 -1.95929E-01
    9035.001     35.519   3.480  8.05394E-01  9.96604E-01 -1.91211E-01
    9036.067     36.585   3.520  8.12484E-01  9.95864E-01 -1.83380E-01
    9037.146     37.664   3.560  8.22147E-01  9.95184E-01 -1.73036E-01
    9038.238     38.755   3.600  8.34276E-01  9.94545E-01 -1.60269E-01
    9039.341     39.859   3.640  8.48931E-01  9.93949E-01 -1.45018E-01
    9040.456     40.974   3.680  8.66158E-01  9.93398E-01 -1.27239E-01
    9041.584     42.102   3.720  8.85914E-01  9.92912E-01 -1.06998E-01
    9042.724     43.242   3.760  9.07866E-01  9.92471E-01 -8.46058E-02
    9043.876     44.394   3.800  9.31361E-01  9.92076E-01 -6.07151E-02
    9045.041     45.559   3.840  9.55663E-01  9.91727E-01 -3.60634E-02
    9046.217     46.735   3.880  9.80362E-01  9.91447E-01 -1.10853E-02
    9047.406     47.924   3.920  1.00513E+00  9.91237E-01  1.38974E-02
    9048.607     49.125   3.960  1.02972E+00  9.91074E-01  3.86432E-02
    9049.820     50.338   4.000  1.05415E+00  9.90956E-01  6.31947E-02
    9051.045     51.563   4.040  1.07868E+00  9.90885E-01  8.77999E-02
    9052.283     52.801   4.080  1.10342E+00  9.90882E-01  1.12542E-01
    9053.532     54.050   4.120  1.12786E+00  9.90946E-01  1.36910E-01
    9054.794     55.312   4.160  1.15051E+00  9.91033E-01  1.59480E-01
    9056.068     56.586   4.200  1.16922E+00  9.91185E-01  1.78039E-01
    9057.355     57.872   4.240  1.18152E+00  9.91379E-01  1.90141E-01
    9058.653     59.171   4.280  1.18580E+00  9.91593E-01  1.94204E-01
    9059.964     60.482   4.320  1.18171E+00  9.91890E-01  1.89822E-01
    9061.286     61.804   4.360  1.17020E+00  9.92184E-01  1.78011E-01
    9062.621     63.139   4.400  1.15352E+00  9.92537E-01  1.60979E-01
    9063.969     64.487   4.440  1.13435E+00  9.92928E-01  1.41422E-01
    9065.328     65.846   4.480  1.11489E+00  9.93356E-01  1.21539E-01
    9066.700     67.218   4.520  1.09626E+00  9.93795E-01  1.02465E-01
    9068.083     68.601   4.560  1.07862E+00  9.94265E-01  8.43547E-02
    9069.479     69.997   4.600  1.06148E+00  9.94744E-01  6.67321E-02
    9070.888     71.406   4.640  1.04413E+00  9.95251E-01  4.88740E-02
    9072.308     72.826   4.680  1.02590E+00  9.95765E-01  3.01372E-02
    9073.741     74.258   4.720  1.00662E+00  9.96282E-01  1.03399E-02
    9075.185     75.703   4.760  9.86920E-01  9.96824E-01 -9.90340E-03
    9076.642     77.160   4.800  9.67980E-01  9.97344E-01 -2.93638E-02
    9078.111     78.629   4.840  9.51109E-01  9.97887E-01 -4.67783E-02
    9079.593     80.111   4.880  9.37237E-01  9.98429E-01 -6.11920E-02
    9081.086     81.604   4.920  9.26872E-01  9.98943E-01 -7.20716E-02
    9082.592     83.110   4.960  9.20261E-01  9.99453E-01 -7.91919E-02
    9084.110     84.628   5.000  9.17440E-01  9.99958E-01 -8.25178E-02
    9085.640     86.158   5.040  9.18210E-01  1.00046E+00 -8.22459E-02
    9087.182     87.700   5.080  9.22101E-01  1.00092E+00 -7.88220E-02
    9088.737     89.255   5.120  9.28476E-01  1.00138E+00 -7.29027E-02
    9090.303     90.821   5.160  9.36584E-01  1.00180E+00 -6.52168E-02
    9091.882     92.400   5.200  9.45707E-01  1.00219E+00 -5.64814E-02
    9093.473     93.991   5.240  9.55066E-01  1.00256E+00 -4.74957E-02
    9095.076     95.594   5.280  9.63821E-01  1.00290E+00 -3.90762E-02
    9096.692     97.210   5.320  9.71412E-01  1.00320E+00 -3.17836E-02
    9098.319     98.837   5.360  9.77748E-01  1.00345E+00 -2.57043E-02
    9099.959    100.477   5.400  9.83237E-01  1.00367E+00 -2.04329E-02
    9101.611    102.129   5.440  9.88684E-01  1.00385E+00 -1.51650E-02
    9103.276    103.793   5.480  9.94913E-01  1.00401E+00 -9.09782E-03
    9104.952    105.470   5.520  1.00236E+00  1.00411E+00 -1.75062E-03
    9106.640    107.158   5.560  1.01106E+00  1.00419E+00  6.86862E-03
    9108.341    108.859   5.600  1.02040E+00  1.00421E+00  1.61910E-02
    9110.054    110.572   5.640  1.02919E+00  1.00418E+00  2.50099E-02
    9111.779    112.297   5.680  1.03573E+00  1.00414E+00  3.15898E-02
    9113.517    114.035   5.720  1.03795E+00  1.00403E+00  3.39136E-02
    9115.266    115.784   5.760  1.03416E+00  1.00389E+00  3.02767E-02
    9117.028    117.546   5.800  1.02384E+00  1.00370E+00  2.01464E-02
    9118.802    119.320   5.840  1.00820E+00  1.00350E+00  4.70104E-03
    9120.588    121.106   5.880  9.89519E-01  1.00323E+00 -1.37131E-02
    9122.386    122.904   5.920  9.70543E-01  1.00293E+00 -3.23866E-02
    9124.197    124.715   5.960  9.53896E-01  1.00259E+00 -4.86932E-02
    9126.020    126.538   6.000  9.41601E-01  1.00221E+00 -6.06131E-02
