# # comment:                                                     FEFF 9.9.1  
# # Source:
# # Structure
# # Reduced
# # space
# # abc:
# # angles:
# # sites:
# # POT  SCF 100  7.0000   0, screened core-hole, AFOLP (folp(0)= 1.150)
# # Abs   Z=29 Rmt= 1.280 Rnm= 1.331 K  shell
# # Pot 1 Z=29 Rmt= 1.280 Rnm= 1.331
# # Pot 2 Z=28 Rmt= 1.351 Rnm= 1.418
# # Pot 3 Z= 8 Rmt= 1.052 Rnm= 1.099
# # Gam_ch=1.729E+00 H-L exch Vi= 0.000E+00 Vr= 0.000E+00
# # Mu=-1.069E+01eV kf=2.122E+00 Vint=-1.836E+01eV Rs_int= 1.709
# FMS rfms= 9.0000
# # PATH  Rmax=-1.000,  Keep_limit= 0.00, Heap_limit 0.00  Pwcrit= 2.50%
#  S02=0.950  Temp=   0.00  Debye_temp=   0.00  Global_sig2= 0.00000
#  Energy zero shift, vr, vi    0.00000E+00   0.00000E+00
#  Curved wave amplitude ratio filter   4.000%
#     file         sig2 tot  cw amp ratio   deg  nlegs   reff  inp sig2
#     0/   0 paths used
#  xsedge+ 50, used to normalize mu           2.4726E-04
#  -----------------------------------------------------------------------
#  omega    e    k    mu    mu0     chi     @#
    8984.816    -14.503  -1.000  3.32488E-02  5.14351E-02 -1.81863E-02
    8985.115    -14.204  -0.960  3.47075E-02  5.50735E-02 -2.03660E-02
    8985.401    -13.917  -0.920  3.62583E-02  5.91068E-02 -2.28485E-02
    8985.676    -13.643  -0.880  3.79125E-02  6.35924E-02 -2.56800E-02
    8985.938    -13.381  -0.840  3.96831E-02  6.85967E-02 -2.89136E-02
    8986.188    -13.131  -0.800  4.15860E-02  7.41967E-02 -3.26107E-02
    8986.426    -12.893  -0.760  4.36398E-02  8.04803E-02 -3.68405E-02
    8986.651    -12.668  -0.720  4.58662E-02  8.75471E-02 -4.16810E-02
    8986.864    -12.454  -0.680  4.82897E-02  9.55064E-02 -4.72167E-02
    8987.066    -12.253  -0.640  5.09367E-02  1.04473E-01 -5.35365E-02
    8987.255    -12.064  -0.600  5.38336E-02  1.14560E-01 -6.07268E-02
    8987.431    -11.887  -0.560  5.70023E-02  1.25864E-01 -6.88614E-02
    8987.596    -11.723  -0.520  6.04542E-02  1.38439E-01 -7.79853E-02
    8987.748    -11.570  -0.480  6.41811E-02  1.52273E-01 -8.80922E-02
    8987.889    -11.430  -0.440  6.81449E-02  1.67244E-01 -9.90993E-02
    8988.017    -11.302  -0.400  7.22701E-02  1.83094E-01 -1.10824E-01
    8988.132    -11.186  -0.360  7.64425E-02  1.99419E-01 -1.22977E-01
    8988.236    -11.083  -0.320  8.05209E-02  2.15694E-01 -1.35173E-01
    8988.327    -10.991  -0.280  8.43573E-02  2.31334E-01 -1.46976E-01
    8988.407    -10.912  -0.240  8.78213E-02  2.45776E-01 -1.57955E-01
    8988.474    -10.845  -0.200  9.08168E-02  2.58547E-01 -1.67730E-01
    8988.529    -10.790  -0.160  9.32865E-02  2.69298E-01 -1.76011E-01
    8988.571    -10.748  -0.120  9.52049E-02  2.77803E-01 -1.82598E-01
    8988.602    -10.717  -0.080  9.65666E-02  2.83934E-01 -1.87367E-01
    8988.626    -10.693   0.000  9.76421E-02  2.88863E-01 -1.91221E-01
    8988.681    -10.638   0.120  1.00114E-01  2.99997E-01 -1.99884E-01
    8988.724    -10.595   0.160  1.01962E-01  3.08637E-01 -2.06676E-01
    8988.779    -10.540   0.200  1.04263E-01  3.19703E-01 -2.15440E-01
    8988.846    -10.473   0.240  1.06942E-01  3.33060E-01 -2.26118E-01
    8988.925    -10.394   0.280  1.09848E-01  3.48422E-01 -2.38574E-01
    8989.016    -10.303   0.320  1.12815E-01  3.65447E-01 -2.52632E-01
    8989.120    -10.199   0.360  1.15628E-01  3.83680E-01 -2.68052E-01
    8989.236    -10.083   0.400  1.18042E-01  4.02618E-01 -2.84576E-01
    8989.364     -9.955   0.440  1.19801E-01  4.21795E-01 -3.01994E-01
    8989.504     -9.815   0.480  1.20845E-01  4.40910E-01 -3.20065E-01
    8989.656     -9.662   0.520  1.21220E-01  4.59682E-01 -3.38461E-01
    8989.821     -9.498   0.560  1.21300E-01  4.78031E-01 -3.56731E-01
    8989.998     -9.321   0.600  1.21566E-01  4.95926E-01 -3.74360E-01
    8990.187     -9.132   0.640  1.22525E-01  5.13375E-01 -3.90850E-01
    8990.388     -8.931   0.680  1.24683E-01  5.30497E-01 -4.05815E-01
    8990.601     -8.718   0.720  1.28349E-01  5.47322E-01 -4.18973E-01
    8990.827     -8.492   0.760  1.33842E-01  5.63936E-01 -4.30094E-01
    8991.065     -8.254   0.800  1.41472E-01  5.80398E-01 -4.38926E-01
    8991.314     -8.004   0.840  1.51492E-01  5.96736E-01 -4.45244E-01
    8991.577     -7.742   0.880  1.64225E-01  6.13023E-01 -4.48798E-01
    8991.851     -7.468   0.920  1.79850E-01  6.29242E-01 -4.49392E-01
    8992.137     -7.181   0.960  1.98927E-01  6.45425E-01 -4.46497E-01
    8992.436     -6.883   1.000  2.22951E-01  6.61552E-01 -4.38601E-01
    8992.747     -6.572   1.040  2.54602E-01  6.77619E-01 -4.23017E-01
    8993.070     -6.249   1.080  2.96771E-01  6.93591E-01 -3.96819E-01
    8993.405     -5.913   1.120  3.49521E-01  7.09470E-01 -3.59949E-01
    8993.753     -5.566   1.160  4.05284E-01  7.25234E-01 -3.19951E-01
    8994.113     -5.206   1.200  4.49836E-01  7.40815E-01 -2.90979E-01
    8994.484     -4.834   1.240  4.78083E-01  7.56205E-01 -2.78122E-01
    8994.868     -4.450   1.280  5.01729E-01  7.71351E-01 -2.69622E-01
    8995.265     -4.054   1.320  5.29884E-01  7.86220E-01 -2.56335E-01
    8995.673     -3.646   1.360  5.57332E-01  8.00800E-01 -2.43469E-01
    8996.094     -3.225   1.400  5.83856E-01  8.15018E-01 -2.31163E-01
    8996.527     -2.792   1.440  6.23783E-01  8.28859E-01 -2.05076E-01
    8996.972     -2.347   1.480  6.93253E-01  8.42289E-01 -1.49036E-01
    8997.429     -1.890   1.520  8.11612E-01  8.55297E-01 -4.36855E-02
    8997.898     -1.421   1.560  9.88599E-01  8.67812E-01  1.20787E-01
    8998.380     -0.939   1.600  1.17112E+00  8.79844E-01  2.91273E-01
    8998.873     -0.445   1.640  1.27723E+00  8.91365E-01  3.85866E-01
    8999.379      0.061   1.680  1.30829E+00  9.02365E-01  4.05921E-01
    8999.898      0.579   1.720  1.30180E+00  9.12822E-01  3.88983E-01
    9000.428      1.109   1.760  1.32304E+00  9.22730E-01  4.00309E-01
    9000.971      1.652   1.800  1.44033E+00  9.32068E-01  5.08266E-01
    9001.525      2.206   1.840  1.68524E+00  9.40853E-01  7.44392E-01
    9002.092      2.773   1.880  2.01837E+00  9.49068E-01  1.06930E+00
    9002.671      3.352   1.920  2.21145E+00  9.56734E-01  1.25472E+00
    9003.263      3.944   1.960  2.03544E+00  9.63836E-01  1.07161E+00
    9003.866      4.547   2.000  1.70524E+00  9.70420E-01  7.34822E-01
    9004.482      5.163   2.040  1.43813E+00  9.76450E-01  4.61676E-01
    9005.110      5.791   2.080  1.23461E+00  9.81973E-01  2.52636E-01
    9005.750      6.431   2.120  1.08105E+00  9.86999E-01  9.40477E-02
    9006.402      7.083   2.160  9.78777E-01  9.91535E-01 -1.27584E-02
    9007.066      7.748   2.200  9.17193E-01  9.95590E-01 -7.83972E-02
    9007.743      8.424   2.240  8.77533E-01  9.99217E-01 -1.21685E-01
    9008.432      9.113   2.280  8.45516E-01  1.00241E+00 -1.56889E-01
    9009.133      9.814   2.320  8.20402E-01  1.00518E+00 -1.84782E-01
    9009.846     10.527   2.360  8.06334E-01  1.00759E+00 -2.01252E-01
    9010.572     11.253   2.400  8.00907E-01  1.00962E+00 -2.08717E-01
    9011.309     11.990   2.440  7.99878E-01  1.01133E+00 -2.11449E-01
    9012.059     12.740   2.480  8.06309E-01  1.01271E+00 -2.06397E-01
    9012.821     13.502   2.520  8.32517E-01  1.01380E+00 -1.81278E-01
    9013.595     14.276   2.560  8.89487E-01  1.01460E+00 -1.25117E-01
    9014.382     15.063   2.600  9.53999E-01  1.01516E+00 -6.11618E-02
    9015.180     15.861   2.640  1.01175E+00  1.01550E+00 -3.75614E-03
    9015.991     16.672   2.680  1.04661E+00  1.01561E+00  3.10027E-02
    9016.814     17.495   2.720  1.04855E+00  1.01552E+00  3.30293E-02
    9017.649     18.330   2.760  1.01959E+00  1.01528E+00  4.30870E-03
    9018.496     19.178   2.800  9.71877E-01  1.01486E+00 -4.29857E-02
    9019.356     20.037   2.840  9.21697E-01  1.01431E+00 -9.26163E-02
    9020.228     20.909   2.880  8.79953E-01  1.01366E+00 -1.33708E-01
    9021.112     21.793   2.920  8.50970E-01  1.01287E+00 -1.61903E-01
    9022.008     22.689   2.960  8.34023E-01  1.01202E+00 -1.77996E-01
    9022.916     23.597   3.000  8.26086E-01  1.01108E+00 -1.84998E-01
    9023.837     24.518   3.040  8.23996E-01  1.01008E+00 -1.86082E-01
    9024.769     25.450   3.080  8.24848E-01  1.00902E+00 -1.84173E-01
    9025.714     26.395   3.120  8.26521E-01  1.00792E+00 -1.81404E-01
    9026.671     27.352   3.160  8.29247E-01  1.00679E+00 -1.77546E-01
    9027.640     28.322   3.200  8.34762E-01  1.00565E+00 -1.70888E-01
    9028.622     29.303   3.240  8.44861E-01  1.00450E+00 -1.59643E-01
    9029.615     30.297   3.280  8.60391E-01  1.00336E+00 -1.42966E-01
    9030.621     31.303   3.320  8.80579E-01  1.00221E+00 -1.21633E-01
    9031.639     32.321   3.360  9.03140E-01  1.00109E+00 -9.79548E-02
    9032.670     33.351   3.400  9.25188E-01  9.99988E-01 -7.47998E-02
    9033.712     34.393   3.440  9.44854E-01  9.98915E-01 -5.40616E-02
    9034.767     35.448   3.480  9.61730E-01  9.97879E-01 -3.61490E-02
    9035.833     36.515   3.520  9.77420E-01  9.96880E-01 -1.94600E-02
    9036.912     37.594   3.560  9.95124E-01  9.95900E-01 -7.76108E-04
    9038.004     38.685   3.600  1.01834E+00  9.95006E-01  2.33373E-02
    9039.107     39.788   3.640  1.04886E+00  9.94135E-01  5.47225E-02
    9040.222     40.904   3.680  1.08583E+00  9.93329E-01  9.25012E-02
    9041.350     42.031   3.720  1.12533E+00  9.92569E-01  1.32764E-01
    9042.490     43.171   3.760  1.16125E+00  9.91855E-01  1.69398E-01
    9043.642     44.324   3.800  1.18790E+00  9.91211E-01  1.96690E-01
    9044.807     45.488   3.840  1.20296E+00  9.90616E-01  2.12346E-01
    9045.983     46.664   3.880  1.20758E+00  9.90092E-01  2.17487E-01
    9047.172     47.853   3.920  1.20436E+00  9.89638E-01  2.14726E-01
    9048.373     49.054   3.960  1.19565E+00  9.89233E-01  2.06416E-01
    9049.586     50.267   4.000  1.18300E+00  9.88875E-01  1.94123E-01
    9050.811     51.492   4.040  1.16746E+00  9.88587E-01  1.78877E-01
    9052.049     52.730   4.080  1.14926E+00  9.88346E-01  1.60910E-01
    9053.298     53.980   4.120  1.12764E+00  9.88173E-01  1.39469E-01
    9054.560     55.241   4.160  1.10156E+00  9.88047E-01  1.13513E-01
    9055.834     56.515   4.200  1.07110E+00  9.87968E-01  8.31352E-02
    9057.121     57.802   4.240  1.03791E+00  9.87955E-01  4.99518E-02
    9058.419     59.100   4.280  1.00469E+00  9.87986E-01  1.67080E-02
    9059.730     60.411   4.320  9.74396E-01  9.88062E-01 -1.36654E-02
    9061.052     61.734   4.360  9.48929E-01  9.88198E-01 -3.92690E-02
    9062.387     63.069   4.400  9.28272E-01  9.88353E-01 -6.00819E-02
    9063.735     64.416   4.440  9.10847E-01  9.88547E-01 -7.76998E-02
    9065.094     65.775   4.480  8.94910E-01  9.88779E-01 -9.38688E-02
    9066.466     67.147   4.520  8.79945E-01  9.89048E-01 -1.09103E-01
    9067.849     68.531   4.560  8.66996E-01  9.89353E-01 -1.22357E-01
    9069.245     69.927   4.600  8.57986E-01  9.89691E-01 -1.31705E-01
    9070.654     71.335   4.640  8.54852E-01  9.90039E-01 -1.35187E-01
    9072.074     72.755   4.680  8.58625E-01  9.90395E-01 -1.31770E-01
    9073.507     74.188   4.720  8.69049E-01  9.90779E-01 -1.21730E-01
    9074.951     75.632   4.760  8.84566E-01  9.91191E-01 -1.06625E-01
    9076.408     77.089   4.800  9.02683E-01  9.91586E-01 -8.89028E-02
    9077.877     78.559   4.840  9.20714E-01  9.92005E-01 -7.12911E-02
    9079.359     80.040   4.880  9.36469E-01  9.92425E-01 -5.59562E-02
    9080.852     81.533   4.920  9.49075E-01  9.92844E-01 -4.37698E-02
    9082.358     83.039   4.960  9.58801E-01  9.93238E-01 -3.44371E-02
    9083.876     84.557   5.000  9.66449E-01  9.93652E-01 -2.72029E-02
    9085.406     86.087   5.040  9.73247E-01  9.94063E-01 -2.08162E-02
    9086.948     87.629   5.080  9.81279E-01  9.94446E-01 -1.31674E-02
    9088.503     89.184   5.120  9.92792E-01  9.94820E-01 -2.02799E-03
    9090.069     90.750   5.160  1.00864E+00  9.95163E-01  1.34771E-02
    9091.648     92.329   5.200  1.02720E+00  9.95496E-01  3.17079E-02
    9093.239     93.920   5.240  1.04503E+00  9.95797E-01  4.92325E-02
    9094.842     95.524   5.280  1.05914E+00  9.96085E-01  6.30575E-02
    9096.458     97.139   5.320  1.06817E+00  9.96339E-01  7.18346E-02
    9098.085     98.767   5.360  1.07135E+00  9.96559E-01  7.47936E-02
    9099.725    100.406   5.400  1.06815E+00  9.96765E-01  7.13832E-02
    9101.377    102.058   5.440  1.05980E+00  9.96934E-01  6.28667E-02
    9103.041    103.723   5.480  1.04877E+00  9.97065E-01  5.17068E-02
    9104.718    105.399   5.520  1.03601E+00  9.97157E-01  3.88560E-02
    9106.406    107.088   5.560  1.02083E+00  9.97212E-01  2.36134E-02
    9108.107    108.788   5.600  1.00276E+00  9.97250E-01  5.51268E-03
    9109.820    110.501   5.640  9.82058E-01  9.97229E-01 -1.51709E-02
    9111.545    112.227   5.680  9.59128E-01  9.97191E-01 -3.80631E-02
    9113.283    113.964   5.720  9.34999E-01  9.97115E-01 -6.21152E-02
    9115.032    115.713   5.760  9.12949E-01  9.96999E-01 -8.40502E-02
    9116.794    117.475   5.800  8.98526E-01  9.96821E-01 -9.82952E-02
    9118.568    119.249   5.840  8.97289E-01  9.96627E-01 -9.93386E-02
    9120.354    121.035   5.880  9.11622E-01  9.96398E-01 -8.47763E-02
    9122.152    122.834   5.920  9.39151E-01  9.96136E-01 -5.69854E-02
    9123.963    124.644   5.960  9.73200E-01  9.95865E-01 -2.26644E-02
    9125.786    126.467   6.000  1.00593E+00  9.95508E-01  1.04185E-02
