# # comment:                                                     FEFF 9.9.1  
# # Source:
# # Structure
# # Reduced
# # space
# # abc:
# # angles:
# # sites:
# # POT  SCF 100  7.0000   0, screened core-hole, AFOLP (folp(0)= 1.150)
# # Abs   Z=29 Rmt= 1.193 Rnm= 1.278 K  shell
# # Pot 1 Z=38 Rmt= 1.797 Rnm= 1.851
# # Pot 2 Z=57 Rmt= 1.774 Rnm= 1.847
# # Pot 3 Z=29 Rmt= 1.195 Rnm= 1.276
# # Pot 4 Z= 8 Rmt= 1.054 Rnm= 1.112
# # Gam_ch=1.729E+00 H-L exch Vi= 0.000E+00 Vr= 0.000E+00
# # Mu=-8.141E+00eV kf=2.021E+00 Vint=-1.796E+01eV Rs_int= 1.794
# FMS rfms= 9.0000
# # PATH  Rmax=-1.000,  Keep_limit= 0.00, Heap_limit 0.00  Pwcrit= 2.50%
#  S02=0.950  Temp=   0.00  Debye_temp=   0.00  Global_sig2= 0.00000
#  Energy zero shift, vr, vi    0.00000E+00   0.00000E+00
#  Curved wave amplitude ratio filter   4.000%
#     file         sig2 tot  cw amp ratio   deg  nlegs   reff  inp sig2
#     0/   0 paths used
#  xsedge+ 50, used to normalize mu           2.4513E-04
#  -----------------------------------------------------------------------
#  omega    e    k    mu    mu0     chi     @#
    8984.958    -11.951  -1.000  3.84943E-02  5.71427E-02 -1.86483E-02
    8985.256    -11.652  -0.960  4.05325E-02  6.14005E-02 -2.08680E-02
    8985.543    -11.366  -0.920  4.27416E-02  6.61412E-02 -2.33996E-02
    8985.817    -11.091  -0.880  4.51446E-02  7.14368E-02 -2.62921E-02
    8986.079    -10.829  -0.840  4.77684E-02  7.73710E-02 -2.96026E-02
    8986.329    -10.579  -0.800  5.06441E-02  8.40412E-02 -3.33970E-02
    8986.567    -10.342  -0.760  5.38080E-02  9.15589E-02 -3.77510E-02
    8986.793    -10.116  -0.720  5.73009E-02  1.00051E-01 -4.27497E-02
    8987.006     -9.903  -0.680  6.11683E-02  1.09655E-01 -4.84871E-02
    8987.207     -9.701  -0.640  6.54581E-02  1.20521E-01 -5.50625E-02
    8987.396     -9.512  -0.600  7.02173E-02  1.32791E-01 -6.25737E-02
    8987.573     -9.336  -0.560  7.54852E-02  1.46590E-01 -7.11052E-02
    8987.737     -9.171  -0.520  8.12835E-02  1.61993E-01 -8.07096E-02
    8987.890     -9.019  -0.480  8.76021E-02  1.78984E-01 -9.13821E-02
    8988.030     -8.878  -0.440  9.43830E-02  1.97414E-01 -1.03031E-01
    8988.158     -8.750  -0.400  1.01507E-01  2.16960E-01 -1.15453E-01
    8988.274     -8.635  -0.360  1.08791E-01  2.37112E-01 -1.28321E-01
    8988.378     -8.531  -0.320  1.16000E-01  2.57211E-01 -1.41211E-01
    8988.469     -8.440  -0.280  1.22879E-01  2.76523E-01 -1.53644E-01
    8988.548     -8.360  -0.240  1.29188E-01  2.94344E-01 -1.65155E-01
    8988.615     -8.293  -0.200  1.34734E-01  3.10086E-01 -1.75351E-01
    8988.670     -8.238  -0.160  1.39379E-01  3.23321E-01 -1.83942E-01
    8988.713     -8.196  -0.120  1.43038E-01  3.33777E-01 -1.90739E-01
    8988.743     -8.165  -0.080  1.45665E-01  3.41306E-01 -1.95641E-01
    8988.768     -8.141   0.000  1.47759E-01  3.47352E-01 -1.99593E-01
    8988.823     -8.086   0.120  1.52615E-01  3.60982E-01 -2.08367E-01
    8988.865     -8.043   0.160  1.56367E-01  3.71568E-01 -2.15201E-01
    8988.920     -7.988   0.200  1.61136E-01  3.85056E-01 -2.23920E-01
    8988.987     -7.921   0.240  1.66904E-01  4.01270E-01 -2.34366E-01
    8989.066     -7.842   0.280  1.73579E-01  4.19849E-01 -2.46270E-01
    8989.158     -7.751   0.320  1.81058E-01  4.40278E-01 -2.59220E-01
    8989.261     -7.647   0.360  1.89330E-01  4.61985E-01 -2.72655E-01
    8989.377     -7.531   0.400  1.98300E-01  4.84257E-01 -2.85957E-01
    8989.505     -7.403   0.440  2.07923E-01  5.06522E-01 -2.98599E-01
    8989.645     -7.263   0.480  2.17954E-01  5.28320E-01 -3.10366E-01
    8989.798     -7.111   0.520  2.27647E-01  5.49300E-01 -3.21653E-01
    8989.962     -6.946   0.560  2.35878E-01  5.69365E-01 -3.33487E-01
    8990.139     -6.769   0.600  2.41326E-01  5.88461E-01 -3.47135E-01
    8990.328     -6.580   0.640  2.43351E-01  6.06654E-01 -3.63303E-01
    8990.529     -6.379   0.680  2.42431E-01  6.24009E-01 -3.81577E-01
    8990.743     -6.166   0.720  2.40138E-01  6.40669E-01 -4.00532E-01
    8990.968     -5.940   0.760  2.38381E-01  6.56697E-01 -4.18316E-01
    8991.206     -5.702   0.800  2.39062E-01  6.72223E-01 -4.33161E-01
    8991.456     -5.453   0.840  2.43553E-01  6.87305E-01 -4.43752E-01
    8991.718     -5.190   0.880  2.52685E-01  7.02005E-01 -4.49320E-01
    8991.992     -4.916   0.920  2.66808E-01  7.16390E-01 -4.49582E-01
    8992.279     -4.630   0.960  2.85649E-01  7.30474E-01 -4.44825E-01
    8992.578     -4.331   1.000  3.08275E-01  7.44279E-01 -4.36004E-01
    8992.889     -4.020   1.040  3.32780E-01  7.57837E-01 -4.25056E-01
    8993.212     -3.697   1.080  3.56382E-01  7.71131E-01 -4.14749E-01
    8993.547     -3.362   1.120  3.77020E-01  7.84162E-01 -4.07142E-01
    8993.894     -3.014   1.160  3.97204E-01  7.96938E-01 -3.99734E-01
    8994.254     -2.655   1.200  4.24477E-01  8.09429E-01 -3.84952E-01
    8994.626     -2.283   1.240  4.65231E-01  8.21617E-01 -3.56386E-01
    8995.010     -1.899   1.280  5.20685E-01  8.33505E-01 -3.12820E-01
    8995.406     -1.502   1.320  5.88744E-01  8.45072E-01 -2.56328E-01
    8995.815     -1.094   1.360  6.67177E-01  8.56295E-01 -1.89118E-01
    8996.235     -0.673   1.400  7.54335E-01  8.67153E-01 -1.12817E-01
    8996.668     -0.240   1.440  8.47639E-01  8.77642E-01 -3.00028E-02
    8997.113      0.205   1.480  9.43087E-01  8.87718E-01  5.53697E-02
    8997.570      0.662   1.520  1.03546E+00  8.97420E-01  1.38044E-01
    8998.040      1.131   1.560  1.11414E+00  9.06683E-01  2.07459E-01
    8998.521      1.613   1.600  1.17556E+00  9.15525E-01  2.60033E-01
    8999.015      2.106   1.640  1.25246E+00  9.23926E-01  3.28533E-01
    8999.521      2.612   1.680  1.37442E+00  9.31884E-01  4.42535E-01
    9000.039      3.131   1.720  1.51349E+00  9.39399E-01  5.74089E-01
    9000.569      3.661   1.760  1.58553E+00  9.46475E-01  6.39059E-01
    9001.112      4.203   1.800  1.53787E+00  9.53114E-01  5.84756E-01
    9001.667      4.758   1.840  1.42139E+00  9.59316E-01  4.62076E-01
    9002.234      5.325   1.880  1.31031E+00  9.65065E-01  3.45243E-01
    9002.813      5.904   1.920  1.23451E+00  9.70408E-01  2.64105E-01
    9003.404      6.496   1.960  1.19064E+00  9.75309E-01  2.15327E-01
    9004.008      7.099   2.000  1.17082E+00  9.79834E-01  1.90990E-01
    9004.623      7.715   2.040  1.15952E+00  9.83930E-01  1.75586E-01
    9005.251      8.343   2.080  1.14369E+00  9.87665E-01  1.56025E-01
    9005.891      8.983   2.120  1.12403E+00  9.91026E-01  1.33004E-01
    9006.544      9.635   2.160  1.10435E+00  9.94020E-01  1.10331E-01
    9007.208     10.299   2.200  1.09147E+00  9.96697E-01  9.47736E-02
    9007.885     10.976   2.240  1.08924E+00  9.99045E-01  9.01993E-02
    9008.573     11.665   2.280  1.09446E+00  1.00107E+00  9.33914E-02
    9009.275     12.366   2.320  1.10262E+00  1.00283E+00  9.97884E-02
    9009.988     13.079   2.360  1.11072E+00  1.00430E+00  1.06416E-01
    9010.713     13.805   2.400  1.11551E+00  1.00553E+00  1.09985E-01
    9011.451     14.542   2.440  1.11634E+00  1.00653E+00  1.09811E-01
    9012.201     15.292   2.480  1.11350E+00  1.00729E+00  1.06212E-01
    9012.963     16.054   2.520  1.10726E+00  1.00787E+00  9.93908E-02
    9013.737     16.828   2.560  1.09609E+00  1.00825E+00  8.78417E-02
    9014.523     17.615   2.600  1.07854E+00  1.00846E+00  7.00812E-02
    9015.322     18.413   2.640  1.05552E+00  1.00851E+00  4.70067E-02
    9016.132     19.224   2.680  1.02968E+00  1.00843E+00  2.12448E-02
    9016.955     20.047   2.720  1.00437E+00  1.00824E+00 -3.87940E-03
    9017.791     20.882   2.760  9.81300E-01  1.00792E+00 -2.66187E-02
    9018.638     21.729   2.800  9.60728E-01  1.00750E+00 -4.67751E-02
    9019.497     22.589   2.840  9.42419E-01  1.00702E+00 -6.46025E-02
    9020.369     23.461   2.880  9.26060E-01  1.00644E+00 -8.03826E-02
    9021.253     24.345   2.920  9.11417E-01  1.00583E+00 -9.44143E-02
    9022.149     25.241   2.960  8.98840E-01  1.00515E+00 -1.06315E-01
    9023.058     26.149   3.000  8.88966E-01  1.00444E+00 -1.15471E-01
    9023.978     27.069   3.040  8.82174E-01  1.00370E+00 -1.21529E-01
    9024.911     28.002   3.080  8.78184E-01  1.00294E+00 -1.24754E-01
    9025.856     28.947   3.120  8.76606E-01  1.00217E+00 -1.25561E-01
    9026.813     29.904   3.160  8.76745E-01  1.00141E+00 -1.24669E-01
    9027.782     30.873   3.200  8.78109E-01  1.00064E+00 -1.22533E-01
    9028.763     31.855   3.240  8.80443E-01  9.99872E-01 -1.19430E-01
    9029.757     32.848   3.280  8.83487E-01  9.99153E-01 -1.15666E-01
    9030.763     33.854   3.320  8.86902E-01  9.98423E-01 -1.11521E-01
    9031.781     34.872   3.360  8.90683E-01  9.97746E-01 -1.07063E-01
    9032.811     35.903   3.400  8.95206E-01  9.97085E-01 -1.01879E-01
    9033.853     36.945   3.440  9.00775E-01  9.96462E-01 -9.56878E-02
    9034.908     38.000   3.480  9.07867E-01  9.95900E-01 -8.80329E-02
    9035.975     39.066   3.520  9.16795E-01  9.95358E-01 -7.85633E-02
    9037.054     40.145   3.560  9.27607E-01  9.94881E-01 -6.72738E-02
    9038.145     41.237   3.600  9.40082E-01  9.94447E-01 -5.43645E-02
    9039.248     42.340   3.640  9.53905E-01  9.94055E-01 -4.01503E-02
    9040.364     43.455   3.680  9.68631E-01  9.93708E-01 -2.50768E-02
    9041.492     44.583   3.720  9.83582E-01  9.93428E-01 -9.84610E-03
    9042.632     45.723   3.760  9.97848E-01  9.93195E-01  4.65377E-03
    9043.784     46.875   3.800  1.01042E+00  9.93007E-01  1.74156E-02
    9044.948     48.040   3.840  1.02031E+00  9.92886E-01  2.74207E-02
    9046.125     49.216   3.880  1.02699E+00  9.92814E-01  3.41729E-02
    9047.313     50.405   3.920  1.03058E+00  9.92809E-01  3.77675E-02
    9048.514     51.606   3.960  1.03151E+00  9.92847E-01  3.86645E-02
    9049.727     52.819   4.000  1.03053E+00  9.92908E-01  3.76217E-02
    9050.953     54.044   4.040  1.02863E+00  9.93055E-01  3.55715E-02
    9052.190     55.282   4.080  1.02677E+00  9.93226E-01  3.35393E-02
    9053.440     56.531   4.120  1.02583E+00  9.93459E-01  3.23664E-02
    9054.702     57.793   4.160  1.02633E+00  9.93711E-01  3.26215E-02
    9055.976     59.067   4.200  1.02842E+00  9.94025E-01  3.43993E-02
    9057.262     60.353   4.240  1.03166E+00  9.94356E-01  3.73054E-02
    9058.560     61.652   4.280  1.03549E+00  9.94745E-01  4.07411E-02
    9059.871     62.963   4.320  1.03934E+00  9.95151E-01  4.41918E-02
    9061.194     64.285   4.360  1.04289E+00  9.95592E-01  4.72967E-02
    9062.529     65.620   4.400  1.04590E+00  9.96066E-01  4.98349E-02
    9063.876     66.968   4.440  1.04832E+00  9.96551E-01  5.17716E-02
    9065.236     68.327   4.480  1.05023E+00  9.97067E-01  5.31608E-02
    9066.607     69.699   4.520  1.05174E+00  9.97612E-01  5.41301E-02
    9067.991     71.082   4.560  1.05296E+00  9.98140E-01  5.48204E-02
    9069.387     72.478   4.600  1.05398E+00  9.98693E-01  5.52903E-02
    9070.795     73.887   4.640  1.05466E+00  9.99250E-01  5.54061E-02
    9072.215     75.307   4.680  1.05468E+00  9.99809E-01  5.48747E-02
    9073.648     76.739   4.720  1.05373E+00  1.00039E+00  5.33364E-02
    9075.093     78.184   4.760  1.05145E+00  1.00095E+00  5.05086E-02
    9076.550     79.641   4.800  1.04778E+00  1.00150E+00  4.62776E-02
    9078.019     81.110   4.840  1.04261E+00  1.00204E+00  4.05681E-02
    9079.500     82.592   4.880  1.03576E+00  1.00256E+00  3.31982E-02
    9080.994     84.085   4.920  1.02702E+00  1.00307E+00  2.39490E-02
    9082.499     85.591   4.960  1.01648E+00  1.00357E+00  1.29058E-02
    9084.017     87.109   5.000  1.00489E+00  1.00404E+00  8.43506E-04
    9085.547     88.639   5.040  9.93750E-01  1.00450E+00 -1.07489E-02
    9087.090     90.181   5.080  9.84774E-01  1.00492E+00 -2.01476E-02
    9088.644     91.736   5.120  9.79171E-01  1.00531E+00 -2.61359E-02
    9090.211     93.302   5.160  9.76994E-01  1.00566E+00 -2.86621E-02
    9091.790     94.881   5.200  9.77125E-01  1.00599E+00 -2.88640E-02
    9093.381     96.472   5.240  9.77866E-01  1.00629E+00 -2.84194E-02
    9094.984     98.075   5.280  9.77933E-01  1.00654E+00 -2.86094E-02
    9096.599     99.691   5.320  9.76936E-01  1.00676E+00 -2.98217E-02
    9098.227    101.318   5.360  9.75151E-01  1.00693E+00 -3.17818E-02
    9099.867    102.958   5.400  9.72957E-01  1.00707E+00 -3.41104E-02
    9101.519    104.610   5.440  9.70596E-01  1.00716E+00 -3.65633E-02
    9103.183    106.274   5.480  9.68326E-01  1.00721E+00 -3.88844E-02
    9104.859    107.951   5.520  9.66481E-01  1.00722E+00 -4.07396E-02
    9106.548    109.639   5.560  9.65248E-01  1.00719E+00 -4.19415E-02
    9108.249    111.340   5.600  9.64516E-01  1.00712E+00 -4.26014E-02
    9109.962    113.053   5.640  9.64014E-01  1.00700E+00 -4.29900E-02
    9111.687    114.778   5.680  9.63630E-01  1.00685E+00 -4.32196E-02
    9113.424    116.516   5.720  9.63608E-01  1.00665E+00 -4.30470E-02
    9115.174    118.265   5.760  9.64586E-01  1.00642E+00 -4.18348E-02
    9116.936    120.027   5.800  9.67334E-01  1.00615E+00 -3.88134E-02
    9118.709    121.801   5.840  9.72290E-01  1.00584E+00 -3.35450E-02
    9120.496    123.587   5.880  9.79086E-01  1.00549E+00 -2.63999E-02
    9122.294    125.385   5.920  9.86588E-01  1.00510E+00 -1.85132E-02
    9124.104    127.196   5.960  9.93440E-01  1.00468E+00 -1.12435E-02
    9125.927    129.019   6.000  9.98797E-01  1.00423E+00 -5.43783E-03
