# # comment:                                                     FEFF 9.9.1  
# # Source:
# # Structure
# # Reduced
# # space
# # abc:
# # angles:125.327537
# # sites:
# # POT  SCF 100  7.0000   0, screened core-hole, AFOLP (folp(0)= 1.150)
# # Abs   Z=29 Rmt= 1.161 Rnm= 1.274 K  shell
# # Pot 1 Z=63 Rmt= 1.709 Rnm= 1.783
# # Pot 2 Z=29 Rmt= 1.161 Rnm= 1.274
# # Pot 3 Z= 8 Rmt= 1.048 Rnm= 1.108
# # Gam_ch=1.729E+00 H-L exch Vi= 0.000E+00 Vr= 0.000E+00
# # Mu=-7.709E+00eV kf=2.121E+00 Vint=-1.636E+01eV Rs_int= 1.710
# FMS rfms= 9.0000
# # PATH  Rmax=-1.000,  Keep_limit= 0.00, Heap_limit 0.00  Pwcrit= 2.50%
#  S02=0.950  Temp=   0.00  Debye_temp=   0.00  Global_sig2= 0.00000
#  Energy zero shift, vr, vi    0.00000E+00   0.00000E+00
#  Curved wave amplitude ratio filter   4.000%
#     file         sig2 tot  cw amp ratio   deg  nlegs   reff  inp sig2
#     0/   0 paths used
#  xsedge+ 50, used to normalize mu           2.4528E-04
#  -----------------------------------------------------------------------
#  omega    e    k    mu    mu0     chi     @#
    8983.975    -11.519  -1.000  3.59894E-02  5.39841E-02 -1.79947E-02
    8984.274    -11.221  -0.960  3.78198E-02  5.78917E-02 -2.00720E-02
    8984.561    -10.934  -0.920  3.97798E-02  6.22321E-02 -2.24523E-02
    8984.835    -10.660  -0.880  4.18812E-02  6.70688E-02 -2.51876E-02
    8985.097    -10.398  -0.840  4.41366E-02  7.24755E-02 -2.83390E-02
    8985.347    -10.148  -0.800  4.65598E-02  7.85380E-02 -3.19782E-02
    8985.585     -9.910  -0.760  4.91656E-02  8.53544E-02 -3.61888E-02
    8985.810     -9.684  -0.720  5.19695E-02  9.30355E-02 -4.10660E-02
    8986.024     -9.471  -0.680  5.49872E-02  1.01703E-01 -4.67163E-02
    8986.225     -9.270  -0.640  5.82336E-02  1.11487E-01 -5.32535E-02
    8986.414     -9.081  -0.600  6.17209E-02  1.22513E-01 -6.07919E-02
    8986.591     -8.904  -0.560  6.54555E-02  1.34888E-01 -6.94328E-02
    8986.755     -8.740  -0.520  6.94342E-02  1.48678E-01 -7.92434E-02
    8986.908     -8.587  -0.480  7.36374E-02  1.63866E-01 -9.02286E-02
    8987.048     -8.447  -0.440  7.80234E-02  1.80320E-01 -1.02297E-01
    8987.176     -8.319  -0.400  8.25227E-02  1.97755E-01 -1.15232E-01
    8987.292     -8.203  -0.360  8.70377E-02  2.15720E-01 -1.28682E-01
    8987.395     -8.100  -0.320  9.14487E-02  2.33633E-01 -1.42185E-01
    8987.487     -8.008  -0.280  9.56277E-02  2.50847E-01 -1.55219E-01
    8987.566     -7.929  -0.240  9.94540E-02  2.66737E-01 -1.67283E-01
    8987.633     -7.862  -0.200  1.02827E-01  2.80781E-01 -1.77954E-01
    8987.688     -7.807  -0.160  1.05671E-01  2.92596E-01 -1.86925E-01
    8987.730     -7.764  -0.120  1.07933E-01  3.01938E-01 -1.94005E-01
    8987.761     -7.734  -0.080  1.09578E-01  3.08668E-01 -1.99090E-01
    8987.785     -7.709   0.000  1.10923E-01  3.14076E-01 -2.03153E-01
    8987.840     -7.655   0.120  1.14013E-01  3.26282E-01 -2.12270E-01
    8987.883     -7.612   0.160  1.16378E-01  3.35766E-01 -2.19387E-01
    8987.938     -7.557   0.200  1.19414E-01  3.47874E-01 -2.28460E-01
    8988.005     -7.490   0.240  1.23145E-01  3.62446E-01 -2.39301E-01
    8988.084     -7.411   0.280  1.27577E-01  3.79197E-01 -2.51619E-01
    8988.175     -7.319   0.320  1.32764E-01  3.97686E-01 -2.64922E-01
    8988.279     -7.216   0.360  1.38820E-01  4.17414E-01 -2.78593E-01
    8988.395     -7.100   0.400  1.45907E-01  4.37783E-01 -2.91876E-01
    8988.523     -6.972   0.440  1.54418E-01  4.58307E-01 -3.03889E-01
    8988.663     -6.832   0.480  1.64883E-01  4.78594E-01 -3.13710E-01
    8988.816     -6.679   0.520  1.77970E-01  4.98332E-01 -3.20362E-01
    8988.980     -6.515   0.560  1.94599E-01  5.17447E-01 -3.22848E-01
    8989.157     -6.338   0.600  2.15771E-01  5.35886E-01 -3.20116E-01
    8989.346     -6.149   0.640  2.42364E-01  5.53706E-01 -3.11342E-01
    8989.547     -5.948   0.680  2.74781E-01  5.70976E-01 -2.96195E-01
    8989.760     -5.734   0.720  3.12588E-01  5.87780E-01 -2.75192E-01
    8989.986     -5.509   0.760  3.55053E-01  6.04200E-01 -2.49147E-01
    8990.224     -5.271   0.800  4.01819E-01  6.20329E-01 -2.18510E-01
    8990.474     -5.021   0.840  4.51931E-01  6.36207E-01 -1.84277E-01
    8990.736     -4.759   0.880  5.00491E-01  6.51900E-01 -1.51409E-01
    8991.010     -4.485   0.920  5.36776E-01  6.67421E-01 -1.30645E-01
    8991.297     -4.198   0.960  5.49451E-01  6.82791E-01 -1.33340E-01
    8991.595     -3.899   1.000  5.37816E-01  6.98020E-01 -1.60203E-01
    8991.906     -3.588   1.040  5.13739E-01  7.13130E-01 -1.99391E-01
    8992.229     -3.265   1.080  4.88181E-01  7.28076E-01 -2.39894E-01
    8992.565     -2.930   1.120  4.64104E-01  7.42865E-01 -2.78761E-01
    8992.912     -2.583   1.160  4.42508E-01  7.57482E-01 -3.14973E-01
    8993.272     -2.223   1.200  4.25532E-01  7.71883E-01 -3.46351E-01
    8993.644     -1.851   1.240  4.13828E-01  7.86045E-01 -3.72217E-01
    8994.028     -1.467   1.280  4.08873E-01  7.99943E-01 -3.91070E-01
    8994.424     -1.071   1.320  4.12879E-01  8.13570E-01 -4.00691E-01
    8994.832     -0.662   1.360  4.23877E-01  8.26875E-01 -4.02998E-01
    8995.253     -0.242   1.400  4.39477E-01  8.39828E-01 -4.00350E-01
    8995.686      0.191   1.440  4.60443E-01  8.52400E-01 -3.91957E-01
    8996.131      0.636   1.480  4.88108E-01  8.64584E-01 -3.76475E-01
    8996.588      1.093   1.520  5.22841E-01  8.76349E-01 -3.53508E-01
    8997.057      1.563   1.560  5.66480E-01  8.87646E-01 -3.21166E-01
    8997.539      2.044   1.600  6.23026E-01  8.98509E-01 -2.75483E-01
    8998.033      2.538   1.640  6.90971E-01  9.08872E-01 -2.17901E-01
    8998.539      3.044   1.680  7.61330E-01  9.18749E-01 -1.57419E-01
    8999.057      3.562   1.720  8.24572E-01  9.28117E-01 -1.03545E-01
    8999.587      4.092   1.760  8.81101E-01  9.36994E-01 -5.58933E-02
    9000.130      4.635   1.800  9.49583E-01  9.45338E-01  4.24479E-03
    9000.684      5.190   1.840  1.05032E+00  9.53170E-01  9.71517E-02
    9001.251      5.757   1.880  1.18807E+00  9.60491E-01  2.27575E-01
    9001.830      6.336   1.920  1.34563E+00  9.67283E-01  3.78347E-01
    9002.422      6.927   1.960  1.48620E+00  9.73591E-01  5.12607E-01
    9003.025      7.531   2.000  1.57161E+00  9.79399E-01  5.92215E-01
    9003.641      8.146   2.040  1.56939E+00  9.84714E-01  5.84675E-01
    9004.269      8.774   2.080  1.50231E+00  9.89542E-01  5.12763E-01
    9004.909      9.414   2.120  1.41914E+00  9.93932E-01  4.25211E-01
    9005.561     10.066   2.160  1.32239E+00  9.97870E-01  3.24516E-01
    9006.226     10.731   2.200  1.22332E+00  1.00139E+00  2.21929E-01
    9006.902     11.408   2.240  1.15689E+00  1.00449E+00  1.52396E-01
    9007.591     12.096   2.280  1.13696E+00  1.00719E+00  1.29766E-01
    9008.292     12.797   2.320  1.14809E+00  1.00955E+00  1.38548E-01
    9009.005     13.511   2.360  1.16605E+00  1.01153E+00  1.54512E-01
    9009.731     14.236   2.400  1.17712E+00  1.01319E+00  1.63925E-01
    9010.468     14.974   2.440  1.18185E+00  1.01455E+00  1.67302E-01
    9011.218     15.724   2.480  1.18588E+00  1.01561E+00  1.70268E-01
    9011.980     16.486   2.520  1.19024E+00  1.01640E+00  1.73839E-01
    9012.754     17.260   2.560  1.18607E+00  1.01693E+00  1.69140E-01
    9013.541     18.046   2.600  1.17053E+00  1.01725E+00  1.53278E-01
    9014.339     18.845   2.640  1.14508E+00  1.01733E+00  1.27752E-01
    9015.150     19.655   2.680  1.11425E+00  1.01724E+00  9.70127E-02
    9015.973     20.478   2.720  1.08362E+00  1.01697E+00  6.66437E-02
    9016.808     21.314   2.760  1.05710E+00  1.01654E+00  4.05592E-02
    9017.656     22.161   2.800  1.03558E+00  1.01596E+00  1.96137E-02
    9018.515     23.020   2.840  1.01810E+00  1.01528E+00  2.82027E-03
    9019.387     23.892   2.880  1.00271E+00  1.01447E+00 -1.17576E-02
    9020.271     24.776   2.920  9.87366E-01  1.01356E+00 -2.61932E-02
    9021.167     25.672   2.960  9.71096E-01  1.01259E+00 -4.14896E-02
    9022.075     26.580   3.000  9.53809E-01  1.01156E+00 -5.77483E-02
    9022.996     27.501   3.040  9.36069E-01  1.01046E+00 -7.43915E-02
    9023.928     28.434   3.080  9.18998E-01  1.00932E+00 -9.03218E-02
    9024.873     29.379   3.120  9.03990E-01  1.00814E+00 -1.04151E-01
    9025.830     30.336   3.160  8.91890E-01  1.00695E+00 -1.15064E-01
    9026.800     31.305   3.200  8.82894E-01  1.00576E+00 -1.22867E-01
    9027.781     32.286   3.240  8.76725E-01  1.00457E+00 -1.27842E-01
    9028.775     33.280   3.280  8.72526E-01  1.00338E+00 -1.30851E-01
    9029.780     34.286   3.320  8.69329E-01  1.00221E+00 -1.32883E-01
    9030.799     35.304   3.360  8.66480E-01  1.00106E+00 -1.34579E-01
    9031.829     36.334   3.400  8.64086E-01  9.99941E-01 -1.35855E-01
    9032.871     37.376   3.440  8.62610E-01  9.98859E-01 -1.36250E-01
    9033.926     38.431   3.480  8.62973E-01  9.97818E-01 -1.34845E-01
    9034.993     39.498   3.520  8.66046E-01  9.96820E-01 -1.30774E-01
    9036.072     40.577   3.560  8.72167E-01  9.95887E-01 -1.23720E-01
    9037.163     41.668   3.600  8.81048E-01  9.94980E-01 -1.13931E-01
    9038.266     42.771   3.640  8.92137E-01  9.94162E-01 -1.02026E-01
    9039.382     43.887   3.680  9.04630E-01  9.93396E-01 -8.87655E-02
    9040.509     45.015   3.720  9.17644E-01  9.92679E-01 -7.50348E-02
    9041.649     46.155   3.760  9.30600E-01  9.92035E-01 -6.14343E-02
    9042.801     47.307   3.800  9.43066E-01  9.91464E-01 -4.83976E-02
    9043.966     48.471   3.840  9.54597E-01  9.90946E-01 -3.63490E-02
    9045.142     49.648   3.880  9.64923E-01  9.90504E-01 -2.55809E-02
    9046.331     50.836   3.920  9.74083E-01  9.90137E-01 -1.60537E-02
    9047.532     52.037   3.960  9.82388E-01  9.89846E-01 -7.45741E-03
    9048.745     53.250   4.000  9.90288E-01  9.89608E-01  6.80239E-04
    9049.970     54.476   4.040  9.98252E-01  9.89443E-01  8.80816E-03
    9051.208     55.713   4.080  1.00653E+00  9.89356E-01  1.71710E-02
    9052.458     56.963   4.120  1.01495E+00  9.89342E-01  2.56106E-02
    9053.719     58.225   4.160  1.02307E+00  9.89379E-01  3.36943E-02
    9054.993     59.499   4.200  1.03024E+00  9.89464E-01  4.07789E-02
    9056.280     60.785   4.240  1.03606E+00  9.89622E-01  4.64359E-02
    9057.578     62.083   4.280  1.04052E+00  9.89851E-01  5.06660E-02
    9058.889     63.394   4.320  1.04396E+00  9.90127E-01  5.38335E-02
    9060.212     64.717   4.360  1.04689E+00  9.90450E-01  5.64428E-02
    9061.547     66.052   4.400  1.04967E+00  9.90840E-01  5.88345E-02
    9062.894     67.399   4.440  1.05247E+00  9.91274E-01  6.11977E-02
    9064.253     68.759   4.480  1.05524E+00  9.91751E-01  6.34869E-02
    9065.625     70.130   4.520  1.05786E+00  9.92267E-01  6.55896E-02
    9067.009     71.514   4.560  1.06028E+00  9.92823E-01  6.74540E-02
    9068.405     72.910   4.600  1.06246E+00  9.93417E-01  6.90429E-02
    9069.813     74.318   4.640  1.06418E+00  9.94047E-01  7.01291E-02
    9071.233     75.738   4.680  1.06501E+00  9.94687E-01  7.03181E-02
    9072.666     77.171   4.720  1.06456E+00  9.95359E-01  6.92026E-02
    9074.110     78.616   4.760  1.06254E+00  9.96040E-01  6.65047E-02
    9075.567     80.073   4.800  1.05890E+00  9.96749E-01  6.21487E-02
    9077.036     81.542   4.840  1.05370E+00  9.97465E-01  5.62316E-02
    9078.518     83.023   4.880  1.04728E+00  9.98205E-01  4.90738E-02
    9080.011     84.517   4.920  1.04022E+00  9.98925E-01  4.12906E-02
    9081.517     86.022   4.960  1.03323E+00  9.99643E-01  3.35902E-02
    9083.035     87.540   5.000  1.02691E+00  1.00038E+00  2.65324E-02
    9084.565     89.070   5.040  1.02148E+00  1.00109E+00  2.03894E-02
    9086.107     90.613   5.080  1.01687E+00  1.00177E+00  1.51019E-02
    9087.662     92.167   5.120  1.01288E+00  1.00247E+00  1.04100E-02
    9089.228     93.734   5.160  1.00919E+00  1.00313E+00  6.05582E-03
    9090.807     95.313   5.200  1.00577E+00  1.00377E+00  2.00676E-03
    9092.398     96.904   5.240  1.00284E+00  1.00439E+00 -1.54406E-03
    9094.002     98.507   5.280  1.00048E+00  1.00497E+00 -4.48469E-03
    9095.617    100.122   5.320  9.98363E-01  1.00551E+00 -7.14924E-03
    9097.245    101.750   5.360  9.95726E-01  1.00602E+00 -1.02908E-02
    9098.884    103.390   5.400  9.91870E-01  1.00648E+00 -1.46123E-02
    9100.536    105.042   5.440  9.86603E-01  1.00693E+00 -2.03265E-02
    9102.201    106.706   5.480  9.80212E-01  1.00731E+00 -2.71001E-02
    9103.877    108.382   5.520  9.73384E-01  1.00765E+00 -3.42670E-02
    9105.566    110.071   5.560  9.66857E-01  1.00794E+00 -4.10879E-02
    9107.266    111.772   5.600  9.61340E-01  1.00819E+00 -4.68541E-02
    9108.979    113.485   5.640  9.57458E-01  1.00838E+00 -5.09176E-02
    9110.705    115.210   5.680  9.55743E-01  1.00851E+00 -5.27676E-02
    9112.442    116.947   5.720  9.56294E-01  1.00860E+00 -5.23082E-02
    9114.191    118.697   5.760  9.58630E-01  1.00865E+00 -5.00170E-02
    9115.953    120.458   5.800  9.61723E-01  1.00862E+00 -4.69008E-02
    9117.727    122.232   5.840  9.64377E-01  1.00856E+00 -4.41784E-02
    9119.513    124.019   5.880  9.65665E-01  1.00844E+00 -4.27776E-02
    9121.312    125.817   5.920  9.65418E-01  1.00826E+00 -4.28418E-02
    9123.122    127.627   5.960  9.64459E-01  1.00803E+00 -4.35672E-02
    9124.945    129.450   6.000  9.64186E-01  1.00771E+00 -4.35237E-02
