# # comment:                                                     FEFF 9.9.1  
# # Source:
# # Structure
# # Reduced
# # space
# # abc:
# # angles:
# # sites:
# # POT  SCF 100  7.0000   0, screened core-hole, AFOLP (folp(0)= 1.150)
# # Abs   Z=29 Rmt= 1.160 Rnm= 1.288 K  shell
# # Pot 1 Z=29 Rmt= 1.160 Rnm= 1.288
# # Pot 2 Z= 8 Rmt= 1.001 Rnm= 1.111
# # Gam_ch=1.729E+00 H-L exch Vi= 0.000E+00 Vr= 0.000E+00
# # Mu=-6.934E+00eV kf=2.177E+00 Vint=-1.460E+01eV Rs_int= 1.666
# FMS rfms= 9.0000
# # PATH  Rmax=-1.000,  Keep_limit= 0.00, Heap_limit 0.00  Pwcrit= 2.50%
#  S02=0.950  Temp=   0.00  Debye_temp=   0.00  Global_sig2= 0.00000
#  Energy zero shift, vr, vi    0.00000E+00   0.00000E+00
#  Curved wave amplitude ratio filter   4.000%
#     file         sig2 tot  cw amp ratio   deg  nlegs   reff  inp sig2
#     0/   0 paths used
#  xsedge+ 50, used to normalize mu           2.4351E-04
#  -----------------------------------------------------------------------
#  omega    e    k    mu    mu0     chi     @#
    8983.453    -10.744  -1.000  3.48154E-02  5.44450E-02 -1.96295E-02
    8983.752    -10.445  -0.960  3.66083E-02  5.83566E-02 -2.17484E-02
    8984.038    -10.158  -0.920  3.85481E-02  6.26968E-02 -2.41487E-02
    8984.312     -9.884  -0.880  4.06534E-02  6.75277E-02 -2.68743E-02
    8984.575     -9.622  -0.840  4.29455E-02  7.29218E-02 -2.99763E-02
    8984.824     -9.372  -0.800  4.54488E-02  7.89629E-02 -3.35140E-02
    8985.062     -9.134  -0.760  4.81909E-02  8.57467E-02 -3.75558E-02
    8985.288     -8.909  -0.720  5.12027E-02  9.33817E-02 -4.21790E-02
    8985.501     -8.695  -0.680  5.45175E-02  1.01987E-01 -4.74694E-02
    8985.702     -8.494  -0.640  5.81700E-02  1.11688E-01 -5.35178E-02
    8985.891     -8.305  -0.600  6.21933E-02  1.22607E-01 -6.04139E-02
    8986.068     -8.128  -0.560  6.66148E-02  1.34850E-01 -6.82350E-02
    8986.233     -7.964  -0.520  7.14490E-02  1.48477E-01 -7.70281E-02
    8986.385     -7.811  -0.480  7.66882E-02  1.63474E-01 -8.67856E-02
    8986.525     -7.671  -0.440  8.22921E-02  1.79709E-01 -9.74164E-02
    8986.653     -7.543  -0.400  8.81784E-02  1.96901E-01 -1.08723E-01
    8986.769     -7.427  -0.360  9.42189E-02  2.14613E-01 -1.20394E-01
    8986.873     -7.324  -0.320  1.00246E-01  2.32272E-01 -1.32026E-01
    8986.964     -7.232  -0.280  1.06068E-01  2.49243E-01 -1.43175E-01
    8987.043     -7.153  -0.240  1.11494E-01  2.64915E-01 -1.53421E-01
    8987.110     -7.086  -0.200  1.16351E-01  2.78773E-01 -1.62422E-01
    8987.165     -7.031  -0.160  1.20498E-01  2.90438E-01 -1.69940E-01
    8987.208     -6.988  -0.120  1.23829E-01  2.99666E-01 -1.75837E-01
    8987.238     -6.958  -0.080  1.26268E-01  3.06318E-01 -1.80050E-01
    8987.263     -6.934   0.000  1.28275E-01  3.11666E-01 -1.83391E-01
    8987.318     -6.879   0.120  1.32852E-01  3.23726E-01 -1.90874E-01
    8987.360     -6.836   0.160  1.36437E-01  3.33125E-01 -1.96687E-01
    8987.415     -6.781   0.200  1.41067E-01  3.45131E-01 -2.04064E-01
    8987.482     -6.714   0.240  1.46762E-01  3.59597E-01 -2.12836E-01
    8987.562     -6.635   0.280  1.53516E-01  3.76255E-01 -2.22740E-01
    8987.653     -6.543   0.320  1.61270E-01  3.94689E-01 -2.33418E-01
    8987.757     -6.440   0.360  1.69983E-01  4.14423E-01 -2.44440E-01
    8987.872     -6.324   0.400  1.79512E-01  4.34907E-01 -2.55395E-01
    8988.000     -6.196   0.440  1.89688E-01  4.55658E-01 -2.65970E-01
    8988.141     -6.056   0.480  2.00114E-01  4.76258E-01 -2.76144E-01
    8988.293     -5.903   0.520  2.10314E-01  4.96489E-01 -2.86175E-01
    8988.458     -5.739   0.560  2.19459E-01  5.16218E-01 -2.96759E-01
    8988.634     -5.562   0.600  2.26561E-01  5.35413E-01 -3.08852E-01
    8988.823     -5.373   0.640  2.30535E-01  5.54102E-01 -3.23567E-01
    8989.025     -5.172   0.680  2.30698E-01  5.72370E-01 -3.41672E-01
    8989.238     -4.959   0.720  2.27480E-01  5.90271E-01 -3.62791E-01
    8989.464     -4.733   0.760  2.23220E-01  6.07900E-01 -3.84679E-01
    8989.701     -4.495   0.800  2.21349E-01  6.25298E-01 -4.03949E-01
    8989.951     -4.245   0.840  2.24972E-01  6.42516E-01 -4.17544E-01
    8990.213     -3.983   0.880  2.36328E-01  6.59591E-01 -4.23264E-01
    8990.488     -3.709   0.920  2.57268E-01  6.76547E-01 -4.19279E-01
    8990.774     -3.422   0.960  2.89630E-01  6.93376E-01 -4.03747E-01
    8991.073     -3.124   1.000  3.34490E-01  7.10059E-01 -3.75569E-01
    8991.384     -2.813   1.040  3.88954E-01  7.26609E-01 -3.37655E-01
    8991.707     -2.490   1.080  4.41901E-01  7.42993E-01 -3.01091E-01
    8992.042     -2.154   1.120  4.75728E-01  7.59190E-01 -2.83462E-01
    8992.390     -1.807   1.160  4.77206E-01  7.75156E-01 -2.97950E-01
    8992.749     -1.447   1.200  4.52702E-01  7.90842E-01 -3.38139E-01
    8993.121     -1.075   1.240  4.28686E-01  8.06240E-01 -3.77554E-01
    8993.505     -0.691   1.280  4.27615E-01  8.21316E-01 -3.93702E-01
    8993.901     -0.295   1.320  4.52357E-01  8.35976E-01 -3.83619E-01
    8994.310      0.113   1.360  4.90943E-01  8.50248E-01 -3.59305E-01
    8994.730      0.534   1.400  5.36836E-01  8.64057E-01 -3.27221E-01
    8995.163      0.967   1.440  5.91139E-01  8.77390E-01 -2.86251E-01
    8995.608      1.412   1.480  6.40420E-01  8.90196E-01 -2.49776E-01
    8996.065      1.869   1.520  6.61353E-01  9.02465E-01 -2.41112E-01
    8996.535      2.338   1.560  6.46276E-01  9.14186E-01 -2.67910E-01
    8997.016      2.820   1.600  6.20786E-01  9.25311E-01 -3.04525E-01
    8997.510      3.314   1.640  6.18419E-01  9.35836E-01 -3.17418E-01
    8998.016      3.820   1.680  6.50279E-01  9.45778E-01 -2.95499E-01
    8998.534      4.338   1.720  7.12815E-01  9.55070E-01 -2.42255E-01
    8999.065      4.868   1.760  8.00345E-01  9.63777E-01 -1.63432E-01
    8999.607      5.411   1.800  8.98748E-01  9.71837E-01 -7.30889E-02
    9000.162      5.965   1.840  9.95596E-01  9.79315E-01  1.62802E-02
    9000.729      6.532   1.880  1.09308E+00  9.86177E-01  1.06899E-01
    9001.308      7.112   1.920  1.20123E+00  9.92425E-01  2.08808E-01
    9001.899      7.703   1.960  1.32121E+00  9.98109E-01  3.23096E-01
    9002.503      8.306   2.000  1.43235E+00  1.00324E+00  4.29114E-01
    9003.118      8.922   2.040  1.51551E+00  1.00781E+00  5.07701E-01
    9003.746      9.550   2.080  1.56335E+00  1.01186E+00  5.51492E-01
    9004.386     10.190   2.120  1.57451E+00  1.01541E+00  5.59102E-01
    9005.039     10.842   2.160  1.53093E+00  1.01849E+00  5.12442E-01
    9005.703     11.507   2.200  1.42488E+00  1.02111E+00  4.03763E-01
    9006.380     12.183   2.240  1.31024E+00  1.02329E+00  2.86949E-01
    9007.069     12.872   2.280  1.23406E+00  1.02508E+00  2.08983E-01
    9007.770     13.573   2.320  1.19635E+00  1.02647E+00  1.69878E-01
    9008.483     14.286   2.360  1.17423E+00  1.02751E+00  1.46721E-01
    9009.208     15.012   2.400  1.14760E+00  1.02823E+00  1.19379E-01
    9009.946     15.750   2.440  1.12458E+00  1.02864E+00  9.59385E-02
    9010.696     16.499   2.480  1.12784E+00  1.02879E+00  9.90498E-02
    9011.458     17.261   2.520  1.15979E+00  1.02867E+00  1.31116E-01
    9012.232     18.036   2.560  1.20357E+00  1.02831E+00  1.75261E-01
    9013.018     18.822   2.600  1.22933E+00  1.02776E+00  2.01566E-01
    9013.817     19.620   2.640  1.22160E+00  1.02704E+00  1.94562E-01
    9014.628     20.431   2.680  1.18826E+00  1.02613E+00  1.62136E-01
    9015.451     21.254   2.720  1.14427E+00  1.02508E+00  1.19192E-01
    9016.286     22.089   2.760  1.10192E+00  1.02391E+00  7.80146E-02
    9017.133     22.937   2.800  1.06626E+00  1.02264E+00  4.36173E-02
    9017.993     23.796   2.840  1.03770E+00  1.02129E+00  1.64154E-02
    9018.864     24.668   2.880  1.01468E+00  1.01983E+00 -5.15449E-03
    9019.748     25.552   2.920  9.95173E-01  1.01835E+00 -2.31799E-02
    9020.644     26.448   2.960  9.77778E-01  1.01683E+00 -3.90501E-02
    9021.553     27.356   3.000  9.61743E-01  1.01527E+00 -5.35245E-02
    9022.473     28.277   3.040  9.46477E-01  1.01368E+00 -6.72002E-02
    9023.406     29.209   3.080  9.31779E-01  1.01211E+00 -8.03258E-02
    9024.351     30.154   3.120  9.17832E-01  1.01054E+00 -9.27037E-02
    9025.308     31.111   3.160  9.05244E-01  1.00898E+00 -1.03732E-01
    9026.277     32.081   3.200  8.95050E-01  1.00747E+00 -1.12418E-01
    9027.259     33.062   3.240  8.88118E-01  1.00598E+00 -1.17860E-01
    9028.252     34.056   3.280  8.84115E-01  1.00453E+00 -1.20415E-01
    9029.258     35.062   3.320  8.81984E-01  1.00312E+00 -1.21140E-01
    9030.276     36.080   3.360  8.80630E-01  1.00179E+00 -1.21159E-01
    9031.306     37.110   3.400  8.79220E-01  1.00053E+00 -1.21306E-01
    9032.349     38.152   3.440  8.77428E-01  9.99317E-01 -1.21888E-01
    9033.403     39.207   3.480  8.75487E-01  9.98182E-01 -1.22695E-01
    9034.470     40.274   3.520  8.74143E-01  9.97125E-01 -1.22982E-01
    9035.549     41.353   3.560  8.74104E-01  9.96127E-01 -1.22023E-01
    9036.640     42.444   3.600  8.76295E-01  9.95232E-01 -1.18937E-01
    9037.744     43.547   3.640  8.81360E-01  9.94421E-01 -1.13061E-01
    9038.859     44.663   3.680  8.89519E-01  9.93694E-01 -1.04175E-01
    9039.987     45.790   3.720  9.00464E-01  9.93073E-01 -9.26092E-02
    9041.127     46.930   3.760  9.13459E-01  9.92516E-01 -7.90565E-02
    9042.279     48.083   3.800  9.27503E-01  9.92063E-01 -6.45602E-02
    9043.443     49.247   3.840  9.41283E-01  9.91696E-01 -5.04130E-02
    9044.620     50.423   3.880  9.53681E-01  9.91413E-01 -3.77324E-02
    9045.809     51.612   3.920  9.64024E-01  9.91214E-01 -2.71898E-02
    9047.010     52.813   3.960  9.72120E-01  9.91120E-01 -1.90000E-02
    9048.223     54.026   4.000  9.78207E-01  9.91088E-01 -1.28813E-02
    9049.448     55.251   4.040  9.83043E-01  9.91159E-01 -8.11636E-03
    9050.685     56.489   4.080  9.87528E-01  9.91291E-01 -3.76305E-03
    9051.935     57.739   4.120  9.92549E-01  9.91525E-01  1.02411E-03
    9053.197     59.000   4.160  9.98505E-01  9.91816E-01  6.68901E-03
    9054.471     60.275   4.200  1.00544E+00  9.92206E-01  1.32293E-02
    9055.757     61.561   4.240  1.01295E+00  9.92651E-01  2.03005E-02
    9057.056     62.859   4.280  1.02071E+00  9.93150E-01  2.75559E-02
    9058.366     64.170   4.320  1.02849E+00  9.93744E-01  3.47409E-02
    9059.689     65.493   4.360  1.03601E+00  9.94387E-01  4.16198E-02
    9061.024     66.828   4.400  1.04306E+00  9.95077E-01  4.79834E-02
    9062.371     68.175   4.440  1.04964E+00  9.95812E-01  5.38310E-02
    9063.731     69.534   4.480  1.05608E+00  9.96611E-01  5.94721E-02
    9065.102     70.906   4.520  1.06278E+00  9.97431E-01  6.53475E-02
    9066.486     72.290   4.560  1.07017E+00  9.98313E-01  7.18590E-02
    9067.882     73.686   4.600  1.07822E+00  9.99234E-01  7.89830E-02
    9069.290     75.094   4.640  1.08641E+00  1.00017E+00  8.62413E-02
    9070.711     76.514   4.680  1.09406E+00  1.00113E+00  9.29269E-02
    9072.143     77.947   4.720  1.10035E+00  1.00210E+00  9.82473E-02
    9073.588     79.391   4.760  1.10460E+00  1.00310E+00  1.01500E-01
    9075.045     80.848   4.800  1.10635E+00  1.00408E+00  1.02269E-01
    9076.514     82.318   4.840  1.10550E+00  1.00509E+00  1.00414E-01
    9077.995     83.799   4.880  1.10203E+00  1.00609E+00  9.59328E-02
    9079.489     85.292   4.920  1.09589E+00  1.00710E+00  8.87885E-02
    9080.995     86.798   4.960  1.08676E+00  1.00809E+00  7.86643E-02
    9082.512     88.316   5.000  1.07417E+00  1.00906E+00  6.51079E-02
    9084.043     89.846   5.040  1.05801E+00  1.01002E+00  4.79889E-02
    9085.585     91.388   5.080  1.03894E+00  1.01094E+00  2.79971E-02
    9087.139     92.943   5.120  1.01855E+00  1.01183E+00  6.72415E-03
    9088.706     94.510   5.160  9.98833E-01  1.01270E+00 -1.38676E-02
    9090.285     96.088   5.200  9.81502E-01  1.01353E+00 -3.20298E-02
    9091.876     97.679   5.240  9.67727E-01  1.01430E+00 -4.65705E-02
    9093.479     99.283   5.280  9.58194E-01  1.01504E+00 -5.68479E-02
    9095.095    100.898   5.320  9.52994E-01  1.01572E+00 -6.27257E-02
    9096.722    102.526   5.360  9.51819E-01  1.01635E+00 -6.45312E-02
    9098.362    104.166   5.400  9.53963E-01  1.01693E+00 -6.29707E-02
    9100.014    105.818   5.440  9.58560E-01  1.01745E+00 -5.88866E-02
    9101.678    107.482   5.480  9.64957E-01  1.01791E+00 -5.29545E-02
    9103.355    109.158   5.520  9.72590E-01  1.01833E+00 -4.57367E-02
    9105.043    110.847   5.560  9.80588E-01  1.01867E+00 -3.80773E-02
    9106.744    112.548   5.600  9.87606E-01  1.01893E+00 -3.13243E-02
    9108.457    114.260   5.640  9.92126E-01  1.01914E+00 -2.70149E-02
    9110.182    115.986   5.680  9.93249E-01  1.01925E+00 -2.60040E-02
    9111.919    117.723   5.720  9.91456E-01  1.01934E+00 -2.78816E-02
    9113.669    119.473   5.760  9.88170E-01  1.01935E+00 -3.11785E-02
    9115.431    121.234   5.800  9.85022E-01  1.01928E+00 -3.42604E-02
    9117.205    123.008   5.840  9.83008E-01  1.01914E+00 -3.61332E-02
    9118.991    124.794   5.880  9.82250E-01  1.01895E+00 -3.66998E-02
    9120.789    126.593   5.920  9.82295E-01  1.01868E+00 -3.63874E-02
    9122.600    128.403   5.960  9.82787E-01  1.01833E+00 -3.55444E-02
    9124.422    130.226   6.000  9.84032E-01  1.01788E+00 -3.38489E-02
