# # comment:                                                     FEFF 9.9.1  
# # Source:
# # Structure
# # Reduced
# # space
# # abc:
# # angles:
# # sites:
# # POT  SCF 100  7.0000   0, screened core-hole, AFOLP (folp(0)= 1.150)
# # Abs   Z=29 Rmt= 1.166 Rnm= 1.341 K  shell
# # Pot 1 Z=19 Rmt= 1.842 Rnm= 1.890
# # Pot 2 Z=29 Rmt= 1.165 Rnm= 1.336
# # Pot 3 Z= 8 Rmt= 1.010 Rnm= 1.118
# # Gam_ch=1.729E+00 H-L exch Vi= 0.000E+00 Vr= 0.000E+00
# # Mu=-7.163E+00eV kf=1.968E+00 Vint=-1.483E+01eV Rs_int= 1.843
# FMS rfms= 9.0000
# # PATH  Rmax=-1.000,  Keep_limit= 0.00, Heap_limit 0.00  Pwcrit= 2.50%
#  S02=0.950  Temp=   0.00  Debye_temp=   0.00  Global_sig2= 0.00000
#  Energy zero shift, vr, vi    0.00000E+00   0.00000E+00
#  Curved wave amplitude ratio filter   4.000%
#     file         sig2 tot  cw amp ratio   deg  nlegs   reff  inp sig2
#     0/   0 paths used
#  xsedge+ 50, used to normalize mu           2.4173E-04
#  -----------------------------------------------------------------------
#  omega    e    k    mu    mu0     chi     @#
    8984.277    -10.973  -1.000  4.75004E-02  5.92265E-02 -1.17261E-02
    8984.576    -10.675  -0.960  5.06069E-02  6.35882E-02 -1.29814E-02
    8984.863    -10.388  -0.920  5.40376E-02  6.84349E-02 -1.43973E-02
    8985.137    -10.114  -0.880  5.78408E-02  7.38375E-02 -1.59967E-02
    8985.399     -9.852  -0.840  6.20731E-02  7.98785E-02 -1.78054E-02
    8985.649     -9.602  -0.800  6.68007E-02  8.66534E-02 -1.98527E-02
    8985.887     -9.364  -0.760  7.21005E-02  9.42716E-02 -2.21711E-02
    8986.112     -9.138  -0.720  7.80602E-02  1.02857E-01 -2.47964E-02
    8986.326     -8.925  -0.680  8.47777E-02  1.12544E-01 -2.77665E-02
    8986.527     -8.724  -0.640  9.23572E-02  1.23478E-01 -3.11206E-02
    8986.716     -8.535  -0.600  1.00902E-01  1.35798E-01 -3.48957E-02
    8986.893     -8.358  -0.560  1.10501E-01  1.49624E-01 -3.91230E-02
    8987.057     -8.194  -0.520  1.21205E-01  1.65026E-01 -4.38209E-02
    8987.210     -8.041  -0.480  1.33002E-01  1.81989E-01 -4.89877E-02
    8987.350     -7.901  -0.440  1.45773E-01  2.00364E-01 -5.45906E-02
    8987.478     -7.773  -0.400  1.59274E-01  2.19832E-01 -6.05576E-02
    8987.594     -7.657  -0.360  1.73122E-01  2.39894E-01 -6.67711E-02
    8987.697     -7.553  -0.320  1.86830E-01  2.59900E-01 -7.30699E-02
    8987.789     -7.462  -0.280  1.99870E-01  2.79129E-01 -7.92590E-02
    8987.868     -7.383  -0.240  2.11759E-01  2.96887E-01 -8.51275E-02
    8987.935     -7.316  -0.200  2.22120E-01  3.12588E-01 -9.04678E-02
    8987.990     -7.261  -0.160  2.30710E-01  3.25803E-01 -9.50927E-02
    8988.033     -7.218  -0.120  2.37409E-01  3.36256E-01 -9.88470E-02
    8988.063     -7.188  -0.080  2.42174E-01  3.43790E-01 -1.01616E-01
    8988.087     -7.163   0.000  2.45937E-01  3.49846E-01 -1.03909E-01
    8988.142     -7.108   0.120  2.54239E-01  3.63510E-01 -1.09271E-01
    8988.185     -7.066   0.160  2.60635E-01  3.74135E-01 -1.13499E-01
    8988.240     -7.011   0.200  2.68643E-01  3.87709E-01 -1.19066E-01
    8988.307     -6.944   0.240  2.78023E-01  4.04065E-01 -1.26042E-01
    8988.386     -6.865   0.280  2.88413E-01  4.22894E-01 -1.34481E-01
    8988.478     -6.773   0.320  2.99336E-01  4.43721E-01 -1.44385E-01
    8988.581     -6.670   0.360  3.10272E-01  4.65958E-01 -1.55686E-01
    8988.697     -6.554   0.400  3.20830E-01  4.89017E-01 -1.68188E-01
    8988.825     -6.426   0.440  3.30811E-01  5.12323E-01 -1.81512E-01
    8988.965     -6.285   0.480  3.40354E-01  5.35402E-01 -1.95048E-01
    8989.118     -6.133   0.520  3.50108E-01  5.57998E-01 -2.07891E-01
    8989.282     -5.968   0.560  3.60961E-01  5.79919E-01 -2.18959E-01
    8989.459     -5.792   0.600  3.74013E-01  6.01167E-01 -2.27154E-01
    8989.648     -5.603   0.640  3.89998E-01  6.21755E-01 -2.31757E-01
    8989.849     -5.402   0.680  4.08986E-01  6.41754E-01 -2.32768E-01
    8990.062     -5.188   0.720  4.30114E-01  6.61250E-01 -2.31136E-01
    8990.288     -4.963   0.760  4.51654E-01  6.80305E-01 -2.28651E-01
    8990.526     -4.725   0.800  4.71725E-01  6.98990E-01 -2.27265E-01
    8990.776     -4.475   0.840  4.89332E-01  7.17363E-01 -2.28030E-01
    8991.038     -4.213   0.880  5.04933E-01  7.35423E-01 -2.30490E-01
    8991.312     -3.939   0.920  5.19842E-01  7.53221E-01 -2.33378E-01
    8991.599     -3.652   0.960  5.35032E-01  7.70727E-01 -2.35695E-01
    8991.897     -3.353   1.000  5.51016E-01  7.87966E-01 -2.36950E-01
    8992.208     -3.042   1.040  5.68044E-01  8.04891E-01 -2.36847E-01
    8992.531     -2.719   1.080  5.86098E-01  8.21467E-01 -2.35369E-01
    8992.867     -2.384   1.120  6.05540E-01  8.37674E-01 -2.32134E-01
    8993.214     -2.037   1.160  6.28336E-01  8.53488E-01 -2.25152E-01
    8993.574     -1.677   1.200  6.57231E-01  8.68863E-01 -2.11631E-01
    8993.946     -1.305   1.240  6.92091E-01  8.83745E-01 -1.91654E-01
    8994.330     -0.921   1.280  7.27693E-01  8.98128E-01 -1.70435E-01
    8994.726     -0.525   1.320  7.57348E-01  9.11937E-01 -1.54589E-01
    8995.134     -0.116   1.360  7.79838E-01  9.25162E-01 -1.45323E-01
    8995.555      0.304   1.400  8.00069E-01  9.37793E-01 -1.37724E-01
    8995.988      0.737   1.440  8.23772E-01  9.49761E-01 -1.25989E-01
    8996.433      1.182   1.480  8.50506E-01  9.61058E-01 -1.10552E-01
    8996.890      1.639   1.520  8.72006E-01  9.71679E-01 -9.96735E-02
    8997.359      2.109   1.560  8.82122E-01  9.81623E-01 -9.95009E-02
    8997.841      2.590   1.600  8.84361E-01  9.90866E-01 -1.06505E-01
    8998.335      3.084   1.640  8.84482E-01  9.99388E-01 -1.14906E-01
    8998.841      3.590   1.680  8.87075E-01  1.00721E+00 -1.20139E-01
    8999.359      4.108   1.720  8.98438E-01  1.01435E+00 -1.15911E-01
    8999.889      4.639   1.760  9.25842E-01  1.02082E+00 -9.49775E-02
    9000.432      5.181   1.800  9.72880E-01  1.02659E+00 -5.37134E-02
    9000.986      5.736   1.840  1.03308E+00  1.03172E+00  1.36187E-03
    9001.553      6.303   1.880  1.09185E+00  1.03624E+00  5.56162E-02
    9002.132      6.882   1.920  1.14194E+00  1.04013E+00  1.01812E-01
    9002.724      7.473   1.960  1.18767E+00  1.04346E+00  1.44208E-01
    9003.327      8.077   2.000  1.23041E+00  1.04624E+00  1.84177E-01
    9003.943      8.692   2.040  1.26415E+00  1.04848E+00  2.15676E-01
    9004.571      9.320   2.080  1.28515E+00  1.05021E+00  2.34940E-01
    9005.211      9.960   2.120  1.29729E+00  1.05151E+00  2.45781E-01
    9005.863     10.613   2.160  1.30651E+00  1.05235E+00  2.54151E-01
    9006.528     11.277   2.200  1.31459E+00  1.05281E+00  2.61778E-01
    9007.204     11.954   2.240  1.31850E+00  1.05289E+00  2.65616E-01
    9007.893     12.643   2.280  1.31248E+00  1.05263E+00  2.59854E-01
    9008.594     13.344   2.320  1.28968E+00  1.05207E+00  2.37612E-01
    9009.307     14.057   2.360  1.24677E+00  1.05122E+00  1.95553E-01
    9010.033     14.782   2.400  1.19355E+00  1.05014E+00  1.43410E-01
    9010.770     15.520   2.440  1.14899E+00  1.04882E+00  1.00176E-01
    9011.520     16.270   2.480  1.11402E+00  1.04729E+00  6.67233E-02
    9012.282     17.032   2.520  1.08692E+00  1.04559E+00  4.13271E-02
    9013.056     17.806   2.560  1.06626E+00  1.04376E+00  2.25060E-02
    9013.843     18.592   2.600  1.05100E+00  1.04177E+00  9.22419E-03
    9014.641     19.391   2.640  1.04042E+00  1.03971E+00  7.02007E-04
    9015.452     20.202   2.680  1.03325E+00  1.03755E+00 -4.29898E-03
    9016.275     21.025   2.720  1.02882E+00  1.03533E+00 -6.51231E-03
    9017.110     21.860   2.760  1.02625E+00  1.03307E+00 -6.81575E-03
    9017.958     22.707   2.800  1.02460E+00  1.03077E+00 -6.16628E-03
    9018.817     23.567   2.840  1.02328E+00  1.02848E+00 -5.19673E-03
    9019.689     24.438   2.880  1.02158E+00  1.02617E+00 -4.58481E-03
    9020.573     25.322   2.920  1.01899E+00  1.02386E+00 -4.87269E-03
    9021.469     26.218   2.960  1.01538E+00  1.02159E+00 -6.21548E-03
    9022.377     27.127   3.000  1.01072E+00  1.01938E+00 -8.66394E-03
    9023.298     28.047   3.040  1.00499E+00  1.01719E+00 -1.22067E-02
    9024.230     28.980   3.080  9.98343E-01  1.01507E+00 -1.67298E-02
    9025.175     29.925   3.120  9.91030E-01  1.01303E+00 -2.19965E-02
    9026.132     30.882   3.160  9.83300E-01  1.01104E+00 -2.77368E-02
    9027.102     31.851   3.200  9.75392E-01  1.00915E+00 -3.37577E-02
    9028.083     32.832   3.240  9.67564E-01  1.00733E+00 -3.97618E-02
    9029.077     33.826   3.280  9.60041E-01  1.00561E+00 -4.55676E-02
    9030.083     34.832   3.320  9.52929E-01  1.00400E+00 -5.10747E-02
    9031.101     35.850   3.360  9.46369E-01  1.00247E+00 -5.60999E-02
    9032.131     36.880   3.400  9.40713E-01  1.00107E+00 -6.03558E-02
    9033.173     37.923   3.440  9.36163E-01  9.99765E-01 -6.36014E-02
    9034.228     38.977   3.480  9.32941E-01  9.98577E-01 -6.56359E-02
    9035.295     40.044   3.520  9.31210E-01  9.97507E-01 -6.62966E-02
    9036.374     41.123   3.560  9.30906E-01  9.96534E-01 -6.56275E-02
    9037.465     42.214   3.600  9.31922E-01  9.95678E-01 -6.37560E-02
    9038.568     43.317   3.640  9.34175E-01  9.94942E-01 -6.07675E-02
    9039.684     44.433   3.680  9.37480E-01  9.94327E-01 -5.68465E-02
    9040.811     45.561   3.720  9.41466E-01  9.93830E-01 -5.23641E-02
    9041.951     46.701   3.760  9.45711E-01  9.93431E-01 -4.77195E-02
    9043.104     47.853   3.800  9.49851E-01  9.93171E-01 -4.33201E-02
    9044.268     49.017   3.840  9.53456E-01  9.92985E-01 -3.95285E-02
    9045.444     50.194   3.880  9.56307E-01  9.92936E-01 -3.66290E-02
    9046.633     51.382   3.920  9.58299E-01  9.92982E-01 -3.46826E-02
    9047.834     52.583   3.960  9.59585E-01  9.93141E-01 -3.35558E-02
    9049.047     53.796   4.000  9.60455E-01  9.93392E-01 -3.29374E-02
    9050.272     55.022   4.040  9.61327E-01  9.93754E-01 -3.24271E-02
    9051.510     56.259   4.080  9.62568E-01  9.94204E-01 -3.16362E-02
    9052.760     57.509   4.120  9.64523E-01  9.94738E-01 -3.02154E-02
    9054.021     58.771   4.160  9.67552E-01  9.95356E-01 -2.78039E-02
    9055.295     60.045   4.200  9.72071E-01  9.96057E-01 -2.39860E-02
    9056.582     61.331   4.240  9.78530E-01  9.96859E-01 -1.83287E-02
    9057.880     62.630   4.280  9.87201E-01  9.97694E-01 -1.04938E-02
    9059.191     63.940   4.320  9.98254E-01  9.98627E-01 -3.73090E-04
    9060.514     65.263   4.360  1.01144E+00  9.99609E-01  1.18311E-02
    9061.849     66.598   4.400  1.02626E+00  1.00064E+00  2.56217E-02
    9063.196     67.945   4.440  1.04205E+00  1.00174E+00  4.03103E-02
    9064.555     69.305   4.480  1.05800E+00  1.00288E+00  5.51140E-02
    9065.927     70.676   4.520  1.07325E+00  1.00406E+00  6.91908E-02
    9067.311     72.060   4.560  1.08696E+00  1.00526E+00  8.17007E-02
    9068.707     73.456   4.600  1.09836E+00  1.00651E+00  9.18433E-02
    9070.115     74.864   4.640  1.10657E+00  1.00775E+00  9.88154E-02
    9071.535     76.285   4.680  1.11092E+00  1.00905E+00  1.01876E-01
    9072.968     77.717   4.720  1.11085E+00  1.01032E+00  1.00526E-01
    9074.412     79.162   4.760  1.10639E+00  1.01162E+00  9.47704E-02
    9075.869     80.619   4.800  1.09814E+00  1.01289E+00  8.52476E-02
    9077.339     82.088   4.840  1.08719E+00  1.01418E+00  7.30069E-02
    9078.820     83.569   4.880  1.07460E+00  1.01545E+00  5.91580E-02
    9080.313     85.063   4.920  1.06132E+00  1.01667E+00  4.46485E-02
    9081.819     86.568   4.960  1.04800E+00  1.01789E+00  3.01101E-02
    9083.337     88.086   5.000  1.03487E+00  1.01907E+00  1.58037E-02
    9084.867     89.616   5.040  1.02203E+00  1.02021E+00  1.81963E-03
    9086.409     91.159   5.080  1.00974E+00  1.02133E+00 -1.15878E-02
    9087.964     92.713   5.120  9.98685E-01  1.02239E+00 -2.37028E-02
    9089.530     94.280   5.160  9.89916E-01  1.02339E+00 -3.34779E-02
    9091.109     95.859   5.200  9.84311E-01  1.02433E+00 -4.00177E-02
    9092.700     97.450   5.240  9.82142E-01  1.02521E+00 -4.30694E-02
    9094.304     99.053   5.280  9.82853E-01  1.02602E+00 -4.31672E-02
    9095.919    100.668   5.320  9.85441E-01  1.02678E+00 -4.13351E-02
    9097.547    102.296   5.360  9.88834E-01  1.02746E+00 -3.86219E-02
    9099.187    103.936   5.400  9.92350E-01  1.02808E+00 -3.57295E-02
    9100.839    105.588   5.440  9.95658E-01  1.02860E+00 -3.29431E-02
    9102.503    107.252   5.480  9.98802E-01  1.02906E+00 -3.02598E-02
    9104.179    108.928   5.520  1.00184E+00  1.02942E+00 -2.75745E-02
    9105.868    110.617   5.560  1.00489E+00  1.02972E+00 -2.48273E-02
    9107.568    112.318   5.600  1.00793E+00  1.02993E+00 -2.20042E-02
    9109.281    114.031   5.640  1.01091E+00  1.03004E+00 -1.91350E-02
    9111.007    115.756   5.680  1.01377E+00  1.03009E+00 -1.63187E-02
    9112.744    117.493   5.720  1.01625E+00  1.03006E+00 -1.38092E-02
    9114.493    119.243   5.760  1.01800E+00  1.02992E+00 -1.19224E-02
    9116.255    121.005   5.800  1.01901E+00  1.02973E+00 -1.07176E-02
    9118.029    122.779   5.840  1.01977E+00  1.02943E+00 -9.65775E-03
    9119.815    124.565   5.880  1.02146E+00  1.02908E+00 -7.61861E-03
    9121.614    126.363   5.920  1.02516E+00  1.02865E+00 -3.48867E-03
    9123.424    128.173   5.960  1.03100E+00  1.02813E+00  2.86610E-03
    9125.247    129.996   6.000  1.03755E+00  1.02750E+00  1.00444E-02
