# # comment:                                                     FEFF 9.9.1  
# # Source:
# # Structure
# # Reduced
# # space
# # abc:
# # angles:
# # sites:
# # POT  SCF 100  7.0000   0, screened core-hole, AFOLP (folp(0)= 1.150)
# # Abs   Z=29 Rmt= 1.201 Rnm= 1.316 K  shell
# # Pot 1 Z=29 Rmt= 1.174 Rnm= 1.293
# # Pot 2 Z= 5 Rmt= 0.749 Rnm= 0.989
# # Pot 3 Z= 8 Rmt= 1.002 Rnm= 1.111
# # Gam_ch=1.729E+00 H-L exch Vi= 0.000E+00 Vr= 0.000E+00
# # Mu=-7.121E+00eV kf=2.247E+00 Vint=-1.564E+01eV Rs_int= 1.614
# FMS rfms= 9.0000
# # PATH  Rmax=-1.000,  Keep_limit= 0.00, Heap_limit 0.00  Pwcrit= 2.50%
#  S02=0.950  Temp=   0.00  Debye_temp=   0.00  Global_sig2= 0.00000
#  Energy zero shift, vr, vi    0.00000E+00   0.00000E+00
#  Curved wave amplitude ratio filter   4.000%
#     file         sig2 tot  cw amp ratio   deg  nlegs   reff  inp sig2
#     0/   0 paths used
#  xsedge+ 50, used to normalize mu           2.4568E-04
#  -----------------------------------------------------------------------
#  omega    e    k    mu    mu0     chi     @#
    8983.447    -10.931  -1.000  3.51116E-02  5.42182E-02 -1.91067E-02
    8983.746    -10.633  -0.960  3.67242E-02  5.81543E-02 -2.14302E-02
    8984.033    -10.346  -0.920  3.84290E-02  6.25272E-02 -2.40982E-02
    8984.307    -10.072  -0.880  4.02324E-02  6.74009E-02 -2.71685E-02
    8984.569     -9.810  -0.840  4.21413E-02  7.28500E-02 -3.07087E-02
    8984.819     -9.560  -0.800  4.41633E-02  7.89611E-02 -3.47978E-02
    8985.057     -9.322  -0.760  4.63065E-02  8.58332E-02 -3.95267E-02
    8985.282     -9.096  -0.720  4.85795E-02  9.35783E-02 -4.49988E-02
    8985.496     -8.883  -0.680  5.09912E-02  1.02320E-01 -5.13286E-02
    8985.697     -8.682  -0.640  5.35498E-02  1.12188E-01 -5.86379E-02
    8985.886     -8.493  -0.600  5.62620E-02  1.23310E-01 -6.70477E-02
    8986.063     -8.316  -0.560  5.91306E-02  1.35795E-01 -7.66641E-02
    8986.227     -8.152  -0.520  6.21517E-02  1.49707E-01 -8.75556E-02
    8986.380     -7.999  -0.480  6.53103E-02  1.65033E-01 -9.97224E-02
    8986.520     -7.859  -0.440  6.85759E-02  1.81637E-01 -1.13061E-01
    8986.648     -7.731  -0.400  7.18982E-02  1.99231E-01 -1.27332E-01
    8986.764     -7.615  -0.360  7.52076E-02  2.17361E-01 -1.42154E-01
    8986.867     -7.512  -0.320  7.84195E-02  2.35440E-01 -1.57021E-01
    8986.959     -7.420  -0.280  8.14444E-02  2.52813E-01 -1.71368E-01
    8987.038     -7.341  -0.240  8.41998E-02  2.68850E-01 -1.84650E-01
    8987.105     -7.274  -0.200  8.66185E-02  2.83025E-01 -1.96407E-01
    8987.160     -7.219  -0.160  8.86515E-02  2.94951E-01 -2.06300E-01
    8987.203     -7.176  -0.120  9.02659E-02  3.04380E-01 -2.14114E-01
    8987.233     -7.146  -0.080  9.14408E-02  3.11174E-01 -2.19733E-01
    8987.257     -7.121   0.000  9.24132E-02  3.16633E-01 -2.24219E-01
    8987.312     -7.066   0.120  9.46590E-02  3.28930E-01 -2.34271E-01
    8987.355     -7.024   0.160  9.63607E-02  3.38504E-01 -2.42144E-01
    8987.410     -6.969   0.200  9.85109E-02  3.50722E-01 -2.52212E-01
    8987.477     -6.902   0.240  1.01120E-01  3.65443E-01 -2.64323E-01
    8987.556     -6.823   0.280  1.04136E-01  3.82336E-01 -2.78200E-01
    8987.648     -6.731   0.320  1.07612E-01  4.01001E-01 -2.93389E-01
    8987.751     -6.628   0.360  1.11567E-01  4.20910E-01 -3.09343E-01
    8987.867     -6.512   0.400  1.16050E-01  4.41483E-01 -3.25433E-01
    8987.995     -6.384   0.440  1.21203E-01  4.62186E-01 -3.40983E-01
    8988.135     -6.244   0.480  1.27228E-01  4.82624E-01 -3.55396E-01
    8988.288     -6.091   0.520  1.34400E-01  5.02545E-01 -3.68145E-01
    8988.452     -5.927   0.560  1.43002E-01  5.21809E-01 -3.78807E-01
    8988.629     -5.750   0.600  1.53367E-01  5.40406E-01 -3.87040E-01
    8988.818     -5.561   0.640  1.65710E-01  5.58329E-01 -3.92619E-01
    8989.019     -5.360   0.680  1.80218E-01  5.75710E-01 -3.95492E-01
    8989.233     -5.146   0.720  1.96868E-01  5.92612E-01 -3.95744E-01
    8989.458     -4.921   0.760  2.15835E-01  6.09118E-01 -3.93283E-01
    8989.696     -4.683   0.800  2.37917E-01  6.25279E-01 -3.87362E-01
    8989.946     -4.433   0.840  2.64968E-01  6.41197E-01 -3.76229E-01
    8990.208     -4.171   0.880  2.99398E-01  6.56897E-01 -3.57499E-01
    8990.482     -3.897   0.920  3.43569E-01  6.72411E-01 -3.28841E-01
    8990.769     -3.610   0.960  3.98700E-01  6.87761E-01 -2.89061E-01
    8991.067     -3.311   1.000  4.64088E-01  7.02937E-01 -2.38849E-01
    8991.378     -3.000   1.040  5.35837E-01  7.17959E-01 -1.82122E-01
    8991.701     -2.677   1.080  6.02758E-01  7.32803E-01 -1.30045E-01
    8992.037     -2.342   1.120  6.47824E-01  7.47456E-01 -9.96321E-02
    8992.384     -1.995   1.160  6.62935E-01  7.61901E-01 -9.89660E-02
    8992.744     -1.635   1.200  6.55986E-01  7.76097E-01 -1.20111E-01
    8993.116     -1.263   1.240  6.41153E-01  7.90061E-01 -1.48908E-01
    8993.500     -0.879   1.280  6.28854E-01  8.03727E-01 -1.74873E-01
    8993.896     -0.483   1.320  6.26224E-01  8.17066E-01 -1.90842E-01
    8994.304     -0.074   1.360  6.39820E-01  8.30072E-01 -1.90252E-01
    8994.725      0.346   1.400  6.71333E-01  8.42716E-01 -1.71383E-01
    8995.158      0.779   1.440  7.14219E-01  8.54969E-01 -1.40750E-01
    8995.603      1.224   1.480  7.54628E-01  8.66782E-01 -1.12154E-01
    8996.060      1.681   1.520  7.81773E-01  8.78168E-01 -9.63956E-02
    8996.529      2.151   1.560  8.00927E-01  8.89101E-01 -8.81736E-02
    8997.011      2.632   1.600  8.23976E-01  8.99553E-01 -7.55771E-02
    8997.505      3.126   1.640  8.57036E-01  9.09501E-01 -5.24650E-02
    8998.011      3.632   1.680  8.96858E-01  9.18980E-01 -2.21226E-02
    8998.529      4.150   1.720  9.38908E-01  9.27929E-01  1.09790E-02
    8999.059      4.680   1.760  9.83411E-01  9.36368E-01  4.70435E-02
    8999.602      5.223   1.800  1.02988E+00  9.44315E-01  8.55634E-02
    9000.157      5.778   1.840  1.08344E+00  9.51734E-01  1.31709E-01
    9000.723      6.345   1.880  1.15490E+00  9.58666E-01  1.96232E-01
    9001.303      6.924   1.920  1.23759E+00  9.65077E-01  2.72517E-01
    9001.894      7.515   1.960  1.30415E+00  9.71010E-01  3.33141E-01
    9002.497      8.119   2.000  1.34335E+00  9.76452E-01  3.66898E-01
    9003.113      8.734   2.040  1.36045E+00  9.81430E-01  3.79019E-01
    9003.741      9.362   2.080  1.34214E+00  9.85953E-01  3.56190E-01
    9004.381     10.002   2.120  1.28110E+00  9.90047E-01  2.91053E-01
    9005.033     10.654   2.160  1.20846E+00  9.93702E-01  2.14758E-01
    9005.698     11.319   2.200  1.14799E+00  9.96969E-01  1.51024E-01
    9006.374     11.996   2.240  1.10335E+00  9.99834E-01  1.03516E-01
    9007.063     12.684   2.280  1.07871E+00  1.00235E+00  7.63571E-02
    9007.764     13.385   2.320  1.07328E+00  1.00451E+00  6.87730E-02
    9008.478     14.099   2.360  1.08046E+00  1.00636E+00  7.40964E-02
    9009.203     14.824   2.400  1.09601E+00  1.00790E+00  8.81130E-02
    9009.941     15.562   2.440  1.11872E+00  1.00916E+00  1.09561E-01
    9010.690     16.312   2.480  1.14402E+00  1.01015E+00  1.33867E-01
    9011.452     17.074   2.520  1.16624E+00  1.01090E+00  1.55341E-01
    9012.227     17.848   2.560  1.18530E+00  1.01142E+00  1.73878E-01
    9013.013     18.634   2.600  1.19230E+00  1.01174E+00  1.80559E-01
    9013.811     19.433   2.640  1.17278E+00  1.01186E+00  1.60924E-01
    9014.622     20.243   2.680  1.13001E+00  1.01181E+00  1.18193E-01
    9015.445     21.066   2.720  1.08684E+00  1.01163E+00  7.52152E-02
    9016.280     21.902   2.760  1.04800E+00  1.01129E+00  3.67129E-02
    9017.128     22.749   2.800  1.01395E+00  1.01083E+00  3.11884E-03
    9017.987     23.608   2.840  9.84407E-01  1.01027E+00 -2.58638E-02
    9018.859     24.480   2.880  9.59959E-01  1.00963E+00 -4.96678E-02
    9019.743     25.364   2.920  9.40992E-01  1.00890E+00 -6.79119E-02
    9020.639     26.260   2.960  9.27406E-01  1.00811E+00 -8.07012E-02
    9021.547     27.168   3.000  9.18189E-01  1.00728E+00 -8.90935E-02
    9022.468     28.089   3.040  9.11856E-01  1.00640E+00 -9.45405E-02
    9023.400     29.022   3.080  9.07283E-01  1.00549E+00 -9.82114E-02
    9024.345     29.967   3.120  9.03750E-01  1.00456E+00 -1.00810E-01
    9025.302     30.924   3.160  9.01039E-01  1.00362E+00 -1.02580E-01
    9026.272     31.893   3.200  8.99192E-01  1.00267E+00 -1.03483E-01
    9027.253     32.874   3.240  8.98288E-01  1.00173E+00 -1.03446E-01
    9028.247     33.868   3.280  8.97832E-01  1.00082E+00 -1.02989E-01
    9029.253     34.874   3.320  8.97212E-01  9.99916E-01 -1.02704E-01
    9030.271     35.892   3.360  8.96119E-01  9.99043E-01 -1.02924E-01
    9031.301     36.922   3.400  8.94679E-01  9.98206E-01 -1.03526E-01
    9032.343     37.964   3.440  8.93410E-01  9.97385E-01 -1.03975E-01
    9033.398     39.019   3.480  8.93144E-01  9.96625E-01 -1.03482E-01
    9034.465     40.086   3.520  8.94711E-01  9.95908E-01 -1.01197E-01
    9035.544     41.165   3.560  8.98548E-01  9.95233E-01 -9.66858E-02
    9036.635     42.256   3.600  9.04827E-01  9.94603E-01 -8.97752E-02
    9037.738     43.359   3.640  9.13471E-01  9.94040E-01 -8.05695E-02
    9038.854     44.475   3.680  9.24047E-01  9.93526E-01 -6.94791E-02
    9039.982     45.603   3.720  9.35849E-01  9.93080E-01 -5.72302E-02
    9041.121     46.743   3.760  9.48083E-01  9.92680E-01 -4.45974E-02
    9042.274     47.895   3.800  9.60025E-01  9.92328E-01 -3.23032E-02
    9043.438     49.059   3.840  9.71206E-01  9.92046E-01 -2.08399E-02
    9044.614     50.236   3.880  9.81574E-01  9.91812E-01 -1.02377E-02
    9045.803     51.424   3.920  9.91405E-01  9.91647E-01 -2.41894E-04
    9047.004     52.625   3.960  1.00078E+00  9.91531E-01  9.24717E-03
    9048.217     53.838   4.000  1.00958E+00  9.91485E-01  1.80927E-02
    9049.442     55.064   4.040  1.01751E+00  9.91484E-01  2.60220E-02
    9050.680     56.301   4.080  1.02438E+00  9.91530E-01  3.28496E-02
    9051.930     57.551   4.120  1.03027E+00  9.91642E-01  3.86301E-02
    9053.191     58.813   4.160  1.03544E+00  9.91799E-01  4.36426E-02
    9054.466     60.087   4.200  1.04019E+00  9.92000E-01  4.81914E-02
    9055.752     61.373   4.240  1.04472E+00  9.92242E-01  5.24805E-02
    9057.050     62.671   4.280  1.04928E+00  9.92547E-01  5.67296E-02
    9058.361     63.982   4.320  1.05396E+00  9.92870E-01  6.10910E-02
    9059.684     65.305   4.360  1.05879E+00  9.93230E-01  6.55604E-02
    9061.019     66.640   4.400  1.06355E+00  9.93627E-01  6.99207E-02
    9062.366     67.987   4.440  1.06781E+00  9.94062E-01  7.37522E-02
    9063.725     69.347   4.480  1.07097E+00  9.94530E-01  7.64390E-02
    9065.097     70.718   4.520  1.07231E+00  9.95009E-01  7.72993E-02
    9066.481     72.102   4.560  1.07138E+00  9.95517E-01  7.58646E-02
    9067.877     73.498   4.600  1.06793E+00  9.96032E-01  7.18928E-02
    9069.285     74.906   4.640  1.06203E+00  9.96553E-01  6.54820E-02
    9070.705     76.326   4.680  1.05416E+00  9.97100E-01  5.70576E-02
    9072.138     77.759   4.720  1.04490E+00  9.97650E-01  4.72468E-02
    9073.583     79.204   4.760  1.03499E+00  9.98201E-01  3.67913E-02
    9075.039     80.661   4.800  1.02518E+00  9.98749E-01  2.64312E-02
    9076.509     82.130   4.840  1.01608E+00  9.99295E-01  1.67822E-02
    9077.990     83.611   4.880  1.00811E+00  9.99816E-01  8.29125E-03
    9079.483     85.105   4.920  1.00155E+00  1.00035E+00  1.19878E-03
    9080.989     86.610   4.960  9.96373E-01  1.00086E+00 -4.48920E-03
    9082.507     88.128   5.000  9.92430E-01  1.00136E+00 -8.93287E-03
    9084.037     89.658   5.040  9.89390E-01  1.00183E+00 -1.24423E-02
    9085.579     91.201   5.080  9.86869E-01  1.00229E+00 -1.54198E-02
    9087.134     92.755   5.120  9.84390E-01  1.00271E+00 -1.83216E-02
    9088.701     94.322   5.160  9.81510E-01  1.00310E+00 -2.15903E-02
    9090.279     95.901   5.200  9.77992E-01  1.00347E+00 -2.54812E-02
    9091.870     97.492   5.240  9.73883E-01  1.00381E+00 -2.99269E-02
    9093.474     99.095   5.280  9.69652E-01  1.00411E+00 -3.44555E-02
    9095.089    100.710   5.320  9.66014E-01  1.00437E+00 -3.83508E-02
    9096.717    102.338   5.360  9.63698E-01  1.00458E+00 -4.08850E-02
    9098.357    103.978   5.400  9.63172E-01  1.00476E+00 -4.15886E-02
    9100.009    105.630   5.440  9.64515E-01  1.00492E+00 -4.04069E-02
    9101.673    107.294   5.480  9.67235E-01  1.00502E+00 -3.77850E-02
    9103.349    108.970   5.520  9.70585E-01  1.00508E+00 -3.44898E-02
    9105.038    110.659   5.560  9.73856E-01  1.00511E+00 -3.12573E-02
    9106.739    112.360   5.600  9.76664E-01  1.00509E+00 -2.84231E-02
    9108.451    114.073   5.640  9.79151E-01  1.00502E+00 -2.58661E-02
    9110.177    115.798   5.680  9.81637E-01  1.00491E+00 -2.32680E-02
    9111.914    117.535   5.720  9.84247E-01  1.00475E+00 -2.05054E-02
    9113.664    119.285   5.760  9.86796E-01  1.00456E+00 -1.77636E-02
    9115.425    121.047   5.800  9.88926E-01  1.00433E+00 -1.54021E-02
    9117.199    122.820   5.840  9.90374E-01  1.00406E+00 -1.36833E-02
    9118.985    124.607   5.880  9.91120E-01  1.00375E+00 -1.26292E-02
    9120.784    126.405   5.920  9.91402E-01  1.00341E+00 -1.20049E-02
    9122.594    128.215   5.960  9.91652E-01  1.00305E+00 -1.14025E-02
    9124.417    130.038   6.000  9.92239E-01  1.00261E+00 -1.03739E-02
