# # comment:                                                     FEFF 9.9.1  
# # Source:
# # Structure
# # Reduced
# # space
# # abc:
# # angles:
# # sites:
# # POT  SCF 100  7.0000   0, screened core-hole, AFOLP (folp(0)= 1.150)
# # Abs   Z=29 Rmt= 1.186 Rnm= 1.269 K  shell
# # Pot 1 Z=56 Rmt= 1.914 Rnm= 1.960
# # Pot 2 Z=57 Rmt= 1.835 Rnm= 1.903
# # Pot 3 Z=29 Rmt= 1.260 Rnm= 1.323
# # Pot 4 Z= 8 Rmt= 1.045 Rnm= 1.103
# # Gam_ch=1.729E+00 H-L exch Vi= 0.000E+00 Vr= 0.000E+00
# # Mu=-8.697E+00eV kf=2.021E+00 Vint=-1.741E+01eV Rs_int= 1.795
# FMS rfms= 9.0000
# # PATH  Rmax=-1.000,  Keep_limit= 0.00, Heap_limit 0.00  Pwcrit= 2.50%
#  S02=0.950  Temp=   0.00  Debye_temp=   0.00  Global_sig2= 0.00000
#  Energy zero shift, vr, vi    0.00000E+00   0.00000E+00
#  Curved wave amplitude ratio filter   4.000%
#     file         sig2 tot  cw amp ratio   deg  nlegs   reff  inp sig2
#     0/   0 paths used
#  xsedge+ 50, used to normalize mu           2.4325E-04
#  -----------------------------------------------------------------------
#  omega    e    k    mu    mu0     chi     @#
    8985.219    -12.507  -1.000  3.63267E-02  5.86823E-02 -2.23556E-02
    8985.518    -12.208  -0.960  3.80965E-02  6.30610E-02 -2.49645E-02
    8985.804    -11.921  -0.920  4.00043E-02  6.79346E-02 -2.79303E-02
    8986.078    -11.647  -0.880  4.20696E-02  7.33764E-02 -3.13068E-02
    8986.341    -11.385  -0.840  4.43157E-02  7.94719E-02 -3.51562E-02
    8986.590    -11.135  -0.800  4.67704E-02  8.63199E-02 -3.95495E-02
    8986.828    -10.897  -0.760  4.94667E-02  9.40343E-02 -4.45676E-02
    8987.054    -10.672  -0.720  5.24429E-02  1.02743E-01 -5.03006E-02
    8987.267    -10.458  -0.680  5.57422E-02  1.12589E-01 -5.68466E-02
    8987.468    -10.257  -0.640  5.94118E-02  1.23720E-01 -6.43081E-02
    8987.657    -10.068  -0.600  6.34988E-02  1.36283E-01 -7.27847E-02
    8987.834     -9.891  -0.560  6.80446E-02  1.50405E-01 -8.23605E-02
    8987.999     -9.727  -0.520  7.30745E-02  1.66160E-01 -9.30853E-02
    8988.151     -9.574  -0.480  7.85836E-02  1.83532E-01 -1.04948E-01
    8988.291     -9.434  -0.440  8.45206E-02  2.02369E-01 -1.17848E-01
    8988.419     -9.306  -0.400  9.07736E-02  2.22341E-01 -1.31567E-01
    8988.535     -9.190  -0.360  9.71678E-02  2.42931E-01 -1.45763E-01
    8988.639     -9.087  -0.320  1.03479E-01  2.63467E-01 -1.59989E-01
    8988.730     -8.995  -0.280  1.09463E-01  2.83202E-01 -1.73739E-01
    8988.809     -8.916  -0.240  1.14900E-01  3.01419E-01 -1.86518E-01
    8988.876     -8.849  -0.200  1.19619E-01  3.17516E-01 -1.97896E-01
    8988.931     -8.794  -0.160  1.23517E-01  3.31054E-01 -2.07538E-01
    8988.974     -8.751  -0.120  1.26547E-01  3.41755E-01 -2.15208E-01
    8989.004     -8.721  -0.080  1.28704E-01  3.49463E-01 -2.20758E-01
    8989.029     -8.697   0.000  1.30429E-01  3.55654E-01 -2.25225E-01
    8989.084     -8.642   0.120  1.34066E-01  3.69611E-01 -2.35544E-01
    8989.126     -8.599   0.160  1.36821E-01  3.80447E-01 -2.43626E-01
    8989.181     -8.544   0.200  1.40195E-01  3.94280E-01 -2.54085E-01
    8989.248     -8.477   0.240  1.44027E-01  4.10937E-01 -2.66910E-01
    8989.328     -8.398   0.280  1.48029E-01  4.30021E-01 -2.81992E-01
    8989.419     -8.306   0.320  1.51918E-01  4.51080E-01 -2.99163E-01
    8989.523     -8.203   0.360  1.55260E-01  4.73462E-01 -3.18203E-01
    8989.638     -8.087   0.400  1.57705E-01  4.96536E-01 -3.38831E-01
    8989.766     -7.959   0.440  1.58944E-01  5.19666E-01 -3.60723E-01
    8989.907     -7.819   0.480  1.58995E-01  5.42392E-01 -3.83397E-01
    8990.059     -7.666   0.520  1.58132E-01  5.64398E-01 -4.06265E-01
    8990.224     -7.502   0.560  1.57000E-01  5.85525E-01 -4.28525E-01
    8990.400     -7.325   0.600  1.56352E-01  6.05757E-01 -4.49405E-01
    8990.589     -7.136   0.640  1.56833E-01  6.25115E-01 -4.68282E-01
    8990.791     -6.935   0.680  1.58936E-01  6.43700E-01 -4.84763E-01
    8991.004     -6.722   0.720  1.62991E-01  6.61590E-01 -4.98599E-01
    8991.230     -6.496   0.760  1.69403E-01  6.78881E-01 -5.09477E-01
    8991.467     -6.258   0.800  1.78628E-01  6.95679E-01 -5.17051E-01
    8991.717     -6.008   0.840  1.91097E-01  7.12035E-01 -5.20938E-01
    8991.979     -5.746   0.880  2.06805E-01  7.27985E-01 -5.21180E-01
    8992.254     -5.472   0.920  2.24966E-01  7.43588E-01 -5.18621E-01
    8992.540     -5.185   0.960  2.43709E-01  7.58830E-01 -5.15122E-01
    8992.839     -4.887   1.000  2.61621E-01  7.73771E-01 -5.12149E-01
    8993.150     -4.576   1.040  2.79299E-01  7.88374E-01 -5.09075E-01
    8993.473     -4.253   1.080  2.98752E-01  8.02658E-01 -5.03906E-01
    8993.808     -3.917   1.120  3.21027E-01  8.16574E-01 -4.95546E-01
    8994.156     -3.570   1.160  3.45680E-01  8.30127E-01 -4.84447E-01
    8994.515     -3.210   1.200  3.72709E-01  8.43302E-01 -4.70593E-01
    8994.887     -2.838   1.240  4.05547E-01  8.56080E-01 -4.50534E-01
    8995.271     -2.454   1.280  4.49902E-01  8.68418E-01 -4.18516E-01
    8995.667     -2.058   1.320  5.08266E-01  8.80312E-01 -3.72046E-01
    8996.076     -1.650   1.360  5.74544E-01  8.91739E-01 -3.17195E-01
    8996.496     -1.229   1.400  6.38169E-01  9.02676E-01 -2.64507E-01
    8996.929     -0.796   1.440  7.05919E-01  9.13118E-01 -2.07199E-01
    8997.374     -0.351   1.480  8.02554E-01  9.23023E-01 -1.20470E-01
    8997.831      0.106   1.520  9.47284E-01  9.32410E-01  1.48740E-02
    8998.301      0.575   1.560  1.15563E+00  9.41257E-01  2.14376E-01
    8998.782      1.057   1.600  1.43726E+00  9.49565E-01  4.87693E-01
    8999.276      1.551   1.640  1.75945E+00  9.57336E-01  8.02113E-01
    8999.782      2.057   1.680  1.98958E+00  9.64551E-01  1.02503E+00
    9000.300      2.575   1.720  1.96556E+00  9.71235E-01  9.94323E-01
    9000.831      3.105   1.760  1.74926E+00  9.77394E-01  7.71870E-01
    9001.373      3.648   1.800  1.53270E+00  9.83036E-01  5.49666E-01
    9001.928      4.202   1.840  1.40986E+00  9.88187E-01  4.21677E-01
    9002.495      4.769   1.880  1.37115E+00  9.92815E-01  3.78333E-01
    9003.074      5.349   1.920  1.35309E+00  9.96988E-01  3.56103E-01
    9003.665      5.940   1.960  1.30484E+00  1.00068E+00  3.04162E-01
    9004.269      6.543   2.000  1.23175E+00  1.00395E+00  2.27799E-01
    9004.885      7.159   2.040  1.16638E+00  1.00679E+00  1.59589E-01
    9005.512      7.787   2.080  1.12477E+00  1.00926E+00  1.15518E-01
    9006.152      8.427   2.120  1.10043E+00  1.01132E+00  8.91067E-02
    9006.805      9.079   2.160  1.08188E+00  1.01305E+00  6.88311E-02
    9007.469      9.744   2.200  1.06414E+00  1.01445E+00  4.96900E-02
    9008.146     10.420   2.240  1.04647E+00  1.01554E+00  3.09322E-02
    9008.835     11.109   2.280  1.02882E+00  1.01633E+00  1.24894E-02
    9009.536     11.810   2.320  1.00991E+00  1.01687E+00 -6.96595E-03
    9010.249     12.523   2.360  9.92133E-01  1.01718E+00 -2.50491E-02
    9010.974     13.249   2.400  9.87086E-01  1.01726E+00 -3.01720E-02
    9011.712     13.987   2.440  1.00920E+00  1.01715E+00 -7.94583E-03
    9012.462     14.736   2.480  1.04685E+00  1.01685E+00  2.99997E-02
    9013.224     15.498   2.520  1.08125E+00  1.01640E+00  6.48428E-02
    9013.998     16.272   2.560  1.10347E+00  1.01583E+00  8.76396E-02
    9014.784     17.059   2.600  1.10900E+00  1.01513E+00  9.38697E-02
    9015.583     17.857   2.640  1.09739E+00  1.01433E+00  8.30596E-02
    9016.394     18.668   2.680  1.07151E+00  1.01343E+00  5.80805E-02
    9017.217     19.491   2.720  1.03593E+00  1.01247E+00  2.34542E-02
    9018.052     20.326   2.760  9.95969E-01  1.01146E+00 -1.54926E-02
    9018.899     21.174   2.800  9.56266E-01  1.01039E+00 -5.41217E-02
    9019.759     22.033   2.840  9.21126E-01  1.00932E+00 -8.81924E-02
    9020.630     22.905   2.880  8.93655E-01  1.00820E+00 -1.14542E-01
    9021.514     23.789   2.920  8.74969E-01  1.00709E+00 -1.32124E-01
    9022.410     24.685   2.960  8.64722E-01  1.00599E+00 -1.41268E-01
    9023.319     25.593   3.000  8.61591E-01  1.00489E+00 -1.43301E-01
    9024.239     26.514   3.040  8.63814E-01  1.00382E+00 -1.40011E-01
    9025.172     27.446   3.080  8.69566E-01  1.00279E+00 -1.33228E-01
    9026.117     28.391   3.120  8.77491E-01  1.00180E+00 -1.24310E-01
    9027.074     29.348   3.160  8.86364E-01  1.00085E+00 -1.14485E-01
    9028.043     30.318   3.200  8.95494E-01  9.99940E-01 -1.04446E-01
    9029.025     31.299   3.240  9.04244E-01  9.99078E-01 -9.48332E-02
    9030.018     32.293   3.280  9.12111E-01  9.98286E-01 -8.61748E-02
    9031.024     33.299   3.320  9.18944E-01  9.97566E-01 -7.86223E-02
    9032.042     34.317   3.360  9.25079E-01  9.96899E-01 -7.18203E-02
    9033.072     35.347   3.400  9.31391E-01  9.96309E-01 -6.49174E-02
    9034.115     36.389   3.440  9.38704E-01  9.95795E-01 -5.70913E-02
    9035.169     37.444   3.480  9.47738E-01  9.95357E-01 -4.76189E-02
    9036.236     38.511   3.520  9.58773E-01  9.94977E-01 -3.62039E-02
    9037.315     39.590   3.560  9.71552E-01  9.94695E-01 -2.31428E-02
    9038.406     40.681   3.600  9.85425E-01  9.94470E-01 -9.04480E-03
    9039.510     41.784   3.640  9.99834E-01  9.94323E-01  5.51102E-03
    9040.625     42.900   3.680  1.01421E+00  9.94255E-01  1.99524E-02
    9041.753     44.027   3.720  1.02798E+00  9.94267E-01  3.37168E-02
    9042.893     45.167   3.760  1.04063E+00  9.94355E-01  4.62757E-02
    9044.045     46.320   3.800  1.05149E+00  9.94521E-01  5.69652E-02
    9045.209     47.484   3.840  1.05942E+00  9.94741E-01  6.46756E-02
    9046.386     48.660   3.880  1.06336E+00  9.95035E-01  6.83213E-02
    9047.575     49.849   3.920  1.06283E+00  9.95401E-01  6.74266E-02
    9048.776     51.050   3.960  1.05837E+00  9.95816E-01  6.25509E-02
    9049.989     52.263   4.000  1.05148E+00  9.96280E-01  5.51952E-02
    9051.214     53.488   4.040  1.04383E+00  9.96813E-01  4.70144E-02
    9052.451     54.726   4.080  1.03655E+00  9.97393E-01  3.91537E-02
    9053.701     55.976   4.120  1.03013E+00  9.98038E-01  3.20875E-02
    9054.963     57.237   4.160  1.02473E+00  9.98704E-01  2.60244E-02
    9056.237     58.512   4.200  1.02052E+00  9.99431E-01  2.10902E-02
    9057.523     59.798   4.240  1.01764E+00  1.00018E+00  1.74628E-02
    9058.822     61.096   4.280  1.01620E+00  1.00098E+00  1.52212E-02
    9060.132     62.407   4.320  1.01576E+00  1.00179E+00  1.39675E-02
    9061.455     63.730   4.360  1.01534E+00  1.00262E+00  1.27286E-02
    9062.790     65.065   4.400  1.01391E+00  1.00347E+00  1.04429E-02
    9064.137     66.412   4.440  1.01094E+00  1.00433E+00  6.61013E-03
    9065.497     67.771   4.480  1.00681E+00  1.00521E+00  1.60257E-03
    9066.868     69.143   4.520  1.00262E+00  1.00610E+00 -3.47391E-03
    9068.252     70.527   4.560  9.99711E-01  1.00696E+00 -7.25025E-03
    9069.648     71.923   4.600  9.99159E-01  1.00784E+00 -8.68195E-03
    9071.056     73.331   4.640  1.00112E+00  1.00869E+00 -7.57273E-03
    9072.477     74.751   4.680  1.00475E+00  1.00954E+00 -4.79258E-03
    9073.909     76.184   4.720  1.00842E+00  1.01035E+00 -1.93389E-03
    9075.354     77.628   4.760  1.01067E+00  1.01116E+00 -4.87137E-04
    9076.811     79.085   4.800  1.01081E+00  1.01195E+00 -1.13482E-03
    9078.280     80.555   4.840  1.00920E+00  1.01268E+00 -3.48516E-03
    9079.761     82.036   4.880  1.00691E+00  1.01340E+00 -6.48980E-03
    9081.255     83.529   4.920  1.00482E+00  1.01407E+00 -9.24846E-03
    9082.761     85.035   4.960  1.00332E+00  1.01470E+00 -1.13801E-02
    9084.278     86.553   5.000  1.00255E+00  1.01527E+00 -1.27152E-02
    9085.809     88.083   5.040  1.00287E+00  1.01581E+00 -1.29378E-02
    9087.351     89.625   5.080  1.00463E+00  1.01629E+00 -1.16565E-02
    9088.905     91.180   5.120  1.00786E+00  1.01672E+00 -8.85652E-03
    9090.472     92.746   5.160  1.01197E+00  1.01710E+00 -5.12675E-03
    9092.051     94.325   5.200  1.01604E+00  1.01744E+00 -1.39244E-03
    9093.642     95.916   5.240  1.01933E+00  1.01770E+00  1.63021E-03
    9095.245     97.520   5.280  1.02147E+00  1.01789E+00  3.57945E-03
    9096.861     99.135   5.320  1.02229E+00  1.01805E+00  4.24051E-03
    9098.488    100.763   5.360  1.02164E+00  1.01812E+00  3.51850E-03
    9100.128    102.403   5.400  1.02001E+00  1.01816E+00  1.84888E-03
    9101.780    104.055   5.440  1.01846E+00  1.01813E+00  3.32062E-04
    9103.444    105.719   5.480  1.01811E+00  1.01803E+00  8.51217E-05
    9105.121    107.395   5.520  1.01926E+00  1.01788E+00  1.38321E-03
    9106.809    109.084   5.560  1.02117E+00  1.01768E+00  3.49909E-03
    9108.510    110.784   5.600  1.02277E+00  1.01741E+00  5.35991E-03
    9110.223    112.497   5.640  1.02333E+00  1.01709E+00  6.24021E-03
    9111.948    114.223   5.680  1.02310E+00  1.01673E+00  6.37244E-03
    9113.685    115.960   5.720  1.02269E+00  1.01632E+00  6.37051E-03
    9115.435    117.710   5.760  1.02261E+00  1.01585E+00  6.76364E-03
    9117.197    119.471   5.800  1.02297E+00  1.01533E+00  7.63538E-03
    9118.971    121.245   5.840  1.02355E+00  1.01478E+00  8.77305E-03
    9120.757    123.031   5.880  1.02421E+00  1.01419E+00  1.00179E-02
    9122.555    124.830   5.920  1.02477E+00  1.01360E+00  1.11798E-02
    9124.366    126.640   5.960  1.02487E+00  1.01294E+00  1.19221E-02
    9126.188    128.463   6.000  1.02352E+00  1.01226E+00  1.12649E-02
