# # comment:                                                     FEFF 9.9.1  
# # Source:
# # Structure
# # Reduced
# # space
# # abc:
# # angles:
# # sites:
# # POT  SCF 100  7.0000   0, screened core-hole, AFOLP (folp(0)= 1.150)
# # Abs   Z=29 Rmt= 1.166 Rnm= 1.287 K  shell
# # Pot 1 Z=56 Rmt= 1.938 Rnm= 1.998
# # Pot 2 Z=69 Rmt= 1.607 Rnm= 1.684
# # Pot 3 Z=29 Rmt= 1.166 Rnm= 1.287
# # Pot 4 Z= 8 Rmt= 1.079 Rnm= 1.131
# # Gam_ch=1.729E+00 H-L exch Vi= 0.000E+00 Vr= 0.000E+00
# # Mu=-8.911E+00eV kf=2.011E+00 Vint=-1.759E+01eV Rs_int= 1.803
# FMS rfms= 9.0000
# # PATH  Rmax=-1.000,  Keep_limit= 0.00, Heap_limit 0.00  Pwcrit= 2.50%
#  S02=0.950  Temp=   0.00  Debye_temp=   0.00  Global_sig2= 0.00000
#  Energy zero shift, vr, vi    0.00000E+00   0.00000E+00
#  Curved wave amplitude ratio filter   4.000%
#     file         sig2 tot  cw amp ratio   deg  nlegs   reff  inp sig2
#     0/   0 paths used
#  xsedge+ 50, used to normalize mu           2.4731E-04
#  -----------------------------------------------------------------------
#  omega    e    k    mu    mu0     chi     @#
    8984.443    -12.721  -1.000  3.62235E-02  5.37062E-02 -1.74828E-02
    8984.742    -12.422  -0.960  3.81998E-02  5.75833E-02 -1.93835E-02
    8985.029    -12.135  -0.920  4.03614E-02  6.18888E-02 -2.15273E-02
    8985.303    -11.861  -0.880  4.27368E-02  6.66855E-02 -2.39487E-02
    8985.565    -11.599  -0.840  4.53597E-02  7.20465E-02 -2.66868E-02
    8985.815    -11.349  -0.800  4.82702E-02  7.80565E-02 -2.97863E-02
    8986.053    -11.111  -0.760  5.15154E-02  8.48124E-02 -3.32971E-02
    8986.278    -10.886  -0.720  5.51498E-02  9.24241E-02 -3.72743E-02
    8986.492    -10.672  -0.680  5.92348E-02  1.01012E-01 -4.17773E-02
    8986.693    -10.471  -0.640  6.38366E-02  1.10704E-01 -4.68672E-02
    8986.882    -10.282  -0.600  6.90217E-02  1.21624E-01 -5.26023E-02
    8987.059    -10.105  -0.560  7.48482E-02  1.33879E-01 -5.90312E-02
    8987.223     -9.941  -0.520  8.13521E-02  1.47533E-01 -6.61810E-02
    8987.376     -9.788  -0.480  8.85276E-02  1.62570E-01 -7.40428E-02
    8987.516     -9.648  -0.440  9.63054E-02  1.78859E-01 -8.25541E-02
    8987.644     -9.520  -0.400  1.04534E-01  1.96118E-01 -9.15838E-02
    8987.760     -9.404  -0.360  1.12975E-01  2.13901E-01 -1.00926E-01
    8987.863     -9.301  -0.320  1.21324E-01  2.31632E-01 -1.10308E-01
    8987.955     -9.209  -0.280  1.29253E-01  2.48670E-01 -1.19417E-01
    8988.034     -9.130  -0.240  1.36462E-01  2.64398E-01 -1.27936E-01
    8988.101     -9.063  -0.200  1.42722E-01  2.78300E-01 -1.35578E-01
    8988.156     -9.008  -0.160  1.47892E-01  2.89996E-01 -1.42104E-01
    8988.198     -8.965  -0.120  1.51902E-01  2.99244E-01 -1.47342E-01
    8988.229     -8.935  -0.080  1.54733E-01  3.05907E-01 -1.51174E-01
    8988.253     -8.911   0.000  1.56924E-01  3.11262E-01 -1.54338E-01
    8988.308     -8.856   0.120  1.61950E-01  3.23323E-01 -1.61372E-01
    8988.351     -8.813   0.160  1.65847E-01  3.32728E-01 -1.66881E-01
    8988.406     -8.758   0.200  1.70697E-01  3.44711E-01 -1.74014E-01
    8988.473     -8.691   0.240  1.76319E-01  3.59132E-01 -1.82813E-01
    8988.552     -8.612   0.280  1.82479E-01  3.75731E-01 -1.93252E-01
    8988.643     -8.520   0.320  1.88785E-01  3.94052E-01 -2.05268E-01
    8988.747     -8.417   0.360  1.94801E-01  4.13582E-01 -2.18781E-01
    8988.863     -8.301   0.400  2.00056E-01  4.33791E-01 -2.33735E-01
    8988.991     -8.173   0.440  2.03968E-01  4.54139E-01 -2.50171E-01
    8989.131     -8.033   0.480  2.06019E-01  4.74237E-01 -2.68218E-01
    8989.284     -7.880   0.520  2.05895E-01  4.93839E-01 -2.87944E-01
    8989.448     -7.716   0.560  2.03772E-01  5.12832E-01 -3.09061E-01
    8989.625     -7.539   0.600  2.00432E-01  5.31164E-01 -3.30732E-01
    8989.814     -7.350   0.640  1.97158E-01  5.48891E-01 -3.51733E-01
    8990.015     -7.149   0.680  1.95202E-01  5.66081E-01 -3.70879E-01
    8990.228     -6.936   0.720  1.95537E-01  5.82819E-01 -3.87282E-01
    8990.454     -6.710   0.760  1.98728E-01  5.99226E-01 -4.00498E-01
    8990.692     -6.472   0.800  2.04828E-01  6.15333E-01 -4.10505E-01
    8990.942     -6.222   0.840  2.13732E-01  6.31221E-01 -4.17490E-01
    8991.204     -5.960   0.880  2.25322E-01  6.46915E-01 -4.21594E-01
    8991.478     -5.686   0.920  2.40120E-01  6.62489E-01 -4.22369E-01
    8991.765     -5.399   0.960  2.59428E-01  6.77922E-01 -4.18493E-01
    8992.063     -5.101   1.000  2.85052E-01  6.93246E-01 -4.08194E-01
    8992.374     -4.790   1.040  3.18008E-01  7.08441E-01 -3.90434E-01
    8992.697     -4.467   1.080  3.57085E-01  7.23524E-01 -3.66438E-01
    8993.033     -4.131   1.120  3.98188E-01  7.38440E-01 -3.40252E-01
    8993.380     -3.784   1.160  4.39314E-01  7.53214E-01 -3.13900E-01
    8993.740     -3.424   1.200  4.85489E-01  7.67805E-01 -2.82316E-01
    8994.112     -3.052   1.240  5.40461E-01  7.82168E-01 -2.41707E-01
    8994.496     -2.668   1.280  5.94861E-01  7.96296E-01 -2.01435E-01
    8994.892     -2.272   1.320  6.31742E-01  8.10142E-01 -1.78400E-01
    8995.300     -1.864   1.360  6.44995E-01  8.23696E-01 -1.78701E-01
    8995.721     -1.443   1.400  6.46912E-01  8.36907E-01 -1.89995E-01
    8996.154     -1.010   1.440  6.56257E-01  8.49768E-01 -1.93511E-01
    8996.599     -0.565   1.480  6.73157E-01  8.62247E-01 -1.89090E-01
    8997.056     -0.108   1.520  6.77260E-01  8.74294E-01 -1.97034E-01
    8997.525      0.361   1.560  6.64438E-01  8.85920E-01 -2.21482E-01
    8998.007      0.843   1.600  6.58056E-01  8.97098E-01 -2.39042E-01
    8998.501      1.337   1.640  6.85270E-01  9.07780E-01 -2.22510E-01
    8999.007      1.843   1.680  7.67260E-01  9.17981E-01 -1.50721E-01
    8999.525      2.361   1.720  9.07435E-01  9.27695E-01 -2.02603E-02
    9000.055      2.891   1.760  1.05765E+00  9.36881E-01  1.20768E-01
    9000.598      3.434   1.800  1.14838E+00  9.45554E-01  2.02826E-01
    9001.152      3.988   1.840  1.18542E+00  9.53716E-01  2.31703E-01
    9001.719      4.555   1.880  1.21824E+00  9.61347E-01  2.56894E-01
    9002.298      5.134   1.920  1.28220E+00  9.68468E-01  3.13736E-01
    9002.890      5.726   1.960  1.35310E+00  9.75081E-01  3.78022E-01
    9003.493      6.329   2.000  1.36753E+00  9.81172E-01  3.86358E-01
    9004.109      6.945   2.040  1.33568E+00  9.86765E-01  3.48919E-01
    9004.737      7.573   2.080  1.31788E+00  9.91867E-01  3.26011E-01
    9005.377      8.213   2.120  1.33948E+00  9.96504E-01  3.42971E-01
    9006.029      8.865   2.160  1.37620E+00  1.00068E+00  3.75517E-01
    9006.694      9.530   2.200  1.37784E+00  1.00442E+00  3.73422E-01
    9007.370     10.206   2.240  1.32514E+00  1.00773E+00  3.17406E-01
    9008.059     10.895   2.280  1.24656E+00  1.01061E+00  2.35943E-01
    9008.760     11.596   2.320  1.17477E+00  1.01314E+00  1.61630E-01
    9009.473     12.309   2.360  1.12347E+00  1.01527E+00  1.08196E-01
    9010.199     13.035   2.400  1.09766E+00  1.01706E+00  8.05970E-02
    9010.936     13.772   2.440  1.10006E+00  1.01853E+00  8.15294E-02
    9011.686     14.522   2.480  1.10946E+00  1.01967E+00  8.97884E-02
    9012.448     15.284   2.520  1.11266E+00  1.02053E+00  9.21360E-02
    9013.222     16.058   2.560  1.10605E+00  1.02110E+00  8.49459E-02
    9014.009     16.845   2.600  1.09177E+00  1.02145E+00  7.03176E-02
    9014.807     17.643   2.640  1.07364E+00  1.02156E+00  5.20798E-02
    9015.618     18.454   2.680  1.05473E+00  1.02146E+00  3.32700E-02
    9016.441     19.277   2.720  1.03733E+00  1.02116E+00  1.61680E-02
    9017.276     20.112   2.760  1.02248E+00  1.02067E+00  1.81189E-03
    9018.124     20.960   2.800  1.00980E+00  1.02004E+00 -1.02417E-02
    9018.983     21.819   2.840  9.98690E-01  1.01927E+00 -2.05852E-02
    9019.855     22.691   2.880  9.88645E-01  1.01839E+00 -2.97422E-02
    9020.739     23.575   2.920  9.79344E-01  1.01738E+00 -3.80385E-02
    9021.635     24.471   2.960  9.70567E-01  1.01627E+00 -4.57005E-02
    9022.543     25.379   3.000  9.62209E-01  1.01509E+00 -5.28815E-02
    9023.464     26.300   3.040  9.54080E-01  1.01384E+00 -5.97598E-02
    9024.396     27.232   3.080  9.46047E-01  1.01254E+00 -6.64938E-02
    9025.341     28.177   3.120  9.38051E-01  1.01120E+00 -7.31460E-02
    9026.298     29.134   3.160  9.29817E-01  1.00982E+00 -7.99997E-02
    9027.268     30.104   3.200  9.21101E-01  1.00843E+00 -8.73244E-02
    9028.249     31.085   3.240  9.11703E-01  1.00701E+00 -9.53027E-02
    9029.243     32.079   3.280  9.01439E-01  1.00560E+00 -1.04166E-01
    9030.249     33.085   3.320  8.90271E-01  1.00418E+00 -1.13914E-01
    9031.267     34.103   3.360  8.78881E-01  1.00279E+00 -1.23910E-01
    9032.297     35.133   3.400  8.68633E-01  1.00143E+00 -1.32796E-01
    9033.339     36.175   3.440  8.60662E-01  1.00008E+00 -1.39418E-01
    9034.394     37.230   3.480  8.55826E-01  9.98788E-01 -1.42962E-01
    9035.461     38.297   3.520  8.54473E-01  9.97514E-01 -1.43041E-01
    9036.540     39.376   3.560  8.56666E-01  9.96280E-01 -1.39615E-01
    9037.631     40.467   3.600  8.62256E-01  9.95110E-01 -1.32854E-01
    9038.734     41.570   3.640  8.71264E-01  9.93986E-01 -1.22722E-01
    9039.850     42.686   3.680  8.83791E-01  9.92909E-01 -1.09118E-01
    9040.977     43.813   3.720  8.99678E-01  9.91901E-01 -9.22232E-02
    9042.117     44.953   3.760  9.18375E-01  9.90943E-01 -7.25682E-02
    9043.270     46.106   3.800  9.38907E-01  9.90056E-01 -5.11497E-02
    9044.434     47.270   3.840  9.59835E-01  9.89243E-01 -2.94081E-02
    9045.610     48.446   3.880  9.79537E-01  9.88484E-01 -8.94708E-03
    9046.799     49.635   3.920  9.96776E-01  9.87820E-01  8.95586E-03
    9048.000     50.836   3.960  1.01072E+00  9.87187E-01  2.35330E-02
    9049.213     52.049   4.000  1.02139E+00  9.86648E-01  3.47418E-02
    9050.438     53.274   4.040  1.02947E+00  9.86163E-01  4.33022E-02
    9051.676     54.512   4.080  1.03605E+00  9.85751E-01  5.02991E-02
    9052.926     55.762   4.120  1.04210E+00  9.85393E-01  5.67088E-02
    9054.187     57.023   4.160  1.04820E+00  9.85129E-01  6.30746E-02
    9055.461     58.297   4.200  1.05411E+00  9.84915E-01  6.91985E-02
    9056.748     59.584   4.240  1.05889E+00  9.84753E-01  7.41392E-02
    9058.046     60.882   4.280  1.06137E+00  9.84663E-01  7.67104E-02
    9059.357     62.193   4.320  1.06083E+00  9.84644E-01  7.61908E-02
    9060.680     63.516   4.360  1.05731E+00  9.84672E-01  7.26381E-02
    9062.015     64.851   4.400  1.05167E+00  9.84746E-01  6.69229E-02
    9063.362     66.198   4.440  1.04528E+00  9.84889E-01  6.03964E-02
    9064.721     67.557   4.480  1.03953E+00  9.85076E-01  5.44538E-02
    9066.093     68.929   4.520  1.03552E+00  9.85307E-01  5.02104E-02
    9067.477     70.313   4.560  1.03395E+00  9.85602E-01  4.83485E-02
    9068.873     71.709   4.600  1.03484E+00  9.85916E-01  4.89276E-02
    9070.281     73.117   4.640  1.03755E+00  9.86291E-01  5.12605E-02
    9071.701     74.537   4.680  1.04073E+00  9.86681E-01  5.40484E-02
    9073.134     75.970   4.720  1.04295E+00  9.87106E-01  5.58464E-02
    9074.578     77.414   4.760  1.04312E+00  9.87565E-01  5.55513E-02
    9076.035     78.871   4.800  1.04064E+00  9.88036E-01  5.26012E-02
    9077.505     80.341   4.840  1.03548E+00  9.88537E-01  4.69443E-02
    9078.986     81.822   4.880  1.02802E+00  9.89068E-01  3.89563E-02
    9080.479     83.315   4.920  1.01893E+00  9.89583E-01  2.93455E-02
    9081.985     84.821   4.960  1.00914E+00  9.90122E-01  1.90142E-02
    9083.503     86.339   5.000  9.99599E-01  9.90667E-01  8.93213E-03
    9085.033     87.869   5.040  9.91190E-01  9.91234E-01 -4.40666E-05
    9086.575     89.411   5.080  9.84408E-01  9.91777E-01 -7.36956E-03
    9088.130     90.966   5.120  9.79512E-01  9.92317E-01 -1.28050E-02
    9089.696     92.532   5.160  9.76507E-01  9.92853E-01 -1.63456E-02
    9091.275     94.111   5.200  9.75115E-01  9.93362E-01 -1.82467E-02
    9092.866     95.702   5.240  9.74634E-01  9.93887E-01 -1.92527E-02
    9094.470     97.306   5.280  9.73853E-01  9.94381E-01 -2.05283E-02
    9096.085     98.921   5.320  9.71798E-01  9.94843E-01 -2.30446E-02
    9097.713    100.549   5.360  9.68475E-01  9.95293E-01 -2.68176E-02
    9099.352    102.188   5.400  9.64827E-01  9.95708E-01 -3.08809E-02
    9101.005    103.841   5.440  9.62005E-01  9.96088E-01 -3.40823E-02
    9102.669    105.505   5.480  9.60609E-01  9.96455E-01 -3.58458E-02
    9104.345    107.181   5.520  9.60576E-01  9.96785E-01 -3.62094E-02
    9106.034    108.870   5.560  9.61733E-01  9.97076E-01 -3.53426E-02
    9107.734    110.570   5.600  9.64214E-01  9.97327E-01 -3.31131E-02
    9109.447    112.283   5.640  9.68327E-01  9.97537E-01 -2.92105E-02
    9111.173    114.009   5.680  9.74329E-01  9.97707E-01 -2.33774E-02
    9112.910    115.746   5.720  9.81632E-01  9.97835E-01 -1.62026E-02
    9114.659    117.495   5.760  9.88779E-01  9.97921E-01 -9.14183E-03
    9116.421    119.257   5.800  9.93833E-01  9.97942E-01 -4.10913E-03
    9118.195    121.031   5.840  9.95141E-01  9.97943E-01 -2.80264E-03
    9119.981    122.817   5.880  9.91840E-01  9.97882E-01 -6.04180E-03
    9121.780    124.616   5.920  9.84522E-01  9.97802E-01 -1.32800E-02
    9123.590    126.426   5.960  9.75142E-01  9.97652E-01 -2.25094E-02
    9125.413    128.249   6.000  9.66067E-01  9.97427E-01 -3.13601E-02
