# # comment:                                                     FEFF 9.9.1  
# # Source:
# # Structure
# # Reduced
# # space
# # abc:
# # angles:
# # sites:
# # POT  SCF 100  7.0000   0, screened core-hole, AFOLP (folp(0)= 1.150)
# # Abs   Z=29 Rmt= 1.164 Rnm= 1.286 K  shell
# # Pot 1 Z=56 Rmt= 1.947 Rnm= 2.006
# # Pot 2 Z=39 Rmt= 1.638 Rnm= 1.715
# # Pot 3 Z=29 Rmt= 1.164 Rnm= 1.286
# # Pot 4 Z= 8 Rmt= 1.079 Rnm= 1.131
# # Gam_ch=1.729E+00 H-L exch Vi= 0.000E+00 Vr= 0.000E+00
# # Mu=-8.844E+00eV kf=1.994E+00 Vint=-1.746E+01eV Rs_int= 1.819
# FMS rfms= 9.0000
# # PATH  Rmax=-1.000,  Keep_limit= 0.00, Heap_limit 0.00  Pwcrit= 2.50%
#  S02=0.950  Temp=   0.00  Debye_temp=   0.00  Global_sig2= 0.00000
#  Energy zero shift, vr, vi    0.00000E+00   0.00000E+00
#  Curved wave amplitude ratio filter   4.000%
#     file         sig2 tot  cw amp ratio   deg  nlegs   reff  inp sig2
#     0/   0 paths used
#  xsedge+ 50, used to normalize mu           2.4708E-04
#  -----------------------------------------------------------------------
#  omega    e    k    mu    mu0     chi     @#
    8984.427    -12.654  -1.000  3.63500E-02  5.39380E-02 -1.75880E-02
    8984.726    -12.355  -0.960  3.83377E-02  5.78347E-02 -1.94970E-02
    8985.012    -12.069  -0.920  4.05122E-02  6.21621E-02 -2.16499E-02
    8985.287    -11.794  -0.880  4.29020E-02  6.69833E-02 -2.40813E-02
    8985.549    -11.532  -0.840  4.55411E-02  7.23717E-02 -2.68306E-02
    8985.799    -11.282  -0.800  4.84701E-02  7.84124E-02 -2.99423E-02
    8986.036    -11.045  -0.760  5.17364E-02  8.52029E-02 -3.34665E-02
    8986.262    -10.819  -0.720  5.53949E-02  9.28534E-02 -3.74584E-02
    8986.475    -10.606  -0.680  5.95077E-02  1.01485E-01 -4.19774E-02
    8986.676    -10.404  -0.640  6.41416E-02  1.11226E-01 -4.70844E-02
    8986.865    -10.215  -0.600  6.93636E-02  1.22202E-01 -5.28382E-02
    8987.042    -10.039  -0.560  7.52320E-02  1.34519E-01 -5.92872E-02
    8987.207     -9.874  -0.520  8.17825E-02  1.48242E-01 -6.64593E-02
    8987.359     -9.722  -0.480  8.90080E-02  1.63355E-01 -7.43470E-02
    8987.499     -9.582  -0.440  9.68360E-02  1.79726E-01 -8.28900E-02
    8987.627     -9.453  -0.400  1.05110E-01  1.97071E-01 -9.19604E-02
    8987.743     -9.338  -0.360  1.13588E-01  2.14943E-01 -1.01355E-01
    8987.847     -9.234  -0.320  1.21958E-01  2.32764E-01 -1.10805E-01
    8987.938     -9.143  -0.280  1.29890E-01  2.49888E-01 -1.19998E-01
    8988.018     -9.063  -0.240  1.37084E-01  2.65696E-01 -1.28611E-01
    8988.085     -8.996  -0.200  1.43317E-01  2.79668E-01 -1.36351E-01
    8988.139     -8.941  -0.160  1.48453E-01  2.91424E-01 -1.42971E-01
    8988.182     -8.899  -0.120  1.52429E-01  3.00719E-01 -1.48290E-01
    8988.213     -8.868  -0.080  1.55232E-01  3.07417E-01 -1.52185E-01
    8988.237     -8.844   0.000  1.57393E-01  3.12799E-01 -1.55406E-01
    8988.292     -8.789   0.120  1.62353E-01  3.24926E-01 -1.62573E-01
    8988.335     -8.746   0.160  1.66192E-01  3.34367E-01 -1.68175E-01
    8988.389     -8.691   0.200  1.70978E-01  3.46417E-01 -1.75439E-01
    8988.456     -8.624   0.240  1.76561E-01  3.60936E-01 -1.84376E-01
    8988.536     -8.545   0.280  1.82661E-01  3.77601E-01 -1.94940E-01
    8988.627     -8.454   0.320  1.88980E-01  3.96016E-01 -2.07036E-01
    8988.731     -8.350   0.360  1.95112E-01  4.15665E-01 -2.20554E-01
    8988.847     -8.234   0.400  2.00604E-01  4.35978E-01 -2.35373E-01
    8988.975     -8.106   0.440  2.04952E-01  4.56450E-01 -2.51498E-01
    8989.115     -7.966   0.480  2.07596E-01  4.76673E-01 -2.69077E-01
    8989.267     -7.814   0.520  2.08104E-01  4.96399E-01 -2.88295E-01
    8989.432     -7.649   0.560  2.06439E-01  5.15514E-01 -3.09074E-01
    8989.609     -7.472   0.600  2.03224E-01  5.33966E-01 -3.30742E-01
    8989.798     -7.283   0.640  1.99722E-01  5.51809E-01 -3.52087E-01
    8989.999     -7.082   0.680  1.97345E-01  5.69136E-01 -3.71791E-01
    8990.212     -6.869   0.720  1.97188E-01  5.86007E-01 -3.88819E-01
    8990.438     -6.643   0.760  1.99844E-01  6.02505E-01 -4.02661E-01
    8990.675     -6.405   0.800  2.05588E-01  6.18743E-01 -4.13155E-01
    8990.925     -6.156   0.840  2.14378E-01  6.34739E-01 -4.20361E-01
    8991.187     -5.893   0.880  2.26302E-01  6.50558E-01 -4.24256E-01
    8991.462     -5.619   0.920  2.41918E-01  6.66235E-01 -4.24317E-01
    8991.748     -5.333   0.960  2.62409E-01  6.81768E-01 -4.19359E-01
    8992.047     -5.034   1.000  2.89319E-01  6.97189E-01 -4.07870E-01
    8992.358     -4.723   1.040  3.23521E-01  7.12478E-01 -3.88957E-01
    8992.681     -4.400   1.080  3.63646E-01  7.27629E-01 -3.63983E-01
    8993.016     -4.065   1.120  4.06153E-01  7.42631E-01 -3.36477E-01
    8993.364     -3.717   1.160  4.50410E-01  7.57466E-01 -3.07056E-01
    8993.723     -3.358   1.200  5.00361E-01  7.72112E-01 -2.71751E-01
    8994.095     -2.986   1.240  5.55247E-01  7.86525E-01 -2.31279E-01
    8994.479     -2.602   1.280  6.03049E-01  8.00678E-01 -1.97629E-01
    8994.876     -2.205   1.320  6.30814E-01  8.14564E-01 -1.83750E-01
    8995.284     -1.797   1.360  6.38273E-01  8.28132E-01 -1.89860E-01
    8995.705     -1.376   1.400  6.39160E-01  8.41351E-01 -2.02191E-01
    8996.137     -0.944   1.440  6.49676E-01  8.54192E-01 -2.04516E-01
    8996.582     -0.498   1.480  6.64901E-01  8.66646E-01 -2.01745E-01
    8997.040     -0.041   1.520  6.63504E-01  8.78682E-01 -2.15177E-01
    8997.509      0.428   1.560  6.48408E-01  8.90251E-01 -2.41843E-01
    8997.991      0.910   1.600  6.45812E-01  9.01367E-01 -2.55554E-01
    8998.484      1.403   1.640  6.79665E-01  9.12000E-01 -2.32334E-01
    8998.990      1.909   1.680  7.67238E-01  9.22127E-01 -1.54889E-01
    8999.508      2.428   1.720  9.08584E-01  9.31741E-01 -2.31570E-02
    9000.039      2.958   1.760  1.05210E+00  9.40841E-01  1.11262E-01
    9000.581      3.500   1.800  1.13644E+00  9.49405E-01  1.87038E-01
    9001.136      4.055   1.840  1.17785E+00  9.57453E-01  2.20397E-01
    9001.703      4.622   1.880  1.22408E+00  9.64965E-01  2.59119E-01
    9002.282      5.201   1.920  1.29915E+00  9.71943E-01  3.27206E-01
    9002.873      5.793   1.960  1.37049E+00  9.78413E-01  3.92079E-01
    9003.477      6.396   2.000  1.38624E+00  9.84378E-01  4.01863E-01
    9004.093      7.012   2.040  1.36551E+00  9.89844E-01  3.75668E-01
    9004.721      7.640   2.080  1.36138E+00  9.94816E-01  3.66564E-01
    9005.361      8.280   2.120  1.38307E+00  9.99303E-01  3.83771E-01
    9006.013      8.932   2.160  1.39582E+00  1.00333E+00  3.92487E-01
    9006.677      9.596   2.200  1.36658E+00  1.00691E+00  3.59663E-01
    9007.354     10.273   2.240  1.29801E+00  1.01007E+00  2.87939E-01
    9008.043     10.962   2.280  1.21765E+00  1.01285E+00  2.04807E-01
    9008.744     11.663   2.320  1.14739E+00  1.01520E+00  1.32192E-01
    9009.457     12.376   2.360  1.09803E+00  1.01720E+00  8.08246E-02
    9010.183     13.102   2.400  1.07979E+00  1.01887E+00  6.09245E-02
    9010.920     13.839   2.440  1.09179E+00  1.02019E+00  7.16009E-02
    9011.670     14.589   2.480  1.10622E+00  1.02121E+00  8.50167E-02
    9012.432     15.351   2.520  1.11236E+00  1.02194E+00  9.04213E-02
    9013.206     16.125   2.560  1.10746E+00  1.02242E+00  8.50469E-02
    9013.993     16.912   2.600  1.09416E+00  1.02265E+00  7.15153E-02
    9014.791     17.710   2.640  1.07683E+00  1.02264E+00  5.41838E-02
    9015.602     18.521   2.680  1.05904E+00  1.02243E+00  3.66138E-02
    9016.425     19.344   2.720  1.04329E+00  1.02204E+00  2.12549E-02
    9017.260     20.179   2.760  1.03045E+00  1.02146E+00  8.98848E-03
    9018.107     21.026   2.800  1.01984E+00  1.02075E+00 -9.07503E-04
    9018.967     21.886   2.840  1.01051E+00  1.01990E+00 -9.39806E-03
    9019.839     22.758   2.880  1.00149E+00  1.01894E+00 -1.74423E-02
    9020.722     23.642   2.920  9.92080E-01  1.01786E+00 -2.57760E-02
    9021.619     24.538   2.960  9.82010E-01  1.01669E+00 -3.46783E-02
    9022.527     25.446   3.000  9.71409E-01  1.01544E+00 -4.40319E-02
    9023.447     26.366   3.040  9.60518E-01  1.01414E+00 -5.36234E-02
    9024.380     27.299   3.080  9.49606E-01  1.01280E+00 -6.31905E-02
    9025.325     28.244   3.120  9.38984E-01  1.01141E+00 -7.24279E-02
    9026.282     29.201   3.160  9.28738E-01  1.00999E+00 -8.12537E-02
    9027.251     30.170   3.200  9.18803E-01  1.00856E+00 -8.97606E-02
    9028.233     31.152   3.240  9.08858E-01  1.00713E+00 -9.82726E-02
    9029.226     32.145   3.280  8.98354E-01  1.00570E+00 -1.07343E-01
    9030.232     33.151   3.320  8.87056E-01  1.00427E+00 -1.17212E-01
    9031.250     34.169   3.360  8.75548E-01  1.00287E+00 -1.27318E-01
    9032.280     35.200   3.400  8.65146E-01  1.00148E+00 -1.36330E-01
    9033.323     36.242   3.440  8.56986E-01  1.00012E+00 -1.43134E-01
    9034.377     37.297   3.480  8.51947E-01  9.98804E-01 -1.46857E-01
    9035.444     38.363   3.520  8.50609E-01  9.97550E-01 -1.46941E-01
    9036.523     39.442   3.560  8.53275E-01  9.96318E-01 -1.43042E-01
    9037.614     40.534   3.600  8.60065E-01  9.95151E-01 -1.35086E-01
    9038.718     41.637   3.640  8.71078E-01  9.94032E-01 -1.22954E-01
    9039.833     42.752   3.680  8.86275E-01  9.92982E-01 -1.06708E-01
    9040.961     43.880   3.720  9.04974E-01  9.91982E-01 -8.70079E-02
    9042.101     45.020   3.760  9.25989E-01  9.91055E-01 -6.50657E-02
    9043.253     46.172   3.800  9.47598E-01  9.90201E-01 -4.26033E-02
    9044.418     47.337   3.840  9.67853E-01  9.89400E-01 -2.15463E-02
    9045.594     48.513   3.880  9.85197E-01  9.88673E-01 -3.47664E-03
    9046.783     49.702   3.920  9.98856E-01  9.88023E-01  1.08336E-02
    9047.984     50.903   3.960  1.00888E+00  9.87447E-01  2.14348E-02
    9049.197     52.116   4.000  1.01610E+00  9.86925E-01  2.91789E-02
    9050.422     53.341   4.040  1.02201E+00  9.86475E-01  3.55316E-02
    9051.660     54.579   4.080  1.02805E+00  9.86100E-01  4.19472E-02
    9052.909     55.828   4.120  1.03502E+00  9.85778E-01  4.92450E-02
    9054.171     57.090   4.160  1.04280E+00  9.85531E-01  5.72698E-02
    9055.445     58.364   4.200  1.05028E+00  9.85358E-01  6.49260E-02
    9056.731     59.650   4.240  1.05593E+00  9.85258E-01  7.06684E-02
    9058.030     60.949   4.280  1.05849E+00  9.85208E-01  7.32874E-02
    9059.340     62.260   4.320  1.05777E+00  9.85206E-01  7.25671E-02
    9060.663     63.582   4.360  1.05448E+00  9.85275E-01  6.92060E-02
    9061.998     64.917   4.400  1.04992E+00  9.85414E-01  6.45038E-02
    9063.346     66.265   4.440  1.04548E+00  9.85599E-01  5.98833E-02
    9064.705     67.624   4.480  1.04229E+00  9.85827E-01  5.64638E-02
    9066.077     68.996   4.520  1.04092E+00  9.86096E-01  5.48251E-02
    9067.460     70.379   4.560  1.04139E+00  9.86407E-01  5.49830E-02
    9068.856     71.775   4.600  1.04313E+00  9.86760E-01  5.63670E-02
    9070.264     73.184   4.640  1.04515E+00  9.87173E-01  5.79777E-02
    9071.685     74.604   4.680  1.04636E+00  9.87601E-01  5.87548E-02
    9073.117     76.036   4.720  1.04602E+00  9.88067E-01  5.79528E-02
    9074.562     77.481   4.760  1.04374E+00  9.88566E-01  5.51768E-02
    9076.019     78.938   4.800  1.03939E+00  9.89073E-01  5.03157E-02
    9077.488     80.407   4.840  1.03313E+00  9.89589E-01  4.35365E-02
    9078.970     81.889   4.880  1.02538E+00  9.90156E-01  3.52234E-02
    9080.463     83.382   4.920  1.01659E+00  9.90707E-01  2.58792E-02
    9081.969     84.888   4.960  1.00745E+00  9.91281E-01  1.61663E-02
    9083.487     86.406   5.000  9.98785E-01  9.91835E-01  6.95033E-03
    9085.017     87.936   5.040  9.91446E-01  9.92413E-01 -9.66370E-04
    9086.559     89.478   5.080  9.85771E-01  9.92990E-01 -7.21959E-03
    9088.113     91.033   5.120  9.81732E-01  9.93564E-01 -1.18320E-02
    9089.680     92.599   5.160  9.79172E-01  9.94109E-01 -1.49377E-02
    9091.259     94.178   5.200  9.77872E-01  9.94648E-01 -1.67763E-02
    9092.850     95.769   5.240  9.77148E-01  9.95180E-01 -1.80324E-02
    9094.453     97.372   5.280  9.75915E-01  9.95682E-01 -1.97679E-02
    9096.069     98.988   5.320  9.73536E-01  9.96173E-01 -2.26361E-02
    9097.696    100.615   5.360  9.70205E-01  9.96627E-01 -2.64226E-02
    9099.336    102.255   5.400  9.67096E-01  9.97048E-01 -2.99518E-02
    9100.988    103.907   5.440  9.65290E-01  9.97452E-01 -3.21622E-02
    9102.652    105.571   5.480  9.65032E-01  9.97796E-01 -3.27643E-02
    9104.329    107.248   5.520  9.66037E-01  9.98126E-01 -3.20883E-02
    9106.017    108.936   5.560  9.67985E-01  9.98416E-01 -3.04313E-02
    9107.718    110.637   5.600  9.70981E-01  9.98667E-01 -2.76858E-02
    9109.431    112.350   5.640  9.75515E-01  9.98876E-01 -2.33614E-02
    9111.156    114.075   5.680  9.81544E-01  9.99042E-01 -1.74981E-02
    9112.894    115.813   5.720  9.88096E-01  9.99143E-01 -1.10476E-02
    9114.643    117.562   5.760  9.93412E-01  9.99225E-01 -5.81315E-03
    9116.405    119.324   5.800  9.95394E-01  9.99244E-01 -3.84955E-03
    9118.179    121.098   5.840  9.92679E-01  9.99243E-01 -6.56380E-03
    9119.965    122.884   5.880  9.85211E-01  9.99177E-01 -1.39664E-02
    9121.763    124.682   5.920  9.74581E-01  9.99068E-01 -2.44877E-02
    9123.574    126.493   5.960  9.63493E-01  9.98911E-01 -3.54176E-02
    9125.396    128.316   6.000  9.54676E-01  9.98650E-01 -4.39741E-02
