# # comment:                                                     FEFF 9.9.1  
# # Source:
# # Structure
# # Reduced
# # space
# # abc:
# # angles:
# # sites:
# # POT  SCF 100  7.0000   0, screened core-hole, AFOLP (folp(0)= 1.150)
# # Abs   Z=29 Rmt= 1.327 Rnm= 1.390 K  shell
# # Pot 1 Z= 3 Rmt= 1.323 Rnm= 1.374
# # Pot 2 Z=29 Rmt= 1.327 Rnm= 1.390
# # Pot 3 Z= 6 Rmt= 0.712 Rnm= 0.924
# # Pot 4 Z= 8 Rmt= 0.865 Rnm= 1.011
# # Gam_ch=1.729E+00 H-L exch Vi= 0.000E+00 Vr= 0.000E+00
# # Mu=-6.549E+00eV kf=2.573E+00 Vint=-1.832E+01eV Rs_int= 1.410
# FMS rfms= 9.0000
# # PATH  Rmax=-1.000,  Keep_limit= 0.00, Heap_limit 0.00  Pwcrit= 2.50%
#  S02=0.950  Temp=   0.00  Debye_temp=   0.00  Global_sig2= 0.00000
#  Energy zero shift, vr, vi    0.00000E+00   0.00000E+00
#  Curved wave amplitude ratio filter   4.000%
#     file         sig2 tot  cw amp ratio   deg  nlegs   reff  inp sig2
#     0/   0 paths used
#  xsedge+ 50, used to normalize mu           2.4769E-04
#  -----------------------------------------------------------------------
#  omega    e    k    mu    mu0     chi     @#
    8983.570    -10.359  -1.000  4.81159E-02  5.29354E-02 -4.81947E-03
    8983.869    -10.060  -0.960  5.12882E-02  5.67644E-02 -5.47623E-03
    8984.155     -9.774  -0.920  5.47925E-02  6.10207E-02 -6.22817E-03
    8984.429     -9.500  -0.880  5.86783E-02  6.57675E-02 -7.08917E-03
    8984.692     -9.237  -0.840  6.30039E-02  7.10788E-02 -8.07489E-03
    8984.941     -8.988  -0.800  6.78370E-02  7.70400E-02 -9.20294E-03
    8985.179     -8.750  -0.760  7.32567E-02  8.37496E-02 -1.04928E-02
    8985.405     -8.524  -0.720  7.93529E-02  9.13187E-02 -1.19658E-02
    8985.618     -8.311  -0.680  8.62256E-02  9.98700E-02 -1.36444E-02
    8985.819     -8.110  -0.640  9.39814E-02  1.09533E-01 -1.55516E-02
    8986.008     -7.921  -0.600  1.02726E-01  1.20435E-01 -1.77096E-02
    8986.185     -7.744  -0.560  1.12548E-01  1.32686E-01 -2.01376E-02
    8986.350     -7.579  -0.520  1.23500E-01  1.46349E-01 -2.28489E-02
    8986.502     -7.427  -0.480  1.35565E-01  1.61413E-01 -2.58471E-02
    8986.642     -7.287  -0.440  1.48621E-01  1.77743E-01 -2.91216E-02
    8986.770     -7.159  -0.400  1.62412E-01  1.95054E-01 -3.26418E-02
    8986.886     -7.043  -0.360  1.76544E-01  2.12897E-01 -3.63522E-02
    8986.990     -6.939  -0.320  1.90518E-01  2.30687E-01 -4.01684E-02
    8987.081     -6.848  -0.280  2.03798E-01  2.47777E-01 -4.39783E-02
    8987.160     -6.769  -0.240  2.15896E-01  2.63545E-01 -4.76486E-02
    8987.227     -6.702  -0.200  2.26435E-01  2.77471E-01 -5.10367E-02
    8987.282     -6.647  -0.160  2.35174E-01  2.89180E-01 -5.40060E-02
    8987.325     -6.604  -0.120  2.41989E-01  2.98429E-01 -5.64404E-02
    8987.355     -6.574  -0.080  2.46834E-01  3.05089E-01 -5.82553E-02
    8987.380     -6.549   0.000  2.50636E-01  3.10438E-01 -5.98020E-02
    8987.435     -6.494   0.120  2.59104E-01  3.22504E-01 -6.34001E-02
    8987.477     -6.452   0.160  2.65704E-01  3.31864E-01 -6.61601E-02
    8987.532     -6.397   0.200  2.74041E-01  3.43794E-01 -6.97527E-02
    8987.599     -6.330   0.240  2.83962E-01  3.58121E-01 -7.41584E-02
    8987.679     -6.250   0.280  2.95219E-01  3.74560E-01 -7.93415E-02
    8987.770     -6.159   0.320  3.07493E-01  3.92653E-01 -8.51599E-02
    8987.874     -6.055   0.360  3.20467E-01  4.11836E-01 -9.13690E-02
    8987.989     -5.940   0.400  3.33966E-01  4.31574E-01 -9.76075E-02
    8988.117     -5.812   0.440  3.47840E-01  4.51301E-01 -1.03461E-01
    8988.258     -5.671   0.480  3.62078E-01  4.70614E-01 -1.08536E-01
    8988.410     -5.519   0.520  3.76671E-01  4.89257E-01 -1.12586E-01
    8988.575     -5.354   0.560  3.91432E-01  5.07116E-01 -1.15683E-01
    8988.751     -5.178   0.600  4.05848E-01  5.24183E-01 -1.18335E-01
    8988.940     -4.989   0.640  4.19077E-01  5.40501E-01 -1.21424E-01
    8989.142     -4.787   0.680  4.30296E-01  5.56151E-01 -1.25855E-01
    8989.355     -4.574   0.720  4.39434E-01  5.71290E-01 -1.31856E-01
    8989.581     -4.348   0.760  4.47000E-01  5.85972E-01 -1.38972E-01
    8989.818     -4.111   0.800  4.53370E-01  6.00322E-01 -1.46952E-01
    8990.068     -3.861   0.840  4.57702E-01  6.14416E-01 -1.56714E-01
    8990.330     -3.599   0.880  4.58521E-01  6.28312E-01 -1.69791E-01
    8990.605     -3.324   0.920  4.56088E-01  6.42096E-01 -1.86008E-01
    8990.891     -3.038   0.960  4.54333E-01  6.55784E-01 -2.01451E-01
    8991.190     -2.739   1.000  4.59122E-01  6.69420E-01 -2.10298E-01
    8991.501     -2.428   1.040  4.74564E-01  6.83016E-01 -2.08452E-01
    8991.824     -2.105   1.080  5.01802E-01  6.96578E-01 -1.94776E-01
    8992.159     -1.770   1.120  5.39889E-01  7.10127E-01 -1.70238E-01
    8992.507     -1.422   1.160  5.87428E-01  7.23655E-01 -1.36228E-01
    8992.866     -1.063   1.200  6.44004E-01  7.37151E-01 -9.31468E-02
    8993.238     -0.691   1.240  7.10554E-01  7.50599E-01 -4.00446E-02
    8993.622     -0.307   1.280  7.87612E-01  7.64001E-01  2.36114E-02
    8994.018      0.089   1.320  8.69083E-01  7.77312E-01  9.17710E-02
    8994.427      0.498   1.360  9.39335E-01  7.90549E-01  1.48785E-01
    8994.847      0.918   1.400  9.89920E-01  8.03647E-01  1.86273E-01
    8995.280      1.351   1.440  1.03610E+00  8.16595E-01  2.19509E-01
    8995.725      1.796   1.480  1.09202E+00  8.29387E-01  2.62628E-01
    8996.182      2.253   1.520  1.14273E+00  8.41970E-01  3.00761E-01
    8996.652      2.723   1.560  1.16472E+00  8.54312E-01  3.10407E-01
    8997.133      3.204   1.600  1.15466E+00  8.66403E-01  2.88259E-01
    8997.627      3.698   1.640  1.12556E+00  8.78213E-01  2.47350E-01
    8998.133      4.204   1.680  1.09477E+00  8.89709E-01  2.05061E-01
    8998.651      4.722   1.720  1.07381E+00  9.00859E-01  1.72953E-01
    8999.182      5.253   1.760  1.05409E+00  9.11653E-01  1.42441E-01
    8999.724      5.795   1.800  1.02677E+00  9.22082E-01  1.04686E-01
    9000.279      6.350   1.840  1.00871E+00  9.32074E-01  7.66333E-02
    9000.846      6.917   1.880  1.01124E+00  9.41661E-01  6.95806E-02
    9001.425      7.496   1.920  1.02245E+00  9.50797E-01  7.16566E-02
    9002.016      8.087   1.960  1.03198E+00  9.59473E-01  7.25060E-02
    9002.620      8.691   2.000  1.04425E+00  9.67685E-01  7.65598E-02
    9003.236      9.306   2.040  1.06008E+00  9.75428E-01  8.46525E-02
    9003.863      9.934   2.080  1.06981E+00  9.82658E-01  8.71569E-02
    9004.503     10.574   2.120  1.07035E+00  9.89413E-01  8.09318E-02
    9005.156     11.227   2.160  1.07707E+00  9.95674E-01  8.13972E-02
    9005.820     11.891   2.200  1.11155E+00  1.00144E+00  1.10114E-01
    9006.497     12.568   2.240  1.17766E+00  1.00669E+00  1.70972E-01
    9007.186     13.257   2.280  1.25448E+00  1.01147E+00  2.43007E-01
    9007.887     13.958   2.320  1.30361E+00  1.01576E+00  2.87850E-01
    9008.600     14.671   2.360  1.29652E+00  1.01959E+00  2.76933E-01
    9009.325     15.396   2.400  1.23817E+00  1.02294E+00  2.15231E-01
    9010.063     16.134   2.440  1.15740E+00  1.02585E+00  1.31558E-01
    9010.813     16.884   2.480  1.07942E+00  1.02833E+00  5.10971E-02
    9011.575     17.646   2.520  1.01580E+00  1.03037E+00 -1.45752E-02
    9012.349     18.420   2.560  9.68764E-01  1.03203E+00 -6.32680E-02
    9013.135     19.206   2.600  9.37214E-01  1.03330E+00 -9.60809E-02
    9013.934     20.005   2.640  9.19735E-01  1.03419E+00 -1.14457E-01
    9014.745     20.816   2.680  9.14487E-01  1.03476E+00 -1.20268E-01
    9015.568     21.639   2.720  9.19132E-01  1.03501E+00 -1.15881E-01
    9016.403     22.474   2.760  9.30670E-01  1.03494E+00 -1.04265E-01
    9017.250     23.321   2.800  9.43600E-01  1.03459E+00 -9.09941E-02
    9018.110     24.181   2.840  9.49217E-01  1.03400E+00 -8.47829E-02
    9018.981     25.052   2.880  9.41272E-01  1.03314E+00 -9.18715E-02
    9019.865     25.936   2.920  9.23401E-01  1.03210E+00 -1.08696E-01
    9020.761     26.832   2.960  9.09630E-01  1.03085E+00 -1.21221E-01
    9021.670     27.741   3.000  9.06132E-01  1.02941E+00 -1.23282E-01
    9022.590     28.661   3.040  9.07539E-01  1.02784E+00 -1.20299E-01
    9023.523     29.594   3.080  9.10271E-01  1.02611E+00 -1.15842E-01
    9024.468     30.539   3.120  9.13560E-01  1.02429E+00 -1.10729E-01
    9025.425     31.496   3.160  9.17712E-01  1.02238E+00 -1.04664E-01
    9026.394     32.465   3.200  9.22621E-01  1.02036E+00 -9.77416E-02
    9027.376     33.447   3.240  9.27752E-01  1.01832E+00 -9.05659E-02
    9028.369     34.440   3.280  9.32589E-01  1.01621E+00 -8.36187E-02
    9029.375     35.446   3.320  9.37129E-01  1.01406E+00 -7.69312E-02
    9030.393     36.464   3.360  9.42025E-01  1.01190E+00 -6.98790E-02
    9031.423     37.494   3.400  9.48390E-01  1.00975E+00 -6.13588E-02
    9032.466     38.537   3.440  9.57294E-01  1.00762E+00 -5.03246E-02
    9033.520     39.591   3.480  9.69171E-01  1.00550E+00 -3.63285E-02
    9034.587     40.658   3.520  9.83887E-01  1.00342E+00 -1.95323E-02
    9035.666     41.737   3.560  1.00051E+00  1.00140E+00 -8.88699E-04
    9036.757     42.828   3.600  1.01770E+00  9.99434E-01  1.82638E-02
    9037.861     43.932   3.640  1.03405E+00  9.97514E-01  3.65310E-02
    9038.976     45.047   3.680  1.04832E+00  9.95692E-01  5.26281E-02
    9040.104     46.175   3.720  1.05937E+00  9.93929E-01  6.54407E-02
    9041.244     47.315   3.760  1.06670E+00  9.92247E-01  7.44559E-02
    9042.396     48.467   3.800  1.07039E+00  9.90674E-01  7.97180E-02
    9043.560     49.631   3.840  1.07096E+00  9.89210E-01  8.17485E-02
    9044.737     50.808   3.880  1.06927E+00  9.87837E-01  8.14280E-02
    9045.926     51.997   3.920  1.06626E+00  9.86556E-01  7.97088E-02
    9047.127     53.198   3.960  1.06271E+00  9.85410E-01  7.72995E-02
    9048.340     54.411   4.000  1.05888E+00  9.84358E-01  7.45223E-02
    9049.565     55.636   4.040  1.05486E+00  9.83422E-01  7.14419E-02
    9050.802     56.873   4.080  1.05037E+00  9.82581E-01  6.77915E-02
    9052.052     58.123   4.120  1.04502E+00  9.81879E-01  6.31399E-02
    9053.314     59.385   4.160  1.03833E+00  9.81274E-01  5.70570E-02
    9054.588     60.659   4.200  1.03011E+00  9.80808E-01  4.93012E-02
    9055.874     61.945   4.240  1.02035E+00  9.80437E-01  3.99122E-02
    9057.173     63.244   4.280  1.00947E+00  9.80180E-01  2.92887E-02
    9058.483     64.554   4.320  9.98100E-01  9.80016E-01  1.80844E-02
    9059.806     65.877   4.360  9.86980E-01  9.79964E-01  7.01550E-03
    9061.141     67.212   4.400  9.76824E-01  9.80026E-01 -3.20165E-03
    9062.488     68.559   4.440  9.68252E-01  9.80178E-01 -1.19261E-02
    9063.848     69.919   4.480  9.61758E-01  9.80438E-01 -1.86806E-02
    9065.219     71.290   4.520  9.57584E-01  9.80784E-01 -2.32001E-02
    9066.603     72.674   4.560  9.55773E-01  9.81211E-01 -2.54387E-02
    9067.999     74.070   4.600  9.56153E-01  9.81718E-01 -2.55651E-02
    9069.407     75.478   4.640  9.58360E-01  9.82301E-01 -2.39410E-02
    9070.828     76.899   4.680  9.61830E-01  9.82937E-01 -2.11072E-02
    9072.260     78.331   4.720  9.65822E-01  9.83644E-01 -1.78227E-02
    9073.705     79.776   4.760  9.69487E-01  9.84421E-01 -1.49349E-02
    9075.162     81.233   4.800  9.72024E-01  9.85222E-01 -1.31974E-02
    9076.631     82.702   4.840  9.73011E-01  9.86084E-01 -1.30733E-02
    9078.112     84.183   4.880  9.72388E-01  9.86985E-01 -1.45971E-02
    9079.606     85.677   4.920  9.70549E-01  9.87900E-01 -1.73512E-02
    9081.112     87.183   4.960  9.68259E-01  9.88847E-01 -2.05873E-02
    9082.629     88.700   5.000  9.66410E-01  9.89820E-01 -2.34103E-02
    9084.160     90.231   5.040  9.65656E-01  9.90777E-01 -2.51212E-02
    9085.702     91.773   5.080  9.66275E-01  9.91754E-01 -2.54788E-02
    9087.256     93.327   5.120  9.67969E-01  9.92706E-01 -2.47375E-02
    9088.823     94.894   5.160  9.70159E-01  9.93651E-01 -2.34924E-02
    9090.402     96.473   5.200  9.72238E-01  9.94587E-01 -2.23493E-02
    9091.993     98.064   5.240  9.73794E-01  9.95490E-01 -2.16954E-02
    9093.596     99.667   5.280  9.74757E-01  9.96353E-01 -2.15959E-02
    9095.212    101.283   5.320  9.75383E-01  9.97174E-01 -2.17918E-02
    9096.839    102.910   5.360  9.76169E-01  9.97952E-01 -2.17827E-02
    9098.479    104.550   5.400  9.77686E-01  9.98661E-01 -2.09746E-02
    9100.131    106.202   5.440  9.80453E-01  9.99323E-01 -1.88696E-02
    9101.795    107.866   5.480  9.84716E-01  9.99935E-01 -1.52186E-02
    9103.472    109.543   5.520  9.90354E-01  1.00047E+00 -1.01197E-02
    9105.160    111.231   5.560  9.96895E-01  1.00094E+00 -4.04149E-03
    9106.861    112.932   5.600  1.00364E+00  1.00134E+00  2.29480E-03
    9108.574    114.645   5.640  1.00982E+00  1.00165E+00  8.16691E-03
    9110.299    116.370   5.680  1.01496E+00  1.00190E+00  1.30618E-02
    9112.036    118.107   5.720  1.01875E+00  1.00204E+00  1.67098E-02
    9113.786    119.857   5.760  1.02117E+00  1.00213E+00  1.90358E-02
    9115.548    121.619   5.800  1.02226E+00  1.00211E+00  2.01446E-02
    9117.322    123.393   5.840  1.02233E+00  1.00202E+00  2.03141E-02
    9119.108    125.179   5.880  1.02177E+00  1.00186E+00  1.99072E-02
    9120.906    126.977   5.920  1.02086E+00  1.00161E+00  1.92506E-02
    9122.717    128.788   5.960  1.01978E+00  1.00126E+00  1.85185E-02
    9124.539    130.610   6.000  1.01842E+00  1.00078E+00  1.76406E-02
