# # comment:                                                     FEFF 9.9.1  
# # Source:
# # Structure
# # Reduced
# # space
# # abc:
# # angles:100.506380
# # sites:
# # POT  SCF 100  7.0000   0, screened core-hole, AFOLP (folp(0)= 1.150)
# # Abs   Z=29 Rmt= 1.227 Rnm= 1.311 K  shell
# # Pot 1 Z=57 Rmt= 1.743 Rnm= 1.827
# # Pot 2 Z=29 Rmt= 1.227 Rnm= 1.311
# # Pot 3 Z= 8 Rmt= 1.045 Rnm= 1.103
# # Gam_ch=1.729E+00 H-L exch Vi= 0.000E+00 Vr= 0.000E+00
# # Mu=-7.622E+00eV kf=2.081E+00 Vint=-1.665E+01eV Rs_int= 1.743
# FMS rfms= 9.0000
# # PATH  Rmax=-1.000,  Keep_limit= 0.00, Heap_limit 0.00  Pwcrit= 2.50%
#  S02=0.950  Temp=   0.00  Debye_temp=   0.00  Global_sig2= 0.00000
#  Energy zero shift, vr, vi    0.00000E+00   0.00000E+00
#  Curved wave amplitude ratio filter   4.000%
#     file         sig2 tot  cw amp ratio   deg  nlegs   reff  inp sig2
#     0/   0 paths used
#  xsedge+ 50, used to normalize mu           2.4481E-04
#  -----------------------------------------------------------------------
#  omega    e    k    mu    mu0     chi     @#
    8984.305    -11.432  -1.000  3.83719E-02  5.51547E-02 -1.67828E-02
    8984.603    -11.133  -0.960  4.03547E-02  5.92006E-02 -1.88459E-02
    8984.890    -10.847  -0.920  4.24877E-02  6.36996E-02 -2.12119E-02
    8985.164    -10.572  -0.880  4.47884E-02  6.87186E-02 -2.39303E-02
    8985.426    -10.310  -0.840  4.72764E-02  7.43357E-02 -2.70593E-02
    8985.676    -10.060  -0.800  4.99748E-02  8.06412E-02 -3.06664E-02
    8985.914     -9.822  -0.760  5.29092E-02  8.77387E-02 -3.48294E-02
    8986.139     -9.597  -0.720  5.61088E-02  9.57455E-02 -3.96366E-02
    8986.353     -9.383  -0.680  5.96051E-02  1.04791E-01 -4.51855E-02
    8986.554     -9.182  -0.640  6.34309E-02  1.15011E-01 -5.15797E-02
    8986.743     -8.993  -0.600  6.76178E-02  1.26539E-01 -5.89214E-02
    8986.920     -8.817  -0.560  7.21914E-02  1.39491E-01 -6.72993E-02
    8987.084     -8.652  -0.520  7.71651E-02  1.53934E-01 -7.67685E-02
    8987.237     -8.500  -0.480  8.25298E-02  1.69853E-01 -8.73232E-02
    8987.377     -8.359  -0.440  8.82438E-02  1.87109E-01 -9.88653E-02
    8987.505     -8.231  -0.400  9.42224E-02  2.05401E-01 -1.11178E-01
    8987.621     -8.116  -0.360  1.00335E-01  2.24255E-01 -1.23920E-01
    8987.724     -8.012  -0.320  1.06409E-01  2.43057E-01 -1.36648E-01
    8987.816     -7.920  -0.280  1.12251E-01  2.61123E-01 -1.48873E-01
    8987.895     -7.841  -0.240  1.17665E-01  2.77799E-01 -1.60134E-01
    8987.962     -7.774  -0.200  1.22482E-01  2.92534E-01 -1.70052E-01
    8988.017     -7.719  -0.160  1.26567E-01  3.04927E-01 -1.78360E-01
    8988.060     -7.677  -0.120  1.29826E-01  3.14723E-01 -1.84897E-01
    8988.090     -7.646  -0.080  1.32200E-01  3.21779E-01 -1.89579E-01
    8988.115     -7.622   0.000  1.34150E-01  3.27447E-01 -1.93297E-01
    8988.169     -7.567   0.120  1.38472E-01  3.40228E-01 -2.01756E-01
    8988.212     -7.524   0.160  1.41817E-01  3.50159E-01 -2.08342E-01
    8988.267     -7.469   0.200  1.46056E-01  3.62822E-01 -2.16766E-01
    8988.334     -7.402   0.240  1.51183E-01  3.78065E-01 -2.26882E-01
    8988.413     -7.323   0.280  1.57067E-01  3.95557E-01 -2.38489E-01
    8988.505     -7.232   0.320  1.63561E-01  4.14850E-01 -2.51289E-01
    8988.608     -7.128   0.360  1.70440E-01  4.35365E-01 -2.64925E-01
    8988.724     -7.012   0.400  1.77486E-01  4.56527E-01 -2.79040E-01
    8988.852     -6.884   0.440  1.84458E-01  4.77753E-01 -2.93295E-01
    8988.992     -6.744   0.480  1.91299E-01  4.98624E-01 -3.07325E-01
    8989.145     -6.592   0.520  1.98176E-01  5.18872E-01 -3.20697E-01
    8989.309     -6.427   0.560  2.05475E-01  5.38354E-01 -3.32878E-01
    8989.486     -6.250   0.600  2.13790E-01  5.57055E-01 -3.43265E-01
    8989.675     -6.061   0.640  2.23586E-01  5.74994E-01 -3.51408E-01
    8989.876     -5.860   0.680  2.35139E-01  5.92269E-01 -3.57129E-01
    8990.090     -5.647   0.720  2.48268E-01  6.08949E-01 -3.60680E-01
    8990.315     -5.421   0.760  2.62612E-01  6.25184E-01 -3.62572E-01
    8990.553     -5.183   0.800  2.77730E-01  6.40995E-01 -3.63264E-01
    8990.803     -4.933   0.840  2.93574E-01  6.56488E-01 -3.62914E-01
    8991.065     -4.671   0.880  3.10565E-01  6.71673E-01 -3.61108E-01
    8991.339     -4.397   0.920  3.29697E-01  6.86650E-01 -3.56953E-01
    8991.626     -4.110   0.960  3.51830E-01  7.01385E-01 -3.49555E-01
    8991.925     -3.812   1.000  3.77369E-01  7.15913E-01 -3.38544E-01
    8992.235     -3.501   1.040  4.07138E-01  7.30239E-01 -3.23101E-01
    8992.559     -3.178   1.080  4.43907E-01  7.44361E-01 -3.00454E-01
    8992.894     -2.843   1.120  4.90163E-01  7.58272E-01 -2.68109E-01
    8993.241     -2.495   1.160  5.44880E-01  7.71959E-01 -2.27079E-01
    8993.601     -2.135   1.200  6.04144E-01  7.85383E-01 -1.81240E-01
    8993.973     -1.764   1.240  6.62444E-01  7.98545E-01 -1.36102E-01
    8994.357     -1.379   1.280  7.14989E-01  8.11401E-01 -9.64114E-02
    8994.753     -0.983   1.320  7.59884E-01  8.23967E-01 -6.40828E-02
    8995.162     -0.575   1.360  7.94306E-01  8.36177E-01 -4.18717E-02
    8995.582     -0.154   1.400  8.19786E-01  8.48027E-01 -2.82404E-02
    8996.015      0.279   1.440  8.45199E-01  8.59488E-01 -1.42885E-02
    8996.460      0.724   1.480  8.77011E-01  8.70555E-01  6.45553E-03
    8996.917      1.181   1.520  9.16834E-01  8.81203E-01  3.56311E-02
    8997.387      1.650   1.560  9.67289E-01  8.91406E-01  7.58835E-02
    8997.868      2.132   1.600  1.02793E+00  9.01182E-01  1.26747E-01
    8998.362      2.626   1.640  1.09330E+00  9.10485E-01  1.82816E-01
    8998.868      3.132   1.680  1.15910E+00  9.19314E-01  2.39785E-01
    8999.386      3.650   1.720  1.21817E+00  9.27688E-01  2.90481E-01
    8999.916      4.180   1.760  1.25686E+00  9.35565E-01  3.21297E-01
    9000.459      4.723   1.800  1.26405E+00  9.42989E-01  3.21064E-01
    9001.014      5.277   1.840  1.24036E+00  9.49919E-01  2.90436E-01
    9001.581      5.844   1.880  1.21001E+00  9.56382E-01  2.53626E-01
    9002.160      6.423   1.920  1.19986E+00  9.62381E-01  2.37477E-01
    9002.751      7.015   1.960  1.21265E+00  9.67939E-01  2.44711E-01
    9003.355      7.618   2.000  1.23316E+00  9.73045E-01  2.60114E-01
    9003.970      8.234   2.040  1.24753E+00  9.77724E-01  2.69810E-01
    9004.598      8.862   2.080  1.24533E+00  9.81984E-01  2.63351E-01
    9005.238      9.502   2.120  1.22056E+00  9.85832E-01  2.34728E-01
    9005.890     10.154   2.160  1.17657E+00  9.89297E-01  1.87274E-01
    9006.555     10.819   2.200  1.12331E+00  9.92389E-01  1.30923E-01
    9007.232     11.495   2.240  1.07490E+00  9.95137E-01  7.97607E-02
    9007.920     12.184   2.280  1.04109E+00  9.97550E-01  4.35378E-02
    9008.621     12.885   2.320  1.02612E+00  9.99638E-01  2.64797E-02
    9009.335     13.598   2.360  1.03074E+00  1.00143E+00  2.93089E-02
    9010.060     14.324   2.400  1.04952E+00  1.00293E+00  4.65826E-02
    9010.798     15.061   2.440  1.07245E+00  1.00418E+00  6.82695E-02
    9011.548     15.811   2.480  1.09062E+00  1.00519E+00  8.54331E-02
    9012.310     16.573   2.520  1.09693E+00  1.00597E+00  9.09575E-02
    9013.084     17.347   2.560  1.09333E+00  1.00655E+00  8.67798E-02
    9013.870     18.134   2.600  1.08523E+00  1.00695E+00  7.82730E-02
    9014.669     18.932   2.640  1.07402E+00  1.00717E+00  6.68568E-02
    9015.479     19.743   2.680  1.05958E+00  1.00724E+00  5.23492E-02
    9016.302     20.566   2.720  1.04181E+00  1.00715E+00  3.46591E-02
    9017.138     21.401   2.760  1.02151E+00  1.00697E+00  1.45416E-02
    9017.985     22.249   2.800  9.99614E-01  1.00666E+00 -7.04690E-03
    9018.844     23.108   2.840  9.77145E-01  1.00625E+00 -2.90999E-02
    9019.716     23.980   2.880  9.55260E-01  1.00577E+00 -5.05063E-02
    9020.600     24.864   2.920  9.34775E-01  1.00521E+00 -7.04374E-02
    9021.496     25.760   2.960  9.16645E-01  1.00461E+00 -8.79623E-02
    9022.404     26.668   3.000  9.01653E-01  1.00396E+00 -1.02306E-01
    9023.325     27.589   3.040  8.90155E-01  1.00327E+00 -1.13114E-01
    9024.258     28.521   3.080  8.82233E-01  1.00255E+00 -1.20313E-01
    9025.202     29.466   3.120  8.77736E-01  1.00181E+00 -1.24078E-01
    9026.160     30.423   3.160  8.76079E-01  1.00108E+00 -1.24999E-01
    9027.129     31.392   3.200  8.76749E-01  1.00036E+00 -1.23613E-01
    9028.110     32.374   3.240  8.79330E-01  9.99629E-01 -1.20299E-01
    9029.104     33.368   3.280  8.83290E-01  9.98922E-01 -1.15632E-01
    9030.110     34.373   3.320  8.88118E-01  9.98224E-01 -1.10106E-01
    9031.128     35.391   3.360  8.93410E-01  9.97559E-01 -1.04149E-01
    9032.158     36.422   3.400  8.98727E-01  9.96931E-01 -9.82036E-02
    9033.200     37.464   3.440  9.03598E-01  9.96340E-01 -9.27413E-02
    9034.255     38.519   3.480  9.07923E-01  9.95788E-01 -8.78650E-02
    9035.322     39.585   3.520  9.11948E-01  9.95278E-01 -8.33308E-02
    9036.401     40.664   3.560  9.16140E-01  9.94811E-01 -7.86706E-02
    9037.492     41.756   3.600  9.21160E-01  9.94408E-01 -7.32475E-02
    9038.595     42.859   3.640  9.27554E-01  9.94028E-01 -6.64745E-02
    9039.711     43.975   3.680  9.35735E-01  9.93715E-01 -5.79795E-02
    9040.839     45.102   3.720  9.45705E-01  9.93470E-01 -4.77646E-02
    9041.979     46.242   3.760  9.57381E-01  9.93251E-01 -3.58704E-02
    9043.131     47.394   3.800  9.70634E-01  9.93121E-01 -2.24866E-02
    9044.295     48.559   3.840  9.85045E-01  9.93016E-01 -7.97031E-03
    9045.472     49.735   3.880  1.00021E+00  9.92979E-01  7.23120E-03
    9046.660     50.924   3.920  1.01557E+00  9.92989E-01  2.25841E-02
    9047.861     52.125   3.960  1.03051E+00  9.93066E-01  3.74415E-02
    9049.074     53.338   4.000  1.04441E+00  9.93188E-01  5.12207E-02
    9050.300     54.563   4.040  1.05690E+00  9.93355E-01  6.35442E-02
    9051.537     55.801   4.080  1.06770E+00  9.93565E-01  7.41344E-02
    9052.787     57.050   4.120  1.07656E+00  9.93840E-01  8.27153E-02
    9054.049     58.312   4.160  1.08331E+00  9.94135E-01  8.91781E-02
    9055.323     59.586   4.200  1.08805E+00  9.94492E-01  9.35596E-02
    9056.609     60.873   4.240  1.09099E+00  9.94890E-01  9.61030E-02
    9057.907     62.171   4.280  1.09241E+00  9.95304E-01  9.71084E-02
    9059.218     63.482   4.320  1.09242E+00  9.95776E-01  9.66480E-02
    9060.541     64.805   4.360  1.09068E+00  9.96263E-01  9.44207E-02
    9061.876     66.140   4.400  1.08675E+00  9.96784E-01  8.99705E-02
    9063.223     67.487   4.440  1.08048E+00  9.97337E-01  8.31443E-02
    9064.582     68.846   4.480  1.07210E+00  9.97899E-01  7.42045E-02
    9065.954     70.218   4.520  1.06232E+00  9.98467E-01  6.38523E-02
    9067.338     71.602   4.560  1.05194E+00  9.99063E-01  5.28726E-02
    9068.734     72.998   4.600  1.04145E+00  9.99666E-01  4.17863E-02
    9070.142     74.406   4.640  1.03109E+00  1.00029E+00  3.08008E-02
    9071.562     75.826   4.680  1.02091E+00  1.00090E+00  2.00125E-02
    9072.995     77.259   4.720  1.01112E+00  1.00152E+00  9.59477E-03
    9074.440     78.703   4.760  1.00204E+00  1.00212E+00 -8.72147E-05
    9075.897     80.160   4.800  9.94125E-01  1.00272E+00 -8.59593E-03
    9077.366     81.629   4.840  9.87671E-01  1.00331E+00 -1.56425E-02
    9078.847     83.111   4.880  9.82712E-01  1.00390E+00 -2.11884E-02
    9080.341     84.604   4.920  9.78995E-01  1.00446E+00 -2.54606E-02
    9081.846     86.110   4.960  9.76178E-01  1.00500E+00 -2.88224E-02
    9083.364     87.628   5.000  9.73895E-01  1.00551E+00 -3.16199E-02
    9084.894     89.158   5.040  9.71933E-01  1.00601E+00 -3.40819E-02
    9086.437     90.700   5.080  9.70210E-01  1.00648E+00 -3.62695E-02
    9087.991     92.255   5.120  9.68801E-01  1.00691E+00 -3.81056E-02
    9089.558     93.821   5.160  9.67840E-01  1.00730E+00 -3.94558E-02
    9091.137     95.400   5.200  9.67527E-01  1.00767E+00 -4.01434E-02
    9092.728     96.991   5.240  9.68014E-01  1.00800E+00 -3.99897E-02
    9094.331     98.595   5.280  9.69505E-01  1.00827E+00 -3.87690E-02
    9095.946    100.210   5.320  9.72167E-01  1.00853E+00 -3.63602E-02
    9097.574    101.838   5.360  9.75874E-01  1.00874E+00 -3.28627E-02
    9099.214    103.477   5.400  9.80225E-01  1.00888E+00 -2.86577E-02
    9100.866    105.129   5.440  9.84813E-01  1.00901E+00 -2.41942E-02
    9102.530    106.794   5.480  9.89284E-01  1.00907E+00 -1.97836E-02
    9104.206    108.470   5.520  9.93581E-01  1.00911E+00 -1.55272E-02
    9105.895    110.159   5.560  9.97588E-01  1.00908E+00 -1.14944E-02
    9107.596    111.859   5.600  1.00122E+00  1.00901E+00 -7.79587E-03
    9109.309    113.572   5.640  1.00423E+00  1.00890E+00 -4.67360E-03
    9111.034    115.297   5.680  1.00622E+00  1.00875E+00 -2.53238E-03
    9112.771    117.035   5.720  1.00666E+00  1.00855E+00 -1.89468E-03
    9114.521    118.784   5.760  1.00523E+00  1.00832E+00 -3.08859E-03
    9116.282    120.546   5.800  1.00205E+00  1.00804E+00 -5.98684E-03
    9118.056    122.320   5.840  9.97717E-01  1.00770E+00 -9.98427E-03
    9119.842    124.106   5.880  9.93062E-01  1.00735E+00 -1.42860E-02
    9121.641    125.904   5.920  9.88684E-01  1.00696E+00 -1.82769E-02
    9123.451    127.715   5.960  9.84925E-01  1.00654E+00 -2.16152E-02
    9125.274    129.538   6.000  9.82022E-01  1.00606E+00 -2.40339E-02
