# # comment:                                                     FEFF 9.9.1  
# # Source:
# # Structure
# # Reduced
# # space
# # abc:
# # angles:
# # sites:
# # POT  SCF 100  7.0000   0, screened core-hole, AFOLP (folp(0)= 1.150)
# # Abs   Z=29 Rmt= 1.190 Rnm= 1.366 K  shell
# # Pot 1 Z=29 Rmt= 1.166 Rnm= 1.343
# # Pot 2 Z=74 Rmt= 1.243 Rnm= 1.433
# # Pot 3 Z= 8 Rmt= 0.951 Rnm= 1.098
# # Gam_ch=1.729E+00 H-L exch Vi= 0.000E+00 Vr= 0.000E+00
# # Mu=-6.099E+00eV kf=2.192E+00 Vint=-1.512E+01eV Rs_int= 1.655
# FMS rfms= 9.0000
# # PATH  Rmax=-1.000,  Keep_limit= 0.00, Heap_limit 0.00  Pwcrit= 2.50%
#  S02=0.950  Temp=   0.00  Debye_temp=   0.00  Global_sig2= 0.00000
#  Energy zero shift, vr, vi    0.00000E+00   0.00000E+00
#  Curved wave amplitude ratio filter   4.000%
#     file         sig2 tot  cw amp ratio   deg  nlegs   reff  inp sig2
#     0/   0 paths used
#  xsedge+ 50, used to normalize mu           2.4513E-04
#  -----------------------------------------------------------------------
#  omega    e    k    mu    mu0     chi     @#
    8983.469     -9.909  -1.000  4.99852E-02  5.72037E-02 -7.21852E-03
    8983.768     -9.610  -0.960  5.34958E-02  6.14398E-02 -7.94402E-03
    8984.054     -9.324  -0.920  5.74011E-02  6.61527E-02 -8.75156E-03
    8984.329     -9.049  -0.880  6.17622E-02  7.14130E-02 -9.65088E-03
    8984.591     -8.787  -0.840  6.66503E-02  7.73030E-02 -1.06528E-02
    8984.841     -8.537  -0.800  7.21488E-02  8.39180E-02 -1.17691E-02
    8985.079     -8.300  -0.760  7.83542E-02  9.13672E-02 -1.30130E-02
    8985.304     -8.074  -0.720  8.53763E-02  9.97745E-02 -1.43982E-02
    8985.517     -7.861  -0.680  9.33366E-02  1.09276E-01 -1.59393E-02
    8985.719     -7.660  -0.640  1.02365E-01  1.20015E-01 -1.76504E-02
    8985.908     -7.471  -0.600  1.12590E-01  1.32134E-01 -1.95442E-02
    8986.084     -7.294  -0.560  1.24123E-01  1.45753E-01 -2.16299E-02
    8986.249     -7.129  -0.520  1.37035E-01  1.60945E-01 -2.39093E-02
    8986.401     -6.977  -0.480  1.51320E-01  1.77693E-01 -2.63733E-02
    8986.542     -6.837  -0.440  1.66855E-01  1.95851E-01 -2.89968E-02
    8986.670     -6.709  -0.400  1.83367E-01  2.15102E-01 -3.17349E-02
    8986.785     -6.593  -0.360  2.00425E-01  2.34947E-01 -3.45226E-02
    8986.889     -6.489  -0.320  2.17460E-01  2.54738E-01 -3.72789E-02
    8986.980     -6.398  -0.280  2.33840E-01  2.73756E-01 -3.99160E-02
    8987.060     -6.318  -0.240  2.48959E-01  2.91310E-01 -4.23504E-02
    8987.127     -6.251  -0.200  2.62310E-01  3.06820E-01 -4.45108E-02
    8987.182     -6.197  -0.160  2.73525E-01  3.19865E-01 -4.63409E-02
    8987.224     -6.154  -0.120  2.82376E-01  3.30176E-01 -4.77994E-02
    8987.255     -6.123  -0.080  2.88744E-01  3.37602E-01 -4.88584E-02
    8987.279     -6.099   0.000  2.93847E-01  3.43568E-01 -4.97215E-02
    8987.334     -6.044   0.120  3.05175E-01  3.57013E-01 -5.18375E-02
    8987.377     -6.001   0.160  3.14009E-01  3.67472E-01 -5.34625E-02
    8987.432     -5.947   0.200  3.25216E-01  3.80792E-01 -5.55755E-02
    8987.499     -5.880   0.240  3.38630E-01  3.96828E-01 -5.81982E-02
    8987.578     -5.800   0.280  3.53879E-01  4.15235E-01 -6.13564E-02
    8987.669     -5.709   0.320  3.70420E-01  4.35517E-01 -6.50966E-02
    8987.773     -5.605   0.360  3.87575E-01  4.57084E-01 -6.95088E-02
    8987.889     -5.489   0.400  4.04533E-01  4.79286E-01 -7.47533E-02
    8988.017     -5.361   0.440  4.20482E-01  5.01573E-01 -8.10915E-02
    8988.157     -5.221   0.480  4.34552E-01  5.23459E-01 -8.89065E-02
    8988.309     -5.069   0.520  4.46029E-01  5.44681E-01 -9.86515E-02
    8988.474     -4.904   0.560  4.54408E-01  5.65046E-01 -1.10639E-01
    8988.651     -4.727   0.600  4.59840E-01  5.84562E-01 -1.24721E-01
    8988.840     -4.538   0.640  4.63224E-01  6.03267E-01 -1.40043E-01
    8989.041     -4.337   0.680  4.66129E-01  6.21223E-01 -1.55094E-01
    8989.254     -4.124   0.720  4.70369E-01  6.38567E-01 -1.68198E-01
    8989.480     -3.898   0.760  4.77348E-01  6.55352E-01 -1.78004E-01
    8989.718     -3.661   0.800  4.87598E-01  6.71682E-01 -1.84084E-01
    8989.968     -3.411   0.840  5.00110E-01  6.87630E-01 -1.87519E-01
    8990.230     -3.149   0.880  5.12353E-01  7.03248E-01 -1.90895E-01
    8990.504     -2.874   0.920  5.21917E-01  7.18559E-01 -1.96642E-01
    8990.790     -2.588   0.960  5.28799E-01  7.33609E-01 -2.04811E-01
    8991.089     -2.289   1.000  5.35357E-01  7.48395E-01 -2.13038E-01
    8991.400     -1.978   1.040  5.44007E-01  7.62925E-01 -2.18918E-01
    8991.723     -1.655   1.080  5.55430E-01  7.77175E-01 -2.21745E-01
    8992.058     -1.320   1.120  5.69360E-01  7.91180E-01 -2.21820E-01
    8992.406     -0.972   1.160  5.86234E-01  8.04886E-01 -2.18652E-01
    8992.766     -0.613   1.200  6.07048E-01  8.18275E-01 -2.11226E-01
    8993.137     -0.241   1.240  6.31185E-01  8.31348E-01 -2.00163E-01
    8993.521      0.143   1.280  6.56206E-01  8.44062E-01 -1.87857E-01
    8993.918      0.540   1.320  6.80520E-01  8.56416E-01 -1.75895E-01
    8994.326      0.948   1.360  7.04920E-01  8.68361E-01 -1.63441E-01
    8994.747      1.369   1.400  7.31916E-01  8.79894E-01 -1.47977E-01
    8995.180      1.801   1.440  7.63418E-01  8.90989E-01 -1.27571E-01
    8995.625      2.246   1.480  7.98982E-01  9.01622E-01 -1.02639E-01
    8996.082      2.704   1.520  8.36741E-01  9.11787E-01 -7.50457E-02
    8996.551      3.173   1.560  8.75615E-01  9.21461E-01 -4.58456E-02
    8997.033      3.655   1.600  9.16950E-01  9.30642E-01 -1.36920E-02
    8997.527      4.148   1.640  9.63026E-01  9.39330E-01  2.36968E-02
    8998.032      4.654   1.680  1.01180E+00  9.47502E-01  6.43020E-02
    8998.551      5.172   1.720  1.05454E+00  9.55180E-01  9.93588E-02
    8999.081      5.703   1.760  1.08382E+00  9.62347E-01  1.21474E-01
    8999.624      6.245   1.800  1.10137E+00  9.69003E-01  1.32367E-01
    9000.178      6.800   1.840  1.11380E+00  9.75154E-01  1.38644E-01
    9000.745      7.367   1.880  1.12764E+00  9.80826E-01  1.46819E-01
    9001.324      7.946   1.920  1.14667E+00  9.86003E-01  1.60668E-01
    9001.916      8.537   1.960  1.16873E+00  9.90714E-01  1.78019E-01
    9002.519      9.141   2.000  1.18769E+00  9.94988E-01  1.92704E-01
    9003.135      9.757   2.040  1.19775E+00  9.98812E-01  1.98938E-01
    9003.763     10.385   2.080  1.19446E+00  1.00222E+00  1.92244E-01
    9004.403     11.025   2.120  1.17571E+00  1.00523E+00  1.70486E-01
    9005.055     11.677   2.160  1.14644E+00  1.00784E+00  1.38605E-01
    9005.720     12.341   2.200  1.11845E+00  1.01010E+00  1.08346E-01
    9006.396     13.018   2.240  1.10013E+00  1.01202E+00  8.81046E-02
    9007.085     13.707   2.280  1.09198E+00  1.01362E+00  7.83590E-02
    9007.786     14.408   2.320  1.08838E+00  1.01489E+00  7.34874E-02
    9008.499     15.121   2.360  1.08267E+00  1.01590E+00  6.67729E-02
    9009.225     15.847   2.400  1.07310E+00  1.01663E+00  5.64766E-02
    9009.962     16.584   2.440  1.06343E+00  1.01713E+00  4.62978E-02
    9010.712     17.334   2.480  1.05653E+00  1.01739E+00  3.91329E-02
    9011.474     18.096   2.520  1.05230E+00  1.01747E+00  3.48283E-02
    9012.248     18.870   2.560  1.04962E+00  1.01736E+00  3.22683E-02
    9013.035     19.657   2.600  1.04624E+00  1.01707E+00  2.91632E-02
    9013.833     20.455   2.640  1.04341E+00  1.01665E+00  2.67571E-02
    9014.644     21.266   2.680  1.04305E+00  1.01608E+00  2.69714E-02
    9015.467     22.089   2.720  1.04457E+00  1.01540E+00  2.91681E-02
    9016.302     22.924   2.760  1.04635E+00  1.01462E+00  3.17309E-02
    9017.149     23.771   2.800  1.04699E+00  1.01375E+00  3.32399E-02
    9018.009     24.631   2.840  1.04567E+00  1.01282E+00  3.28532E-02
    9018.881     25.503   2.880  1.04224E+00  1.01182E+00  3.04227E-02
    9019.765     26.386   2.920  1.03694E+00  1.01079E+00  2.61442E-02
    9020.661     27.283   2.960  1.03017E+00  1.00971E+00  2.04564E-02
    9021.569     28.191   3.000  1.02241E+00  1.00861E+00  1.37966E-02
    9022.490     29.111   3.040  1.01401E+00  1.00751E+00  6.49710E-03
    9023.422     30.044   3.080  1.00521E+00  1.00640E+00 -1.19469E-03
    9024.367     30.989   3.120  9.96163E-01  1.00529E+00 -9.13166E-03
    9025.324     31.946   3.160  9.86879E-01  1.00419E+00 -1.73139E-02
    9026.293     32.915   3.200  9.77406E-01  1.00312E+00 -2.57148E-02
    9027.275     33.897   3.240  9.67948E-01  1.00206E+00 -3.41118E-02
    9028.269     34.890   3.280  9.58732E-01  1.00106E+00 -4.23238E-02
    9029.274     35.896   3.320  9.49806E-01  1.00007E+00 -5.02653E-02
    9030.292     36.914   3.360  9.41284E-01  9.99147E-01 -5.78635E-02
    9031.323     37.944   3.400  9.33199E-01  9.98245E-01 -6.50458E-02
    9032.365     38.987   3.440  9.25779E-01  9.97409E-01 -7.16298E-02
    9033.420     40.041   3.480  9.19443E-01  9.96643E-01 -7.71995E-02
    9034.486     41.108   3.520  9.14674E-01  9.95925E-01 -8.12508E-02
    9035.565     42.187   3.560  9.11782E-01  9.95255E-01 -8.34737E-02
    9036.657     43.278   3.600  9.10914E-01  9.94657E-01 -8.37430E-02
    9037.760     44.382   3.640  9.12061E-01  9.94132E-01 -8.20714E-02
    9038.876     45.497   3.680  9.15069E-01  9.93659E-01 -7.85901E-02
    9040.003     46.625   3.720  9.19762E-01  9.93258E-01 -7.34958E-02
    9041.143     47.765   3.760  9.26106E-01  9.92930E-01 -6.68237E-02
    9042.295     48.917   3.800  9.34079E-01  9.92653E-01 -5.85745E-02
    9043.460     50.082   3.840  9.43586E-01  9.92428E-01 -4.88419E-02
    9044.636     51.258   3.880  9.54401E-01  9.92296E-01 -3.78952E-02
    9045.825     52.447   3.920  9.65981E-01  9.92216E-01 -2.62351E-02
    9047.026     53.648   3.960  9.77632E-01  9.92185E-01 -1.45528E-02
    9048.239     54.861   4.000  9.88680E-01  9.92226E-01 -3.54601E-03
    9049.464     56.086   4.040  9.98620E-01  9.92337E-01  6.28316E-03
    9050.702     57.324   4.080  1.00718E+00  9.92494E-01  1.46832E-02
    9051.951     58.573   4.120  1.01438E+00  9.92697E-01  2.16862E-02
    9053.213     59.835   4.160  1.02060E+00  9.92946E-01  2.76533E-02
    9054.487     61.109   4.200  1.02629E+00  9.93258E-01  3.30329E-02
    9055.774     62.395   4.240  1.03165E+00  9.93613E-01  3.80377E-02
    9057.072     63.694   4.280  1.03649E+00  9.93986E-01  4.25028E-02
    9058.383     65.004   4.320  1.04038E+00  9.94420E-01  4.59570E-02
    9059.705     66.327   4.360  1.04277E+00  9.94892E-01  4.78818E-02
    9061.040     67.662   4.400  1.04340E+00  9.95379E-01  4.80227E-02
    9062.388     69.010   4.440  1.04243E+00  9.95899E-01  4.65266E-02
    9063.747     70.369   4.480  1.04024E+00  9.96454E-01  4.37820E-02
    9065.119     71.741   4.520  1.03732E+00  9.97040E-01  4.02848E-02
    9066.502     73.124   4.560  1.03417E+00  9.97612E-01  3.65579E-02
    9067.898     74.520   4.600  1.03131E+00  9.98231E-01  3.30800E-02
    9069.307     75.928   4.640  1.02904E+00  9.98833E-01  3.02079E-02
    9070.727     77.349   4.680  1.02753E+00  9.99437E-01  2.80922E-02
    9072.160     78.781   4.720  1.02669E+00  1.00006E+00  2.66274E-02
    9073.604     80.226   4.760  1.02624E+00  1.00069E+00  2.55517E-02
    9075.061     81.683   4.800  1.02588E+00  1.00129E+00  2.45889E-02
    9076.530     83.152   4.840  1.02540E+00  1.00188E+00  2.35202E-02
    9078.012     84.633   4.880  1.02466E+00  1.00247E+00  2.21941E-02
    9079.505     86.127   4.920  1.02356E+00  1.00305E+00  2.05060E-02
    9081.011     87.633   4.960  1.02193E+00  1.00360E+00  1.83251E-02
    9082.529     89.151   5.000  1.01964E+00  1.00412E+00  1.55274E-02
    9084.059     90.681   5.040  1.01669E+00  1.00462E+00  1.20690E-02
    9085.601     92.223   5.080  1.01314E+00  1.00511E+00  8.03058E-03
    9087.156     93.777   5.120  1.00916E+00  1.00555E+00  3.60995E-03
    9088.722     95.344   5.160  1.00500E+00  1.00596E+00 -9.69224E-04
    9090.301     96.923   5.200  1.00085E+00  1.00634E+00 -5.49590E-03
    9091.892     98.514   5.240  9.96945E-01  1.00668E+00 -9.73701E-03
    9093.495    100.117   5.280  9.93590E-01  1.00698E+00 -1.33900E-02
    9095.111    101.733   5.320  9.91129E-01  1.00724E+00 -1.61075E-02
    9096.739    103.360   5.360  9.89898E-01  1.00745E+00 -1.75525E-02
    9098.378    105.000   5.400  9.90123E-01  1.00762E+00 -1.74970E-02
    9100.030    106.652   5.440  9.91788E-01  1.00773E+00 -1.59384E-02
    9101.695    108.316   5.480  9.94587E-01  1.00781E+00 -1.32259E-02
    9103.371    109.993   5.520  9.97808E-01  1.00786E+00 -1.00478E-02
    9105.060    111.681   5.560  1.00056E+00  1.00783E+00 -7.27021E-03
    9106.760    113.382   5.600  1.00215E+00  1.00779E+00 -5.63968E-03
    9108.473    115.095   5.640  1.00217E+00  1.00768E+00 -5.51148E-03
    9110.198    116.820   5.680  1.00078E+00  1.00753E+00 -6.75824E-03
    9111.936    118.558   5.720  9.98399E-01  1.00734E+00 -8.94016E-03
    9113.685    120.307   5.760  9.95569E-01  1.00711E+00 -1.15364E-02
    9115.447    122.069   5.800  9.92683E-01  1.00683E+00 -1.41492E-02
    9117.221    123.843   5.840  9.89930E-01  1.00652E+00 -1.65891E-02
    9119.007    125.629   5.880  9.87341E-01  1.00617E+00 -1.88285E-02
    9120.805    127.427   5.920  9.84933E-01  1.00578E+00 -2.08517E-02
    9122.616    129.238   5.960  9.82843E-01  1.00536E+00 -2.25202E-02
    9124.439    131.060   6.000  9.81348E-01  1.00488E+00 -2.35280E-02
