# # comment:                                                     FEFF 9.9.1  
# # Source:
# # Structure
# # Reduced
# # space
# # abc:
# # angles:
# # sites:
# # POT  SCF 100  7.0000   0, screened core-hole, AFOLP (folp(0)= 1.150)
# # Abs   Z=29 Rmt= 1.276 Rnm= 1.330 K  shell
# # Pot 1 Z=20 Rmt= 1.616 Rnm= 1.692
# # Pot 2 Z=29 Rmt= 1.277 Rnm= 1.330
# # Pot 3 Z=77 Rmt= 1.265 Rnm= 1.389
# # Pot 4 Z= 8 Rmt= 1.029 Rnm= 1.085
# # Gam_ch=1.729E+00 H-L exch Vi= 0.000E+00 Vr= 0.000E+00
# # Mu=-1.072E+01eV kf=2.131E+00 Vint=-1.885E+01eV Rs_int= 1.702
# FMS rfms= 9.0000
# # PATH  Rmax=-1.000,  Keep_limit= 0.00, Heap_limit 0.00  Pwcrit= 2.50%
#  S02=0.950  Temp=   0.00  Debye_temp=   0.00  Global_sig2= 0.00000
#  Energy zero shift, vr, vi    0.00000E+00   0.00000E+00
#  Curved wave amplitude ratio filter   4.000%
#     file         sig2 tot  cw amp ratio   deg  nlegs   reff  inp sig2
#     0/   0 paths used
#  xsedge+ 50, used to normalize mu           2.4753E-04
#  -----------------------------------------------------------------------
#  omega    e    k    mu    mu0     chi     @#
    8985.434    -14.532  -1.000  3.05993E-02  4.90687E-02 -1.84694E-02
    8985.733    -14.233  -0.960  3.18188E-02  5.25066E-02 -2.06878E-02
    8986.019    -13.947  -0.920  3.30931E-02  5.63169E-02 -2.32238E-02
    8986.293    -13.672  -0.880  3.44249E-02  6.05537E-02 -2.61288E-02
    8986.556    -13.410  -0.840  3.58172E-02  6.52799E-02 -2.94627E-02
    8986.805    -13.160  -0.800  3.72731E-02  7.05681E-02 -3.32949E-02
    8987.043    -12.922  -0.760  3.87960E-02  7.65017E-02 -3.77057E-02
    8987.269    -12.697  -0.720  4.03891E-02  8.31747E-02 -4.27856E-02
    8987.482    -12.484  -0.680  4.20558E-02  9.06907E-02 -4.86348E-02
    8987.683    -12.282  -0.640  4.37989E-02  9.91585E-02 -5.53596E-02
    8987.872    -12.093  -0.600  4.56202E-02  1.08685E-01 -6.30651E-02
    8988.049    -11.917  -0.560  4.75191E-02  1.19362E-01 -7.18425E-02
    8988.214    -11.752  -0.520  4.94916E-02  1.31241E-01 -8.17493E-02
    8988.366    -11.600  -0.480  5.15281E-02  1.44310E-01 -9.27819E-02
    8988.506    -11.459  -0.440  5.36106E-02  1.58454E-01 -1.04844E-01
    8988.634    -11.331  -0.400  5.57114E-02  1.73430E-01 -1.17718E-01
    8988.750    -11.216  -0.360  5.77927E-02  1.88854E-01 -1.31061E-01
    8988.854    -11.112  -0.320  5.98086E-02  2.04229E-01 -1.44420E-01
    8988.945    -11.021  -0.280  6.17096E-02  2.19002E-01 -1.57293E-01
    8989.024    -10.941  -0.240  6.34482E-02  2.32643E-01 -1.69194E-01
    8989.091    -10.874  -0.200  6.49835E-02  2.44702E-01 -1.79718E-01
    8989.146    -10.819  -0.160  6.62827E-02  2.54851E-01 -1.88569E-01
    8989.189    -10.777  -0.120  6.73205E-02  2.62879E-01 -1.95559E-01
    8989.219    -10.746  -0.080  6.80778E-02  2.68665E-01 -2.00587E-01
    8989.244    -10.722   0.000  6.87014E-02  2.73316E-01 -2.04615E-01
    8989.299    -10.667   0.120  7.02417E-02  2.83816E-01 -2.13574E-01
    8989.341    -10.624   0.160  7.13760E-02  2.91979E-01 -2.20603E-01
    8989.396    -10.569   0.200  7.28478E-02  3.02423E-01 -2.29576E-01
    8989.463    -10.502   0.240  7.46055E-02  3.14978E-01 -2.40373E-01
    8989.543    -10.423   0.280  7.66826E-02  3.29449E-01 -2.52767E-01
    8989.634    -10.332   0.320  7.90682E-02  3.45468E-01 -2.66400E-01
    8989.738    -10.228   0.360  8.17667E-02  3.62599E-01 -2.80832E-01
    8989.853    -10.112   0.400  8.47756E-02  3.80378E-01 -2.95603E-01
    8989.981     -9.984   0.440  8.81631E-02  3.98365E-01 -3.10202E-01
    8990.122     -9.844   0.480  9.19542E-02  4.16210E-01 -3.24256E-01
    8990.274     -9.692   0.520  9.63282E-02  4.33744E-01 -3.37416E-01
    8990.439     -9.527   0.560  1.01374E-01  4.50815E-01 -3.49441E-01
    8990.615     -9.350   0.600  1.07388E-01  4.67454E-01 -3.60066E-01
    8990.804     -9.161   0.640  1.14654E-01  4.83667E-01 -3.69013E-01
    8991.006     -8.960   0.680  1.23633E-01  4.99514E-01 -3.75882E-01
    8991.219     -8.747   0.720  1.35018E-01  5.15103E-01 -3.80085E-01
    8991.444     -8.521   0.760  1.49775E-01  5.30480E-01 -3.80705E-01
    8991.682     -8.283   0.800  1.69217E-01  5.45705E-01 -3.76487E-01
    8991.932     -8.033   0.840  1.94958E-01  5.60865E-01 -3.65907E-01
    8992.194     -7.771   0.880  2.27692E-01  5.75956E-01 -3.48264E-01
    8992.469     -7.497   0.920  2.64854E-01  5.91042E-01 -3.26188E-01
    8992.755     -7.211   0.960  2.97873E-01  6.06117E-01 -3.08244E-01
    8993.054     -6.912   1.000  3.16684E-01  6.21210E-01 -3.04525E-01
    8993.365     -6.601   1.040  3.20110E-01  6.36294E-01 -3.16184E-01
    8993.688     -6.278   1.080  3.16470E-01  6.51362E-01 -3.34892E-01
    8994.023     -5.943   1.120  3.13363E-01  6.66399E-01 -3.53037E-01
    8994.371     -5.595   1.160  3.13366E-01  6.81405E-01 -3.68039E-01
    8994.730     -5.235   1.200  3.16794E-01  6.96318E-01 -3.79524E-01
    8995.102     -4.864   1.240  3.23894E-01  7.11151E-01 -3.87257E-01
    8995.486     -4.480   1.280  3.35421E-01  7.25857E-01 -3.90436E-01
    8995.882     -4.083   1.320  3.53480E-01  7.40385E-01 -3.86905E-01
    8996.291     -3.675   1.360  3.82340E-01  7.54724E-01 -3.72384E-01
    8996.711     -3.254   1.400  4.26520E-01  7.68863E-01 -3.42343E-01
    8997.144     -2.821   1.440  4.87725E-01  7.82726E-01 -2.95001E-01
    8997.589     -2.376   1.480  5.67343E-01  7.96304E-01 -2.28962E-01
    8998.046     -1.919   1.520  6.68508E-01  8.09565E-01 -1.41057E-01
    8998.516     -1.450   1.560  7.94263E-01  8.22494E-01 -2.82303E-02
    8998.997     -0.968   1.600  9.41257E-01  8.35040E-01  1.06217E-01
    8999.491     -0.474   1.640  1.09422E+00  8.47195E-01  2.47021E-01
    8999.997      0.031   1.680  1.25100E+00  8.58926E-01  3.92069E-01
    9000.515      0.550   1.720  1.42662E+00  8.70229E-01  5.56394E-01
    9001.046      1.080   1.760  1.59784E+00  8.81073E-01  7.16766E-01
    9001.588      1.623   1.800  1.72943E+00  8.91473E-01  8.37961E-01
    9002.143      2.177   1.840  1.80961E+00  9.01364E-01  9.08243E-01
    9002.710      2.744   1.880  1.78276E+00  9.10785E-01  8.71976E-01
    9003.289      3.323   1.920  1.63807E+00  9.19731E-01  7.18338E-01
    9003.880      3.915   1.960  1.46077E+00  9.28162E-01  5.32608E-01
    9004.484      4.518   2.000  1.31146E+00  9.36097E-01  3.75366E-01
    9005.099      5.134   2.040  1.20074E+00  9.43560E-01  2.57184E-01
    9005.727      5.762   2.080  1.12496E+00  9.50511E-01  1.74454E-01
    9006.367      6.402   2.120  1.07601E+00  9.56995E-01  1.19018E-01
    9007.020      7.054   2.160  1.04056E+00  9.62998E-01  7.75622E-02
    9007.684      7.719   2.200  1.00254E+00  9.68543E-01  3.39961E-02
    9008.361      8.395   2.240  9.55925E-01  9.73637E-01 -1.77115E-02
    9009.050      9.084   2.280  9.10909E-01  9.78308E-01 -6.73984E-02
    9009.751      9.785   2.320  8.80768E-01  9.82542E-01 -1.01774E-01
    9010.464     10.498   2.360  8.72642E-01  9.86366E-01 -1.13724E-01
    9011.189     11.224   2.400  8.91622E-01  9.89789E-01 -9.81668E-02
    9011.927     11.961   2.440  9.39525E-01  9.92862E-01 -5.33368E-02
    9012.677     12.711   2.480  1.01219E+00  9.95552E-01  1.66412E-02
    9013.439     13.473   2.520  1.10338E+00  9.97929E-01  1.05453E-01
    9014.213     14.247   2.560  1.17311E+00  9.99961E-01  1.73148E-01
    9014.999     15.034   2.600  1.18359E+00  1.00170E+00  1.81896E-01
    9015.798     15.832   2.640  1.14443E+00  1.00315E+00  1.41279E-01
    9016.609     16.643   2.680  1.07823E+00  1.00435E+00  7.38764E-02
    9017.432     17.466   2.720  1.00458E+00  1.00530E+00 -7.21862E-04
    9018.267     18.301   2.760  9.35388E-01  1.00602E+00 -7.06279E-02
    9019.114     19.148   2.800  8.76108E-01  1.00652E+00 -1.30415E-01
    9019.974     20.008   2.840  8.29207E-01  1.00683E+00 -1.77622E-01
    9020.845     20.880   2.880  7.94534E-01  1.00697E+00 -2.12431E-01
    9021.729     21.764   2.920  7.70755E-01  1.00694E+00 -2.36184E-01
    9022.625     22.660   2.960  7.56488E-01  1.00678E+00 -2.50289E-01
    9023.534     23.568   3.000  7.50036E-01  1.00647E+00 -2.56433E-01
    9024.454     24.489   3.040  7.49819E-01  1.00606E+00 -2.56242E-01
    9025.387     25.421   3.080  7.54362E-01  1.00554E+00 -2.51179E-01
    9026.332     26.366   3.120  7.62696E-01  1.00493E+00 -2.42236E-01
    9027.289     27.323   3.160  7.73900E-01  1.00425E+00 -2.30346E-01
    9028.258     28.292   3.200  7.88024E-01  1.00348E+00 -2.15459E-01
    9029.240     29.274   3.240  8.05457E-01  1.00269E+00 -1.97237E-01
    9030.233     30.268   3.280  8.26190E-01  1.00184E+00 -1.75650E-01
    9031.239     31.273   3.320  8.50332E-01  1.00095E+00 -1.50617E-01
    9032.257     32.291   3.360  8.78213E-01  1.00005E+00 -1.21834E-01
    9033.287     33.322   3.400  9.09942E-01  9.99138E-01 -8.91963E-02
    9034.330     34.364   3.440  9.45099E-01  9.98224E-01 -5.31251E-02
    9035.384     35.419   3.480  9.83223E-01  9.97289E-01 -1.40654E-02
    9036.451     36.485   3.520  1.02348E+00  9.96377E-01  2.71017E-02
    9037.530     37.564   3.560  1.06448E+00  9.95493E-01  6.89883E-02
    9038.621     38.656   3.600  1.10417E+00  9.94596E-01  1.09577E-01
    9039.725     39.759   3.640  1.13969E+00  9.93752E-01  1.45939E-01
    9040.840     40.875   3.680  1.16678E+00  9.92922E-01  1.73854E-01
    9041.968     42.002   3.720  1.18134E+00  9.92129E-01  1.89208E-01
    9043.108     43.142   3.760  1.18124E+00  9.91396E-01  1.89842E-01
    9044.260     44.294   3.800  1.16774E+00  9.90681E-01  1.77060E-01
    9045.424     45.459   3.840  1.14530E+00  9.90007E-01  1.55293E-01
    9046.601     46.635   3.880  1.11937E+00  9.89396E-01  1.29979E-01
    9047.790     47.824   3.920  1.09393E+00  9.88808E-01  1.05126E-01
    9048.990     49.025   3.960  1.07105E+00  9.88284E-01  8.27649E-02
    9050.204     50.238   4.000  1.05148E+00  9.87827E-01  6.36518E-02
    9051.429     51.463   4.040  1.03552E+00  9.87395E-01  4.81289E-02
    9052.666     52.701   4.080  1.02358E+00  9.87029E-01  3.65549E-02
    9053.916     53.950   4.120  1.01590E+00  9.86730E-01  2.91651E-02
    9055.178     55.212   4.160  1.01230E+00  9.86455E-01  2.58407E-02
    9056.452     56.486   4.200  1.01209E+00  9.86248E-01  2.58375E-02
    9057.738     57.773   4.240  1.01383E+00  9.86107E-01  2.77228E-02
    9059.037     59.071   4.280  1.01584E+00  9.85988E-01  2.98537E-02
    9060.347     60.382   4.320  1.01687E+00  9.85936E-01  3.09387E-02
    9061.670     61.704   4.360  1.01632E+00  9.85926E-01  3.03924E-02
    9063.005     63.039   4.400  1.01421E+00  9.85958E-01  2.82553E-02
    9064.352     64.387   4.440  1.01087E+00  9.86032E-01  2.48382E-02
    9065.712     65.746   4.480  1.00648E+00  9.86168E-01  2.03163E-02
    9067.083     67.118   4.520  1.00129E+00  9.86323E-01  1.49708E-02
    9068.467     68.501   4.560  9.95786E-01  9.86516E-01  9.27041E-03
    9069.863     69.897   4.600  9.90493E-01  9.86769E-01  3.72462E-03
    9071.271     71.306   4.640  9.85745E-01  9.87035E-01 -1.29030E-03
    9072.692     72.726   4.680  9.81635E-01  9.87314E-01 -5.67912E-03
    9074.124     74.159   4.720  9.78037E-01  9.87647E-01 -9.60970E-03
    9075.569     75.603   4.760  9.74466E-01  9.87991E-01 -1.35251E-02
    9077.026     77.060   4.800  9.70113E-01  9.88344E-01 -1.82304E-02
    9078.495     78.529   4.840  9.64065E-01  9.88726E-01 -2.46613E-02
    9079.976     80.011   4.880  9.55804E-01  9.89137E-01 -3.33337E-02
    9081.470     81.504   4.920  9.45480E-01  9.89531E-01 -4.40511E-02
    9082.976     83.010   4.960  9.34068E-01  9.89949E-01 -5.58810E-02
    9084.493     84.528   5.000  9.23001E-01  9.90369E-01 -6.73678E-02
    9086.024     86.058   5.040  9.13844E-01  9.90791E-01 -7.69475E-02
    9087.566     87.600   5.080  9.08012E-01  9.91234E-01 -8.32219E-02
    9089.120     89.155   5.120  9.06454E-01  9.91630E-01 -8.51761E-02
    9090.687     90.721   5.160  9.09607E-01  9.92044E-01 -8.24369E-02
    9092.266     92.300   5.200  9.17052E-01  9.92453E-01 -7.54010E-02
    9093.857     93.891   5.240  9.27532E-01  9.92834E-01 -6.53018E-02
    9095.460     95.494   5.280  9.39285E-01  9.93206E-01 -5.39212E-02
    9097.076     97.110   5.320  9.50378E-01  9.93547E-01 -4.31681E-02
    9098.703     98.738   5.360  9.59431E-01  9.93876E-01 -3.44456E-02
    9100.343    100.377   5.400  9.65899E-01  9.94174E-01 -2.82757E-02
    9101.995    102.029   5.440  9.70075E-01  9.94461E-01 -2.43854E-02
    9103.659    103.694   5.480  9.72669E-01  9.94711E-01 -2.20418E-02
    9105.336    105.370   5.520  9.74720E-01  9.94924E-01 -2.02036E-02
    9107.024    107.059   5.560  9.77619E-01  9.95100E-01 -1.74814E-02
    9108.725    108.759   5.600  9.82974E-01  9.95261E-01 -1.22869E-02
    9110.438    110.472   5.640  9.92028E-01  9.95362E-01 -3.33418E-03
    9112.163    112.197   5.680  1.00516E+00  9.95447E-01  9.71025E-03
    9113.900    113.935   5.720  1.02118E+00  9.95495E-01  2.56895E-02
    9115.650    115.684   5.760  1.03738E+00  9.95504E-01  4.18728E-02
    9117.412    117.446   5.800  1.05033E+00  9.95473E-01  5.48517E-02
    9119.186    119.220   5.840  1.05757E+00  9.95404E-01  6.21703E-02
    9120.972    121.006   5.880  1.05874E+00  9.95296E-01  6.34435E-02
    9122.770    122.804   5.920  1.05527E+00  9.95149E-01  6.01191E-02
    9124.581    124.615   5.960  1.04934E+00  9.94962E-01  5.43794E-02
    9126.403    126.438   6.000  1.04284E+00  9.94713E-01  4.81246E-02
