# # comment:                                                     FEFF 9.9.1  
# # Source:
# # Structure
# # Reduced
# # space
# # abc:
# # angles:
# # sites:
# # POT  SCF 100  7.0000   0, screened core-hole, AFOLP (folp(0)= 1.150)
# # Abs   Z=29 Rmt= 1.146 Rnm= 1.221 K  shell
# # Pot 1 Z=20 Rmt= 1.758 Rnm= 1.798
# # Pot 2 Z=29 Rmt= 1.146 Rnm= 1.221
# # Pot 3 Z= 8 Rmt= 1.062 Rnm= 1.109
# # Gam_ch=1.729E+00 H-L exch Vi= 0.000E+00 Vr= 0.000E+00
# # Mu=-1.085E+01eV kf=2.104E+00 Vint=-1.857E+01eV Rs_int= 1.724
# FMS rfms= 9.0000
# # PATH  Rmax=-1.000,  Keep_limit= 0.00, Heap_limit 0.00  Pwcrit= 2.50%
#  S02=0.950  Temp=   0.00  Debye_temp=   0.00  Global_sig2= 0.00000
#  Energy zero shift, vr, vi    0.00000E+00   0.00000E+00
#  Curved wave amplitude ratio filter   4.000%
#     file         sig2 tot  cw amp ratio   deg  nlegs   reff  inp sig2
#     0/   0 paths used
#  xsedge+ 50, used to normalize mu           2.4421E-04
#  -----------------------------------------------------------------------
#  omega    e    k    mu    mu0     chi     @#
    8985.769    -14.655  -1.000  2.95238E-02  5.37108E-02 -2.41871E-02
    8986.067    -14.357  -0.960  3.09739E-02  5.75569E-02 -2.65830E-02
    8986.354    -14.070  -0.920  3.25640E-02  6.18237E-02 -2.92597E-02
    8986.628    -13.796  -0.880  3.43173E-02  6.65722E-02 -3.22549E-02
    8986.890    -13.534  -0.840  3.62615E-02  7.18735E-02 -3.56120E-02
    8987.140    -13.284  -0.800  3.84293E-02  7.78098E-02 -3.93805E-02
    8987.378    -13.046  -0.760  4.08590E-02  8.44753E-02 -4.36163E-02
    8987.603    -12.820  -0.720  4.35945E-02  9.19763E-02 -4.83818E-02
    8987.817    -12.607  -0.680  4.66850E-02  1.00430E-01 -5.37446E-02
    8988.018    -12.406  -0.640  5.01832E-02  1.09958E-01 -5.97751E-02
    8988.207    -12.217  -0.600  5.41421E-02  1.20683E-01 -6.65411E-02
    8988.384    -12.040  -0.560  5.86085E-02  1.32707E-01 -7.40983E-02
    8988.548    -11.875  -0.520  6.36130E-02  1.46090E-01 -8.24765E-02
    8988.701    -11.723  -0.480  6.91568E-02  1.60816E-01 -9.16596E-02
    8988.841    -11.583  -0.440  7.51954E-02  1.76758E-01 -1.01563E-01
    8988.969    -11.455  -0.400  8.16259E-02  1.93641E-01 -1.12015E-01
    8989.085    -11.339  -0.360  8.82829E-02  2.11032E-01 -1.22749E-01
    8989.188    -11.235  -0.320  9.49491E-02  2.28370E-01 -1.33421E-01
    8989.280    -11.144  -0.280  1.01383E-01  2.45034E-01 -1.43651E-01
    8989.359    -11.065  -0.240  1.07351E-01  2.60421E-01 -1.53070E-01
    8989.426    -10.998  -0.200  1.12655E-01  2.74027E-01 -1.61372E-01
    8989.481    -10.943  -0.160  1.17147E-01  2.85480E-01 -1.68332E-01
    8989.524    -10.900  -0.120  1.20728E-01  2.94539E-01 -1.73811E-01
    8989.554    -10.870  -0.080  1.23338E-01  3.01070E-01 -1.77732E-01
    8989.579    -10.845   0.000  1.25493E-01  3.06319E-01 -1.80826E-01
    8989.633    -10.790   0.120  1.30327E-01  3.18175E-01 -1.87848E-01
    8989.676    -10.748   0.160  1.34017E-01  3.27390E-01 -1.93373E-01
    8989.731    -10.693   0.200  1.38749E-01  3.39172E-01 -2.00423E-01
    8989.798    -10.626   0.240  1.44443E-01  3.53356E-01 -2.08913E-01
    8989.877    -10.547   0.280  1.51073E-01  3.69719E-01 -2.18647E-01
    8989.969    -10.455   0.320  1.58460E-01  3.87831E-01 -2.29371E-01
    8990.072    -10.351   0.360  1.66327E-01  4.07185E-01 -2.40857E-01
    8990.188    -10.236   0.400  1.74266E-01  4.27301E-01 -2.53035E-01
    8990.316    -10.108   0.440  1.81492E-01  4.47663E-01 -2.66171E-01
    8990.456     -9.967   0.480  1.86795E-01  4.67881E-01 -2.81086E-01
    8990.609     -9.815   0.520  1.88602E-01  4.87742E-01 -2.99140E-01
    8990.773     -9.650   0.560  1.85410E-01  5.07094E-01 -3.21685E-01
    8990.950     -9.474   0.600  1.76780E-01  5.25947E-01 -3.49168E-01
    8991.139     -9.285   0.640  1.63963E-01  5.44289E-01 -3.80326E-01
    8991.340     -9.083   0.680  1.49547E-01  5.62224E-01 -4.12677E-01
    8991.554     -8.870   0.720  1.35946E-01  5.79826E-01 -4.43880E-01
    8991.779     -8.645   0.760  1.24628E-01  5.97146E-01 -4.72519E-01
    8992.017     -8.407   0.800  1.16062E-01  6.14248E-01 -4.98185E-01
    8992.267     -8.157   0.840  1.10145E-01  6.31201E-01 -5.21057E-01
    8992.529     -7.895   0.880  1.06507E-01  6.48003E-01 -5.41496E-01
    8992.803     -7.620   0.920  1.04854E-01  6.64718E-01 -5.59864E-01
    8993.090     -7.334   0.960  1.04890E-01  6.81317E-01 -5.76427E-01
    8993.389     -7.035   1.000  1.06519E-01  6.97824E-01 -5.91305E-01
    8993.699     -6.724   1.040  1.09701E-01  7.14192E-01 -6.04491E-01
    8994.023     -6.401   1.080  1.14466E-01  7.30427E-01 -6.15961E-01
    8994.358     -6.066   1.120  1.20543E-01  7.46490E-01 -6.25947E-01
    8994.705     -5.719   1.160  1.27109E-01  7.62357E-01 -6.35248E-01
    8995.065     -5.359   1.200  1.33240E-01  7.77982E-01 -6.44741E-01
    8995.437     -4.987   1.240  1.39334E-01  7.93355E-01 -6.54020E-01
    8995.821     -4.603   1.280  1.46648E-01  8.08402E-01 -6.61755E-01
    8996.217     -4.207   1.320  1.56490E-01  8.23092E-01 -6.66602E-01
    8996.625     -3.798   1.360  1.70112E-01  8.37430E-01 -6.67318E-01
    8997.046     -3.378   1.400  1.88539E-01  8.51322E-01 -6.62783E-01
    8997.479     -2.945   1.440  2.13173E-01  8.64778E-01 -6.51605E-01
    8997.924     -2.500   1.480  2.46497E-01  8.77744E-01 -6.31247E-01
    8998.381     -2.043   1.520  2.93294E-01  8.90208E-01 -5.96914E-01
    8998.851     -1.573   1.560  3.60317E-01  9.02119E-01 -5.41802E-01
    8999.332     -1.092   1.600  4.51706E-01  9.13492E-01 -4.61786E-01
    8999.826     -0.598   1.640  5.58729E-01  9.24299E-01 -3.65570E-01
    9000.332     -0.092   1.680  6.72143E-01  9.34514E-01 -2.62371E-01
    9000.850      0.426   1.720  8.11063E-01  9.44133E-01 -1.33070E-01
    9001.380      0.957   1.760  1.00093E+00  9.53157E-01  4.77754E-02
    9001.923      1.499   1.800  1.23100E+00  9.61584E-01  2.69413E-01
    9002.478      2.054   1.840  1.43945E+00  9.69398E-01  4.70056E-01
    9003.045      2.621   1.880  1.56536E+00  9.76643E-01  5.88712E-01
    9003.624      3.200   1.920  1.62215E+00  9.83302E-01  6.38850E-01
    9004.215      3.791   1.960  1.64735E+00  9.89383E-01  6.57966E-01
    9004.818      4.395   2.000  1.64978E+00  9.94913E-01  6.54871E-01
    9005.434      5.010   2.040  1.61825E+00  9.99880E-01  6.18367E-01
    9006.062      5.638   2.080  1.53363E+00  1.00435E+00  5.29275E-01
    9006.702      6.278   2.120  1.42865E+00  1.00831E+00  4.20342E-01
    9007.354      6.931   2.160  1.36375E+00  1.01177E+00  3.51983E-01
    9008.019      7.595   2.200  1.36768E+00  1.01479E+00  3.52888E-01
    9008.696      8.272   2.240  1.42913E+00  1.01737E+00  4.11766E-01
    9009.384      8.961   2.280  1.50188E+00  1.01953E+00  4.82352E-01
    9010.085      9.662   2.320  1.52461E+00  1.02131E+00  5.03297E-01
    9010.799     10.375   2.360  1.46227E+00  1.02272E+00  4.39548E-01
    9011.524     11.100   2.400  1.33523E+00  1.02379E+00  3.11434E-01
    9012.262     11.838   2.440  1.20295E+00  1.02454E+00  1.78409E-01
    9013.011     12.588   2.480  1.11832E+00  1.02500E+00  9.33151E-02
    9013.773     13.350   2.520  1.10064E+00  1.02520E+00  7.54365E-02
    9014.548     14.124   2.560  1.11900E+00  1.02516E+00  9.38469E-02
    9015.334     14.910   2.600  1.13589E+00  1.02490E+00  1.10994E-01
    9016.133     15.709   2.640  1.14077E+00  1.02443E+00  1.16337E-01
    9016.943     16.520   2.680  1.13276E+00  1.02380E+00  1.08967E-01
    9017.766     17.343   2.720  1.10992E+00  1.02300E+00  8.69256E-02
    9018.601     18.178   2.760  1.07333E+00  1.02204E+00  5.12883E-02
    9019.449     19.025   2.800  1.02932E+00  1.02099E+00  8.33670E-03
    9020.308     19.885   2.840  9.87050E-01  1.01982E+00 -3.27657E-02
    9021.180     20.756   2.880  9.53302E-01  1.01858E+00 -6.52793E-02
    9022.064     21.640   2.920  9.31609E-01  1.01725E+00 -8.56404E-02
    9022.960     22.536   2.960  9.22954E-01  1.01589E+00 -9.29333E-02
    9023.868     23.445   3.000  9.25558E-01  1.01446E+00 -8.89044E-02
    9024.789     24.365   3.040  9.35118E-01  1.01302E+00 -7.79041E-02
    9025.722     25.298   3.080  9.44892E-01  1.01155E+00 -6.66592E-02
    9026.666     26.243   3.120  9.48006E-01  1.01010E+00 -6.20912E-02
    9027.624     27.200   3.160  9.40922E-01  1.00863E+00 -6.77040E-02
    9028.593     28.169   3.200  9.24156E-01  1.00718E+00 -8.30233E-02
    9029.574     29.150   3.240  9.00887E-01  1.00577E+00 -1.04878E-01
    9030.568     30.144   3.280  8.74897E-01  1.00436E+00 -1.29468E-01
    9031.574     31.150   3.320  8.49739E-01  1.00300E+00 -1.53265E-01
    9032.592     32.168   3.360  8.28444E-01  1.00171E+00 -1.73264E-01
    9033.622     33.198   3.400  8.13191E-01  1.00046E+00 -1.87265E-01
    9034.664     34.241   3.440  8.04398E-01  9.99254E-01 -1.94855E-01
    9035.719     35.295   3.480  8.01402E-01  9.98125E-01 -1.96723E-01
    9036.786     36.362   3.520  8.03273E-01  9.97069E-01 -1.93797E-01
    9037.865     37.441   3.560  8.09049E-01  9.96067E-01 -1.87018E-01
    9038.956     38.532   3.600  8.17952E-01  9.95165E-01 -1.77213E-01
    9040.059     39.636   3.640  8.29214E-01  9.94320E-01 -1.65106E-01
    9041.175     40.751   3.680  8.42447E-01  9.93554E-01 -1.51106E-01
    9042.303     41.879   3.720  8.57648E-01  9.92867E-01 -1.35220E-01
    9043.443     43.019   3.760  8.75616E-01  9.92261E-01 -1.16645E-01
    9044.595     44.171   3.800  8.97397E-01  9.91739E-01 -9.43421E-02
    9045.759     45.335   3.840  9.23225E-01  9.91321E-01 -6.80956E-02
    9046.936     46.512   3.880  9.52159E-01  9.90963E-01 -3.88039E-02
    9048.124     47.701   3.920  9.82200E-01  9.90709E-01 -8.50813E-03
    9049.325     48.901   3.960  1.00986E+00  9.90513E-01  1.93491E-02
    9050.538     50.115   4.000  1.03098E+00  9.90419E-01  4.05647E-02
    9051.764     51.340   4.040  1.04200E+00  9.90384E-01  5.16143E-02
    9053.001     52.577   4.080  1.04168E+00  9.90429E-01  5.12534E-02
    9054.251     53.827   4.120  1.03189E+00  9.90575E-01  4.13125E-02
    9055.513     55.089   4.160  1.01736E+00  9.90776E-01  2.65841E-02
    9056.787     56.363   4.200  1.00351E+00  9.91052E-01  1.24558E-02
    9058.073     57.649   4.240  9.94372E-01  9.91382E-01  2.99041E-03
    9059.371     58.948   4.280  9.92346E-01  9.91784E-01  5.62346E-04
    9060.682     60.258   4.320  9.98332E-01  9.92259E-01  6.07339E-03
    9062.005     61.581   4.360  1.01157E+00  9.92784E-01  1.87907E-02
    9063.340     62.916   4.400  1.02982E+00  9.93376E-01  3.64451E-02
    9064.687     64.263   4.440  1.05079E+00  9.93992E-01  5.67982E-02
    9066.046     65.623   4.480  1.07285E+00  9.94672E-01  7.81738E-02
    9067.418     66.994   4.520  1.09481E+00  9.95395E-01  9.94160E-02
    9068.802     68.378   4.560  1.11540E+00  9.96158E-01  1.19239E-01
    9070.198     69.774   4.600  1.13281E+00  9.96960E-01  1.35851E-01
    9071.606     71.182   4.640  1.14549E+00  9.97797E-01  1.47696E-01
    9073.026     72.603   4.680  1.15369E+00  9.98644E-01  1.55047E-01
    9074.459     74.035   4.720  1.16019E+00  9.99521E-01  1.60672E-01
    9075.904     75.480   4.760  1.16838E+00  1.00041E+00  1.67972E-01
    9077.361     76.937   4.800  1.17893E+00  1.00129E+00  1.77633E-01
    9078.830     78.406   4.840  1.18726E+00  1.00221E+00  1.85047E-01
    9080.311     79.887   4.880  1.18442E+00  1.00312E+00  1.81301E-01
    9081.805     81.381   4.920  1.16282E+00  1.00401E+00  1.58804E-01
    9083.310     82.886   4.960  1.12238E+00  1.00492E+00  1.17455E-01
    9084.828     84.404   5.000  1.07089E+00  1.00580E+00  6.50871E-02
    9086.358     85.934   5.040  1.01835E+00  1.00665E+00  1.17006E-02
    9087.901     87.477   5.080  9.72159E-01  1.00751E+00 -3.53520E-02
    9089.455     89.031   5.120  9.36238E-01  1.00832E+00 -7.20785E-02
    9091.022     90.598   5.160  9.11828E-01  1.00911E+00 -9.72791E-02
    9092.601     92.177   5.200  8.98018E-01  1.00986E+00 -1.11842E-01
    9094.192     93.768   5.240  8.92776E-01  1.01058E+00 -1.17799E-01
    9095.795     95.371   5.280  8.94476E-01  1.01127E+00 -1.16796E-01
    9097.410     96.986   5.320  9.02610E-01  1.01190E+00 -1.09294E-01
    9099.038     98.614   5.360  9.17545E-01  1.01249E+00 -9.49466E-02
    9100.678    100.254   5.400  9.39046E-01  1.01303E+00 -7.39864E-02
    9102.330    101.906   5.440  9.64402E-01  1.01350E+00 -4.91012E-02
    9103.994    103.570   5.480  9.87111E-01  1.01393E+00 -2.68167E-02
    9105.670    105.247   5.520  9.98877E-01  1.01431E+00 -1.54283E-02
    9107.359    106.935   5.560  9.95345E-01  1.01463E+00 -1.92889E-02
    9109.060    108.636   5.600  9.79474E-01  1.01487E+00 -3.53928E-02
    9110.773    110.349   5.640  9.59090E-01  1.01507E+00 -5.59835E-02
    9112.498    112.074   5.680  9.41657E-01  1.01521E+00 -7.35499E-02
    9114.235    113.811   5.720  9.31529E-01  1.01527E+00 -8.37382E-02
    9115.985    115.561   5.760  9.30118E-01  1.01528E+00 -8.51584E-02
    9117.746    117.323   5.800  9.37393E-01  1.01521E+00 -7.78197E-02
    9119.520    119.097   5.840  9.52889E-01  1.01510E+00 -6.22115E-02
    9121.306    120.883   5.880  9.75070E-01  1.01492E+00 -3.98480E-02
    9123.105    122.681   5.920  1.00052E+00  1.01468E+00 -1.41677E-02
    9124.915    124.491   5.960  1.02365E+00  1.01437E+00  9.27668E-03
    9126.738    126.314   6.000  1.03736E+00  1.01394E+00  2.34258E-02
