# # comment:                                                     FEFF 9.9.1  
# # Source:
# # Structure
# # Reduced
# # space
# # abc:
# # angles:
# # sites:
# # POT  SCF 100  7.0000   0, screened core-hole, AFOLP (folp(0)= 1.150)
# # Abs   Z=29 Rmt= 1.267 Rnm= 1.343 K  shell
# # Pot 1 Z=29 Rmt= 1.277 Rnm= 1.348
# # Pot 2 Z=34 Rmt= 1.109 Rnm= 1.332
# # Pot 3 Z= 8 Rmt= 0.949 Rnm= 1.066
# # Gam_ch=1.729E+00 H-L exch Vi= 0.000E+00 Vr= 0.000E+00
# # Mu=-5.311E+00eV kf=2.312E+00 Vint=-1.551E+01eV Rs_int= 1.569
# FMS rfms= 9.0000
# # PATH  Rmax=-1.000,  Keep_limit= 0.00, Heap_limit 0.00  Pwcrit= 2.50%
#  S02=0.950  Temp=   0.00  Debye_temp=   0.00  Global_sig2= 0.00000
#  Energy zero shift, vr, vi    0.00000E+00   0.00000E+00
#  Curved wave amplitude ratio filter   4.000%
#     file         sig2 tot  cw amp ratio   deg  nlegs   reff  inp sig2
#     0/   0 paths used
#  xsedge+ 50, used to normalize mu           2.4585E-04
#  -----------------------------------------------------------------------
#  omega    e    k    mu    mu0     chi     @#
    8983.317     -9.121  -1.000  4.29562E-02  5.68580E-02 -1.39018E-02
    8983.616     -8.822  -0.960  4.54065E-02  6.11024E-02 -1.56959E-02
    8983.902     -8.535  -0.920  4.80643E-02  6.58296E-02 -1.77653E-02
    8984.176     -8.261  -0.880  5.09546E-02  7.11116E-02 -2.01570E-02
    8984.438     -7.999  -0.840  5.41060E-02  7.70325E-02 -2.29265E-02
    8984.688     -7.749  -0.800  5.75511E-02  8.36897E-02 -2.61387E-02
    8984.926     -7.511  -0.760  6.13267E-02  9.11953E-02 -2.98687E-02
    8985.152     -7.286  -0.720  6.54737E-02  9.96761E-02 -3.42023E-02
    8985.365     -7.072  -0.680  7.00364E-02  1.09272E-01 -3.92352E-02
    8985.566     -6.871  -0.640  7.50604E-02  1.20130E-01 -4.50693E-02
    8985.755     -6.682  -0.600  8.05890E-02  1.32396E-01 -5.18068E-02
    8985.932     -6.505  -0.560  8.66569E-02  1.46194E-01 -5.95374E-02
    8986.097     -6.341  -0.520  9.32806E-02  1.61600E-01 -6.83194E-02
    8986.249     -6.188  -0.480  1.00445E-01  1.78598E-01 -7.81535E-02
    8986.389     -6.048  -0.440  1.08088E-01  1.97039E-01 -8.89518E-02
    8986.517     -5.920  -0.400  1.16087E-01  2.16599E-01 -1.00512E-01
    8986.633     -5.804  -0.360  1.24258E-01  2.36768E-01 -1.12510E-01
    8986.737     -5.701  -0.320  1.32363E-01  2.56884E-01 -1.24521E-01
    8986.828     -5.609  -0.280  1.40136E-01  2.76211E-01 -1.36075E-01
    8986.907     -5.530  -0.240  1.47319E-01  2.94044E-01 -1.46725E-01
    8986.974     -5.463  -0.200  1.53690E-01  3.09795E-01 -1.56106E-01
    8987.029     -5.408  -0.160  1.59079E-01  3.23036E-01 -1.63958E-01
    8987.072     -5.365  -0.120  1.63367E-01  3.33496E-01 -1.70129E-01
    8987.102     -5.335  -0.080  1.66480E-01  3.41027E-01 -1.74547E-01
    8987.127     -5.311   0.000  1.69009E-01  3.47075E-01 -1.78065E-01
    8987.182     -5.256   0.120  1.74695E-01  3.60691E-01 -1.85996E-01
    8987.224     -5.213   0.160  1.79121E-01  3.71265E-01 -1.92144E-01
    8987.279     -5.158   0.200  1.84842E-01  3.84771E-01 -1.99929E-01
    8987.346     -5.091   0.240  1.91785E-01  4.00950E-01 -2.09165E-01
    8987.426     -5.012   0.280  1.99980E-01  4.19517E-01 -2.19537E-01
    8987.517     -4.920   0.320  2.09302E-01  4.39910E-01 -2.30608E-01
    8987.621     -4.817   0.360  2.19709E-01  4.61531E-01 -2.41823E-01
    8987.736     -4.701   0.400  2.31170E-01  4.83723E-01 -2.52553E-01
    8987.864     -4.573   0.440  2.43687E-01  5.05869E-01 -2.62182E-01
    8988.005     -4.433   0.480  2.57271E-01  5.27484E-01 -2.70213E-01
    8988.157     -4.280   0.520  2.71971E-01  5.48273E-01 -2.76302E-01
    8988.322     -4.116   0.560  2.87718E-01  5.68102E-01 -2.80385E-01
    8988.498     -3.939   0.600  3.04278E-01  5.86917E-01 -2.82638E-01
    8988.687     -3.750   0.640  3.21385E-01  6.04783E-01 -2.83398E-01
    8988.889     -3.549   0.680  3.38809E-01  6.21809E-01 -2.83000E-01
    8989.102     -3.335   0.720  3.56353E-01  6.38099E-01 -2.81746E-01
    8989.327     -3.110   0.760  3.73781E-01  6.53739E-01 -2.79958E-01
    8989.565     -2.872   0.800  3.90868E-01  6.68842E-01 -2.77974E-01
    8989.815     -2.622   0.840  4.07822E-01  6.83488E-01 -2.75666E-01
    8990.077     -2.360   0.880  4.25637E-01  6.97760E-01 -2.72122E-01
    8990.352     -2.086   0.920  4.45675E-01  7.11688E-01 -2.66013E-01
    8990.638     -1.799   0.960  4.68818E-01  7.25309E-01 -2.56491E-01
    8990.937     -1.501   1.000  4.94919E-01  7.38668E-01 -2.43748E-01
    8991.248     -1.190   1.040  5.22756E-01  7.51757E-01 -2.29001E-01
    8991.571     -0.867   1.080  5.50797E-01  7.64586E-01 -2.13789E-01
    8991.906     -0.531   1.120  5.78971E-01  7.77192E-01 -1.98221E-01
    8992.254     -0.184   1.160  6.09008E-01  7.89528E-01 -1.80519E-01
    8992.613      0.176   1.200  6.42422E-01  8.01584E-01 -1.59162E-01
    8992.985      0.548   1.240  6.78617E-01  8.13388E-01 -1.34770E-01
    8993.369      0.932   1.280  7.15520E-01  8.24899E-01 -1.09379E-01
    8993.765      1.328   1.320  7.51782E-01  8.36100E-01 -8.43184E-02
    8994.174      1.736   1.360  7.85152E-01  8.46992E-01 -6.18400E-02
    8994.594      2.157   1.400  8.14181E-01  8.57552E-01 -4.33705E-02
    8995.027      2.590   1.440  8.46104E-01  8.67757E-01 -2.16526E-02
    8995.472      3.035   1.480  8.89032E-01  8.77605E-01  1.14264E-02
    8995.929      3.492   1.520  9.41579E-01  8.87095E-01  5.44836E-02
    8996.399      3.961   1.560  9.97332E-01  8.96184E-01  1.01148E-01
    8996.880      4.443   1.600  1.05077E+00  9.04889E-01  1.45876E-01
    8997.374      4.937   1.640  1.09914E+00  9.13191E-01  1.85948E-01
    8997.880      5.443   1.680  1.14190E+00  9.21066E-01  2.20836E-01
    8998.398      5.961   1.720  1.17627E+00  9.28558E-01  2.47715E-01
    8998.929      6.491   1.760  1.19952E+00  9.35626E-01  2.63896E-01
    8999.471      7.034   1.800  1.21566E+00  9.42292E-01  2.73367E-01
    9000.026      7.589   1.840  1.23257E+00  9.48538E-01  2.84035E-01
    9000.593      8.155   1.880  1.25775E+00  9.54389E-01  3.03359E-01
    9001.172      8.735   1.920  1.29211E+00  9.59846E-01  3.32266E-01
    9001.763      9.326   1.960  1.32212E+00  9.64896E-01  3.57219E-01
    9002.367      9.929   2.000  1.33272E+00  9.69564E-01  3.63155E-01
    9002.982     10.545   2.040  1.32627E+00  9.73875E-01  3.52395E-01
    9003.610     11.173   2.080  1.31385E+00  9.77815E-01  3.36031E-01
    9004.250     11.813   2.120  1.30281E+00  9.81412E-01  3.21400E-01
    9004.903     12.465   2.160  1.29671E+00  9.84673E-01  3.12040E-01
    9005.567     13.130   2.200  1.29049E+00  9.87603E-01  3.02892E-01
    9006.244     13.806   2.240  1.27143E+00  9.90212E-01  2.81218E-01
    9006.933     14.495   2.280  1.23301E+00  9.92550E-01  2.40458E-01
    9007.634     15.196   2.320  1.18108E+00  9.94623E-01  1.86460E-01
    9008.347     15.910   2.360  1.12495E+00  9.96419E-01  1.28528E-01
    9009.072     16.635   2.400  1.07215E+00  9.97965E-01  7.41876E-02
    9009.810     17.373   2.440  1.02759E+00  9.99271E-01  2.83214E-02
    9010.560     18.122   2.480  9.92316E-01  1.00039E+00 -8.06928E-03
    9011.322     18.884   2.520  9.65258E-01  1.00129E+00 -3.60367E-02
    9012.096     19.659   2.560  9.45662E-01  1.00201E+00 -5.63461E-02
    9012.882     20.445   2.600  9.31212E-01  1.00255E+00 -7.13397E-02
    9013.681     21.244   2.640  9.17905E-01  1.00296E+00 -8.50496E-02
    9014.492     22.054   2.680  9.03227E-01  1.00320E+00 -9.99773E-02
    9015.315     22.877   2.720  8.92777E-01  1.00333E+00 -1.10549E-01
    9016.150     23.712   2.760  8.87889E-01  1.00335E+00 -1.15460E-01
    9016.997     24.560   2.800  8.86031E-01  1.00326E+00 -1.17227E-01
    9017.857     25.419   2.840  8.85977E-01  1.00308E+00 -1.17103E-01
    9018.728     26.291   2.880  8.87149E-01  1.00282E+00 -1.15672E-01
    9019.612     27.175   2.920  8.89041E-01  1.00251E+00 -1.13465E-01
    9020.508     28.071   2.960  8.91440E-01  1.00212E+00 -1.10682E-01
    9021.417     28.979   3.000  8.94231E-01  1.00171E+00 -1.07481E-01
    9022.337     29.900   3.040  8.96968E-01  1.00124E+00 -1.04275E-01
    9023.270     30.832   3.080  8.99392E-01  1.00076E+00 -1.01363E-01
    9024.215     31.777   3.120  9.01468E-01  1.00024E+00 -9.87686E-02
    9025.172     32.734   3.160  9.02987E-01  9.99712E-01 -9.67255E-02
    9026.141     33.704   3.200  9.04172E-01  9.99204E-01 -9.50321E-02
    9027.122     34.685   3.240  9.05442E-01  9.98673E-01 -9.32318E-02
    9028.116     35.679   3.280  9.07247E-01  9.98144E-01 -9.08967E-02
    9029.122     36.685   3.320  9.09985E-01  9.97639E-01 -8.76544E-02
    9030.140     37.703   3.360  9.13888E-01  9.97142E-01 -8.32537E-02
    9031.170     38.733   3.400  9.19142E-01  9.96653E-01 -7.75114E-02
    9032.213     39.775   3.440  9.25637E-01  9.96218E-01 -7.05807E-02
    9033.267     40.830   3.480  9.33309E-01  9.95796E-01 -6.24865E-02
    9034.334     41.897   3.520  9.42122E-01  9.95409E-01 -5.32868E-02
    9035.413     42.976   3.560  9.51912E-01  9.95057E-01 -4.31451E-02
    9036.504     44.067   3.600  9.62401E-01  9.94723E-01 -3.23218E-02
    9037.608     45.170   3.640  9.73247E-01  9.94447E-01 -2.11997E-02
    9038.723     46.286   3.680  9.83978E-01  9.94212E-01 -1.02338E-02
    9039.851     47.414   3.720  9.94155E-01  9.94016E-01  1.38409E-04
    9040.991     48.553   3.760  1.00356E+00  9.93838E-01  9.72179E-03
    9042.143     49.706   3.800  1.01224E+00  9.93721E-01  1.85157E-02
    9043.307     50.870   3.840  1.02027E+00  9.93646E-01  2.66213E-02
    9044.484     52.046   3.880  1.02784E+00  9.93611E-01  3.42252E-02
    9045.673     53.235   3.920  1.03512E+00  9.93616E-01  4.15026E-02
    9046.873     54.436   3.960  1.04216E+00  9.93660E-01  4.85006E-02
    9048.087     55.649   4.000  1.04890E+00  9.93744E-01  5.51554E-02
    9049.312     56.874   4.040  1.05519E+00  9.93867E-01  6.13232E-02
    9050.549     58.112   4.080  1.06077E+00  9.94029E-01  6.67427E-02
    9051.799     59.362   4.120  1.06530E+00  9.94229E-01  7.10678E-02
    9053.061     60.624   4.160  1.06853E+00  9.94465E-01  7.40630E-02
    9054.335     61.898   4.200  1.07026E+00  9.94715E-01  7.55494E-02
    9055.621     63.184   4.240  1.07045E+00  9.95022E-01  7.54243E-02
    9056.920     64.482   4.280  1.06898E+00  9.95339E-01  7.36369E-02
    9058.230     65.793   4.320  1.06582E+00  9.95666E-01  7.01541E-02
    9059.553     67.116   4.360  1.06095E+00  9.96024E-01  6.49253E-02
    9060.888     68.451   4.400  1.05438E+00  9.96413E-01  5.79704E-02
    9062.235     69.798   4.440  1.04638E+00  9.96809E-01  4.95711E-02
    9063.595     71.157   4.480  1.03744E+00  9.97211E-01  4.02294E-02
    9064.966     72.529   4.520  1.02832E+00  9.97639E-01  3.06818E-02
    9066.350     73.913   4.560  1.01981E+00  9.98071E-01  2.17385E-02
    9067.746     75.309   4.600  1.01252E+00  9.98504E-01  1.40180E-02
    9069.154     76.717   4.640  1.00675E+00  9.98938E-01  7.80731E-03
    9070.575     78.137   4.680  1.00245E+00  9.99373E-01  3.07450E-03
    9072.007     79.570   4.720  9.99379E-01  9.99828E-01 -4.48688E-04
    9073.452     81.015   4.760  9.97138E-01  1.00026E+00 -3.11912E-03
    9074.909     82.471   4.800  9.95403E-01  1.00066E+00 -5.25456E-03
    9076.378     83.941   4.840  9.94002E-01  1.00107E+00 -7.07253E-03
    9077.859     85.422   4.880  9.92810E-01  1.00147E+00 -8.65512E-03
    9079.353     86.915   4.920  9.91854E-01  1.00185E+00 -9.99537E-03
    9080.859     88.421   4.960  9.91139E-01  1.00222E+00 -1.10841E-02
    9082.376     89.939   5.000  9.90660E-01  1.00256E+00 -1.19043E-02
    9083.906     91.469   5.040  9.90398E-01  1.00287E+00 -1.24749E-02
    9085.449     93.011   5.080  9.90267E-01  1.00317E+00 -1.29006E-02
    9087.003     94.566   5.120  9.90077E-01  1.00343E+00 -1.33512E-02
    9088.570     96.133   5.160  9.89639E-01  1.00365E+00 -1.40141E-02
    9090.149     97.711   5.200  9.88881E-01  1.00386E+00 -1.49827E-02
    9091.740     99.302   5.240  9.87729E-01  1.00404E+00 -1.63123E-02
    9093.343    100.906   5.280  9.86112E-01  1.00420E+00 -1.80914E-02
    9094.958    102.521   5.320  9.83863E-01  1.00430E+00 -2.04415E-02
    9096.586    104.149   5.360  9.80990E-01  1.00439E+00 -2.33983E-02
    9098.226    105.789   5.400  9.77579E-01  1.00441E+00 -2.68310E-02
    9099.878    107.441   5.440  9.73942E-01  1.00442E+00 -3.04742E-02
    9101.542    109.105   5.480  9.70328E-01  1.00439E+00 -3.40567E-02
    9103.219    110.781   5.520  9.66918E-01  1.00432E+00 -3.73994E-02
    9104.907    112.470   5.560  9.63827E-01  1.00423E+00 -4.04060E-02
    9106.608    114.171   5.600  9.61087E-01  1.00409E+00 -4.29992E-02
    9108.321    115.884   5.640  9.58918E-01  1.00392E+00 -4.50057E-02
    9110.046    117.609   5.680  9.57625E-01  1.00370E+00 -4.60751E-02
    9111.783    119.346   5.720  9.57704E-01  1.00346E+00 -4.57568E-02
    9113.533    121.096   5.760  9.59488E-01  1.00319E+00 -4.36978E-02
    9115.295    122.857   5.800  9.63025E-01  1.00288E+00 -3.98504E-02
    9117.069    124.631   5.840  9.68045E-01  1.00255E+00 -3.45085E-02
    9118.855    126.417   5.880  9.73981E-01  1.00217E+00 -2.81934E-02
    9120.653    128.216   5.920  9.80309E-01  1.00179E+00 -2.14778E-02
    9122.464    130.026   5.960  9.86545E-01  1.00137E+00 -1.48259E-02
    9124.286    131.849   6.000  9.92632E-01  1.00093E+00 -8.29718E-03
