# # comment:                                                     FEFF 9.9.1  
# # Source:
# # Structure
# # Reduced
# # space
# # abc:
# # angles:109.471221
# # sites:
# # POT  SCF 100  7.0000   0, screened core-hole, AFOLP (folp(0)= 1.150)
# # Abs   Z=29 Rmt= 1.235 Rnm= 1.314 K  shell
# # Pot 1 Z=90 Rmt= 1.751 Rnm= 1.810
# # Pot 2 Z=25 Rmt= 1.288 Rnm= 1.394
# # Pot 3 Z=29 Rmt= 1.235 Rnm= 1.314
# # Pot 4 Z= 8 Rmt= 1.034 Rnm= 1.097
# # Gam_ch=1.729E+00 H-L exch Vi= 0.000E+00 Vr= 0.000E+00
# # Mu=-9.799E+00eV kf=2.178E+00 Vint=-1.811E+01eV Rs_int= 1.665
# FMS rfms= 9.0000
# # PATH  Rmax=-1.000,  Keep_limit= 0.00, Heap_limit 0.00  Pwcrit= 2.50%
#  S02=0.950  Temp=   0.00  Debye_temp=   0.00  Global_sig2= 0.00000
#  Energy zero shift, vr, vi    0.00000E+00   0.00000E+00
#  Curved wave amplitude ratio filter   4.000%
#     file         sig2 tot  cw amp ratio   deg  nlegs   reff  inp sig2
#     0/   0 paths used
#  xsedge+ 50, used to normalize mu           2.4850E-04
#  -----------------------------------------------------------------------
#  omega    e    k    mu    mu0     chi     @#
    8984.405    -13.609  -1.000  3.60348E-02  5.00362E-02 -1.40014E-02
    8984.704    -13.310  -0.960  3.78498E-02  5.35650E-02 -1.57153E-02
    8984.990    -13.024  -0.920  3.97901E-02  5.74779E-02 -1.76878E-02
    8985.265    -12.749  -0.880  4.18670E-02  6.18306E-02 -1.99635E-02
    8985.527    -12.487  -0.840  4.40932E-02  6.66881E-02 -2.25949E-02
    8985.777    -12.237  -0.800  4.64823E-02  7.21256E-02 -2.56432E-02
    8986.015    -12.000  -0.760  4.90494E-02  7.82292E-02 -2.91799E-02
    8986.240    -11.774  -0.720  5.18102E-02  8.50964E-02 -3.32862E-02
    8986.454    -11.561  -0.680  5.47813E-02  9.28340E-02 -3.80527E-02
    8986.655    -11.360  -0.640  5.79785E-02  1.01555E-01 -4.35765E-02
    8986.844    -11.171  -0.600  6.14155E-02  1.11370E-01 -4.99544E-02
    8987.020    -10.994  -0.560  6.51011E-02  1.22373E-01 -5.72718E-02
    8987.185    -10.829  -0.520  6.90352E-02  1.34619E-01 -6.55842E-02
    8987.337    -10.677  -0.480  7.32033E-02  1.48096E-01 -7.48925E-02
    8987.478    -10.537  -0.440  7.75704E-02  1.62684E-01 -8.51136E-02
    8987.606    -10.409  -0.400  8.20759E-02  1.78132E-01 -9.60560E-02
    8987.721    -10.293  -0.360  8.66320E-02  1.94044E-01 -1.07412E-01
    8987.825    -10.189  -0.320  9.11272E-02  2.09907E-01 -1.18780E-01
    8987.917    -10.098  -0.280  9.54364E-02  2.25149E-01 -1.29713E-01
    8987.996    -10.018  -0.240  9.94341E-02  2.39221E-01 -1.39787E-01
    8988.063     -9.951  -0.200  1.03006E-01  2.51661E-01 -1.48655E-01
    8988.118     -9.897  -0.160  1.06056E-01  2.62130E-01 -1.56074E-01
    8988.160     -9.854  -0.120  1.08506E-01  2.70409E-01 -1.61903E-01
    8988.191     -9.823  -0.080  1.10300E-01  2.76376E-01 -1.66076E-01
    8988.215     -9.799   0.000  1.11769E-01  2.81170E-01 -1.69402E-01
    8988.270     -9.744   0.120  1.15204E-01  2.91997E-01 -1.76793E-01
    8988.313     -9.701   0.160  1.17873E-01  3.00398E-01 -1.82525E-01
    8988.368     -9.647   0.200  1.21377E-01  3.11166E-01 -1.89789E-01
    8988.435     -9.580   0.240  1.25739E-01  3.24125E-01 -1.98386E-01
    8988.514     -9.500   0.280  1.30990E-01  3.39028E-01 -2.08038E-01
    8988.605     -9.409   0.320  1.37171E-01  3.55513E-01 -2.18342E-01
    8988.709     -9.305   0.360  1.44342E-01  3.73128E-01 -2.28786E-01
    8988.825     -9.189   0.400  1.52555E-01  3.91392E-01 -2.38837E-01
    8988.953     -9.061   0.440  1.61849E-01  4.09867E-01 -2.48018E-01
    8989.093     -8.921   0.480  1.72166E-01  4.28170E-01 -2.56005E-01
    8989.245     -8.769   0.520  1.83376E-01  4.46127E-01 -2.62751E-01
    8989.410     -8.604   0.560  1.95101E-01  4.63578E-01 -2.68477E-01
    8989.587     -8.427   0.600  2.06924E-01  4.80537E-01 -2.73613E-01
    8989.776     -8.238   0.640  2.18622E-01  4.97052E-01 -2.78430E-01
    8989.977     -8.037   0.680  2.30297E-01  5.13163E-01 -2.82866E-01
    8990.190     -7.824   0.720  2.42651E-01  5.28983E-01 -2.86332E-01
    8990.416     -7.598   0.760  2.56707E-01  5.44540E-01 -2.87833E-01
    8990.654     -7.361   0.800  2.74071E-01  5.59959E-01 -2.85888E-01
    8990.904     -7.111   0.840  2.97565E-01  5.75249E-01 -2.77685E-01
    8991.166     -6.849   0.880  3.32185E-01  5.90470E-01 -2.58285E-01
    8991.440     -6.574   0.920  3.83773E-01  6.05645E-01 -2.21872E-01
    8991.727     -6.288   0.960  4.53681E-01  6.20793E-01 -1.67112E-01
    8992.025     -5.989   1.000  5.29521E-01  6.35922E-01 -1.06400E-01
    8992.336     -5.678   1.040  5.85545E-01  6.51047E-01 -6.55023E-02
    8992.659     -5.355   1.080  6.12454E-01  6.66122E-01 -5.36673E-02
    8992.995     -5.020   1.120  6.35531E-01  6.81172E-01 -4.56412E-02
    8993.342     -4.672   1.160  6.79088E-01  6.96140E-01 -1.70523E-02
    8993.702     -4.313   1.200  7.27017E-01  7.11024E-01  1.59925E-02
    8994.073     -3.941   1.240  7.26269E-01  7.25797E-01  4.71845E-04
    8994.458     -3.557   1.280  6.57548E-01  7.40410E-01 -8.28626E-02
    8994.854     -3.160   1.320  5.72137E-01  7.54856E-01 -1.82719E-01
    8995.262     -2.752   1.360  5.22413E-01  7.69103E-01 -2.46691E-01
    8995.683     -2.331   1.400  5.20083E-01  7.83101E-01 -2.63018E-01
    8996.116     -1.899   1.440  5.51495E-01  7.96816E-01 -2.45321E-01
    8996.561     -1.454   1.480  5.97712E-01  8.10237E-01 -2.12525E-01
    8997.018     -0.996   1.520  6.50800E-01  8.23331E-01 -1.72531E-01
    8997.487     -0.527   1.560  7.14775E-01  8.36068E-01 -1.21293E-01
    8997.969     -0.045   1.600  7.82737E-01  8.48416E-01 -6.56787E-02
    8998.463      0.448   1.640  8.29359E-01  8.60364E-01 -3.10041E-02
    8998.969      0.954   1.680  8.41488E-01  8.71885E-01 -3.03976E-02
    8999.487      1.472   1.720  8.47518E-01  8.82951E-01 -3.54330E-02
    9000.017      2.003   1.760  8.67052E-01  8.93554E-01 -2.65020E-02
    9000.560      2.545   1.800  8.84766E-01  9.03689E-01 -1.89231E-02
    9001.114      3.100   1.840  9.01497E-01  9.13330E-01 -1.18329E-02
    9001.681      3.667   1.880  9.41736E-01  9.22477E-01  1.92596E-02
    9002.260      4.246   1.920  1.01445E+00  9.31127E-01  8.33236E-02
    9002.852      4.837   1.960  1.09648E+00  9.39280E-01  1.57204E-01
    9003.455      5.441   2.000  1.15978E+00  9.46936E-01  2.12845E-01
    9004.071      6.057   2.040  1.20545E+00  9.54099E-01  2.51353E-01
    9004.699      6.685   2.080  1.22026E+00  9.60770E-01  2.59494E-01
    9005.339      7.325   2.120  1.20598E+00  9.66952E-01  2.39023E-01
    9005.991      7.977   2.160  1.20964E+00  9.72673E-01  2.36970E-01
    9006.656      8.641   2.200  1.26640E+00  9.77915E-01  2.88483E-01
    9007.332      9.318   2.240  1.35719E+00  9.82707E-01  3.74487E-01
    9008.021     10.007   2.280  1.42565E+00  9.87054E-01  4.38594E-01
    9008.722     10.708   2.320  1.43622E+00  9.90987E-01  4.45236E-01
    9009.435     11.421   2.360  1.39490E+00  9.94512E-01  4.00391E-01
    9010.161     12.147   2.400  1.32546E+00  9.97659E-01  3.27801E-01
    9010.898     12.884   2.440  1.24379E+00  1.00042E+00  2.43370E-01
    9011.648     13.634   2.480  1.16302E+00  1.00283E+00  1.60193E-01
    9012.410     14.396   2.520  1.09502E+00  1.00490E+00  9.01283E-02
    9013.184     15.170   2.560  1.04261E+00  1.00666E+00  3.59543E-02
    9013.971     15.956   2.600  1.00498E+00  1.00811E+00 -3.13036E-03
    9014.769     16.755   2.640  9.77551E-01  1.00927E+00 -3.17200E-02
    9015.580     17.566   2.680  9.58458E-01  1.01018E+00 -5.17247E-02
    9016.403     18.389   2.720  9.47422E-01  1.01085E+00 -6.34281E-02
    9017.238     19.224   2.760  9.41733E-01  1.01128E+00 -6.95498E-02
    9018.086     20.071   2.800  9.38235E-01  1.01153E+00 -7.32933E-02
    9018.945     20.931   2.840  9.34132E-01  1.01156E+00 -7.74238E-02
    9019.817     21.803   2.880  9.27282E-01  1.01143E+00 -8.41532E-02
    9020.701     22.686   2.920  9.16845E-01  1.01113E+00 -9.42873E-02
    9021.597     23.583   2.960  9.03356E-01  1.01070E+00 -1.07341E-01
    9022.505     24.491   3.000  8.87943E-01  1.01014E+00 -1.22193E-01
    9023.426     25.411   3.040  8.72502E-01  1.00946E+00 -1.36955E-01
    9024.358     26.344   3.080  8.59793E-01  1.00869E+00 -1.48894E-01
    9025.303     27.289   3.120  8.52048E-01  1.00783E+00 -1.55785E-01
    9026.260     28.246   3.160  8.49602E-01  1.00690E+00 -1.57298E-01
    9027.229     29.215   3.200  8.51696E-01  1.00589E+00 -1.54197E-01
    9028.211     30.197   3.240  8.57375E-01  1.00484E+00 -1.47465E-01
    9029.205     31.190   3.280  8.65733E-01  1.00375E+00 -1.38012E-01
    9030.210     32.196   3.320  8.76373E-01  1.00264E+00 -1.26263E-01
    9031.228     33.214   3.360  8.88869E-01  1.00149E+00 -1.12626E-01
    9032.259     34.244   3.400  9.02208E-01  1.00035E+00 -9.81393E-02
    9033.301     35.287   3.440  9.14901E-01  9.99195E-01 -8.42946E-02
    9034.356     36.341   3.480  9.25965E-01  9.98022E-01 -7.20575E-02
    9035.422     37.408   3.520  9.35442E-01  9.96895E-01 -6.14531E-02
    9036.501     38.487   3.560  9.44108E-01  9.95754E-01 -5.16463E-02
    9037.593     39.578   3.600  9.53224E-01  9.94643E-01 -4.14190E-02
    9038.696     40.682   3.640  9.63675E-01  9.93566E-01 -2.98908E-02
    9039.812     41.797   3.680  9.75597E-01  9.92525E-01 -1.69282E-02
    9040.939     42.925   3.720  9.88290E-01  9.91521E-01 -3.23123E-03
    9042.079     44.065   3.760  1.00056E+00  9.90536E-01  1.00288E-02
    9043.231     45.217   3.800  1.01107E+00  9.89613E-01  2.14587E-02
    9044.396     46.381   3.840  1.01866E+00  9.88732E-01  2.99300E-02
    9045.572     47.558   3.880  1.02273E+00  9.87916E-01  3.48160E-02
    9046.761     48.747   3.920  1.02303E+00  9.87124E-01  3.59040E-02
    9047.962     49.948   3.960  1.02004E+00  9.86397E-01  3.36438E-02
    9049.175     51.161   4.000  1.01527E+00  9.85717E-01  2.95573E-02
    9050.400     52.386   4.040  1.01127E+00  9.85105E-01  2.61662E-02
    9051.638     53.624   4.080  1.01057E+00  9.84542E-01  2.60285E-02
    9052.887     54.873   4.120  1.01452E+00  9.84046E-01  3.04714E-02
    9054.149     56.135   4.160  1.02259E+00  9.83598E-01  3.89900E-02
    9055.423     57.409   4.200  1.03269E+00  9.83197E-01  4.94892E-02
    9056.710     58.695   4.240  1.04242E+00  9.82865E-01  5.95568E-02
    9058.008     59.994   4.280  1.05039E+00  9.82600E-01  6.77910E-02
    9059.319     61.304   4.320  1.05639E+00  9.82360E-01  7.40284E-02
    9060.642     62.627   4.360  1.06059E+00  9.82188E-01  7.83981E-02
    9061.977     63.962   4.400  1.06243E+00  9.82082E-01  8.03490E-02
    9063.324     65.309   4.440  1.06063E+00  9.81999E-01  7.86356E-02
    9064.683     66.669   4.480  1.05423E+00  9.81980E-01  7.22515E-02
    9066.055     68.040   4.520  1.04391E+00  9.82004E-01  6.19089E-02
    9067.439     69.424   4.560  1.03219E+00  9.82070E-01  5.01162E-02
    9068.835     70.820   4.600  1.02204E+00  9.82178E-01  3.98631E-02
    9070.243     72.228   4.640  1.01560E+00  9.82347E-01  3.32560E-02
    9071.663     73.649   4.680  1.01341E+00  9.82531E-01  3.08754E-02
    9073.096     75.081   4.720  1.01467E+00  9.82750E-01  3.19194E-02
    9074.540     76.526   4.760  1.01784E+00  9.82985E-01  3.48511E-02
    9075.997     77.983   4.800  1.02123E+00  9.83275E-01  3.79565E-02
    9077.466     79.452   4.840  1.02322E+00  9.83578E-01  3.96418E-02
    9078.948     80.933   4.880  1.02253E+00  9.83912E-01  3.86225E-02
    9080.441     82.427   4.920  1.01832E+00  9.84255E-01  3.40661E-02
    9081.947     83.933   4.960  1.01052E+00  9.84627E-01  2.58953E-02
    9083.465     85.451   5.000  9.99832E-01  9.85005E-01  1.48278E-02
    9084.995     86.981   5.040  9.87205E-01  9.85387E-01  1.81809E-03
    9086.537     88.523   5.080  9.73420E-01  9.85792E-01 -1.23728E-02
    9088.092     90.077   5.120  9.58955E-01  9.86179E-01 -2.72237E-02
    9089.658     91.644   5.160  9.44396E-01  9.86587E-01 -4.21912E-02
    9091.237     93.223   5.200  9.30434E-01  9.86995E-01 -5.65613E-02
    9092.828     94.814   5.240  9.17806E-01  9.87380E-01 -6.95742E-02
    9094.432     96.417   5.280  9.07114E-01  9.87782E-01 -8.06679E-02
    9096.047     98.033   5.320  8.98664E-01  9.88157E-01 -8.94930E-02
    9097.675     99.660   5.360  8.92858E-01  9.88524E-01 -9.56663E-02
    9099.314    101.300   5.400  8.90230E-01  9.88862E-01 -9.86324E-02
    9100.966    102.952   5.440  8.91361E-01  9.89192E-01 -9.78309E-02
    9102.631    104.616   5.480  8.96454E-01  9.89511E-01 -9.30569E-02
    9104.307    106.293   5.520  9.05223E-01  9.89776E-01 -8.45532E-02
    9105.996    107.981   5.560  9.17396E-01  9.90051E-01 -7.26550E-02
    9107.696    109.682   5.600  9.32829E-01  9.90270E-01 -5.74414E-02
    9109.409    111.395   5.640  9.51610E-01  9.90476E-01 -3.88657E-02
    9111.134    113.120   5.680  9.73342E-01  9.90647E-01 -1.73043E-02
    9112.872    114.858   5.720  9.96597E-01  9.90804E-01  5.79248E-03
    9114.621    116.607   5.760  1.01893E+00  9.90902E-01  2.80316E-02
    9116.383    118.369   5.800  1.03795E+00  9.90985E-01  4.69630E-02
    9118.157    120.143   5.840  1.05195E+00  9.91032E-01  6.09200E-02
    9119.943    121.929   5.880  1.06002E+00  9.91039E-01  6.89762E-02
    9121.741    123.727   5.920  1.06154E+00  9.91008E-01  7.05360E-02
    9123.552    125.538   5.960  1.05641E+00  9.90935E-01  6.54707E-02
    9125.375    127.360   6.000  1.04520E+00  9.90800E-01  5.43965E-02
