# # comment:                                                     FEFF 9.9.1  
# # Source:
# # Structure
# # Reduced
# # space
# # abc:
# # angles:
# # sites:
# # POT  SCF 100  7.0000   0, screened core-hole, AFOLP (folp(0)= 1.150)
# # Abs   Z=29 Rmt= 1.298 Rnm= 1.364 K  shell
# # Pot 1 Z= 3 Rmt= 1.297 Rnm= 1.351
# # Pot 2 Z=29 Rmt= 1.281 Rnm= 1.349
# # Pot 3 Z=51 Rmt= 1.320 Rnm= 1.454
# # Pot 4 Z= 8 Rmt= 1.042 Rnm= 1.099
# # Gam_ch=1.729E+00 H-L exch Vi= 0.000E+00 Vr= 0.000E+00
# # Mu=-6.718E+00eV kf=2.122E+00 Vint=-1.593E+01eV Rs_int= 1.709
# FMS rfms= 9.0000
# # PATH  Rmax=-1.000,  Keep_limit= 0.00, Heap_limit 0.00  Pwcrit= 2.50%
#  S02=0.950  Temp=   0.00  Debye_temp=   0.00  Global_sig2= 0.00000
#  Energy zero shift, vr, vi    0.00000E+00   0.00000E+00
#  Curved wave amplitude ratio filter   4.000%
#     file         sig2 tot  cw amp ratio   deg  nlegs   reff  inp sig2
#     0/   0 paths used
#  xsedge+ 50, used to normalize mu           2.4511E-04
#  -----------------------------------------------------------------------
#  omega    e    k    mu    mu0     chi     @#
    8983.856    -10.528  -1.000  4.40122E-02  5.66777E-02 -1.26655E-02
    8984.154    -10.229  -0.960  4.63898E-02  6.08827E-02 -1.44929E-02
    8984.441     -9.942  -0.920  4.89324E-02  6.55626E-02 -1.66302E-02
    8984.715     -9.668  -0.880  5.16531E-02  7.07879E-02 -1.91348E-02
    8984.977     -9.406  -0.840  5.45655E-02  7.66405E-02 -2.20750E-02
    8985.227     -9.156  -0.800  5.76839E-02  8.32157E-02 -2.55318E-02
    8985.465     -8.918  -0.760  6.10231E-02  9.06229E-02 -2.95998E-02
    8985.690     -8.693  -0.720  6.45975E-02  9.89856E-02 -3.43881E-02
    8985.904     -8.479  -0.680  6.84208E-02  1.08440E-01 -4.00191E-02
    8986.105     -8.278  -0.640  7.25046E-02  1.19130E-01 -4.66251E-02
    8986.294     -8.089  -0.600  7.68566E-02  1.31197E-01 -5.43400E-02
    8986.471     -7.913  -0.560  8.14779E-02  1.44761E-01 -6.32834E-02
    8986.635     -7.748  -0.520  8.63595E-02  1.59896E-01 -7.35367E-02
    8986.788     -7.596  -0.480  9.14777E-02  1.76586E-01 -8.51088E-02
    8986.928     -7.455  -0.440  9.67886E-02  1.94685E-01 -9.78965E-02
    8987.056     -7.327  -0.400  1.02224E-01  2.13876E-01 -1.11651E-01
    8987.172     -7.211  -0.360  1.07691E-01  2.33660E-01 -1.25969E-01
    8987.275     -7.108  -0.320  1.13073E-01  2.53391E-01 -1.40318E-01
    8987.367     -7.016  -0.280  1.18237E-01  2.72351E-01 -1.54114E-01
    8987.446     -6.937  -0.240  1.23047E-01  2.89849E-01 -1.66802E-01
    8987.513     -6.870  -0.200  1.27371E-01  3.05309E-01 -1.77938E-01
    8987.568     -6.815  -0.160  1.31091E-01  3.18310E-01 -1.87218E-01
    8987.611     -6.773  -0.120  1.34104E-01  3.28583E-01 -1.94478E-01
    8987.641     -6.742  -0.080  1.36328E-01  3.35981E-01 -1.99653E-01
    8987.666     -6.718   0.000  1.38175E-01  3.41923E-01 -2.03747E-01
    8987.720     -6.663   0.120  1.42447E-01  3.55318E-01 -2.12871E-01
    8987.763     -6.620   0.160  1.45806E-01  3.65724E-01 -2.19918E-01
    8987.818     -6.565   0.200  1.50235E-01  3.78991E-01 -2.28757E-01
    8987.885     -6.498   0.240  1.55843E-01  3.94953E-01 -2.39109E-01
    8987.964     -6.419   0.280  1.62749E-01  4.13259E-01 -2.50511E-01
    8988.056     -6.328   0.320  1.71129E-01  4.33412E-01 -2.62283E-01
    8988.159     -6.224   0.360  1.81223E-01  4.54838E-01 -2.73615E-01
    8988.275     -6.108   0.400  1.93336E-01  4.76885E-01 -2.83549E-01
    8988.403     -5.980   0.440  2.07827E-01  4.98958E-01 -2.91131E-01
    8988.543     -5.840   0.480  2.25212E-01  5.20610E-01 -2.95398E-01
    8988.696     -5.687   0.520  2.46050E-01  5.41538E-01 -2.95488E-01
    8988.860     -5.523   0.560  2.70946E-01  5.61610E-01 -2.90664E-01
    8989.037     -5.346   0.600  3.00235E-01  5.80769E-01 -2.80534E-01
    8989.226     -5.157   0.640  3.33644E-01  5.99099E-01 -2.65455E-01
    8989.427     -4.956   0.680  3.69850E-01  6.16660E-01 -2.46810E-01
    8989.641     -4.743   0.720  4.06907E-01  6.33550E-01 -2.26643E-01
    8989.866     -4.517   0.760  4.43367E-01  6.49865E-01 -2.06498E-01
    8990.104     -4.279   0.800  4.78716E-01  6.65709E-01 -1.86993E-01
    8990.354     -4.029   0.840  5.12596E-01  6.81157E-01 -1.68561E-01
    8990.616     -3.767   0.880  5.43948E-01  6.96224E-01 -1.52276E-01
    8990.890     -3.493   0.920  5.71864E-01  7.10993E-01 -1.39129E-01
    8991.177     -3.206   0.960  5.96529E-01  7.25472E-01 -1.28942E-01
    8991.476     -2.908   1.000  6.18783E-01  7.39680E-01 -1.20897E-01
    8991.786     -2.597   1.040  6.39191E-01  7.53627E-01 -1.14436E-01
    8992.110     -2.274   1.080  6.57180E-01  7.67293E-01 -1.10114E-01
    8992.445     -1.938   1.120  6.70714E-01  7.80713E-01 -1.09999E-01
    8992.792     -1.591   1.160  6.79281E-01  7.93833E-01 -1.14552E-01
    8993.152     -1.231   1.200  6.87756E-01  8.06661E-01 -1.18904E-01
    8993.524     -0.859   1.240  7.04148E-01  8.19158E-01 -1.15011E-01
    8993.908     -0.475   1.280  7.31808E-01  8.31344E-01 -9.95363E-02
    8994.304     -0.079   1.320  7.68246E-01  8.43156E-01 -7.49101E-02
    8994.713      0.329   1.360  8.11942E-01  8.54592E-01 -4.26497E-02
    8995.133      0.750   1.400  8.63231E-01  8.65649E-01 -2.41776E-03
    8995.566      1.183   1.440  9.22430E-01  8.76302E-01  4.61282E-02
    8996.011      1.628   1.480  9.93771E-01  8.86507E-01  1.07264E-01
    8996.468      2.085   1.520  1.07917E+00  8.96283E-01  1.82887E-01
    8996.938      2.554   1.560  1.17066E+00  9.05626E-01  2.65031E-01
    8997.419      3.036   1.600  1.27161E+00  9.14494E-01  3.57117E-01
    8997.913      3.530   1.640  1.39900E+00  9.22907E-01  4.76095E-01
    8998.419      4.036   1.680  1.53622E+00  9.30846E-01  6.05370E-01
    8998.937      4.554   1.720  1.63141E+00  9.38331E-01  6.93074E-01
    8999.467      5.084   1.760  1.66480E+00  9.45344E-01  7.19454E-01
    9000.010      5.627   1.800  1.64348E+00  9.51890E-01  6.91591E-01
    9000.565      6.181   1.840  1.56914E+00  9.57973E-01  6.11169E-01
    9001.132      6.748   1.880  1.44914E+00  9.63616E-01  4.85525E-01
    9001.711      7.327   1.920  1.30581E+00  9.68828E-01  3.36978E-01
    9002.302      7.919   1.960  1.17032E+00  9.73592E-01  1.96726E-01
    9002.906      8.522   2.000  1.06364E+00  9.77958E-01  8.56769E-02
    9003.521      9.138   2.040  9.85699E-01  9.81936E-01  3.76368E-03
    9004.149      9.766   2.080  9.26500E-01  9.85510E-01 -5.90103E-02
    9004.789     10.406   2.120  8.80636E-01  9.88710E-01 -1.08075E-01
    9005.441     11.058   2.160  8.47486E-01  9.91567E-01 -1.44081E-01
    9006.106     11.723   2.200  8.25484E-01  9.94110E-01 -1.68626E-01
    9006.783     12.399   2.240  8.12549E-01  9.96307E-01 -1.83758E-01
    9007.471     13.088   2.280  8.10665E-01  9.98230E-01 -1.87565E-01
    9008.172     13.789   2.320  8.24738E-01  9.99868E-01 -1.75130E-01
    9008.886     14.502   2.360  8.57761E-01  1.00125E+00 -1.43490E-01
    9009.611     15.228   2.400  9.06156E-01  1.00239E+00 -9.62303E-02
    9010.349     15.965   2.440  9.58142E-01  1.00331E+00 -4.51636E-02
    9011.099     16.715   2.480  1.00229E+00  1.00402E+00 -1.73224E-03
    9011.861     17.477   2.520  1.03684E+00  1.00453E+00  3.23065E-02
    9012.635     18.251   2.560  1.05904E+00  1.00490E+00  5.41394E-02
    9013.421     19.038   2.600  1.06544E+00  1.00510E+00  6.03324E-02
    9014.220     19.836   2.640  1.05814E+00  1.00515E+00  5.29862E-02
    9015.030     20.647   2.680  1.03987E+00  1.00510E+00  3.47677E-02
    9015.853     21.470   2.720  1.01535E+00  1.00493E+00  1.04136E-02
    9016.689     22.305   2.760  9.88840E-01  1.00468E+00 -1.58354E-02
    9017.536     23.153   2.800  9.62841E-01  1.00433E+00 -4.14929E-02
    9018.395     24.012   2.840  9.38790E-01  1.00392E+00 -6.51258E-02
    9019.267     24.884   2.880  9.18300E-01  1.00347E+00 -8.51679E-02
    9020.151     25.768   2.920  9.02477E-01  1.00295E+00 -1.00477E-01
    9021.047     26.664   2.960  8.91651E-01  1.00240E+00 -1.10751E-01
    9021.955     27.572   3.000  8.85546E-01  1.00183E+00 -1.16288E-01
    9022.876     28.493   3.040  8.83590E-01  1.00124E+00 -1.17647E-01
    9023.809     29.425   3.080  8.85125E-01  1.00065E+00 -1.15530E-01
    9024.753     30.370   3.120  8.89597E-01  1.00005E+00 -1.10454E-01
    9025.711     31.327   3.160  8.96073E-01  9.99448E-01 -1.03375E-01
    9026.680     32.297   3.200  9.04191E-01  9.98870E-01 -9.46794E-02
    9027.661     33.278   3.240  9.13904E-01  9.98323E-01 -8.44198E-02
    9028.655     34.272   3.280  9.25136E-01  9.97787E-01 -7.26514E-02
    9029.661     35.277   3.320  9.37739E-01  9.97284E-01 -5.95445E-02
    9030.679     36.295   3.360  9.51507E-01  9.96795E-01 -4.52880E-02
    9031.709     37.326   3.400  9.66157E-01  9.96365E-01 -3.02076E-02
    9032.751     38.368   3.440  9.80967E-01  9.95974E-01 -1.50062E-02
    9033.806     39.423   3.480  9.95111E-01  9.95601E-01 -4.90494E-04
    9034.873     40.490   3.520  1.00768E+00  9.95291E-01  1.23922E-02
    9035.952     41.568   3.560  1.01794E+00  9.95025E-01  2.29117E-02
    9037.043     42.660   3.600  1.02580E+00  9.94801E-01  3.09958E-02
    9038.146     43.763   3.640  1.03185E+00  9.94641E-01  3.72042E-02
    9039.262     44.879   3.680  1.03678E+00  9.94505E-01  4.22803E-02
    9040.390     46.006   3.720  1.04120E+00  9.94432E-01  4.67711E-02
    9041.530     47.146   3.760  1.04518E+00  9.94405E-01  5.07736E-02
    9042.682     48.298   3.800  1.04844E+00  9.94442E-01  5.40017E-02
    9043.846     49.463   3.840  1.05060E+00  9.94501E-01  5.60987E-02
    9045.023     50.639   3.880  1.05162E+00  9.94623E-01  5.69999E-02
    9046.211     51.828   3.920  1.05151E+00  9.94786E-01  5.67230E-02
    9047.412     53.029   3.960  1.05021E+00  9.94969E-01  5.52442E-02
    9048.625     54.242   4.000  1.04777E+00  9.95212E-01  5.25569E-02
    9049.851     55.467   4.040  1.04441E+00  9.95496E-01  4.89091E-02
    9051.088     56.705   4.080  1.04067E+00  9.95820E-01  4.48546E-02
    9052.338     57.954   4.120  1.03720E+00  9.96179E-01  4.10224E-02
    9053.600     59.216   4.160  1.03438E+00  9.96551E-01  3.78260E-02
    9054.874     60.490   4.200  1.03208E+00  9.96957E-01  3.51218E-02
    9056.160     61.777   4.240  1.02986E+00  9.97397E-01  3.24585E-02
    9057.458     63.075   4.280  1.02740E+00  9.97846E-01  2.95529E-02
    9058.769     64.386   4.320  1.02486E+00  9.98327E-01  2.65309E-02
    9060.092     65.709   4.360  1.02263E+00  9.98836E-01  2.37896E-02
    9061.427     67.044   4.400  1.02103E+00  9.99331E-01  2.17005E-02
    9062.774     68.391   4.440  1.02021E+00  9.99851E-01  2.03636E-02
    9064.133     69.750   4.480  1.01996E+00  1.00040E+00  1.95604E-02
    9065.505     71.122   4.520  1.01983E+00  1.00092E+00  1.89082E-02
    9066.889     72.506   4.560  1.01943E+00  1.00144E+00  1.79809E-02
    9068.285     73.902   4.600  1.01841E+00  1.00199E+00  1.64252E-02
    9069.693     75.310   4.640  1.01662E+00  1.00251E+00  1.41091E-02
    9071.113     76.730   4.680  1.01420E+00  1.00302E+00  1.11829E-02
    9072.546     78.163   4.720  1.01148E+00  1.00353E+00  7.95440E-03
    9073.991     79.607   4.760  1.00868E+00  1.00401E+00  4.67706E-03
    9075.448     81.064   4.800  1.00579E+00  1.00447E+00  1.31544E-03
    9076.917     82.533   4.840  1.00241E+00  1.00491E+00 -2.49744E-03
    9078.398     84.015   4.880  9.98101E-01  1.00534E+00 -7.23634E-03
    9079.892     85.508   4.920  9.92517E-01  1.00575E+00 -1.32376E-02
    9081.397     87.014   4.960  9.85666E-01  1.00614E+00 -2.04719E-02
    9082.915     88.532   5.000  9.77964E-01  1.00648E+00 -2.85170E-02
    9084.445     90.062   5.040  9.70023E-01  1.00679E+00 -3.67641E-02
    9085.988     91.604   5.080  9.62419E-01  1.00706E+00 -4.46361E-02
    9087.542     93.159   5.120  9.55655E-01  1.00731E+00 -5.16532E-02
    9089.109     94.725   5.160  9.50102E-01  1.00752E+00 -5.74212E-02
    9090.688     96.304   5.200  9.46059E-01  1.00770E+00 -6.16398E-02
    9092.279     97.895   5.240  9.43610E-01  1.00783E+00 -6.42243E-02
    9093.882     99.499   5.280  9.42730E-01  1.00793E+00 -6.51981E-02
    9095.497    101.114   5.320  9.43426E-01  1.00798E+00 -6.45554E-02
    9097.125    102.742   5.360  9.45764E-01  1.00799E+00 -6.22302E-02
    9098.765    104.381   5.400  9.49744E-01  1.00797E+00 -5.82216E-02
    9100.417    106.033   5.440  9.55292E-01  1.00790E+00 -5.26055E-02
    9102.081    107.698   5.480  9.62335E-01  1.00781E+00 -4.54766E-02
    9103.757    109.374   5.520  9.70777E-01  1.00766E+00 -3.68874E-02
    9105.446    111.063   5.560  9.80569E-01  1.00748E+00 -2.69066E-02
    9107.147    112.763   5.600  9.91667E-01  1.00727E+00 -1.56026E-02
    9108.860    114.476   5.640  1.00384E+00  1.00700E+00 -3.16491E-03
    9110.585    116.202   5.680  1.01664E+00  1.00672E+00  9.92121E-03
    9112.322    117.939   5.720  1.02922E+00  1.00640E+00  2.28136E-02
    9114.072    119.688   5.760  1.04067E+00  1.00605E+00  3.46238E-02
    9115.833    121.450   5.800  1.05048E+00  1.00565E+00  4.48258E-02
    9117.607    123.224   5.840  1.05856E+00  1.00523E+00  5.33307E-02
    9119.394    125.010   5.880  1.06500E+00  1.00479E+00  6.02117E-02
    9121.192    126.809   5.920  1.06970E+00  1.00433E+00  6.53728E-02
    9123.002    128.619   5.960  1.07220E+00  1.00387E+00  6.83298E-02
    9124.825    130.442   6.000  1.07138E+00  1.00336E+00  6.80225E-02
