# # comment:                                                     FEFF 9.9.1  
# # Source:
# # Structure
# # Reduced
# # space
# # abc:
# # angles:107.580080
# # sites:
# # POT  SCF 100  7.0000   0, screened core-hole, AFOLP (folp(0)= 1.150)
# # Abs   Z=29 Rmt= 1.232 Rnm= 1.312 K  shell
# # Pot 1 Z=56 Rmt= 1.914 Rnm= 1.978
# # Pot 2 Z=38 Rmt= 1.803 Rnm= 1.867
# # Pot 3 Z=29 Rmt= 1.232 Rnm= 1.312
# # Pot 4 Z= 8 Rmt= 1.080 Rnm= 1.129
# # Gam_ch=1.729E+00 H-L exch Vi= 0.000E+00 Vr= 0.000E+00
# # Mu=-1.032E+01eV kf=1.914E+00 Vint=-1.752E+01eV Rs_int= 1.895
# FMS rfms= 9.0000
# # PATH  Rmax=-1.000,  Keep_limit= 0.00, Heap_limit 0.00  Pwcrit= 2.50%
#  S02=0.950  Temp=   0.00  Debye_temp=   0.00  Global_sig2= 0.00000
#  Energy zero shift, vr, vi    0.00000E+00   0.00000E+00
#  Curved wave amplitude ratio filter   4.000%
#     file         sig2 tot  cw amp ratio   deg  nlegs   reff  inp sig2
#     0/   0 paths used
#  xsedge+ 50, used to normalize mu           2.4446E-04
#  -----------------------------------------------------------------------
#  omega    e    k    mu    mu0     chi     @#
    8985.347    -14.130  -1.000  3.40211E-02  5.27078E-02 -1.86867E-02
    8985.645    -13.831  -0.960  3.56120E-02  5.64503E-02 -2.08383E-02
    8985.932    -13.545  -0.920  3.73145E-02  6.05988E-02 -2.32843E-02
    8986.206    -13.270  -0.880  3.91421E-02  6.52120E-02 -2.60700E-02
    8986.468    -13.008  -0.840  4.11103E-02  7.03580E-02 -2.92477E-02
    8986.718    -12.758  -0.800  4.32375E-02  7.61155E-02 -3.28780E-02
    8986.956    -12.521  -0.760  4.55449E-02  8.25747E-02 -3.70298E-02
    8987.182    -12.295  -0.720  4.80565E-02  8.98373E-02 -4.17808E-02
    8987.395    -12.082  -0.680  5.07988E-02  9.80150E-02 -4.72162E-02
    8987.596    -11.880  -0.640  5.38002E-02  1.07226E-01 -5.34253E-02
    8987.785    -11.692  -0.600  5.70883E-02  1.17584E-01 -6.04957E-02
    8987.962    -11.515  -0.560  6.06865E-02  1.29188E-01 -6.85017E-02
    8988.127    -11.350  -0.520  6.46085E-02  1.42095E-01 -7.74869E-02
    8988.279    -11.198  -0.480  6.88501E-02  1.56291E-01 -8.74406E-02
    8988.419    -11.058  -0.440  7.33800E-02  1.71650E-01 -9.82700E-02
    8988.547    -10.930  -0.400  7.81320E-02  1.87910E-01 -1.09778E-01
    8988.663    -10.814  -0.360  8.30011E-02  2.04655E-01 -1.21654E-01
    8988.767    -10.710  -0.320  8.78490E-02  2.21350E-01 -1.33501E-01
    8988.858    -10.619  -0.280  9.25184E-02  2.37395E-01 -1.44877E-01
    8988.937    -10.539  -0.240  9.68521E-02  2.52215E-01 -1.55363E-01
    8989.004    -10.472  -0.200  1.00711E-01  2.65323E-01 -1.64611E-01
    8989.059    -10.417  -0.160  1.03988E-01  2.76360E-01 -1.72372E-01
    8989.102    -10.375  -0.120  1.06604E-01  2.85094E-01 -1.78490E-01
    8989.132    -10.344  -0.080  1.08512E-01  2.91391E-01 -1.82880E-01
    8989.157    -10.320   0.000  1.10082E-01  2.96455E-01 -1.86373E-01
    8989.212    -10.265   0.120  1.13600E-01  3.07870E-01 -1.94271E-01
    8989.254    -10.222   0.160  1.16297E-01  3.16776E-01 -2.00480E-01
    8989.309    -10.168   0.200  1.19736E-01  3.28153E-01 -2.08417E-01
    8989.376    -10.100   0.240  1.23854E-01  3.41887E-01 -2.18033E-01
    8989.455    -10.021   0.280  1.28536E-01  3.57711E-01 -2.29175E-01
    8989.547     -9.930   0.320  1.33620E-01  3.75262E-01 -2.41641E-01
    8989.651     -9.826   0.360  1.38820E-01  3.94079E-01 -2.55259E-01
    8989.766     -9.710   0.400  1.43750E-01  4.13674E-01 -2.69923E-01
    8989.894     -9.582   0.440  1.47990E-01  4.33555E-01 -2.85565E-01
    8990.035     -9.442   0.480  1.51181E-01  4.53396E-01 -3.02214E-01
    8990.187     -9.290   0.520  1.53216E-01  4.72953E-01 -3.19736E-01
    8990.352     -9.125   0.560  1.54275E-01  4.92101E-01 -3.37826E-01
    8990.528     -8.948   0.600  1.54816E-01  5.10830E-01 -3.56014E-01
    8990.717     -8.759   0.640  1.55286E-01  5.29144E-01 -3.73858E-01
    8990.919     -8.558   0.680  1.56072E-01  5.47141E-01 -3.91069E-01
    8991.132     -8.345   0.720  1.57517E-01  5.64867E-01 -4.07350E-01
    8991.357     -8.119   0.760  1.60202E-01  5.82367E-01 -4.22164E-01
    8991.595     -7.882   0.800  1.65026E-01  5.99737E-01 -4.34710E-01
    8991.845     -7.632   0.840  1.72931E-01  6.16980E-01 -4.44049E-01
    8992.107     -7.369   0.880  1.84934E-01  6.34126E-01 -4.49191E-01
    8992.382     -7.095   0.920  2.02191E-01  6.51214E-01 -4.49023E-01
    8992.668     -6.809   0.960  2.25885E-01  6.68211E-01 -4.42326E-01
    8992.967     -6.510   1.000  2.56994E-01  6.85113E-01 -4.28119E-01
    8993.278     -6.199   1.040  2.95530E-01  7.01911E-01 -4.06382E-01
    8993.601     -5.876   1.080  3.39885E-01  7.18587E-01 -3.78702E-01
    8993.936     -5.541   1.120  3.87386E-01  7.35077E-01 -3.47691E-01
    8994.283     -5.193   1.160  4.36311E-01  7.51375E-01 -3.15063E-01
    8994.643     -4.834   1.200  4.84946E-01  7.67429E-01 -2.82483E-01
    8995.015     -4.462   1.240  5.28028E-01  7.83186E-01 -2.55158E-01
    8995.399     -4.078   1.280  5.59539E-01  7.98615E-01 -2.39075E-01
    8995.795     -3.681   1.320  5.80605E-01  8.13677E-01 -2.33072E-01
    8996.204     -3.273   1.360  5.99992E-01  8.28338E-01 -2.28346E-01
    8996.624     -2.852   1.400  6.28495E-01  8.42566E-01 -2.14071E-01
    8997.057     -2.420   1.440  6.76242E-01  8.56302E-01 -1.80060E-01
    8997.502     -1.975   1.480  7.45810E-01  8.69515E-01 -1.23706E-01
    8997.959     -1.517   1.520  8.19180E-01  8.82195E-01 -6.30150E-02
    8998.429     -1.048   1.560  8.78473E-01  8.94330E-01 -1.58570E-02
    8998.910     -0.566   1.600  9.48552E-01  9.05874E-01  4.26781E-02
    8999.404     -0.073   1.640  1.06354E+00  9.16817E-01  1.46723E-01
    8999.910      0.433   1.680  1.20034E+00  9.27137E-01  2.73205E-01
    9000.428      0.952   1.720  1.27649E+00  9.36852E-01  3.39641E-01
    9000.959      1.482   1.760  1.27264E+00  9.45960E-01  3.26680E-01
    9001.501      2.024   1.800  1.28456E+00  9.54424E-01  3.30137E-01
    9002.056      2.579   1.840  1.36933E+00  9.62287E-01  4.07044E-01
    9002.623      3.146   1.880  1.50308E+00  9.69554E-01  5.33531E-01
    9003.202      3.725   1.920  1.60773E+00  9.76211E-01  6.31524E-01
    9003.793      4.317   1.960  1.59408E+00  9.82305E-01  6.11776E-01
    9004.397      4.920   2.000  1.47257E+00  9.87825E-01  4.84749E-01
    9005.012      5.536   2.040  1.32550E+00  9.92801E-01  3.32698E-01
    9005.640      6.164   2.080  1.20012E+00  9.97246E-01  2.02876E-01
    9006.280      6.804   2.120  1.10606E+00  1.00119E+00  1.04869E-01
    9006.933      7.456   2.160  1.04251E+00  1.00466E+00  3.78505E-02
    9007.597      8.120   2.200  1.00873E+00  1.00766E+00  1.07167E-03
    9008.274      8.797   2.240  9.99484E-01  1.01026E+00 -1.07726E-02
    9008.963      9.486   2.280  9.93940E-01  1.01242E+00 -1.84825E-02
    9009.664     10.187   2.320  9.73703E-01  1.01423E+00 -4.05292E-02
    9010.377     10.900   2.360  9.60142E-01  1.01566E+00 -5.55161E-02
    9011.102     11.626   2.400  9.58975E-01  1.01680E+00 -5.78208E-02
    9011.840     12.363   2.440  9.66306E-01  1.01760E+00 -5.12902E-02
    9012.590     13.113   2.480  9.80561E-01  1.01815E+00 -3.75923E-02
    9013.352     13.875   2.520  1.00036E+00  1.01844E+00 -1.80827E-02
    9014.126     14.649   2.560  1.02261E+00  1.01848E+00  4.12768E-03
    9014.912     15.436   2.600  1.04324E+00  1.01834E+00  2.48997E-02
    9015.711     16.234   2.640  1.05815E+00  1.01801E+00  4.01429E-02
    9016.522     17.045   2.680  1.06486E+00  1.01750E+00  4.73547E-02
    9017.345     17.868   2.720  1.06304E+00  1.01687E+00  4.61779E-02
    9018.180     18.703   2.760  1.05444E+00  1.01610E+00  3.83345E-02
    9019.027     19.550   2.800  1.04085E+00  1.01522E+00  2.56307E-02
    9019.887     20.410   2.840  1.02390E+00  1.01428E+00  9.62254E-03
    9020.758     21.282   2.880  1.00476E+00  1.01323E+00 -8.47055E-03
    9021.642     22.166   2.920  9.84339E-01  1.01213E+00 -2.77946E-02
    9022.538     23.062   2.960  9.63542E-01  1.01099E+00 -4.74507E-02
    9023.447     23.970   3.000  9.43438E-01  1.00981E+00 -6.63754E-02
    9024.367     24.890   3.040  9.25122E-01  1.00862E+00 -8.35010E-02
    9025.300     25.823   3.080  9.09581E-01  1.00743E+00 -9.78472E-02
    9026.245     26.768   3.120  8.97396E-01  1.00623E+00 -1.08838E-01
    9027.202     27.725   3.160  8.88671E-01  1.00504E+00 -1.16373E-01
    9028.171     28.694   3.200  8.83325E-01  1.00388E+00 -1.20557E-01
    9029.152     29.676   3.240  8.81238E-01  1.00273E+00 -1.21496E-01
    9030.146     30.669   3.280  8.81946E-01  1.00162E+00 -1.19677E-01
    9031.152     31.675   3.320  8.84983E-01  1.00057E+00 -1.15588E-01
    9032.170     32.693   3.360  8.90025E-01  9.99543E-01 -1.09518E-01
    9033.200     33.723   3.400  8.96979E-01  9.98584E-01 -1.01604E-01
    9034.243     34.766   3.440  9.05711E-01  9.97693E-01 -9.19811E-02
    9035.297     35.821   3.480  9.16245E-01  9.96851E-01 -8.06055E-02
    9036.364     36.887   3.520  9.28627E-01  9.96060E-01 -6.74321E-02
    9037.443     37.966   3.560  9.42665E-01  9.95343E-01 -5.26776E-02
    9038.534     39.057   3.600  9.57865E-01  9.94702E-01 -3.68370E-02
    9039.638     40.161   3.640  9.73514E-01  9.94137E-01 -2.06232E-02
    9040.753     41.276   3.680  9.88630E-01  9.93648E-01 -5.01855E-03
    9041.881     42.404   3.720  1.00220E+00  9.93215E-01  8.98086E-03
    9043.021     43.544   3.760  1.01343E+00  9.92858E-01  2.05769E-02
    9044.173     44.696   3.800  1.02174E+00  9.92578E-01  2.91640E-02
    9045.337     45.861   3.840  1.02684E+00  9.92374E-01  3.44692E-02
    9046.514     47.037   3.880  1.02897E+00  9.92227E-01  3.67406E-02
    9047.703     48.226   3.920  1.02902E+00  9.92177E-01  3.68468E-02
    9048.903     49.427   3.960  1.02807E+00  9.92178E-01  3.58922E-02
    9050.117     50.640   4.000  1.02702E+00  9.92233E-01  3.47831E-02
    9051.342     51.865   4.040  1.02626E+00  9.92384E-01  3.38743E-02
    9052.579     53.103   4.080  1.02569E+00  9.92585E-01  3.31088E-02
    9053.829     54.352   4.120  1.02523E+00  9.92835E-01  3.23957E-02
    9055.091     55.614   4.160  1.02522E+00  9.93154E-01  3.20703E-02
    9056.365     56.888   4.200  1.02629E+00  9.93519E-01  3.27710E-02
    9057.651     58.174   4.240  1.02886E+00  9.93930E-01  3.49326E-02
    9058.950     59.473   4.280  1.03286E+00  9.94405E-01  3.84598E-02
    9060.260     60.784   4.320  1.03766E+00  9.94922E-01  4.27362E-02
    9061.583     62.106   4.360  1.04232E+00  9.95457E-01  4.68619E-02
    9062.918     63.441   4.400  1.04617E+00  9.96052E-01  5.01201E-02
    9064.265     64.789   4.440  1.04899E+00  9.96662E-01  5.23258E-02
    9065.625     66.148   4.480  1.05115E+00  9.97305E-01  5.38441E-02
    9066.996     67.520   4.520  1.05325E+00  9.97981E-01  5.52728E-02
    9068.380     68.903   4.560  1.05575E+00  9.98668E-01  5.70792E-02
    9069.776     70.299   4.600  1.05850E+00  9.99383E-01  5.91143E-02
    9071.184     71.708   4.640  1.06063E+00  1.00010E+00  6.05255E-02
    9072.605     73.128   4.680  1.06079E+00  1.00082E+00  5.99660E-02
    9074.037     74.560   4.720  1.05758E+00  1.00154E+00  5.60415E-02
    9075.482     76.005   4.760  1.05016E+00  1.00226E+00  4.78989E-02
    9076.939     77.462   4.800  1.03869E+00  1.00298E+00  3.57095E-02
    9078.408     78.931   4.840  1.02444E+00  1.00366E+00  2.07738E-02
    9079.889     80.413   4.880  1.00957E+00  1.00437E+00  5.20670E-03
    9081.383     81.906   4.920  9.96313E-01  1.00504E+00 -8.72663E-03
    9082.888     83.412   4.960  9.86389E-01  1.00568E+00 -1.92909E-02
    9084.406     84.930   5.000  9.80718E-01  1.00631E+00 -2.55906E-02
    9085.936     86.460   5.040  9.79183E-01  1.00690E+00 -2.77196E-02
    9087.479     88.002   5.080  9.80877E-01  1.00748E+00 -2.66050E-02
    9089.033     89.557   5.120  9.84228E-01  1.00800E+00 -2.37715E-02
    9090.600     91.123   5.160  9.87603E-01  1.00850E+00 -2.08980E-02
    9092.179     92.702   5.200  9.89601E-01  1.00896E+00 -1.93609E-02
    9093.770     94.293   5.240  9.89406E-01  1.00938E+00 -1.99743E-02
    9095.373     95.896   5.280  9.86720E-01  1.00973E+00 -2.30139E-02
    9096.988     97.512   5.320  9.81810E-01  1.01006E+00 -2.82534E-02
    9098.616     99.139   5.360  9.75384E-01  1.01033E+00 -3.49430E-02
    9100.256    100.779   5.400  9.68515E-01  1.01055E+00 -4.20325E-02
    9101.908    102.431   5.440  9.62139E-01  1.01072E+00 -4.85833E-02
    9103.572    104.095   5.480  9.56758E-01  1.01085E+00 -5.40959E-02
    9105.249    105.772   5.520  9.52562E-01  1.01094E+00 -5.83782E-02
    9106.937    107.460   5.560  9.49738E-01  1.01096E+00 -6.12190E-02
    9108.638    109.161   5.600  9.48776E-01  1.01093E+00 -6.21517E-02
    9110.351    110.874   5.640  9.50228E-01  1.01086E+00 -6.06276E-02
    9112.076    112.599   5.680  9.53996E-01  1.01074E+00 -5.67405E-02
    9113.813    114.337   5.720  9.59759E-01  1.01055E+00 -5.07920E-02
    9115.563    116.086   5.760  9.66722E-01  1.01032E+00 -4.35970E-02
    9117.325    117.848   5.800  9.74011E-01  1.01005E+00 -3.60358E-02
    9119.099    119.622   5.840  9.81061E-01  1.00973E+00 -2.86730E-02
    9120.885    121.408   5.880  9.87818E-01  1.00938E+00 -2.15634E-02
    9122.683    123.206   5.920  9.94679E-01  1.00897E+00 -1.42862E-02
    9124.494    125.017   5.960  1.00214E+00  1.00854E+00 -6.39438E-03
    9126.316    126.840   6.000  1.01098E+00  1.00805E+00  2.93397E-03
