# # comment:                                                     FEFF 9.9.1  
# # Source:
# # Structure
# # Reduced
# # space
# # abc:
# # angles:
# # sites:
# # POT  SCF 100  7.0000   0, screened core-hole, AFOLP (folp(0)= 1.150)
# # Abs   Z=29 Rmt= 1.235 Rnm= 1.330 K  shell
# # Pot 1 Z=29 Rmt= 1.235 Rnm= 1.330
# # Pot 2 Z=33 Rmt= 1.085 Rnm= 1.293
# # Pot 3 Z= 1 Rmt= 0.735 Rnm= 0.849
# # Pot 4 Z= 8 Rmt= 0.943 Rnm= 1.082
# # Gam_ch=1.729E+00 H-L exch Vi= 0.000E+00 Vr= 0.000E+00
# # Mu=-6.054E+00eV kf=2.253E+00 Vint=-1.495E+01eV Rs_int= 1.610
# FMS rfms= 9.0000
# # PATH  Rmax=-1.000,  Keep_limit= 0.00, Heap_limit 0.00  Pwcrit= 2.50%
#  S02=0.950  Temp=   0.00  Debye_temp=   0.00  Global_sig2= 0.00000
#  Energy zero shift, vr, vi    0.00000E+00   0.00000E+00
#  Curved wave amplitude ratio filter   4.000%
#     file         sig2 tot  cw amp ratio   deg  nlegs   reff  inp sig2
#     0/   0 paths used
#  xsedge+ 50, used to normalize mu           2.4469E-04
#  -----------------------------------------------------------------------
#  omega    e    k    mu    mu0     chi     @#
    8983.311     -9.864  -1.000  3.97209E-02  5.52541E-02 -1.55332E-02
    8983.610     -9.565  -0.960  4.18535E-02  5.93046E-02 -1.74511E-02
    8983.897     -9.279  -0.920  4.41452E-02  6.38083E-02 -1.96631E-02
    8984.171     -9.004  -0.880  4.66109E-02  6.88320E-02 -2.22212E-02
    8984.433     -8.742  -0.840  4.92668E-02  7.44537E-02 -2.51868E-02
    8984.683     -8.492  -0.800  5.21306E-02  8.07634E-02 -2.86329E-02
    8984.921     -8.254  -0.760  5.52208E-02  8.78650E-02 -3.26442E-02
    8985.146     -8.029  -0.720  5.85568E-02  9.58752E-02 -3.73184E-02
    8985.360     -7.816  -0.680  6.21581E-02  1.04923E-01 -4.27652E-02
    8985.561     -7.614  -0.640  6.60427E-02  1.15145E-01 -4.91023E-02
    8985.750     -7.425  -0.600  7.02253E-02  1.26674E-01 -5.64490E-02
    8985.927     -7.249  -0.560  7.47140E-02  1.39625E-01 -6.49112E-02
    8986.091     -7.084  -0.520  7.95055E-02  1.54066E-01 -7.45603E-02
    8986.244     -6.932  -0.480  8.45788E-02  1.69981E-01 -8.54025E-02
    8986.384     -6.791  -0.440  8.98887E-02  1.87232E-01 -9.73431E-02
    8986.512     -6.663  -0.400  9.53602E-02  2.05517E-01 -1.10157E-01
    8986.628     -6.548  -0.360  1.00887E-01  2.24363E-01 -1.23477E-01
    8986.731     -6.444  -0.320  1.06335E-01  2.43157E-01 -1.36822E-01
    8986.823     -6.353  -0.280  1.11557E-01  2.61216E-01 -1.49660E-01
    8986.902     -6.273  -0.240  1.16404E-01  2.77885E-01 -1.61482E-01
    8986.969     -6.206  -0.200  1.20741E-01  2.92615E-01 -1.71875E-01
    8987.024     -6.151  -0.160  1.24452E-01  3.05005E-01 -1.80553E-01
    8987.066     -6.109  -0.120  1.27444E-01  3.14797E-01 -1.87353E-01
    8987.097     -6.078  -0.080  1.29645E-01  3.21851E-01 -1.92206E-01
    8987.121     -6.054   0.000  1.31469E-01  3.27517E-01 -1.96048E-01
    8987.176     -5.999   0.120  1.35659E-01  3.40309E-01 -2.04650E-01
    8987.219     -5.956   0.160  1.38923E-01  3.50240E-01 -2.11318E-01
    8987.274     -5.901   0.200  1.43186E-01  3.62900E-01 -2.19714E-01
    8987.341     -5.834   0.240  1.48568E-01  3.78155E-01 -2.29587E-01
    8987.420     -5.755   0.280  1.55138E-01  3.95659E-01 -2.40522E-01
    8987.512     -5.664   0.320  1.63046E-01  4.14966E-01 -2.51920E-01
    8987.615     -5.560   0.360  1.72508E-01  4.35496E-01 -2.62988E-01
    8987.731     -5.444   0.400  1.83842E-01  4.56680E-01 -2.72838E-01
    8987.859     -5.316   0.440  1.97439E-01  4.77978E-01 -2.80539E-01
    8987.999     -5.176   0.480  2.13731E-01  4.98908E-01 -2.85177E-01
    8988.152     -5.024   0.520  2.33353E-01  5.19225E-01 -2.85873E-01
    8988.316     -4.859   0.560  2.56943E-01  5.38806E-01 -2.81863E-01
    8988.493     -4.682   0.600  2.85056E-01  5.57597E-01 -2.72541E-01
    8988.682     -4.493   0.640  3.17902E-01  5.75655E-01 -2.57752E-01
    8988.883     -4.292   0.680  3.54601E-01  5.93056E-01 -2.38454E-01
    8989.096     -4.079   0.720  3.92227E-01  6.09912E-01 -2.17685E-01
    8989.322     -3.853   0.760  4.25445E-01  6.26270E-01 -2.00825E-01
    8989.560     -3.615   0.800  4.49030E-01  6.42248E-01 -1.93218E-01
    8989.810     -3.365   0.840  4.62336E-01  6.57892E-01 -1.95555E-01
    8990.072     -3.103   0.880  4.70472E-01  6.73274E-01 -2.02802E-01
    8990.346     -2.829   0.920  4.79053E-01  6.88391E-01 -2.09338E-01
    8990.633     -2.543   0.960  4.89245E-01  7.03307E-01 -2.14062E-01
    8990.931     -2.244   1.000  4.98078E-01  7.18017E-01 -2.19939E-01
    8991.242     -1.933   1.040  5.03199E-01  7.32504E-01 -2.29305E-01
    8991.565     -1.610   1.080  5.07502E-01  7.46808E-01 -2.39305E-01
    8991.901     -1.275   1.120  5.17445E-01  7.60878E-01 -2.43433E-01
    8992.248     -0.927   1.160  5.35533E-01  7.74700E-01 -2.39168E-01
    8992.608     -0.567   1.200  5.54676E-01  7.88278E-01 -2.33602E-01
    8992.980     -0.196   1.240  5.64254E-01  8.01589E-01 -2.37336E-01
    8993.364      0.188   1.280  5.64679E-01  8.14569E-01 -2.49890E-01
    8993.760      0.585   1.320  5.67644E-01  8.27254E-01 -2.59610E-01
    8994.168      0.993   1.360  5.82254E-01  8.39558E-01 -2.57304E-01
    8994.589      1.414   1.400  6.09147E-01  8.51514E-01 -2.42367E-01
    8995.022      1.847   1.440  6.45005E-01  8.63056E-01 -2.18051E-01
    8995.467      2.292   1.480  6.89964E-01  8.74198E-01 -1.84234E-01
    8995.924      2.749   1.520  7.45287E-01  8.84893E-01 -1.39606E-01
    8996.393      3.218   1.560  8.00208E-01  8.95136E-01 -9.49286E-02
    8996.875      3.700   1.600  8.42499E-01  9.04925E-01 -6.24256E-02
    8997.369      4.194   1.640  8.81865E-01  9.14254E-01 -3.23893E-02
    8997.875      4.699   1.680  9.34903E-01  9.23082E-01  1.18213E-02
    8998.393      5.218   1.720  1.00922E+00  9.31427E-01  7.77903E-02
    8998.923      5.748   1.760  1.10112E+00  9.39291E-01  1.61831E-01
    8999.466      6.291   1.800  1.19464E+00  9.46655E-01  2.47985E-01
    9000.020      6.845   1.840  1.27336E+00  9.53541E-01  3.19821E-01
    9000.587      7.412   1.880  1.33317E+00  9.59952E-01  3.73220E-01
    9001.166      7.991   1.920  1.37809E+00  9.65895E-01  4.12195E-01
    9001.758      8.583   1.960  1.40818E+00  9.71354E-01  4.36830E-01
    9002.361      9.186   2.000  1.41714E+00  9.76375E-01  4.40764E-01
    9002.977      9.802   2.040  1.40168E+00  9.80965E-01  4.20718E-01
    9003.605     10.430   2.080  1.36966E+00  9.85112E-01  3.84545E-01
    9004.245     11.070   2.120  1.33161E+00  9.88866E-01  3.42741E-01
    9004.897     11.722   2.160  1.29248E+00  9.92214E-01  3.00269E-01
    9005.562     12.387   2.200  1.25147E+00  9.95187E-01  2.56280E-01
    9006.238     13.063   2.240  1.21461E+00  9.97814E-01  2.16800E-01
    9006.927     13.752   2.280  1.19339E+00  1.00011E+00  1.93282E-01
    9007.628     14.453   2.320  1.18550E+00  1.00207E+00  1.83432E-01
    9008.341     15.166   2.360  1.17771E+00  1.00374E+00  1.73971E-01
    9009.067     15.892   2.400  1.16215E+00  1.00515E+00  1.57004E-01
    9009.804     16.629   2.440  1.13795E+00  1.00627E+00  1.31682E-01
    9010.554     17.379   2.480  1.10507E+00  1.00715E+00  9.79163E-02
    9011.316     18.141   2.520  1.06282E+00  1.00782E+00  5.50040E-02
    9012.090     18.915   2.560  1.01311E+00  1.00828E+00  4.83280E-03
    9012.877     19.702   2.600  9.66433E-01  1.00856E+00 -4.21245E-02
    9013.675     20.500   2.640  9.36399E-01  1.00865E+00 -7.22517E-02
    9014.486     21.311   2.680  9.31362E-01  1.00862E+00 -7.72628E-02
    9015.309     22.134   2.720  9.32956E-01  1.00843E+00 -7.54705E-02
    9016.144     22.969   2.760  9.33048E-01  1.00813E+00 -7.50789E-02
    9016.992     23.816   2.800  9.30438E-01  1.00773E+00 -7.72941E-02
    9017.851     24.676   2.840  9.26566E-01  1.00723E+00 -8.06631E-02
    9018.723     25.548   2.880  9.23097E-01  1.00667E+00 -8.35697E-02
    9019.607     26.432   2.920  9.20673E-01  1.00603E+00 -8.53545E-02
    9020.503     27.328   2.960  9.19362E-01  1.00534E+00 -8.59798E-02
    9021.411     28.236   3.000  9.18839E-01  1.00461E+00 -8.57740E-02
    9022.332     29.157   3.040  9.18742E-01  1.00385E+00 -8.51058E-02
    9023.264     30.089   3.080  9.18755E-01  1.00307E+00 -8.43179E-02
    9024.209     31.034   3.120  9.18576E-01  1.00229E+00 -8.37154E-02
    9025.166     31.991   3.160  9.17861E-01  1.00151E+00 -8.36459E-02
    9026.136     32.960   3.200  9.16508E-01  1.00070E+00 -8.41952E-02
    9027.117     33.942   3.240  9.14775E-01  9.99946E-01 -8.51712E-02
    9028.111     34.936   3.280  9.12904E-01  9.99197E-01 -8.62935E-02
    9029.117     35.941   3.320  9.11329E-01  9.98459E-01 -8.71307E-02
    9030.135     36.959   3.360  9.10611E-01  9.97757E-01 -8.71459E-02
    9031.165     37.990   3.400  9.11225E-01  9.97114E-01 -8.58884E-02
    9032.207     39.032   3.440  9.13168E-01  9.96490E-01 -8.33218E-02
    9033.262     40.087   3.480  9.16456E-01  9.95906E-01 -7.94502E-02
    9034.329     41.153   3.520  9.21067E-01  9.95388E-01 -7.43208E-02
    9035.408     42.232   3.560  9.26898E-01  9.94914E-01 -6.80156E-02
    9036.499     43.324   3.600  9.33924E-01  9.94486E-01 -6.05616E-02
    9037.602     44.427   3.640  9.42161E-01  9.94126E-01 -5.19653E-02
    9038.718     45.543   3.680  9.51513E-01  9.93812E-01 -4.22986E-02
    9039.845     46.670   3.720  9.61705E-01  9.93546E-01 -3.18407E-02
    9040.985     47.810   3.760  9.72499E-01  9.93348E-01 -2.08496E-02
    9042.138     48.962   3.800  9.83460E-01  9.93199E-01 -9.73851E-03
    9043.302     50.127   3.840  9.94037E-01  9.93120E-01  9.16624E-04
    9044.478     51.303   3.880  1.00366E+00  9.93090E-01  1.05669E-02
    9045.667     52.492   3.920  1.01192E+00  9.93130E-01  1.87946E-02
    9046.868     53.693   3.960  1.01857E+00  9.93217E-01  2.53514E-02
    9048.081     54.906   4.000  1.02364E+00  9.93371E-01  3.02660E-02
    9049.306     56.131   4.040  1.02739E+00  9.93550E-01  3.38425E-02
    9050.544     57.369   4.080  1.03035E+00  9.93795E-01  3.65594E-02
    9051.794     58.618   4.120  1.03303E+00  9.94105E-01  3.89216E-02
    9053.055     59.880   4.160  1.03583E+00  9.94436E-01  4.13964E-02
    9054.329     61.154   4.200  1.03899E+00  9.94809E-01  4.41855E-02
    9055.616     62.441   4.240  1.04250E+00  9.95243E-01  4.72569E-02
    9056.914     63.739   4.280  1.04617E+00  9.95696E-01  5.04743E-02
    9058.225     65.050   4.320  1.04989E+00  9.96208E-01  5.36819E-02
    9059.548     66.372   4.360  1.05342E+00  9.96734E-01  5.66889E-02
    9060.883     67.707   4.400  1.05655E+00  9.97293E-01  5.92532E-02
    9062.230     69.055   4.440  1.05904E+00  9.97864E-01  6.11719E-02
    9063.589     70.414   4.480  1.06064E+00  9.98467E-01  6.21687E-02
    9064.961     71.786   4.520  1.06108E+00  9.99099E-01  6.19814E-02
    9066.345     73.169   4.560  1.06024E+00  9.99738E-01  6.04990E-02
    9067.741     74.565   4.600  1.05819E+00  1.00038E+00  5.78051E-02
    9069.149     75.974   4.640  1.05515E+00  1.00102E+00  5.41306E-02
    9070.569     77.394   4.680  1.05140E+00  1.00169E+00  4.97079E-02
    9072.002     78.827   4.720  1.04695E+00  1.00233E+00  4.46153E-02
    9073.446     80.271   4.760  1.04178E+00  1.00297E+00  3.88090E-02
    9074.903     81.728   4.800  1.03589E+00  1.00361E+00  3.22740E-02
    9076.373     83.197   4.840  1.02933E+00  1.00424E+00  2.50867E-02
    9077.854     84.679   4.880  1.02231E+00  1.00487E+00  1.74384E-02
    9079.347     86.172   4.920  1.01505E+00  1.00546E+00  9.58990E-03
    9080.853     87.678   4.960  1.00787E+00  1.00605E+00  1.81864E-03
    9082.371     89.196   5.000  1.00104E+00  1.00660E+00 -5.56020E-03
    9083.901     90.726   5.040  9.94890E-01  1.00711E+00 -1.22220E-02
    9085.443     92.268   5.080  9.89695E-01  1.00761E+00 -1.79149E-02
    9086.998     93.823   5.120  9.85526E-01  1.00805E+00 -2.25209E-02
    9088.564     95.389   5.160  9.82365E-01  1.00847E+00 -2.61017E-02
    9090.143     96.968   5.200  9.80027E-01  1.00885E+00 -2.88223E-02
    9091.734     98.559   5.240  9.78232E-01  1.00919E+00 -3.09588E-02
    9093.338    100.162   5.280  9.76586E-01  1.00949E+00 -3.29045E-02
    9094.953    101.778   5.320  9.74636E-01  1.00975E+00 -3.51129E-02
    9096.581    103.406   5.360  9.72146E-01  1.00997E+00 -3.78190E-02
    9098.220    105.045   5.400  9.69326E-01  1.01014E+00 -4.08139E-02
    9099.873    106.697   5.440  9.66802E-01  1.01027E+00 -4.34688E-02
    9101.537    108.362   5.480  9.65289E-01  1.01036E+00 -4.50682E-02
    9103.213    110.038   5.520  9.65192E-01  1.01037E+00 -4.51825E-02
    9104.902    111.727   5.560  9.66478E-01  1.01035E+00 -4.38694E-02
    9106.602    113.427   5.600  9.68784E-01  1.01028E+00 -4.14926E-02
    9108.315    115.140   5.640  9.71738E-01  1.01016E+00 -3.84262E-02
    9110.041    116.865   5.680  9.75119E-01  1.01001E+00 -3.48905E-02
    9111.778    118.603   5.720  9.78723E-01  1.00981E+00 -3.10878E-02
    9113.527    120.352   5.760  9.82250E-01  1.00955E+00 -2.72979E-02
    9115.289    122.114   5.800  9.85425E-01  1.00927E+00 -2.38402E-02
    9117.063    123.888   5.840  9.88020E-01  1.00892E+00 -2.09004E-02
    9118.849    125.674   5.880  9.90107E-01  1.00854E+00 -1.84298E-02
    9120.648    127.472   5.920  9.91932E-01  1.00814E+00 -1.62100E-02
    9122.458    129.283   5.960  9.93701E-01  1.00769E+00 -1.39866E-02
    9124.281    131.106   6.000  9.95709E-01  1.00719E+00 -1.14857E-02
