# # comment:                                                     FEFF 9.9.1  
# # Source:
# # Structure
# # Reduced
# # space
# # abc:
# # angles:
# # sites:
# # POT  SCF 100  7.0000   0, screened core-hole, AFOLP (folp(0)= 1.150)
# # Abs   Z=29 Rmt= 1.224 Rnm= 1.372 K  shell
# # Pot 1 Z=81 Rmt= 1.855 Rnm= 1.916
# # Pot 2 Z=29 Rmt= 1.224 Rnm= 1.372
# # Pot 3 Z=33 Rmt= 1.089 Rnm= 1.295
# # Pot 4 Z= 8 Rmt= 0.930 Rnm= 1.082
# # Gam_ch=1.729E+00 H-L exch Vi= 0.000E+00 Vr= 0.000E+00
# # Mu=-5.302E+00eV kf=2.089E+00 Vint=-1.362E+01eV Rs_int= 1.736
# FMS rfms= 9.0000
# # PATH  Rmax=-1.000,  Keep_limit= 0.00, Heap_limit 0.00  Pwcrit= 2.50%
#  S02=0.950  Temp=   0.00  Debye_temp=   0.00  Global_sig2= 0.00000
#  Energy zero shift, vr, vi    0.00000E+00   0.00000E+00
#  Curved wave amplitude ratio filter   4.000%
#     file         sig2 tot  cw amp ratio   deg  nlegs   reff  inp sig2
#     0/   0 paths used
#  xsedge+ 50, used to normalize mu           2.4194E-04
#  -----------------------------------------------------------------------
#  omega    e    k    mu    mu0     chi     @#
    8983.369     -9.112  -1.000  5.93419E-02  6.25357E-02 -3.19384E-03
    8983.667     -8.813  -0.960  6.37666E-02  6.72713E-02 -3.50470E-03
    8983.954     -8.527  -0.920  6.86923E-02  7.25458E-02 -3.85347E-03
    8984.228     -8.253  -0.880  7.41933E-02  7.84391E-02 -4.24582E-03
    8984.490     -7.990  -0.840  8.03561E-02  8.50445E-02 -4.68845E-03
    8984.740     -7.740  -0.800  8.72806E-02  9.24699E-02 -5.18924E-03
    8984.978     -7.503  -0.760  9.50818E-02  1.00839E-01 -5.75739E-03
    8985.203     -7.277  -0.720  1.03889E-01  1.10292E-01 -6.40353E-03
    8985.417     -7.064  -0.680  1.13844E-01  1.20984E-01 -7.13962E-03
    8985.618     -6.863  -0.640  1.25098E-01  1.33077E-01 -7.97853E-03
    8985.807     -6.674  -0.600  1.37797E-01  1.46731E-01 -8.93315E-03
    8985.984     -6.497  -0.560  1.52068E-01  1.62083E-01 -1.00146E-02
    8986.148     -6.332  -0.520  1.67986E-01  1.79215E-01 -1.12294E-02
    8986.301     -6.180  -0.480  1.85535E-01  1.98110E-01 -1.25757E-02
    8986.441     -6.040  -0.440  2.04565E-01  2.18603E-01 -1.40384E-02
    8986.569     -5.912  -0.400  2.24748E-01  2.40334E-01 -1.55860E-02
    8986.685     -5.796  -0.360  2.45572E-01  2.62742E-01 -1.71700E-02
    8986.788     -5.692  -0.320  2.66363E-01  2.85093E-01 -1.87297E-02
    8986.880     -5.601  -0.280  2.86372E-01  3.06574E-01 -2.02015E-02
    8986.959     -5.522  -0.240  3.04874E-01  3.26403E-01 -2.15296E-02
    8987.026     -5.454  -0.200  3.21254E-01  3.43927E-01 -2.26738E-02
    8987.081     -5.400  -0.160  3.35057E-01  3.58668E-01 -2.36106E-02
    8987.124     -5.357  -0.120  3.45988E-01  3.70319E-01 -2.43304E-02
    8987.154     -5.326  -0.080  3.53876E-01  3.78711E-01 -2.48355E-02
    8987.179     -5.302   0.000  3.60214E-01  3.85453E-01 -2.52391E-02
    8987.233     -5.247   0.120  3.74264E-01  4.00658E-01 -2.63937E-02
    8987.276     -5.205   0.160  3.85253E-01  4.12451E-01 -2.71983E-02
    8987.331     -5.150   0.200  3.99357E-01  4.27528E-01 -2.81716E-02
    8987.398     -5.083   0.240  4.16409E-01  4.45663E-01 -2.92533E-02
    8987.477     -5.003   0.280  4.36106E-01  4.66469E-01 -3.03634E-02
    8987.569     -4.912   0.320  4.58006E-01  4.89391E-01 -3.13848E-02
    8987.672     -4.808   0.360  4.81620E-01  5.13787E-01 -3.21670E-02
    8987.788     -4.692   0.400  5.06418E-01  5.38929E-01 -3.25105E-02
    8987.916     -4.564   0.440  5.31935E-01  5.64129E-01 -3.21940E-02
    8988.056     -4.424   0.480  5.57908E-01  5.88883E-01 -3.09746E-02
    8988.209     -4.272   0.520  5.84131E-01  6.12849E-01 -2.87184E-02
    8988.373     -4.107   0.560  6.10299E-01  6.35855E-01 -2.55558E-02
    8988.550     -3.930   0.600  6.35751E-01  6.57836E-01 -2.20851E-02
    8988.739     -3.741   0.640  6.59366E-01  6.78877E-01 -1.95106E-02
    8988.940     -3.540   0.680  6.79486E-01  6.99002E-01 -1.95161E-02
    8989.154     -3.327   0.720  6.94568E-01  7.18356E-01 -2.37884E-02
    8989.379     -3.101   0.760  7.03752E-01  7.37000E-01 -3.32479E-02
    8989.617     -2.864   0.800  7.07713E-01  7.55023E-01 -4.73103E-02
    8989.867     -2.614   0.840  7.08732E-01  7.72479E-01 -6.37471E-02
    8990.129     -2.352   0.880  7.09948E-01  7.89447E-01 -7.94997E-02
    8990.403     -2.077   0.920  7.13737E-01  8.05927E-01 -9.21898E-02
    8990.690     -1.791   0.960  7.20721E-01  8.21946E-01 -1.01225E-01
    8990.988     -1.492   1.000  7.29545E-01  8.37500E-01 -1.07955E-01
    8991.299     -1.181   1.040  7.37777E-01  8.52572E-01 -1.14795E-01
    8991.622     -0.858   1.080  7.43787E-01  8.67182E-01 -1.23395E-01
    8991.958     -0.523   1.120  7.48524E-01  8.81300E-01 -1.32777E-01
    8992.305     -0.175   1.160  7.55486E-01  8.94912E-01 -1.39426E-01
    8992.665      0.184   1.200  7.68140E-01  9.07978E-01 -1.39838E-01
    8993.037      0.556   1.240  7.87053E-01  9.20482E-01 -1.33429E-01
    8993.421      0.940   1.280  8.09437E-01  9.32401E-01 -1.22964E-01
    8993.817      1.336   1.320  8.32450E-01  9.43735E-01 -1.11285E-01
    8994.225      1.745   1.360  8.57239E-01  9.54441E-01 -9.72022E-02
    8994.646      2.166   1.400  8.87103E-01  9.64519E-01 -7.74157E-02
    8995.079      2.598   1.440  9.20499E-01  9.73969E-01 -5.34701E-02
    8995.524      3.043   1.480  9.50315E-01  9.82751E-01 -3.24359E-02
    8995.981      3.501   1.520  9.70866E-01  9.90889E-01 -2.00236E-02
    8996.450      3.970   1.560  9.81907E-01  9.98387E-01 -1.64805E-02
    8996.932      4.451   1.600  9.87420E-01  1.00523E+00 -1.78095E-02
    8997.426      4.945   1.640  9.90784E-01  1.01144E+00 -2.06608E-02
    8997.932      5.451   1.680  9.90479E-01  1.01704E+00 -2.65625E-02
    8998.450      5.969   1.720  9.85448E-01  1.02203E+00 -3.65807E-02
    8998.980      6.500   1.760  9.81285E-01  1.02642E+00 -4.51329E-02
    8999.523      7.042   1.800  9.85094E-01  1.03026E+00 -4.51687E-02
    9000.078      7.597   1.840  9.98496E-01  1.03353E+00 -3.50370E-02
    9000.645      8.164   1.880  1.02143E+00  1.03631E+00 -1.48778E-02
    9001.224      8.743   1.920  1.05474E+00  1.03858E+00  1.61617E-02
    9001.815      9.334   1.960  1.09749E+00  1.04040E+00  5.70926E-02
    9002.418      9.938   2.000  1.14439E+00  1.04176E+00  1.02627E-01
    9003.034     10.554   2.040  1.18898E+00  1.04273E+00  1.46245E-01
    9003.662     11.181   2.080  1.22632E+00  1.04332E+00  1.82994E-01
    9004.302     11.822   2.120  1.25389E+00  1.04354E+00  2.10349E-01
    9004.954     12.474   2.160  1.26993E+00  1.04345E+00  2.26482E-01
    9005.619     13.138   2.200  1.27235E+00  1.04309E+00  2.29259E-01
    9006.295     13.815   2.240  1.26115E+00  1.04244E+00  2.18714E-01
    9006.984     14.504   2.280  1.23920E+00  1.04157E+00  1.97636E-01
    9007.685     15.205   2.320  1.21079E+00  1.04046E+00  1.70325E-01
    9008.399     15.918   2.360  1.18081E+00  1.03919E+00  1.41612E-01
    9009.124     16.643   2.400  1.15430E+00  1.03774E+00  1.16562E-01
    9009.862     17.381   2.440  1.13268E+00  1.03617E+00  9.65113E-02
    9010.611     18.131   2.480  1.11254E+00  1.03446E+00  7.80852E-02
    9011.373     18.893   2.520  1.09398E+00  1.03267E+00  6.13088E-02
    9012.148     19.667   2.560  1.07987E+00  1.03079E+00  4.90856E-02
    9012.934     20.453   2.600  1.06845E+00  1.02887E+00  3.95812E-02
    9013.733     21.252   2.640  1.05794E+00  1.02688E+00  3.10618E-02
    9014.543     22.063   2.680  1.04734E+00  1.02488E+00  2.24537E-02
    9015.366     22.886   2.720  1.03638E+00  1.02288E+00  1.34992E-02
    9016.201     23.721   2.760  1.02563E+00  1.02088E+00  4.75091E-03
    9017.049     24.568   2.800  1.01606E+00  1.01890E+00 -2.84666E-03
    9017.908     25.428   2.840  1.00835E+00  1.01694E+00 -8.58705E-03
    9018.780     26.299   2.880  1.00235E+00  1.01504E+00 -1.26842E-02
    9019.664     27.183   2.920  9.97249E-01  1.01318E+00 -1.59292E-02
    9020.560     28.079   2.960  9.92323E-01  1.01137E+00 -1.90441E-02
    9021.468     28.988   3.000  9.87126E-01  1.00961E+00 -2.24797E-02
    9022.389     29.908   3.040  9.81556E-01  1.00794E+00 -2.63883E-02
    9023.322     30.841   3.080  9.75609E-01  1.00636E+00 -3.07545E-02
    9024.266     31.786   3.120  9.69393E-01  1.00487E+00 -3.54726E-02
    9025.223     32.743   3.160  9.62930E-01  1.00345E+00 -4.05231E-02
    9026.193     33.712   3.200  9.56170E-01  1.00213E+00 -4.59574E-02
    9027.174     34.694   3.240  9.49211E-01  1.00091E+00 -5.16991E-02
    9028.168     35.687   3.280  9.42278E-01  9.99785E-01 -5.75069E-02
    9029.174     36.693   3.320  9.35828E-01  9.98773E-01 -6.29452E-02
    9030.192     37.711   3.360  9.30458E-01  9.97853E-01 -6.73947E-02
    9031.222     38.741   3.400  9.26775E-01  9.97048E-01 -7.02736E-02
    9032.264     39.784   3.440  9.24990E-01  9.96358E-01 -7.13675E-02
    9033.319     40.838   3.480  9.25125E-01  9.95762E-01 -7.06369E-02
    9034.386     41.905   3.520  9.27061E-01  9.95283E-01 -6.82216E-02
    9035.465     42.984   3.560  9.30446E-01  9.94918E-01 -6.44724E-02
    9036.556     44.075   3.600  9.34841E-01  9.94646E-01 -5.98047E-02
    9037.659     45.179   3.640  9.39896E-01  9.94487E-01 -5.45907E-02
    9038.775     46.294   3.680  9.45292E-01  9.94420E-01 -4.91283E-02
    9039.903     47.422   3.720  9.50699E-01  9.94464E-01 -4.37655E-02
    9041.043     48.562   3.760  9.55906E-01  9.94597E-01 -3.86911E-02
    9042.195     49.714   3.800  9.60778E-01  9.94817E-01 -3.40392E-02
    9043.359     50.878   3.840  9.65344E-01  9.95142E-01 -2.97985E-02
    9044.536     52.055   3.880  9.69834E-01  9.95531E-01 -2.56973E-02
    9045.724     53.244   3.920  9.74745E-01  9.96024E-01 -2.12786E-02
    9046.925     54.445   3.960  9.80417E-01  9.96597E-01 -1.61796E-02
    9048.138     55.658   4.000  9.86884E-01  9.97226E-01 -1.03418E-02
    9049.364     56.883   4.040  9.93941E-01  9.97931E-01 -3.99027E-03
    9050.601     58.120   4.080  1.00128E+00  9.98709E-01  2.56935E-03
    9051.851     59.370   4.120  1.00867E+00  9.99538E-01  9.13546E-03
    9053.113     60.632   4.160  1.01617E+00  1.00044E+00  1.57328E-02
    9054.387     61.906   4.200  1.02382E+00  1.00138E+00  2.24427E-02
    9055.673     63.192   4.240  1.03155E+00  1.00237E+00  2.91824E-02
    9056.971     64.491   4.280  1.03899E+00  1.00339E+00  3.55977E-02
    9058.282     65.801   4.320  1.04556E+00  1.00443E+00  4.11345E-02
    9059.605     67.124   4.360  1.05075E+00  1.00552E+00  4.52279E-02
    9060.940     68.459   4.400  1.05415E+00  1.00663E+00  4.75241E-02
    9062.287     69.806   4.440  1.05585E+00  1.00774E+00  4.81170E-02
    9063.646     71.166   4.480  1.05622E+00  1.00885E+00  4.73700E-02
    9065.018     72.537   4.520  1.05571E+00  1.00999E+00  4.57252E-02
    9066.402     73.921   4.560  1.05470E+00  1.01112E+00  4.35761E-02
    9067.798     75.317   4.600  1.05345E+00  1.01223E+00  4.12186E-02
    9069.206     76.725   4.640  1.05221E+00  1.01334E+00  3.88763E-02
    9070.626     78.146   4.680  1.05114E+00  1.01443E+00  3.67093E-02
    9072.059     79.578   4.720  1.05022E+00  1.01549E+00  3.47316E-02
    9073.504     81.023   4.760  1.04925E+00  1.01651E+00  3.27396E-02
    9074.961     82.480   4.800  1.04796E+00  1.01751E+00  3.04450E-02
    9076.430     83.949   4.840  1.04612E+00  1.01846E+00  2.76603E-02
    9077.911     85.430   4.880  1.04378E+00  1.01938E+00  2.44011E-02
    9079.405     86.924   4.920  1.04107E+00  1.02024E+00  2.08387E-02
    9080.910     88.430   4.960  1.03825E+00  1.02107E+00  1.71848E-02
    9082.428     89.948   5.000  1.03549E+00  1.02183E+00  1.36577E-02
    9083.958     91.478   5.040  1.03302E+00  1.02252E+00  1.05002E-02
    9085.500     93.020   5.080  1.03104E+00  1.02316E+00  7.88725E-03
    9087.055     94.574   5.120  1.02952E+00  1.02374E+00  5.77561E-03
    9088.622     96.141   5.160  1.02805E+00  1.02425E+00  3.79440E-03
    9090.200     97.720   5.200  1.02610E+00  1.02469E+00  1.41008E-03
    9091.792     99.311   5.240  1.02325E+00  1.02504E+00 -1.79335E-03
    9093.395    100.914   5.280  1.01945E+00  1.02534E+00 -5.88546E-03
    9095.010    102.530   5.320  1.01500E+00  1.02556E+00 -1.05668E-02
    9096.638    104.157   5.360  1.01041E+00  1.02573E+00 -1.53209E-02
    9098.278    105.797   5.400  1.00620E+00  1.02580E+00 -1.95992E-02
    9099.930    107.449   5.440  1.00286E+00  1.02581E+00 -2.29469E-02
    9101.594    109.113   5.480  1.00067E+00  1.02574E+00 -2.50663E-02
    9103.270    110.790   5.520  9.99770E-01  1.02562E+00 -2.58499E-02
    9104.959    112.478   5.560  1.00000E+00  1.02542E+00 -2.54204E-02
    9106.660    114.179   5.600  1.00099E+00  1.02515E+00 -2.41587E-02
    9108.373    115.892   5.640  1.00208E+00  1.02480E+00 -2.27199E-02
    9110.098    117.617   5.680  1.00284E+00  1.02443E+00 -2.15820E-02
    9111.835    119.355   5.720  1.00283E+00  1.02395E+00 -2.11274E-02
    9113.585    121.104   5.760  1.00200E+00  1.02343E+00 -2.14329E-02
    9115.346    122.866   5.800  1.00054E+00  1.02287E+00 -2.23365E-02
    9117.120    124.640   5.840  9.98682E-01  1.02227E+00 -2.35858E-02
    9118.906    126.426   5.880  9.96698E-01  1.02160E+00 -2.49001E-02
    9120.705    128.224   5.920  9.94988E-01  1.02089E+00 -2.59060E-02
    9122.515    130.035   5.960  9.93957E-01  1.02018E+00 -2.62259E-02
    9124.338    131.857   6.000  9.94146E-01  1.01937E+00 -2.52267E-02
