# # comment:                                                     FEFF 9.9.1  
# # Source:
# # Structure
# # Reduced
# # space
# # abc:
# # angles:
# # sites:
# # POT  SCF 100  7.0000   0, screened core-hole, AFOLP (folp(0)= 1.150)
# # Abs   Z=29 Rmt= 1.178 Rnm= 1.277 K  shell
# # Pot 1 Z=12 Rmt= 1.444 Rnm= 1.514
# # Pot 2 Z=29 Rmt= 1.178 Rnm= 1.277
# # Pot 3 Z=51 Rmt= 1.318 Rnm= 1.451
# # Pot 4 Z= 8 Rmt= 1.006 Rnm= 1.088
# # Gam_ch=1.729E+00 H-L exch Vi= 0.000E+00 Vr= 0.000E+00
# # Mu=-7.585E+00eV kf=2.181E+00 Vint=-1.710E+01eV Rs_int= 1.663
# FMS rfms= 9.0000
# # PATH  Rmax=-1.000,  Keep_limit= 0.00, Heap_limit 0.00  Pwcrit= 2.50%
#  S02=0.950  Temp=   0.00  Debye_temp=   0.00  Global_sig2= 0.00000
#  Energy zero shift, vr, vi    0.00000E+00   0.00000E+00
#  Curved wave amplitude ratio filter   4.000%
#     file         sig2 tot  cw amp ratio   deg  nlegs   reff  inp sig2
#     0/   0 paths used
#  xsedge+ 50, used to normalize mu           2.4495E-04
#  -----------------------------------------------------------------------
#  omega    e    k    mu    mu0     chi     @#
    8984.392    -11.395  -1.000  3.90259E-02  5.76968E-02 -1.86709E-02
    8984.690    -11.096  -0.960  4.10414E-02  6.19977E-02 -2.09563E-02
    8984.977    -10.810  -0.920  4.32009E-02  6.67858E-02 -2.35849E-02
    8985.251    -10.535  -0.880  4.55181E-02  7.21336E-02 -2.66155E-02
    8985.513    -10.273  -0.840  4.80080E-02  7.81256E-02 -3.01176E-02
    8985.763    -10.023  -0.800  5.06874E-02  8.48596E-02 -3.41723E-02
    8986.001     -9.786  -0.760  5.35742E-02  9.24482E-02 -3.88740E-02
    8986.227     -9.560  -0.720  5.66877E-02  1.01018E-01 -4.43308E-02
    8986.440     -9.347  -0.680  6.00477E-02  1.10711E-01 -5.06629E-02
    8986.641     -9.146  -0.640  6.36735E-02  1.21673E-01 -5.79991E-02
    8986.830     -8.957  -0.600  6.75819E-02  1.34050E-01 -6.64683E-02
    8987.007     -8.780  -0.560  7.17843E-02  1.47968E-01 -7.61838E-02
    8987.171     -8.615  -0.520  7.62819E-02  1.63501E-01 -8.72190E-02
    8987.324     -8.463  -0.480  8.10599E-02  1.80633E-01 -9.95733E-02
    8987.464     -8.323  -0.440  8.60808E-02  1.99214E-01 -1.13134E-01
    8987.592     -8.195  -0.400  9.12782E-02  2.18919E-01 -1.27641E-01
    8987.708     -8.079  -0.360  9.65542E-02  2.39235E-01 -1.42681E-01
    8987.812     -7.975  -0.320  1.01783E-01  2.59497E-01 -1.57714E-01
    8987.903     -7.884  -0.280  1.06819E-01  2.78966E-01 -1.72147E-01
    8987.982     -7.804  -0.240  1.11515E-01  2.96933E-01 -1.85419E-01
    8988.049     -7.737  -0.200  1.15730E-01  3.12806E-01 -1.97077E-01
    8988.104     -7.683  -0.160  1.19344E-01  3.26153E-01 -2.06809E-01
    8988.147     -7.640  -0.120  1.22260E-01  3.36699E-01 -2.14439E-01
    8988.177     -7.609  -0.080  1.24404E-01  3.44293E-01 -2.19889E-01
    8988.202     -7.585   0.000  1.26178E-01  3.50393E-01 -2.24215E-01
    8988.257     -7.530   0.120  1.30229E-01  3.64138E-01 -2.33909E-01
    8988.299     -7.487   0.160  1.33380E-01  3.74808E-01 -2.41428E-01
    8988.354     -7.433   0.200  1.37509E-01  3.88435E-01 -2.50927E-01
    8988.421     -7.366   0.240  1.42618E-01  4.04803E-01 -2.62185E-01
    8988.500     -7.286   0.280  1.48747E-01  4.23552E-01 -2.74805E-01
    8988.592     -7.195   0.320  1.55922E-01  4.44205E-01 -2.88283E-01
    8988.695     -7.091   0.360  1.64166E-01  4.66151E-01 -3.01985E-01
    8988.811     -6.975   0.400  1.73447E-01  4.88695E-01 -3.15248E-01
    8988.939     -6.847   0.440  1.83826E-01  5.11242E-01 -3.27416E-01
    8989.079     -6.707   0.480  1.95382E-01  5.33332E-01 -3.37950E-01
    8989.232     -6.555   0.520  2.08274E-01  5.54652E-01 -3.46378E-01
    8989.396     -6.390   0.560  2.22630E-01  5.75044E-01 -3.52414E-01
    8989.573     -6.213   0.600  2.38459E-01  5.94495E-01 -3.56036E-01
    8989.762     -6.024   0.640  2.55475E-01  6.13048E-01 -3.57573E-01
    8989.963     -5.823   0.680  2.73265E-01  6.30788E-01 -3.57523E-01
    8990.177     -5.610   0.720  2.91768E-01  6.47817E-01 -3.56050E-01
    8990.402     -5.384   0.760  3.11802E-01  6.64257E-01 -3.52455E-01
    8990.640     -5.147   0.800  3.35179E-01  6.80158E-01 -3.44979E-01
    8990.890     -4.897   0.840  3.64583E-01  6.95634E-01 -3.31051E-01
    8991.152     -4.635   0.880  4.01948E-01  7.10748E-01 -3.08800E-01
    8991.426     -4.360   0.920  4.46272E-01  7.25505E-01 -2.79234E-01
    8991.713     -4.074   0.960  4.92691E-01  7.39977E-01 -2.47286E-01
    8992.012     -3.775   1.000  5.33693E-01  7.54143E-01 -2.20450E-01
    8992.323     -3.464   1.040  5.63129E-01  7.68055E-01 -2.04927E-01
    8992.646     -3.141   1.080  5.79679E-01  7.81677E-01 -2.01998E-01
    8992.981     -2.806   1.120  5.85262E-01  7.95023E-01 -2.09762E-01
    8993.328     -2.458   1.160  5.84638E-01  8.08085E-01 -2.23446E-01
    8993.688     -2.099   1.200  5.86409E-01  8.20848E-01 -2.34439E-01
    8994.060     -1.727   1.240  5.94131E-01  8.33274E-01 -2.39144E-01
    8994.444     -1.343   1.280  6.01912E-01  8.45385E-01 -2.43473E-01
    8994.840     -0.947   1.320  6.04252E-01  8.57118E-01 -2.52866E-01
    8995.249     -0.538   1.360  6.08362E-01  8.68471E-01 -2.60109E-01
    8995.669     -0.117   1.400  6.28055E-01  8.79441E-01 -2.51386E-01
    8996.102      0.315   1.440  6.68021E-01  8.89984E-01 -2.21963E-01
    8996.547      0.760   1.480  7.22180E-01  9.00118E-01 -1.77938E-01
    8997.004      1.218   1.520  7.79374E-01  9.09798E-01 -1.30424E-01
    8997.474      1.687   1.560  8.30698E-01  9.19021E-01 -8.83230E-02
    8997.955      2.169   1.600  8.77837E-01  9.27809E-01 -4.99718E-02
    8998.449      2.662   1.640  9.39227E-01  9.36096E-01  3.13079E-03
    8998.955      3.168   1.680  1.03223E+00  9.43926E-01  8.82997E-02
    8999.473      3.686   1.720  1.14702E+00  9.51301E-01  1.95719E-01
    9000.003      4.217   1.760  1.25289E+00  9.58178E-01  2.94716E-01
    9000.546      4.759   1.800  1.32554E+00  9.64603E-01  3.60934E-01
    9001.101      5.314   1.840  1.35961E+00  9.70541E-01  3.89068E-01
    9001.668      5.881   1.880  1.36911E+00  9.76035E-01  3.93071E-01
    9002.247      6.460   1.920  1.36322E+00  9.81092E-01  3.82130E-01
    9002.838      7.051   1.960  1.34044E+00  9.85698E-01  3.54739E-01
    9003.442      7.655   2.000  1.31100E+00  9.89900E-01  3.21096E-01
    9004.057      8.271   2.040  1.28924E+00  9.93666E-01  2.95572E-01
    9004.685      8.898   2.080  1.27802E+00  9.97065E-01  2.80960E-01
    9005.325      9.539   2.120  1.26979E+00  1.00006E+00  2.69724E-01
    9005.978     10.191   2.160  1.25605E+00  1.00271E+00  2.53335E-01
    9006.642     10.855   2.200  1.23579E+00  1.00500E+00  2.30785E-01
    9007.319     11.532   2.240  1.21044E+00  1.00698E+00  2.03461E-01
    9008.007     12.221   2.280  1.17554E+00  1.00866E+00  1.66878E-01
    9008.709     12.922   2.320  1.13187E+00  1.01003E+00  1.21836E-01
    9009.422     13.635   2.360  1.09276E+00  1.01116E+00  8.16081E-02
    9010.147     14.360   2.400  1.07088E+00  1.01201E+00  5.88696E-02
    9010.885     15.098   2.440  1.06839E+00  1.01265E+00  5.57370E-02
    9011.635     15.848   2.480  1.07628E+00  1.01307E+00  6.32110E-02
    9012.397     16.610   2.520  1.07870E+00  1.01329E+00  6.54111E-02
    9013.171     17.384   2.560  1.06858E+00  1.01334E+00  5.52437E-02
    9013.957     18.170   2.600  1.05303E+00  1.01322E+00  3.98069E-02
    9014.756     18.969   2.640  1.04335E+00  1.01295E+00  3.03991E-02
    9015.566     19.780   2.680  1.04292E+00  1.01257E+00  3.03561E-02
    9016.389     20.603   2.720  1.04785E+00  1.01207E+00  3.57781E-02
    9017.225     21.438   2.760  1.05081E+00  1.01147E+00  3.93363E-02
    9018.072     22.285   2.800  1.04725E+00  1.01077E+00  3.64787E-02
    9018.931     23.145   2.840  1.03857E+00  1.01002E+00  2.85515E-02
    9019.803     24.017   2.880  1.02767E+00  1.00921E+00  1.84569E-02
    9020.687     24.900   2.920  1.01536E+00  1.00834E+00  7.02496E-03
    9021.583     25.797   2.960  1.00157E+00  1.00744E+00 -5.87430E-03
    9022.492     26.705   3.000  9.86046E-01  1.00651E+00 -2.04648E-02
    9023.412     27.625   3.040  9.68338E-01  1.00557E+00 -3.72341E-02
    9024.345     28.558   3.080  9.48798E-01  1.00461E+00 -5.58082E-02
    9025.290     29.503   3.120  9.29308E-01  1.00366E+00 -7.43544E-02
    9026.247     30.460   3.160  9.11916E-01  1.00272E+00 -9.08070E-02
    9027.216     31.429   3.200  8.97972E-01  1.00181E+00 -1.03839E-01
    9028.197     32.411   3.240  8.88075E-01  1.00091E+00 -1.12834E-01
    9029.191     33.404   3.280  8.82000E-01  1.00004E+00 -1.18041E-01
    9030.197     34.410   3.320  8.79302E-01  9.99209E-01 -1.19906E-01
    9031.215     35.428   3.360  8.79679E-01  9.98415E-01 -1.18736E-01
    9032.245     36.458   3.400  8.82734E-01  9.97640E-01 -1.14906E-01
    9033.287     37.501   3.440  8.87690E-01  9.96951E-01 -1.09261E-01
    9034.342     38.555   3.480  8.93528E-01  9.96286E-01 -1.02758E-01
    9035.409     39.622   3.520  8.99743E-01  9.95686E-01 -9.59427E-02
    9036.488     40.701   3.560  9.06359E-01  9.95133E-01 -8.87736E-02
    9037.579     41.792   3.600  9.13626E-01  9.94627E-01 -8.10012E-02
    9038.682     42.896   3.640  9.21564E-01  9.94193E-01 -7.26284E-02
    9039.798     44.011   3.680  9.29544E-01  9.93827E-01 -6.42829E-02
    9040.926     45.139   3.720  9.36582E-01  9.93510E-01 -5.69279E-02
    9042.066     46.279   3.760  9.42069E-01  9.93244E-01 -5.11742E-02
    9043.218     47.431   3.800  9.45987E-01  9.93048E-01 -4.70606E-02
    9044.382     48.595   3.840  9.48776E-01  9.92922E-01 -4.41460E-02
    9045.559     49.772   3.880  9.51129E-01  9.92846E-01 -4.17168E-02
    9046.747     50.961   3.920  9.53886E-01  9.92818E-01 -3.89320E-02
    9047.948     52.162   3.960  9.57727E-01  9.92859E-01 -3.51321E-02
    9049.161     53.375   4.000  9.62964E-01  9.92969E-01 -3.00046E-02
    9050.387     54.600   4.040  9.69443E-01  9.93102E-01 -2.36593E-02
    9051.624     55.837   4.080  9.76864E-01  9.93303E-01 -1.64397E-02
    9052.874     57.087   4.120  9.85037E-01  9.93550E-01 -8.51275E-03
    9054.136     58.349   4.160  9.94389E-01  9.93860E-01  5.28909E-04
    9055.410     59.623   4.200  1.00570E+00  9.94190E-01  1.15134E-02
    9056.696     60.909   4.240  1.01950E+00  9.94581E-01  2.49236E-02
    9057.994     62.208   4.280  1.03521E+00  9.94988E-01  4.02242E-02
    9059.305     63.518   4.320  1.05126E+00  9.95434E-01  5.58255E-02
    9060.628     64.841   4.360  1.06568E+00  9.95916E-01  6.97653E-02
    9061.963     66.176   4.400  1.07716E+00  9.96433E-01  8.07242E-02
    9063.310     67.523   4.440  1.08560E+00  9.96984E-01  8.86135E-02
    9064.670     68.883   4.480  1.09153E+00  9.97543E-01  9.39831E-02
    9066.041     70.254   4.520  1.09533E+00  9.98109E-01  9.72195E-02
    9067.425     71.638   4.560  1.09708E+00  9.98702E-01  9.83738E-02
    9068.821     73.034   4.600  1.09662E+00  9.99300E-01  9.73228E-02
    9070.229     74.442   4.640  1.09402E+00  9.99901E-01  9.41171E-02
    9071.649     75.863   4.680  1.08971E+00  1.00052E+00  8.91890E-02
    9073.082     77.295   4.720  1.08436E+00  1.00112E+00  8.32316E-02
    9074.527     78.740   4.760  1.07858E+00  1.00172E+00  7.68558E-02
    9075.984     80.197   4.800  1.07259E+00  1.00232E+00  7.02743E-02
    9077.453     81.666   4.840  1.06622E+00  1.00290E+00  6.33149E-02
    9078.934     83.147   4.880  1.05924E+00  1.00349E+00  5.57555E-02
    9080.428     84.641   4.920  1.05163E+00  1.00404E+00  4.75897E-02
    9081.933     86.147   4.960  1.04354E+00  1.00455E+00  3.89839E-02
    9083.451     87.665   5.000  1.03517E+00  1.00506E+00  3.01057E-02
    9084.981     89.195   5.040  1.02656E+00  1.00556E+00  2.10019E-02
    9086.524     90.737   5.080  1.01761E+00  1.00599E+00  1.16184E-02
    9088.078     92.291   5.120  1.00828E+00  1.00642E+00  1.86571E-03
    9089.645     93.858   5.160  9.98496E-01  1.00682E+00 -8.32741E-03
    9091.224     95.437   5.200  9.88224E-01  1.00717E+00 -1.89449E-02
    9092.815     97.028   5.240  9.77608E-01  1.00747E+00 -2.98668E-02
    9094.418     98.631   5.280  9.66920E-01  1.00776E+00 -4.08413E-02
    9096.033    100.247   5.320  9.56548E-01  1.00798E+00 -5.14357E-02
    9097.661    101.874   5.360  9.47146E-01  1.00816E+00 -6.10187E-02
    9099.301    103.514   5.400  9.39506E-01  1.00833E+00 -6.88207E-02
    9100.953    105.166   5.440  9.34410E-01  1.00842E+00 -7.40129E-02
    9102.617    106.830   5.480  9.32471E-01  1.00848E+00 -7.60050E-02
    9104.293    108.507   5.520  9.33823E-01  1.00849E+00 -7.46645E-02
    9105.982    110.195   5.560  9.38114E-01  1.00846E+00 -7.03416E-02
    9107.683    111.896   5.600  9.44598E-01  1.00838E+00 -6.37836E-02
    9109.396    113.609   5.640  9.52184E-01  1.00826E+00 -5.60799E-02
    9111.121    115.334   5.680  9.59664E-01  1.00808E+00 -4.84177E-02
    9112.858    117.072   5.720  9.66117E-01  1.00788E+00 -4.17650E-02
    9114.608    118.821   5.760  9.71088E-01  1.00764E+00 -3.65532E-02
    9116.370    120.583   5.800  9.74786E-01  1.00734E+00 -3.25521E-02
    9118.143    122.357   5.840  9.78082E-01  1.00702E+00 -2.89358E-02
    9119.930    124.143   5.880  9.81978E-01  1.00664E+00 -2.46593E-02
    9121.728    125.941   5.920  9.87218E-01  1.00625E+00 -1.90299E-02
    9123.538    127.752   5.960  9.93721E-01  1.00582E+00 -1.21041E-02
    9125.361    129.574   6.000  1.00082E+00  1.00534E+00 -4.52104E-03
