# # comment:                                                     FEFF 9.9.1  
# # Source:
# # Structure
# # Reduced
# # space
# # abc:
# # angles:
# # sites:
# # POT  SCF 100  7.0000   0, screened core-hole, AFOLP (folp(0)= 1.150)
# # Abs   Z=29 Rmt= 1.153 Rnm= 1.255 K  shell
# # Pot 1 Z=29 Rmt= 1.153 Rnm= 1.255
# # Pot 2 Z=80 Rmt= 1.687 Rnm= 1.713
# # Pot 3 Z= 8 Rmt= 1.083 Rnm= 1.143
# # Gam_ch=1.729E+00 H-L exch Vi= 0.000E+00 Vr= 0.000E+00
# # Mu=-7.413E+00eV kf=2.086E+00 Vint=-1.359E+01eV Rs_int= 1.739
# FMS rfms= 9.0000
# # PATH  Rmax=-1.000,  Keep_limit= 0.00, Heap_limit 0.00  Pwcrit= 2.50%
#  S02=0.950  Temp=   0.00  Debye_temp=   0.00  Global_sig2= 0.00000
#  Energy zero shift, vr, vi    0.00000E+00   0.00000E+00
#  Curved wave amplitude ratio filter   4.000%
#     file         sig2 tot  cw amp ratio   deg  nlegs   reff  inp sig2
#     0/   0 paths used
#  xsedge+ 50, used to normalize mu           2.4122E-04
#  -----------------------------------------------------------------------
#  omega    e    k    mu    mu0     chi     @#
    8983.385    -11.223  -1.000  3.00509E-02  5.43828E-02 -2.43319E-02
    8983.684    -10.924  -0.960  3.15098E-02  5.82100E-02 -2.67002E-02
    8983.970    -10.638  -0.920  3.31049E-02  6.24454E-02 -2.93405E-02
    8984.244    -10.363  -0.880  3.48578E-02  6.71470E-02 -3.22893E-02
    8984.507    -10.101  -0.840  3.67940E-02  7.23822E-02 -3.55881E-02
    8984.756     -9.851  -0.800  3.89437E-02  7.82283E-02 -3.92847E-02
    8984.994     -9.613  -0.760  4.13415E-02  8.47743E-02 -4.34328E-02
    8985.220     -9.388  -0.720  4.40270E-02  9.21197E-02 -4.80927E-02
    8985.433     -9.174  -0.680  4.70441E-02  1.00374E-01 -5.33300E-02
    8985.634     -8.973  -0.640  5.04396E-02  1.09652E-01 -5.92128E-02
    8985.823     -8.784  -0.600  5.42600E-02  1.20067E-01 -6.58069E-02
    8986.000     -8.608  -0.560  5.85461E-02  1.31712E-01 -7.31663E-02
    8986.165     -8.443  -0.520  6.33247E-02  1.44644E-01 -8.13191E-02
    8986.317     -8.291  -0.480  6.85967E-02  1.58844E-01 -9.02478E-02
    8986.457     -8.150  -0.440  7.43241E-02  1.74191E-01 -9.98671E-02
    8986.585     -8.022  -0.400  8.04178E-02  1.90423E-01 -1.10005E-01
    8986.701     -7.907  -0.360  8.67325E-02  2.07132E-01 -1.20400E-01
    8986.805     -7.803  -0.320  9.30741E-02  2.23788E-01 -1.30714E-01
    8986.896     -7.711  -0.280  9.92207E-02  2.39800E-01 -1.40580E-01
    8986.975     -7.632  -0.240  1.04951E-01  2.54598E-01 -1.49647E-01
    8987.042     -7.565  -0.200  1.10070E-01  2.67696E-01 -1.57627E-01
    8987.097     -7.510  -0.160  1.14423E-01  2.78736E-01 -1.64313E-01
    8987.140     -7.468  -0.120  1.17903E-01  2.87480E-01 -1.69577E-01
    8987.170     -7.437  -0.080  1.20440E-01  2.93791E-01 -1.73351E-01
    8987.195     -7.413   0.000  1.22533E-01  2.98871E-01 -1.76338E-01
    8987.250     -7.358   0.120  1.27419E-01  3.10326E-01 -1.82907E-01
    8987.292     -7.315   0.160  1.31136E-01  3.19283E-01 -1.88148E-01
    8987.347     -7.260   0.200  1.35843E-01  3.30734E-01 -1.94890E-01
    8987.414     -7.193   0.240  1.41534E-01  3.44581E-01 -2.03046E-01
    8987.494     -7.114   0.280  1.48143E-01  3.60601E-01 -2.12457E-01
    8987.585     -7.023   0.320  1.55597E-01  3.78455E-01 -2.22857E-01
    8987.689     -6.919   0.360  1.63766E-01  3.97693E-01 -2.33927E-01
    8987.804     -6.803   0.400  1.72513E-01  4.17855E-01 -2.45342E-01
    8987.932     -6.675   0.440  1.81596E-01  4.38498E-01 -2.56902E-01
    8988.073     -6.535   0.480  1.90385E-01  4.59290E-01 -2.68905E-01
    8988.225     -6.383   0.520  1.97615E-01  4.80022E-01 -2.82406E-01
    8988.390     -6.218   0.560  2.01215E-01  5.00551E-01 -2.99336E-01
    8988.566     -6.041   0.600  1.99014E-01  5.20883E-01 -3.21869E-01
    8988.755     -5.852   0.640  1.90104E-01  5.40998E-01 -3.50894E-01
    8988.957     -5.651   0.680  1.76022E-01  5.60943E-01 -3.84922E-01
    8989.170     -5.438   0.720  1.59887E-01  5.80816E-01 -4.20928E-01
    8989.395     -5.212   0.760  1.44339E-01  6.00604E-01 -4.56265E-01
    8989.633     -4.974   0.800  1.31049E-01  6.20374E-01 -4.89325E-01
    8989.883     -4.724   0.840  1.20718E-01  6.40154E-01 -5.19436E-01
    8990.145     -4.462   0.880  1.13364E-01  6.59919E-01 -5.46555E-01
    8990.420     -4.188   0.920  1.08684E-01  6.79651E-01 -5.70967E-01
    8990.706     -3.901   0.960  1.06283E-01  6.99366E-01 -5.93083E-01
    8991.005     -3.603   1.000  1.05744E-01  7.18983E-01 -6.13239E-01
    8991.316     -3.292   1.040  1.06803E-01  7.38476E-01 -6.31674E-01
    8991.639     -2.969   1.080  1.09295E-01  7.57794E-01 -6.48499E-01
    8991.974     -2.634   1.120  1.13173E-01  7.76878E-01 -6.63705E-01
    8992.322     -2.286   1.160  1.18505E-01  7.95646E-01 -6.77141E-01
    8992.681     -1.926   1.200  1.25547E-01  8.14076E-01 -6.88528E-01
    8993.053     -1.555   1.240  1.34616E-01  8.32061E-01 -6.97445E-01
    8993.437     -1.170   1.280  1.46156E-01  8.49577E-01 -7.03421E-01
    8993.833     -0.774   1.320  1.60363E-01  8.66537E-01 -7.06174E-01
    8994.242     -0.366   1.360  1.77159E-01  8.82898E-01 -7.05739E-01
    8994.662      0.055   1.400  1.96797E-01  8.98596E-01 -7.01799E-01
    8995.095      0.488   1.440  2.19909E-01  9.13612E-01 -6.93703E-01
    8995.540      0.933   1.480  2.48131E-01  9.27889E-01 -6.79758E-01
    8995.997      1.390   1.520  2.85952E-01  9.41391E-01 -6.55439E-01
    8996.467      1.859   1.560  3.40315E-01  9.54110E-01 -6.13795E-01
    8996.948      2.341   1.600  4.17539E-01  9.66015E-01 -5.48476E-01
    8997.442      2.835   1.640  5.21544E-01  9.77100E-01 -4.55556E-01
    8997.948      3.341   1.680  6.63974E-01  9.87347E-01 -3.23373E-01
    8998.466      3.859   1.720  8.62239E-01  9.96777E-01 -1.34538E-01
    8998.997      4.389   1.760  1.09064E+00  1.00537E+00  8.52690E-02
    8999.539      4.932   1.800  1.27944E+00  1.01316E+00  2.66277E-01
    9000.094      5.486   1.840  1.42101E+00  1.02015E+00  4.00859E-01
    9000.661      6.053   1.880  1.55761E+00  1.02638E+00  5.31234E-01
    9001.240      6.632   1.920  1.65065E+00  1.03188E+00  6.18773E-01
    9001.831      7.224   1.960  1.67216E+00  1.03664E+00  6.35524E-01
    9002.435      7.827   2.000  1.63620E+00  1.04072E+00  5.95479E-01
    9003.050      8.443   2.040  1.56154E+00  1.04416E+00  5.17374E-01
    9003.678      9.071   2.080  1.49171E+00  1.04698E+00  4.44724E-01
    9004.318      9.711   2.120  1.47996E+00  1.04922E+00  4.30738E-01
    9004.971     10.363   2.160  1.54253E+00  1.05092E+00  4.91613E-01
    9005.635     11.028   2.200  1.64281E+00  1.05213E+00  5.90680E-01
    9006.312     11.704   2.240  1.71260E+00  1.05285E+00  6.59749E-01
    9007.001     12.393   2.280  1.68564E+00  1.05316E+00  6.32484E-01
    9007.702     13.094   2.320  1.55294E+00  1.05308E+00  4.99863E-01
    9008.415     13.807   2.360  1.37498E+00  1.05265E+00  3.22327E-01
    9009.140     14.533   2.400  1.23232E+00  1.05187E+00  1.80447E-01
    9009.878     15.270   2.440  1.15588E+00  1.05083E+00  1.05053E-01
    9010.628     16.020   2.480  1.12350E+00  1.04953E+00  7.39703E-02
    9011.390     16.782   2.520  1.12393E+00  1.04801E+00  7.59171E-02
    9012.164     17.556   2.560  1.14038E+00  1.04627E+00  9.41146E-02
    9012.950     18.343   2.600  1.15836E+00  1.04438E+00  1.13986E-01
    9013.749     19.141   2.640  1.16553E+00  1.04235E+00  1.23174E-01
    9014.560     19.952   2.680  1.15084E+00  1.04021E+00  1.10626E-01
    9015.383     20.775   2.720  1.11501E+00  1.03798E+00  7.70335E-02
    9016.218     21.610   2.760  1.06972E+00  1.03566E+00  3.40599E-02
    9017.065     22.458   2.800  1.02692E+00  1.03330E+00 -6.38120E-03
    9017.925     23.317   2.840  9.92148E-01  1.03091E+00 -3.87581E-02
    9018.796     24.189   2.880  9.66830E-01  1.02850E+00 -6.16679E-02
    9019.680     25.073   2.920  9.50788E-01  1.02609E+00 -7.53024E-02
    9020.576     25.969   2.960  9.41930E-01  1.02369E+00 -8.17594E-02
    9021.485     26.877   3.000  9.36355E-01  1.02132E+00 -8.49689E-02
    9022.405     27.798   3.040  9.30327E-01  1.01902E+00 -8.86937E-02
    9023.338     28.730   3.080  9.23167E-01  1.01674E+00 -9.35765E-02
    9024.283     29.675   3.120  9.17020E-01  1.01456E+00 -9.75391E-02
    9025.240     30.632   3.160  9.12157E-01  1.01243E+00 -1.00274E-01
    9026.209     31.601   3.200  9.05401E-01  1.01038E+00 -1.04983E-01
    9027.191     32.583   3.240  8.92965E-01  1.00842E+00 -1.15455E-01
    9028.184     33.577   3.280  8.74872E-01  1.00655E+00 -1.31674E-01
    9029.190     34.582   3.320  8.55105E-01  1.00480E+00 -1.49700E-01
    9030.208     35.600   3.360  8.38099E-01  1.00314E+00 -1.65037E-01
    9031.238     36.631   3.400  8.25791E-01  1.00158E+00 -1.75794E-01
    9032.281     37.673   3.440  8.18217E-01  1.00017E+00 -1.81955E-01
    9033.335     38.728   3.480  8.15281E-01  9.98860E-01 -1.83579E-01
    9034.402     39.794   3.520  8.17282E-01  9.97646E-01 -1.80364E-01
    9035.481     40.873   3.560  8.23678E-01  9.96575E-01 -1.72897E-01
    9036.572     41.965   3.600  8.33134E-01  9.95628E-01 -1.62495E-01
    9037.676     43.068   3.640  8.43811E-01  9.94805E-01 -1.50993E-01
    9038.791     44.184   3.680  8.54456E-01  9.94104E-01 -1.39648E-01
    9039.919     45.311   3.720  8.65284E-01  9.93527E-01 -1.28243E-01
    9041.059     46.451   3.760  8.77506E-01  9.93049E-01 -1.15544E-01
    9042.211     47.603   3.800  8.91937E-01  9.92716E-01 -1.00778E-01
    9043.375     48.768   3.840  9.07995E-01  9.92505E-01 -8.45104E-02
    9044.552     49.944   3.880  9.24637E-01  9.92394E-01 -6.77571E-02
    9045.741     51.133   3.920  9.41456E-01  9.92423E-01 -5.09671E-02
    9046.941     52.334   3.960  9.58074E-01  9.92549E-01 -3.44753E-02
    9048.155     53.547   4.000  9.73889E-01  9.92792E-01 -1.89027E-02
    9049.380     54.772   4.040  9.88175E-01  9.93128E-01 -4.95305E-03
    9050.617     56.010   4.080  1.00062E+00  9.93577E-01  7.03964E-03
    9051.867     57.259   4.120  1.01175E+00  9.94115E-01  1.76363E-02
    9053.129     58.521   4.160  1.02261E+00  9.94764E-01  2.78453E-02
    9054.403     59.795   4.200  1.03412E+00  9.95476E-01  3.86440E-02
    9055.689     61.082   4.240  1.04748E+00  9.96293E-01  5.11910E-02
    9056.988     62.380   4.280  1.06456E+00  9.97194E-01  6.73625E-02
    9058.298     63.691   4.320  1.08652E+00  9.98174E-01  8.83463E-02
    9059.621     65.014   4.360  1.11219E+00  9.99207E-01  1.12985E-01
    9060.956     66.349   4.400  1.13782E+00  1.00031E+00  1.37504E-01
    9062.303     67.696   4.440  1.15871E+00  1.00147E+00  1.57238E-01
    9063.663     69.055   4.480  1.17143E+00  1.00269E+00  1.68739E-01
    9065.034     70.427   4.520  1.17500E+00  1.00396E+00  1.71037E-01
    9066.418     71.811   4.560  1.17114E+00  1.00524E+00  1.65893E-01
    9067.814     73.207   4.600  1.16329E+00  1.00659E+00  1.56699E-01
    9069.222     74.615   4.640  1.15503E+00  1.00795E+00  1.47081E-01
    9070.643     76.035   4.680  1.14901E+00  1.00933E+00  1.39672E-01
    9072.075     77.468   4.720  1.14560E+00  1.01073E+00  1.34873E-01
    9073.520     78.912   4.760  1.14245E+00  1.01213E+00  1.30319E-01
    9074.977     80.369   4.800  1.13530E+00  1.01355E+00  1.21751E-01
    9076.446     81.838   4.840  1.12015E+00  1.01495E+00  1.05201E-01
    9077.927     83.320   4.880  1.09574E+00  1.01634E+00  7.94018E-02
    9079.421     84.813   4.920  1.06410E+00  1.01772E+00  4.63851E-02
    9080.927     86.319   4.960  1.02889E+00  1.01904E+00  9.85217E-03
    9082.444     87.837   5.000  9.94115E-01  1.02037E+00 -2.62585E-02
    9083.975     89.367   5.040  9.63459E-01  1.02165E+00 -5.81867E-02
    9085.517     90.909   5.080  9.40415E-01  1.02290E+00 -8.24824E-02
    9087.071     92.464   5.120  9.27326E-01  1.02408E+00 -9.67559E-02
    9088.638     94.030   5.160  9.25033E-01  1.02522E+00 -1.00185E-01
    9090.217     95.609   5.200  9.32639E-01  1.02628E+00 -9.36454E-02
    9091.808     97.200   5.240  9.48015E-01  1.02732E+00 -7.93064E-02
    9093.411     98.804   5.280  9.68598E-01  1.02826E+00 -5.96621E-02
    9095.027    100.419   5.320  9.92115E-01  1.02914E+00 -3.70285E-02
    9096.654    102.047   5.360  1.01601E+00  1.02995E+00 -1.39347E-02
    9098.294    103.686   5.400  1.03656E+00  1.03067E+00  5.88553E-03
    9099.946    105.338   5.440  1.04874E+00  1.03131E+00  1.74289E-02
    9101.610    107.003   5.480  1.04835E+00  1.03187E+00  1.64852E-02
    9103.287    108.679   5.520  1.03477E+00  1.03237E+00  2.40563E-03
    9104.975    110.368   5.560  1.01159E+00  1.03276E+00 -2.11705E-02
    9106.676    112.068   5.600  9.85306E-01  1.03306E+00 -4.77575E-02
    9108.389    113.781   5.640  9.62659E-01  1.03326E+00 -7.05996E-02
    9110.114    115.506   5.680  9.48577E-01  1.03339E+00 -8.48146E-02
    9111.851    117.244   5.720  9.45280E-01  1.03342E+00 -8.81375E-02
    9113.601    118.993   5.760  9.52292E-01  1.03338E+00 -8.10910E-02
    9115.363    120.755   5.800  9.65966E-01  1.03324E+00 -6.72752E-02
    9117.137    122.529   5.840  9.80730E-01  1.03302E+00 -5.22855E-02
    9118.923    124.315   5.880  9.91594E-01  1.03271E+00 -4.11144E-02
    9120.721    126.113   5.920  9.96242E-01  1.03232E+00 -3.60783E-02
    9122.532    127.924   5.960  9.94958E-01  1.03184E+00 -3.68822E-02
    9124.354    129.747   6.000  9.89640E-01  1.03121E+00 -4.15701E-02
