# # comment:                                                     FEFF 9.9.1  
# # Source:
# # Structure
# # Reduced
# # space
# # abc:
# # angles:107.580080
# # sites:
# # POT  SCF 100  7.0000   0, screened core-hole, AFOLP (folp(0)= 1.150)
# # Abs   Z=29 Rmt= 1.233 Rnm= 1.312 K  shell
# # Pot 1 Z=56 Rmt= 1.909 Rnm= 1.973
# # Pot 2 Z=38 Rmt= 1.803 Rnm= 1.867
# # Pot 3 Z=29 Rmt= 1.225 Rnm= 1.307
# # Pot 4 Z= 8 Rmt= 1.079 Rnm= 1.128
# # Gam_ch=1.729E+00 H-L exch Vi= 0.000E+00 Vr= 0.000E+00
# # Mu=-1.034E+01eV kf=1.916E+00 Vint=-1.759E+01eV Rs_int= 1.892
# FMS rfms= 9.0000
# # PATH  Rmax=-1.000,  Keep_limit= 0.00, Heap_limit 0.00  Pwcrit= 2.50%
#  S02=0.950  Temp=   0.00  Debye_temp=   0.00  Global_sig2= 0.00000
#  Energy zero shift, vr, vi    0.00000E+00   0.00000E+00
#  Curved wave amplitude ratio filter   4.000%
#     file         sig2 tot  cw amp ratio   deg  nlegs   reff  inp sig2
#     0/   0 paths used
#  xsedge+ 50, used to normalize mu           2.4460E-04
#  -----------------------------------------------------------------------
#  omega    e    k    mu    mu0     chi     @#
    8985.352    -14.152  -1.000  3.39321E-02  5.26343E-02 -1.87023E-02
    8985.651    -13.853  -0.960  3.55161E-02  5.63721E-02 -2.08560E-02
    8985.937    -13.567  -0.920  3.72112E-02  6.05155E-02 -2.33044E-02
    8986.212    -13.292  -0.880  3.90309E-02  6.51233E-02 -2.60924E-02
    8986.474    -13.030  -0.840  4.09910E-02  7.02635E-02 -2.92725E-02
    8986.724    -12.780  -0.800  4.31099E-02  7.60149E-02 -3.29050E-02
    8986.962    -12.543  -0.760  4.54089E-02  8.24676E-02 -3.70588E-02
    8987.187    -12.317  -0.720  4.79122E-02  8.97234E-02 -4.18112E-02
    8987.400    -12.104  -0.680  5.06470E-02  9.78939E-02 -4.72470E-02
    8987.602    -11.902  -0.640  5.36416E-02  1.07097E-01 -5.34553E-02
    8987.791    -11.714  -0.600  5.69243E-02  1.17448E-01 -6.05233E-02
    8987.967    -11.537  -0.560  6.05189E-02  1.29044E-01 -6.85248E-02
    8988.132    -11.372  -0.520  6.44395E-02  1.41943E-01 -7.75031E-02
    8988.284    -11.220  -0.480  6.86818E-02  1.56129E-01 -8.74476E-02
    8988.425    -11.080  -0.440  7.32143E-02  1.71480E-01 -9.82657E-02
    8988.553    -10.952  -0.400  7.79698E-02  1.87731E-01 -1.09761E-01
    8988.668    -10.836  -0.360  8.28419E-02  2.04468E-01 -1.21626E-01
    8988.772    -10.732  -0.320  8.76906E-02  2.21154E-01 -1.33463E-01
    8988.864    -10.641  -0.280  9.23570E-02  2.37191E-01 -1.44834E-01
    8988.943    -10.561  -0.240  9.66833E-02  2.52002E-01 -1.55319E-01
    8989.010    -10.494  -0.200  1.00531E-01  2.65102E-01 -1.64571E-01
    8989.065    -10.439  -0.160  1.03794E-01  2.76133E-01 -1.72339E-01
    8989.107    -10.397  -0.120  1.06396E-01  2.84861E-01 -1.78465E-01
    8989.138    -10.366  -0.080  1.08291E-01  2.91155E-01 -1.82864E-01
    8989.162    -10.342   0.000  1.09850E-01  2.96216E-01 -1.86366E-01
    8989.217    -10.287   0.120  1.13352E-01  3.07638E-01 -1.94286E-01
    8989.260    -10.244   0.160  1.16019E-01  3.16527E-01 -2.00509E-01
    8989.315    -10.190   0.200  1.19418E-01  3.27908E-01 -2.08490E-01
    8989.382    -10.122   0.240  1.23479E-01  3.41625E-01 -2.18146E-01
    8989.461    -10.043   0.280  1.28071E-01  3.57432E-01 -2.29361E-01
    8989.552     -9.952   0.320  1.33026E-01  3.74963E-01 -2.41937E-01
    8989.656     -9.848   0.360  1.38025E-01  3.93738E-01 -2.55712E-01
    8989.772     -9.732   0.400  1.42739E-01  4.13286E-01 -2.70548E-01
    8989.900     -9.604   0.440  1.46722E-01  4.33138E-01 -2.86416E-01
    8990.040     -9.464   0.480  1.49631E-01  4.52925E-01 -3.03294E-01
    8990.192     -9.312   0.520  1.51418E-01  4.72443E-01 -3.21025E-01
    8990.357     -9.147   0.560  1.52222E-01  4.91529E-01 -3.39307E-01
    8990.534     -8.970   0.600  1.52499E-01  5.10189E-01 -3.57690E-01
    8990.723     -8.781   0.640  1.52662E-01  5.28431E-01 -3.75769E-01
    8990.924     -8.580   0.680  1.53139E-01  5.46351E-01 -3.93212E-01
    8991.137     -8.367   0.720  1.54414E-01  5.63977E-01 -4.09563E-01
    8991.363     -8.141   0.760  1.57219E-01  5.81394E-01 -4.24175E-01
    8991.601     -7.904   0.800  1.62400E-01  5.98659E-01 -4.36260E-01
    8991.851     -7.654   0.840  1.70801E-01  6.15816E-01 -4.45015E-01
    8992.113     -7.391   0.880  1.83292E-01  6.32874E-01 -4.49582E-01
    8992.387     -7.117   0.920  2.00898E-01  6.49854E-01 -4.48956E-01
    8992.673     -6.831   0.960  2.24775E-01  6.66762E-01 -4.41987E-01
    8992.972     -6.532   1.000  2.55803E-01  6.83597E-01 -4.27795E-01
    8993.283     -6.221   1.040  2.94023E-01  7.00308E-01 -4.06285E-01
    8993.606     -5.898   1.080  3.38031E-01  7.16878E-01 -3.78847E-01
    8993.941     -5.563   1.120  3.85194E-01  7.33305E-01 -3.48110E-01
    8994.289     -5.215   1.160  4.33509E-01  7.49520E-01 -3.16012E-01
    8994.649     -4.856   1.200  4.81474E-01  7.65497E-01 -2.84023E-01
    8995.020     -4.484   1.240  5.24113E-01  7.81180E-01 -2.57067E-01
    8995.404     -4.100   1.280  5.55883E-01  7.96557E-01 -2.40673E-01
    8995.801     -3.703   1.320  5.78335E-01  8.11593E-01 -2.33258E-01
    8996.209     -3.295   1.360  6.00001E-01  8.26213E-01 -2.26212E-01
    8996.630     -2.874   1.400  6.30918E-01  8.40402E-01 -2.09483E-01
    8997.063     -2.442   1.440  6.79903E-01  8.54105E-01 -1.74202E-01
    8997.508     -1.997   1.480  7.48227E-01  8.67331E-01 -1.19104E-01
    8997.965     -1.539   1.520  8.17308E-01  8.80007E-01 -6.26988E-02
    8998.434     -1.070   1.560  8.70680E-01  8.92144E-01 -2.14642E-02
    8998.916     -0.588   1.600  9.36333E-01  9.03692E-01  3.26414E-02
    8999.410     -0.095   1.640  1.05234E+00  9.14666E-01  1.37670E-01
    8999.916      0.411   1.680  1.19876E+00  9.25021E-01  2.73741E-01
    9000.434      0.930   1.720  1.28668E+00  9.34795E-01  3.51881E-01
    9000.964      1.460   1.760  1.28501E+00  9.43926E-01  3.41088E-01
    9001.507      2.002   1.800  1.29403E+00  9.52457E-01  3.41578E-01
    9002.061      2.557   1.840  1.37961E+00  9.60389E-01  4.19216E-01
    9002.628      3.124   1.880  1.51482E+00  9.67707E-01  5.47108E-01
    9003.207      3.703   1.920  1.61585E+00  9.74438E-01  6.41413E-01
    9003.799      4.295   1.960  1.59291E+00  9.80608E-01  6.12298E-01
    9004.402      4.898   2.000  1.46330E+00  9.86208E-01  4.77097E-01
    9005.018      5.514   2.040  1.31337E+00  9.91244E-01  3.22123E-01
    9005.646      6.142   2.080  1.19003E+00  9.95788E-01  1.94246E-01
    9006.286      6.782   2.120  1.10065E+00  9.99812E-01  1.00835E-01
    9006.938      7.434   2.160  1.04160E+00  1.00337E+00  3.82326E-02
    9007.603      8.098   2.200  1.01052E+00  1.00645E+00  4.07102E-03
    9008.279      8.775   2.240  1.00189E+00  1.00913E+00 -7.23365E-03
    9008.968      9.464   2.280  9.94841E-01  1.01137E+00 -1.65325E-02
    9009.669     10.165   2.320  9.71547E-01  1.01327E+00 -4.17176E-02
    9010.382     10.878   2.360  9.56813E-01  1.01479E+00 -5.79802E-02
    9011.108     11.604   2.400  9.55609E-01  1.01599E+00 -6.03794E-02
    9011.845     12.341   2.440  9.63295E-01  1.01687E+00 -5.35701E-02
    9012.595     13.091   2.480  9.78175E-01  1.01748E+00 -3.93031E-02
    9013.357     13.853   2.520  9.98702E-01  1.01784E+00 -1.91359E-02
    9014.131     14.627   2.560  1.02149E+00  1.01796E+00  3.52986E-03
    9014.918     15.414   2.600  1.04224E+00  1.01787E+00  2.43696E-02
    9015.716     16.212   2.640  1.05700E+00  1.01760E+00  3.94025E-02
    9016.527     17.023   2.680  1.06368E+00  1.01715E+00  4.65325E-02
    9017.350     17.846   2.720  1.06223E+00  1.01655E+00  4.56802E-02
    9018.185     18.681   2.760  1.05429E+00  1.01584E+00  3.84497E-02
    9019.032     19.528   2.800  1.04126E+00  1.01502E+00  2.62405E-02
    9019.892     20.388   2.840  1.02435E+00  1.01410E+00  1.02524E-02
    9020.764     21.260   2.880  1.00472E+00  1.01309E+00 -8.36331E-03
    9021.648     22.144   2.920  9.83503E-01  1.01203E+00 -2.85254E-02
    9022.544     23.040   2.960  9.61903E-01  1.01092E+00 -4.90206E-02
    9023.452     23.948   3.000  9.41208E-01  1.00978E+00 -6.85690E-02
    9024.373     24.868   3.040  9.22511E-01  1.00860E+00 -8.60881E-02
    9025.305     25.801   3.080  9.06745E-01  1.00741E+00 -1.00667E-01
    9026.250     26.746   3.120  8.94475E-01  1.00622E+00 -1.11750E-01
    9027.207     27.703   3.160  8.85891E-01  1.00506E+00 -1.19171E-01
    9028.176     28.672   3.200  8.80968E-01  1.00391E+00 -1.22938E-01
    9029.158     29.654   3.240  8.79618E-01  1.00276E+00 -1.23143E-01
    9030.152     30.647   3.280  8.81297E-01  1.00167E+00 -1.20377E-01
    9031.157     31.653   3.320  8.85251E-01  1.00060E+00 -1.15353E-01
    9032.175     32.671   3.360  8.90990E-01  9.99597E-01 -1.08607E-01
    9033.206     33.701   3.400  8.98190E-01  9.98613E-01 -1.00424E-01
    9034.248     34.744   3.440  9.06788E-01  9.97719E-01 -9.09306E-02
    9035.303     35.799   3.480  9.16928E-01  9.96852E-01 -7.99244E-02
    9036.369     36.865   3.520  9.28928E-01  9.96079E-01 -6.71501E-02
    9037.448     37.944   3.560  9.42695E-01  9.95357E-01 -5.26620E-02
    9038.540     39.035   3.600  9.57806E-01  9.94687E-01 -3.68809E-02
    9039.643     40.139   3.640  9.73613E-01  9.94093E-01 -2.04796E-02
    9040.759     41.254   3.680  9.89190E-01  9.93595E-01 -4.40476E-03
    9041.886     42.382   3.720  1.00346E+00  9.93131E-01  1.03329E-02
    9043.026     43.522   3.760  1.01560E+00  9.92765E-01  2.28328E-02
    9044.178     44.674   3.800  1.02480E+00  9.92477E-01  3.23259E-02
    9045.343     45.839   3.840  1.03062E+00  9.92243E-01  3.83787E-02
    9046.519     47.015   3.880  1.03322E+00  9.92084E-01  4.11347E-02
    9047.708     48.204   3.920  1.03340E+00  9.92000E-01  4.14014E-02
    9048.909     49.405   3.960  1.03219E+00  9.91969E-01  4.02174E-02
    9050.122     50.618   4.000  1.03043E+00  9.92011E-01  3.84216E-02
    9051.347     51.843   4.040  1.02851E+00  9.92127E-01  3.63832E-02
    9052.585     53.081   4.080  1.02648E+00  9.92293E-01  3.41869E-02
    9053.834     54.330   4.120  1.02452E+00  9.92530E-01  3.19947E-02
    9055.096     55.592   4.160  1.02320E+00  9.92814E-01  3.03891E-02
    9056.370     56.866   4.200  1.02332E+00  9.93145E-01  3.01767E-02
    9057.657     58.152   4.240  1.02541E+00  9.93542E-01  3.18712E-02
    9058.955     59.451   4.280  1.02935E+00  9.93983E-01  3.53687E-02
    9060.266     60.762   4.320  1.03442E+00  9.94467E-01  3.99497E-02
    9061.588     62.084   4.360  1.03951E+00  9.94989E-01  4.45207E-02
    9062.924     63.419   4.400  1.04369E+00  9.95551E-01  4.81398E-02
    9064.271     64.767   4.440  1.04663E+00  9.96149E-01  5.04830E-02
    9065.630     66.126   4.480  1.04871E+00  9.96760E-01  5.19504E-02
    9067.002     67.498   4.520  1.05075E+00  9.97425E-01  5.33272E-02
    9068.386     68.881   4.560  1.05337E+00  9.98078E-01  5.52910E-02
    9069.781     70.277   4.600  1.05658E+00  9.98759E-01  5.78213E-02
    9071.190     71.686   4.640  1.05951E+00  9.99467E-01  6.00385E-02
    9072.610     73.106   4.680  1.06059E+00  1.00015E+00  6.04375E-02
    9074.043     74.538   4.720  1.05824E+00  1.00087E+00  5.73794E-02
    9075.487     75.983   4.760  1.05134E+00  1.00155E+00  4.97890E-02
    9076.944     77.440   4.800  1.04000E+00  1.00226E+00  3.77416E-02
    9078.413     78.909   4.840  1.02552E+00  1.00294E+00  2.25801E-02
    9079.895     80.391   4.880  1.01014E+00  1.00362E+00  6.52209E-03
    9081.388     81.884   4.920  9.96206E-01  1.00429E+00 -8.07892E-03
    9082.894     83.390   4.960  9.85488E-01  1.00492E+00 -1.94339E-02
    9084.412     84.908   5.000  9.78933E-01  1.00555E+00 -2.66143E-02
    9085.942     86.438   5.040  9.76484E-01  1.00614E+00 -2.96531E-02
    9087.484     87.980   5.080  9.77347E-01  1.00669E+00 -2.93445E-02
    9089.039     89.535   5.120  9.80239E-01  1.00723E+00 -2.69899E-02
    9090.605     91.101   5.160  9.83696E-01  1.00771E+00 -2.40091E-02
    9092.184     92.680   5.200  9.86539E-01  1.00816E+00 -2.16252E-02
    9093.775     94.271   5.240  9.87838E-01  1.00858E+00 -2.07458E-02
    9095.378     95.874   5.280  9.86964E-01  1.00896E+00 -2.19958E-02
    9096.994     97.490   5.320  9.83642E-01  1.00927E+00 -2.56287E-02
    9098.622     99.117   5.360  9.78261E-01  1.00956E+00 -3.12977E-02
    9100.261    100.757   5.400  9.71654E-01  1.00978E+00 -3.81264E-02
    9101.913    102.409   5.440  9.64853E-01  1.00996E+00 -4.51054E-02
    9103.578    104.073   5.480  9.58597E-01  1.01009E+00 -5.14939E-02
    9105.254    105.750   5.520  9.53377E-01  1.01018E+00 -5.68015E-02
    9106.943    107.438   5.560  9.49600E-01  1.01020E+00 -6.05991E-02
    9108.643    109.139   5.600  9.47853E-01  1.01020E+00 -6.23437E-02
    9110.356    110.852   5.640  9.48667E-01  1.01013E+00 -6.14605E-02
    9112.081    112.577   5.680  9.52024E-01  1.00999E+00 -5.79646E-02
    9113.819    114.315   5.720  9.57847E-01  1.00983E+00 -5.19836E-02
    9115.568    116.064   5.760  9.65413E-01  1.00963E+00 -4.42178E-02
    9117.330    117.826   5.800  9.73727E-01  1.00936E+00 -3.56360E-02
    9119.104    119.600   5.840  9.81911E-01  1.00905E+00 -2.71431E-02
    9120.890    121.386   5.880  9.89455E-01  1.00871E+00 -1.92504E-02
    9122.688    123.184   5.920  9.96472E-01  1.00832E+00 -1.18480E-02
    9124.499    124.995   5.960  1.00340E+00  1.00790E+00 -4.49943E-03
    9126.322    126.817   6.000  1.01126E+00  1.00741E+00  3.85061E-03
