# # comment:                                                     FEFF 9.9.1  
# # Source:
# # Structure
# # Reduced
# # space
# # abc:
# # angles:
# # sites:
# # POT  SCF 100  7.0000   0, screened core-hole, AFOLP (folp(0)= 1.150)
# # Abs   Z=29 Rmt= 1.144 Rnm= 1.286 K  shell
# # Pot 1 Z= 3 Rmt= 1.243 Rnm= 1.307
# # Pot 2 Z=29 Rmt= 1.140 Rnm= 1.282
# # Pot 3 Z= 1 Rmt= 0.868 Rnm= 0.935
# # Pot 4 Z= 8 Rmt= 1.013 Rnm= 1.111
# # Gam_ch=1.729E+00 H-L exch Vi= 0.000E+00 Vr= 0.000E+00
# # Mu=-8.670E+00eV kf=1.959E+00 Vint=-1.619E+01eV Rs_int= 1.851
# FMS rfms= 9.0000
# # PATH  Rmax=-1.000,  Keep_limit= 0.00, Heap_limit 0.00  Pwcrit= 2.50%
#  S02=0.950  Temp=   0.00  Debye_temp=   0.00  Global_sig2= 0.00000
#  Energy zero shift, vr, vi    0.00000E+00   0.00000E+00
#  Curved wave amplitude ratio filter   4.000%
#     file         sig2 tot  cw amp ratio   deg  nlegs   reff  inp sig2
#     0/   0 paths used
#  xsedge+ 50, used to normalize mu           2.4307E-04
#  -----------------------------------------------------------------------
#  omega    e    k    mu    mu0     chi     @#
    8984.552    -12.480  -1.000  5.17964E-02  5.79893E-02 -6.19292E-03
    8984.851    -12.181  -0.960  5.56523E-02  6.22237E-02 -6.57136E-03
    8985.137    -11.895  -0.920  5.99768E-02  6.69258E-02 -6.94895E-03
    8985.412    -11.620  -0.880  6.48476E-02  7.21637E-02 -7.31608E-03
    8985.674    -11.358  -0.840  7.03569E-02  7.80167E-02 -7.65978E-03
    8985.924    -11.108  -0.800  7.66133E-02  8.45763E-02 -7.96304E-03
    8986.162    -10.870  -0.760  8.37437E-02  9.19477E-02 -8.20393E-03
    8986.387    -10.645  -0.720  9.18943E-02  1.00249E-01 -8.35495E-03
    8986.600    -10.431  -0.680  1.01229E-01  1.09611E-01 -8.38259E-03
    8986.802    -10.230  -0.640  1.11923E-01  1.20171E-01 -8.24749E-03
    8986.991    -10.041  -0.600  1.24157E-01  1.32063E-01 -7.90566E-03
    8987.167     -9.865  -0.560  1.38090E-01  1.45402E-01 -7.31140E-03
    8987.332     -9.700  -0.520  1.53833E-01  1.60255E-01 -6.42238E-03
    8987.484     -9.548  -0.480  1.71399E-01  1.76606E-01 -5.20752E-03
    8987.625     -9.407  -0.440  1.90655E-01  1.94312E-01 -3.65733E-03
    8987.753     -9.279  -0.400  2.11271E-01  2.13067E-01 -1.79565E-03
    8987.868     -9.164  -0.360  2.32702E-01  2.32391E-01  3.10731E-04
    8987.972     -9.060  -0.320  2.54210E-01  2.51660E-01  2.54965E-03
    8988.063     -8.968  -0.280  2.74955E-01  2.70181E-01  4.77435E-03
    8988.143     -8.889  -0.240  2.94114E-01  2.87284E-01  6.82918E-03
    8988.210     -8.822  -0.200  3.10994E-01  3.02410E-01  8.58441E-03
    8988.265     -8.767  -0.160  3.25110E-01  3.15142E-01  9.96743E-03
    8988.307     -8.725  -0.120  3.36188E-01  3.25214E-01  1.09733E-02
    8988.338     -8.694  -0.080  3.44117E-01  3.32476E-01  1.16414E-02
    8988.362     -8.670   0.000  3.50440E-01  3.38313E-01  1.21269E-02
    8988.417     -8.615   0.120  3.63587E-01  3.51482E-01  1.21052E-02
    8988.460     -8.572   0.160  3.73804E-01  3.61724E-01  1.20800E-02
    8988.515     -8.517   0.200  3.86527E-01  3.74836E-01  1.16912E-02
    8988.582     -8.450   0.240  4.01170E-01  3.90614E-01  1.05560E-02
    8988.661     -8.371   0.280  4.16862E-01  4.08788E-01  8.07397E-03
    8988.752     -8.280   0.320  4.32403E-01  4.28927E-01  3.47587E-03
    8988.856     -8.176   0.360  4.46366E-01  4.50446E-01 -4.08018E-03
    8988.972     -8.060   0.400  4.57505E-01  4.72789E-01 -1.52841E-02
    8989.100     -7.932   0.440  4.64985E-01  4.95405E-01 -3.04198E-02
    8989.240     -7.792   0.480  4.68583E-01  5.17862E-01 -4.92786E-02
    8989.392     -7.640   0.520  4.68633E-01  5.39876E-01 -7.12428E-02
    8989.557     -7.475   0.560  4.65873E-01  5.61322E-01 -9.54500E-02
    8989.734     -7.298   0.600  4.61348E-01  5.82165E-01 -1.20816E-01
    8989.923     -7.109   0.640  4.56510E-01  6.02435E-01 -1.45925E-01
    8990.124     -6.908   0.680  4.53021E-01  6.22179E-01 -1.69158E-01
    8990.337     -6.695   0.720  4.52232E-01  6.41499E-01 -1.89267E-01
    8990.563     -6.469   0.760  4.54339E-01  6.60452E-01 -2.06113E-01
    8990.801     -6.231   0.800  4.58778E-01  6.79085E-01 -2.20308E-01
    8991.051     -5.981   0.840  4.66040E-01  6.97473E-01 -2.31432E-01
    8991.313     -5.719   0.880  4.78393E-01  7.15610E-01 -2.37217E-01
    8991.587     -5.445   0.920  4.97740E-01  7.33544E-01 -2.35804E-01
    8991.873     -5.158   0.960  5.22883E-01  7.51245E-01 -2.28362E-01
    8992.172     -4.860   1.000  5.50323E-01  7.68713E-01 -2.18390E-01
    8992.483     -4.549   1.040  5.76266E-01  7.85941E-01 -2.09675E-01
    8992.806     -4.226   1.080  5.96705E-01  8.02871E-01 -2.06166E-01
    8993.141     -3.890   1.120  6.07626E-01  8.19461E-01 -2.11835E-01
    8993.489     -3.543   1.160  6.10540E-01  8.35707E-01 -2.25167E-01
    8993.849     -3.183   1.200  6.15576E-01  8.51558E-01 -2.35982E-01
    8994.220     -2.812   1.240  6.31823E-01  8.66962E-01 -2.35139E-01
    8994.604     -2.427   1.280  6.57070E-01  8.81887E-01 -2.24816E-01
    8995.001     -2.031   1.320  6.81463E-01  8.96278E-01 -2.14815E-01
    8995.409     -1.623   1.360  6.99395E-01  9.10124E-01 -2.10729E-01
    8995.830     -1.202   1.400  7.12331E-01  9.23371E-01 -2.11040E-01
    8996.263     -0.769   1.440  7.23694E-01  9.35989E-01 -2.12295E-01
    8996.708     -0.324   1.480  7.34462E-01  9.47968E-01 -2.13506E-01
    8997.165      0.133   1.520  7.42313E-01  9.59259E-01 -2.16946E-01
    8997.634      0.602   1.560  7.45079E-01  9.69901E-01 -2.24822E-01
    8998.116      1.084   1.600  7.46375E-01  9.79827E-01 -2.33452E-01
    8998.610      1.578   1.640  7.57665E-01  9.89056E-01 -2.31391E-01
    8999.116      2.084   1.680  7.90566E-01  9.97570E-01 -2.07004E-01
    8999.634      2.602   1.720  8.47546E-01  1.00539E+00 -1.57845E-01
    9000.164      3.132   1.760  9.24325E-01  1.01253E+00 -8.82011E-02
    9000.707      3.675   1.800  1.00779E+00  1.01898E+00 -1.11919E-02
    9001.261      4.229   1.840  1.08365E+00  1.02477E+00  5.88864E-02
    9001.828      4.796   1.880  1.15095E+00  1.02989E+00  1.21060E-01
    9002.407      5.375   1.920  1.20740E+00  1.03440E+00  1.73004E-01
    9002.999      5.967   1.960  1.24937E+00  1.03832E+00  2.11054E-01
    9003.602      6.570   2.000  1.27767E+00  1.04166E+00  2.36011E-01
    9004.218      7.186   2.040  1.29510E+00  1.04445E+00  2.50653E-01
    9004.846      7.814   2.080  1.30056E+00  1.04670E+00  2.53858E-01
    9005.486      8.454   2.120  1.28834E+00  1.04848E+00  2.39851E-01
    9006.138      9.106   2.160  1.25625E+00  1.04981E+00  2.06442E-01
    9006.803      9.771   2.200  1.21335E+00  1.05070E+00  1.62648E-01
    9007.479     10.447   2.240  1.17327E+00  1.05119E+00  1.22080E-01
    9008.168     11.136   2.280  1.14476E+00  1.05133E+00  9.34256E-02
    9008.869     11.837   2.320  1.13157E+00  1.05111E+00  8.04638E-02
    9009.582     12.550   2.360  1.13445E+00  1.05059E+00  8.38600E-02
    9010.308     13.276   2.400  1.14709E+00  1.04981E+00  9.72802E-02
    9011.045     14.013   2.440  1.15450E+00  1.04875E+00  1.05750E-01
    9011.795     14.763   2.480  1.15449E+00  1.04747E+00  1.07018E-01
    9012.557     15.525   2.520  1.14872E+00  1.04602E+00  1.02704E-01
    9013.331     16.299   2.560  1.13985E+00  1.04439E+00  9.54550E-02
    9014.118     17.086   2.600  1.12998E+00  1.04258E+00  8.73951E-02
    9014.916     17.884   2.640  1.12018E+00  1.04067E+00  7.95154E-02
    9015.727     18.695   2.680  1.11014E+00  1.03866E+00  7.14821E-02
    9016.550     19.518   2.720  1.09886E+00  1.03657E+00  6.22921E-02
    9017.385     20.353   2.760  1.08577E+00  1.03440E+00  5.13729E-02
    9018.232     21.201   2.800  1.07069E+00  1.03216E+00  3.85259E-02
    9019.092     22.060   2.840  1.05451E+00  1.02993E+00  2.45803E-02
    9019.964     22.932   2.880  1.03880E+00  1.02764E+00  1.11602E-02
    9020.848     23.816   2.920  1.02486E+00  1.02537E+00 -5.12414E-04
    9021.744     24.712   2.960  1.01351E+00  1.02311E+00 -9.60061E-03
    9022.652     25.620   3.000  1.00513E+00  1.02088E+00 -1.57526E-02
    9023.573     26.541   3.040  9.99536E-01  1.01869E+00 -1.91520E-02
    9024.505     27.473   3.080  9.96256E-01  1.01654E+00 -2.02801E-02
    9025.450     28.418   3.120  9.94855E-01  1.01443E+00 -1.95748E-02
    9026.407     29.375   3.160  9.94789E-01  1.01240E+00 -1.76061E-02
    9027.376     30.344   3.200  9.95338E-01  1.01041E+00 -1.50760E-02
    9028.358     31.326   3.240  9.95781E-01  1.00853E+00 -1.27524E-02
    9029.352     32.320   3.280  9.95242E-01  1.00671E+00 -1.14700E-02
    9030.357     33.325   3.320  9.92928E-01  1.00499E+00 -1.20659E-02
    9031.375     34.343   3.360  9.88186E-01  1.00334E+00 -1.51575E-02
    9032.406     35.374   3.400  9.80948E-01  1.00182E+00 -2.08757E-02
    9033.448     36.416   3.440  9.71535E-01  1.00039E+00 -2.88590E-02
    9034.503     37.471   3.480  9.60643E-01  9.99056E-01 -3.84132E-02
    9035.569     38.537   3.520  9.49187E-01  9.97831E-01 -4.86435E-02
    9036.648     39.616   3.560  9.38194E-01  9.96699E-01 -5.85055E-02
    9037.740     40.708   3.600  9.28415E-01  9.95704E-01 -6.72890E-02
    9038.843     41.811   3.640  9.20208E-01  9.94782E-01 -7.45746E-02
    9039.959     42.927   3.680  9.13796E-01  9.93997E-01 -8.02014E-02
    9041.086     44.054   3.720  9.09126E-01  9.93308E-01 -8.41822E-02
    9042.226     45.194   3.760  9.06118E-01  9.92735E-01 -8.66166E-02
    9043.378     46.346   3.800  9.04837E-01  9.92277E-01 -8.74405E-02
    9044.543     47.511   3.840  9.05494E-01  9.91913E-01 -8.64186E-02
    9045.719     48.687   3.880  9.08420E-01  9.91662E-01 -8.32420E-02
    9046.908     49.876   3.920  9.13968E-01  9.91503E-01 -7.75356E-02
    9048.109     51.077   3.960  9.22441E-01  9.91456E-01 -6.90152E-02
    9049.322     52.290   4.000  9.33726E-01  9.91499E-01 -5.77726E-02
    9050.547     53.515   4.040  9.47125E-01  9.91651E-01 -4.45269E-02
    9051.785     54.753   4.080  9.61420E-01  9.91891E-01 -3.04710E-02
    9053.034     56.002   4.120  9.75269E-01  9.92215E-01 -1.69462E-02
    9054.296     57.264   4.160  9.87651E-01  9.92621E-01 -4.96993E-03
    9055.570     58.538   4.200  9.98160E-01  9.93108E-01  5.05178E-03
    9056.857     59.825   4.240  1.00693E+00  9.93674E-01  1.32570E-02
    9058.155     61.123   4.280  1.01435E+00  9.94317E-01  2.00337E-02
    9059.466     62.434   4.320  1.02084E+00  9.95013E-01  2.58312E-02
    9060.788     63.757   4.360  1.02670E+00  9.95783E-01  3.09179E-02
    9062.123     65.092   4.400  1.03187E+00  9.96623E-01  3.52460E-02
    9063.471     66.439   4.440  1.03600E+00  9.97487E-01  3.85099E-02
    9064.830     67.798   4.480  1.03874E+00  9.98417E-01  4.03242E-02
    9066.202     69.170   4.520  1.03981E+00  9.99389E-01  4.04250E-02
    9067.585     70.554   4.560  1.03924E+00  1.00040E+00  3.88362E-02
    9068.981     71.950   4.600  1.03750E+00  1.00145E+00  3.60502E-02
    9070.390     73.358   4.640  1.03531E+00  1.00251E+00  3.28007E-02
    9071.810     74.778   4.680  1.03341E+00  1.00360E+00  2.98141E-02
    9073.243     76.211   4.720  1.03221E+00  1.00469E+00  2.75195E-02
    9074.687     77.655   4.760  1.03176E+00  1.00581E+00  2.59419E-02
    9076.144     79.112   4.800  1.03178E+00  1.00691E+00  2.48694E-02
    9077.613     80.581   4.840  1.03219E+00  1.00804E+00  2.41588E-02
    9079.095     82.063   4.880  1.03298E+00  1.00913E+00  2.38505E-02
    9080.588     83.556   4.920  1.03432E+00  1.01022E+00  2.41080E-02
    9082.094     85.062   4.960  1.03634E+00  1.01127E+00  2.50711E-02
    9083.612     86.580   5.000  1.03906E+00  1.01231E+00  2.67478E-02
    9085.142     88.110   5.040  1.04231E+00  1.01332E+00  2.89844E-02
    9086.684     89.652   5.080  1.04578E+00  1.01432E+00  3.14629E-02
    9088.239     91.207   5.120  1.04897E+00  1.01525E+00  3.37191E-02
    9089.805     92.773   5.160  1.05140E+00  1.01616E+00  3.52459E-02
    9091.384     94.352   5.200  1.05261E+00  1.01700E+00  3.56053E-02
    9092.975     95.943   5.240  1.05233E+00  1.01780E+00  3.45302E-02
    9094.578     97.547   5.280  1.05051E+00  1.01855E+00  3.19646E-02
    9096.194     99.162   5.320  1.04726E+00  1.01923E+00  2.80297E-02
    9097.822    100.790   5.360  1.04282E+00  1.01985E+00  2.29672E-02
    9099.461    102.429   5.400  1.03746E+00  1.02040E+00  1.70569E-02
    9101.113    104.081   5.440  1.03148E+00  1.02088E+00  1.06049E-02
    9102.778    105.746   5.480  1.02525E+00  1.02130E+00  3.95588E-03
    9104.454    107.422   5.520  1.01918E+00  1.02164E+00 -2.46065E-03
    9106.143    109.111   5.560  1.01373E+00  1.02191E+00 -8.17661E-03
    9107.843    110.811   5.600  1.00938E+00  1.02212E+00 -1.27349E-02
    9109.556    112.524   5.640  1.00647E+00  1.02225E+00 -1.57765E-02
    9111.281    114.249   5.680  1.00512E+00  1.02231E+00 -1.71879E-02
    9113.019    115.987   5.720  1.00508E+00  1.02228E+00 -1.71956E-02
    9114.768    117.736   5.760  1.00587E+00  1.02218E+00 -1.63064E-02
    9116.530    119.498   5.800  1.00690E+00  1.02202E+00 -1.51201E-02
    9118.304    121.272   5.840  1.00758E+00  1.02176E+00 -1.41786E-02
    9120.090    123.058   5.880  1.00760E+00  1.02145E+00 -1.38551E-02
    9121.888    124.856   5.920  1.00677E+00  1.02107E+00 -1.42957E-02
    9123.699    126.667   5.960  1.00520E+00  1.02063E+00 -1.54267E-02
    9125.522    128.490   6.000  1.00298E+00  1.02006E+00 -1.70745E-02
