# # comment:                                                     FEFF 9.9.1  
# # Source:
# # Structure
# # Reduced
# # space
# # abc:
# # angles:
# # sites:
# # POT  SCF 100  7.0000   0, screened core-hole, AFOLP (folp(0)= 1.150)
# # Abs   Z=29 Rmt= 1.274 Rnm= 1.344 K  shell
# # Pot 1 Z=73 Rmt= 1.319 Rnm= 1.467
# # Pot 2 Z=29 Rmt= 1.275 Rnm= 1.345
# # Pot 3 Z= 8 Rmt= 1.012 Rnm= 1.089
# # Gam_ch=1.729E+00 H-L exch Vi= 0.000E+00 Vr= 0.000E+00
# # Mu=-6.239E+00eV kf=2.244E+00 Vint=-1.643E+01eV Rs_int= 1.616
# FMS rfms= 9.0000
# # PATH  Rmax=-1.000,  Keep_limit= 0.00, Heap_limit 0.00  Pwcrit= 2.50%
#  S02=0.950  Temp=   0.00  Debye_temp=   0.00  Global_sig2= 0.00000
#  Energy zero shift, vr, vi    0.00000E+00   0.00000E+00
#  Curved wave amplitude ratio filter   4.000%
#     file         sig2 tot  cw amp ratio   deg  nlegs   reff  inp sig2
#     0/   0 paths used
#  xsedge+ 50, used to normalize mu           2.4638E-04
#  -----------------------------------------------------------------------
#  omega    e    k    mu    mu0     chi     @#
    8983.608    -10.049  -1.000  4.83561E-02  5.62461E-02 -7.89002E-03
    8983.907     -9.750  -0.960  5.13442E-02  6.04211E-02 -9.07683E-03
    8984.193     -9.464  -0.920  5.45908E-02  6.50690E-02 -1.04782E-02
    8984.468     -9.189  -0.880  5.81235E-02  7.02601E-02 -1.21366E-02
    8984.730     -8.927  -0.840  6.19731E-02  7.60768E-02 -1.41037E-02
    8984.980     -8.677  -0.800  6.61735E-02  8.26141E-02 -1.64406E-02
    8985.217     -8.440  -0.760  7.07614E-02  8.99815E-02 -1.92201E-02
    8985.443     -8.214  -0.720  7.57760E-02  9.83028E-02 -2.25268E-02
    8985.656     -8.001  -0.680  8.12575E-02  1.07714E-01 -2.64569E-02
    8985.857     -7.799  -0.640  8.72455E-02  1.18361E-01 -3.11151E-02
    8986.046     -7.610  -0.600  9.37751E-02  1.30383E-01 -3.66081E-02
    8986.223     -7.434  -0.560  1.00872E-01  1.43904E-01 -4.30322E-02
    8986.388     -7.269  -0.520  1.08542E-01  1.58995E-01 -5.04528E-02
    8986.540     -7.117  -0.480  1.16767E-01  1.75643E-01 -5.88760E-02
    8986.680     -6.976  -0.440  1.25483E-01  1.93700E-01 -6.82161E-02
    8986.808     -6.848  -0.400  1.34581E-01  2.12849E-01 -7.82683E-02
    8986.924     -6.733  -0.360  1.43890E-01  2.32593E-01 -8.87031E-02
    8987.028     -6.629  -0.320  1.53189E-01  2.52284E-01 -9.90951E-02
    8987.119     -6.538  -0.280  1.62216E-01  2.71203E-01 -1.08987E-01
    8987.199     -6.458  -0.240  1.70695E-01  2.88660E-01 -1.17965E-01
    8987.266     -6.391  -0.200  1.78357E-01  3.04079E-01 -1.25722E-01
    8987.320     -6.336  -0.160  1.84964E-01  3.17042E-01 -1.32078E-01
    8987.363     -6.294  -0.120  1.90320E-01  3.27283E-01 -1.36963E-01
    8987.394     -6.263  -0.080  1.94275E-01  3.34656E-01 -1.40381E-01
    8987.418     -6.239   0.000  1.97567E-01  3.40575E-01 -1.43008E-01
    8987.473     -6.184   0.120  2.04892E-01  3.53923E-01 -1.49030E-01
    8987.516     -6.141   0.160  2.10670E-01  3.64275E-01 -1.53605E-01
    8987.570     -6.086   0.200  2.18261E-01  3.77500E-01 -1.59239E-01
    8987.637     -6.019   0.240  2.27750E-01  3.93365E-01 -1.65615E-01
    8987.717     -5.940   0.280  2.39227E-01  4.11554E-01 -1.72327E-01
    8987.808     -5.849   0.320  2.52716E-01  4.31560E-01 -1.78844E-01
    8987.912     -5.745   0.360  2.68176E-01  4.52779E-01 -1.84603E-01
    8988.028     -5.629   0.400  2.85493E-01  4.74571E-01 -1.89078E-01
    8988.156     -5.501   0.440  3.04461E-01  4.96315E-01 -1.91854E-01
    8988.296     -5.361   0.480  3.24998E-01  5.17600E-01 -1.92602E-01
    8988.448     -5.209   0.520  3.47108E-01  5.38099E-01 -1.90991E-01
    8988.613     -5.044   0.560  3.71045E-01  5.57679E-01 -1.86634E-01
    8988.790     -4.867   0.600  3.97440E-01  5.76308E-01 -1.78869E-01
    8988.979     -4.678   0.640  4.27572E-01  5.94032E-01 -1.66461E-01
    8989.180     -4.477   0.680  4.63861E-01  6.10977E-01 -1.47116E-01
    8989.393     -4.264   0.720  5.09787E-01  6.27204E-01 -1.17417E-01
    8989.619     -4.038   0.760  5.69298E-01  6.42855E-01 -7.35576E-02
    8989.856     -3.800   0.800  6.44324E-01  6.58001E-01 -1.36776E-02
    8990.106     -3.551   0.840  7.28331E-01  6.72740E-01  5.55912E-02
    8990.368     -3.288   0.880  7.97706E-01  6.87134E-01  1.10572E-01
    8990.643     -3.014   0.920  8.21333E-01  7.01211E-01  1.20123E-01
    8990.929     -2.728   0.960  7.92918E-01  7.15045E-01  7.78732E-02
    8991.228     -2.429   1.000  7.37506E-01  7.28640E-01  8.86582E-03
    8991.539     -2.118   1.040  6.83375E-01  7.42010E-01 -5.86351E-02
    8991.862     -1.795   1.080  6.43538E-01  7.55158E-01 -1.11620E-01
    8992.197     -1.460   1.120  6.18376E-01  7.68106E-01 -1.49730E-01
    8992.545     -1.112   1.160  6.05526E-01  7.80823E-01 -1.75297E-01
    8992.904     -0.752   1.200  6.04668E-01  7.93298E-01 -1.88630E-01
    8993.276     -0.381   1.240  6.18130E-01  8.05536E-01 -1.87406E-01
    8993.660      0.003   1.280  6.52238E-01  8.17519E-01 -1.65281E-01
    8994.056      0.400   1.320  7.10066E-01  8.29206E-01 -1.19141E-01
    8994.465      0.808   1.360  7.84602E-01  8.40616E-01 -5.60134E-02
    8994.886      1.229   1.400  8.71881E-01  8.51704E-01  2.01775E-02
    8995.318      1.662   1.440  9.75869E-01  8.62448E-01  1.13421E-01
    8995.763      2.107   1.480  1.08432E+00  8.72865E-01  2.11460E-01
    8996.221      2.564   1.520  1.15577E+00  8.82929E-01  2.72845E-01
    8996.690      3.033   1.560  1.15381E+00  8.92597E-01  2.61214E-01
    8997.172      3.515   1.600  1.09942E+00  9.01886E-01  1.97534E-01
    8997.665      4.008   1.640  1.03872E+00  9.10772E-01  1.27944E-01
    8998.171      4.514   1.680  9.94744E-01  9.19252E-01  7.54927E-02
    8998.689      5.033   1.720  9.75727E-01  9.27306E-01  4.84214E-02
    8999.220      5.563   1.760  9.87401E-01  9.34954E-01  5.24470E-02
    8999.762      6.105   1.800  1.03204E+00  9.42175E-01  8.98607E-02
    9000.317      6.660   1.840  1.09563E+00  9.48969E-01  1.46657E-01
    9000.884      7.227   1.880  1.15256E+00  9.55360E-01  1.97199E-01
    9001.463      7.806   1.920  1.18302E+00  9.61311E-01  2.21710E-01
    9002.054      8.398   1.960  1.19174E+00  9.66864E-01  2.24873E-01
    9002.658      9.001   2.000  1.19949E+00  9.72022E-01  2.27472E-01
    9003.274      9.617   2.040  1.21025E+00  9.76752E-01  2.33498E-01
    9003.901     10.245   2.080  1.20716E+00  9.81118E-01  2.26046E-01
    9004.542     10.885   2.120  1.17721E+00  9.85107E-01  1.92100E-01
    9005.194     11.537   2.160  1.13044E+00  9.88725E-01  1.41712E-01
    9005.858     12.201   2.200  1.09099E+00  9.91977E-01  9.90092E-02
    9006.535     12.878   2.240  1.07888E+00  9.94894E-01  8.39837E-02
    9007.224     13.567   2.280  1.10259E+00  9.97502E-01  1.05085E-01
    9007.925     14.268   2.320  1.15278E+00  9.99790E-01  1.52990E-01
    9008.638     14.981   2.360  1.20001E+00  1.00178E+00  1.98229E-01
    9009.363     15.707   2.400  1.21466E+00  1.00349E+00  2.11165E-01
    9010.101     16.444   2.440  1.18840E+00  1.00494E+00  1.83452E-01
    9010.851     17.194   2.480  1.13255E+00  1.00617E+00  1.26376E-01
    9011.613     17.956   2.520  1.06958E+00  1.00714E+00  6.24435E-02
    9012.387     18.730   2.560  1.01693E+00  1.00791E+00  9.02300E-03
    9013.173     19.517   2.600  9.77920E-01  1.00846E+00 -3.05393E-02
    9013.972     20.315   2.640  9.51709E-01  1.00886E+00 -5.71467E-02
    9014.783     21.126   2.680  9.41984E-01  1.00906E+00 -6.70799E-02
    9015.606     21.949   2.720  9.42505E-01  1.00913E+00 -6.66254E-02
    9016.441     22.784   2.760  9.45889E-01  1.00904E+00 -6.31552E-02
    9017.288     23.631   2.800  9.46080E-01  1.00883E+00 -6.27532E-02
    9018.148     24.491   2.840  9.40299E-01  1.00852E+00 -6.82236E-02
    9019.019     25.363   2.880  9.29939E-01  1.00810E+00 -7.81608E-02
    9019.903     26.247   2.920  9.17534E-01  1.00759E+00 -9.00561E-02
    9020.800     27.143   2.960  9.04584E-01  1.00700E+00 -1.02417E-01
    9021.708     28.051   3.000  8.91545E-01  1.00636E+00 -1.14813E-01
    9022.628     28.971   3.040  8.79073E-01  1.00567E+00 -1.26593E-01
    9023.561     29.904   3.080  8.68375E-01  1.00491E+00 -1.36537E-01
    9024.506     30.849   3.120  8.60472E-01  1.00414E+00 -1.43665E-01
    9025.463     31.806   3.160  8.55494E-01  1.00333E+00 -1.47835E-01
    9026.432     32.775   3.200  8.53521E-01  1.00251E+00 -1.48992E-01
    9027.414     33.757   3.240  8.54988E-01  1.00169E+00 -1.46703E-01
    9028.407     34.750   3.280  8.60157E-01  1.00087E+00 -1.40710E-01
    9029.413     35.756   3.320  8.69123E-01  1.00004E+00 -1.30921E-01
    9030.431     36.774   3.360  8.81703E-01  9.99225E-01 -1.17522E-01
    9031.461     37.805   3.400  8.97504E-01  9.98434E-01 -1.00930E-01
    9032.504     38.847   3.440  9.15888E-01  9.97652E-01 -8.17635E-02
    9033.558     39.902   3.480  9.36412E-01  9.96902E-01 -6.04904E-02
    9034.625     40.968   3.520  9.58572E-01  9.96188E-01 -3.76162E-02
    9035.704     42.047   3.560  9.81391E-01  9.95510E-01 -1.41192E-02
    9036.795     43.139   3.600  1.00336E+00  9.94850E-01  8.51364E-03
    9037.899     44.242   3.640  1.02251E+00  9.94250E-01  2.82556E-02
    9039.014     45.357   3.680  1.03657E+00  9.93691E-01  4.28783E-02
    9040.142     46.485   3.720  1.04413E+00  9.93173E-01  5.09558E-02
    9041.282     47.625   3.760  1.04522E+00  9.92698E-01  5.25203E-02
    9042.434     48.777   3.800  1.04120E+00  9.92266E-01  4.89358E-02
    9043.598     49.942   3.840  1.03422E+00  9.91899E-01  4.23227E-02
    9044.775     51.118   3.880  1.02647E+00  9.91577E-01  3.48939E-02
    9045.964     52.307   3.920  1.01996E+00  9.91298E-01  2.86639E-02
    9047.165     53.508   3.960  1.01644E+00  9.91064E-01  2.53741E-02
    9048.378     54.721   4.000  1.01727E+00  9.90896E-01  2.63782E-02
    9049.603     55.946   4.040  1.02320E+00  9.90771E-01  3.24325E-02
    9050.840     57.184   4.080  1.03401E+00  9.90690E-01  4.33241E-02
    9052.090     58.433   4.120  1.04846E+00  9.90652E-01  5.78107E-02
    9053.352     59.695   4.160  1.06448E+00  9.90676E-01  7.38062E-02
    9054.626     60.969   4.200  1.07955E+00  9.90722E-01  8.88322E-02
    9055.912     62.256   4.240  1.09132E+00  9.90829E-01  1.00494E-01
    9057.211     63.554   4.280  1.09788E+00  9.90955E-01  1.06929E-01
    9058.521     64.865   4.320  1.09832E+00  9.91143E-01  1.07181E-01
    9059.844     66.187   4.360  1.09261E+00  9.91367E-01  1.01246E-01
    9061.179     67.522   4.400  1.08158E+00  9.91607E-01  8.99744E-02
    9062.526     68.870   4.440  1.06681E+00  9.91882E-01  7.49227E-02
    9063.886     70.229   4.480  1.05019E+00  9.92194E-01  5.79939E-02
    9065.257     71.601   4.520  1.03377E+00  9.92538E-01  4.12344E-02
    9066.641     72.984   4.560  1.01940E+00  9.92894E-01  2.65031E-02
    9068.037     74.380   4.600  1.00823E+00  9.93280E-01  1.49549E-02
    9069.445     75.789   4.640  1.00044E+00  9.93674E-01  6.77046E-03
    9070.866     77.209   4.680  9.95358E-01  9.94096E-01  1.26206E-03
    9072.298     78.641   4.720  9.91811E-01  9.94523E-01 -2.71230E-03
    9073.743     80.086   4.760  9.88676E-01  9.94955E-01 -6.27873E-03
    9075.200     81.543   4.800  9.85096E-01  9.95410E-01 -1.03138E-02
    9076.669     83.012   4.840  9.80495E-01  9.95842E-01 -1.53464E-02
    9078.150     84.494   4.880  9.74810E-01  9.96274E-01 -2.14643E-02
    9079.644     85.987   4.920  9.68282E-01  9.96726E-01 -2.84440E-02
    9081.150     87.493   4.960  9.61180E-01  9.97153E-01 -3.59724E-02
    9082.668     89.011   5.000  9.53862E-01  9.97575E-01 -4.37130E-02
    9084.198     90.541   5.040  9.46571E-01  9.97991E-01 -5.14198E-02
    9085.740     92.083   5.080  9.39469E-01  9.98379E-01 -5.89098E-02
    9087.294     93.638   5.120  9.32739E-01  9.98759E-01 -6.60196E-02
    9088.861     95.204   5.160  9.26679E-01  9.99130E-01 -7.24509E-02
    9090.440     96.783   5.200  9.21853E-01  9.99466E-01 -7.76134E-02
    9092.031     98.374   5.240  9.19022E-01  9.99769E-01 -8.07473E-02
    9093.634     99.977   5.280  9.18947E-01  1.00006E+00 -8.11136E-02
    9095.250    101.593   5.320  9.22039E-01  1.00032E+00 -7.82768E-02
    9096.877    103.220   5.360  9.28297E-01  1.00054E+00 -7.22387E-02
    9098.517    104.860   5.400  9.37395E-01  1.00074E+00 -6.33474E-02
    9100.169    106.512   5.440  9.48850E-01  1.00091E+00 -5.20618E-02
    9101.833    108.176   5.480  9.62338E-01  1.00104E+00 -3.87043E-02
    9103.510    109.853   5.520  9.77682E-01  1.00113E+00 -2.34510E-02
    9105.198    111.541   5.560  9.94561E-01  1.00119E+00 -6.62451E-03
    9106.899    113.242   5.600  1.01226E+00  1.00120E+00  1.10640E-02
    9108.612    114.955   5.640  1.02967E+00  1.00120E+00  2.84769E-02
    9110.337    116.680   5.680  1.04536E+00  1.00114E+00  4.42242E-02
    9112.075    118.418   5.720  1.05791E+00  1.00106E+00  5.68549E-02
    9113.824    120.167   5.760  1.06593E+00  1.00094E+00  6.49909E-02
    9115.586    121.929   5.800  1.06825E+00  1.00076E+00  6.74961E-02
    9117.360    123.703   5.840  1.06433E+00  1.00056E+00  6.37718E-02
    9119.146    125.489   5.880  1.05453E+00  1.00033E+00  5.41991E-02
    9120.944    127.287   5.920  1.04050E+00  1.00007E+00  4.04386E-02
    9122.755    129.098   5.960  1.02496E+00  9.99763E-01  2.51957E-02
    9124.577    130.921   6.000  1.01051E+00  9.99398E-01  1.11092E-02
