# # comment:                                                     FEFF 9.9.1  
# # Source:
# # Structure
# # Reduced
# # space
# # abc:
# # angles:105.759116
# # sites:
# # POT  SCF 100  7.0000   0, screened core-hole, AFOLP (folp(0)= 1.150)
# # Abs   Z=29 Rmt= 1.268 Rnm= 1.342 K  shell
# # Pot 1 Z=48 Rmt= 1.549 Rnm= 1.614
# # Pot 2 Z=29 Rmt= 1.268 Rnm= 1.342
# # Pot 3 Z=15 Rmt= 0.942 Rnm= 1.158
# # Pot 4 Z= 8 Rmt= 0.924 Rnm= 1.045
# # Gam_ch=1.729E+00 H-L exch Vi= 0.000E+00 Vr= 0.000E+00
# # Mu=-5.937E+00eV kf=2.421E+00 Vint=-1.687E+01eV Rs_int= 1.498
# FMS rfms= 9.0000
# # PATH  Rmax=-1.000,  Keep_limit= 0.00, Heap_limit 0.00  Pwcrit= 2.50%
#  S02=0.950  Temp=   0.00  Debye_temp=   0.00  Global_sig2= 0.00000
#  Energy zero shift, vr, vi    0.00000E+00   0.00000E+00
#  Curved wave amplitude ratio filter   4.000%
#     file         sig2 tot  cw amp ratio   deg  nlegs   reff  inp sig2
#     0/   0 paths used
#  xsedge+ 50, used to normalize mu           2.4829E-04
#  -----------------------------------------------------------------------
#  omega    e    k    mu    mu0     chi     @#
    8983.284     -9.747  -1.000  4.19112E-02  5.34479E-02 -1.15368E-02
    8983.583     -9.448  -0.960  4.44833E-02  5.73610E-02 -1.28777E-02
    8983.869     -9.161  -0.920  4.73134E-02  6.17145E-02 -1.44010E-02
    8984.144     -8.887  -0.880  5.04389E-02  6.65738E-02 -1.61349E-02
    8984.406     -8.625  -0.840  5.39032E-02  7.20153E-02 -1.81121E-02
    8984.656     -8.375  -0.800  5.77566E-02  7.81276E-02 -2.03710E-02
    8984.894     -8.137  -0.760  6.20568E-02  8.50125E-02 -2.29557E-02
    8985.119     -7.912  -0.720  6.68688E-02  9.27851E-02 -2.59163E-02
    8985.332     -7.698  -0.680  7.22640E-02  1.01572E-01 -2.93084E-02
    8985.534     -7.497  -0.640  7.83177E-02  1.11509E-01 -3.31908E-02
    8985.723     -7.308  -0.600  8.51036E-02  1.22726E-01 -3.76219E-02
    8985.899     -7.131  -0.560  9.26854E-02  1.35336E-01 -4.26510E-02
    8986.064     -6.967  -0.520  1.01102E-01  1.49409E-01 -4.83063E-02
    8986.216     -6.814  -0.480  1.10351E-01  1.64929E-01 -5.45776E-02
    8986.357     -6.674  -0.440  1.20363E-01  1.81760E-01 -6.13966E-02
    8986.485     -6.546  -0.400  1.30986E-01  1.99607E-01 -6.86205E-02
    8986.600     -6.430  -0.360  1.41976E-01  2.18005E-01 -7.60297E-02
    8986.704     -6.327  -0.320  1.53006E-01  2.36352E-01 -8.33462E-02
    8986.795     -6.235  -0.280  1.63704E-01  2.53978E-01 -9.02740E-02
    8986.875     -6.156  -0.240  1.73693E-01  2.70240E-01 -9.65473E-02
    8986.942     -6.089  -0.200  1.82636E-01  2.84604E-01 -1.01968E-01
    8986.997     -6.034  -0.160  1.90257E-01  2.96679E-01 -1.06422E-01
    8987.039     -5.991  -0.120  1.96351E-01  3.06217E-01 -1.09866E-01
    8987.070     -5.961  -0.080  2.00781E-01  3.13086E-01 -1.12304E-01
    8987.094     -5.937   0.000  2.04372E-01  3.18601E-01 -1.14229E-01
    8987.149     -5.882   0.120  2.12772E-01  3.31026E-01 -1.18253E-01
    8987.192     -5.839   0.160  2.19334E-01  3.40686E-01 -1.21352E-01
    8987.247     -5.784   0.200  2.27797E-01  3.52988E-01 -1.25191E-01
    8987.314     -5.717   0.240  2.38118E-01  3.67752E-01 -1.29634E-01
    8987.393     -5.638   0.280  2.50199E-01  3.84683E-01 -1.34484E-01
    8987.484     -5.546   0.320  2.63731E-01  4.03305E-01 -1.39574E-01
    8987.588     -5.443   0.360  2.78240E-01  4.23056E-01 -1.44815E-01
    8987.704     -5.327   0.400  2.92996E-01  4.43337E-01 -1.50341E-01
    8987.832     -5.199   0.440  3.06985E-01  4.63587E-01 -1.56601E-01
    8987.972     -5.059   0.480  3.19082E-01  4.83385E-01 -1.64303E-01
    8988.124     -4.906   0.520  3.28301E-01  5.02466E-01 -1.74165E-01
    8988.289     -4.742   0.560  3.34143E-01  5.20708E-01 -1.86565E-01
    8988.466     -4.565   0.600  3.36715E-01  5.38061E-01 -2.01346E-01
    8988.655     -4.376   0.640  3.36824E-01  5.54610E-01 -2.17785E-01
    8988.856     -4.175   0.680  3.35600E-01  5.70435E-01 -2.34835E-01
    8989.069     -3.962   0.720  3.34211E-01  5.85634E-01 -2.51423E-01
    8989.295     -3.736   0.760  3.33498E-01  6.00323E-01 -2.66826E-01
    8989.533     -3.498   0.800  3.33726E-01  6.14592E-01 -2.80866E-01
    8989.782     -3.248   0.840  3.35009E-01  6.28532E-01 -2.93523E-01
    8990.045     -2.986   0.880  3.37863E-01  6.42204E-01 -3.04341E-01
    8990.319     -2.712   0.920  3.43197E-01  6.55676E-01 -3.12479E-01
    8990.605     -2.425   0.960  3.51604E-01  6.68962E-01 -3.17359E-01
    8990.904     -2.127   1.000  3.63519E-01  6.82105E-01 -3.18586E-01
    8991.215     -1.816   1.040  3.79653E-01  6.95099E-01 -3.15446E-01
    8991.538     -1.493   1.080  4.00597E-01  7.08010E-01 -3.07414E-01
    8991.873     -1.157   1.120  4.25479E-01  7.20796E-01 -2.95318E-01
    8992.221     -0.810   1.160  4.52401E-01  7.33454E-01 -2.81053E-01
    8992.581     -0.450   1.200  4.79939E-01  7.46011E-01 -2.66071E-01
    8992.952     -0.078   1.240  5.08254E-01  7.58410E-01 -2.50156E-01
    8993.336      0.306   1.280  5.40409E-01  7.70678E-01 -2.30269E-01
    8993.733      0.702   1.320  5.80396E-01  7.82793E-01 -2.02397E-01
    8994.141      1.110   1.360  6.29477E-01  7.94731E-01 -1.65254E-01
    8994.562      1.531   1.400  6.86124E-01  8.06450E-01 -1.20326E-01
    8994.995      1.964   1.440  7.48673E-01  8.17965E-01 -6.92914E-02
    8995.440      2.409   1.480  8.11191E-01  8.29250E-01 -1.80596E-02
    8995.897      2.866   1.520  8.65058E-01  8.40280E-01  2.47784E-02
    8996.366      3.335   1.560  9.09118E-01  8.51027E-01  5.80910E-02
    8996.848      3.817   1.600  9.44053E-01  8.61485E-01  8.25680E-02
    8997.341      4.311   1.640  9.68761E-01  8.71629E-01  9.71324E-02
    8997.847      4.817   1.680  9.90205E-01  8.81451E-01  1.08754E-01
    8998.366      5.335   1.720  1.02161E+00  8.90949E-01  1.30665E-01
    8998.896      5.865   1.760  1.07367E+00  9.00074E-01  1.73598E-01
    8999.438      6.408   1.800  1.14405E+00  9.08844E-01  2.35204E-01
    8999.993      6.962   1.840  1.21307E+00  9.17234E-01  2.95834E-01
    9000.560      7.529   1.880  1.26212E+00  9.25242E-01  3.36876E-01
    9001.139      8.109   1.920  1.29153E+00  9.32865E-01  3.58660E-01
    9001.731      8.700   1.960  1.30474E+00  9.40103E-01  3.64637E-01
    9002.334      9.303   2.000  1.30077E+00  9.46935E-01  3.53834E-01
    9002.950      9.919   2.040  1.28797E+00  9.53380E-01  3.34587E-01
    9003.578     10.547   2.080  1.27224E+00  9.59419E-01  3.12824E-01
    9004.218     11.187   2.120  1.25336E+00  9.65076E-01  2.88288E-01
    9004.870     11.839   2.160  1.23829E+00  9.70352E-01  2.67940E-01
    9005.534     12.504   2.200  1.23109E+00  9.75228E-01  2.55866E-01
    9006.211     13.180   2.240  1.22094E+00  9.79729E-01  2.41207E-01
    9006.900     13.869   2.280  1.19375E+00  9.83861E-01  2.09889E-01
    9007.601     14.570   2.320  1.15086E+00  9.87626E-01  1.63230E-01
    9008.314     15.283   2.360  1.10544E+00  9.91051E-01  1.14386E-01
    9009.040     16.009   2.400  1.06645E+00  9.94121E-01  7.23280E-02
    9009.777     16.747   2.440  1.03602E+00  9.96885E-01  3.91379E-02
    9010.527     17.496   2.480  1.01259E+00  9.99326E-01  1.32598E-02
    9011.289     18.258   2.520  9.94292E-01  1.00145E+00 -7.16009E-03
    9012.063     19.033   2.560  9.83784E-01  1.00331E+00 -1.95251E-02
    9012.850     19.819   2.600  9.88407E-01  1.00489E+00 -1.64801E-02
    9013.648     20.617   2.640  1.01222E+00  1.00619E+00  6.03041E-03
    9014.459     21.428   2.680  1.04679E+00  1.00725E+00  3.95440E-02
    9015.282     22.251   2.720  1.07472E+00  1.00808E+00  6.66335E-02
    9016.117     23.086   2.760  1.08104E+00  1.00871E+00  7.23310E-02
    9016.964     23.934   2.800  1.05905E+00  1.00911E+00  4.99416E-02
    9017.824     24.793   2.840  1.01945E+00  1.00934E+00  1.01076E-02
    9018.696     25.665   2.880  9.80376E-01  1.00940E+00 -2.90194E-02
    9019.580     26.549   2.920  9.44363E-01  1.00929E+00 -6.49256E-02
    9020.476     27.445   2.960  9.12466E-01  1.00903E+00 -9.65600E-02
    9021.384     28.353   3.000  8.85283E-01  1.00864E+00 -1.23353E-01
    9022.304     29.274   3.040  8.63449E-01  1.00812E+00 -1.44676E-01
    9023.237     30.206   3.080  8.47310E-01  1.00752E+00 -1.60208E-01
    9024.182     31.151   3.120  8.36853E-01  1.00680E+00 -1.69950E-01
    9025.139     32.108   3.160  8.32019E-01  1.00602E+00 -1.74005E-01
    9026.108     33.078   3.200  8.32061E-01  1.00515E+00 -1.73085E-01
    9027.090     34.059   3.240  8.36509E-01  1.00422E+00 -1.67707E-01
    9028.083     35.053   3.280  8.44810E-01  1.00324E+00 -1.58431E-01
    9029.089     36.059   3.320  8.55956E-01  1.00222E+00 -1.46267E-01
    9030.107     37.077   3.360  8.68779E-01  1.00119E+00 -1.32411E-01
    9031.138     38.107   3.400  8.81990E-01  1.00010E+00 -1.18114E-01
    9032.180     39.149   3.440  8.94665E-01  9.99029E-01 -1.04364E-01
    9033.235     40.204   3.480  9.06361E-01  9.97930E-01 -9.15690E-02
    9034.301     41.271   3.520  9.17474E-01  9.96850E-01 -7.93760E-02
    9035.380     42.350   3.560  9.28597E-01  9.95753E-01 -6.71557E-02
    9036.472     43.441   3.600  9.40167E-01  9.94683E-01 -5.45158E-02
    9037.575     44.544   3.640  9.52367E-01  9.93643E-01 -4.12757E-02
    9038.690     45.660   3.680  9.65281E-01  9.92616E-01 -2.73350E-02
    9039.818     46.787   3.720  9.79034E-01  9.91644E-01 -1.26099E-02
    9040.958     47.927   3.760  9.93542E-01  9.90688E-01  2.85489E-03
    9042.110     49.080   3.800  1.00839E+00  9.89770E-01  1.86224E-02
    9043.275     50.244   3.840  1.02250E+00  9.88891E-01  3.36065E-02
    9044.451     51.420   3.880  1.03464E+00  9.88056E-01  4.65890E-02
    9045.640     52.609   3.920  1.04407E+00  9.87285E-01  5.67870E-02
    9046.841     53.810   3.960  1.05059E+00  9.86559E-01  6.40312E-02
    9048.054     55.023   4.000  1.05445E+00  9.85881E-01  6.85653E-02
    9049.279     56.248   4.040  1.05622E+00  9.85269E-01  7.09541E-02
    9050.517     57.486   4.080  1.05664E+00  9.84705E-01  7.19372E-02
    9051.766     58.736   4.120  1.05664E+00  9.84210E-01  7.24272E-02
    9053.028     59.997   4.160  1.05709E+00  9.83762E-01  7.33273E-02
    9054.302     61.272   4.200  1.05850E+00  9.83362E-01  7.51390E-02
    9055.589     62.558   4.240  1.06066E+00  9.83032E-01  7.76298E-02
    9056.887     63.856   4.280  1.06264E+00  9.82772E-01  7.98651E-02
    9058.198     65.167   4.320  1.06313E+00  9.82559E-01  8.05740E-02
    9059.520     66.490   4.360  1.06095E+00  9.82393E-01  7.85533E-02
    9060.855     67.825   4.400  1.05544E+00  9.82295E-01  7.31436E-02
    9062.203     69.172   4.440  1.04685E+00  9.82242E-01  6.46041E-02
    9063.562     70.531   4.480  1.03622E+00  9.82235E-01  5.39871E-02
    9064.934     71.903   4.520  1.02501E+00  9.82295E-01  4.27181E-02
    9066.317     73.287   4.560  1.01451E+00  9.82398E-01  3.21107E-02
    9067.713     74.683   4.600  1.00553E+00  9.82546E-01  2.29849E-02
    9069.122     76.091   4.640  9.98354E-01  9.82756E-01  1.55978E-02
    9070.542     77.511   4.680  9.92781E-01  9.82984E-01  9.79703E-03
    9071.974     78.944   4.720  9.88442E-01  9.83250E-01  5.19209E-03
    9073.419     80.388   4.760  9.84831E-01  9.83553E-01  1.27803E-03
    9074.876     81.845   4.800  9.81560E-01  9.83892E-01 -2.33254E-03
    9076.345     83.315   4.840  9.78497E-01  9.84267E-01 -5.77024E-03
    9077.827     84.796   4.880  9.75752E-01  9.84655E-01 -8.90317E-03
    9079.320     86.289   4.920  9.73627E-01  9.85074E-01 -1.14475E-02
    9080.826     87.795   4.960  9.72373E-01  9.85524E-01 -1.31509E-02
    9082.344     89.313   5.000  9.72075E-01  9.85980E-01 -1.39045E-02
    9083.874     90.843   5.040  9.72591E-01  9.86439E-01 -1.38480E-02
    9085.416     92.385   5.080  9.73474E-01  9.86904E-01 -1.34299E-02
    9086.971     93.940   5.120  9.74074E-01  9.87390E-01 -1.33155E-02
    9088.537     95.507   5.160  9.73635E-01  9.87855E-01 -1.42199E-02
    9090.116     97.085   5.200  9.71830E-01  9.88341E-01 -1.65110E-02
    9091.707     98.676   5.240  9.68789E-01  9.88801E-01 -2.00120E-02
    9093.310    100.280   5.280  9.65139E-01  9.89257E-01 -2.41187E-02
    9094.926    101.895   5.320  9.61514E-01  9.89706E-01 -2.81917E-02
    9096.553    103.523   5.360  9.58241E-01  9.90125E-01 -3.18845E-02
    9098.193    105.163   5.400  9.55374E-01  9.90538E-01 -3.51645E-02
    9099.845    106.815   5.440  9.52769E-01  9.90942E-01 -3.81730E-02
    9101.509    108.479   5.480  9.50274E-01  9.91312E-01 -4.10383E-02
    9103.186    110.155   5.520  9.47880E-01  9.91644E-01 -4.37641E-02
    9104.874    111.844   5.560  9.45756E-01  9.91942E-01 -4.61865E-02
    9106.575    113.544   5.600  9.44240E-01  9.92227E-01 -4.79866E-02
    9108.288    115.257   5.640  9.43702E-01  9.92474E-01 -4.87728E-02
    9110.013    116.983   5.680  9.44493E-01  9.92683E-01 -4.81896E-02
    9111.751    118.720   5.720  9.46808E-01  9.92852E-01 -4.60440E-02
    9113.500    120.470   5.760  9.50654E-01  9.92980E-01 -4.23260E-02
    9115.262    122.231   5.800  9.55900E-01  9.93066E-01 -3.71662E-02
    9117.036    124.005   5.840  9.62310E-01  9.93088E-01 -3.07773E-02
    9118.822    125.791   5.880  9.69656E-01  9.93093E-01 -2.34367E-02
    9120.620    127.590   5.920  9.77530E-01  9.93058E-01 -1.55278E-02
    9122.431    129.400   5.960  9.85407E-01  9.92951E-01 -7.54321E-03
    9124.254    131.223   6.000  9.92993E-01  9.92801E-01  1.92377E-04
