# # comment:                                                     FEFF 9.9.1  
# # Source:
# # Structure
# # Reduced
# # space
# # abc:
# # angles:
# # sites:
# # POT  SCF 100  7.0000   0, screened core-hole, AFOLP (folp(0)= 1.150)
# # Abs   Z=29 Rmt= 1.265 Rnm= 1.329 K  shell
# # Pot 1 Z= 3 Rmt= 1.357 Rnm= 1.423
# # Pot 2 Z=29 Rmt= 1.295 Rnm= 1.364
# # Pot 3 Z=15 Rmt= 0.941 Rnm= 1.155
# # Pot 4 Z= 8 Rmt= 0.905 Rnm= 1.040
# # Gam_ch=1.729E+00 H-L exch Vi= 0.000E+00 Vr= 0.000E+00
# # Mu=-6.876E+00eV kf=2.413E+00 Vint=-1.779E+01eV Rs_int= 1.503
# FMS rfms= 9.0000
# # PATH  Rmax=-1.000,  Keep_limit= 0.00, Heap_limit 0.00  Pwcrit= 2.50%
#  S02=0.950  Temp=   0.00  Debye_temp=   0.00  Global_sig2= 0.00000
#  Energy zero shift, vr, vi    0.00000E+00   0.00000E+00
#  Curved wave amplitude ratio filter   4.000%
#     file         sig2 tot  cw amp ratio   deg  nlegs   reff  inp sig2
#     0/   0 paths used
#  xsedge+ 50, used to normalize mu           2.4878E-04
#  -----------------------------------------------------------------------
#  omega    e    k    mu    mu0     chi     @#
    8983.592    -10.686  -1.000  3.95147E-02  5.19820E-02 -1.24674E-02
    8983.890    -10.387  -0.960  4.16169E-02  5.57540E-02 -1.41371E-02
    8984.177    -10.101  -0.920  4.38757E-02  5.99482E-02 -1.60725E-02
    8984.451     -9.826  -0.880  4.63067E-02  6.46272E-02 -1.83205E-02
    8984.713     -9.564  -0.840  4.89276E-02  6.98641E-02 -2.09365E-02
    8984.963     -9.314  -0.800  5.17579E-02  7.57436E-02 -2.39857E-02
    8985.201     -9.076  -0.760  5.48193E-02  8.23631E-02 -2.75438E-02
    8985.427     -8.851  -0.720  5.81352E-02  8.98326E-02 -3.16974E-02
    8985.640     -8.638  -0.680  6.17300E-02  9.82734E-02 -3.65434E-02
    8985.841     -8.436  -0.640  6.56281E-02  1.07814E-01 -4.21857E-02
    8986.030     -8.247  -0.600  6.98516E-02  1.18580E-01 -4.87284E-02
    8986.207     -8.071  -0.560  7.44158E-02  1.30680E-01 -5.62639E-02
    8986.371     -7.906  -0.520  7.93241E-02  1.44178E-01 -6.48536E-02
    8986.524     -7.754  -0.480  8.45592E-02  1.59060E-01 -7.45012E-02
    8986.664     -7.613  -0.440  9.00750E-02  1.75197E-01 -8.51218E-02
    8986.792     -7.485  -0.400  9.57882E-02  1.92304E-01 -9.65162E-02
    8986.908     -7.370  -0.360  1.01576E-01  2.09938E-01 -1.08362E-01
    8987.011     -7.266  -0.320  1.07285E-01  2.27522E-01 -1.20237E-01
    8987.103     -7.175  -0.280  1.12742E-01  2.44414E-01 -1.31672E-01
    8987.182     -7.095  -0.240  1.17780E-01  2.60000E-01 -1.42220E-01
    8987.249     -7.028  -0.200  1.22253E-01  2.73767E-01 -1.51514E-01
    8987.304     -6.973  -0.160  1.26043E-01  2.85341E-01 -1.59297E-01
    8987.347     -6.931  -0.120  1.29069E-01  2.94484E-01 -1.65415E-01
    8987.377     -6.900  -0.080  1.31273E-01  3.01067E-01 -1.69794E-01
    8987.402     -6.876   0.000  1.33077E-01  3.06354E-01 -1.73277E-01
    8987.457     -6.821   0.120  1.37115E-01  3.18269E-01 -1.81154E-01
    8987.499     -6.778   0.160  1.40260E-01  3.27511E-01 -1.87251E-01
    8987.554     -6.723   0.200  1.44323E-01  3.39314E-01 -1.94991E-01
    8987.621     -6.656   0.240  1.49309E-01  3.53485E-01 -2.04176E-01
    8987.700     -6.577   0.280  1.55219E-01  3.69724E-01 -2.14505E-01
    8987.792     -6.486   0.320  1.62080E-01  3.87617E-01 -2.25536E-01
    8987.895     -6.382   0.360  1.69887E-01  4.06587E-01 -2.36700E-01
    8988.011     -6.266   0.400  1.78747E-01  4.26064E-01 -2.47317E-01
    8988.139     -6.138   0.440  1.88886E-01  4.45551E-01 -2.56665E-01
    8988.279     -5.998   0.480  2.00647E-01  4.64627E-01 -2.63981E-01
    8988.432     -5.846   0.520  2.14518E-01  4.83040E-01 -2.68521E-01
    8988.596     -5.681   0.560  2.31094E-01  5.00653E-01 -2.69558E-01
    8988.773     -5.504   0.600  2.50931E-01  5.17459E-01 -2.66528E-01
    8988.962     -5.315   0.640  2.74320E-01  5.33518E-01 -2.59199E-01
    8989.163     -5.114   0.680  3.00988E-01  5.48910E-01 -2.47922E-01
    8989.377     -4.901   0.720  3.29889E-01  5.63746E-01 -2.33857E-01
    8989.602     -4.675   0.760  3.59039E-01  5.78099E-01 -2.19060E-01
    8989.840     -4.437   0.800  3.86120E-01  5.92111E-01 -2.05991E-01
    8990.090     -4.187   0.840  4.09818E-01  6.05832E-01 -1.96015E-01
    8990.352     -3.925   0.880  4.30952E-01  6.19322E-01 -1.88370E-01
    8990.626     -3.651   0.920  4.51223E-01  6.32645E-01 -1.81422E-01
    8990.913     -3.365   0.960  4.71220E-01  6.45831E-01 -1.74611E-01
    8991.212     -3.066   1.000  4.89946E-01  6.58923E-01 -1.68977E-01
    8991.523     -2.755   1.040  5.05772E-01  6.71913E-01 -1.66142E-01
    8991.846     -2.432   1.080  5.18711E-01  6.84849E-01 -1.66138E-01
    8992.181     -2.097   1.120  5.31819E-01  6.97707E-01 -1.65889E-01
    8992.528     -1.749   1.160  5.48682E-01  7.10500E-01 -1.61818E-01
    8992.888     -1.389   1.200  5.68404E-01  7.23199E-01 -1.54795E-01
    8993.260     -1.018   1.240  5.88829E-01  7.35827E-01 -1.46998E-01
    8993.644     -0.634   1.280  6.13185E-01  7.48345E-01 -1.35161E-01
    8994.040     -0.237   1.320  6.46844E-01  7.60735E-01 -1.13891E-01
    8994.449      0.171   1.360  6.91704E-01  7.72992E-01 -8.12884E-02
    8994.869      0.592   1.400  7.45454E-01  7.85093E-01 -3.96399E-02
    8995.302      1.025   1.440  8.03767E-01  7.97032E-01  6.73522E-03
    8995.747      1.470   1.480  8.60743E-01  8.08762E-01  5.19815E-02
    8996.204      1.927   1.520  9.12544E-01  8.20278E-01  9.22665E-02
    8996.674      2.396   1.560  9.60077E-01  8.31549E-01  1.28527E-01
    8997.155      2.878   1.600  1.00485E+00  8.42571E-01  1.62276E-01
    8997.649      3.372   1.640  1.05269E+00  8.53315E-01  1.99377E-01
    8998.155      3.877   1.680  1.11409E+00  8.63754E-01  2.50335E-01
    8998.673      4.396   1.720  1.18978E+00  8.73881E-01  3.15895E-01
    8999.203      4.926   1.760  1.26598E+00  8.83689E-01  3.82287E-01
    8999.746      5.469   1.800  1.32717E+00  8.93132E-01  4.34038E-01
    9000.301      6.023   1.840  1.35574E+00  9.02245E-01  4.53497E-01
    9000.868      6.590   1.880  1.34232E+00  9.10964E-01  4.31359E-01
    9001.447      7.169   1.920  1.29594E+00  9.19323E-01  3.76612E-01
    9002.038      7.761   1.960  1.23314E+00  9.27282E-01  3.05857E-01
    9002.642      8.364   2.000  1.16807E+00  9.34857E-01  2.33214E-01
    9003.257      8.980   2.040  1.11103E+00  9.42046E-01  1.68986E-01
    9003.885      9.608   2.080  1.06767E+00  9.48829E-01  1.18845E-01
    9004.525     10.248   2.120  1.04017E+00  9.55205E-01  8.49646E-02
    9005.178     10.900   2.160  1.02957E+00  9.61196E-01  6.83769E-02
    9005.842     11.565   2.200  1.03446E+00  9.66781E-01  6.76832E-02
    9006.519     12.241   2.240  1.04961E+00  9.71964E-01  7.76418E-02
    9007.207     12.930   2.280  1.06910E+00  9.76769E-01  9.23268E-02
    9007.908     13.631   2.320  1.08739E+00  9.81198E-01  1.06192E-01
    9008.622     14.344   2.360  1.09864E+00  9.85237E-01  1.13407E-01
    9009.347     15.070   2.400  1.09998E+00  9.88928E-01  1.11053E-01
    9010.085     15.807   2.440  1.09361E+00  9.92260E-01  1.01349E-01
    9010.835     16.557   2.480  1.08275E+00  9.95256E-01  8.74930E-02
    9011.597     17.319   2.520  1.06849E+00  9.97902E-01  7.05885E-02
    9012.371     18.093   2.560  1.05302E+00  1.00025E+00  5.27713E-02
    9013.157     18.880   2.600  1.03930E+00  1.00227E+00  3.70268E-02
    9013.956     19.678   2.640  1.02668E+00  1.00403E+00  2.26480E-02
    9014.766     20.489   2.680  1.01205E+00  1.00549E+00  6.56181E-03
    9015.589     21.312   2.720  9.95326E-01  1.00669E+00 -1.13671E-02
    9016.425     22.147   2.760  9.76023E-01  1.00765E+00 -3.16245E-02
    9017.272     22.994   2.800  9.53172E-01  1.00836E+00 -5.51906E-02
    9018.131     23.854   2.840  9.33047E-01  1.00884E+00 -7.57965E-02
    9019.003     24.726   2.880  9.18991E-01  1.00914E+00 -9.01496E-02
    9019.887     25.610   2.920  9.09194E-01  1.00924E+00 -1.00046E-01
    9020.783     26.506   2.960  9.01857E-01  1.00917E+00 -1.07314E-01
    9021.691     27.414   3.000  8.95916E-01  1.00892E+00 -1.13002E-01
    9022.612     28.335   3.040  8.91174E-01  1.00855E+00 -1.17377E-01
    9023.545     29.267   3.080  8.86984E-01  1.00803E+00 -1.21049E-01
    9024.490     30.212   3.120  8.82794E-01  1.00739E+00 -1.24600E-01
    9025.447     31.169   3.160  8.78544E-01  1.00664E+00 -1.28095E-01
    9026.416     32.138   3.200  8.74705E-01  1.00580E+00 -1.31090E-01
    9027.397     33.120   3.240  8.72284E-01  1.00487E+00 -1.32585E-01
    9028.391     34.114   3.280  8.72616E-01  1.00389E+00 -1.31271E-01
    9029.397     35.119   3.320  8.76399E-01  1.00283E+00 -1.26434E-01
    9030.415     36.137   3.360  8.83731E-01  1.00173E+00 -1.18002E-01
    9031.445     37.168   3.400  8.94165E-01  1.00057E+00 -1.06406E-01
    9032.487     38.210   3.440  9.07036E-01  9.99415E-01 -9.23800E-02
    9033.542     39.265   3.480  9.21481E-01  9.98228E-01 -7.67467E-02
    9034.609     40.331   3.520  9.36852E-01  9.97012E-01 -6.01609E-02
    9035.688     41.410   3.560  9.52560E-01  9.95814E-01 -4.32542E-02
    9036.779     42.502   3.600  9.67822E-01  9.94598E-01 -2.67753E-02
    9037.882     43.605   3.640  9.82132E-01  9.93406E-01 -1.12738E-02
    9038.998     44.721   3.680  9.95114E-01  9.92244E-01  2.86989E-03
    9040.126     45.848   3.720  1.00643E+00  9.91094E-01  1.53324E-02
    9041.266     46.988   3.760  1.01599E+00  9.89977E-01  2.60107E-02
    9042.418     48.140   3.800  1.02391E+00  9.88897E-01  3.50157E-02
    9043.582     49.305   3.840  1.03041E+00  9.87856E-01  4.25540E-02
    9044.759     50.481   3.880  1.03576E+00  9.86856E-01  4.89032E-02
    9045.947     51.670   3.920  1.04020E+00  9.85900E-01  5.43039E-02
    9047.148     52.871   3.960  1.04381E+00  9.85010E-01  5.87968E-02
    9048.361     54.084   4.000  1.04638E+00  9.84164E-01  6.22165E-02
    9049.587     55.309   4.040  1.04784E+00  9.83368E-01  6.44685E-02
    9050.824     56.547   4.080  1.04821E+00  9.82641E-01  6.55736E-02
    9052.074     57.796   4.120  1.04771E+00  9.81984E-01  6.57253E-02
    9053.336     59.058   4.160  1.04663E+00  9.81379E-01  6.52497E-02
    9054.610     60.332   4.200  1.04534E+00  9.80844E-01  6.45000E-02
    9055.896     61.619   4.240  1.04400E+00  9.80359E-01  6.36444E-02
    9057.194     62.917   4.280  1.04259E+00  9.79945E-01  6.26415E-02
    9058.505     64.228   4.320  1.04093E+00  9.79583E-01  6.13423E-02
    9059.828     65.550   4.360  1.03882E+00  9.79314E-01  5.95093E-02
    9061.163     66.885   4.400  1.03599E+00  9.79075E-01  5.69111E-02
    9062.510     68.233   4.440  1.03232E+00  9.78927E-01  5.33903E-02
    9063.870     69.592   4.480  1.02768E+00  9.78808E-01  4.88761E-02
    9065.241     70.964   4.520  1.02218E+00  9.78778E-01  4.34063E-02
    9066.625     72.347   4.560  1.01595E+00  9.78777E-01  3.71772E-02
    9068.021     73.743   4.600  1.00934E+00  9.78864E-01  3.04787E-02
    9069.429     75.152   4.640  1.00251E+00  9.78976E-01  2.35320E-02
    9070.849     76.572   4.680  9.95589E-01  9.79153E-01  1.64357E-02
    9072.282     78.005   4.720  9.88529E-01  9.79374E-01  9.15518E-03
    9073.727     79.449   4.760  9.81239E-01  9.79635E-01  1.60380E-03
    9075.184     80.906   4.800  9.73775E-01  9.79937E-01 -6.16183E-03
    9076.653     82.375   4.840  9.66402E-01  9.80278E-01 -1.38760E-02
    9078.134     83.857   4.880  9.59596E-01  9.80658E-01 -2.10622E-02
    9079.628     85.350   4.920  9.53926E-01  9.81075E-01 -2.71493E-02
    9081.133     86.856   4.960  9.49838E-01  9.81526E-01 -3.16872E-02
    9082.651     88.374   5.000  9.47521E-01  9.81987E-01 -3.44658E-02
    9084.181     89.904   5.040  9.46889E-01  9.82479E-01 -3.55903E-02
    9085.724     91.446   5.080  9.47484E-01  9.82977E-01 -3.54936E-02
    9087.278     93.001   5.120  9.48721E-01  9.83481E-01 -3.47598E-02
    9088.845     94.567   5.160  9.50073E-01  9.84010E-01 -3.39374E-02
    9090.424     96.146   5.200  9.51183E-01  9.84544E-01 -3.33610E-02
    9092.015     97.737   5.240  9.51915E-01  9.85077E-01 -3.31616E-02
    9093.618     99.340   5.280  9.52268E-01  9.85606E-01 -3.33380E-02
    9095.233    100.956   5.320  9.52318E-01  9.86112E-01 -3.37935E-02
    9096.861    102.584   5.360  9.52299E-01  9.86634E-01 -3.43351E-02
    9098.501    104.223   5.400  9.52468E-01  9.87129E-01 -3.46615E-02
    9100.153    105.875   5.440  9.53146E-01  9.87615E-01 -3.44686E-02
    9101.817    107.540   5.480  9.54505E-01  9.88069E-01 -3.35636E-02
    9103.493    109.216   5.520  9.56544E-01  9.88489E-01 -3.19450E-02
    9105.182    110.905   5.560  9.59164E-01  9.88898E-01 -2.97341E-02
    9106.883    112.605   5.600  9.62250E-01  9.89294E-01 -2.70438E-02
    9108.596    114.318   5.640  9.65732E-01  9.89629E-01 -2.38978E-02
    9110.321    116.043   5.680  9.69641E-01  9.89927E-01 -2.02862E-02
    9112.058    117.781   5.720  9.73932E-01  9.90209E-01 -1.62767E-02
    9113.808    119.530   5.760  9.78390E-01  9.90450E-01 -1.20607E-02
    9115.570    121.292   5.800  9.82765E-01  9.90627E-01 -7.86206E-03
    9117.343    123.066   5.840  9.86975E-01  9.90762E-01 -3.78646E-03
    9119.130    124.852   5.880  9.91093E-01  9.90879E-01  2.13649E-04
    9120.928    126.650   5.920  9.95146E-01  9.90929E-01  4.21757E-03
    9122.738    128.461   5.960  9.99081E-01  9.90928E-01  8.15294E-03
    9124.561    130.284   6.000  1.00263E+00  9.90828E-01  1.18026E-02
