# # comment:                                                     FEFF 9.9.1  
# # Source:
# # Structure
# # Reduced
# # space
# # abc:
# # angles:
# # sites:
# # POT  SCF 100  7.0000   0, screened core-hole, AFOLP (folp(0)= 1.150)
# # Abs   Z=29 Rmt= 1.181 Rnm= 1.291 K  shell
# # Pot 1 Z=56 Rmt= 1.925 Rnm= 1.977
# # Pot 2 Z=60 Rmt= 1.820 Rnm= 1.883
# # Pot 3 Z=29 Rmt= 1.181 Rnm= 1.291
# # Pot 4 Z= 8 Rmt= 1.073 Rnm= 1.123
# # Gam_ch=1.729E+00 H-L exch Vi= 0.000E+00 Vr= 0.000E+00
# # Mu=-8.488E+00eV kf=2.007E+00 Vint=-1.729E+01eV Rs_int= 1.807
# FMS rfms= 9.0000
# # PATH  Rmax=-1.000,  Keep_limit= 0.00, Heap_limit 0.00  Pwcrit= 2.50%
#  S02=0.950  Temp=   0.00  Debye_temp=   0.00  Global_sig2= 0.00000
#  Energy zero shift, vr, vi    0.00000E+00   0.00000E+00
#  Curved wave amplitude ratio filter   4.000%
#     file         sig2 tot  cw amp ratio   deg  nlegs   reff  inp sig2
#     0/   0 paths used
#  xsedge+ 50, used to normalize mu           2.4445E-04
#  -----------------------------------------------------------------------
#  omega    e    k    mu    mu0     chi     @#
    8984.955    -12.298  -1.000  3.89441E-02  5.80635E-02 -1.91193E-02
    8985.254    -12.000  -0.960  4.10692E-02  6.23787E-02 -2.13095E-02
    8985.540    -11.713  -0.920  4.33854E-02  6.71804E-02 -2.37950E-02
    8985.814    -11.439  -0.880  4.59210E-02  7.25406E-02 -2.66196E-02
    8986.077    -11.177  -0.840  4.87096E-02  7.85430E-02 -2.98334E-02
    8986.327    -10.927  -0.800  5.17914E-02  8.52850E-02 -3.34936E-02
    8986.564    -10.689  -0.760  5.52137E-02  9.28781E-02 -3.76644E-02
    8986.790    -10.464  -0.720  5.90315E-02  1.01448E-01 -4.24169E-02
    8987.003    -10.250  -0.680  6.33068E-02  1.11135E-01 -4.78279E-02
    8987.204    -10.049  -0.640  6.81071E-02  1.22084E-01 -5.39767E-02
    8987.393     -9.860  -0.600  7.34995E-02  1.34440E-01 -6.09403E-02
    8987.570     -9.683  -0.560  7.95422E-02  1.48326E-01 -6.87837E-02
    8987.735     -9.519  -0.520  8.62686E-02  1.63816E-01 -7.75470E-02
    8987.887     -9.366  -0.480  9.36659E-02  1.80893E-01 -8.72273E-02
    8988.027     -9.226  -0.440  1.01651E-01  1.99409E-01 -9.77577E-02
    8988.155     -9.098  -0.400  1.10051E-01  2.19039E-01 -1.08988E-01
    8988.271     -8.982  -0.360  1.18603E-01  2.39276E-01 -1.20673E-01
    8988.375     -8.879  -0.320  1.26975E-01  2.59458E-01 -1.32483E-01
    8988.466     -8.787  -0.280  1.34825E-01  2.78853E-01 -1.44027E-01
    8988.545     -8.708  -0.240  1.41857E-01  2.96754E-01 -1.54898E-01
    8988.613     -8.641  -0.200  1.47862E-01  3.12574E-01 -1.64711E-01
    8988.667     -8.586  -0.160  1.52735E-01  3.25879E-01 -1.73143E-01
    8988.710     -8.543  -0.120  1.56452E-01  3.36395E-01 -1.79943E-01
    8988.741     -8.513  -0.080  1.59036E-01  3.43970E-01 -1.84934E-01
    8988.765     -8.488   0.000  1.61004E-01  3.50055E-01 -1.89051E-01
    8988.820     -8.434   0.120  1.65551E-01  3.63770E-01 -1.98219E-01
    8988.862     -8.391   0.160  1.68937E-01  3.74415E-01 -2.05478E-01
    8988.917     -8.336   0.200  1.73081E-01  3.88029E-01 -2.14948E-01
    8988.984     -8.269   0.240  1.77690E-01  4.04384E-01 -2.26694E-01
    8989.064     -8.190   0.280  1.82479E-01  4.23169E-01 -2.40691E-01
    8989.155     -8.098   0.320  1.87036E-01  4.43861E-01 -2.56825E-01
    8989.259     -7.995   0.360  1.91030E-01  4.65880E-01 -2.74850E-01
    8989.375     -7.879   0.400  1.94223E-01  4.88566E-01 -2.94343E-01
    8989.503     -7.751   0.440  1.96551E-01  5.11337E-01 -3.14785E-01
    8989.643     -7.611   0.480  1.98203E-01  5.33698E-01 -3.35495E-01
    8989.795     -7.458   0.520  1.99551E-01  5.55383E-01 -3.55832E-01
    8989.960     -7.294   0.560  2.01060E-01  5.76215E-01 -3.75155E-01
    8990.137     -7.117   0.600  2.03223E-01  5.96178E-01 -3.92955E-01
    8990.326     -6.928   0.640  2.06551E-01  6.15293E-01 -4.08742E-01
    8990.527     -6.727   0.680  2.11614E-01  6.33682E-01 -4.22068E-01
    8990.740     -6.513   0.720  2.18913E-01  6.51400E-01 -4.32487E-01
    8990.966     -6.288   0.760  2.29103E-01  6.68563E-01 -4.39460E-01
    8991.203     -6.050   0.800  2.42710E-01  6.85235E-01 -4.42525E-01
    8991.453     -5.800   0.840  2.60217E-01  7.01506E-01 -4.41289E-01
    8991.715     -5.538   0.880  2.81860E-01  7.17412E-01 -4.35552E-01
    8991.990     -5.264   0.920  3.07909E-01  7.32992E-01 -4.25083E-01
    8992.276     -4.977   0.960  3.38852E-01  7.48273E-01 -4.09421E-01
    8992.575     -4.679   1.000  3.75142E-01  7.63272E-01 -3.88130E-01
    8992.886     -4.368   1.040  4.16471E-01  7.77952E-01 -3.61480E-01
    8993.209     -4.045   1.080  4.62510E-01  7.92353E-01 -3.29843E-01
    8993.544     -3.709   1.120  5.13499E-01  8.06427E-01 -2.92927E-01
    8993.892     -3.362   1.160  5.67435E-01  8.20178E-01 -2.52743E-01
    8994.251     -3.002   1.200  6.14772E-01  8.33590E-01 -2.18818E-01
    8994.623     -2.630   1.240  6.43590E-01  8.46623E-01 -2.03033E-01
    8995.007     -2.246   1.280  6.53761E-01  8.59252E-01 -2.05491E-01
    8995.403     -1.850   1.320  6.54624E-01  8.71456E-01 -2.16832E-01
    8995.812     -1.442   1.360  6.58907E-01  8.83229E-01 -2.24322E-01
    8996.232     -1.021   1.400  6.79354E-01  8.94545E-01 -2.15191E-01
    8996.665     -0.588   1.440  7.20671E-01  9.05362E-01 -1.84691E-01
    8997.110     -0.143   1.480  7.74414E-01  9.15716E-01 -1.41303E-01
    8997.568      0.314   1.520  8.12998E-01  9.25521E-01 -1.12524E-01
    8998.037      0.783   1.560  8.17705E-01  9.34838E-01 -1.17133E-01
    8998.518      1.265   1.600  8.22645E-01  9.43623E-01 -1.20978E-01
    8999.012      1.759   1.640  8.74401E-01  9.51857E-01 -7.74562E-02
    8999.518      2.265   1.680  9.90033E-01  9.59562E-01  3.04714E-02
    9000.036      2.783   1.720  1.15348E+00  9.66740E-01  1.86735E-01
    9000.567      3.313   1.760  1.30829E+00  9.73396E-01  3.34895E-01
    9001.109      3.856   1.800  1.38566E+00  9.79532E-01  4.06129E-01
    9001.664      4.411   1.840  1.41096E+00  9.85157E-01  4.25800E-01
    9002.231      4.978   1.880  1.43518E+00  9.90277E-01  4.44908E-01
    9002.810      5.557   1.920  1.43409E+00  9.94900E-01  4.39191E-01
    9003.401      6.148   1.960  1.38609E+00  9.99074E-01  3.87013E-01
    9004.005      6.751   2.000  1.31362E+00  1.00279E+00  3.10831E-01
    9004.621      7.367   2.040  1.25195E+00  1.00606E+00  2.45893E-01
    9005.248      7.995   2.080  1.21603E+00  1.00893E+00  2.07101E-01
    9005.889      8.635   2.120  1.20048E+00  1.01139E+00  1.89093E-01
    9006.541      9.287   2.160  1.18979E+00  1.01349E+00  1.76297E-01
    9007.205      9.952   2.200  1.17116E+00  1.01524E+00  1.55921E-01
    9007.882     10.628   2.240  1.14746E+00  1.01665E+00  1.30819E-01
    9008.571     11.317   2.280  1.12796E+00  1.01775E+00  1.10210E-01
    9009.272     12.018   2.320  1.11664E+00  1.01857E+00  9.80706E-02
    9009.985     12.732   2.360  1.11455E+00  1.01914E+00  9.54195E-02
    9010.710     13.457   2.400  1.12485E+00  1.01945E+00  1.05403E-01
    9011.448     14.195   2.440  1.14663E+00  1.01955E+00  1.27085E-01
    9012.198     14.944   2.480  1.16461E+00  1.01947E+00  1.45148E-01
    9012.960     15.706   2.520  1.17010E+00  1.01919E+00  1.50914E-01
    9013.734     16.481   2.560  1.15801E+00  1.01874E+00  1.39270E-01
    9014.520     17.267   2.600  1.12987E+00  1.01814E+00  1.11730E-01
    9015.319     18.066   2.640  1.09177E+00  1.01743E+00  7.43351E-02
    9016.130     18.876   2.680  1.05085E+00  1.01661E+00  3.42436E-02
    9016.953     19.699   2.720  1.01368E+00  1.01569E+00 -2.00909E-03
    9017.788     20.534   2.760  9.83778E-01  1.01472E+00 -3.09428E-02
    9018.635     21.382   2.800  9.61396E-01  1.01367E+00 -5.22784E-02
    9019.495     22.241   2.840  9.45878E-01  1.01256E+00 -6.66814E-02
    9020.366     23.113   2.880  9.36121E-01  1.01142E+00 -7.53029E-02
    9021.250     23.997   2.920  9.30596E-01  1.01028E+00 -7.96807E-02
    9022.146     24.893   2.960  9.27560E-01  1.00910E+00 -8.15400E-02
    9023.055     25.801   3.000  9.25274E-01  1.00792E+00 -8.26452E-02
    9023.975     26.722   3.040  9.22495E-01  1.00674E+00 -8.42440E-02
    9024.908     27.655   3.080  9.18755E-01  1.00559E+00 -8.68310E-02
    9025.853     28.599   3.120  9.14126E-01  1.00444E+00 -9.03179E-02
    9026.810     29.556   3.160  9.08873E-01  1.00334E+00 -9.44650E-02
    9027.779     30.526   3.200  9.03315E-01  1.00229E+00 -9.89746E-02
    9028.761     31.507   3.240  8.97804E-01  1.00126E+00 -1.03457E-01
    9029.754     32.501   3.280  8.92662E-01  1.00027E+00 -1.07612E-01
    9030.760     33.507   3.320  8.88291E-01  9.99356E-01 -1.11065E-01
    9031.778     34.525   3.360  8.85212E-01  9.98483E-01 -1.13271E-01
    9032.808     35.555   3.400  8.84077E-01  9.97682E-01 -1.13605E-01
    9033.851     36.597   3.440  8.85214E-01  9.96932E-01 -1.11717E-01
    9034.905     37.652   3.480  8.88922E-01  9.96254E-01 -1.07332E-01
    9035.972     38.719   3.520  8.95383E-01  9.95651E-01 -1.00268E-01
    9037.051     39.798   3.560  9.04457E-01  9.95102E-01 -9.06449E-02
    9038.142     40.889   3.600  9.15931E-01  9.94628E-01 -7.86967E-02
    9039.246     41.992   3.640  9.29576E-01  9.94230E-01 -6.46539E-02
    9040.361     43.108   3.680  9.44945E-01  9.93909E-01 -4.89642E-02
    9041.489     44.236   3.720  9.61274E-01  9.93665E-01 -3.23916E-02
    9042.629     45.376   3.760  9.77471E-01  9.93474E-01 -1.60031E-02
    9043.781     46.528   3.800  9.92089E-01  9.93359E-01 -1.27035E-03
    9044.945     47.692   3.840  1.00344E+00  9.93317E-01  1.01262E-02
    9046.122     48.869   3.880  1.01035E+00  9.93328E-01  1.70188E-02
    9047.311     50.057   3.920  1.01278E+00  9.93410E-01  1.93662E-02
    9048.512     51.258   3.960  1.01188E+00  9.93543E-01  1.83399E-02
    9049.725     52.471   4.000  1.00982E+00  9.93748E-01  1.60737E-02
    9050.950     53.697   4.040  1.00901E+00  9.94024E-01  1.49880E-02
    9052.187     54.934   4.080  1.01137E+00  9.94347E-01  1.70279E-02
    9053.437     56.184   4.120  1.01780E+00  9.94714E-01  2.30892E-02
    9054.699     57.446   4.160  1.02797E+00  9.95126E-01  3.28425E-02
    9055.973     58.720   4.200  1.04034E+00  9.95601E-01  4.47369E-02
    9057.259     60.006   4.240  1.05247E+00  9.96097E-01  5.63706E-02
    9058.558     61.304   4.280  1.06197E+00  9.96652E-01  6.53201E-02
    9059.868     62.615   4.320  1.06722E+00  9.97224E-01  6.99961E-02
    9061.191     63.938   4.360  1.06793E+00  9.97853E-01  7.00750E-02
    9062.526     65.273   4.400  1.06496E+00  9.98472E-01  6.64836E-02
    9063.873     66.620   4.440  1.06003E+00  9.99142E-01  6.08846E-02
    9065.233     67.979   4.480  1.05474E+00  9.99800E-01  5.49366E-02
    9066.604     69.351   4.520  1.05028E+00  1.00051E+00  4.97761E-02
    9067.988     70.735   4.560  1.04708E+00  1.00120E+00  4.58839E-02
    9069.384     72.131   4.600  1.04510E+00  1.00191E+00  4.31934E-02
    9070.792     73.539   4.640  1.04402E+00  1.00260E+00  4.14228E-02
    9072.213     74.959   4.680  1.04361E+00  1.00331E+00  4.03023E-02
    9073.645     76.392   4.720  1.04356E+00  1.00399E+00  3.95640E-02
    9075.090     77.837   4.760  1.04352E+00  1.00467E+00  3.88485E-02
    9076.547     79.294   4.800  1.04297E+00  1.00534E+00  3.76295E-02
    9078.016     80.763   4.840  1.04124E+00  1.00598E+00  3.52615E-02
    9079.497     82.244   4.880  1.03782E+00  1.00661E+00  3.12066E-02
    9080.991     83.738   4.920  1.03255E+00  1.00723E+00  2.53159E-02
    9082.497     85.243   4.960  1.02572E+00  1.00779E+00  1.79315E-02
    9084.015     86.761   5.000  1.01804E+00  1.00834E+00  9.70353E-03
    9085.545     88.291   5.040  1.01016E+00  1.00884E+00  1.31175E-03
    9087.087     89.833   5.080  1.00272E+00  1.00931E+00 -6.59212E-03
    9088.641     91.388   5.120  9.96307E-01  1.00974E+00 -1.34289E-02
    9090.208     92.955   5.160  9.91231E-01  1.01012E+00 -1.88894E-02
    9091.787     94.533   5.200  9.87340E-01  1.01046E+00 -2.31212E-02
    9093.378     96.125   5.240  9.84112E-01  1.01076E+00 -2.66469E-02
    9094.981     97.728   5.280  9.80974E-01  1.01101E+00 -3.00388E-02
    9096.597     99.343   5.320  9.77679E-01  1.01120E+00 -3.35194E-02
    9098.224    100.971   5.360  9.74524E-01  1.01136E+00 -3.68387E-02
    9099.864    102.611   5.400  9.71901E-01  1.01146E+00 -3.95578E-02
    9101.516    104.263   5.440  9.70096E-01  1.01151E+00 -4.14117E-02
    9103.180    105.927   5.480  9.69107E-01  1.01149E+00 -4.23824E-02
    9104.857    107.603   5.520  9.69069E-01  1.01145E+00 -4.23789E-02
    9106.545    109.292   5.560  9.70371E-01  1.01134E+00 -4.09692E-02
    9108.246    110.993   5.600  9.73584E-01  1.01119E+00 -3.76020E-02
    9109.959    112.706   5.640  9.78801E-01  1.01099E+00 -3.21856E-02
    9111.684    114.431   5.680  9.85430E-01  1.01072E+00 -2.52920E-02
    9113.422    116.168   5.720  9.92230E-01  1.01044E+00 -1.82073E-02
    9115.171    117.918   5.760  9.97698E-01  1.01009E+00 -1.23928E-02
    9116.933    119.679   5.800  1.00065E+00  1.00973E+00 -9.07885E-03
    9118.707    121.453   5.840  1.00049E+00  1.00930E+00 -8.81209E-03
    9120.493    123.239   5.880  9.97770E-01  1.00883E+00 -1.10627E-02
    9122.291    125.038   5.920  9.94093E-01  1.00836E+00 -1.42659E-02
    9124.102    126.848   5.960  9.91422E-01  1.00783E+00 -1.64043E-02
    9125.924    128.671   6.000  9.90804E-01  1.00726E+00 -1.64540E-02
