# # comment:                                                     FEFF 9.9.1  
# # Source:
# # Structure
# # Reduced
# # space
# # abc:
# # angles:
# # sites:
# # POT  SCF 100  7.0000   0, screened core-hole, AFOLP (folp(0)= 1.150)
# # Abs   Z=29 Rmt= 1.248 Rnm= 1.312 K  shell
# # Pot 1 Z= 3 Rmt= 1.260 Rnm= 1.311
# # Pot 2 Z=26 Rmt= 1.327 Rnm= 1.409
# # Pot 3 Z=29 Rmt= 1.249 Rnm= 1.313
# # Pot 4 Z= 8 Rmt= 1.046 Rnm= 1.100
# # Gam_ch=1.729E+00 H-L exch Vi= 0.000E+00 Vr= 0.000E+00
# # Mu=-1.061E+01eV kf=2.104E+00 Vint=-1.815E+01eV Rs_int= 1.723
# FMS rfms= 9.0000
# # PATH  Rmax=-1.000,  Keep_limit= 0.00, Heap_limit 0.00  Pwcrit= 2.50%
#  S02=0.950  Temp=   0.00  Debye_temp=   0.00  Global_sig2= 0.00000
#  Energy zero shift, vr, vi    0.00000E+00   0.00000E+00
#  Curved wave amplitude ratio filter   4.000%
#     file         sig2 tot  cw amp ratio   deg  nlegs   reff  inp sig2
#     0/   0 paths used
#  xsedge+ 50, used to normalize mu           2.4652E-04
#  -----------------------------------------------------------------------
#  omega    e    k    mu    mu0     chi     @#
    8985.107    -14.423  -1.000  3.27621E-02  5.03482E-02 -1.75861E-02
    8985.406    -14.124  -0.960  3.41655E-02  5.38834E-02 -1.97179E-02
    8985.693    -13.838  -0.920  3.56422E-02  5.78004E-02 -2.21583E-02
    8985.967    -13.563  -0.880  3.71971E-02  6.21545E-02 -2.49574E-02
    8986.229    -13.301  -0.840  3.88360E-02  6.70097E-02 -2.81737E-02
    8986.479    -13.051  -0.800  4.05651E-02  7.24402E-02 -3.18751E-02
    8986.717    -12.813  -0.760  4.23913E-02  7.85308E-02 -3.61395E-02
    8986.942    -12.588  -0.720  4.43219E-02  8.53774E-02 -4.10555E-02
    8987.156    -12.375  -0.680  4.63646E-02  9.30851E-02 -4.67205E-02
    8987.357    -12.173  -0.640  4.85268E-02  1.01765E-01 -5.32381E-02
    8987.546    -11.984  -0.600  5.08148E-02  1.11525E-01 -6.07105E-02
    8987.723    -11.808  -0.560  5.32320E-02  1.22458E-01 -6.92264E-02
    8987.887    -11.643  -0.520  5.57767E-02  1.34618E-01 -7.88415E-02
    8988.039    -11.491  -0.480  5.84391E-02  1.47991E-01 -8.95517E-02
    8988.180    -11.350  -0.440  6.11973E-02  1.62459E-01 -1.01262E-01
    8988.308    -11.222  -0.400  6.40145E-02  1.77775E-01 -1.13760E-01
    8988.424    -11.107  -0.360  6.68386E-02  1.93547E-01 -1.26708E-01
    8988.527    -11.003  -0.320  6.96041E-02  2.09269E-01 -1.39665E-01
    8988.619    -10.912  -0.280  7.22390E-02  2.24379E-01 -1.52140E-01
    8988.698    -10.832  -0.240  7.46719E-02  2.38332E-01 -1.63660E-01
    8988.765    -10.765  -0.200  7.68384E-02  2.50671E-01 -1.73833E-01
    8988.820    -10.710  -0.160  7.86850E-02  2.61059E-01 -1.82374E-01
    8988.862    -10.668  -0.120  8.01682E-02  2.69278E-01 -1.89110E-01
    8988.893    -10.637  -0.080  8.12542E-02  2.75204E-01 -1.93949E-01
    8988.917    -10.613   0.000  8.21452E-02  2.79967E-01 -1.97822E-01
    8988.972    -10.558   0.120  8.42441E-02  2.90717E-01 -2.06472E-01
    8989.015    -10.515   0.160  8.58832E-02  2.99091E-01 -2.13207E-01
    8989.070    -10.460   0.200  8.80078E-02  3.09798E-01 -2.21790E-01
    8989.137    -10.393   0.240  9.06110E-02  3.22690E-01 -2.32079E-01
    8989.216    -10.314   0.280  9.37639E-02  3.37572E-01 -2.43808E-01
    8989.307    -10.223   0.320  9.74198E-02  3.54057E-01 -2.56638E-01
    8989.411    -10.119   0.360  1.01586E-01  3.71710E-01 -2.70124E-01
    8989.527    -10.003   0.400  1.06277E-01  3.90084E-01 -2.83807E-01
    8989.655     -9.875   0.440  1.11400E-01  4.08715E-01 -2.97315E-01
    8989.795     -9.735   0.480  1.16854E-01  4.27272E-01 -3.10419E-01
    8989.948     -9.583   0.520  1.22517E-01  4.45568E-01 -3.23051E-01
    8990.112     -9.418   0.560  1.28149E-01  4.63464E-01 -3.35314E-01
    8990.289     -9.241   0.600  1.33494E-01  4.80950E-01 -3.47456E-01
    8990.478     -9.052   0.640  1.38341E-01  4.98053E-01 -3.59713E-01
    8990.679     -8.851   0.680  1.42695E-01  5.14830E-01 -3.72135E-01
    8990.892     -8.638   0.720  1.47013E-01  5.31365E-01 -3.84352E-01
    8991.118     -8.412   0.760  1.52129E-01  5.47743E-01 -3.95614E-01
    8991.356     -8.174   0.800  1.59168E-01  5.63980E-01 -4.04812E-01
    8991.606     -7.924   0.840  1.69464E-01  5.80159E-01 -4.10695E-01
    8991.868     -7.662   0.880  1.84323E-01  5.96272E-01 -4.11949E-01
    8992.142     -7.388   0.920  2.05421E-01  6.12382E-01 -4.06961E-01
    8992.429     -7.102   0.960  2.34705E-01  6.28457E-01 -3.93752E-01
    8992.727     -6.803   1.000  2.74623E-01  6.44538E-01 -3.69915E-01
    8993.038     -6.492   1.040  3.28250E-01  6.60557E-01 -3.32307E-01
    8993.361     -6.169   1.080  3.99705E-01  6.76541E-01 -2.76837E-01
    8993.697     -5.834   1.120  4.89608E-01  6.92450E-01 -2.02842E-01
    8994.044     -5.486   1.160  5.84915E-01  7.08262E-01 -1.23347E-01
    8994.404     -5.126   1.200  6.59818E-01  7.23928E-01 -6.41098E-02
    8994.776     -4.755   1.240  6.94104E-01  7.39418E-01 -4.53139E-02
    8995.160     -4.371   1.280  6.86765E-01  7.54701E-01 -6.79354E-02
    8995.556     -3.974   1.320  6.60950E-01  7.69743E-01 -1.08793E-01
    8995.964     -3.566   1.360  6.41184E-01  7.84511E-01 -1.43328E-01
    8996.385     -3.145   1.400  6.34077E-01  7.98951E-01 -1.64874E-01
    8996.818     -2.712   1.440  6.41431E-01  8.13047E-01 -1.71616E-01
    8997.263     -2.267   1.480  6.69936E-01  8.26745E-01 -1.56809E-01
    8997.720     -1.810   1.520  7.20485E-01  8.40013E-01 -1.19528E-01
    8998.189     -1.341   1.560  7.80689E-01  8.52859E-01 -7.21700E-02
    8998.671     -0.859   1.600  8.33042E-01  8.65231E-01 -3.21895E-02
    8999.165     -0.365   1.640  8.83037E-01  8.77102E-01  5.93557E-03
    8999.671      0.140   1.680  9.53544E-01  8.88461E-01  6.50829E-02
    9000.189      0.659   1.720  1.04546E+00  8.99282E-01  1.46175E-01
    9000.719      1.189   1.760  1.14566E+00  9.09582E-01  2.36077E-01
    9001.262      1.732   1.800  1.23485E+00  9.19337E-01  3.15509E-01
    9001.816      2.286   1.840  1.30081E+00  9.28546E-01  3.72262E-01
    9002.383      2.853   1.880  1.36160E+00  9.37187E-01  4.24416E-01
    9002.962      3.432   1.920  1.44514E+00  9.45281E-01  4.99863E-01
    9003.554      4.024   1.960  1.55617E+00  9.52812E-01  6.03356E-01
    9004.157      4.627   2.000  1.65817E+00  9.59825E-01  6.98349E-01
    9004.773      5.243   2.040  1.68574E+00  9.66303E-01  7.19438E-01
    9005.401      5.871   2.080  1.60089E+00  9.72255E-01  6.28640E-01
    9006.041      6.511   2.120  1.44074E+00  9.77705E-01  4.63031E-01
    9006.693      7.163   2.160  1.27083E+00  9.82663E-01  2.88166E-01
    9007.358      7.828   2.200  1.12777E+00  9.87138E-01  1.40632E-01
    9008.034      8.504   2.240  1.01521E+00  9.91181E-01  2.40315E-02
    9008.723      9.193   2.280  9.26074E-01  9.94780E-01 -6.87065E-02
    9009.424      9.894   2.320  8.57762E-01  9.97966E-01 -1.40204E-01
    9010.137     10.607   2.360  8.09930E-01  1.00075E+00 -1.90820E-01
    9010.863     11.333   2.400  7.83020E-01  1.00316E+00 -2.20142E-01
    9011.600     12.070   2.440  7.75292E-01  1.00524E+00 -2.29944E-01
    9012.350     12.820   2.480  7.83722E-01  1.00698E+00 -2.23258E-01
    9013.112     13.582   2.520  8.15309E-01  1.00840E+00 -1.93095E-01
    9013.886     14.356   2.560  8.62472E-01  1.00954E+00 -1.47069E-01
    9014.673     15.143   2.600  9.12666E-01  1.01042E+00 -9.77579E-02
    9015.471     15.941   2.640  9.60906E-01  1.01106E+00 -5.01548E-02
    9016.282     16.752   2.680  1.00420E+00  1.01146E+00 -7.26467E-03
    9017.105     17.575   2.720  1.04034E+00  1.01168E+00  2.86685E-02
    9017.940     18.410   2.760  1.06721E+00  1.01170E+00  5.55104E-02
    9018.788     19.257   2.800  1.08181E+00  1.01153E+00  7.02836E-02
    9019.647     20.117   2.840  1.08235E+00  1.01124E+00  7.11109E-02
    9020.519     20.989   2.880  1.06978E+00  1.01081E+00  5.89707E-02
    9021.403     21.873   2.920  1.04716E+00  1.01026E+00  3.69067E-02
    9022.299     22.769   2.960  1.01895E+00  1.00961E+00  9.33413E-03
    9023.207     23.677   3.000  9.88973E-01  1.00888E+00 -1.99076E-02
    9024.128     24.598   3.040  9.59880E-01  1.00807E+00 -4.81902E-02
    9025.060     25.530   3.080  9.33678E-01  1.00719E+00 -7.35102E-02
    9026.005     26.475   3.120  9.11576E-01  1.00628E+00 -9.47037E-02
    9026.962     27.432   3.160  8.94046E-01  1.00531E+00 -1.11266E-01
    9027.932     28.401   3.200  8.81570E-01  1.00433E+00 -1.22759E-01
    9028.913     29.383   3.240  8.74322E-01  1.00334E+00 -1.29016E-01
    9029.907     30.377   3.280  8.71872E-01  1.00232E+00 -1.30450E-01
    9030.912     31.382   3.320  8.73578E-01  1.00133E+00 -1.27748E-01
    9031.931     32.400   3.360  8.78369E-01  1.00033E+00 -1.21964E-01
    9032.961     33.431   3.400  8.84673E-01  9.99347E-01 -1.14674E-01
    9034.003     34.473   3.440  8.91039E-01  9.98390E-01 -1.07351E-01
    9035.058     35.528   3.480  8.96782E-01  9.97445E-01 -1.00663E-01
    9036.125     36.594   3.520  9.02198E-01  9.96536E-01 -9.43371E-02
    9037.204     37.673   3.560  9.08360E-01  9.95686E-01 -8.73260E-02
    9038.295     38.765   3.600  9.16499E-01  9.94857E-01 -7.83582E-02
    9039.398     39.868   3.640  9.27627E-01  9.94089E-01 -6.64621E-02
    9040.514     40.984   3.680  9.42194E-01  9.93344E-01 -5.11500E-02
    9041.641     42.111   3.720  9.60407E-01  9.92666E-01 -3.22588E-02
    9042.781     43.251   3.760  9.82275E-01  9.92056E-01 -9.78140E-03
    9043.933     44.403   3.800  1.00756E+00  9.91493E-01  1.60677E-02
    9045.098     45.568   3.840  1.03549E+00  9.90976E-01  4.45176E-02
    9046.274     46.744   3.880  1.06451E+00  9.90527E-01  7.39837E-02
    9047.463     47.933   3.920  1.09202E+00  9.90125E-01  1.01895E-01
    9048.664     49.134   3.960  1.11480E+00  9.89772E-01  1.25032E-01
    9049.877     50.347   4.000  1.13017E+00  9.89487E-01  1.40684E-01
    9051.102     51.572   4.040  1.13703E+00  9.89272E-01  1.47756E-01
    9052.340     52.810   4.080  1.13603E+00  9.89084E-01  1.46943E-01
    9053.590     54.059   4.120  1.12885E+00  9.88983E-01  1.39866E-01
    9054.851     55.321   4.160  1.11710E+00  9.88908E-01  1.28196E-01
    9056.125     56.595   4.200  1.10212E+00  9.88901E-01  1.13216E-01
    9057.412     57.882   4.240  1.08484E+00  9.88939E-01  9.59044E-02
    9058.710     59.180   4.280  1.06622E+00  9.89041E-01  7.71807E-02
    9060.021     60.491   4.320  1.04716E+00  9.89166E-01  5.79966E-02
    9061.344     61.813   4.360  1.02867E+00  9.89354E-01  3.93152E-02
    9062.679     63.148   4.400  1.01158E+00  9.89583E-01  2.20005E-02
    9064.026     64.496   4.440  9.96466E-01  9.89850E-01  6.61648E-03
    9065.385     65.855   4.480  9.83298E-01  9.90133E-01 -6.83488E-03
    9066.757     67.227   4.520  9.71766E-01  9.90474E-01 -1.87081E-02
    9068.141     68.610   4.560  9.61575E-01  9.90830E-01 -2.92541E-02
    9069.537     70.006   4.600  9.52926E-01  9.91218E-01 -3.82915E-02
    9070.945     71.415   4.640  9.46323E-01  9.91617E-01 -4.52942E-02
    9072.365     72.835   4.680  9.42394E-01  9.92068E-01 -4.96742E-02
    9073.798     74.268   4.720  9.41274E-01  9.92506E-01 -5.12319E-02
    9075.242     75.712   4.760  9.42916E-01  9.92971E-01 -5.00545E-02
    9076.699     77.169   4.800  9.47163E-01  9.93439E-01 -4.62754E-02
    9078.168     78.638   4.840  9.53917E-01  9.93910E-01 -3.99932E-02
    9079.650     80.120   4.880  9.63044E-01  9.94405E-01 -3.13612E-02
    9081.143     81.613   4.920  9.73978E-01  9.94879E-01 -2.09010E-02
    9082.649     83.119   4.960  9.85788E-01  9.95372E-01 -9.58438E-03
    9084.167     84.637   5.000  9.97261E-01  9.95841E-01  1.42021E-03
    9085.697     86.167   5.040  1.00751E+00  9.96304E-01  1.12109E-02
    9087.239     87.709   5.080  1.01623E+00  9.96760E-01  1.94689E-02
    9088.794     89.264   5.120  1.02343E+00  9.97188E-01  2.62423E-02
    9090.360     90.830   5.160  1.02914E+00  9.97608E-01  3.15341E-02
    9091.939     92.409   5.200  1.03311E+00  9.98019E-01  3.50902E-02
    9093.530     94.000   5.240  1.03474E+00  9.98396E-01  3.63401E-02
    9095.134     95.603   5.280  1.03333E+00  9.98740E-01  3.45945E-02
    9096.749     97.219   5.320  1.02839E+00  9.99070E-01  2.93207E-02
    9098.377     98.847   5.360  1.01986E+00  9.99364E-01  2.04970E-02
    9100.016    100.486   5.400  1.00828E+00  9.99620E-01  8.66196E-03
    9101.668    102.138   5.440  9.94609E-01  9.99839E-01 -5.22957E-03
    9103.333    103.803   5.480  9.79888E-01  1.00004E+00 -2.01546E-02
    9105.009    105.479   5.520  9.64944E-01  1.00019E+00 -3.52414E-02
    9106.698    107.168   5.560  9.50523E-01  1.00031E+00 -4.97874E-02
    9108.398    108.868   5.600  9.37239E-01  1.00040E+00 -6.31604E-02
    9110.111    110.581   5.640  9.25500E-01  1.00045E+00 -7.49487E-02
    9111.837    112.306   5.680  9.15392E-01  1.00046E+00 -8.50650E-02
    9113.574    114.044   5.720  9.06985E-01  1.00043E+00 -9.34408E-02
    9115.323    115.793   5.760  9.00855E-01  1.00035E+00 -9.95000E-02
    9117.085    117.555   5.800  8.98039E-01  1.00024E+00 -1.02204E-01
    9118.859    119.329   5.840  8.99524E-01  1.00009E+00 -1.00569E-01
    9120.645    121.115   5.880  9.05915E-01  9.99905E-01 -9.39900E-02
    9122.444    122.913   5.920  9.17472E-01  9.99679E-01 -8.22077E-02
    9124.254    124.724   5.960  9.34153E-01  9.99414E-01 -6.52612E-02
    9126.077    126.547   6.000  9.56213E-01  9.99087E-01 -4.28745E-02
