# # comment:                                                     FEFF 9.9.1  
# # Source:
# # Structure
# # Reduced
# # space
# # abc:
# # angles:
# # sites:
# # POT  SCF 100  7.0000   0, screened core-hole, AFOLP (folp(0)= 1.150)
# # Abs   Z=29 Rmt= 1.204 Rnm= 1.327 K  shell
# # Pot 1 Z=29 Rmt= 1.204 Rnm= 1.327
# # Pot 2 Z=15 Rmt= 0.941 Rnm= 1.158
# # Pot 3 Z= 7 Rmt= 0.646 Rnm= 0.950
# # Pot 4 Z= 8 Rmt= 0.886 Rnm= 1.046
# # Gam_ch=1.729E+00 H-L exch Vi= 0.000E+00 Vr= 0.000E+00
# # Mu=-6.746E+00eV kf=2.555E+00 Vint=-1.727E+01eV Rs_int= 1.419
# FMS rfms= 9.0000
# # PATH  Rmax=-1.000,  Keep_limit= 0.00, Heap_limit 0.00  Pwcrit= 2.50%
#  S02=0.950  Temp=   0.00  Debye_temp=   0.00  Global_sig2= 0.00000
#  Energy zero shift, vr, vi    0.00000E+00   0.00000E+00
#  Curved wave amplitude ratio filter   4.000%
#     file         sig2 tot  cw amp ratio   deg  nlegs   reff  inp sig2
#     0/   0 paths used
#  xsedge+ 50, used to normalize mu           2.4956E-04
#  -----------------------------------------------------------------------
#  omega    e    k    mu    mu0     chi     @#
    8983.279    -10.556  -1.000  4.18683E-02  5.21187E-02 -1.02504E-02
    8983.577    -10.258  -0.960  4.45469E-02  5.59042E-02 -1.13573E-02
    8983.864     -9.971  -0.920  4.75045E-02  6.01132E-02 -1.26086E-02
    8984.138     -9.697  -0.880  5.07824E-02  6.48086E-02 -1.40262E-02
    8984.400     -9.435  -0.840  5.44281E-02  7.00636E-02 -1.56355E-02
    8984.650     -9.185  -0.800  5.84972E-02  7.59632E-02 -1.74660E-02
    8984.888     -8.947  -0.760  6.30533E-02  8.26048E-02 -1.95514E-02
    8985.114     -8.721  -0.720  6.81686E-02  9.00987E-02 -2.19301E-02
    8985.327     -8.508  -0.680  7.39222E-02  9.85665E-02 -2.46443E-02
    8985.528     -8.307  -0.640  8.03980E-02  1.08137E-01 -2.77386E-02
    8985.717     -8.118  -0.600  8.76786E-02  1.18935E-01 -3.12568E-02
    8985.894     -7.941  -0.560  9.58344E-02  1.31071E-01 -3.52364E-02
    8986.058     -7.777  -0.520  1.04908E-01  1.44607E-01 -3.96992E-02
    8986.211     -7.624  -0.480  1.14893E-01  1.59532E-01 -4.46390E-02
    8986.351     -7.484  -0.440  1.25705E-01  1.75713E-01 -5.00071E-02
    8986.479     -7.356  -0.400  1.37166E-01  1.92867E-01 -5.57010E-02
    8986.595     -7.240  -0.360  1.48988E-01  2.10548E-01 -6.15603E-02
    8986.699     -7.136  -0.320  1.60800E-01  2.28179E-01 -6.73799E-02
    8986.790     -7.045  -0.280  1.72182E-01  2.45118E-01 -7.29358E-02
    8986.869     -6.966  -0.240  1.82728E-01  2.60748E-01 -7.80198E-02
    8986.936     -6.899  -0.200  1.92088E-01  2.74554E-01 -8.24660E-02
    8986.991     -6.844  -0.160  1.99998E-01  2.86162E-01 -8.61640E-02
    8987.034     -6.801  -0.120  2.06280E-01  2.95334E-01 -8.90541E-02
    8987.064     -6.771  -0.080  2.10824E-01  3.01938E-01 -9.11144E-02
    8987.089     -6.746   0.000  2.14492E-01  3.07243E-01 -9.27510E-02
    8987.144     -6.691   0.120  2.22740E-01  3.19191E-01 -9.64506E-02
    8987.186     -6.649   0.160  2.29181E-01  3.28469E-01 -9.92872E-02
    8987.241     -6.594   0.200  2.37450E-01  3.40307E-01 -1.02857E-01
    8987.308     -6.527   0.240  2.47476E-01  3.54533E-01 -1.07057E-01
    8987.387     -6.448   0.280  2.59082E-01  3.70851E-01 -1.11769E-01
    8987.479     -6.356   0.320  2.71992E-01  3.88806E-01 -1.16814E-01
    8987.582     -6.253   0.360  2.85793E-01  4.07863E-01 -1.22070E-01
    8987.698     -6.137   0.400  2.99965E-01  4.27454E-01 -1.27489E-01
    8987.826     -6.009   0.440  3.13838E-01  4.47059E-01 -1.33221E-01
    8987.967     -5.869   0.480  3.26648E-01  4.66261E-01 -1.39613E-01
    8988.119     -5.716   0.520  3.37693E-01  4.84826E-01 -1.47133E-01
    8988.284     -5.552   0.560  3.46464E-01  5.02578E-01 -1.56114E-01
    8988.460     -5.375   0.600  3.53116E-01  5.19568E-01 -1.66452E-01
    8988.649     -5.186   0.640  3.58350E-01  5.35796E-01 -1.77445E-01
    8988.850     -4.985   0.680  3.63434E-01  5.51360E-01 -1.87926E-01
    8989.064     -4.771   0.720  3.69665E-01  5.66372E-01 -1.96706E-01
    8989.289     -4.546   0.760  3.77781E-01  5.80920E-01 -2.03139E-01
    8989.527     -4.308   0.800  3.87643E-01  5.95108E-01 -2.07465E-01
    8989.777     -4.058   0.840  3.98153E-01  6.09005E-01 -2.10852E-01
    8990.039     -3.796   0.880  4.07776E-01  6.22667E-01 -2.14891E-01
    8990.313     -3.522   0.920  4.15649E-01  6.36137E-01 -2.20488E-01
    8990.600     -3.235   0.960  4.22397E-01  6.49486E-01 -2.27089E-01
    8990.899     -2.936   1.000  4.29504E-01  6.62696E-01 -2.33192E-01
    8991.210     -2.625   1.040  4.37998E-01  6.75817E-01 -2.37819E-01
    8991.533     -2.302   1.080  4.47951E-01  6.88852E-01 -2.40901E-01
    8991.868     -1.967   1.120  4.59566E-01  7.01800E-01 -2.42234E-01
    8992.215     -1.620   1.160  4.73620E-01  7.14633E-01 -2.41013E-01
    8992.575     -1.260   1.200  4.90810E-01  7.27380E-01 -2.36570E-01
    8992.947     -0.888   1.240  5.10850E-01  7.40003E-01 -2.29153E-01
    8993.331     -0.504   1.280  5.32733E-01  7.52484E-01 -2.19751E-01
    8993.727     -0.108   1.320  5.55531E-01  7.64841E-01 -2.09310E-01
    8994.136      0.301   1.360  5.79149E-01  7.77013E-01 -1.97863E-01
    8994.556      0.721   1.400  6.04794E-01  7.89014E-01 -1.84221E-01
    8994.989      1.154   1.440  6.34645E-01  8.00800E-01 -1.66154E-01
    8995.434      1.599   1.480  6.70109E-01  8.12384E-01 -1.42275E-01
    8995.891      2.056   1.520  7.08176E-01  8.23700E-01 -1.15524E-01
    8996.361      2.526   1.560  7.45526E-01  8.34760E-01 -8.92338E-02
    8996.842      3.007   1.600  7.82606E-01  8.45539E-01 -6.29324E-02
    8997.336      3.501   1.640  8.16336E-01  8.56010E-01 -3.96739E-02
    8997.842      4.007   1.680  8.41374E-01  8.66166E-01 -2.47920E-02
    8998.360      4.525   1.720  8.62187E-01  8.76001E-01 -1.38141E-02
    8998.891      5.055   1.760  8.89255E-01  8.85490E-01  3.76475E-03
    8999.433      5.598   1.800  9.29618E-01  8.94610E-01  3.50081E-02
    8999.988      6.153   1.840  9.80897E-01  9.03375E-01  7.75216E-02
    9000.555      6.720   1.880  1.03250E+00  9.11764E-01  1.20735E-01
    9001.134      7.299   1.920  1.07579E+00  9.19771E-01  1.56016E-01
    9001.725      7.890   1.960  1.10888E+00  9.27376E-01  1.81507E-01
    9002.329      8.494   2.000  1.13326E+00  9.34600E-01  1.98656E-01
    9002.944      9.109   2.040  1.15182E+00  9.41440E-01  2.10384E-01
    9003.572      9.737   2.080  1.16841E+00  9.47877E-01  2.20532E-01
    9004.212     10.377   2.120  1.18406E+00  9.53935E-01  2.30121E-01
    9004.865     11.030   2.160  1.19172E+00  9.59595E-01  2.32121E-01
    9005.529     11.694   2.200  1.18392E+00  9.64878E-01  2.19039E-01
    9006.206     12.371   2.240  1.16382E+00  9.69788E-01  1.94033E-01
    9006.895     13.059   2.280  1.14083E+00  9.74331E-01  1.66496E-01
    9007.596     13.761   2.320  1.12177E+00  9.78509E-01  1.43264E-01
    9008.309     14.474   2.360  1.11180E+00  9.82348E-01  1.29451E-01
    9009.034     15.199   2.400  1.11383E+00  9.85834E-01  1.27993E-01
    9009.772     15.937   2.440  1.12418E+00  9.88991E-01  1.35186E-01
    9010.522     16.687   2.480  1.13609E+00  9.91845E-01  1.44248E-01
    9011.284     17.449   2.520  1.14528E+00  9.94364E-01  1.50914E-01
    9012.058     18.223   2.560  1.15037E+00  9.96614E-01  1.53760E-01
    9012.844     19.009   2.600  1.15084E+00  9.98580E-01  1.52258E-01
    9013.643     19.808   2.640  1.14632E+00  1.00027E+00  1.46047E-01
    9014.454     20.618   2.680  1.13630E+00  1.00171E+00  1.34590E-01
    9015.276     21.441   2.720  1.11938E+00  1.00291E+00  1.16468E-01
    9016.112     22.277   2.760  1.09673E+00  1.00390E+00  9.28338E-02
    9016.959     23.124   2.800  1.07333E+00  1.00468E+00  6.86535E-02
    9017.819     23.983   2.840  1.05099E+00  1.00524E+00  4.57483E-02
    9018.690     24.855   2.880  1.02688E+00  1.00564E+00  2.12393E-02
    9019.574     25.739   2.920  9.99626E-01  1.00586E+00 -6.23175E-03
    9020.470     26.635   2.960  9.76840E-01  1.00591E+00 -2.90733E-02
    9021.379     27.544   3.000  9.61122E-01  1.00581E+00 -4.46927E-02
    9022.299     28.464   3.040  9.48701E-01  1.00561E+00 -5.69074E-02
    9023.232     29.397   3.080  9.37232E-01  1.00526E+00 -6.80274E-02
    9024.177     30.342   3.120  9.26202E-01  1.00481E+00 -7.86117E-02
    9025.134     31.299   3.160  9.15936E-01  1.00426E+00 -8.83237E-02
    9026.103     32.268   3.200  9.07053E-01  1.00364E+00 -9.65893E-02
    9027.084     33.249   3.240  9.00142E-01  1.00292E+00 -1.02782E-01
    9028.078     34.243   3.280  8.95731E-01  1.00215E+00 -1.06420E-01
    9029.084     35.249   3.320  8.93598E-01  1.00133E+00 -1.07731E-01
    9030.102     36.267   3.360  8.93397E-01  1.00044E+00 -1.07045E-01
    9031.132     37.297   3.400  8.94751E-01  9.99513E-01 -1.04762E-01
    9032.175     38.339   3.440  8.97203E-01  9.98569E-01 -1.01366E-01
    9033.229     39.394   3.480  9.00332E-01  9.97613E-01 -9.72819E-02
    9034.296     40.461   3.520  9.03675E-01  9.96609E-01 -9.29338E-02
    9035.375     41.540   3.560  9.06977E-01  9.95618E-01 -8.86415E-02
    9036.466     42.631   3.600  9.10018E-01  9.94627E-01 -8.46089E-02
    9037.569     43.734   3.640  9.12985E-01  9.93638E-01 -8.06530E-02
    9038.685     44.850   3.680  9.16292E-01  9.92652E-01 -7.63597E-02
    9039.813     45.978   3.720  9.20444E-01  9.91692E-01 -7.12479E-02
    9040.953     47.118   3.760  9.25810E-01  9.90741E-01 -6.49308E-02
    9042.105     48.270   3.800  9.32571E-01  9.89820E-01 -5.72493E-02
    9043.269     49.434   3.840  9.40574E-01  9.88911E-01 -4.83374E-02
    9044.446     50.611   3.880  9.49453E-01  9.88038E-01 -3.85846E-02
    9045.634     51.799   3.920  9.58880E-01  9.87223E-01 -2.83424E-02
    9046.835     53.000   3.960  9.68488E-01  9.86424E-01 -1.79360E-02
    9048.048     54.213   4.000  9.78039E-01  9.85663E-01 -7.62346E-03
    9049.274     55.439   4.040  9.87352E-01  9.84941E-01  2.41177E-03
    9050.511     56.676   4.080  9.96302E-01  9.84261E-01  1.20415E-02
    9051.761     57.926   4.120  1.00478E+00  9.83643E-01  2.11331E-02
    9053.023     59.188   4.160  1.01262E+00  9.83046E-01  2.95755E-02
    9054.297     60.462   4.200  1.01977E+00  9.82511E-01  3.72541E-02
    9055.583     61.748   4.240  1.02602E+00  9.82021E-01  4.39979E-02
    9056.882     63.046   4.280  1.03119E+00  9.81575E-01  4.96192E-02
    9058.192     64.357   4.320  1.03523E+00  9.81192E-01  5.40348E-02
    9059.515     65.680   4.360  1.03806E+00  9.80830E-01  5.72309E-02
    9060.850     67.015   4.400  1.03973E+00  9.80532E-01  5.91956E-02
    9062.197     68.362   4.440  1.04022E+00  9.80278E-01  5.99437E-02
    9063.557     69.722   4.480  1.03953E+00  9.80066E-01  5.94635E-02
    9064.928     71.093   4.520  1.03769E+00  9.79918E-01  5.77734E-02
    9066.312     72.477   4.560  1.03483E+00  9.79790E-01  5.50372E-02
    9067.708     73.873   4.600  1.03126E+00  9.79722E-01  5.15352E-02
    9069.116     75.281   4.640  1.02722E+00  9.79674E-01  4.75469E-02
    9070.537     76.701   4.680  1.02298E+00  9.79687E-01  4.32883E-02
    9071.969     78.134   4.720  1.01860E+00  9.79737E-01  3.88587E-02
    9073.414     79.579   4.760  1.01407E+00  9.79802E-01  3.42694E-02
    9074.871     81.036   4.800  1.00946E+00  9.79903E-01  2.95539E-02
    9076.340     82.505   4.840  1.00489E+00  9.80042E-01  2.48461E-02
    9077.821     83.986   4.880  1.00056E+00  9.80215E-01  2.03406E-02
    9079.315     85.480   4.920  9.96657E-01  9.80421E-01  1.62355E-02
    9080.820     86.985   4.960  9.93266E-01  9.80637E-01  1.26293E-02
    9082.338     88.503   5.000  9.90346E-01  9.80860E-01  9.48645E-03
    9083.868     90.033   5.040  9.87802E-01  9.81114E-01  6.68798E-03
    9085.411     91.576   5.080  9.85513E-01  9.81399E-01  4.11383E-03
    9086.965     93.130   5.120  9.83434E-01  9.81688E-01  1.74567E-03
    9088.532     94.697   5.160  9.81649E-01  9.81980E-01 -3.31023E-04
    9090.111     96.276   5.200  9.80289E-01  9.82274E-01 -1.98547E-03
    9091.702     97.867   5.240  9.79421E-01  9.82571E-01 -3.14921E-03
    9093.305     99.470   5.280  9.79026E-01  9.82890E-01 -3.86420E-03
    9094.920    101.085   5.320  9.78914E-01  9.83189E-01 -4.27539E-03
    9096.548    102.713   5.360  9.78887E-01  9.83507E-01 -4.61986E-03
    9098.188    104.353   5.400  9.78600E-01  9.83798E-01 -5.19805E-03
    9099.840    106.005   5.440  9.77795E-01  9.84087E-01 -6.29213E-03
    9101.504    107.669   5.480  9.76291E-01  9.84370E-01 -8.07946E-03
    9103.180    109.345   5.520  9.74044E-01  9.84624E-01 -1.05804E-02
    9104.869    111.034   5.560  9.71199E-01  9.84872E-01 -1.36727E-02
    9106.570    112.735   5.600  9.67990E-01  9.85112E-01 -1.71222E-02
    9108.283    114.448   5.640  9.64672E-01  9.85321E-01 -2.06495E-02
    9110.008    116.173   5.680  9.61541E-01  9.85520E-01 -2.39789E-02
    9111.745    117.910   5.720  9.58801E-01  9.85686E-01 -2.68852E-02
    9113.495    119.660   5.760  9.56598E-01  9.85818E-01 -2.92205E-02
    9115.257    121.422   5.800  9.54946E-01  9.85938E-01 -3.09915E-02
    9117.030    123.195   5.840  9.53666E-01  9.86023E-01 -3.23568E-02
    9118.817    124.982   5.880  9.52529E-01  9.86071E-01 -3.35425E-02
    9120.615    126.780   5.920  9.51405E-01  9.86082E-01 -3.46770E-02
    9122.425    128.590   5.960  9.50474E-01  9.86080E-01 -3.56055E-02
    9124.248    130.413   6.000  9.50231E-01  9.86023E-01 -3.57923E-02
