# # comment:                                                     FEFF 9.9.1  
# # Source:
# # Structure
# # Reduced
# # space
# # abc:
# # angles:
# # sites:
# # POT  SCF 100  7.0000   0, screened core-hole, AFOLP (folp(0)= 1.150)
# # Abs   Z=29 Rmt= 1.211 Rnm= 1.336 K  shell
# # Pot 1 Z= 3 Rmt= 1.201 Rnm= 1.301
# # Pot 2 Z=29 Rmt= 1.222 Rnm= 1.338
# # Pot 3 Z= 8 Rmt= 0.954 Rnm= 1.096
# # Pot 4 Z= 9 Rmt= 1.020 Rnm= 1.126
# # Gam_ch=1.729E+00 H-L exch Vi= 0.000E+00 Vr= 0.000E+00
# # Mu=-6.407E+00eV kf=1.982E+00 Vint=-1.290E+01eV Rs_int= 1.830
# FMS rfms= 9.0000
# # PATH  Rmax=-1.000,  Keep_limit= 0.00, Heap_limit 0.00  Pwcrit= 2.50%
#  S02=0.950  Temp=   0.00  Debye_temp=   0.00  Global_sig2= 0.00000
#  Energy zero shift, vr, vi    0.00000E+00   0.00000E+00
#  Curved wave amplitude ratio filter   4.000%
#     file         sig2 tot  cw amp ratio   deg  nlegs   reff  inp sig2
#     0/   0 paths used
#  xsedge+ 50, used to normalize mu           2.3957E-04
#  -----------------------------------------------------------------------
#  omega    e    k    mu    mu0     chi     @#
    8983.657    -10.217  -1.000  3.93648E-02  5.98798E-02 -2.05150E-02
    8983.956     -9.919  -0.960  4.12224E-02  6.42788E-02 -2.30564E-02
    8984.242     -9.632  -0.920  4.31866E-02  6.91630E-02 -2.59764E-02
    8984.516     -9.358  -0.880  4.52647E-02  7.46027E-02 -2.93380E-02
    8984.779     -9.096  -0.840  4.74647E-02  8.06793E-02 -3.32147E-02
    8985.029     -8.846  -0.800  4.97955E-02  8.74874E-02 -3.76919E-02
    8985.266     -8.608  -0.760  5.22667E-02  9.51347E-02 -4.28680E-02
    8985.492     -8.382  -0.720  5.48888E-02  1.03743E-01 -4.88543E-02
    8985.705     -8.169  -0.680  5.76722E-02  1.13446E-01 -5.57737E-02
    8985.906     -7.968  -0.640  6.06274E-02  1.24384E-01 -6.37569E-02
    8986.095     -7.779  -0.600  6.37625E-02  1.36696E-01 -7.29331E-02
    8986.272     -7.602  -0.560  6.70815E-02  1.50497E-01 -8.34155E-02
    8986.437     -7.437  -0.520  7.05795E-02  1.65857E-01 -9.52775E-02
    8986.589     -7.285  -0.480  7.42382E-02  1.82758E-01 -1.08520E-01
    8986.729     -7.145  -0.440  7.80192E-02  2.01053E-01 -1.23034E-01
    8986.857     -7.017  -0.400  8.18605E-02  2.20427E-01 -1.38566E-01
    8986.973     -6.901  -0.360  8.56764E-02  2.40387E-01 -1.54711E-01
    8987.077     -6.797  -0.320  8.93654E-02  2.60293E-01 -1.70928E-01
    8987.168     -6.706  -0.280  9.28236E-02  2.79431E-01 -1.86608E-01
    8987.247     -6.627  -0.240  9.59586E-02  2.97113E-01 -2.01155E-01
    8987.315     -6.560  -0.200  9.86986E-02  3.12758E-01 -2.14059E-01
    8987.369     -6.505  -0.160  1.00994E-01  3.25935E-01 -2.24941E-01
    8987.412     -6.462  -0.120  1.02811E-01  3.36366E-01 -2.33555E-01
    8987.443     -6.432  -0.080  1.04130E-01  3.43890E-01 -2.39760E-01
    8987.467     -6.407   0.000  1.05214E-01  3.49943E-01 -2.44729E-01
    8987.522     -6.352   0.120  1.07719E-01  3.63588E-01 -2.55869E-01
    8987.564     -6.310   0.160  1.09616E-01  3.74218E-01 -2.64602E-01
    8987.619     -6.255   0.200  1.12043E-01  3.87833E-01 -2.75789E-01
    8987.686     -6.188   0.240  1.14989E-01  4.04255E-01 -2.89266E-01
    8987.766     -6.109   0.280  1.18479E-01  4.23200E-01 -3.04721E-01
    8987.857     -6.017   0.320  1.22517E-01  4.44242E-01 -3.21725E-01
    8987.961     -5.913   0.360  1.27142E-01  4.66797E-01 -3.39655E-01
    8988.077     -5.798   0.400  1.32438E-01  4.90288E-01 -3.57850E-01
    8988.205     -5.670   0.440  1.38512E-01  5.14184E-01 -3.75672E-01
    8988.345     -5.529   0.480  1.45512E-01  5.38049E-01 -3.92536E-01
    8988.497     -5.377   0.520  1.53604E-01  5.61572E-01 -4.07967E-01
    8988.662     -5.212   0.560  1.62982E-01  5.84603E-01 -4.21620E-01
    8988.839     -5.036   0.600  1.73859E-01  6.07097E-01 -4.33239E-01
    8989.028     -4.847   0.640  1.86515E-01  6.29079E-01 -4.42565E-01
    8989.229     -4.645   0.680  2.01281E-01  6.50586E-01 -4.49305E-01
    8989.442     -4.432   0.720  2.18726E-01  6.71687E-01 -4.52961E-01
    8989.668     -4.207   0.760  2.39570E-01  6.92408E-01 -4.52837E-01
    8989.905     -3.969   0.800  2.64754E-01  7.12803E-01 -4.48049E-01
    8990.155     -3.719   0.840  2.95234E-01  7.32873E-01 -4.37638E-01
    8990.417     -3.457   0.880  3.31970E-01  7.52641E-01 -4.20671E-01
    8990.692     -3.182   0.920  3.75635E-01  7.72079E-01 -3.96444E-01
    8990.978     -2.896   0.960  4.26338E-01  7.91185E-01 -3.64846E-01
    8991.277     -2.597   1.000  4.83442E-01  8.09906E-01 -3.26463E-01
    8991.588     -2.286   1.040  5.46000E-01  8.28180E-01 -2.82180E-01
    8991.911     -1.963   1.080  6.12497E-01  8.46004E-01 -2.33508E-01
    8992.246     -1.628   1.120  6.78590E-01  8.63284E-01 -1.84694E-01
    8992.594     -1.281   1.160  7.35951E-01  8.79987E-01 -1.44035E-01
    8992.953     -0.921   1.200  7.78005E-01  8.96077E-01 -1.18072E-01
    8993.325     -0.549   1.240  8.11168E-01  9.11477E-01 -1.00309E-01
    8993.709     -0.165   1.280  8.55050E-01  9.26155E-01 -7.11042E-02
    8994.105      0.231   1.320  9.24785E-01  9.40073E-01 -1.52879E-02
    8994.514      0.640   1.360  1.01398E+00  9.53203E-01  6.07774E-02
    8994.935      1.060   1.400  1.09049E+00  9.65516E-01  1.24970E-01
    8995.367      1.493   1.440  1.11742E+00  9.76984E-01  1.40441E-01
    8995.812      1.938   1.480  1.08919E+00  9.87605E-01  1.01589E-01
    8996.270      2.395   1.520  1.03324E+00  9.97379E-01  3.58575E-02
    8996.739      2.865   1.560  9.85521E-01  1.00629E+00 -2.07690E-02
    8997.221      3.346   1.600  9.67171E-01  1.01436E+00 -4.71934E-02
    8997.714      3.840   1.640  9.81625E-01  1.02159E+00 -3.99652E-02
    8998.220      4.346   1.680  1.02469E+00  1.02802E+00 -3.32917E-03
    8998.738      4.864   1.720  1.08485E+00  1.03365E+00  5.12033E-02
    8999.269      5.395   1.760  1.14566E+00  1.03853E+00  1.07121E-01
    8999.811      5.937   1.800  1.19886E+00  1.04269E+00  1.56172E-01
    9000.366      6.492   1.840  1.24883E+00  1.04616E+00  2.02667E-01
    9000.933      7.059   1.880  1.29269E+00  1.04898E+00  2.43708E-01
    9001.512      7.638   1.920  1.31814E+00  1.05118E+00  2.66958E-01
    9002.103      8.229   1.960  1.32107E+00  1.05281E+00  2.68254E-01
    9002.707      8.833   2.000  1.31391E+00  1.05390E+00  2.60007E-01
    9003.323      9.448   2.040  1.31030E+00  1.05451E+00  2.55791E-01
    9003.950     10.076   2.080  1.31018E+00  1.05466E+00  2.55520E-01
    9004.591     10.716   2.120  1.30486E+00  1.05441E+00  2.50450E-01
    9005.243     11.369   2.160  1.28781E+00  1.05379E+00  2.34025E-01
    9005.907     12.033   2.200  1.25720E+00  1.05283E+00  2.04374E-01
    9006.584     12.710   2.240  1.21964E+00  1.05159E+00  1.68043E-01
    9007.273     13.399   2.280  1.18657E+00  1.05010E+00  1.36467E-01
    9007.974     14.100   2.320  1.15965E+00  1.04837E+00  1.11279E-01
    9008.687     14.813   2.360  1.14028E+00  1.04645E+00  9.38272E-02
    9009.412     15.538   2.400  1.13221E+00  1.04437E+00  8.78329E-02
    9010.150     16.276   2.440  1.12076E+00  1.04216E+00  7.86026E-02
    9010.900     17.026   2.480  1.10150E+00  1.03983E+00  6.16712E-02
    9011.662     17.788   2.520  1.08016E+00  1.03744E+00  4.27274E-02
    9012.436     18.562   2.560  1.05990E+00  1.03499E+00  2.49118E-02
    9013.222     19.348   2.600  1.04132E+00  1.03249E+00  8.82838E-03
    9014.021     20.147   2.640  1.02437E+00  1.02999E+00 -5.62238E-03
    9014.832     20.958   2.680  1.00937E+00  1.02750E+00 -1.81279E-02
    9015.655     21.781   2.720  9.96412E-01  1.02502E+00 -2.86049E-02
    9016.490     22.616   2.760  9.85129E-01  1.02257E+00 -3.74388E-02
    9017.337     23.463   2.800  9.75003E-01  1.02016E+00 -4.51616E-02
    9018.197     24.323   2.840  9.65642E-01  1.01783E+00 -5.21908E-02
    9019.068     25.194   2.880  9.56985E-01  1.01558E+00 -5.85949E-02
    9019.952     26.078   2.920  9.49230E-01  1.01341E+00 -6.41796E-02
    9020.849     26.974   2.960  9.42580E-01  1.01133E+00 -6.87462E-02
    9021.757     27.883   3.000  9.37132E-01  1.00936E+00 -7.22249E-02
    9022.677     28.803   3.040  9.32639E-01  1.00748E+00 -7.48431E-02
    9023.610     29.736   3.080  9.28917E-01  1.00575E+00 -7.68311E-02
    9024.555     30.681   3.120  9.25786E-01  1.00411E+00 -7.83282E-02
    9025.512     31.638   3.160  9.23043E-01  1.00260E+00 -7.95605E-02
    9026.481     32.607   3.200  9.20470E-01  1.00122E+00 -8.07480E-02
    9027.463     33.588   3.240  9.18026E-01  9.99959E-01 -8.19339E-02
    9028.456     34.582   3.280  9.15787E-01  9.98851E-01 -8.30640E-02
    9029.462     35.588   3.320  9.13942E-01  9.97872E-01 -8.39302E-02
    9030.480     36.606   3.360  9.12768E-01  9.97023E-01 -8.42544E-02
    9031.510     37.636   3.400  9.12837E-01  9.96324E-01 -8.34874E-02
    9032.553     38.679   3.440  9.14541E-01  9.95733E-01 -8.11925E-02
    9033.607     39.733   3.480  9.18251E-01  9.95294E-01 -7.70425E-02
    9034.674     40.800   3.520  9.24062E-01  9.95005E-01 -7.09436E-02
    9035.753     41.879   3.560  9.31838E-01  9.94823E-01 -6.29850E-02
    9036.844     42.970   3.600  9.41308E-01  9.94789E-01 -5.34812E-02
    9037.948     44.074   3.640  9.51939E-01  9.94879E-01 -4.29403E-02
    9039.063     45.189   3.680  9.63020E-01  9.95070E-01 -3.20500E-02
    9040.191     46.317   3.720  9.73949E-01  9.95406E-01 -2.14567E-02
    9041.331     47.457   3.760  9.84280E-01  9.95841E-01 -1.15603E-02
    9042.483     48.609   3.800  9.93907E-01  9.96393E-01 -2.48651E-03
    9043.647     49.773   3.840  1.00291E+00  9.97063E-01  5.85212E-03
    9044.824     50.950   3.880  1.01153E+00  9.97825E-01  1.37020E-02
    9046.013     52.139   3.920  1.02003E+00  9.98698E-01  2.13285E-02
    9047.214     53.339   3.960  1.02855E+00  9.99657E-01  2.88948E-02
    9048.427     54.553   4.000  1.03704E+00  1.00068E+00  3.63602E-02
    9049.652     55.778   4.040  1.04529E+00  1.00180E+00  4.34895E-02
    9050.889     57.015   4.080  1.05289E+00  1.00300E+00  4.98935E-02
    9052.139     58.265   4.120  1.05937E+00  1.00426E+00  5.51131E-02
    9053.401     59.527   4.160  1.06436E+00  1.00556E+00  5.88014E-02
    9054.675     60.801   4.200  1.06783E+00  1.00693E+00  6.09002E-02
    9055.961     62.087   4.240  1.07003E+00  1.00834E+00  6.16903E-02
    9057.260     63.386   4.280  1.07134E+00  1.00980E+00  6.15441E-02
    9058.570     64.696   4.320  1.07202E+00  1.01129E+00  6.07279E-02
    9059.893     66.019   4.360  1.07197E+00  1.01279E+00  5.91793E-02
    9061.228     67.354   4.400  1.07083E+00  1.01429E+00  5.65350E-02
    9062.575     68.701   4.440  1.06831E+00  1.01583E+00  5.24805E-02
    9063.935     70.061   4.480  1.06444E+00  1.01736E+00  4.70752E-02
    9065.306     71.432   4.520  1.05962E+00  1.01889E+00  4.07348E-02
    9066.690     72.816   4.560  1.05433E+00  1.02039E+00  3.39425E-02
    9068.086     74.212   4.600  1.04883E+00  1.02188E+00  2.69511E-02
    9069.494     75.620   4.640  1.04317E+00  1.02336E+00  1.98154E-02
    9070.915     77.041   4.680  1.03738E+00  1.02478E+00  1.26037E-02
    9072.347     78.473   4.720  1.03166E+00  1.02617E+00  5.49131E-03
    9073.792     79.918   4.760  1.02618E+00  1.02750E+00 -1.31602E-03
    9075.249     81.375   4.800  1.02112E+00  1.02878E+00 -7.66556E-03
    9076.718     82.844   4.840  1.01657E+00  1.03001E+00 -1.34458E-02
    9078.199     84.325   4.880  1.01274E+00  1.03119E+00 -1.84539E-02
    9079.693     85.819   4.920  1.00995E+00  1.03227E+00 -2.23245E-02
    9081.199     87.324   4.960  1.00870E+00  1.03330E+00 -2.45974E-02
    9082.717     88.842   5.000  1.00918E+00  1.03424E+00 -2.50539E-02
    9084.247     90.372   5.040  1.01117E+00  1.03509E+00 -2.39211E-02
    9085.789     91.915   5.080  1.01407E+00  1.03587E+00 -2.17924E-02
    9087.343     93.469   5.120  1.01719E+00  1.03655E+00 -1.93616E-02
    9088.910     95.036   5.160  1.01995E+00  1.03716E+00 -1.72070E-02
    9090.489     96.615   5.200  1.02193E+00  1.03767E+00 -1.57459E-02
    9092.080     98.206   5.240  1.02290E+00  1.03810E+00 -1.51979E-02
    9093.683     99.809   5.280  1.02291E+00  1.03842E+00 -1.55063E-02
    9095.299    101.424   5.320  1.02235E+00  1.03864E+00 -1.62950E-02
    9096.926    103.052   5.360  1.02186E+00  1.03878E+00 -1.69239E-02
    9098.566    104.692   5.400  1.02216E+00  1.03881E+00 -1.66465E-02
    9100.218    106.344   5.440  1.02390E+00  1.03877E+00 -1.48695E-02
    9101.882    108.008   5.480  1.02723E+00  1.03862E+00 -1.13955E-02
    9103.559    109.685   5.520  1.03186E+00  1.03839E+00 -6.52986E-03
    9105.247    111.373   5.560  1.03708E+00  1.03807E+00 -9.83375E-04
    9106.948    113.074   5.600  1.04198E+00  1.03767E+00  4.31147E-03
    9108.661    114.787   5.640  1.04562E+00  1.03718E+00  8.44244E-03
    9110.386    116.512   5.680  1.04728E+00  1.03662E+00  1.06629E-02
    9112.124    118.249   5.720  1.04644E+00  1.03600E+00  1.04390E-02
    9113.873    119.999   5.760  1.04297E+00  1.03531E+00  7.65352E-03
    9115.635    121.761   5.800  1.03740E+00  1.03455E+00  2.85526E-03
    9117.409    123.535   5.840  1.03084E+00  1.03374E+00 -2.89903E-03
    9119.195    125.321   5.880  1.02435E+00  1.03286E+00 -8.51120E-03
    9120.993    127.119   5.920  1.01878E+00  1.03198E+00 -1.32022E-02
    9122.804    128.929   5.960  1.01452E+00  1.03104E+00 -1.65168E-02
    9124.626    130.752   6.000  1.01187E+00  1.03002E+00 -1.81452E-02
