# # comment:                                                     FEFF 9.9.1  
# # Source:
# # Structure
# # Reduced
# # space
# # abc:
# # angles:
# # sites:
# # POT  SCF 100  7.0000   0, screened core-hole, AFOLP (folp(0)= 1.150)
# # Abs   Z=29 Rmt= 1.288 Rnm= 1.351 K  shell
# # Pot 1 Z= 3 Rmt= 1.462 Rnm= 1.516
# # Pot 2 Z=29 Rmt= 1.290 Rnm= 1.353
# # Pot 3 Z=15 Rmt= 0.946 Rnm= 1.160
# # Pot 4 Z= 8 Rmt= 0.884 Rnm= 1.044
# # Gam_ch=1.729E+00 H-L exch Vi= 0.000E+00 Vr= 0.000E+00
# # Mu=-6.553E+00eV kf=2.424E+00 Vint=-1.657E+01eV Rs_int= 1.496
# FMS rfms= 9.0000
# # PATH  Rmax=-1.000,  Keep_limit= 0.00, Heap_limit 0.00  Pwcrit= 2.50%
#  S02=0.950  Temp=   0.00  Debye_temp=   0.00  Global_sig2= 0.00000
#  Energy zero shift, vr, vi    0.00000E+00   0.00000E+00
#  Curved wave amplitude ratio filter   4.000%
#     file         sig2 tot  cw amp ratio   deg  nlegs   reff  inp sig2
#     0/   0 paths used
#  xsedge+ 50, used to normalize mu           2.4777E-04
#  -----------------------------------------------------------------------
#  omega    e    k    mu    mu0     chi     @#
    8983.409    -10.363  -1.000  3.78086E-02  5.17632E-02 -1.39546E-02
    8983.708    -10.064  -0.960  3.96833E-02  5.55076E-02 -1.58243E-02
    8983.995     -9.778  -0.920  4.16808E-02  5.96695E-02 -1.79886E-02
    8984.269     -9.503  -0.880  4.38118E-02  6.43105E-02 -2.04987E-02
    8984.531     -9.241  -0.840  4.60880E-02  6.95026E-02 -2.34147E-02
    8984.781     -8.991  -0.800  4.85222E-02  7.53293E-02 -2.68071E-02
    8985.019     -8.754  -0.760  5.11285E-02  8.18863E-02 -3.07577E-02
    8985.244     -8.528  -0.720  5.39219E-02  8.92818E-02 -3.53599E-02
    8985.458     -8.315  -0.680  5.69178E-02  9.76352E-02 -4.07175E-02
    8985.659     -8.114  -0.640  6.01310E-02  1.07073E-01 -4.69415E-02
    8985.848     -7.925  -0.600  6.35746E-02  1.17718E-01 -5.41430E-02
    8986.025     -7.748  -0.560  6.72569E-02  1.29676E-01 -6.24195E-02
    8986.189     -7.583  -0.520  7.11776E-02  1.43012E-01 -7.18343E-02
    8986.342     -7.431  -0.480  7.53231E-02  1.57711E-01 -8.23875E-02
    8986.482     -7.291  -0.440  7.96604E-02  1.73643E-01 -9.39830E-02
    8986.610     -7.163  -0.400  8.41321E-02  1.90532E-01 -1.06400E-01
    8986.726     -7.047  -0.360  8.86540E-02  2.07939E-01 -1.19285E-01
    8986.829     -6.943  -0.320  9.31184E-02  2.25295E-01 -1.32176E-01
    8986.921     -6.852  -0.280  9.74029E-02  2.41970E-01 -1.44567E-01
    8987.000     -6.772  -0.240  1.01382E-01  2.57358E-01 -1.55976E-01
    8987.067     -6.705  -0.200  1.04941E-01  2.70953E-01 -1.66011E-01
    8987.122     -6.650  -0.160  1.07982E-01  2.82384E-01 -1.74402E-01
    8987.164     -6.608  -0.120  1.10428E-01  2.91417E-01 -1.80989E-01
    8987.195     -6.577  -0.080  1.12225E-01  2.97922E-01 -1.85698E-01
    8987.219     -6.553   0.000  1.13715E-01  3.03147E-01 -1.89432E-01
    8987.274     -6.498   0.120  1.17051E-01  3.14922E-01 -1.97871E-01
    8987.317     -6.455   0.160  1.19652E-01  3.24077E-01 -2.04426E-01
    8987.372     -6.401   0.200  1.22982E-01  3.35731E-01 -2.12750E-01
    8987.439     -6.333   0.240  1.27133E-01  3.49779E-01 -2.22647E-01
    8987.518     -6.254   0.280  1.32051E-01  3.65869E-01 -2.33817E-01
    8987.609     -6.163   0.320  1.37758E-01  3.83600E-01 -2.45843E-01
    8987.713     -6.059   0.360  1.44243E-01  4.02430E-01 -2.58187E-01
    8987.829     -5.943   0.400  1.51553E-01  4.21824E-01 -2.70270E-01
    8987.957     -5.815   0.440  1.59770E-01  4.41256E-01 -2.81486E-01
    8988.097     -5.675   0.480  1.69110E-01  4.60338E-01 -2.91228E-01
    8988.250     -5.523   0.520  1.79897E-01  4.78800E-01 -2.98903E-01
    8988.414     -5.358   0.560  1.92487E-01  4.96509E-01 -3.04023E-01
    8988.591     -5.181   0.600  2.07140E-01  5.13497E-01 -3.06357E-01
    8988.780     -4.992   0.640  2.23706E-01  5.29761E-01 -3.06056E-01
    8988.981     -4.791   0.680  2.41741E-01  5.45417E-01 -3.03676E-01
    8989.194     -4.578   0.720  2.60481E-01  5.60553E-01 -3.00072E-01
    8989.420     -4.352   0.760  2.79131E-01  5.75274E-01 -2.96144E-01
    8989.658     -4.115   0.800  2.97161E-01  5.89639E-01 -2.92478E-01
    8989.908     -3.865   0.840  3.14801E-01  6.03734E-01 -2.88934E-01
    8990.170     -3.602   0.880  3.33192E-01  6.17614E-01 -2.84422E-01
    8990.444     -3.328   0.920  3.54795E-01  6.31358E-01 -2.76562E-01
    8990.731     -3.042   0.960  3.82555E-01  6.44952E-01 -2.62397E-01
    8991.029     -2.743   1.000  4.17965E-01  6.58436E-01 -2.40471E-01
    8991.340     -2.432   1.040  4.59488E-01  6.71819E-01 -2.12332E-01
    8991.663     -2.109   1.080  5.04000E-01  6.85124E-01 -1.81125E-01
    8991.999     -1.774   1.120  5.48450E-01  6.98325E-01 -1.49876E-01
    8992.346     -1.426   1.160  5.90718E-01  7.11433E-01 -1.20715E-01
    8992.706     -1.067   1.200  6.31660E-01  7.24454E-01 -9.27943E-02
    8993.078     -0.695   1.240  6.75087E-01  7.37330E-01 -6.22437E-02
    8993.462     -0.311   1.280  7.22864E-01  7.50062E-01 -2.71980E-02
    8993.858      0.086   1.320  7.69263E-01  7.62645E-01  6.61805E-03
    8994.266      0.494   1.360  8.07479E-01  7.75058E-01  3.24211E-02
    8994.687      0.915   1.400  8.41035E-01  7.87254E-01  5.37808E-02
    8995.120      1.347   1.440  8.79368E-01  7.99247E-01  8.01211E-02
    8995.565      1.792   1.480  9.28341E-01  8.10989E-01  1.17352E-01
    8996.022      2.250   1.520  9.86159E-01  8.22455E-01  1.63704E-01
    8996.491      2.719   1.560  1.04709E+00  8.33656E-01  2.13429E-01
    8996.973      3.201   1.600  1.11325E+00  8.44545E-01  2.68706E-01
    8997.467      3.694   1.640  1.18533E+00  8.55115E-01  3.30213E-01
    8997.973      4.200   1.680  1.24452E+00  8.65360E-01  3.79164E-01
    8998.491      4.719   1.720  1.26638E+00  8.75255E-01  3.91126E-01
    8999.021      5.249   1.760  1.24752E+00  8.84773E-01  3.62745E-01
    8999.564      5.791   1.800  1.20550E+00  8.93911E-01  3.11593E-01
    9000.118      6.346   1.840  1.16155E+00  9.02665E-01  2.58886E-01
    9000.685      6.913   1.880  1.12863E+00  9.11052E-01  2.17579E-01
    9001.264      7.492   1.920  1.11252E+00  9.19010E-01  1.93509E-01
    9001.856      8.083   1.960  1.11491E+00  9.26577E-01  1.88333E-01
    9002.459      8.687   2.000  1.12935E+00  9.33755E-01  1.95599E-01
    9003.075      9.303   2.040  1.13975E+00  9.40503E-01  1.99250E-01
    9003.703      9.931   2.080  1.13646E+00  9.46862E-01  1.89599E-01
    9004.343     10.571   2.120  1.12751E+00  9.52835E-01  1.74670E-01
    9004.995     11.223   2.160  1.12491E+00  9.58405E-01  1.66501E-01
    9005.660     11.887   2.200  1.13021E+00  9.63575E-01  1.66631E-01
    9006.336     12.564   2.240  1.13615E+00  9.68390E-01  1.67760E-01
    9007.025     13.253   2.280  1.13544E+00  9.72814E-01  1.62624E-01
    9007.726     13.954   2.320  1.12590E+00  9.76892E-01  1.49010E-01
    9008.439     14.667   2.360  1.10752E+00  9.80609E-01  1.26916E-01
    9009.165     15.393   2.400  1.08117E+00  9.83991E-01  9.71801E-02
    9009.902     16.130   2.440  1.05135E+00  9.87027E-01  6.43282E-02
    9010.652     16.880   2.480  1.02423E+00  9.89782E-01  3.44523E-02
    9011.414     17.642   2.520  1.00165E+00  9.92223E-01  9.42425E-03
    9012.188     18.416   2.560  9.80756E-01  9.94378E-01 -1.36216E-02
    9012.975     19.203   2.600  9.60075E-01  9.96254E-01 -3.61790E-02
    9013.773     20.001   2.640  9.41044E-01  9.97898E-01 -5.68540E-02
    9014.584     20.812   2.680  9.23349E-01  9.99278E-01 -7.59286E-02
    9015.407     21.635   2.720  9.06779E-01  1.00044E+00 -9.36612E-02
    9016.242     22.470   2.760  8.95059E-01  1.00137E+00 -1.06312E-01
    9017.090     23.317   2.800  8.89905E-01  1.00212E+00 -1.12216E-01
    9017.949     24.177   2.840  8.90310E-01  1.00268E+00 -1.12367E-01
    9018.821     25.049   2.880  8.89592E-01  1.00306E+00 -1.13473E-01
    9019.705     25.933   2.920  8.88068E-01  1.00331E+00 -1.15245E-01
    9020.601     26.829   2.960  8.86664E-01  1.00341E+00 -1.16743E-01
    9021.509     27.737   3.000  8.85745E-01  1.00335E+00 -1.17606E-01
    9022.430     28.657   3.040  8.85439E-01  1.00319E+00 -1.17754E-01
    9023.362     29.590   3.080  8.85698E-01  1.00292E+00 -1.17225E-01
    9024.307     30.535   3.120  8.86831E-01  1.00256E+00 -1.15731E-01
    9025.264     31.492   3.160  8.89208E-01  1.00212E+00 -1.12912E-01
    9026.234     32.461   3.200  8.92886E-01  1.00160E+00 -1.08714E-01
    9027.215     33.443   3.240  8.97842E-01  1.00103E+00 -1.03184E-01
    9028.209     34.436   3.280  9.04194E-01  1.00041E+00 -9.62118E-02
    9029.214     35.442   3.320  9.11803E-01  9.99722E-01 -8.79190E-02
    9030.233     36.460   3.360  9.20839E-01  9.99020E-01 -7.81815E-02
    9031.263     37.490   3.400  9.31294E-01  9.98284E-01 -6.69894E-02
    9032.305     38.533   3.440  9.43075E-01  9.97536E-01 -5.44609E-02
    9033.360     39.587   3.480  9.55947E-01  9.96760E-01 -4.08127E-02
    9034.427     40.654   3.520  9.69585E-01  9.95982E-01 -2.63973E-02
    9035.506     41.733   3.560  9.83385E-01  9.95225E-01 -1.18399E-02
    9036.597     42.824   3.600  9.96448E-01  9.94470E-01  1.97811E-03
    9037.700     43.928   3.640  1.00814E+00  9.93720E-01  1.44166E-02
    9038.816     45.043   3.680  1.01803E+00  9.92977E-01  2.50565E-02
    9039.943     46.171   3.720  1.02604E+00  9.92265E-01  3.37772E-02
    9041.083     47.311   3.760  1.03241E+00  9.91585E-01  4.08293E-02
    9042.235     48.463   3.800  1.03760E+00  9.90941E-01  4.66608E-02
    9043.400     49.628   3.840  1.04194E+00  9.90311E-01  5.16294E-02
    9044.576     50.804   3.880  1.04570E+00  9.89719E-01  5.59775E-02
    9045.765     51.993   3.920  1.04897E+00  9.89186E-01  5.97813E-02
    9046.966     53.194   3.960  1.05162E+00  9.88672E-01  6.29432E-02
    9048.179     54.407   4.000  1.05351E+00  9.88219E-01  6.52942E-02
    9049.404     55.632   4.040  1.05465E+00  9.87786E-01  6.68653E-02
    9050.642     56.870   4.080  1.05515E+00  9.87416E-01  6.77292E-02
    9051.892     58.119   4.120  1.05494E+00  9.87088E-01  6.78552E-02
    9053.153     59.381   4.160  1.05386E+00  9.86801E-01  6.70630E-02
    9054.427     60.655   4.200  1.05158E+00  9.86554E-01  6.50224E-02
    9055.714     61.941   4.240  1.04775E+00  9.86350E-01  6.14027E-02
    9057.012     63.240   4.280  1.04229E+00  9.86188E-01  5.61072E-02
    9058.323     64.551   4.320  1.03550E+00  9.86087E-01  4.94079E-02
    9059.646     65.873   4.360  1.02780E+00  9.86008E-01  4.17893E-02
    9060.981     67.208   4.400  1.01988E+00  9.85990E-01  3.38898E-02
    9062.328     68.556   4.440  1.01234E+00  9.86013E-01  2.63280E-02
    9063.687     69.915   4.480  1.00560E+00  9.86054E-01  1.95414E-02
    9065.059     71.287   4.520  9.99902E-01  9.86154E-01  1.37475E-02
    9066.443     72.670   4.560  9.95255E-01  9.86293E-01  8.96227E-03
    9067.839     74.066   4.600  9.91457E-01  9.86445E-01  5.01211E-03
    9069.247     75.474   4.640  9.88253E-01  9.86633E-01  1.62034E-03
    9070.667     76.895   4.680  9.85361E-01  9.86856E-01 -1.49516E-03
    9072.100     78.327   4.720  9.82544E-01  9.87113E-01 -4.56870E-03
    9073.544     79.772   4.760  9.79605E-01  9.87381E-01 -7.77585E-03
    9075.001     81.229   4.800  9.76436E-01  9.87678E-01 -1.12416E-02
    9076.470     82.698   4.840  9.72870E-01  9.87982E-01 -1.51112E-02
    9077.952     84.180   4.880  9.68817E-01  9.88292E-01 -1.94757E-02
    9079.445     85.673   4.920  9.64367E-01  9.88632E-01 -2.42655E-02
    9080.951     87.179   4.960  9.59827E-01  9.88998E-01 -2.91717E-02
    9082.469     88.697   5.000  9.55668E-01  9.89347E-01 -3.36785E-02
    9083.999     90.227   5.040  9.52453E-01  9.89716E-01 -3.72634E-02
    9085.541     91.769   5.080  9.50464E-01  9.90064E-01 -3.96006E-02
    9087.096     93.324   5.120  9.49771E-01  9.90433E-01 -4.06621E-02
    9088.662     94.890   5.160  9.50104E-01  9.90779E-01 -4.06745E-02
    9090.241     96.469   5.200  9.51216E-01  9.91143E-01 -3.99274E-02
    9091.832     98.060   5.240  9.52844E-01  9.91481E-01 -3.86376E-02
    9093.436     99.663   5.280  9.54914E-01  9.91812E-01 -3.68982E-02
    9095.051    101.279   5.320  9.57355E-01  9.92113E-01 -3.47577E-02
    9096.679    102.906   5.360  9.60119E-01  9.92407E-01 -3.22879E-02
    9098.318    104.546   5.400  9.63104E-01  9.92692E-01 -2.95875E-02
    9099.970    106.198   5.440  9.66164E-01  9.92943E-01 -2.67793E-02
    9101.635    107.862   5.480  9.69184E-01  9.93161E-01 -2.39769E-02
    9103.311    109.539   5.520  9.72138E-01  9.93367E-01 -2.12293E-02
    9105.000    111.227   5.560  9.75084E-01  9.93541E-01 -1.84571E-02
    9106.700    112.928   5.600  9.78214E-01  9.93700E-01 -1.54860E-02
    9108.413    114.641   5.640  9.81623E-01  9.93800E-01 -1.21772E-02
    9110.139    116.366   5.680  9.85365E-01  9.93887E-01 -8.52144E-03
    9111.876    118.104   5.720  9.89312E-01  9.93937E-01 -4.62489E-03
    9113.625    119.853   5.760  9.93358E-01  9.93973E-01 -6.15735E-04
    9115.387    121.615   5.800  9.97362E-01  9.93949E-01  3.41307E-03
    9117.161    123.389   5.840  1.00130E+00  9.93887E-01  7.41610E-03
    9118.947    125.175   5.880  1.00519E+00  9.93811E-01  1.13740E-02
    9120.746    126.973   5.920  1.00901E+00  9.93700E-01  1.53111E-02
    9122.556    128.784   5.960  1.01277E+00  9.93549E-01  1.92247E-02
    9124.379    130.606   6.000  1.01633E+00  9.93311E-01  2.30189E-02
