# # comment:                                                     FEFF 9.9.1  
# # Source:
# # Structure
# # Reduced
# # space
# # abc:
# # angles:
# # sites:
# # POT  SCF 100  7.0000   0, screened core-hole, AFOLP (folp(0)= 1.150)
# # Abs   Z=29 Rmt= 1.193 Rnm= 1.315 K  shell
# # Pot 1 Z=29 Rmt= 1.157 Rnm= 1.289
# # Pot 2 Z=52 Rmt= 1.261 Rnm= 1.436
# # Pot 3 Z=82 Rmt= 1.751 Rnm= 1.825
# # Pot 4 Z= 8 Rmt= 1.031 Rnm= 1.136
# # Gam_ch=1.729E+00 H-L exch Vi= 0.000E+00 Vr= 0.000E+00
# # Mu=-6.567E+00eV kf=2.107E+00 Vint=-1.414E+01eV Rs_int= 1.721
# FMS rfms= 9.0000
# # PATH  Rmax=-1.000,  Keep_limit= 0.00, Heap_limit 0.00  Pwcrit= 2.50%
#  S02=0.950  Temp=   0.00  Debye_temp=   0.00  Global_sig2= 0.00000
#  Energy zero shift, vr, vi    0.00000E+00   0.00000E+00
#  Curved wave amplitude ratio filter   4.000%
#     file         sig2 tot  cw amp ratio   deg  nlegs   reff  inp sig2
#     0/   0 paths used
#  xsedge+ 50, used to normalize mu           2.4277E-04
#  -----------------------------------------------------------------------
#  omega    e    k    mu    mu0     chi     @#
    8983.437    -10.377  -1.000  3.46812E-02  5.62765E-02 -2.15953E-02
    8983.735    -10.078  -0.960  3.62415E-02  6.03783E-02 -2.41367E-02
    8984.022     -9.792  -0.920  3.78930E-02  6.49339E-02 -2.70409E-02
    8984.296     -9.517  -0.880  3.96429E-02  7.00096E-02 -3.03667E-02
    8984.558     -9.255  -0.840  4.14997E-02  7.56824E-02 -3.41827E-02
    8984.808     -9.005  -0.800  4.34724E-02  8.20414E-02 -3.85690E-02
    8985.046     -8.767  -0.760  4.55715E-02  8.91889E-02 -4.36175E-02
    8985.271     -8.542  -0.720  4.78078E-02  9.72403E-02 -4.94325E-02
    8985.485     -8.328  -0.680  5.01929E-02  1.06322E-01 -5.61294E-02
    8985.686     -8.127  -0.640  5.27381E-02  1.16569E-01 -6.38305E-02
    8985.875     -7.938  -0.600  5.54535E-02  1.28111E-01 -7.26570E-02
    8986.052     -7.762  -0.560  5.83454E-02  1.41060E-01 -8.27142E-02
    8986.216     -7.597  -0.520  6.14133E-02  1.55482E-01 -9.40684E-02
    8986.369     -7.445  -0.480  6.46460E-02  1.71361E-01 -1.06715E-01
    8986.509     -7.304  -0.440  6.80162E-02  1.88559E-01 -1.20543E-01
    8986.637     -7.176  -0.400  7.14767E-02  2.06778E-01 -1.35301E-01
    8986.753     -7.061  -0.360  7.49594E-02  2.25550E-01 -1.50591E-01
    8986.856     -6.957  -0.320  7.83788E-02  2.44270E-01 -1.65891E-01
    8986.948     -6.865  -0.280  8.16407E-02  2.62262E-01 -1.80621E-01
    8987.027     -6.786  -0.240  8.46526E-02  2.78876E-01 -1.94224E-01
    8987.094     -6.719  -0.200  8.73328E-02  2.93567E-01 -2.06234E-01
    8987.149     -6.664  -0.160  8.96155E-02  3.05932E-01 -2.16317E-01
    8987.192     -6.622  -0.120  9.14504E-02  3.15713E-01 -2.24263E-01
    8987.222     -6.591  -0.080  9.28007E-02  3.22764E-01 -2.29963E-01
    8987.247     -6.567   0.000  9.39309E-02  3.28432E-01 -2.34501E-01
    8987.301     -6.512   0.120  9.64746E-02  3.41201E-01 -2.44727E-01
    8987.344     -6.469   0.160  9.84367E-02  3.51164E-01 -2.52727E-01
    8987.399     -6.414   0.200  1.00951E-01  3.63871E-01 -2.62920E-01
    8987.466     -6.347   0.240  1.04042E-01  3.79184E-01 -2.75142E-01
    8987.545     -6.268   0.280  1.07692E-01  3.96797E-01 -2.89105E-01
    8987.637     -6.177   0.320  1.11958E-01  4.16306E-01 -3.04348E-01
    8987.740     -6.073   0.360  1.16810E-01  4.37161E-01 -3.20350E-01
    8987.856     -5.957   0.400  1.22232E-01  4.58754E-01 -3.36521E-01
    8987.984     -5.829   0.440  1.28228E-01  4.80609E-01 -3.52380E-01
    8988.124     -5.689   0.480  1.34742E-01  5.02281E-01 -3.67539E-01
    8988.277     -5.537   0.520  1.41659E-01  5.23493E-01 -3.81834E-01
    8988.441     -5.372   0.560  1.48923E-01  5.44103E-01 -3.95180E-01
    8988.618     -5.195   0.600  1.56608E-01  5.64115E-01 -4.07507E-01
    8988.807     -5.006   0.640  1.64932E-01  5.83519E-01 -4.18587E-01
    8989.008     -4.805   0.680  1.74332E-01  6.02402E-01 -4.28070E-01
    8989.222     -4.592   0.720  1.85348E-01  6.20823E-01 -4.35474E-01
    8989.447     -4.366   0.760  1.98494E-01  6.38857E-01 -4.40364E-01
    8989.685     -4.128   0.800  2.14127E-01  6.56593E-01 -4.42466E-01
    8989.935     -3.878   0.840  2.32409E-01  6.74063E-01 -4.41653E-01
    8990.197     -3.616   0.880  2.53685E-01  6.91264E-01 -4.37579E-01
    8990.471     -3.342   0.920  2.78836E-01  7.08264E-01 -4.29427E-01
    8990.758     -3.055   0.960  3.08977E-01  7.25012E-01 -4.16036E-01
    8991.057     -2.757   1.000  3.43836E-01  7.41554E-01 -3.97718E-01
    8991.367     -2.446   1.040  3.79744E-01  7.57842E-01 -3.78098E-01
    8991.691     -2.123   1.080  4.12720E-01  7.73863E-01 -3.61143E-01
    8992.026     -1.787   1.120  4.43529E-01  7.89577E-01 -3.46048E-01
    8992.373     -1.440   1.160  4.75818E-01  8.04960E-01 -3.29142E-01
    8992.733     -1.080   1.200  5.12414E-01  8.19966E-01 -3.07552E-01
    8993.105     -0.709   1.240  5.57574E-01  8.34566E-01 -2.76992E-01
    8993.489     -0.324   1.280  6.12773E-01  8.48751E-01 -2.35978E-01
    8993.885      0.072   1.320  6.69153E-01  8.62448E-01 -1.93295E-01
    8994.293      0.480   1.360  7.20563E-01  8.75629E-01 -1.55066E-01
    8994.714      0.901   1.400  7.70237E-01  8.88303E-01 -1.18066E-01
    8995.147      1.334   1.440  8.14441E-01  9.00402E-01 -8.59607E-02
    8995.592      1.779   1.480  8.45967E-01  9.11937E-01 -6.59693E-02
    8996.049      2.236   1.520  8.64795E-01  9.22861E-01 -5.80665E-02
    8996.519      2.705   1.560  8.74223E-01  9.33172E-01 -5.89484E-02
    8997.000      3.187   1.600  8.82867E-01  9.42865E-01 -5.99981E-02
    8997.494      3.681   1.640  9.01384E-01  9.51942E-01 -5.05575E-02
    8998.000      4.187   1.680  9.34628E-01  9.60381E-01 -2.57537E-02
    8998.518      4.705   1.720  9.87624E-01  9.68209E-01  1.94149E-02
    8999.048      5.235   1.760  1.06121E+00  9.75408E-01  8.58067E-02
    8999.591      5.778   1.800  1.15534E+00  9.82004E-01  1.73335E-01
    9000.146      6.332   1.840  1.26829E+00  9.88006E-01  2.80282E-01
    9000.713      6.899   1.880  1.38092E+00  9.93423E-01  3.87500E-01
    9001.292      7.478   1.920  1.46679E+00  9.98307E-01  4.68486E-01
    9001.883      8.070   1.960  1.51855E+00  1.00263E+00  5.15925E-01
    9002.486      8.673   2.000  1.53813E+00  1.00643E+00  5.31698E-01
    9003.102      9.289   2.040  1.52234E+00  1.00977E+00  5.12579E-01
    9003.730      9.917   2.080  1.47126E+00  1.01263E+00  4.58632E-01
    9004.370     10.557   2.120  1.38666E+00  1.01505E+00  3.71611E-01
    9005.022     11.209   2.160  1.28011E+00  1.01704E+00  2.63071E-01
    9005.687     11.874   2.200  1.17800E+00  1.01866E+00  1.59337E-01
    9006.364     12.550   2.240  1.10101E+00  1.01993E+00  8.10867E-02
    9007.052     13.239   2.280  1.05029E+00  1.02086E+00  2.94298E-02
    9007.753     13.940   2.320  1.01756E+00  1.02147E+00 -3.91071E-03
    9008.467     14.653   2.360  1.00018E+00  1.02182E+00 -2.16404E-02
    9009.192     15.379   2.400  1.00015E+00  1.02192E+00 -2.17687E-02
    9009.930     16.116   2.440  1.01085E+00  1.02177E+00 -1.09151E-02
    9010.679     16.866   2.480  1.02362E+00  1.02144E+00  2.18765E-03
    9011.441     17.628   2.520  1.04273E+00  1.02091E+00  2.18270E-02
    9012.216     18.402   2.560  1.06232E+00  1.02023E+00  4.20868E-02
    9013.002     19.189   2.600  1.07055E+00  1.01940E+00  5.11456E-02
    9013.801     19.987   2.640  1.06742E+00  1.01845E+00  4.89725E-02
    9014.611     20.798   2.680  1.05880E+00  1.01741E+00  4.13917E-02
    9015.434     21.621   2.720  1.04985E+00  1.01628E+00  3.35714E-02
    9016.269     22.456   2.760  1.04192E+00  1.01510E+00  2.68267E-02
    9017.117     23.304   2.800  1.03474E+00  1.01387E+00  2.08754E-02
    9017.976     24.163   2.840  1.02782E+00  1.01258E+00  1.52407E-02
    9018.848     25.035   2.880  1.02068E+00  1.01130E+00  9.37798E-03
    9019.732     25.919   2.920  1.01285E+00  1.00999E+00  2.86097E-03
    9020.628     26.815   2.960  1.00466E+00  1.00868E+00 -4.02757E-03
    9021.536     27.723   3.000  9.96027E-01  1.00740E+00 -1.13758E-02
    9022.457     28.644   3.040  9.86334E-01  1.00613E+00 -1.98006E-02
    9023.390     29.576   3.080  9.74336E-01  1.00492E+00 -3.05866E-02
    9024.334     30.521   3.120  9.58947E-01  1.00373E+00 -4.47834E-02
    9025.292     31.478   3.160  9.40582E-01  1.00260E+00 -6.20206E-02
    9026.261     32.447   3.200  9.21123E-01  1.00150E+00 -8.03772E-02
    9027.242     33.429   3.240  9.03043E-01  1.00049E+00 -9.74462E-02
    9028.236     34.423   3.280  8.87903E-01  9.99532E-01 -1.11630E-01
    9029.242     35.428   3.320  8.76524E-01  9.98650E-01 -1.22126E-01
    9030.260     36.446   3.360  8.69322E-01  9.97845E-01 -1.28523E-01
    9031.290     37.477   3.400  8.66218E-01  9.97098E-01 -1.30880E-01
    9032.332     38.519   3.440  8.66937E-01  9.96450E-01 -1.29513E-01
    9033.387     39.574   3.480  8.71002E-01  9.95865E-01 -1.24862E-01
    9034.454     40.640   3.520  8.77851E-01  9.95383E-01 -1.17532E-01
    9035.533     41.719   3.560  8.86600E-01  9.94985E-01 -1.08385E-01
    9036.624     42.811   3.600  8.96527E-01  9.94668E-01 -9.81409E-02
    9037.727     43.914   3.640  9.07143E-01  9.94434E-01 -8.72919E-02
    9038.843     45.030   3.680  9.18219E-01  9.94284E-01 -7.60649E-02
    9039.971     46.157   3.720  9.29855E-01  9.94216E-01 -6.43601E-02
    9041.111     47.297   3.760  9.42333E-01  9.94229E-01 -5.18963E-02
    9042.263     48.449   3.800  9.55829E-01  9.94346E-01 -3.85169E-02
    9043.427     49.614   3.840  9.70213E-01  9.94521E-01 -2.43078E-02
    9044.604     50.790   3.880  9.85197E-01  9.94774E-01 -9.57680E-03
    9045.792     51.979   3.920  1.00020E+00  9.95103E-01  5.10035E-03
    9046.993     53.180   3.960  1.01438E+00  9.95487E-01  1.88952E-02
    9048.206     54.393   4.000  1.02686E+00  9.95946E-01  3.09129E-02
    9049.432     55.618   4.040  1.03688E+00  9.96478E-01  4.04027E-02
    9050.669     56.856   4.080  1.04395E+00  9.97082E-01  4.68723E-02
    9051.919     58.105   4.120  1.04800E+00  9.97713E-01  5.02905E-02
    9053.181     59.367   4.160  1.04952E+00  9.98412E-01  5.11057E-02
    9054.455     60.641   4.200  1.04924E+00  9.99176E-01  5.00667E-02
    9055.741     61.928   4.240  1.04808E+00  9.99961E-01  4.81181E-02
    9057.039     63.226   4.280  1.04703E+00  1.00078E+00  4.62446E-02
    9058.350     64.537   4.320  1.04682E+00  1.00164E+00  4.51739E-02
    9059.673     65.860   4.360  1.04773E+00  1.00254E+00  4.51881E-02
    9061.008     67.195   4.400  1.04961E+00  1.00347E+00  4.61459E-02
    9062.355     68.542   4.440  1.05213E+00  1.00441E+00  4.77186E-02
    9063.714     69.901   4.480  1.05508E+00  1.00535E+00  4.97297E-02
    9065.086     71.273   4.520  1.05873E+00  1.00632E+00  5.24103E-02
    9066.470     72.657   4.560  1.06351E+00  1.00726E+00  5.62428E-02
    9067.866     74.053   4.600  1.06967E+00  1.00823E+00  6.14381E-02
    9069.274     75.461   4.640  1.07667E+00  1.00917E+00  6.74966E-02
    9070.694     76.881   4.680  1.08342E+00  1.01013E+00  7.32895E-02
    9072.127     78.314   4.720  1.08840E+00  1.01106E+00  7.73316E-02
    9073.572     79.758   4.760  1.09017E+00  1.01196E+00  7.82083E-02
    9075.029     81.215   4.800  1.08790E+00  1.01285E+00  7.50584E-02
    9076.498     82.684   4.840  1.08151E+00  1.01369E+00  6.78193E-02
    9077.979     84.166   4.880  1.07167E+00  1.01450E+00  5.71670E-02
    9079.473     85.659   4.920  1.05954E+00  1.01530E+00  4.42458E-02
    9080.978     87.165   4.960  1.04627E+00  1.01603E+00  3.02435E-02
    9082.496     88.683   5.000  1.03296E+00  1.01674E+00  1.62258E-02
    9084.026     90.213   5.040  1.02031E+00  1.01738E+00  2.93539E-03
    9085.569     91.755   5.080  1.00871E+00  1.01797E+00 -9.25866E-03
    9087.123     93.310   5.120  9.98214E-01  1.01852E+00 -2.03062E-02
    9088.690     94.876   5.160  9.88628E-01  1.01900E+00 -3.03696E-02
    9090.269     96.455   5.200  9.79735E-01  1.01943E+00 -3.96903E-02
    9091.860     98.046   5.240  9.71369E-01  1.01980E+00 -4.84354E-02
    9093.463     99.650   5.280  9.63640E-01  1.02011E+00 -5.64680E-02
    9095.078    101.265   5.320  9.57084E-01  1.02034E+00 -6.32561E-02
    9096.706    102.893   5.360  9.52678E-01  1.02054E+00 -6.78650E-02
    9098.346    104.532   5.400  9.51221E-01  1.02065E+00 -6.94274E-02
    9099.998    106.184   5.440  9.53040E-01  1.02070E+00 -6.76639E-02
    9101.662    107.849   5.480  9.57533E-01  1.02071E+00 -6.31748E-02
    9103.338    109.525   5.520  9.63553E-01  1.02064E+00 -5.70845E-02
    9105.027    111.214   5.560  9.69977E-01  1.02049E+00 -5.05167E-02
    9106.728    112.914   5.600  9.76121E-01  1.02030E+00 -4.41784E-02
    9108.441    114.627   5.640  9.81703E-01  1.02006E+00 -3.83543E-02
    9110.166    116.352   5.680  9.86782E-01  1.01974E+00 -3.29629E-02
    9111.903    118.090   5.720  9.91714E-01  1.01938E+00 -2.76688E-02
    9113.653    119.839   5.760  9.96903E-01  1.01895E+00 -2.20480E-02
    9115.414    121.601   5.800  1.00258E+00  1.01848E+00 -1.58961E-02
    9117.188    123.375   5.840  1.00860E+00  1.01796E+00 -9.36434E-03
    9118.974    125.161   5.880  1.01452E+00  1.01741E+00 -2.88530E-03
    9120.773    126.959   5.920  1.01981E+00  1.01682E+00  2.99176E-03
    9122.583    128.770   5.960  1.02383E+00  1.01620E+00  7.63482E-03
    9124.406    130.593   6.000  1.02590E+00  1.01551E+00  1.03949E-02
