# # comment:                                                     FEFF 9.9.1  
# # Source:
# # Structure
# # Reduced
# # space
# # abc:
# # angles:108.672349
# # sites:
# # POT  SCF 100  7.0000   0, screened core-hole, AFOLP (folp(0)= 1.150)
# # Abs   Z=29 Rmt= 1.274 Rnm= 1.362 K  shell
# # Pot 1 Z=29 Rmt= 1.223 Rnm= 1.333
# # Pot 2 Z= 8 Rmt= 1.023 Rnm= 1.114
# # Pot 3 Z= 9 Rmt= 1.049 Rnm= 1.143
# # Gam_ch=1.729E+00 H-L exch Vi= 0.000E+00 Vr= 0.000E+00
# # Mu=-6.851E+00eV kf=2.043E+00 Vint=-1.331E+01eV Rs_int= 1.775
# FMS rfms= 9.0000
# # PATH  Rmax=-1.000,  Keep_limit= 0.00, Heap_limit 0.00  Pwcrit= 2.50%
#  S02=0.950  Temp=   0.00  Debye_temp=   0.00  Global_sig2= 0.00000
#  Energy zero shift, vr, vi    0.00000E+00   0.00000E+00
#  Curved wave amplitude ratio filter   4.000%
#     file         sig2 tot  cw amp ratio   deg  nlegs   reff  inp sig2
#     0/   0 paths used
#  xsedge+ 50, used to normalize mu           2.4296E-04
#  -----------------------------------------------------------------------
#  omega    e    k    mu    mu0     chi     @#
    8983.404    -10.661  -1.000  3.35856E-02  5.37983E-02 -2.02126E-02
    8983.703    -10.363  -0.960  3.49924E-02  5.76368E-02 -2.26444E-02
    8983.989    -10.076  -0.920  3.64665E-02  6.18914E-02 -2.54250E-02
    8984.263     -9.802  -0.880  3.80114E-02  6.66219E-02 -2.86105E-02
    8984.526     -9.540  -0.840  3.96310E-02  7.18976E-02 -3.22666E-02
    8984.775     -9.290  -0.800  4.13295E-02  7.77988E-02 -3.64693E-02
    8985.013     -9.052  -0.760  4.31112E-02  8.44171E-02 -4.13059E-02
    8985.239     -8.827  -0.720  4.49807E-02  9.18561E-02 -4.68754E-02
    8985.452     -8.613  -0.680  4.69423E-02  1.00229E-01 -5.32868E-02
    8985.653     -8.412  -0.640  4.89997E-02  1.09656E-01 -6.06558E-02
    8985.842     -8.223  -0.600  5.11556E-02  1.20252E-01 -6.90967E-02
    8986.019     -8.046  -0.560  5.34097E-02  1.32118E-01 -7.87084E-02
    8986.184     -7.882  -0.520  5.57577E-02  1.45311E-01 -8.95534E-02
    8986.336     -7.729  -0.480  5.81879E-02  1.59815E-01 -1.01627E-01
    8986.476     -7.589  -0.440  6.06794E-02  1.75504E-01 -1.14825E-01
    8986.604     -7.461  -0.400  6.31992E-02  1.92109E-01 -1.28910E-01
    8986.720     -7.345  -0.360  6.57025E-02  2.09210E-01 -1.43508E-01
    8986.824     -7.242  -0.320  6.81346E-02  2.26260E-01 -1.58126E-01
    8986.915     -7.150  -0.280  7.04366E-02  2.42651E-01 -1.72214E-01
    8986.994     -7.071  -0.240  7.25515E-02  2.57794E-01 -1.85242E-01
    8987.061     -7.004  -0.200  7.44286E-02  2.71193E-01 -1.96764E-01
    8987.116     -6.949  -0.160  7.60261E-02  2.82481E-01 -2.06454E-01
    8987.159     -6.906  -0.120  7.73107E-02  2.91416E-01 -2.14105E-01
    8987.189     -6.876  -0.080  7.82576E-02  2.97861E-01 -2.19604E-01
    8987.214     -6.851   0.000  7.90581E-02  3.03045E-01 -2.23987E-01
    8987.269     -6.797   0.120  8.09606E-02  3.14767E-01 -2.33806E-01
    8987.311     -6.754   0.160  8.23527E-02  3.23872E-01 -2.41519E-01
    8987.366     -6.699   0.200  8.41583E-02  3.35555E-01 -2.51396E-01
    8987.433     -6.632   0.240  8.63438E-02  3.49645E-01 -2.63301E-01
    8987.513     -6.553   0.280  8.89572E-02  3.65922E-01 -2.76965E-01
    8987.604     -6.461   0.320  9.20185E-02  3.84006E-01 -2.91987E-01
    8987.708     -6.358   0.360  9.55651E-02  4.03440E-01 -3.07875E-01
    8987.823     -6.242   0.400  9.96222E-02  4.23718E-01 -3.24095E-01
    8987.951     -6.114   0.440  1.04269E-01  4.44389E-01 -3.40121E-01
    8988.092     -5.974   0.480  1.09599E-01  4.65085E-01 -3.55487E-01
    8988.244     -5.821   0.520  1.15695E-01  4.85561E-01 -3.69866E-01
    8988.409     -5.657   0.560  1.22684E-01  5.05710E-01 -3.83026E-01
    8988.585     -5.480   0.600  1.30683E-01  5.25494E-01 -3.94812E-01
    8988.774     -5.291   0.640  1.39841E-01  5.44914E-01 -4.05074E-01
    8988.976     -5.090   0.680  1.50340E-01  5.64041E-01 -4.13701E-01
    8989.189     -4.876   0.720  1.62347E-01  5.82894E-01 -4.20546E-01
    8989.415     -4.651   0.760  1.76075E-01  6.01570E-01 -4.25495E-01
    8989.652     -4.413   0.800  1.91561E-01  6.20077E-01 -4.28516E-01
    8989.902     -4.163   0.840  2.08772E-01  6.38428E-01 -4.29656E-01
    8990.164     -3.901   0.880  2.27668E-01  6.56666E-01 -4.28998E-01
    8990.439     -3.627   0.920  2.47935E-01  6.74738E-01 -4.26803E-01
    8990.725     -3.340   0.960  2.69441E-01  6.92685E-01 -4.23244E-01
    8991.024     -3.041   1.000  2.92788E-01  7.10432E-01 -4.17644E-01
    8991.335     -2.731   1.040  3.19787E-01  7.27962E-01 -4.08175E-01
    8991.658     -2.407   1.080  3.52169E-01  7.45250E-01 -3.93081E-01
    8991.993     -2.072   1.120  3.90140E-01  7.62204E-01 -3.72064E-01
    8992.341     -1.725   1.160  4.32630E-01  7.78834E-01 -3.46204E-01
    8992.700     -1.365   1.200  4.77237E-01  7.95042E-01 -3.17805E-01
    8993.072     -0.993   1.240  5.19688E-01  8.10834E-01 -2.91146E-01
    8993.456     -0.609   1.280  5.56992E-01  8.26111E-01 -2.69119E-01
    8993.852     -0.213   1.320  5.93104E-01  8.40857E-01 -2.47754E-01
    8994.261      0.196   1.360  6.36431E-01  8.55039E-01 -2.18609E-01
    8994.681      0.616   1.400  6.93533E-01  8.68601E-01 -1.75068E-01
    8995.114      1.049   1.440  7.67327E-01  8.81532E-01 -1.14206E-01
    8995.559      1.494   1.480  8.55531E-01  8.93805E-01 -3.82735E-02
    8996.016      1.951   1.520  9.47649E-01  9.05391E-01  4.22577E-02
    8996.486      2.421   1.560  1.03581E+00  9.16308E-01  1.19501E-01
    8996.967      2.902   1.600  1.12598E+00  9.26512E-01  1.99465E-01
    8997.461      3.396   1.640  1.22571E+00  9.36025E-01  2.89687E-01
    8997.967      3.902   1.680  1.32475E+00  9.44850E-01  3.79901E-01
    8998.485      4.420   1.720  1.39464E+00  9.52972E-01  4.41664E-01
    8999.016      4.950   1.760  1.41656E+00  9.60440E-01  4.56117E-01
    8999.558      5.493   1.800  1.40860E+00  9.67243E-01  4.41362E-01
    9000.113      6.048   1.840  1.40698E+00  9.73410E-01  4.33570E-01
    9000.680      6.615   1.880  1.43057E+00  9.78955E-01  4.51616E-01
    9001.259      7.194   1.920  1.46756E+00  9.83932E-01  4.83627E-01
    9001.850      7.785   1.960  1.48141E+00  9.88335E-01  4.93071E-01
    9002.454      8.389   2.000  1.44567E+00  9.92199E-01  4.53473E-01
    9003.070      9.004   2.040  1.37581E+00  9.95561E-01  3.80244E-01
    9003.697      9.632   2.080  1.30463E+00  9.98455E-01  3.06177E-01
    9004.337     10.272   2.120  1.24225E+00  1.00092E+00  2.41326E-01
    9004.990     10.924   2.160  1.18326E+00  1.00297E+00  1.80281E-01
    9005.654     11.589   2.200  1.12856E+00  1.00463E+00  1.23932E-01
    9006.331     12.266   2.240  1.08362E+00  1.00596E+00  7.76610E-02
    9007.020     12.954   2.280  1.04549E+00  1.00697E+00  3.85135E-02
    9007.721     13.655   2.320  1.00409E+00  1.00769E+00 -3.60449E-03
    9008.434     14.369   2.360  9.59757E-01  1.00816E+00 -4.84014E-02
    9009.159     15.094   2.400  9.30471E-01  1.00841E+00 -7.79342E-02
    9009.897     15.832   2.440  9.25971E-01  1.00844E+00 -8.24735E-02
    9010.647     16.581   2.480  9.42325E-01  1.00829E+00 -6.59645E-02
    9011.409     17.343   2.520  9.57920E-01  1.00799E+00 -5.00727E-02
    9012.183     18.118   2.560  9.68410E-01  1.00757E+00 -3.91562E-02
    9012.969     18.904   2.600  9.72521E-01  1.00702E+00 -3.44996E-02
    9013.768     19.703   2.640  9.70114E-01  1.00639E+00 -3.62730E-02
    9014.579     20.513   2.680  9.61967E-01  1.00568E+00 -4.37083E-02
    9015.402     21.336   2.720  9.49697E-01  1.00491E+00 -5.52159E-02
    9016.237     22.171   2.760  9.35334E-01  1.00413E+00 -6.87958E-02
    9017.084     23.019   2.800  9.20518E-01  1.00329E+00 -8.27720E-02
    9017.944     23.878   2.840  9.06699E-01  1.00244E+00 -9.57444E-02
    9018.815     24.750   2.880  8.94876E-01  1.00162E+00 -1.06742E-01
    9019.699     25.634   2.920  8.85688E-01  1.00080E+00 -1.15108E-01
    9020.595     26.530   2.960  8.79781E-01  9.99984E-01 -1.20203E-01
    9021.504     27.438   3.000  8.77186E-01  9.99205E-01 -1.22019E-01
    9022.424     28.359   3.040  8.77351E-01  9.98465E-01 -1.21114E-01
    9023.357     29.292   3.080  8.79615E-01  9.97769E-01 -1.18154E-01
    9024.302     30.236   3.120  8.83303E-01  9.97140E-01 -1.13837E-01
    9025.259     31.194   3.160  8.87706E-01  9.96559E-01 -1.08854E-01
    9026.228     32.163   3.200  8.92614E-01  9.96051E-01 -1.03437E-01
    9027.210     33.144   3.240  8.98228E-01  9.95595E-01 -9.73670E-02
    9028.203     34.138   3.280  9.04921E-01  9.95215E-01 -9.02937E-02
    9029.209     35.144   3.320  9.12938E-01  9.94911E-01 -8.19727E-02
    9030.227     36.162   3.360  9.22272E-01  9.94683E-01 -7.24106E-02
    9031.257     37.192   3.400  9.32734E-01  9.94513E-01 -6.17783E-02
    9032.300     38.234   3.440  9.43901E-01  9.94442E-01 -5.05410E-02
    9033.354     39.289   3.480  9.55363E-01  9.94428E-01 -3.90655E-02
    9034.421     40.356   3.520  9.67008E-01  9.94492E-01 -2.74843E-02
    9035.500     41.435   3.560  9.78894E-01  9.94635E-01 -1.57412E-02
    9036.591     42.526   3.600  9.91183E-01  9.94857E-01 -3.67352E-03
    9037.695     43.629   3.640  1.00392E+00  9.95153E-01  8.76759E-03
    9038.810     44.745   3.680  1.01690E+00  9.95505E-01  2.13941E-02
    9039.938     45.873   3.720  1.02964E+00  9.95932E-01  3.37039E-02
    9041.078     47.013   3.760  1.04149E+00  9.96430E-01  4.50603E-02
    9042.230     48.165   3.800  1.05174E+00  9.96980E-01  5.47602E-02
    9043.394     49.329   3.840  1.05986E+00  9.97600E-01  6.22592E-02
    9044.571     50.506   3.880  1.06572E+00  9.98266E-01  6.74560E-02
    9045.760     51.694   3.920  1.06955E+00  9.98976E-01  7.05792E-02
    9046.961     52.895   3.960  1.07173E+00  9.99729E-01  7.20010E-02
    9048.174     54.108   4.000  1.07257E+00  1.00054E+00  7.20237E-02
    9049.399     55.334   4.040  1.07223E+00  1.00138E+00  7.08510E-02
    9050.636     56.571   4.080  1.07084E+00  1.00225E+00  6.85973E-02
    9051.886     57.821   4.120  1.06856E+00  1.00315E+00  6.54122E-02
    9053.148     59.083   4.160  1.06561E+00  1.00409E+00  6.15288E-02
    9054.422     60.357   4.200  1.06216E+00  1.00503E+00  5.71304E-02
    9055.708     61.643   4.240  1.05832E+00  1.00598E+00  5.23440E-02
    9057.007     62.941   4.280  1.05424E+00  1.00693E+00  4.73099E-02
    9058.317     64.252   4.320  1.05010E+00  1.00790E+00  4.22005E-02
    9059.640     65.575   4.360  1.04595E+00  1.00884E+00  3.71075E-02
    9060.975     66.910   4.400  1.04172E+00  1.00979E+00  3.19332E-02
    9062.322     68.257   4.440  1.03725E+00  1.01073E+00  2.65207E-02
    9063.682     69.616   4.480  1.03242E+00  1.01166E+00  2.07579E-02
    9065.053     70.988   4.520  1.02730E+00  1.01255E+00  1.47494E-02
    9066.437     72.372   4.560  1.02219E+00  1.01344E+00  8.74870E-03
    9067.833     73.768   4.600  1.01726E+00  1.01426E+00  3.00078E-03
    9069.241     75.176   4.640  1.01273E+00  1.01507E+00 -2.34127E-03
    9070.662     76.596   4.680  1.00869E+00  1.01584E+00 -7.14708E-03
    9072.094     78.029   4.720  1.00522E+00  1.01656E+00 -1.13456E-02
    9073.539     79.474   4.760  1.00222E+00  1.01725E+00 -1.50261E-02
    9074.996     80.931   4.800  9.99439E-01  1.01789E+00 -1.84466E-02
    9076.465     82.400   4.840  9.96588E-01  1.01848E+00 -2.18894E-02
    9077.946     83.881   4.880  9.93602E-01  1.01900E+00 -2.53980E-02
    9079.440     85.375   4.920  9.90837E-01  1.01947E+00 -2.86365E-02
    9080.946     86.880   4.960  9.88900E-01  1.01990E+00 -3.09967E-02
    9082.463     88.398   5.000  9.88326E-01  1.02025E+00 -3.19220E-02
    9083.994     89.928   5.040  9.89384E-01  1.02052E+00 -3.11406E-02
    9085.536     91.471   5.080  9.92050E-01  1.02077E+00 -2.87224E-02
    9087.090     93.025   5.120  9.95885E-01  1.02092E+00 -2.50396E-02
    9088.657     94.592   5.160  1.00032E+00  1.02103E+00 -2.07089E-02
    9090.236     96.171   5.200  1.00467E+00  1.02108E+00 -1.64084E-02
    9091.827     97.762   5.240  1.00834E+00  1.02105E+00 -1.27128E-02
    9093.430     99.365   5.280  1.01103E+00  1.02098E+00 -9.95777E-03
    9095.046    100.980   5.320  1.01265E+00  1.02086E+00 -8.20985E-03
    9096.673    102.608   5.360  1.01344E+00  1.02067E+00 -7.22913E-03
    9098.313    104.248   5.400  1.01379E+00  1.02041E+00 -6.61452E-03
    9099.965    105.900   5.440  1.01405E+00  1.02012E+00 -6.07317E-03
    9101.629    107.564   5.480  1.01416E+00  1.01976E+00 -5.60214E-03
    9103.306    109.240   5.520  1.01400E+00  1.01936E+00 -5.35821E-03
    9104.994    110.929   5.560  1.01343E+00  1.01888E+00 -5.45592E-03
    9106.695    112.630   5.600  1.01246E+00  1.01839E+00 -5.93765E-03
    9108.408    114.343   5.640  1.01089E+00  1.01786E+00 -6.96904E-03
    9110.133    116.068   5.680  1.00836E+00  1.01727E+00 -8.90441E-03
    9111.870    117.805   5.720  1.00470E+00  1.01666E+00 -1.19565E-02
    9113.620    119.555   5.760  1.00028E+00  1.01601E+00 -1.57294E-02
    9115.382    121.316   5.800  9.96055E-01  1.01533E+00 -1.92797E-02
    9117.156    123.090   5.840  9.93011E-01  1.01465E+00 -2.16379E-02
    9118.942    124.876   5.880  9.91650E-01  1.01394E+00 -2.22863E-02
    9120.740    126.675   5.920  9.91948E-01  1.01323E+00 -2.12783E-02
    9122.551    128.485   5.960  9.93425E-01  1.01250E+00 -1.90757E-02
    9124.373    130.308   6.000  9.95699E-01  1.01179E+00 -1.60913E-02
