# # comment:                                                     FEFF 9.9.1  
# # Source:
# # Structure
# # Reduced
# # space
# # abc:
# # angles:
# # sites:
# # POT  SCF 100  7.0000   0, screened core-hole, AFOLP (folp(0)= 1.150)
# # Abs   Z=29 Rmt= 1.151 Rnm= 1.331 K  shell
# # Pot 1 Z=29 Rmt= 1.171 Rnm= 1.283
# # Pot 2 Z= 8 Rmt= 0.981 Rnm= 1.104
# # Gam_ch=1.729E+00 H-L exch Vi= 0.000E+00 Vr= 0.000E+00
# # Mu=-6.239E+00eV kf=2.201E+00 Vint=-1.525E+01eV Rs_int= 1.648
# FMS rfms= 9.0000
# # PATH  Rmax=-1.000,  Keep_limit= 0.00, Heap_limit 0.00  Pwcrit= 2.50%
#  S02=0.950  Temp=   0.00  Debye_temp=   0.00  Global_sig2= 0.00000
#  Energy zero shift, vr, vi    0.00000E+00   0.00000E+00
#  Curved wave amplitude ratio filter   4.000%
#     file         sig2 tot  cw amp ratio   deg  nlegs   reff  inp sig2
#     0/   0 paths used
#  xsedge+ 50, used to normalize mu           2.4373E-04
#  -----------------------------------------------------------------------
#  omega    e    k    mu    mu0     chi     @#
    8983.695    -10.049  -1.000  4.91463E-02  5.79151E-02 -8.76879E-03
    8983.994     -9.750  -0.960  5.25538E-02  6.22075E-02 -9.65376E-03
    8984.280     -9.464  -0.920  5.63366E-02  6.69830E-02 -1.06464E-02
    8984.555     -9.190  -0.880  6.05511E-02  7.23130E-02 -1.17619E-02
    8984.817     -8.927  -0.840  6.52632E-02  7.82808E-02 -1.30176E-02
    8985.067     -8.678  -0.800  7.05493E-02  8.49827E-02 -1.44334E-02
    8985.304     -8.440  -0.760  7.64975E-02  9.25296E-02 -1.60321E-02
    8985.530     -8.214  -0.720  8.32075E-02  1.01047E-01 -1.78391E-02
    8985.743     -8.001  -0.680  9.07896E-02  1.10671E-01 -1.98818E-02
    8985.944     -7.800  -0.640  9.93606E-02  1.21550E-01 -2.21893E-02
    8986.133     -7.611  -0.600  1.09036E-01  1.33825E-01 -2.47893E-02
    8986.310     -7.434  -0.560  1.19914E-01  1.47619E-01 -2.77046E-02
    8986.475     -7.269  -0.520  1.32057E-01  1.63004E-01 -3.09468E-02
    8986.627     -7.117  -0.480  1.45458E-01  1.79966E-01 -3.45081E-02
    8986.767     -6.977  -0.440  1.60003E-01  1.98354E-01 -3.83516E-02
    8986.895     -6.849  -0.400  1.75446E-01  2.17849E-01 -4.24034E-02
    8987.011     -6.733  -0.360  1.91393E-01  2.37945E-01 -4.65517E-02
    8987.115     -6.629  -0.320  2.07331E-01  2.57986E-01 -5.06550E-02
    8987.206     -6.538  -0.280  2.22684E-01  2.77245E-01 -5.45610E-02
    8987.286     -6.459  -0.240  2.36891E-01  2.95021E-01 -5.81295E-02
    8987.353     -6.392  -0.200  2.49479E-01  3.10728E-01 -6.12491E-02
    8987.408     -6.337  -0.160  2.60095E-01  3.23939E-01 -6.38436E-02
    8987.450     -6.294  -0.120  2.68511E-01  3.34380E-01 -6.58682E-02
    8987.481     -6.264  -0.080  2.74596E-01  3.41900E-01 -6.73039E-02
    8987.505     -6.239   0.000  2.79511E-01  3.47941E-01 -6.84302E-02
    8987.560     -6.184   0.120  2.90260E-01  3.61571E-01 -7.13105E-02
    8987.603     -6.142   0.160  2.98657E-01  3.72144E-01 -7.34867E-02
    8987.657     -6.087   0.200  3.09419E-01  3.85651E-01 -7.62315E-02
    8987.724     -6.020   0.240  3.22402E-01  4.01906E-01 -7.95037E-02
    8987.804     -5.940   0.280  3.37317E-01  4.20538E-01 -8.32206E-02
    8987.895     -5.849   0.320  3.53782E-01  4.41088E-01 -8.73063E-02
    8987.999     -5.745   0.360  3.71241E-01  4.62960E-01 -9.17196E-02
    8988.115     -5.630   0.400  3.88942E-01  4.85478E-01 -9.65359E-02
    8988.243     -5.502   0.440  4.06077E-01  5.08083E-01 -1.02006E-01
    8988.383     -5.361   0.480  4.21648E-01  5.30285E-01 -1.08637E-01
    8988.535     -5.209   0.520  4.34702E-01  5.51819E-01 -1.17117E-01
    8988.700     -5.044   0.560  4.44462E-01  5.72510E-01 -1.28048E-01
    8988.877     -4.868   0.600  4.50933E-01  5.92345E-01 -1.41412E-01
    8989.066     -4.679   0.640  4.55239E-01  6.11363E-01 -1.56124E-01
    8989.267     -4.477   0.680  4.59599E-01  6.29647E-01 -1.70048E-01
    8989.480     -4.264   0.720  4.66764E-01  6.47293E-01 -1.80530E-01
    8989.706     -4.038   0.760  4.79365E-01  6.64397E-01 -1.85032E-01
    8989.943     -3.801   0.800  4.99284E-01  6.81044E-01 -1.81760E-01
    8990.193     -3.551   0.840  5.26662E-01  6.97304E-01 -1.70642E-01
    8990.455     -3.289   0.880  5.58347E-01  7.13234E-01 -1.54887E-01
    8990.730     -3.014   0.920  5.88076E-01  7.28873E-01 -1.40797E-01
    8991.016     -2.728   0.960  6.10058E-01  7.44208E-01 -1.34150E-01
    8991.315     -2.429   1.000  6.21716E-01  7.59317E-01 -1.37601E-01
    8991.626     -2.118   1.040  6.21705E-01  7.74143E-01 -1.52439E-01
    8991.949     -1.795   1.080  6.10684E-01  7.88686E-01 -1.78002E-01
    8992.284     -1.460   1.120  5.94300E-01  8.02979E-01 -2.08679E-01
    8992.632     -1.112   1.160  5.79977E-01  8.16946E-01 -2.36969E-01
    8992.991     -0.753   1.200  5.71428E-01  8.30610E-01 -2.59183E-01
    8993.363     -0.381   1.240  5.67549E-01  8.43929E-01 -2.76381E-01
    8993.747      0.003   1.280  5.66128E-01  8.56882E-01 -2.90753E-01
    8994.144      0.399   1.320  5.66669E-01  8.69442E-01 -3.02773E-01
    8994.552      0.808   1.360  5.69692E-01  8.81605E-01 -3.11913E-01
    8994.973      1.228   1.400  5.76217E-01  8.93303E-01 -3.17086E-01
    8995.405      1.661   1.440  5.89540E-01  9.04573E-01 -3.15033E-01
    8995.850      2.106   1.480  6.14276E-01  9.15346E-01 -3.01070E-01
    8996.308      2.563   1.520  6.53289E-01  9.25618E-01 -2.72329E-01
    8996.777      3.033   1.560  7.08594E-01  9.35384E-01 -2.26790E-01
    8997.259      3.514   1.600  7.82633E-01  9.44623E-01 -1.61990E-01
    8997.752      4.008   1.640  8.72247E-01  9.53354E-01 -8.11069E-02
    8998.258      4.514   1.680  9.61340E-01  9.61534E-01 -1.93972E-04
    8998.776      5.032   1.720  1.02882E+00  9.69185E-01  5.96386E-02
    8999.307      5.563   1.760  1.07018E+00  9.76309E-01  9.38740E-02
    8999.849      6.105   1.800  1.10505E+00  9.82889E-01  1.22157E-01
    9000.404      6.660   1.840  1.15835E+00  9.88970E-01  1.69385E-01
    9000.971      7.227   1.880  1.23764E+00  9.94516E-01  2.43124E-01
    9001.550      7.806   1.920  1.32543E+00  9.99555E-01  3.25876E-01
    9002.141      8.397   1.960  1.38798E+00  1.00409E+00  3.83892E-01
    9002.745      9.001   2.000  1.40070E+00  1.00818E+00  3.92517E-01
    9003.361      9.616   2.040  1.37228E+00  1.01178E+00  3.60499E-01
    9003.989     10.244   2.080  1.32697E+00  1.01496E+00  3.12008E-01
    9004.629     10.884   2.120  1.27950E+00  1.01771E+00  2.61793E-01
    9005.281     11.537   2.160  1.25118E+00  1.02007E+00  2.31115E-01
    9005.945     12.201   2.200  1.26866E+00  1.02203E+00  2.46632E-01
    9006.622     12.878   2.240  1.31515E+00  1.02364E+00  2.91510E-01
    9007.311     13.567   2.280  1.31443E+00  1.02491E+00  2.89520E-01
    9008.012     14.268   2.320  1.23551E+00  1.02586E+00  2.09647E-01
    9008.725     14.981   2.360  1.12337E+00  1.02654E+00  9.68321E-02
    9009.451     15.706   2.400  1.01424E+00  1.02693E+00 -1.26895E-02
    9010.188     16.444   2.440  9.22564E-01  1.02704E+00 -1.04480E-01
    9010.938     17.194   2.480  8.58530E-01  1.02696E+00 -1.68432E-01
    9011.700     17.956   2.520  8.31656E-01  1.02665E+00 -1.94993E-01
    9012.474     18.730   2.560  8.45893E-01  1.02616E+00 -1.80263E-01
    9013.261     19.516   2.600  8.96817E-01  1.02549E+00 -1.28677E-01
    9014.059     20.315   2.640  9.59064E-01  1.02467E+00 -6.56090E-02
    9014.870     21.126   2.680  1.00758E+00  1.02372E+00 -1.61399E-02
    9015.693     21.949   2.720  1.04457E+00  1.02267E+00  2.18994E-02
    9016.528     22.784   2.760  1.07214E+00  1.02151E+00  5.06316E-02
    9017.375     23.631   2.800  1.09209E+00  1.02026E+00  7.18321E-02
    9018.235     24.491   2.840  1.10542E+00  1.01895E+00  8.64694E-02
    9019.107     25.362   2.880  1.11251E+00  1.01757E+00  9.49388E-02
    9019.990     26.246   2.920  1.11374E+00  1.01618E+00  9.75676E-02
    9020.887     27.142   2.960  1.10954E+00  1.01472E+00  9.48155E-02
    9021.795     28.051   3.000  1.10064E+00  1.01328E+00  8.73651E-02
    9022.715     28.971   3.040  1.08721E+00  1.01181E+00  7.54019E-02
    9023.648     29.904   3.080  1.06924E+00  1.01036E+00  5.88787E-02
    9024.593     30.849   3.120  1.04730E+00  1.00892E+00  3.83757E-02
    9025.550     31.806   3.160  1.02284E+00  1.00749E+00  1.53476E-02
    9026.519     32.775   3.200  9.97860E-01  1.00611E+00 -8.25353E-03
    9027.501     33.757   3.240  9.74573E-01  1.00476E+00 -3.01836E-02
    9028.494     34.750   3.280  9.54137E-01  1.00346E+00 -4.93253E-02
    9029.500     35.756   3.320  9.36707E-01  1.00221E+00 -6.55051E-02
    9030.518     36.774   3.360  9.22150E-01  1.00101E+00 -7.88604E-02
    9031.548     37.804   3.400  9.10333E-01  9.99878E-01 -8.95459E-02
    9032.591     38.847   3.440  9.01215E-01  9.98798E-01 -9.75828E-02
    9033.645     39.901   3.480  8.94864E-01  9.97792E-01 -1.02928E-01
    9034.712     40.968   3.520  8.91312E-01  9.96864E-01 -1.05552E-01
    9035.791     42.047   3.560  8.90226E-01  9.96015E-01 -1.05788E-01
    9036.882     43.138   3.600  8.91269E-01  9.95246E-01 -1.03976E-01
    9037.986     44.242   3.640  8.94182E-01  9.94557E-01 -1.00375E-01
    9039.101     45.357   3.680  8.98914E-01  9.93949E-01 -9.50355E-02
    9040.229     46.485   3.720  9.05490E-01  9.93420E-01 -8.79303E-02
    9041.369     47.625   3.760  9.13960E-01  9.92952E-01 -7.89927E-02
    9042.521     48.777   3.800  9.24184E-01  9.92589E-01 -6.84050E-02
    9043.686     49.941   3.840  9.35624E-01  9.92330E-01 -5.67053E-02
    9044.862     51.118   3.880  9.47519E-01  9.92130E-01 -4.46108E-02
    9046.051     52.307   3.920  9.59155E-01  9.92010E-01 -3.28552E-02
    9047.252     53.508   3.960  9.70094E-01  9.91970E-01 -2.18758E-02
    9048.465     54.721   4.000  9.80529E-01  9.92011E-01 -1.14820E-02
    9049.690     55.946   4.040  9.91194E-01  9.92131E-01 -9.36604E-04
    9050.928     57.183   4.080  1.00279E+00  9.92327E-01  1.04622E-02
    9052.177     58.433   4.120  1.01539E+00  9.92578E-01  2.28165E-02
    9053.439     59.695   4.160  1.02850E+00  9.92904E-01  3.55924E-02
    9054.713     60.969   4.200  1.04114E+00  9.93307E-01  4.78305E-02
    9055.999     62.255   4.240  1.05225E+00  9.93784E-01  5.84686E-02
    9057.298     63.554   4.280  1.06095E+00  9.94311E-01  6.66401E-02
    9058.608     64.864   4.320  1.06669E+00  9.94906E-01  7.17825E-02
    9059.931     66.187   4.360  1.06917E+00  9.95525E-01  7.36407E-02
    9061.266     67.522   4.400  1.06849E+00  9.96210E-01  7.22814E-02
    9062.614     68.869   4.440  1.06500E+00  9.96940E-01  6.80575E-02
    9063.973     70.229   4.480  1.05926E+00  9.97731E-01  6.15271E-02
    9065.345     71.600   4.520  1.05188E+00  9.98538E-01  5.33396E-02
    9066.728     72.984   4.560  1.04352E+00  9.99359E-01  4.41574E-02
    9068.124     74.380   4.600  1.03475E+00  1.00024E+00  3.45092E-02
    9069.532     75.788   4.640  1.02594E+00  1.00113E+00  2.48126E-02
    9070.953     77.209   4.680  1.01741E+00  1.00205E+00  1.53627E-02
    9072.385     78.641   4.720  1.00924E+00  1.00297E+00  6.27499E-03
    9073.830     80.086   4.760  1.00135E+00  1.00389E+00 -2.54145E-03
    9075.287     81.543   4.800  9.93584E-01  1.00482E+00 -1.12377E-02
    9076.756     83.012   4.840  9.85943E-01  1.00575E+00 -1.98053E-02
    9078.238     84.493   4.880  9.78776E-01  1.00667E+00 -2.78965E-02
    9079.731     85.987   4.920  9.72759E-01  1.00759E+00 -3.48355E-02
    9081.237     87.493   4.960  9.68648E-01  1.00851E+00 -3.98602E-02
    9082.755     89.010   5.000  9.67099E-01  1.00939E+00 -4.22928E-02
    9084.285     90.541   5.040  9.68670E-01  1.01026E+00 -4.15944E-02
    9085.827     92.083   5.080  9.73602E-01  1.01110E+00 -3.74996E-02
    9087.381     93.637   5.120  9.81849E-01  1.01190E+00 -3.00507E-02
    9088.948     95.204   5.160  9.93055E-01  1.01266E+00 -1.96048E-02
    9090.527     96.783   5.200  1.00664E+00  1.01340E+00 -6.76302E-03
    9092.118     98.374   5.240  1.02175E+00  1.01408E+00  7.66880E-03
    9093.721     99.977   5.280  1.03745E+00  1.01471E+00  2.27400E-02
    9095.337    101.593   5.320  1.05275E+00  1.01530E+00  3.74551E-02
    9096.964    103.220   5.360  1.06670E+00  1.01584E+00  5.08583E-02
    9098.604    104.860   5.400  1.07844E+00  1.01631E+00  6.21266E-02
    9100.256    106.512   5.440  1.08731E+00  1.01673E+00  7.05797E-02
    9101.920    108.176   5.480  1.09263E+00  1.01711E+00  7.55189E-02
    9103.597    109.853   5.520  1.09347E+00  1.01741E+00  7.60524E-02
    9105.285    111.541   5.560  1.08913E+00  1.01766E+00  7.14693E-02
    9106.986    113.242   5.600  1.07971E+00  1.01784E+00  6.18670E-02
    9108.699    114.955   5.640  1.06644E+00  1.01794E+00  4.84944E-02
    9110.424    116.680   5.680  1.05131E+00  1.01800E+00  3.33097E-02
    9112.162    118.417   5.720  1.03600E+00  1.01800E+00  1.79970E-02
    9113.911    120.167   5.760  1.02130E+00  1.01793E+00  3.36503E-03
    9115.673    121.929   5.800  1.00730E+00  1.01779E+00 -1.04856E-02
    9117.447    123.703   5.840  9.94019E-01  1.01760E+00 -2.35784E-02
    9119.233    125.489   5.880  9.81555E-01  1.01733E+00 -3.57759E-02
    9121.031    127.287   5.920  9.70156E-01  1.01699E+00 -4.68377E-02
    9122.842    129.098   5.960  9.60160E-01  1.01663E+00 -5.64684E-02
    9124.664    130.920   6.000  9.51794E-01  1.01611E+00 -6.43185E-02
