# # comment:                                                     FEFF 9.9.1  
# # Source:
# # Structure
# # Reduced
# # space
# # abc:
# # angles:
# # sites:
# # POT  SCF 100  7.0000   0, screened core-hole, AFOLP (folp(0)= 1.150)
# # Abs   Z=29 Rmt= 1.193 Rnm= 1.286 K  shell
# # Pot 1 Z=20 Rmt= 1.677 Rnm= 1.760
# # Pot 2 Z=29 Rmt= 1.147 Rnm= 1.265
# # Pot 3 Z=14 Rmt= 0.995 Rnm= 1.219
# # Pot 4 Z= 8 Rmt= 1.014 Rnm= 1.111
# # Gam_ch=1.729E+00 H-L exch Vi= 0.000E+00 Vr= 0.000E+00
# # Mu=-9.095E+00eV kf=2.215E+00 Vint=-1.725E+01eV Rs_int= 1.638
# FMS rfms= 9.0000
# # PATH  Rmax=-1.000,  Keep_limit= 0.00, Heap_limit 0.00  Pwcrit= 2.50%
#  S02=0.950  Temp=   0.00  Debye_temp=   0.00  Global_sig2= 0.00000
#  Energy zero shift, vr, vi    0.00000E+00   0.00000E+00
#  Curved wave amplitude ratio filter   4.000%
#     file         sig2 tot  cw amp ratio   deg  nlegs   reff  inp sig2
#     0/   0 paths used
#  xsedge+ 50, used to normalize mu           2.4706E-04
#  -----------------------------------------------------------------------
#  omega    e    k    mu    mu0     chi     @#
    8984.277    -12.905  -1.000  2.93610E-02  5.13340E-02 -2.19731E-02
    8984.576    -12.607  -0.960  3.04909E-02  5.49845E-02 -2.44936E-02
    8984.863    -12.320  -0.920  3.16716E-02  5.90341E-02 -2.73625E-02
    8985.137    -12.046  -0.880  3.29067E-02  6.35409E-02 -3.06342E-02
    8985.399    -11.784  -0.840  3.42002E-02  6.85725E-02 -3.43723E-02
    8985.649    -11.534  -0.800  3.55569E-02  7.42071E-02 -3.86502E-02
    8985.887    -11.296  -0.760  3.69822E-02  8.05344E-02 -4.35522E-02
    8986.112    -11.070  -0.720  3.84825E-02  8.76557E-02 -4.91733E-02
    8986.326    -10.857  -0.680  4.00644E-02  9.56824E-02 -5.56180E-02
    8986.527    -10.656  -0.640  4.17352E-02  1.04732E-01 -6.29968E-02
    8986.716    -10.467  -0.600  4.35010E-02  1.14919E-01 -7.14184E-02
    8986.893    -10.290  -0.560  4.53659E-02  1.26343E-01 -8.09768E-02
    8987.057    -10.126  -0.520  4.73295E-02  1.39060E-01 -9.17304E-02
    8987.210     -9.973  -0.480  4.93828E-02  1.53057E-01 -1.03674E-01
    8987.350     -9.833  -0.440  5.15052E-02  1.68210E-01 -1.16705E-01
    8987.478     -9.705  -0.400  5.36615E-02  1.84259E-01 -1.30598E-01
    8987.594     -9.589  -0.360  5.58018E-02  2.00792E-01 -1.44990E-01
    8987.697     -9.486  -0.320  5.78666E-02  2.17275E-01 -1.59408E-01
    8987.789     -9.394  -0.280  5.97952E-02  2.33113E-01 -1.73318E-01
    8987.868     -9.315  -0.240  6.15352E-02  2.47737E-01 -1.86202E-01
    8987.935     -9.248  -0.200  6.30480E-02  2.60665E-01 -1.97617E-01
    8987.990     -9.193  -0.160  6.43098E-02  2.71545E-01 -2.07235E-01
    8988.033     -9.150  -0.120  6.53083E-02  2.80150E-01 -2.14842E-01
    8988.063     -9.120  -0.080  6.60372E-02  2.86352E-01 -2.20314E-01
    8988.087     -9.095   0.000  6.66514E-02  2.91336E-01 -2.24685E-01
    8988.142     -9.041   0.120  6.79821E-02  3.02570E-01 -2.34588E-01
    8988.185     -8.998   0.160  6.89649E-02  3.11317E-01 -2.42352E-01
    8988.240     -8.943   0.200  7.01966E-02  3.22508E-01 -2.52311E-01
    8988.307     -8.876   0.240  7.16398E-02  3.35963E-01 -2.64323E-01
    8988.386     -8.797   0.280  7.32839E-02  3.51447E-01 -2.78163E-01
    8988.478     -8.705   0.320  7.51242E-02  3.68583E-01 -2.93459E-01
    8988.581     -8.602   0.360  7.71798E-02  3.86901E-01 -3.09721E-01
    8988.697     -8.486   0.400  7.94354E-02  4.05881E-01 -3.26446E-01
    8988.825     -8.358   0.440  8.19234E-02  4.25047E-01 -3.43124E-01
    8988.965     -8.218   0.480  8.47251E-02  4.44064E-01 -3.59339E-01
    8989.118     -8.065   0.520  8.79165E-02  4.62685E-01 -3.74769E-01
    8989.282     -7.901   0.560  9.16224E-02  4.80788E-01 -3.89166E-01
    8989.459     -7.724   0.600  9.59639E-02  4.98384E-01 -4.02420E-01
    8989.648     -7.535   0.640  1.01082E-01  5.15460E-01 -4.14378E-01
    8989.849     -7.334   0.680  1.07177E-01  5.32121E-01 -4.24944E-01
    8990.062     -7.120   0.720  1.14490E-01  5.48441E-01 -4.33951E-01
    8990.288     -6.895   0.760  1.23212E-01  5.64510E-01 -4.41298E-01
    8990.526     -6.657   0.800  1.33389E-01  5.80351E-01 -4.46961E-01
    8990.776     -6.407   0.840  1.44924E-01  5.96057E-01 -4.51133E-01
    8991.038     -6.145   0.880  1.57580E-01  6.11646E-01 -4.54066E-01
    8991.312     -5.871   0.920  1.71369E-01  6.27145E-01 -4.55776E-01
    8991.599     -5.584   0.960  1.86552E-01  6.42591E-01 -4.56039E-01
    8991.897     -5.285   1.000  2.03347E-01  6.57968E-01 -4.54620E-01
    8992.208     -4.974   1.040  2.22050E-01  6.73253E-01 -4.51203E-01
    8992.531     -4.651   1.080  2.42901E-01  6.88480E-01 -4.45579E-01
    8992.867     -4.316   1.120  2.65660E-01  7.03613E-01 -4.37953E-01
    8993.214     -3.969   1.160  2.90245E-01  7.18611E-01 -4.28366E-01
    8993.574     -3.609   1.200  3.17211E-01  7.33453E-01 -4.16241E-01
    8993.946     -3.237   1.240  3.46387E-01  7.48131E-01 -4.01744E-01
    8994.330     -2.853   1.280  3.77955E-01  7.62597E-01 -3.84642E-01
    8994.726     -2.457   1.320  4.15751E-01  7.76822E-01 -3.61071E-01
    8995.134     -2.048   1.360  4.65140E-01  7.90776E-01 -3.25636E-01
    8995.555     -1.628   1.400  5.32709E-01  8.04446E-01 -2.71737E-01
    8995.988     -1.195   1.440  6.27381E-01  8.17760E-01 -1.90379E-01
    8996.433     -0.750   1.480  7.51120E-01  8.30708E-01 -7.95888E-02
    8996.890     -0.293   1.520  8.77277E-01  8.43279E-01  3.39987E-02
    8997.359      0.177   1.560  9.57211E-01  8.55442E-01  1.01770E-01
    8997.841      0.658   1.600  9.90769E-01  8.67148E-01  1.23621E-01
    8998.335      1.152   1.640  1.02111E+00  8.78409E-01  1.42701E-01
    8998.841      1.658   1.680  1.05750E+00  8.89199E-01  1.68304E-01
    8999.359      2.176   1.720  1.08702E+00  8.99513E-01  1.87503E-01
    8999.889      2.706   1.760  1.10866E+00  9.09326E-01  1.99335E-01
    9000.432      3.249   1.800  1.13628E+00  9.18634E-01  2.17645E-01
    9000.986      3.804   1.840  1.18378E+00  9.27415E-01  2.56364E-01
    9001.553      4.371   1.880  1.25671E+00  9.35711E-01  3.21003E-01
    9002.132      4.950   1.920  1.33585E+00  9.43481E-01  3.92373E-01
    9002.724      5.541   1.960  1.39410E+00  9.50749E-01  4.43350E-01
    9003.327      6.145   2.000  1.42564E+00  9.57518E-01  4.68122E-01
    9003.943      6.760   2.040  1.43628E+00  9.63771E-01  4.72505E-01
    9004.571      7.388   2.080  1.42194E+00  9.69575E-01  4.52361E-01
    9005.211      8.028   2.120  1.37614E+00  9.74877E-01  4.01265E-01
    9005.863      8.680   2.160  1.30748E+00  9.79744E-01  3.27738E-01
    9006.528      9.345   2.200  1.23201E+00  9.84162E-01  2.47848E-01
    9007.204     10.022   2.240  1.16139E+00  9.88162E-01  1.73227E-01
    9007.893     10.710   2.280  1.09789E+00  9.91730E-01  1.06155E-01
    9008.594     11.411   2.320  1.04415E+00  9.94917E-01  4.92317E-02
    9009.307     12.125   2.360  1.00617E+00  9.97733E-01  8.44155E-03
    9010.033     12.850   2.400  9.85082E-01  1.00019E+00 -1.51045E-02
    9010.770     13.588   2.440  9.77402E-01  1.00233E+00 -2.49284E-02
    9011.520     14.338   2.480  9.81595E-01  1.00413E+00 -2.25359E-02
    9012.282     15.100   2.520  9.99435E-01  1.00566E+00 -6.22566E-03
    9013.056     15.874   2.560  1.03141E+00  1.00689E+00  2.45169E-02
    9013.843     16.660   2.600  1.06700E+00  1.00788E+00  5.91141E-02
    9014.641     17.459   2.640  1.07878E+00  1.00862E+00  7.01596E-02
    9015.452     18.269   2.680  1.06630E+00  1.00916E+00  5.71445E-02
    9016.275     19.092   2.720  1.04606E+00  1.00948E+00  3.65783E-02
    9017.110     19.928   2.760  1.02576E+00  1.00962E+00  1.61370E-02
    9017.958     20.775   2.800  1.00658E+00  1.00960E+00 -3.02216E-03
    9018.817     21.634   2.840  9.88549E-01  1.00944E+00 -2.08937E-02
    9019.689     22.506   2.880  9.71563E-01  1.00913E+00 -3.75713E-02
    9020.573     23.390   2.920  9.55187E-01  1.00870E+00 -5.35168E-02
    9021.469     24.286   2.960  9.39186E-01  1.00818E+00 -6.89946E-02
    9022.377     25.194   3.000  9.23509E-01  1.00757E+00 -8.40608E-02
    9023.298     26.115   3.040  9.08650E-01  1.00686E+00 -9.82071E-02
    9024.230     27.048   3.080  8.96092E-01  1.00609E+00 -1.09998E-01
    9025.175     27.993   3.120  8.87382E-01  1.00527E+00 -1.17893E-01
    9026.132     28.950   3.160  8.83251E-01  1.00442E+00 -1.21167E-01
    9027.102     29.919   3.200  8.83524E-01  1.00352E+00 -1.20000E-01
    9028.083     30.900   3.240  8.87411E-01  1.00262E+00 -1.15207E-01
    9029.077     31.894   3.280  8.93559E-01  1.00168E+00 -1.08124E-01
    9030.083     32.900   3.320  9.00846E-01  1.00076E+00 -9.99187E-02
    9031.101     33.918   3.360  9.08567E-01  9.99826E-01 -9.12598E-02
    9032.131     34.948   3.400  9.16514E-01  9.98911E-01 -8.23973E-02
    9033.173     35.990   3.440  9.24699E-01  9.98000E-01 -7.33012E-02
    9034.228     37.045   3.480  9.33132E-01  9.97098E-01 -6.39662E-02
    9035.295     38.112   3.520  9.41448E-01  9.96228E-01 -5.47792E-02
    9036.374     39.191   3.560  9.48857E-01  9.95393E-01 -4.65363E-02
    9037.465     40.282   3.600  9.54728E-01  9.94597E-01 -3.98683E-02
    9038.568     41.385   3.640  9.58892E-01  9.93839E-01 -3.49468E-02
    9039.684     42.501   3.680  9.61776E-01  9.93122E-01 -3.13453E-02
    9040.811     43.629   3.720  9.64260E-01  9.92446E-01 -2.81864E-02
    9041.951     44.769   3.760  9.67364E-01  9.91834E-01 -2.44704E-02
    9043.104     45.921   3.800  9.71787E-01  9.91245E-01 -1.94579E-02
    9044.268     47.085   3.840  9.78100E-01  9.90721E-01 -1.26213E-02
    9045.444     48.262   3.880  9.86667E-01  9.90242E-01 -3.57487E-03
    9046.633     49.450   3.920  9.97683E-01  9.89828E-01  7.85457E-03
    9047.834     50.651   3.960  1.01086E+00  9.89439E-01  2.14236E-02
    9049.047     51.864   4.000  1.02544E+00  9.89117E-01  3.63265E-02
    9050.272     53.090   4.040  1.04010E+00  9.88863E-01  5.12366E-02
    9051.510     54.327   4.080  1.05327E+00  9.88654E-01  6.46206E-02
    9052.760     55.577   4.120  1.06371E+00  9.88489E-01  7.52213E-02
    9054.021     56.839   4.160  1.07069E+00  9.88366E-01  8.23281E-02
    9055.295     58.113   4.200  1.07384E+00  9.88288E-01  8.55557E-02
    9056.582     59.399   4.240  1.07290E+00  9.88276E-01  8.46272E-02
    9057.880     60.697   4.280  1.06767E+00  9.88305E-01  7.93657E-02
    9059.191     62.008   4.320  1.05828E+00  9.88377E-01  6.98987E-02
    9060.514     63.331   4.360  1.04547E+00  9.88489E-01  5.69799E-02
    9061.849     64.666   4.400  1.03068E+00  9.88640E-01  4.20375E-02
    9063.196     66.013   4.440  1.01565E+00  9.88830E-01  2.68198E-02
    9064.555     67.373   4.480  1.00198E+00  9.89057E-01  1.29181E-02
    9065.927     68.744   4.520  9.90782E-01  9.89321E-01  1.46108E-03
    9067.311     70.128   4.560  9.82566E-01  9.89596E-01 -7.03007E-03
    9068.707     71.524   4.600  9.77284E-01  9.89905E-01 -1.26204E-02
    9070.115     72.932   4.640  9.74330E-01  9.90246E-01 -1.59162E-02
    9071.535     74.352   4.680  9.72683E-01  9.90597E-01 -1.79143E-02
    9072.968     75.785   4.720  9.71373E-01  9.90977E-01 -1.96042E-02
    9074.412     77.230   4.760  9.69885E-01  9.91362E-01 -2.14772E-02
    9075.869     78.687   4.800  9.68454E-01  9.91752E-01 -2.32977E-02
    9077.339     80.156   4.840  9.67835E-01  9.92166E-01 -2.43307E-02
    9078.820     81.637   4.880  9.68774E-01  9.92562E-01 -2.37875E-02
    9080.313     83.131   4.920  9.71880E-01  9.92979E-01 -2.10989E-02
    9081.819     84.636   4.960  9.77301E-01  9.93397E-01 -1.60954E-02
    9083.337     86.154   5.000  9.84693E-01  9.93811E-01 -9.11855E-03
    9084.867     87.684   5.040  9.93242E-01  9.94199E-01 -9.56619E-04
    9086.409     89.227   5.080  1.00200E+00  9.94581E-01  7.41675E-03
    9087.964     90.781   5.120  1.01016E+00  9.94958E-01  1.52045E-02
    9089.530     92.348   5.160  1.01730E+00  9.95330E-01  2.19715E-02
    9091.109     93.927   5.200  1.02315E+00  9.95670E-01  2.74763E-02
    9092.700     95.518   5.240  1.02746E+00  9.96000E-01  3.14568E-02
    9094.304     97.121   5.280  1.02994E+00  9.96296E-01  3.36418E-02
    9095.919     98.736   5.320  1.03047E+00  9.96558E-01  3.39068E-02
    9097.547    100.364   5.360  1.02908E+00  9.96811E-01  3.22672E-02
    9099.187    102.004   5.400  1.02568E+00  9.97051E-01  2.86296E-02
    9100.839    103.656   5.440  1.01988E+00  9.97234E-01  2.26511E-02
    9102.503    105.320   5.480  1.01145E+00  9.97399E-01  1.40493E-02
    9104.179    106.996   5.520  1.00071E+00  9.97528E-01  3.18322E-03
    9105.868    108.685   5.560  9.88790E-01  9.97621E-01 -8.83113E-03
    9107.568    110.386   5.600  9.77101E-01  9.97675E-01 -2.05739E-02
    9109.281    112.099   5.640  9.66758E-01  9.97713E-01 -3.09554E-02
    9111.007    113.824   5.680  9.58192E-01  9.97690E-01 -3.94982E-02
    9112.744    115.561   5.720  9.51516E-01  9.97653E-01 -4.61369E-02
    9114.493    117.311   5.760  9.46760E-01  9.97576E-01 -5.08166E-02
    9116.255    119.072   5.800  9.44111E-01  9.97437E-01 -5.33260E-02
    9118.029    120.846   5.840  9.43840E-01  9.97284E-01 -5.34433E-02
    9119.815    122.633   5.880  9.45953E-01  9.97097E-01 -5.11441E-02
    9121.614    124.431   5.920  9.50304E-01  9.96899E-01 -4.65948E-02
    9123.424    126.241   5.960  9.56552E-01  9.96639E-01 -4.00867E-02
    9125.247    128.064   6.000  9.64654E-01  9.96318E-01 -3.16644E-02
