# # comment:                                                     FEFF 9.9.1  
# # Source:
# # Structure
# # Reduced
# # space
# # abc:
# # angles:
# # sites:
# # POT  SCF 100  7.0000   0, screened core-hole, AFOLP (folp(0)= 1.150)
# # Abs   Z=29 Rmt= 1.212 Rnm= 1.301 K  shell
# # Pot 1 Z=20 Rmt= 1.664 Rnm= 1.737
# # Pot 2 Z=59 Rmt= 1.714 Rnm= 1.796
# # Pot 3 Z=29 Rmt= 1.202 Rnm= 1.295
# # Pot 4 Z= 8 Rmt= 1.049 Rnm= 1.103
# # Gam_ch=1.729E+00 H-L exch Vi= 0.000E+00 Vr= 0.000E+00
# # Mu=-9.154E+00eV kf=2.091E+00 Vint=-1.862E+01eV Rs_int= 1.734
# FMS rfms= 9.0000
# # PATH  Rmax=-1.000,  Keep_limit= 0.00, Heap_limit 0.00  Pwcrit= 2.50%
#  S02=0.950  Temp=   0.00  Debye_temp=   0.00  Global_sig2= 0.00000
#  Energy zero shift, vr, vi    0.00000E+00   0.00000E+00
#  Curved wave amplitude ratio filter   4.000%
#     file         sig2 tot  cw amp ratio   deg  nlegs   reff  inp sig2
#     0/   0 paths used
#  xsedge+ 50, used to normalize mu           2.4713E-04
#  -----------------------------------------------------------------------
#  omega    e    k    mu    mu0     chi     @#
    8985.107    -12.964  -1.000  4.33905E-02  5.47621E-02 -1.13716E-02
    8985.406    -12.665  -0.960  4.61874E-02  5.87714E-02 -1.25840E-02
    8985.693    -12.379  -0.920  4.92845E-02  6.32296E-02 -1.39451E-02
    8985.967    -12.104  -0.880  5.27283E-02  6.82030E-02 -1.54747E-02
    8986.229    -11.842  -0.840  5.65734E-02  7.37690E-02 -1.71957E-02
    8986.479    -11.592  -0.800  6.08834E-02  8.00173E-02 -1.91338E-02
    8986.717    -11.354  -0.760  6.57322E-02  8.70505E-02 -2.13183E-02
    8986.942    -11.129  -0.720  7.12039E-02  9.49852E-02 -2.37813E-02
    8987.156    -10.915  -0.680  7.73918E-02  1.03949E-01 -2.65577E-02
    8987.357    -10.714  -0.640  8.43952E-02  1.14078E-01 -2.96833E-02
    8987.546    -10.525  -0.600  9.23133E-02  1.25505E-01 -3.31921E-02
    8987.723    -10.349  -0.560  1.01233E-01  1.38344E-01 -3.71108E-02
    8987.887    -10.184  -0.520  1.11211E-01  1.52661E-01 -4.14505E-02
    8988.039    -10.032  -0.480  1.22248E-01  1.68443E-01 -4.61956E-02
    8988.180     -9.891  -0.440  1.34261E-01  1.85552E-01 -5.12909E-02
    8988.308     -9.763  -0.400  1.47056E-01  2.03687E-01 -5.66313E-02
    8988.424     -9.648  -0.360  1.60319E-01  2.22380E-01 -6.20614E-02
    8988.527     -9.544  -0.320  1.73632E-01  2.41021E-01 -6.73884E-02
    8988.619     -9.452  -0.280  1.86521E-01  2.58931E-01 -7.24101E-02
    8988.698     -9.373  -0.240  1.98514E-01  2.75461E-01 -7.69472E-02
    8988.765     -9.306  -0.200  2.09199E-01  2.90066E-01 -8.08672E-02
    8988.820     -9.251  -0.160  2.18258E-01  3.02348E-01 -8.40907E-02
    8988.862     -9.209  -0.120  2.25473E-01  3.12055E-01 -8.65825E-02
    8988.893     -9.178  -0.080  2.30709E-01  3.19046E-01 -8.83378E-02
    8988.917     -9.154   0.000  2.34956E-01  3.24662E-01 -8.97067E-02
    8988.972     -9.099   0.120  2.44241E-01  3.37340E-01 -9.30984E-02
    8989.015     -9.056   0.160  2.51515E-01  3.47159E-01 -9.56432E-02
    8989.070     -9.001   0.200  2.60857E-01  3.59714E-01 -9.88572E-02
    8989.137     -8.934   0.240  2.72133E-01  3.74811E-01 -1.02678E-01
    8989.216     -8.855   0.280  2.85019E-01  3.92120E-01 -1.07101E-01
    8989.307     -8.764   0.320  2.99039E-01  4.11212E-01 -1.12173E-01
    8989.411     -8.660   0.360  3.13351E-01  4.31491E-01 -1.18140E-01
    8989.527     -8.544   0.400  3.26882E-01  4.52382E-01 -1.25500E-01
    8989.655     -8.416   0.440  3.38345E-01  4.73348E-01 -1.35003E-01
    8989.795     -8.276   0.480  3.46566E-01  4.93948E-01 -1.47382E-01
    8989.948     -8.124   0.520  3.50942E-01  5.13896E-01 -1.62954E-01
    8990.112     -7.959   0.560  3.51767E-01  5.33051E-01 -1.81284E-01
    8990.289     -7.782   0.600  3.50140E-01  5.51421E-01 -2.01281E-01
    8990.478     -7.593   0.640  3.47356E-01  5.69044E-01 -2.21688E-01
    8990.679     -7.392   0.680  3.44339E-01  5.86001E-01 -2.41662E-01
    8990.892     -7.179   0.720  3.41579E-01  6.02384E-01 -2.60804E-01
    8991.118     -6.953   0.760  3.39489E-01  6.18283E-01 -2.78794E-01
    8991.356     -6.715   0.800  3.38573E-01  6.33799E-01 -2.95227E-01
    8991.606     -6.465   0.840  3.39371E-01  6.48982E-01 -3.09611E-01
    8991.868     -6.203   0.880  3.42687E-01  6.63905E-01 -3.21219E-01
    8992.142     -5.929   0.920  3.49502E-01  6.78611E-01 -3.29109E-01
    8992.429     -5.642   0.960  3.60217E-01  6.93125E-01 -3.32908E-01
    8992.727     -5.344   1.000  3.73777E-01  7.07467E-01 -3.33690E-01
    8993.038     -5.033   1.040  3.88100E-01  7.21643E-01 -3.33543E-01
    8993.361     -4.710   1.080  4.01500E-01  7.35634E-01 -3.34134E-01
    8993.697     -4.375   1.120  4.13009E-01  7.49474E-01 -3.36465E-01
    8994.044     -4.027   1.160  4.22442E-01  7.63110E-01 -3.40667E-01
    8994.404     -3.667   1.200  4.32990E-01  7.76545E-01 -3.43555E-01
    8994.776     -3.296   1.240  4.51719E-01  7.89742E-01 -3.38023E-01
    8995.160     -2.911   1.280  4.85370E-01  8.02718E-01 -3.17348E-01
    8995.556     -2.515   1.320  5.37764E-01  8.15409E-01 -2.77645E-01
    8995.964     -2.107   1.360  6.10727E-01  8.27831E-01 -2.17104E-01
    8996.385     -1.686   1.400  6.98721E-01  8.39917E-01 -1.41196E-01
    8996.818     -1.253   1.440  7.78238E-01  8.51680E-01 -7.34412E-02
    8997.263     -0.808   1.480  8.23710E-01  8.63093E-01 -3.93826E-02
    8997.720     -0.351   1.520  8.46387E-01  8.74110E-01 -2.77226E-02
    8998.189      0.118   1.560  8.79107E-01  8.84745E-01 -5.63797E-03
    8998.671      0.600   1.600  9.38652E-01  8.94972E-01  4.36801E-02
    8999.165      1.094   1.640  1.01924E+00  9.04788E-01  1.14450E-01
    8999.671      1.600   1.680  1.09756E+00  9.14145E-01  1.83420E-01
    9000.189      2.118   1.720  1.14788E+00  9.23062E-01  2.24821E-01
    9000.719      2.648   1.760  1.16731E+00  9.31517E-01  2.35797E-01
    9001.262      3.191   1.800  1.18724E+00  9.39529E-01  2.47710E-01
    9001.816      3.745   1.840  1.23663E+00  9.47078E-01  2.89557E-01
    9002.383      4.312   1.880  1.30283E+00  9.54162E-01  3.48663E-01
    9002.962      4.891   1.920  1.34408E+00  9.60767E-01  3.83310E-01
    9003.554      5.483   1.960  1.34751E+00  9.66955E-01  3.80552E-01
    9004.157      6.086   2.000  1.32657E+00  9.72668E-01  3.53898E-01
    9004.773      6.702   2.040  1.28945E+00  9.77951E-01  3.11497E-01
    9005.401      7.330   2.080  1.24643E+00  9.82790E-01  2.63640E-01
    9006.041      7.970   2.120  1.20886E+00  9.87233E-01  2.21626E-01
    9006.693      8.622   2.160  1.18445E+00  9.91243E-01  1.93207E-01
    9007.358      9.287   2.200  1.17072E+00  9.94871E-01  1.75852E-01
    9008.034      9.963   2.240  1.15907E+00  9.98122E-01  1.60953E-01
    9008.723     10.652   2.280  1.14973E+00  1.00101E+00  1.48725E-01
    9009.424     11.353   2.320  1.14646E+00  1.00355E+00  1.42910E-01
    9010.137     12.066   2.360  1.14695E+00  1.00574E+00  1.41207E-01
    9010.863     12.792   2.400  1.14653E+00  1.00763E+00  1.38901E-01
    9011.600     13.529   2.440  1.14076E+00  1.00923E+00  1.31536E-01
    9012.350     14.279   2.480  1.12706E+00  1.01054E+00  1.16520E-01
    9013.112     15.041   2.520  1.11004E+00  1.01160E+00  9.84382E-02
    9013.886     15.815   2.560  1.09849E+00  1.01242E+00  8.60741E-02
    9014.673     16.602   2.600  1.08725E+00  1.01302E+00  7.42317E-02
    9015.471     17.400   2.640  1.07071E+00  1.01338E+00  5.73242E-02
    9016.282     18.211   2.680  1.04687E+00  1.01355E+00  3.33176E-02
    9017.105     19.034   2.720  1.01750E+00  1.01357E+00  3.93307E-03
    9017.940     19.869   2.760  9.86068E-01  1.01340E+00 -2.73310E-02
    9018.788     20.717   2.800  9.55690E-01  1.01309E+00 -5.74044E-02
    9019.647     21.576   2.840  9.28303E-01  1.01266E+00 -8.43607E-02
    9020.519     22.448   2.880  9.04715E-01  1.01211E+00 -1.07397E-01
    9021.403     23.332   2.920  8.84963E-01  1.01145E+00 -1.26483E-01
    9022.299     24.228   2.960  8.69268E-01  1.01071E+00 -1.41446E-01
    9023.207     25.136   3.000  8.57799E-01  1.00988E+00 -1.52081E-01
    9024.128     26.057   3.040  8.50428E-01  1.00899E+00 -1.58565E-01
    9025.060     26.989   3.080  8.46616E-01  1.00806E+00 -1.61439E-01
    9026.005     27.934   3.120  8.45834E-01  1.00705E+00 -1.61220E-01
    9026.962     28.891   3.160  8.47221E-01  1.00604E+00 -1.58814E-01
    9027.932     29.860   3.200  8.50239E-01  1.00500E+00 -1.54766E-01
    9028.913     30.842   3.240  8.54897E-01  1.00394E+00 -1.49045E-01
    9029.907     31.836   3.280  8.61514E-01  1.00285E+00 -1.41339E-01
    9030.912     32.841   3.320  8.70309E-01  1.00178E+00 -1.31475E-01
    9031.931     33.859   3.360  8.81128E-01  1.00072E+00 -1.19591E-01
    9032.961     34.890   3.400  8.93495E-01  9.99680E-01 -1.06185E-01
    9034.003     35.932   3.440  9.06446E-01  9.98649E-01 -9.22027E-02
    9035.058     36.987   3.480  9.19159E-01  9.97628E-01 -7.84693E-02
    9036.125     38.053   3.520  9.31121E-01  9.96662E-01 -6.55410E-02
    9037.204     39.132   3.560  9.42086E-01  9.95713E-01 -5.36268E-02
    9038.295     40.224   3.600  9.52191E-01  9.94801E-01 -4.26101E-02
    9039.398     41.327   3.640  9.61950E-01  9.93950E-01 -3.20000E-02
    9040.514     42.443   3.680  9.71921E-01  9.93121E-01 -2.12001E-02
    9041.641     43.570   3.720  9.82596E-01  9.92355E-01 -9.75874E-03
    9042.781     44.710   3.760  9.94203E-01  9.91631E-01  2.57228E-03
    9043.933     45.862   3.800  1.00684E+00  9.90953E-01  1.58863E-02
    9045.098     47.027   3.840  1.02022E+00  9.90321E-01  2.98941E-02
    9046.274     48.203   3.880  1.03377E+00  9.89757E-01  4.40141E-02
    9047.463     49.392   3.920  1.04677E+00  9.89261E-01  5.75091E-02
    9048.664     50.593   3.960  1.05835E+00  9.88813E-01  6.95362E-02
    9049.877     51.806   4.000  1.06761E+00  9.88410E-01  7.91975E-02
    9051.102     53.031   4.040  1.07359E+00  9.88051E-01  8.55413E-02
    9052.340     54.269   4.080  1.07543E+00  9.87760E-01  8.76648E-02
    9053.590     55.518   4.120  1.07245E+00  9.87518E-01  8.49342E-02
    9054.851     56.780   4.160  1.06483E+00  9.87343E-01  7.74824E-02
    9056.125     58.054   4.200  1.05370E+00  9.87213E-01  6.64846E-02
    9057.412     59.341   4.240  1.04104E+00  9.87126E-01  5.39164E-02
    9058.710     60.639   4.280  1.02905E+00  9.87084E-01  4.19658E-02
    9060.021     61.950   4.320  1.01941E+00  9.87108E-01  3.23011E-02
    9061.344     63.273   4.360  1.01277E+00  9.87174E-01  2.55955E-02
    9062.679     64.608   4.400  1.00896E+00  9.87281E-01  2.16805E-02
    9064.026     65.955   4.440  1.00757E+00  9.87426E-01  2.01427E-02
    9065.385     67.314   4.480  1.00824E+00  9.87589E-01  2.06541E-02
    9066.757     68.686   4.520  1.01079E+00  9.87810E-01  2.29767E-02
    9068.141     70.070   4.560  1.01479E+00  9.88070E-01  2.67202E-02
    9069.537     71.465   4.600  1.01958E+00  9.88343E-01  3.12387E-02
    9070.945     72.874   4.640  1.02440E+00  9.88650E-01  3.57512E-02
    9072.365     74.294   4.680  1.02854E+00  9.88989E-01  3.95480E-02
    9073.798     75.727   4.720  1.03153E+00  9.89339E-01  4.21906E-02
    9075.242     77.171   4.760  1.03324E+00  9.89719E-01  4.35240E-02
    9076.699     78.628   4.800  1.03371E+00  9.90107E-01  4.36036E-02
    9078.168     80.097   4.840  1.03298E+00  9.90523E-01  4.24613E-02
    9079.650     81.579   4.880  1.03092E+00  9.90943E-01  3.99745E-02
    9081.143     83.072   4.920  1.02727E+00  9.91364E-01  3.59034E-02
    9082.649     84.578   4.960  1.02183E+00  9.91785E-01  3.00428E-02
    9084.167     86.096   5.000  1.01478E+00  9.92206E-01  2.25705E-02
    9085.697     87.626   5.040  1.00671E+00  9.92625E-01  1.40823E-02
    9087.239     89.168   5.080  9.98325E-01  9.93040E-01  5.28533E-03
    9088.794     90.723   5.120  9.90101E-01  9.93430E-01 -3.32935E-03
    9090.360     92.289   5.160  9.82102E-01  9.93836E-01 -1.17343E-02
    9091.939     93.868   5.200  9.74093E-01  9.94215E-01 -2.01221E-02
    9093.530     95.459   5.240  9.65922E-01  9.94586E-01 -2.86641E-02
    9095.134     97.062   5.280  9.57555E-01  9.94926E-01 -3.73708E-02
    9096.749     98.678   5.320  9.49056E-01  9.95255E-01 -4.61992E-02
    9098.377    100.306   5.360  9.40486E-01  9.95553E-01 -5.50671E-02
    9100.016    101.945   5.400  9.32112E-01  9.95839E-01 -6.37266E-02
    9101.668    103.597   5.440  9.24303E-01  9.96089E-01 -7.17863E-02
    9103.333    105.262   5.480  9.17422E-01  9.96302E-01 -7.88803E-02
    9105.009    106.938   5.520  9.11766E-01  9.96480E-01 -8.47142E-02
    9106.698    108.627   5.560  9.07873E-01  9.96646E-01 -8.87728E-02
    9108.398    110.327   5.600  9.06623E-01  9.96773E-01 -9.01494E-02
    9110.111    112.040   5.640  9.09101E-01  9.96862E-01 -8.77603E-02
    9111.837    113.765   5.680  9.16114E-01  9.96915E-01 -8.08012E-02
    9113.574    115.503   5.720  9.27771E-01  9.96952E-01 -6.91815E-02
    9115.323    117.252   5.760  9.43329E-01  9.96928E-01 -5.35992E-02
    9117.085    119.014   5.800  9.61626E-01  9.96888E-01 -3.52622E-02
    9118.859    120.788   5.840  9.81336E-01  9.96788E-01 -1.54520E-02
    9120.645    122.574   5.880  1.00138E+00  9.96673E-01  4.70750E-03
    9122.444    124.372   5.920  1.02057E+00  9.96522E-01  2.40500E-02
    9124.254    126.183   5.960  1.03720E+00  9.96333E-01  4.08715E-02
    9126.077    128.006   6.000  1.04914E+00  9.96083E-01  5.30557E-02
