# # comment:                                                     FEFF 9.9.1  
# # Source:
# # Structure
# # Reduced
# # space
# # abc:
# # angles:
# # sites:
# # POT  SCF 100  7.0000   0, screened core-hole, AFOLP (folp(0)= 1.150)
# # Abs   Z=29 Rmt= 1.243 Rnm= 1.323 K  shell
# # Pot 1 Z=12 Rmt= 1.333 Rnm= 1.439
# # Pot 2 Z=23 Rmt= 1.094 Rnm= 1.307
# # Pot 3 Z=29 Rmt= 1.246 Rnm= 1.323
# # Pot 4 Z= 8 Rmt= 0.925 Rnm= 1.091
# # Gam_ch=1.729E+00 H-L exch Vi= 0.000E+00 Vr= 0.000E+00
# # Mu=-8.960E+00eV kf=2.262E+00 Vint=-1.738E+01eV Rs_int= 1.604
# FMS rfms= 9.0000
# # PATH  Rmax=-1.000,  Keep_limit= 0.00, Heap_limit 0.00  Pwcrit= 2.50%
#  S02=0.950  Temp=   0.00  Debye_temp=   0.00  Global_sig2= 0.00000
#  Energy zero shift, vr, vi    0.00000E+00   0.00000E+00
#  Curved wave amplitude ratio filter   4.000%
#     file         sig2 tot  cw amp ratio   deg  nlegs   reff  inp sig2
#     0/   0 paths used
#  xsedge+ 50, used to normalize mu           2.4743E-04
#  -----------------------------------------------------------------------
#  omega    e    k    mu    mu0     chi     @#
    8984.182    -12.770  -1.000  3.64376E-02  5.07394E-02 -1.43018E-02
    8984.481    -12.471  -0.960  3.84160E-02  5.43380E-02 -1.59220E-02
    8984.767    -12.184  -0.920  4.05680E-02  5.83299E-02 -1.77619E-02
    8985.042    -11.910  -0.880  4.29173E-02  6.27724E-02 -1.98551E-02
    8985.304    -11.648  -0.840  4.54911E-02  6.77322E-02 -2.22411E-02
    8985.554    -11.398  -0.800  4.83212E-02  7.32865E-02 -2.49653E-02
    8985.791    -11.160  -0.760  5.14441E-02  7.95239E-02 -2.80797E-02
    8986.017    -10.935  -0.720  5.49008E-02  8.65442E-02 -3.16434E-02
    8986.230    -10.721  -0.680  5.87365E-02  9.44575E-02 -3.57210E-02
    8986.432    -10.520  -0.640  6.29988E-02  1.03380E-01 -4.03810E-02
    8986.621    -10.331  -0.600  6.77342E-02  1.13425E-01 -4.56904E-02
    8986.797    -10.154  -0.560  7.29822E-02  1.24689E-01 -5.17068E-02
    8986.962     -9.990  -0.520  7.87654E-02  1.37230E-01 -5.84646E-02
    8987.114     -9.837  -0.480  8.50771E-02  1.51034E-01 -6.59568E-02
    8987.255     -9.697  -0.440  9.18657E-02  1.65980E-01 -7.41139E-02
    8987.383     -9.569  -0.400  9.90217E-02  1.81808E-01 -8.27868E-02
    8987.498     -9.453  -0.360  1.06373E-01  1.98115E-01 -9.17414E-02
    8987.602     -9.350  -0.320  1.13695E-01  2.14371E-01 -1.00676E-01
    8987.693     -9.258  -0.280  1.20735E-01  2.29991E-01 -1.09256E-01
    8987.773     -9.179  -0.240  1.27245E-01  2.44411E-01 -1.17167E-01
    8987.840     -9.112  -0.200  1.33013E-01  2.57158E-01 -1.24145E-01
    8987.895     -9.057  -0.160  1.37882E-01  2.67885E-01 -1.30003E-01
    8987.937     -9.014  -0.120  1.41747E-01  2.76367E-01 -1.34620E-01
    8987.968     -8.984  -0.080  1.44549E-01  2.82480E-01 -1.37932E-01
    8987.992     -8.960   0.000  1.46829E-01  2.87394E-01 -1.40565E-01
    8988.047     -8.905   0.120  1.51794E-01  2.98488E-01 -1.46694E-01
    8988.090     -8.862   0.160  1.55626E-01  3.07093E-01 -1.51468E-01
    8988.145     -8.807   0.200  1.60526E-01  3.18102E-01 -1.57576E-01
    8988.212     -8.740   0.240  1.66432E-01  3.31371E-01 -1.64938E-01
    8988.291     -8.661   0.280  1.73225E-01  3.46625E-01 -1.73400E-01
    8988.382     -8.569   0.320  1.80740E-01  3.63492E-01 -1.82753E-01
    8988.486     -8.466   0.360  1.88809E-01  3.81506E-01 -1.92697E-01
    8988.602     -8.350   0.400  1.97269E-01  4.00149E-01 -2.02880E-01
    8988.730     -8.222   0.440  2.06100E-01  4.18989E-01 -2.12888E-01
    8988.870     -8.082   0.480  2.15330E-01  4.37654E-01 -2.22324E-01
    8989.022     -7.929   0.520  2.25065E-01  4.55902E-01 -2.30837E-01
    8989.187     -7.765   0.560  2.35241E-01  4.73631E-01 -2.38390E-01
    8989.364     -7.588   0.600  2.45506E-01  4.90833E-01 -2.45327E-01
    8989.553     -7.399   0.640  2.55125E-01  5.07536E-01 -2.52411E-01
    8989.754     -7.198   0.680  2.63351E-01  5.23805E-01 -2.60454E-01
    8989.967     -6.984   0.720  2.69929E-01  5.39755E-01 -2.69826E-01
    8990.193     -6.759   0.760  2.74965E-01  5.55417E-01 -2.80452E-01
    8990.431     -6.521   0.800  2.78744E-01  5.70875E-01 -2.92131E-01
    8990.680     -6.271   0.840  2.81490E-01  5.86204E-01 -3.04714E-01
    8990.943     -6.009   0.880  2.83838E-01  6.01442E-01 -3.17604E-01
    8991.217     -5.735   0.920  2.86716E-01  6.16599E-01 -3.29883E-01
    8991.503     -5.448   0.960  2.90747E-01  6.31711E-01 -3.40965E-01
    8991.802     -5.150   1.000  2.96383E-01  6.46787E-01 -3.50404E-01
    8992.113     -4.839   1.040  3.04867E-01  6.61826E-01 -3.56959E-01
    8992.436     -4.516   1.080  3.18184E-01  6.76802E-01 -3.58618E-01
    8992.771     -4.180   1.120  3.37250E-01  6.91699E-01 -3.54449E-01
    8993.119     -3.833   1.160  3.61210E-01  7.06521E-01 -3.45311E-01
    8993.479     -3.473   1.200  3.89430E-01  7.21244E-01 -3.31814E-01
    8993.850     -3.101   1.240  4.22781E-01  7.35826E-01 -3.13045E-01
    8994.234     -2.717   1.280  4.61520E-01  7.50238E-01 -2.88718E-01
    8994.631     -2.321   1.320  5.03993E-01  7.64452E-01 -2.60459E-01
    8995.039     -1.913   1.360  5.50148E-01  7.78457E-01 -2.28310E-01
    8995.460     -1.492   1.400  6.01176E-01  7.92182E-01 -1.91005E-01
    8995.893     -1.059   1.440  6.54566E-01  8.05636E-01 -1.51070E-01
    8996.338     -0.614   1.480  7.07053E-01  8.18766E-01 -1.11712E-01
    8996.795     -0.157   1.520  7.63313E-01  8.31563E-01 -6.82503E-02
    8997.264      0.312   1.560  8.33203E-01  8.43994E-01 -1.07906E-02
    8997.746      0.794   1.600  9.18634E-01  8.56009E-01  6.26250E-02
    8998.239      1.288   1.640  1.00612E+00  8.67620E-01  1.38501E-01
    8998.745      1.794   1.680  1.07533E+00  8.78798E-01  1.96533E-01
    8999.264      2.312   1.720  1.12300E+00  8.89517E-01  2.33480E-01
    8999.794      2.842   1.760  1.15707E+00  8.99769E-01  2.57296E-01
    9000.336      3.385   1.800  1.17852E+00  9.09551E-01  2.68971E-01
    9000.891      3.939   1.840  1.18768E+00  9.18837E-01  2.68839E-01
    9001.458      4.506   1.880  1.19005E+00  9.27648E-01  2.62406E-01
    9002.037      5.086   1.920  1.19481E+00  9.35941E-01  2.58865E-01
    9002.629      5.677   1.960  1.21273E+00  9.43736E-01  2.68995E-01
    9003.232      6.280   2.000  1.24463E+00  9.51056E-01  2.93574E-01
    9003.848      6.896   2.040  1.27759E+00  9.57862E-01  3.19726E-01
    9004.476      7.524   2.080  1.30261E+00  9.64199E-01  3.38412E-01
    9005.116      8.164   2.120  1.31475E+00  9.70051E-01  3.44694E-01
    9005.768      8.816   2.160  1.30980E+00  9.75443E-01  3.34358E-01
    9006.432      9.481   2.200  1.29101E+00  9.80382E-01  3.10626E-01
    9007.109     10.157   2.240  1.26763E+00  9.84876E-01  2.82751E-01
    9007.798     10.846   2.280  1.24705E+00  9.88951E-01  2.58097E-01
    9008.499     11.547   2.320  1.22646E+00  9.92614E-01  2.33845E-01
    9009.212     12.260   2.360  1.19930E+00  9.95875E-01  2.03422E-01
    9009.938     12.986   2.400  1.16379E+00  9.98742E-01  1.65046E-01
    9010.675     13.724   2.440  1.12175E+00  1.00129E+00  1.20465E-01
    9011.425     14.473   2.480  1.07586E+00  1.00346E+00  7.24006E-02
    9012.187     15.235   2.520  1.02903E+00  1.00532E+00  2.37116E-02
    9012.961     16.010   2.560  9.84964E-01  1.00689E+00 -2.19260E-02
    9013.748     16.796   2.600  9.49485E-01  1.00817E+00 -5.86901E-02
    9014.546     17.594   2.640  9.25418E-01  1.00918E+00 -8.37655E-02
    9015.357     18.405   2.680  9.14507E-01  1.00995E+00 -9.54379E-02
    9016.180     19.228   2.720  9.08408E-01  1.01049E+00 -1.02081E-01
    9017.015     20.063   2.760  9.04938E-01  1.01080E+00 -1.05866E-01
    9017.862     20.911   2.800  9.04157E-01  1.01094E+00 -1.06782E-01
    9018.722     21.770   2.840  9.05658E-01  1.01088E+00 -1.05227E-01
    9019.594     22.642   2.880  9.08550E-01  1.01069E+00 -1.02139E-01
    9020.478     23.526   2.920  9.12016E-01  1.01034E+00 -9.83216E-02
    9021.374     24.422   2.960  9.15637E-01  1.00986E+00 -9.42236E-02
    9022.282     25.330   3.000  9.19044E-01  1.00926E+00 -9.02207E-02
    9023.202     26.251   3.040  9.22108E-01  1.00858E+00 -8.64696E-02
    9024.135     27.183   3.080  9.25035E-01  1.00781E+00 -8.27714E-02
    9025.080     28.128   3.120  9.27757E-01  1.00696E+00 -7.91984E-02
    9026.037     29.085   3.160  9.30198E-01  1.00603E+00 -7.58344E-02
    9027.006     30.055   3.200  9.32292E-01  1.00508E+00 -7.27919E-02
    9027.988     31.036   3.240  9.33862E-01  1.00407E+00 -7.02124E-02
    9028.981     32.030   3.280  9.34832E-01  1.00305E+00 -6.82196E-02
    9029.987     33.036   3.320  9.35183E-01  1.00202E+00 -6.68335E-02
    9031.005     34.054   3.360  9.35084E-01  1.00095E+00 -6.58711E-02
    9032.036     35.084   3.400  9.34706E-01  9.99890E-01 -6.51839E-02
    9033.078     36.126   3.440  9.34384E-01  9.98827E-01 -6.44425E-02
    9034.133     37.181   3.480  9.34496E-01  9.97789E-01 -6.32930E-02
    9035.199     38.248   3.520  9.35257E-01  9.96760E-01 -6.15028E-02
    9036.278     39.327   3.560  9.36772E-01  9.95763E-01 -5.89916E-02
    9037.370     40.418   3.600  9.39010E-01  9.94800E-01 -5.57902E-02
    9038.473     41.521   3.640  9.41991E-01  9.93855E-01 -5.18640E-02
    9039.588     42.637   3.680  9.45899E-01  9.92966E-01 -4.70672E-02
    9040.716     43.764   3.720  9.51043E-01  9.92098E-01 -4.10549E-02
    9041.856     44.904   3.760  9.57859E-01  9.91296E-01 -3.34361E-02
    9043.008     46.057   3.800  9.66473E-01  9.90536E-01 -2.40638E-02
    9044.173     47.221   3.840  9.76701E-01  9.89842E-01 -1.31411E-02
    9045.349     48.397   3.880  9.88055E-01  9.89174E-01 -1.11969E-03
    9046.538     49.586   3.920  9.99983E-01  9.88594E-01  1.13891E-02
    9047.739     50.787   3.960  1.01176E+00  9.88040E-01  2.37248E-02
    9048.952     52.000   4.000  1.02293E+00  9.87556E-01  3.53733E-02
    9050.177     53.225   4.040  1.03311E+00  9.87141E-01  4.59644E-02
    9051.415     54.463   4.080  1.04195E+00  9.86773E-01  5.51736E-02
    9052.664     55.713   4.120  1.04920E+00  9.86454E-01  6.27493E-02
    9053.926     56.974   4.160  1.05473E+00  9.86202E-01  6.85280E-02
    9055.200     58.249   4.200  1.05835E+00  9.85999E-01  7.23529E-02
    9056.486     59.535   4.240  1.05993E+00  9.85864E-01  7.40646E-02
    9057.785     60.833   4.280  1.05942E+00  9.85775E-01  7.36480E-02
    9059.096     62.144   4.320  1.05696E+00  9.85731E-01  7.12246E-02
    9060.418     63.467   4.360  1.05290E+00  9.85755E-01  6.71430E-02
    9061.753     64.802   4.400  1.04780E+00  9.85822E-01  6.19737E-02
    9063.101     66.149   4.440  1.04227E+00  9.85931E-01  5.63403E-02
    9064.460     67.508   4.480  1.03688E+00  9.86081E-01  5.08037E-02
    9065.832     68.880   4.520  1.03212E+00  9.86271E-01  4.58531E-02
    9067.215     70.264   4.560  1.02836E+00  9.86504E-01  4.18557E-02
    9068.611     71.660   4.600  1.02573E+00  9.86796E-01  3.89348E-02
    9070.020     73.068   4.640  1.02398E+00  9.87102E-01  3.68765E-02
    9071.440     74.488   4.680  1.02253E+00  9.87422E-01  3.51120E-02
    9072.872     75.921   4.720  1.02064E+00  9.87798E-01  3.28399E-02
    9074.317     77.365   4.760  1.01750E+00  9.88185E-01  2.93126E-02
    9075.774     78.822   4.800  1.01272E+00  9.88604E-01  2.41184E-02
    9077.243     80.292   4.840  1.00635E+00  9.89030E-01  1.73237E-02
    9078.725     81.773   4.880  9.98904E-01  9.89483E-01  9.42111E-03
    9080.218     83.266   4.920  9.91014E-01  9.89920E-01  1.09479E-03
    9081.724     84.772   4.960  9.83351E-01  9.90381E-01 -7.03038E-03
    9083.242     86.290   5.000  9.76324E-01  9.90868E-01 -1.45436E-02
    9084.772     87.820   5.040  9.70038E-01  9.91332E-01 -2.12944E-02
    9086.314     89.362   5.080  9.64479E-01  9.91793E-01 -2.73143E-02
    9087.869     90.917   5.120  9.59523E-01  9.92252E-01 -3.27283E-02
    9089.435     92.484   5.160  9.55040E-01  9.92705E-01 -3.76657E-02
    9091.014     94.062   5.200  9.50938E-01  9.93130E-01 -4.21915E-02
    9092.605     95.653   5.240  9.47276E-01  9.93547E-01 -4.62708E-02
    9094.208     97.257   5.280  9.44274E-01  9.93958E-01 -4.96840E-02
    9095.824     98.872   5.320  9.42298E-01  9.94337E-01 -5.20393E-02
    9097.451    100.500   5.360  9.41884E-01  9.94705E-01 -5.28217E-02
    9099.091    102.140   5.400  9.43395E-01  9.95040E-01 -5.16448E-02
    9100.743    103.792   5.440  9.46893E-01  9.95340E-01 -4.84466E-02
    9102.407    105.456   5.480  9.52037E-01  9.95625E-01 -4.35877E-02
    9104.084    107.132   5.520  9.58162E-01  9.95874E-01 -3.77124E-02
    9105.772    108.821   5.560  9.64545E-01  9.96086E-01 -3.15405E-02
    9107.473    110.522   5.600  9.70678E-01  9.96256E-01 -2.55787E-02
    9109.186    112.234   5.640  9.76428E-01  9.96387E-01 -1.99587E-02
    9110.911    113.960   5.680  9.81993E-01  9.96478E-01 -1.44859E-02
    9112.649    115.697   5.720  9.87574E-01  9.96531E-01 -8.95618E-03
    9114.398    117.447   5.760  9.93059E-01  9.96544E-01 -3.48506E-03
    9116.160    119.208   5.800  9.97929E-01  9.96541E-01  1.38811E-03
    9117.934    120.982   5.840  1.00147E+00  9.96475E-01  4.99764E-03
    9119.720    122.768   5.880  1.00334E+00  9.96368E-01  6.96788E-03
    9121.518    124.567   5.920  1.00363E+00  9.96221E-01  7.40861E-03
    9123.329    126.377   5.960  1.00274E+00  9.96033E-01  6.70733E-03
    9125.152    128.200   6.000  1.00094E+00  9.95778E-01  5.16245E-03
