# # comment:                                                     FEFF 9.9.1  
# # Source:
# # Structure
# # Reduced
# # space
# # abc:
# # angles:
# # sites:
# # POT  SCF 100  7.0000   0, screened core-hole, AFOLP (folp(0)= 1.150)
# # Abs   Z=29 Rmt= 1.255 Rnm= 1.353 K  shell
# # Pot 1 Z= 3 Rmt= 1.276 Rnm= 1.336
# # Pot 2 Z=29 Rmt= 1.255 Rnm= 1.353
# # Pot 3 Z=51 Rmt= 1.329 Rnm= 1.466
# # Pot 4 Z= 8 Rmt= 1.002 Rnm= 1.099
# # Gam_ch=1.729E+00 H-L exch Vi= 0.000E+00 Vr= 0.000E+00
# # Mu=-6.791E+00eV kf=2.152E+00 Vint=-1.594E+01eV Rs_int= 1.685
# FMS rfms= 9.0000
# # PATH  Rmax=-1.000,  Keep_limit= 0.00, Heap_limit 0.00  Pwcrit= 2.50%
#  S02=0.950  Temp=   0.00  Debye_temp=   0.00  Global_sig2= 0.00000
#  Energy zero shift, vr, vi    0.00000E+00   0.00000E+00
#  Curved wave amplitude ratio filter   4.000%
#     file         sig2 tot  cw amp ratio   deg  nlegs   reff  inp sig2
#     0/   0 paths used
#  xsedge+ 50, used to normalize mu           2.4639E-04
#  -----------------------------------------------------------------------
#  omega    e    k    mu    mu0     chi     @#
    8983.475    -10.601  -1.000  4.04167E-02  5.48618E-02 -1.44452E-02
    8983.773    -10.302  -0.960  4.26407E-02  5.88775E-02 -1.62368E-02
    8984.060    -10.015  -0.920  4.50416E-02  6.33423E-02 -1.83008E-02
    8984.334     -9.741  -0.880  4.76386E-02  6.83226E-02 -2.06840E-02
    8984.596     -9.479  -0.840  5.04533E-02  7.38956E-02 -2.34423E-02
    8984.846     -9.229  -0.800  5.35098E-02  8.01508E-02 -2.66411E-02
    8985.084     -8.991  -0.760  5.68347E-02  8.71910E-02 -3.03564E-02
    8985.310     -8.766  -0.720  6.04568E-02  9.51323E-02 -3.46755E-02
    8985.523     -8.552  -0.680  6.44068E-02  1.04103E-01 -3.96959E-02
    8985.724     -8.351  -0.640  6.87149E-02  1.14237E-01 -4.55223E-02
    8985.913     -8.162  -0.600  7.34092E-02  1.25668E-01 -5.22592E-02
    8986.090     -7.985  -0.560  7.85107E-02  1.38510E-01 -5.99992E-02
    8986.254     -7.821  -0.520  8.40271E-02  1.52829E-01 -6.88021E-02
    8986.407     -7.668  -0.480  8.99441E-02  1.68611E-01 -7.86672E-02
    8986.547     -7.528  -0.440  9.62161E-02  1.85718E-01 -8.95020E-02
    8986.675     -7.400  -0.400  1.02757E-01  2.03851E-01 -1.01094E-01
    8986.791     -7.284  -0.360  1.09436E-01  2.22540E-01 -1.13105E-01
    8986.894     -7.181  -0.320  1.16084E-01  2.41178E-01 -1.25094E-01
    8986.986     -7.089  -0.280  1.22506E-01  2.59086E-01 -1.36579E-01
    8987.065     -7.010  -0.240  1.28504E-01  2.75614E-01 -1.47110E-01
    8987.132     -6.943  -0.200  1.33891E-01  2.90219E-01 -1.56328E-01
    8987.187     -6.888  -0.160  1.38511E-01  3.02503E-01 -1.63992E-01
    8987.230     -6.845  -0.120  1.42238E-01  3.12211E-01 -1.69973E-01
    8987.260     -6.815  -0.080  1.44982E-01  3.19203E-01 -1.74221E-01
    8987.285     -6.791   0.000  1.47261E-01  3.24820E-01 -1.77559E-01
    8987.339     -6.736   0.120  1.52315E-01  3.37497E-01 -1.85182E-01
    8987.382     -6.693   0.160  1.56273E-01  3.47327E-01 -1.91055E-01
    8987.437     -6.638   0.200  1.61445E-01  3.59889E-01 -1.98444E-01
    8987.504     -6.571   0.240  1.67860E-01  3.74989E-01 -2.07128E-01
    8987.583     -6.492   0.280  1.75572E-01  3.92340E-01 -2.16768E-01
    8987.675     -6.400   0.320  1.84567E-01  4.11458E-01 -2.26891E-01
    8987.778     -6.297   0.360  1.94778E-01  4.31788E-01 -2.37009E-01
    8987.894     -6.181   0.400  2.06112E-01  4.52760E-01 -2.46647E-01
    8988.022     -6.053   0.440  2.18267E-01  4.73797E-01 -2.55530E-01
    8988.162     -5.913   0.480  2.30993E-01  4.94504E-01 -2.63511E-01
    8988.315     -5.760   0.520  2.44005E-01  5.14573E-01 -2.70568E-01
    8988.479     -5.596   0.560  2.57433E-01  5.33885E-01 -2.76452E-01
    8988.656     -5.419   0.600  2.72012E-01  5.52427E-01 -2.80416E-01
    8988.845     -5.230   0.640  2.89053E-01  5.70237E-01 -2.81184E-01
    8989.046     -5.029   0.680  3.09990E-01  5.87390E-01 -2.77399E-01
    8989.260     -4.815   0.720  3.35679E-01  6.03957E-01 -2.68278E-01
    8989.485     -4.590   0.760  3.65718E-01  6.20091E-01 -2.54372E-01
    8989.723     -4.352   0.800  3.98069E-01  6.35808E-01 -2.37739E-01
    8989.973     -4.102   0.840  4.30103E-01  6.51235E-01 -2.21133E-01
    8990.235     -3.840   0.880  4.59455E-01  6.66385E-01 -2.06930E-01
    8990.509     -3.566   0.920  4.83802E-01  6.81296E-01 -1.97494E-01
    8990.796     -3.279   0.960  5.00712E-01  6.96036E-01 -1.95323E-01
    8991.095     -2.981   1.000  5.10398E-01  7.10559E-01 -2.00161E-01
    8991.406     -2.670   1.040  5.17469E-01  7.24911E-01 -2.07442E-01
    8991.729     -2.347   1.080  5.26545E-01  7.39091E-01 -2.12546E-01
    8992.064     -2.011   1.120  5.38530E-01  7.53050E-01 -2.14519E-01
    8992.411     -1.664   1.160  5.52409E-01  7.66815E-01 -2.14406E-01
    8992.771     -1.304   1.200  5.67950E-01  7.80352E-01 -2.12402E-01
    8993.143     -0.932   1.240  5.85924E-01  7.93636E-01 -2.07712E-01
    8993.527     -0.548   1.280  6.06655E-01  8.06646E-01 -1.99991E-01
    8993.923     -0.152   1.320  6.30384E-01  8.19380E-01 -1.88997E-01
    8994.332      0.256   1.360  6.56104E-01  8.31790E-01 -1.75686E-01
    8994.752      0.677   1.400  6.79485E-01  8.43848E-01 -1.64363E-01
    8995.185      1.110   1.440  6.99248E-01  8.55550E-01 -1.56302E-01
    8995.630      1.555   1.480  7.22487E-01  8.66848E-01 -1.44361E-01
    8996.087      2.012   1.520  7.57098E-01  8.77775E-01 -1.20677E-01
    8996.557      2.481   1.560  8.05351E-01  8.88268E-01 -8.29174E-02
    8997.038      2.963   1.600  8.66636E-01  8.98320E-01 -3.16835E-02
    8997.532      3.457   1.640  9.40260E-01  9.07925E-01  3.23345E-02
    8998.038      3.963   1.680  1.03295E+00  9.17064E-01  1.15888E-01
    8998.556      4.481   1.720  1.15414E+00  9.25752E-01  2.28387E-01
    8999.086      5.011   1.760  1.27897E+00  9.33969E-01  3.45005E-01
    8999.629      5.554   1.800  1.36101E+00  9.41694E-01  4.19313E-01
    9000.184      6.109   1.840  1.38956E+00  9.48969E-01  4.40587E-01
    9000.751      6.675   1.880  1.36815E+00  9.55757E-01  4.12393E-01
    9001.330      7.255   1.920  1.31066E+00  9.62101E-01  3.48564E-01
    9001.921      7.846   1.960  1.25478E+00  9.67964E-01  2.86815E-01
    9002.525      8.449   2.000  1.23246E+00  9.73392E-01  2.59072E-01
    9003.140      9.065   2.040  1.24534E+00  9.78369E-01  2.66972E-01
    9003.768      9.693   2.080  1.27426E+00  9.82924E-01  2.91335E-01
    9004.408     10.333   2.120  1.29755E+00  9.87063E-01  3.10489E-01
    9005.060     10.985   2.160  1.30057E+00  9.90794E-01  3.09773E-01
    9005.725     11.650   2.200  1.27575E+00  9.94146E-01  2.81602E-01
    9006.402     12.326   2.240  1.22437E+00  9.97127E-01  2.27241E-01
    9007.090     13.015   2.280  1.16222E+00  9.99766E-01  1.62453E-01
    9007.791     13.716   2.320  1.11004E+00  1.00207E+00  1.07967E-01
    9008.505     14.430   2.360  1.07155E+00  1.00406E+00  6.74895E-02
    9009.230     15.155   2.400  1.03195E+00  1.00575E+00  2.62031E-02
    9009.968     15.893   2.440  9.84345E-01  1.00715E+00 -2.28066E-02
    9010.718     16.642   2.480  9.43259E-01  1.00830E+00 -6.50426E-02
    9011.480     17.404   2.520  9.23613E-01  1.00921E+00 -8.55921E-02
    9012.254     18.179   2.560  9.31235E-01  1.00989E+00 -7.86584E-02
    9013.040     18.965   2.600  9.57505E-01  1.01035E+00 -5.28479E-02
    9013.839     19.763   2.640  9.87574E-01  1.01063E+00 -2.30601E-02
    9014.649     20.574   2.680  1.01370E+00  1.01075E+00  2.95015E-03
    9015.472     21.397   2.720  1.02909E+00  1.01070E+00  1.83938E-02
    9016.308     22.232   2.760  1.03208E+00  1.01052E+00  2.15687E-02
    9017.155     23.080   2.800  1.02425E+00  1.01021E+00  1.40445E-02
    9018.014     23.939   2.840  1.00856E+00  1.00978E+00 -1.22337E-03
    9018.886     24.811   2.880  9.88416E-01  1.00927E+00 -2.08511E-02
    9019.770     25.695   2.920  9.66623E-01  1.00867E+00 -4.20423E-02
    9020.666     26.591   2.960  9.45188E-01  1.00798E+00 -6.27964E-02
    9021.574     27.499   3.000  9.25237E-01  1.00723E+00 -8.19942E-02
    9022.495     28.420   3.040  9.07104E-01  1.00645E+00 -9.93491E-02
    9023.428     29.352   3.080  8.91331E-01  1.00561E+00 -1.14281E-01
    9024.373     30.297   3.120  8.78667E-01  1.00476E+00 -1.26089E-01
    9025.330     31.254   3.160  8.69322E-01  1.00389E+00 -1.34567E-01
    9026.299     32.224   3.200  8.63384E-01  1.00299E+00 -1.39610E-01
    9027.280     33.205   3.240  8.61227E-01  1.00210E+00 -1.40869E-01
    9028.274     34.199   3.280  8.62818E-01  1.00120E+00 -1.38380E-01
    9029.280     35.205   3.320  8.67931E-01  1.00033E+00 -1.32395E-01
    9030.298     36.223   3.360  8.76045E-01  9.99461E-01 -1.23416E-01
    9031.328     37.253   3.400  8.86333E-01  9.98627E-01 -1.12294E-01
    9032.370     38.295   3.440  8.97634E-01  9.97807E-01 -1.00173E-01
    9033.425     39.350   3.480  9.09101E-01  9.97042E-01 -8.79402E-02
    9034.492     40.417   3.520  9.20336E-01  9.96293E-01 -7.59562E-02
    9035.571     41.496   3.560  9.31544E-01  9.95582E-01 -6.40379E-02
    9036.662     42.587   3.600  9.43351E-01  9.94912E-01 -5.15607E-02
    9037.765     43.690   3.640  9.56502E-01  9.94304E-01 -3.78027E-02
    9038.881     44.806   3.680  9.71359E-01  9.93719E-01 -2.23602E-02
    9040.009     45.934   3.720  9.88072E-01  9.93200E-01 -5.12804E-03
    9041.149     47.073   3.760  1.00639E+00  9.92747E-01  1.36440E-02
    9042.301     48.226   3.800  1.02548E+00  9.92318E-01  3.31662E-02
    9043.465     49.390   3.840  1.04404E+00  9.91953E-01  5.20852E-02
    9044.642     50.566   3.880  1.06055E+00  9.91634E-01  6.89192E-02
    9045.830     51.755   3.920  1.07376E+00  9.91360E-01  8.23985E-02
    9047.031     52.956   3.960  1.08285E+00  9.91153E-01  9.16972E-02
    9048.244     54.169   4.000  1.08757E+00  9.90990E-01  9.65836E-02
    9049.470     55.394   4.040  1.08818E+00  9.90874E-01  9.73089E-02
    9050.707     56.632   4.080  1.08531E+00  9.90824E-01  9.44892E-02
    9051.957     57.882   4.120  1.07979E+00  9.90817E-01  8.89705E-02
    9053.219     59.143   4.160  1.07244E+00  9.90852E-01  8.15838E-02
    9054.493     60.418   4.200  1.06385E+00  9.90928E-01  7.29228E-02
    9055.779     61.704   4.240  1.05446E+00  9.91046E-01  6.34124E-02
    9057.077     63.002   4.280  1.04472E+00  9.91202E-01  5.35185E-02
    9058.388     64.313   4.320  1.03521E+00  9.91399E-01  4.38145E-02
    9059.711     65.636   4.360  1.02648E+00  9.91655E-01  3.48254E-02
    9061.046     66.971   4.400  1.01881E+00  9.91906E-01  2.69014E-02
    9062.393     68.318   4.440  1.01240E+00  9.92213E-01  2.01835E-02
    9063.753     69.677   4.480  1.00717E+00  9.92555E-01  1.46153E-02
    9065.124     71.049   4.520  1.00294E+00  9.92906E-01  1.00339E-02
    9066.508     72.433   4.560  9.99501E-01  9.93267E-01  6.23371E-03
    9067.904     73.829   4.600  9.96611E-01  9.93658E-01  2.95248E-03
    9069.312     75.237   4.640  9.94034E-01  9.94079E-01 -4.45789E-05
    9070.732     76.657   4.680  9.91662E-01  9.94506E-01 -2.84325E-03
    9072.165     78.090   4.720  9.89622E-01  9.94936E-01 -5.31362E-03
    9073.610     79.535   4.760  9.88252E-01  9.95369E-01 -7.11637E-03
    9075.067     80.991   4.800  9.88034E-01  9.95823E-01 -7.78902E-03
    9076.536     82.461   4.840  9.89333E-01  9.96258E-01 -6.92449E-03
    9078.017     83.942   4.880  9.92373E-01  9.96712E-01 -4.33902E-03
    9079.511     85.435   4.920  9.96893E-01  9.97140E-01 -2.46891E-04
    9081.016     86.941   4.960  1.00229E+00  9.97564E-01  4.72697E-03
    9082.534     88.459   5.000  1.00769E+00  9.97981E-01  9.70576E-03
    9084.064     89.989   5.040  1.01203E+00  9.98370E-01  1.36646E-02
    9085.607     91.531   5.080  1.01430E+00  9.98751E-01  1.55471E-02
    9087.161     93.086   5.120  1.01347E+00  9.99123E-01  1.43470E-02
    9088.728     94.653   5.160  1.00876E+00  9.99465E-01  9.29238E-03
    9090.307     96.231   5.200  9.99961E-01  9.99795E-01  1.65116E-04
    9091.898     97.822   5.240  9.87641E-01  1.00009E+00 -1.24482E-02
    9093.501     99.426   5.280  9.73200E-01  1.00035E+00 -2.71479E-02
    9095.116    101.041   5.320  9.58511E-01  1.00057E+00 -4.20597E-02
    9096.744    102.669   5.360  9.45487E-01  1.00078E+00 -5.52910E-02
    9098.384    104.309   5.400  9.35619E-01  1.00095E+00 -6.53318E-02
    9100.036    105.961   5.440  9.29829E-01  1.00109E+00 -7.12579E-02
    9101.700    107.625   5.480  9.28451E-01  1.00121E+00 -7.27547E-02
    9103.376    109.301   5.520  9.31297E-01  1.00126E+00 -6.99681E-02
    9105.065    110.990   5.560  9.37892E-01  1.00131E+00 -6.34154E-02
    9106.766    112.691   5.600  9.47405E-01  1.00131E+00 -5.39064E-02
    9108.479    114.403   5.640  9.58734E-01  1.00125E+00 -4.25176E-02
    9110.204    116.129   5.680  9.70701E-01  1.00117E+00 -3.04740E-02
    9111.941    117.866   5.720  9.82104E-01  1.00106E+00 -1.89570E-02
    9113.691    119.616   5.760  9.92090E-01  1.00091E+00 -8.81893E-03
    9115.452    121.377   5.800  1.00035E+00  1.00072E+00 -3.70760E-04
    9117.226    123.151   5.840  1.00715E+00  1.00052E+00  6.63516E-03
    9119.013    124.937   5.880  1.01299E+00  1.00025E+00  1.27354E-02
    9120.811    126.736   5.920  1.01837E+00  9.99955E-01  1.84157E-02
    9122.621    128.546   5.960  1.02353E+00  9.99646E-01  2.38826E-02
    9124.444    130.369   6.000  1.02832E+00  9.99280E-01  2.90406E-02
