# # comment:                                                     FEFF 9.9.1  
# # Source:
# # Structure
# # Reduced
# # space
# # abc:
# # angles:
# # sites:
# # POT  SCF 100  7.0000   0, screened core-hole, AFOLP (folp(0)= 1.150)
# # Abs   Z=29 Rmt= 1.317 Rnm= 1.355 K  shell
# # Pot 1 Z=22 Rmt= 1.464 Rnm= 1.530
# # Pot 2 Z=29 Rmt= 1.313 Rnm= 1.353
# # Pot 3 Z= 8 Rmt= 0.981 Rnm= 1.047
# # Gam_ch=1.729E+00 H-L exch Vi= 0.000E+00 Vr= 0.000E+00
# # Mu=-1.238E+01eV kf=2.112E+00 Vint=-2.243E+01eV Rs_int= 1.717
# FMS rfms= 9.0000
# # PATH  Rmax=-1.000,  Keep_limit= 0.00, Heap_limit 0.00  Pwcrit= 2.50%
#  S02=0.950  Temp=   0.00  Debye_temp=   0.00  Global_sig2= 0.00000
#  Energy zero shift, vr, vi    0.00000E+00   0.00000E+00
#  Curved wave amplitude ratio filter   4.000%
#     file         sig2 tot  cw amp ratio   deg  nlegs   reff  inp sig2
#     0/   0 paths used
#  xsedge+ 50, used to normalize mu           2.4754E-04
#  -----------------------------------------------------------------------
#  omega    e    k    mu    mu0     chi     @#
    8987.121    -16.187  -1.000  4.23491E-02  5.16790E-02 -9.32995E-03
    8987.420    -15.888  -0.960  4.50888E-02  5.54035E-02 -1.03146E-02
    8987.706    -15.602  -0.920  4.81277E-02  5.95419E-02 -1.14141E-02
    8987.981    -15.327  -0.880  5.15134E-02  6.41553E-02 -1.26419E-02
    8988.243    -15.065  -0.840  5.53026E-02  6.93149E-02 -1.40123E-02
    8988.493    -14.815  -0.800  5.95626E-02  7.51033E-02 -1.55407E-02
    8988.730    -14.578  -0.760  6.43720E-02  8.16152E-02 -1.72432E-02
    8988.956    -14.352  -0.720  6.98218E-02  8.89576E-02 -1.91358E-02
    8989.169    -14.139  -0.680  7.60143E-02  9.72487E-02 -2.12344E-02
    8989.370    -13.938  -0.640  8.30599E-02  1.06613E-01 -2.35531E-02
    8989.559    -13.749  -0.600  9.10694E-02  1.17173E-01 -2.61035E-02
    8989.736    -13.572  -0.560  1.00140E-01  1.29033E-01 -2.88933E-02
    8989.901    -13.407  -0.520  1.10332E-01  1.42256E-01 -3.19246E-02
    8990.053    -13.255  -0.480  1.21636E-01  1.56828E-01 -3.51919E-02
    8990.193    -13.115  -0.440  1.33940E-01  1.72621E-01 -3.86809E-02
    8990.321    -12.987  -0.400  1.46994E-01  1.89359E-01 -4.23647E-02
    8990.437    -12.871  -0.360  1.60409E-01  2.06610E-01 -4.62007E-02
    8990.541    -12.767  -0.320  1.73685E-01  2.23809E-01 -5.01247E-02
    8990.632    -12.676  -0.280  1.86287E-01  2.40334E-01 -5.40475E-02
    8990.712    -12.596  -0.240  1.97730E-01  2.55584E-01 -5.78541E-02
    8990.779    -12.529  -0.200  2.07647E-01  2.69056E-01 -6.14095E-02
    8990.833    -12.475  -0.160  2.15815E-01  2.80386E-01 -6.45711E-02
    8990.876    -12.432  -0.120  2.22137E-01  2.89340E-01 -6.72032E-02
    8990.907    -12.401  -0.080  2.26599E-01  2.95789E-01 -6.91895E-02
    8990.931    -12.377   0.000  2.30097E-01  3.00970E-01 -7.08731E-02
    8990.986    -12.322   0.120  2.38112E-01  3.12634E-01 -7.45225E-02
    8991.028    -12.279   0.160  2.44165E-01  3.21704E-01 -7.75394E-02
    8991.083    -12.225   0.200  2.51636E-01  3.33291E-01 -8.16544E-02
    8991.150    -12.158   0.240  2.60166E-01  3.47210E-01 -8.70439E-02
    8991.230    -12.078   0.280  2.69249E-01  3.63176E-01 -9.39265E-02
    8991.321    -11.987   0.320  2.78190E-01  3.80753E-01 -1.02563E-01
    8991.425    -11.883   0.360  2.86262E-01  3.99468E-01 -1.13206E-01
    8991.541    -11.767   0.400  2.92682E-01  4.18730E-01 -1.26048E-01
    8991.669    -11.639   0.440  2.96939E-01  4.38061E-01 -1.41122E-01
    8991.809    -11.499   0.480  2.98877E-01  4.57038E-01 -1.58160E-01
    8991.961    -11.347   0.520  2.98916E-01  4.75436E-01 -1.76520E-01
    8992.126    -11.182   0.560  2.97929E-01  4.93144E-01 -1.95215E-01
    8992.303    -11.005   0.600  2.96988E-01  5.10112E-01 -2.13124E-01
    8992.492    -10.816   0.640  2.97287E-01  5.26397E-01 -2.29110E-01
    8992.693    -10.615   0.680  3.00038E-01  5.42116E-01 -2.42077E-01
    8992.906    -10.402   0.720  3.06441E-01  5.57334E-01 -2.50893E-01
    8993.132    -10.176   0.760  3.17808E-01  5.72136E-01 -2.54328E-01
    8993.369     -9.939   0.800  3.35469E-01  5.86641E-01 -2.51172E-01
    8993.619     -9.689   0.840  3.60139E-01  6.00893E-01 -2.40754E-01
    8993.881     -9.427   0.880  3.91113E-01  6.14964E-01 -2.23850E-01
    8994.156     -9.152   0.920  4.26165E-01  6.28893E-01 -2.02727E-01
    8994.442     -8.866   0.960  4.62350E-01  6.42709E-01 -1.80359E-01
    8994.741     -8.567   1.000  4.95745E-01  6.56449E-01 -1.60704E-01
    8995.052     -8.256   1.040  5.20728E-01  6.70120E-01 -1.49391E-01
    8995.375     -7.933   1.080  5.31676E-01  6.83704E-01 -1.52028E-01
    8995.710     -7.598   1.120  5.27463E-01  6.97236E-01 -1.69773E-01
    8996.058     -7.250   1.160  5.13985E-01  7.10666E-01 -1.96681E-01
    8996.417     -6.891   1.200  5.01580E-01  7.24018E-01 -2.22438E-01
    8996.789     -6.519   1.240  4.99461E-01  7.37274E-01 -2.37814E-01
    8997.173     -6.135   1.280  5.12683E-01  7.50394E-01 -2.37711E-01
    8997.569     -5.738   1.320  5.42121E-01  7.63372E-01 -2.21251E-01
    8997.978     -5.330   1.360  5.85132E-01  7.76164E-01 -1.91031E-01
    8998.399     -4.909   1.400  6.37101E-01  7.88784E-01 -1.51683E-01
    8998.831     -4.477   1.440  6.93500E-01  8.01163E-01 -1.07663E-01
    8999.276     -4.032   1.480  7.49745E-01  8.13335E-01 -6.35897E-02
    8999.734     -3.574   1.520  7.99296E-01  8.25229E-01 -2.59328E-02
    9000.203     -3.105   1.560  8.38181E-01  8.36837E-01  1.34402E-03
    9000.685     -2.623   1.600  8.69912E-01  8.48130E-01  2.17814E-02
    9001.178     -2.130   1.640  9.01081E-01  8.59101E-01  4.19800E-02
    9001.684     -1.624   1.680  9.32203E-01  8.69721E-01  6.24822E-02
    9002.202     -1.106   1.720  9.55190E-01  8.79985E-01  7.52048E-02
    9002.733     -0.575   1.760  9.62407E-01  8.89865E-01  7.25426E-02
    9003.275     -0.033   1.800  9.60819E-01  8.99354E-01  6.14645E-02
    9003.830      0.522   1.840  9.69468E-01  9.08430E-01  6.10386E-02
    9004.397      1.089   1.880  1.00015E+00  9.17107E-01  8.30427E-02
    9004.976      1.668   1.920  1.05071E+00  9.25345E-01  1.25368E-01
    9005.567      2.259   1.960  1.11126E+00  9.33159E-01  1.78101E-01
    9006.171      2.863   2.000  1.16649E+00  9.40551E-01  2.25944E-01
    9006.787      3.479   2.040  1.19943E+00  9.47520E-01  2.51907E-01
    9007.414      4.107   2.080  1.20112E+00  9.54065E-01  2.47057E-01
    9008.055      4.747   2.120  1.17549E+00  9.60170E-01  2.15316E-01
    9008.707      5.399   2.160  1.13293E+00  9.65836E-01  1.67089E-01
    9009.371      6.063   2.200  1.08185E+00  9.71108E-01  1.10739E-01
    9010.048      6.740   2.240  1.02769E+00  9.75970E-01  5.17176E-02
    9010.737      7.429   2.280  9.77999E-01  9.80427E-01 -2.42845E-03
    9011.438      8.130   2.320  9.40269E-01  9.84504E-01 -4.42355E-02
    9012.151      8.843   2.360  9.12126E-01  9.88188E-01 -7.60617E-02
    9012.876      9.568   2.400  8.90519E-01  9.91524E-01 -1.01005E-01
    9013.614     10.306   2.440  8.76102E-01  9.94499E-01 -1.18397E-01
    9014.364     11.056   2.480  8.68662E-01  9.97144E-01 -1.28482E-01
    9015.126     11.818   2.520  8.70707E-01  9.99464E-01 -1.28757E-01
    9015.900     12.592   2.560  8.83333E-01  1.00149E+00 -1.18153E-01
    9016.686     13.378   2.600  9.01351E-01  1.00322E+00 -1.01870E-01
    9017.485     14.177   2.640  9.23178E-01  1.00467E+00 -8.14964E-02
    9018.296     14.988   2.680  9.47695E-01  1.00585E+00 -5.81599E-02
    9019.119     15.811   2.720  9.74294E-01  1.00681E+00 -3.25183E-02
    9019.954     16.646   2.760  1.00205E+00  1.00755E+00 -5.50690E-03
    9020.801     17.493   2.800  1.02926E+00  1.00807E+00  2.11888E-02
    9021.661     18.353   2.840  1.05411E+00  1.00838E+00  4.57276E-02
    9022.532     19.225   2.880  1.07480E+00  1.00855E+00  6.62503E-02
    9023.416     20.108   2.920  1.09006E+00  1.00853E+00  8.15278E-02
    9024.313     21.005   2.960  1.09977E+00  1.00837E+00  9.14019E-02
    9025.221     21.913   3.000  1.10461E+00  1.00807E+00  9.65397E-02
    9026.141     22.833   3.040  1.10539E+00  1.00766E+00  9.77267E-02
    9027.074     23.766   3.080  1.10245E+00  1.00714E+00  9.53044E-02
    9028.019     24.711   3.120  1.09530E+00  1.00654E+00  8.87638E-02
    9028.976     25.668   3.160  1.08338E+00  1.00587E+00  7.75016E-02
    9029.945     26.637   3.200  1.06665E+00  1.00511E+00  6.15345E-02
    9030.927     27.619   3.240  1.04610E+00  1.00430E+00  4.17948E-02
    9031.920     28.612   3.280  1.02356E+00  1.00347E+00  2.00944E-02
    9032.926     29.618   3.320  1.00140E+00  1.00257E+00 -1.17346E-03
    9033.944     30.636   3.360  9.81689E-01  1.00167E+00 -1.99794E-02
    9034.974     31.666   3.400  9.65422E-01  1.00073E+00 -3.53096E-02
    9036.017     32.709   3.440  9.52729E-01  9.99813E-01 -4.70840E-02
    9037.071     33.763   3.480  9.42978E-01  9.98871E-01 -5.58929E-02
    9038.138     34.830   3.520  9.35454E-01  9.97953E-01 -6.24991E-02
    9039.217     35.909   3.560  9.29676E-01  9.97041E-01 -6.73652E-02
    9040.308     37.000   3.600  9.25577E-01  9.96138E-01 -7.05611E-02
    9041.412     38.104   3.640  9.23301E-01  9.95289E-01 -7.19879E-02
    9042.527     39.219   3.680  9.22913E-01  9.94455E-01 -7.15422E-02
    9043.655     40.347   3.720  9.24514E-01  9.93658E-01 -6.91437E-02
    9044.795     41.487   3.760  9.28289E-01  9.92899E-01 -6.46094E-02
    9045.947     42.639   3.800  9.34476E-01  9.92182E-01 -5.77057E-02
    9047.111     43.803   3.840  9.43211E-01  9.91528E-01 -4.83170E-02
    9048.288     44.980   3.880  9.53953E-01  9.90898E-01 -3.69449E-02
    9049.477     46.169   3.920  9.65414E-01  9.90334E-01 -2.49200E-02
    9050.678     47.370   3.960  9.75779E-01  9.89837E-01 -1.40582E-02
    9051.891     48.583   4.000  9.83286E-01  9.89365E-01 -6.07880E-03
    9053.116     49.808   4.040  9.86995E-01  9.88961E-01 -1.96594E-03
    9054.353     51.046   4.080  9.87083E-01  9.88626E-01 -1.54328E-03
    9055.603     52.295   4.120  9.84723E-01  9.88338E-01 -3.61503E-03
    9056.865     53.557   4.160  9.81689E-01  9.88097E-01 -6.40800E-03
    9058.139     54.831   4.200  9.79943E-01  9.87925E-01 -7.98245E-03
    9059.425     56.117   4.240  9.81084E-01  9.87801E-01 -6.71671E-03
    9060.724     57.416   4.280  9.86086E-01  9.87743E-01 -1.65648E-03
    9062.034     58.726   4.320  9.95122E-01  9.87731E-01  7.39189E-03
    9063.357     60.049   4.360  1.00749E+00  9.87763E-01  1.97256E-02
    9064.692     61.384   4.400  1.02157E+00  9.87838E-01  3.37348E-02
    9066.039     62.731   4.440  1.03518E+00  9.87976E-01  4.72028E-02
    9067.399     64.091   4.480  1.04595E+00  9.88135E-01  5.78131E-02
    9068.770     65.462   4.520  1.05198E+00  9.88356E-01  6.36221E-02
    9070.154     66.846   4.560  1.05207E+00  9.88616E-01  6.34582E-02
    9071.550     68.242   4.600  1.04618E+00  9.88890E-01  5.72901E-02
    9072.958     69.650   4.640  1.03567E+00  9.89200E-01  4.64714E-02
    9074.379     71.071   4.680  1.02310E+00  9.89545E-01  3.35534E-02
    9075.811     72.503   4.720  1.01154E+00  9.89923E-01  2.16217E-02
    9077.256     73.948   4.760  1.00350E+00  9.90312E-01  1.31921E-02
    9078.713     75.405   4.800  9.99760E-01  9.90729E-01  9.03107E-03
    9080.182     76.874   4.840  9.99017E-01  9.91152E-01  7.86441E-03
    9081.663     78.355   4.880  9.99045E-01  9.91580E-01  7.46531E-03
    9083.157     79.849   4.920  9.98232E-01  9.92031E-01  6.20097E-03
    9084.663     81.355   4.960  9.96126E-01  9.92462E-01  3.66351E-03
    9086.181     82.873   5.000  9.93139E-01  9.92913E-01  2.26300E-04
    9087.711     84.403   5.040  9.89488E-01  9.93340E-01 -3.85187E-03
    9089.253     85.945   5.080  9.84879E-01  9.93761E-01 -8.88267E-03
    9090.807     87.499   5.120  9.78854E-01  9.94178E-01 -1.53242E-02
    9092.374     89.066   5.160  9.71603E-01  9.94590E-01 -2.29864E-02
    9093.953     90.645   5.200  9.64250E-01  9.94971E-01 -3.07201E-02
    9095.544     92.236   5.240  9.58578E-01  9.95340E-01 -3.67622E-02
    9097.147     93.839   5.280  9.56433E-01  9.95675E-01 -3.92423E-02
    9098.763     95.455   5.320  9.59337E-01  9.95975E-01 -3.66387E-02
    9100.390     97.082   5.360  9.68118E-01  9.96260E-01 -2.81416E-02
    9102.030     98.722   5.400  9.82521E-01  9.96485E-01 -1.39640E-02
    9103.682    100.374   5.440  1.00093E+00  9.96694E-01  4.23188E-03
    9105.346    102.038   5.480  1.01977E+00  9.96867E-01  2.29036E-02
    9107.023    103.715   5.520  1.03409E+00  9.97001E-01  3.70856E-02
    9108.711    105.403   5.560  1.03929E+00  9.97118E-01  4.21731E-02
    9110.412    107.104   5.600  1.03327E+00  9.97171E-01  3.61012E-02
    9112.125    108.817   5.640  1.01738E+00  9.97180E-01  2.02024E-02
    9113.850    110.542   5.680  9.95283E-01  9.97147E-01 -1.86401E-03
    9115.588    112.280   5.720  9.71485E-01  9.97050E-01 -2.55650E-02
    9117.337    114.029   5.760  9.50404E-01  9.96934E-01 -4.65298E-02
    9119.099    115.791   5.800  9.35254E-01  9.96778E-01 -6.15242E-02
    9120.873    117.565   5.840  9.27428E-01  9.96560E-01 -6.91316E-02
    9122.659    119.351   5.880  9.26791E-01  9.96325E-01 -6.95331E-02
    9124.457    121.149   5.920  9.32398E-01  9.96028E-01 -6.36305E-02
    9126.268    122.960   5.960  9.43202E-01  9.95717E-01 -5.25157E-02
    9128.090    124.782   6.000  9.58556E-01  9.95313E-01 -3.67567E-02
