# # comment:                                                     FEFF 9.9.1  
# # Source:
# # Structure
# # Reduced
# # space
# # abc:
# # angles:106.676285
# # sites:
# # POT  SCF 100  7.0000   0, screened core-hole, AFOLP (folp(0)= 1.150)
# # Abs   Z=29 Rmt= 1.185 Rnm= 1.334 K  shell
# # Pot 1 Z=23 Rmt= 1.153 Rnm= 1.324
# # Pot 2 Z=29 Rmt= 1.186 Rnm= 1.332
# # Pot 3 Z= 8 Rmt= 0.887 Rnm= 1.072
# # Gam_ch=1.729E+00 H-L exch Vi= 0.000E+00 Vr= 0.000E+00
# # Mu=-9.434E+00eV kf=2.325E+00 Vint=-1.816E+01eV Rs_int= 1.560
# FMS rfms= 9.0000
# # PATH  Rmax=-1.000,  Keep_limit= 0.00, Heap_limit 0.00  Pwcrit= 2.50%
#  S02=0.950  Temp=   0.00  Debye_temp=   0.00  Global_sig2= 0.00000
#  Energy zero shift, vr, vi    0.00000E+00   0.00000E+00
#  Curved wave amplitude ratio filter   4.000%
#     file         sig2 tot  cw amp ratio   deg  nlegs   reff  inp sig2
#     0/   0 paths used
#  xsedge+ 50, used to normalize mu           2.5132E-04
#  -----------------------------------------------------------------------
#  omega    e    k    mu    mu0     chi     @#
    8983.804    -13.244  -1.000  3.77819E-02  4.74626E-02 -9.68070E-03
    8984.103    -12.946  -0.960  3.99976E-02  5.07646E-02 -1.07670E-02
    8984.389    -12.659  -0.920  4.24251E-02  5.44238E-02 -1.19987E-02
    8984.663    -12.385  -0.880  4.50946E-02  5.84921E-02 -1.33975E-02
    8984.926    -12.123  -0.840  4.80418E-02  6.30300E-02 -1.49882E-02
    8985.175    -11.873  -0.800  5.13083E-02  6.81073E-02 -1.67990E-02
    8985.413    -11.635  -0.760  5.49424E-02  7.38043E-02 -1.88619E-02
    8985.639    -11.410  -0.720  5.89990E-02  8.02114E-02 -2.12124E-02
    8985.852    -11.196  -0.680  6.35395E-02  8.74283E-02 -2.38888E-02
    8986.053    -10.995  -0.640  6.86291E-02  9.55601E-02 -2.69310E-02
    8986.242    -10.806  -0.600  7.43324E-02  1.04710E-01 -3.03772E-02
    8986.419    -10.629  -0.560  8.07052E-02  1.14964E-01 -3.42593E-02
    8986.584    -10.465  -0.520  8.77811E-02  1.26376E-01 -3.85953E-02
    8986.736    -10.312  -0.480  9.55531E-02  1.38932E-01 -4.33793E-02
    8986.876    -10.172  -0.440  1.03952E-01  1.52523E-01 -4.85705E-02
    8987.004    -10.044  -0.400  1.12829E-01  1.66912E-01 -5.40831E-02
    8987.120     -9.928  -0.360  1.21949E-01  1.81733E-01 -5.97842E-02
    8987.224     -9.825  -0.320  1.31004E-01  1.96506E-01 -6.55015E-02
    8987.315     -9.733  -0.280  1.39657E-01  2.10699E-01 -7.10421E-02
    8987.394     -9.654  -0.240  1.47586E-01  2.23801E-01 -7.62152E-02
    8987.461     -9.587  -0.200  1.54531E-01  2.35382E-01 -8.08511E-02
    8987.516     -9.532  -0.160  1.60317E-01  2.45127E-01 -8.48104E-02
    8987.559     -9.489  -0.120  1.64848E-01  2.52833E-01 -8.79855E-02
    8987.590     -9.459  -0.080  1.68087E-01  2.58386E-01 -9.02996E-02
    8987.614     -9.434   0.000  1.70673E-01  2.62848E-01 -9.21755E-02
    8987.669     -9.380   0.120  1.76284E-01  2.72917E-01 -9.66335E-02
    8987.711     -9.337   0.160  1.80606E-01  2.80756E-01 -1.00150E-01
    8987.766     -9.282   0.200  1.86004E-01  2.90766E-01 -1.04762E-01
    8987.833     -9.215   0.240  1.92292E-01  3.02798E-01 -1.10507E-01
    8987.913     -9.136   0.280  1.99244E-01  3.16661E-01 -1.17417E-01
    8988.004     -9.044   0.320  2.06527E-01  3.31996E-01 -1.25469E-01
    8988.108     -8.941   0.360  2.13797E-01  3.48360E-01 -1.34563E-01
    8988.223     -8.825   0.400  2.20822E-01  3.65323E-01 -1.44502E-01
    8988.352     -8.697   0.440  2.27576E-01  3.82474E-01 -1.54898E-01
    8988.492     -8.557   0.480  2.34182E-01  3.99455E-01 -1.65272E-01
    8988.644     -8.404   0.520  2.40996E-01  4.16087E-01 -1.75091E-01
    8988.809     -8.240   0.560  2.48364E-01  4.32278E-01 -1.83914E-01
    8988.985     -8.063   0.600  2.56492E-01  4.48002E-01 -1.91510E-01
    8989.174     -7.874   0.640  2.65509E-01  4.63307E-01 -1.97798E-01
    8989.376     -7.673   0.680  2.75634E-01  4.78252E-01 -2.02618E-01
    8989.589     -7.459   0.720  2.87321E-01  4.92925E-01 -2.05605E-01
    8989.815     -7.234   0.760  3.00711E-01  5.07394E-01 -2.06684E-01
    8990.052     -6.996   0.800  3.14909E-01  5.21738E-01 -2.06829E-01
    8990.302     -6.746   0.840  3.28259E-01  5.36006E-01 -2.07746E-01
    8990.564     -6.484   0.880  3.39831E-01  5.50256E-01 -2.10425E-01
    8990.839     -6.210   0.920  3.50409E-01  5.64496E-01 -2.14087E-01
    8991.125     -5.923   0.960  3.62358E-01  5.78783E-01 -2.16425E-01
    8991.424     -5.624   1.000  3.78077E-01  5.93105E-01 -2.15028E-01
    8991.735     -5.314   1.040  3.97891E-01  6.07464E-01 -2.09573E-01
    8992.058     -4.990   1.080  4.19657E-01  6.21873E-01 -2.02216E-01
    8992.393     -4.655   1.120  4.41950E-01  6.36322E-01 -1.94372E-01
    8992.741     -4.308   1.160  4.65497E-01  6.50794E-01 -1.85296E-01
    8993.100     -3.948   1.200  4.91237E-01  6.65250E-01 -1.74013E-01
    8993.472     -3.576   1.240  5.20317E-01  6.79709E-01 -1.59392E-01
    8993.856     -3.192   1.280  5.57333E-01  6.94124E-01 -1.36790E-01
    8994.252     -2.796   1.320  6.08723E-01  7.08468E-01 -9.97452E-02
    8994.661     -2.388   1.360  6.72197E-01  7.22712E-01 -5.05149E-02
    8995.081     -1.967   1.400  7.33749E-01  7.36845E-01 -3.09608E-03
    8995.514     -1.534   1.440  7.80962E-01  7.50797E-01  3.01653E-02
    8995.959     -1.089   1.480  8.10170E-01  7.64596E-01  4.55743E-02
    8996.416     -0.632   1.520  8.20924E-01  7.78170E-01  4.27541E-02
    8996.886     -0.162   1.560  8.14941E-01  7.91487E-01  2.34535E-02
    8997.367      0.319   1.600  8.03702E-01  8.04555E-01 -8.53114E-04
    8997.861      0.813   1.640  8.07062E-01  8.17323E-01 -1.02613E-02
    8998.367      1.319   1.680  8.31947E-01  8.29758E-01  2.18825E-03
    8998.885      1.837   1.720  8.67649E-01  8.41872E-01  2.57776E-02
    8999.416      2.367   1.760  8.94880E-01  8.53594E-01  4.12862E-02
    8999.958      2.910   1.800  9.04791E-01  8.64934E-01  3.98564E-02
    9000.513      3.465   1.840  9.06188E-01  8.75886E-01  3.03020E-02
    9001.080      4.032   1.880  9.15701E-01  8.86402E-01  2.92992E-02
    9001.659      4.611   1.920  9.44644E-01  8.96495E-01  4.81484E-02
    9002.250      5.202   1.960  9.92892E-01  9.06121E-01  8.67705E-02
    9002.854      5.805   2.000  1.04736E+00  9.15317E-01  1.32043E-01
    9003.470      6.421   2.040  1.08620E+00  9.24038E-01  1.62164E-01
    9004.097      7.049   2.080  1.09044E+00  9.32304E-01  1.58131E-01
    9004.737      7.689   2.120  1.05984E+00  9.40093E-01  1.19748E-01
    9005.390      8.341   2.160  1.01542E+00  9.47429E-01  6.79907E-02
    9006.054      9.006   2.200  9.79162E-01  9.54309E-01  2.48528E-02
    9006.731      9.683   2.240  9.65349E-01  9.60695E-01  4.65332E-03
    9007.420     10.371   2.280  9.81071E-01  9.66652E-01  1.44183E-02
    9008.121     11.072   2.320  1.02230E+00  9.72144E-01  5.01527E-02
    9008.834     11.786   2.360  1.07060E+00  9.77215E-01  9.33827E-02
    9009.559     12.511   2.400  1.10344E+00  9.81850E-01  1.21587E-01
    9010.297     13.249   2.440  1.10836E+00  9.86055E-01  1.22303E-01
    9011.047     13.998   2.480  1.09381E+00  9.89877E-01  1.03934E-01
    9011.809     14.760   2.520  1.08177E+00  9.93301E-01  8.84700E-02
    9012.583     15.535   2.560  1.08660E+00  9.96336E-01  9.02592E-02
    9013.369     16.321   2.600  1.10886E+00  9.99028E-01  1.09828E-01
    9014.168     17.120   2.640  1.13013E+00  1.00135E+00  1.28785E-01
    9014.979     17.930   2.680  1.13000E+00  1.00336E+00  1.26638E-01
    9015.802     18.753   2.720  1.10679E+00  1.00505E+00  1.01735E-01
    9016.637     19.588   2.760  1.07642E+00  1.00644E+00  6.99846E-02
    9017.484     20.436   2.800  1.05028E+00  1.00756E+00  4.27155E-02
    9018.344     21.295   2.840  1.02882E+00  1.00841E+00  2.04104E-02
    9019.215     22.167   2.880  1.01163E+00  1.00900E+00  2.63332E-03
    9020.099     23.051   2.920  9.97736E-01  1.00937E+00 -1.16310E-02
    9020.995     23.947   2.960  9.86543E-01  1.00953E+00 -2.29853E-02
    9021.904     24.855   3.000  9.77448E-01  1.00949E+00 -3.20430E-02
    9022.824     25.776   3.040  9.69795E-01  1.00926E+00 -3.94660E-02
    9023.757     26.709   3.080  9.63365E-01  1.00886E+00 -4.54988E-02
    9024.702     27.653   3.120  9.58209E-01  1.00833E+00 -5.01223E-02
    9025.659     28.611   3.160  9.54402E-01  1.00763E+00 -5.32258E-02
    9026.628     29.580   3.200  9.52134E-01  1.00682E+00 -5.46880E-02
    9027.610     30.561   3.240  9.51363E-01  1.00590E+00 -5.45370E-02
    9028.603     31.555   3.280  9.51866E-01  1.00489E+00 -5.30252E-02
    9029.609     32.561   3.320  9.53435E-01  1.00380E+00 -5.03628E-02
    9030.627     33.579   3.360  9.55953E-01  1.00263E+00 -4.66723E-02
    9031.657     34.609   3.400  9.59139E-01  1.00138E+00 -4.22406E-02
    9032.700     35.651   3.440  9.62583E-01  1.00009E+00 -3.75056E-02
    9033.754     36.706   3.480  9.65784E-01  9.98757E-01 -3.29733E-02
    9034.821     37.773   3.520  9.68369E-01  9.97410E-01 -2.90408E-02
    9035.900     38.852   3.560  9.70202E-01  9.96030E-01 -2.58285E-02
    9036.991     39.943   3.600  9.71417E-01  9.94621E-01 -2.32039E-02
    9038.095     41.046   3.640  9.72191E-01  9.93228E-01 -2.10377E-02
    9039.210     42.162   3.680  9.72487E-01  9.91815E-01 -1.93283E-02
    9040.338     43.290   3.720  9.72234E-01  9.90426E-01 -1.81922E-02
    9041.478     44.430   3.760  9.71267E-01  9.89045E-01 -1.77778E-02
    9042.630     45.582   3.800  9.69556E-01  9.87694E-01 -1.81387E-02
    9043.794     46.746   3.840  9.67227E-01  9.86376E-01 -1.91483E-02
    9044.971     47.923   3.880  9.64608E-01  9.85073E-01 -2.04652E-02
    9046.160     49.111   3.920  9.62132E-01  9.83828E-01 -2.16955E-02
    9047.361     50.312   3.960  9.59999E-01  9.82601E-01 -2.26023E-02
    9048.574     51.525   4.000  9.58225E-01  9.81435E-01 -2.32101E-02
    9049.799     52.751   4.040  9.56603E-01  9.80291E-01 -2.36874E-02
    9051.036     53.988   4.080  9.55121E-01  9.79212E-01 -2.40908E-02
    9052.286     55.238   4.120  9.54026E-01  9.78201E-01 -2.41748E-02
    9053.548     56.500   4.160  9.53846E-01  9.77236E-01 -2.33898E-02
    9054.822     57.774   4.200  9.55156E-01  9.76318E-01 -2.11617E-02
    9056.108     59.060   4.240  9.58197E-01  9.75468E-01 -1.72714E-02
    9057.407     60.358   4.280  9.62649E-01  9.74669E-01 -1.20197E-02
    9058.717     61.669   4.320  9.67838E-01  9.73939E-01 -6.10146E-03
    9060.040     62.992   4.360  9.72957E-01  9.73282E-01 -3.24653E-04
    9061.375     64.327   4.400  9.77399E-01  9.72674E-01  4.72496E-03
    9062.722     65.674   4.440  9.80995E-01  9.72135E-01  8.86060E-03
    9064.082     67.033   4.480  9.83881E-01  9.71645E-01  1.22362E-02
    9065.453     68.405   4.520  9.86411E-01  9.71225E-01  1.51854E-02
    9066.837     69.789   4.560  9.88865E-01  9.70855E-01  1.80106E-02
    9068.233     71.185   4.600  9.91362E-01  9.70554E-01  2.08084E-02
    9069.641     72.593   4.640  9.93812E-01  9.70300E-01  2.35112E-02
    9071.062     74.013   4.680  9.96172E-01  9.70115E-01  2.60573E-02
    9072.494     75.446   4.720  9.98433E-01  9.69978E-01  2.84547E-02
    9073.939     76.891   4.760  1.00059E+00  9.69909E-01  3.06775E-02
    9075.396     78.348   4.800  1.00252E+00  9.69883E-01  3.26333E-02
    9076.865     79.817   4.840  1.00408E+00  9.69900E-01  3.41786E-02
    9078.346     81.298   4.880  1.00514E+00  9.69959E-01  3.51858E-02
    9079.840     82.792   4.920  1.00564E+00  9.70081E-01  3.55596E-02
    9081.346     84.297   4.960  1.00539E+00  9.70221E-01  3.51714E-02
    9082.863     85.815   5.000  1.00423E+00  9.70399E-01  3.38261E-02
    9084.394     87.345   5.040  1.00196E+00  9.70638E-01  3.13239E-02
    9085.936     88.888   5.080  9.98500E-01  9.70891E-01  2.76091E-02
    9087.490     90.442   5.120  9.94182E-01  9.71178E-01  2.30041E-02
    9089.057     92.009   5.160  9.89661E-01  9.71477E-01  1.81842E-02
    9090.636     93.588   5.200  9.85724E-01  9.71827E-01  1.38961E-02
    9092.227     95.179   5.240  9.82794E-01  9.72167E-01  1.06266E-02
    9093.830     96.782   5.280  9.80990E-01  9.72536E-01  8.45385E-03
    9095.446     98.397   5.320  9.80049E-01  9.72934E-01  7.11510E-03
    9097.073    100.025   5.360  9.79474E-01  9.73337E-01  6.13680E-03
    9098.713    101.665   5.400  9.78737E-01  9.73741E-01  4.99605E-03
    9100.365    103.317   5.440  9.77455E-01  9.74145E-01  3.30937E-03
    9102.029    104.981   5.480  9.75532E-01  9.74550E-01  9.81909E-04
    9103.706    106.657   5.520  9.73165E-01  9.74952E-01 -1.78711E-03
    9105.394    108.346   5.560  9.70682E-01  9.75350E-01 -4.66870E-03
    9107.095    110.047   5.600  9.68307E-01  9.75721E-01 -7.41443E-03
    9108.808    111.760   5.640  9.66096E-01  9.76086E-01 -9.99074E-03
    9110.533    113.485   5.680  9.63913E-01  9.76447E-01 -1.25335E-02
    9112.270    115.222   5.720  9.61666E-01  9.76800E-01 -1.51343E-02
    9114.020    116.972   5.760  9.59495E-01  9.77121E-01 -1.76259E-02
    9115.782    118.733   5.800  9.57803E-01  9.77409E-01 -1.96066E-02
    9117.556    120.507   5.840  9.56966E-01  9.77684E-01 -2.07177E-02
    9119.342    122.293   5.880  9.57025E-01  9.77924E-01 -2.08986E-02
    9121.140    124.092   5.920  9.57714E-01  9.78126E-01 -2.04121E-02
    9122.951    125.902   5.960  9.58699E-01  9.78309E-01 -1.96100E-02
    9124.773    127.725   6.000  9.59745E-01  9.78413E-01 -1.86683E-02
