# # comment:                                                     FEFF 9.9.1  
# # Source:
# # Structure
# # Reduced
# # space
# # abc:
# # angles:
# # sites:
# # POT  SCF 100  7.0000   0, screened core-hole, AFOLP (folp(0)= 1.150)
# # Abs   Z=29 Rmt= 1.262 Rnm= 1.332 K  shell
# # Pot 1 Z=26 Rmt= 1.325 Rnm= 1.419
# # Pot 2 Z=29 Rmt= 1.262 Rnm= 1.332
# # Pot 3 Z=15 Rmt= 0.933 Rnm= 1.150
# # Pot 4 Z= 8 Rmt= 0.925 Rnm= 1.040
# # Gam_ch=1.729E+00 H-L exch Vi= 0.000E+00 Vr= 0.000E+00
# # Mu=-8.001E+00eV kf=2.513E+00 Vint=-1.869E+01eV Rs_int= 1.443
# FMS rfms= 9.0000
# # PATH  Rmax=-1.000,  Keep_limit= 0.00, Heap_limit 0.00  Pwcrit= 2.50%
#  S02=0.950  Temp=   0.00  Debye_temp=   0.00  Global_sig2= 0.00000
#  Energy zero shift, vr, vi    0.00000E+00   0.00000E+00
#  Curved wave amplitude ratio filter   4.000%
#     file         sig2 tot  cw amp ratio   deg  nlegs   reff  inp sig2
#     0/   0 paths used
#  xsedge+ 50, used to normalize mu           2.5185E-04
#  -----------------------------------------------------------------------
#  omega    e    k    mu    mu0     chi     @#
    8983.548    -11.811  -1.000  3.36425E-02  4.67915E-02 -1.31489E-02
    8983.847    -11.512  -0.960  3.53405E-02  5.00631E-02 -1.47225E-02
    8984.133    -11.226  -0.920  3.71684E-02  5.36924E-02 -1.65240E-02
    8984.408    -10.951  -0.880  3.91415E-02  5.77322E-02 -1.85907E-02
    8984.670    -10.689  -0.840  4.12772E-02  6.22435E-02 -2.09663E-02
    8984.920    -10.439  -0.800  4.35960E-02  6.72974E-02 -2.37014E-02
    8985.157    -10.202  -0.760  4.61208E-02  7.29753E-02 -2.68545E-02
    8985.383     -9.976  -0.720  4.88778E-02  7.93695E-02 -3.04917E-02
    8985.596     -9.763  -0.680  5.18953E-02  8.65813E-02 -3.46859E-02
    8985.798     -9.562  -0.640  5.52033E-02  9.47179E-02 -3.95146E-02
    8985.987     -9.373  -0.600  5.88304E-02  1.03885E-01 -4.50542E-02
    8986.163     -9.196  -0.560  6.27998E-02  1.14171E-01 -5.13715E-02
    8986.328     -9.031  -0.520  6.71225E-02  1.25631E-01 -5.85086E-02
    8986.480     -8.879  -0.480  7.17882E-02  1.38252E-01 -6.64640E-02
    8986.620     -8.739  -0.440  7.67541E-02  1.51924E-01 -7.51695E-02
    8986.749     -8.611  -0.400  8.19363E-02  1.66407E-01 -8.44709E-02
    8986.864     -8.495  -0.360  8.72069E-02  1.81329E-01 -9.41222E-02
    8986.968     -8.391  -0.320  9.24028E-02  1.96204E-01 -1.03801E-01
    8987.059     -8.300  -0.280  9.73457E-02  2.10492E-01 -1.13147E-01
    8987.139     -8.220  -0.240  1.01868E-01  2.23677E-01 -1.21810E-01
    8987.206     -8.153  -0.200  1.05832E-01  2.35325E-01 -1.29493E-01
    8987.261     -8.099  -0.160  1.09145E-01  2.45121E-01 -1.35976E-01
    8987.303     -8.056  -0.120  1.11752E-01  2.52862E-01 -1.41110E-01
    8987.334     -8.025  -0.080  1.13628E-01  2.58437E-01 -1.44809E-01
    8987.358     -8.001   0.000  1.15151E-01  2.62916E-01 -1.47765E-01
    8987.413     -7.946   0.120  1.18546E-01  2.73010E-01 -1.54464E-01
    8987.456     -7.904   0.160  1.21112E-01  2.80844E-01 -1.59731E-01
    8987.511     -7.849   0.200  1.24358E-01  2.90872E-01 -1.66514E-01
    8987.578     -7.782   0.240  1.28160E-01  3.02894E-01 -1.74734E-01
    8987.657     -7.702   0.280  1.32445E-01  3.16703E-01 -1.84258E-01
    8987.748     -7.611   0.320  1.37101E-01  3.31941E-01 -1.94840E-01
    8987.852     -7.507   0.360  1.42014E-01  3.48143E-01 -2.06128E-01
    8987.968     -7.391   0.400  1.47112E-01  3.64839E-01 -2.17727E-01
    8988.096     -7.263   0.440  1.52464E-01  3.81620E-01 -2.29155E-01
    8988.236     -7.123   0.480  1.58194E-01  3.98114E-01 -2.39919E-01
    8988.388     -6.971   0.520  1.64538E-01  4.14134E-01 -2.49595E-01
    8988.553     -6.806   0.560  1.71764E-01  4.29587E-01 -2.57823E-01
    8988.730     -6.629   0.600  1.80107E-01  4.44447E-01 -2.64340E-01
    8988.919     -6.440   0.640  1.89873E-01  4.58767E-01 -2.68894E-01
    8989.120     -6.239   0.680  2.01540E-01  4.72634E-01 -2.71093E-01
    8989.333     -6.026   0.720  2.15852E-01  4.86142E-01 -2.70290E-01
    8989.559     -5.800   0.760  2.33609E-01  4.99365E-01 -2.65757E-01
    8989.796     -5.563   0.800  2.55479E-01  5.12394E-01 -2.56914E-01
    8990.046     -5.313   0.840  2.81507E-01  5.25285E-01 -2.43778E-01
    8990.309     -5.051   0.880  3.10984E-01  5.38124E-01 -2.27140E-01
    8990.583     -4.776   0.920  3.42634E-01  5.50949E-01 -2.08315E-01
    8990.869     -4.490   0.960  3.75202E-01  5.63783E-01 -1.88581E-01
    8991.168     -4.191   1.000  4.07446E-01  5.76643E-01 -1.69197E-01
    8991.479     -3.880   1.040  4.36850E-01  5.89598E-01 -1.52748E-01
    8991.802     -3.557   1.080  4.59344E-01  6.02592E-01 -1.43248E-01
    8992.137     -3.222   1.120  4.72754E-01  6.15699E-01 -1.42945E-01
    8992.485     -2.874   1.160  4.78794E-01  6.28852E-01 -1.50058E-01
    8992.844     -2.515   1.200  4.81663E-01  6.42099E-01 -1.60436E-01
    8993.216     -2.143   1.240  4.85476E-01  6.55402E-01 -1.69926E-01
    8993.600     -1.759   1.280  4.92555E-01  6.68764E-01 -1.76209E-01
    8993.997     -1.363   1.320  5.02512E-01  6.82142E-01 -1.79630E-01
    8994.405     -0.954   1.360  5.13939E-01  6.95554E-01 -1.81615E-01
    8994.826     -0.533   1.400  5.26412E-01  7.08974E-01 -1.82562E-01
    8995.258     -0.101   1.440  5.40529E-01  7.22353E-01 -1.81824E-01
    8995.703      0.344   1.480  5.58163E-01  7.35684E-01 -1.77521E-01
    8996.161      0.802   1.520  5.84390E-01  7.48959E-01 -1.64569E-01
    8996.630      1.271   1.560  6.25536E-01  7.62126E-01 -1.36590E-01
    8997.112      1.753   1.600  6.80682E-01  7.75154E-01 -9.44728E-02
    8997.605      2.246   1.640  7.38715E-01  7.88054E-01 -4.93391E-02
    8998.111      2.752   1.680  7.89116E-01  8.00772E-01 -1.16564E-02
    8998.630      3.270   1.720  8.34839E-01  8.13278E-01  2.15612E-02
    8999.160      3.801   1.760  8.86317E-01  8.25559E-01  6.07579E-02
    8999.702      4.343   1.800  9.43773E-01  8.37604E-01  1.06168E-01
    9000.257      4.898   1.840  1.00373E+00  8.49343E-01  1.54392E-01
    9000.824      5.465   1.880  1.07095E+00  8.60802E-01  2.10146E-01
    9001.403      6.044   1.920  1.14268E+00  8.71914E-01  2.70770E-01
    9001.995      6.635   1.960  1.20614E+00  8.82685E-01  3.23458E-01
    9002.598      7.239   2.000  1.24633E+00  8.93087E-01  3.53246E-01
    9003.214      7.855   2.040  1.25760E+00  9.03114E-01  3.54484E-01
    9003.842      8.482   2.080  1.25221E+00  9.12737E-01  3.39469E-01
    9004.482      9.123   2.120  1.24382E+00  9.21949E-01  3.21870E-01
    9005.134      9.775   2.160  1.23418E+00  9.30722E-01  3.03460E-01
    9005.798     10.439   2.200  1.21480E+00  9.39052E-01  2.75747E-01
    9006.475     11.116   2.240  1.18559E+00  9.46934E-01  2.38657E-01
    9007.164     11.805   2.280  1.15759E+00  9.54346E-01  2.03247E-01
    9007.865     12.506   2.320  1.13476E+00  9.61308E-01  1.73456E-01
    9008.578     13.219   2.360  1.11455E+00  9.67817E-01  1.46736E-01
    9009.304     13.944   2.400  1.09530E+00  9.73852E-01  1.21451E-01
    9010.041     14.682   2.440  1.07682E+00  9.79437E-01  9.73825E-02
    9010.791     15.432   2.480  1.06055E+00  9.84572E-01  7.59767E-02
    9011.553     16.194   2.520  1.04610E+00  9.89239E-01  5.68615E-02
    9012.327     16.968   2.560  1.03830E+00  9.93441E-01  4.48598E-02
    9013.114     17.754   2.600  1.04577E+00  9.97245E-01  4.85242E-02
    9013.912     18.553   2.640  1.06534E+00  1.00059E+00  6.47488E-02
    9014.723     19.364   2.680  1.08127E+00  1.00353E+00  7.77347E-02
    9015.546     20.187   2.720  1.08066E+00  1.00607E+00  7.45855E-02
    9016.381     21.022   2.760  1.06330E+00  1.00822E+00  5.50824E-02
    9017.228     21.869   2.800  1.03095E+00  1.01000E+00  2.09499E-02
    9018.088     22.729   2.840  9.87139E-01  1.01144E+00 -2.42960E-02
    9018.960     23.600   2.880  9.43744E-01  1.01250E+00 -6.87597E-02
    9019.844     24.484   2.920  9.18269E-01  1.01327E+00 -9.50001E-02
    9020.740     25.381   2.960  9.07435E-01  1.01372E+00 -1.06288E-01
    9021.648     26.289   3.000  9.03538E-01  1.01389E+00 -1.10355E-01
    9022.568     27.209   3.040  9.03289E-01  1.01379E+00 -1.10500E-01
    9023.501     28.142   3.080  9.04976E-01  1.01344E+00 -1.08463E-01
    9024.446     29.087   3.120  9.07169E-01  1.01287E+00 -1.05705E-01
    9025.403     30.044   3.160  9.08128E-01  1.01208E+00 -1.03955E-01
    9026.372     31.013   3.200  9.06592E-01  1.01109E+00 -1.04502E-01
    9027.354     31.995   3.240  9.02864E-01  1.00994E+00 -1.07073E-01
    9028.347     32.988   3.280  8.98386E-01  1.00862E+00 -1.10233E-01
    9029.353     33.994   3.320  8.94543E-01  1.00717E+00 -1.12629E-01
    9030.371     35.012   3.360  8.92203E-01  1.00558E+00 -1.13380E-01
    9031.402     36.042   3.400  8.91841E-01  1.00390E+00 -1.12059E-01
    9032.444     37.085   3.440  8.93495E-01  1.00213E+00 -1.08637E-01
    9033.499     38.139   3.480  8.97021E-01  1.00029E+00 -1.03267E-01
    9034.565     39.206   3.520  9.02325E-01  9.98393E-01 -9.60676E-02
    9035.644     40.285   3.560  9.09180E-01  9.96432E-01 -8.72522E-02
    9036.735     41.376   3.600  9.17148E-01  9.94456E-01 -7.73074E-02
    9037.839     42.480   3.640  9.25838E-01  9.92449E-01 -6.66115E-02
    9038.954     43.595   3.680  9.35128E-01  9.90438E-01 -5.53107E-02
    9040.082     44.723   3.720  9.45071E-01  9.88450E-01 -4.33791E-02
    9041.222     45.863   3.760  9.55668E-01  9.86469E-01 -3.08013E-02
    9042.374     47.015   3.800  9.66777E-01  9.84499E-01 -1.77221E-02
    9043.539     48.179   3.840  9.77937E-01  9.82586E-01 -4.64903E-03
    9044.715     49.356   3.880  9.88466E-01  9.80693E-01  7.77278E-03
    9045.904     50.545   3.920  9.97886E-01  9.78866E-01  1.90197E-02
    9047.105     51.746   3.960  1.00588E+00  9.77108E-01  2.87714E-02
    9048.318     52.959   4.000  1.01232E+00  9.75402E-01  3.69155E-02
    9049.543     54.184   4.040  1.01728E+00  9.73771E-01  4.35042E-02
    9050.781     55.421   4.080  1.02084E+00  9.72218E-01  4.86223E-02
    9052.030     56.671   4.120  1.02309E+00  9.70745E-01  5.23450E-02
    9053.292     57.933   4.160  1.02432E+00  9.69374E-01  5.49461E-02
    9054.566     59.207   4.200  1.02502E+00  9.68067E-01  5.69508E-02
    9055.852     60.493   4.240  1.02588E+00  9.66866E-01  5.90121E-02
    9057.151     61.792   4.280  1.02751E+00  9.65774E-01  6.17342E-02
    9058.462     63.102   4.320  1.03022E+00  9.64769E-01  6.54498E-02
    9059.784     64.425   4.360  1.03382E+00  9.63852E-01  6.99672E-02
    9061.119     65.760   4.400  1.03761E+00  9.63066E-01  7.45438E-02
    9062.467     67.107   4.440  1.04060E+00  9.62348E-01  7.82537E-02
    9063.826     68.467   4.480  1.04190E+00  9.61739E-01  8.01576E-02
    9065.198     69.838   4.520  1.04082E+00  9.61243E-01  7.95739E-02
    9066.581     71.222   4.560  1.03711E+00  9.60858E-01  7.62519E-02
    9067.977     72.618   4.600  1.03088E+00  9.60559E-01  7.03247E-02
    9069.386     74.026   4.640  1.02252E+00  9.60346E-01  6.21694E-02
    9070.806     75.447   4.680  1.01257E+00  9.60240E-01  5.23251E-02
    9072.238     76.879   4.720  1.00156E+00  9.60220E-01  4.13399E-02
    9073.683     78.324   4.760  9.90077E-01  9.60283E-01  2.97940E-02
    9075.140     79.781   4.800  9.78788E-01  9.60448E-01  1.83399E-02
    9076.609     81.250   4.840  9.68310E-01  9.60674E-01  7.63642E-03
    9078.091     82.731   4.880  9.59264E-01  9.60999E-01 -1.73510E-03
    9079.584     84.225   4.920  9.51948E-01  9.61380E-01 -9.43177E-03
    9081.090     85.731   4.960  9.46407E-01  9.61858E-01 -1.54508E-02
    9082.608     87.249   5.000  9.42321E-01  9.62387E-01 -2.00662E-02
    9084.138     88.779   5.040  9.39221E-01  9.62963E-01 -2.37425E-02
    9085.680     90.321   5.080  9.36591E-01  9.63607E-01 -2.70158E-02
    9087.235     91.875   5.120  9.33919E-01  9.64296E-01 -3.03765E-02
    9088.801     93.442   5.160  9.30872E-01  9.65027E-01 -3.41551E-02
    9090.380     95.021   5.200  9.27466E-01  9.65818E-01 -3.83527E-02
    9091.971     96.612   5.240  9.23968E-01  9.66624E-01 -4.26558E-02
    9093.574     98.215   5.280  9.20878E-01  9.67441E-01 -4.65629E-02
    9095.190     99.831   5.320  9.18719E-01  9.68309E-01 -4.95905E-02
    9096.817    101.458   5.360  9.17827E-01  9.69164E-01 -5.13367E-02
    9098.457    103.098   5.400  9.18535E-01  9.70042E-01 -5.15072E-02
    9100.109    104.750   5.440  9.21003E-01  9.70922E-01 -4.99190E-02
    9101.773    106.414   5.480  9.25229E-01  9.71800E-01 -4.65715E-02
    9103.450    108.091   5.520  9.30981E-01  9.72652E-01 -4.16707E-02
    9105.138    109.779   5.560  9.37840E-01  9.73517E-01 -3.56774E-02
    9106.839    111.480   5.600  9.45102E-01  9.74329E-01 -2.92275E-02
    9108.552    113.193   5.640  9.52104E-01  9.75128E-01 -2.30242E-02
    9110.277    114.918   5.680  9.58230E-01  9.75892E-01 -1.76621E-02
    9112.015    116.656   5.720  9.63088E-01  9.76639E-01 -1.35513E-02
    9113.764    118.405   5.760  9.66417E-01  9.77323E-01 -1.09058E-02
    9115.526    120.167   5.800  9.68166E-01  9.77959E-01 -9.79307E-03
    9117.300    121.941   5.840  9.68442E-01  9.78525E-01 -1.00828E-02
    9119.086    123.727   5.880  9.67740E-01  9.79042E-01 -1.13023E-02
    9120.884    125.525   5.920  9.66952E-01  9.79505E-01 -1.25538E-02
    9122.695    127.336   5.960  9.67212E-01  9.79880E-01 -1.26682E-02
    9124.518    129.158   6.000  9.69693E-01  9.80172E-01 -1.04792E-02
