# # comment:                                                     FEFF 9.9.1  
# # Source:
# # Structure
# # Reduced
# # space
# # abc:
# # angles:
# # sites:
# # POT  SCF 100  7.0000   0, screened core-hole, AFOLP (folp(0)= 1.150)
# # Abs   Z=29 Rmt= 1.211 Rnm= 1.294 K  shell
# # Pot 1 Z=25 Rmt= 1.235 Rnm= 1.368
# # Pot 2 Z=29 Rmt= 1.218 Rnm= 1.298
# # Pot 3 Z=52 Rmt= 1.283 Rnm= 1.439
# # Pot 4 Z= 8 Rmt= 0.999 Rnm= 1.111
# # Gam_ch=1.729E+00 H-L exch Vi= 0.000E+00 Vr= 0.000E+00
# # Mu=-8.612E+00eV kf=2.202E+00 Vint=-1.596E+01eV Rs_int= 1.647
# FMS rfms= 9.0000
# # PATH  Rmax=-1.000,  Keep_limit= 0.00, Heap_limit 0.00  Pwcrit= 2.50%
#  S02=0.950  Temp=   0.00  Debye_temp=   0.00  Global_sig2= 0.00000
#  Energy zero shift, vr, vi    0.00000E+00   0.00000E+00
#  Curved wave amplitude ratio filter   4.000%
#     file         sig2 tot  cw amp ratio   deg  nlegs   reff  inp sig2
#     0/   0 paths used
#  xsedge+ 50, used to normalize mu           2.4605E-04
#  -----------------------------------------------------------------------
#  omega    e    k    mu    mu0     chi     @#
    8983.823    -12.422  -1.000  2.93134E-02  5.05802E-02 -2.12668E-02
    8984.122    -12.123  -0.960  3.05108E-02  5.41304E-02 -2.36196E-02
    8984.408    -11.837  -0.920  3.17794E-02  5.80635E-02 -2.62841E-02
    8984.682    -11.562  -0.880  3.31276E-02  6.24347E-02 -2.93071E-02
    8984.945    -11.300  -0.840  3.45654E-02  6.73082E-02 -3.27428E-02
    8985.195    -11.050  -0.800  3.61045E-02  7.27580E-02 -3.66535E-02
    8985.432    -10.812  -0.760  3.77590E-02  7.88691E-02 -4.11101E-02
    8985.658    -10.587  -0.720  3.95451E-02  8.57373E-02 -4.61921E-02
    8985.871    -10.374  -0.680  4.14811E-02  9.34677E-02 -5.19866E-02
    8986.072    -10.172  -0.640  4.35865E-02  1.02171E-01 -5.85848E-02
    8986.261     -9.983  -0.600  4.58807E-02  1.11956E-01 -6.60757E-02
    8986.438     -9.807  -0.560  4.83796E-02  1.22915E-01 -7.45354E-02
    8986.603     -9.642  -0.520  5.10909E-02  1.35101E-01 -8.40101E-02
    8986.755     -9.490  -0.480  5.40073E-02  1.48500E-01 -9.44929E-02
    8986.895     -9.349  -0.440  5.70986E-02  1.62996E-01 -1.05897E-01
    8987.023     -9.221  -0.400  6.03056E-02  1.78338E-01 -1.18033E-01
    8987.139     -9.106  -0.360  6.35397E-02  1.94138E-01 -1.30598E-01
    8987.243     -9.002  -0.320  6.66913E-02  2.09887E-01 -1.43196E-01
    8987.334     -8.911  -0.280  6.96460E-02  2.25023E-01 -1.55377E-01
    8987.413     -8.831  -0.240  7.23041E-02  2.39002E-01 -1.66698E-01
    8987.481     -8.764  -0.200  7.45938E-02  2.51365E-01 -1.76771E-01
    8987.535     -8.709  -0.160  7.64754E-02  2.61775E-01 -1.85299E-01
    8987.578     -8.667  -0.120  7.79356E-02  2.70011E-01 -1.92076E-01
    8987.609     -8.636  -0.080  7.89753E-02  2.75950E-01 -1.96975E-01
    8987.633     -8.612   0.000  7.98089E-02  2.80725E-01 -2.00917E-01
    8987.688     -8.557   0.120  8.16372E-02  2.91499E-01 -2.09862E-01
    8987.730     -8.514   0.160  8.30167E-02  2.99903E-01 -2.16887E-01
    8987.785     -8.459   0.200  8.46831E-02  3.10640E-01 -2.25956E-01
    8987.852     -8.392   0.240  8.65784E-02  3.23581E-01 -2.37003E-01
    8987.932     -8.313   0.280  8.86140E-02  3.38496E-01 -2.49882E-01
    8988.023     -8.222   0.320  9.07289E-02  3.55059E-01 -2.64330E-01
    8988.127     -8.118   0.360  9.27840E-02  3.72796E-01 -2.80012E-01
    8988.243     -8.002   0.400  9.47756E-02  3.91267E-01 -2.96491E-01
    8988.371     -7.874   0.440  9.67367E-02  4.10026E-01 -3.13289E-01
    8988.511     -7.734   0.480  9.88071E-02  4.28726E-01 -3.29919E-01
    8988.663     -7.582   0.520  1.01243E-01  4.47177E-01 -3.45934E-01
    8988.828     -7.417   0.560  1.04240E-01  4.65264E-01 -3.61025E-01
    8989.005     -7.240   0.600  1.07924E-01  4.82956E-01 -3.75032E-01
    8989.194     -7.051   0.640  1.12316E-01  5.00299E-01 -3.87983E-01
    8989.395     -6.850   0.680  1.17244E-01  5.17326E-01 -4.00081E-01
    8989.608     -6.637   0.720  1.22554E-01  5.34143E-01 -4.11588E-01
    8989.834     -6.411   0.760  1.27974E-01  5.50772E-01 -4.22798E-01
    8990.071     -6.173   0.800  1.33363E-01  5.67307E-01 -4.33945E-01
    8990.321     -5.923   0.840  1.38831E-01  5.83772E-01 -4.44941E-01
    8990.583     -5.661   0.880  1.45076E-01  6.00196E-01 -4.55120E-01
    8990.858     -5.387   0.920  1.53347E-01  6.16598E-01 -4.63250E-01
    8991.144     -5.101   0.960  1.64978E-01  6.32986E-01 -4.68007E-01
    8991.443     -4.802   1.000  1.80814E-01  6.49338E-01 -4.68525E-01
    8991.754     -4.491   1.040  2.00892E-01  6.65668E-01 -4.64776E-01
    8992.077     -4.168   1.080  2.24547E-01  6.81918E-01 -4.57371E-01
    8992.412     -3.833   1.120  2.50768E-01  6.98087E-01 -4.47320E-01
    8992.760     -3.485   1.160  2.78274E-01  7.14151E-01 -4.35877E-01
    8993.119     -3.125   1.200  3.04770E-01  7.30040E-01 -4.25270E-01
    8993.491     -2.754   1.240  3.27407E-01  7.45743E-01 -4.18337E-01
    8993.875     -2.370   1.280  3.46910E-01  7.61208E-01 -4.14298E-01
    8994.271     -1.973   1.320  3.67781E-01  7.76419E-01 -4.08639E-01
    8994.680     -1.565   1.360  3.94225E-01  7.91303E-01 -3.97077E-01
    8995.101     -1.144   1.400  4.32263E-01  8.05843E-01 -3.73580E-01
    8995.533     -0.711   1.440  4.91859E-01  8.20006E-01 -3.28146E-01
    8995.978     -0.266   1.480  5.82430E-01  8.33756E-01 -2.51326E-01
    8996.436      0.191   1.520  7.00473E-01  8.47063E-01 -1.46590E-01
    8996.905      0.660   1.560  8.09137E-01  8.59891E-01 -5.07543E-02
    8997.386      1.142   1.600  8.65741E-01  8.72210E-01 -6.46875E-03
    8997.880      1.636   1.640  8.89025E-01  8.84011E-01  5.01372E-03
    8998.386      2.141   1.680  9.21097E-01  8.95268E-01  2.58291E-02
    8998.904      2.660   1.720  9.74222E-01  9.05975E-01  6.82477E-02
    8999.435      3.190   1.760  1.04014E+00  9.16127E-01  1.24011E-01
    8999.977      3.733   1.800  1.11163E+00  9.25703E-01  1.85931E-01
    9000.532      4.287   1.840  1.19184E+00  9.34720E-01  2.57119E-01
    9001.099      4.854   1.880  1.27942E+00  9.43160E-01  3.36260E-01
    9001.678      5.433   1.920  1.36171E+00  9.51026E-01  4.10687E-01
    9002.269      6.025   1.960  1.43155E+00  9.58319E-01  4.73227E-01
    9002.873      6.628   2.000  1.48980E+00  9.65067E-01  5.24729E-01
    9003.489      7.244   2.040  1.53374E+00  9.71277E-01  5.62464E-01
    9004.116      7.872   2.080  1.56266E+00  9.76975E-01  5.85684E-01
    9004.757      8.512   2.120  1.56495E+00  9.82150E-01  5.82802E-01
    9005.409      9.164   2.160  1.52686E+00  9.86830E-01  5.40026E-01
    9006.073      9.829   2.200  1.44754E+00  9.91026E-01  4.56510E-01
    9006.750     10.505   2.240  1.34544E+00  9.94788E-01  3.50650E-01
    9007.439     11.194   2.280  1.25053E+00  9.98108E-01  2.52426E-01
    9008.140     11.895   2.320  1.17320E+00  1.00102E+00  1.72189E-01
    9008.853     12.608   2.360  1.10990E+00  1.00352E+00  1.06372E-01
    9009.578     13.334   2.400  1.05152E+00  1.00568E+00  4.58372E-02
    9010.316     14.071   2.440  9.90994E-01  1.00748E+00 -1.64905E-02
    9011.066     14.821   2.480  9.37350E-01  1.00898E+00 -7.16334E-02
    9011.828     15.583   2.520  9.07898E-01  1.01017E+00 -1.02270E-01
    9012.602     16.357   2.560  9.09934E-01  1.01109E+00 -1.01156E-01
    9013.388     17.144   2.600  9.41594E-01  1.01174E+00 -7.01480E-02
    9014.187     17.942   2.640  9.88575E-01  1.01217E+00 -2.35987E-02
    9014.998     18.753   2.680  1.02707E+00  1.01240E+00  1.46678E-02
    9015.821     19.576   2.720  1.04803E+00  1.01242E+00  3.56074E-02
    9016.656     20.411   2.760  1.04931E+00  1.01228E+00  3.70380E-02
    9017.503     21.258   2.800  1.03481E+00  1.01197E+00  2.28365E-02
    9018.363     22.118   2.840  1.01075E+00  1.01153E+00 -7.79647E-04
    9019.234     22.990   2.880  9.83357E-01  1.01097E+00 -2.76160E-02
    9020.118     23.874   2.920  9.56585E-01  1.01030E+00 -5.37138E-02
    9021.014     24.770   2.960  9.32402E-01  1.00956E+00 -7.71589E-02
    9021.923     25.678   3.000  9.10829E-01  1.00872E+00 -9.78930E-02
    9022.843     26.599   3.040  8.91595E-01  1.00785E+00 -1.16258E-01
    9023.776     27.531   3.080  8.75165E-01  1.00692E+00 -1.31752E-01
    9024.721     28.476   3.120  8.62445E-01  1.00594E+00 -1.43493E-01
    9025.678     29.433   3.160  8.54060E-01  1.00493E+00 -1.50866E-01
    9026.647     30.402   3.200  8.50071E-01  1.00391E+00 -1.53835E-01
    9027.629     31.384   3.240  8.50232E-01  1.00290E+00 -1.52669E-01
    9028.622     32.378   3.280  8.53670E-01  1.00188E+00 -1.48206E-01
    9029.628     33.383   3.320  8.59754E-01  1.00086E+00 -1.41102E-01
    9030.646     34.401   3.360  8.67884E-01  9.99864E-01 -1.31980E-01
    9031.676     35.432   3.400  8.77300E-01  9.98904E-01 -1.21605E-01
    9032.719     36.474   3.440  8.87309E-01  9.97959E-01 -1.10650E-01
    9033.773     37.529   3.480  8.97678E-01  9.97072E-01 -9.93942E-02
    9034.840     38.595   3.520  9.08536E-01  9.96204E-01 -8.76680E-02
    9035.919     39.674   3.560  9.20152E-01  9.95397E-01 -7.52449E-02
    9037.010     40.766   3.600  9.32787E-01  9.94614E-01 -6.18271E-02
    9038.114     41.869   3.640  9.46422E-01  9.93918E-01 -4.74955E-02
    9039.229     42.985   3.680  9.60619E-01  9.93248E-01 -3.26293E-02
    9040.357     44.112   3.720  9.75002E-01  9.92644E-01 -1.76427E-02
    9041.497     45.252   3.760  9.89180E-01  9.92088E-01 -2.90848E-03
    9042.649     46.404   3.800  1.00272E+00  9.91604E-01  1.11176E-02
    9043.813     47.569   3.840  1.01520E+00  9.91169E-01  2.40296E-02
    9044.990     48.745   3.880  1.02662E+00  9.90805E-01  3.58098E-02
    9046.179     49.934   3.920  1.03733E+00  9.90513E-01  4.68210E-02
    9047.380     51.135   3.960  1.04777E+00  9.90270E-01  5.74964E-02
    9048.593     52.348   4.000  1.05812E+00  9.90075E-01  6.80412E-02
    9049.818     53.573   4.040  1.06796E+00  9.89949E-01  7.80094E-02
    9051.055     54.811   4.080  1.07627E+00  9.89872E-01  8.64019E-02
    9052.305     56.060   4.120  1.08205E+00  9.89864E-01  9.21875E-02
    9053.567     57.322   4.160  1.08464E+00  9.89903E-01  9.47339E-02
    9054.841     58.596   4.200  1.08391E+00  9.90009E-01  9.39023E-02
    9056.127     59.883   4.240  1.08000E+00  9.90139E-01  8.98620E-02
    9057.426     61.181   4.280  1.07325E+00  9.90334E-01  8.29130E-02
    9058.736     62.492   4.320  1.06392E+00  9.90594E-01  7.33243E-02
    9060.059     63.814   4.360  1.05244E+00  9.90874E-01  6.15699E-02
    9061.394     65.149   4.400  1.03967E+00  9.91192E-01  4.84827E-02
    9062.741     66.497   4.440  1.02669E+00  9.91547E-01  3.51459E-02
    9064.101     67.856   4.480  1.01455E+00  9.91940E-01  2.26052E-02
    9065.472     69.228   4.520  1.00397E+00  9.92368E-01  1.16018E-02
    9066.856     70.611   4.560  9.95311E-01  9.92808E-01  2.50313E-03
    9068.252     72.007   4.600  9.88698E-01  9.93281E-01 -4.58341E-03
    9069.660     73.416   4.640  9.84187E-01  9.93786E-01 -9.59960E-03
    9071.081     74.836   4.680  9.81788E-01  9.94298E-01 -1.25099E-02
    9072.513     76.269   4.720  9.81380E-01  9.94815E-01 -1.34355E-02
    9073.958     77.713   4.760  9.82635E-01  9.95359E-01 -1.27236E-02
    9075.415     79.170   4.800  9.85035E-01  9.95904E-01 -1.08685E-02
    9076.884     80.639   4.840  9.88075E-01  9.96449E-01 -8.37429E-03
    9078.365     82.121   4.880  9.91342E-01  9.96971E-01 -5.62951E-03
    9079.859     83.614   4.920  9.94562E-01  9.97513E-01 -2.95083E-03
    9081.365     85.120   4.960  9.97355E-01  9.98052E-01 -6.96517E-04
    9082.883     86.638   5.000  9.99366E-01  9.98562E-01  8.03638E-04
    9084.413     88.168   5.040  1.00050E+00  9.99067E-01  1.43239E-03
    9085.955     89.710   5.080  1.00096E+00  9.99562E-01  1.39881E-03
    9087.509     91.265   5.120  1.00115E+00  1.00002E+00  1.12737E-03
    9089.076     92.831   5.160  1.00148E+00  1.00045E+00  1.02135E-03
    9090.655     94.410   5.200  1.00219E+00  1.00087E+00  1.32065E-03
    9092.246     96.001   5.240  1.00329E+00  1.00125E+00  2.03794E-03
    9093.849     97.604   5.280  1.00457E+00  1.00162E+00  2.95402E-03
    9095.465     99.220   5.320  1.00550E+00  1.00193E+00  3.57083E-03
    9097.092    100.847   5.360  1.00550E+00  1.00222E+00  3.27783E-03
    9098.732    102.487   5.400  1.00411E+00  1.00247E+00  1.63688E-03
    9100.384    104.139   5.440  1.00131E+00  1.00269E+00 -1.37411E-03
    9102.048    105.804   5.480  9.97413E-01  1.00286E+00 -5.44772E-03
    9103.725    107.480   5.520  9.92830E-01  1.00299E+00 -1.01628E-02
    9105.413    109.169   5.560  9.87851E-01  1.00309E+00 -1.52339E-02
    9107.114    110.869   5.600  9.82571E-01  1.00314E+00 -2.05652E-02
    9108.827    112.582   5.640  9.76969E-01  1.00315E+00 -2.61766E-02
    9110.552    114.307   5.680  9.71127E-01  1.00311E+00 -3.19874E-02
    9112.290    116.045   5.720  9.65356E-01  1.00304E+00 -3.76854E-02
    9114.039    117.794   5.760  9.60164E-01  1.00293E+00 -4.27649E-02
    9115.801    119.556   5.800  9.56020E-01  1.00277E+00 -4.67529E-02
    9117.575    121.330   5.840  9.53245E-01  1.00256E+00 -4.93101E-02
    9119.361    123.116   5.880  9.52071E-01  1.00232E+00 -5.02525E-02
    9121.159    124.914   5.920  9.52567E-01  1.00205E+00 -4.94881E-02
    9122.970    126.725   5.960  9.54857E-01  1.00175E+00 -4.68907E-02
    9124.792    128.548   6.000  9.59302E-01  1.00135E+00 -4.20446E-02
