# # comment:                                                     FEFF 9.9.1  
# # Source:
# # Structure
# # Reduced
# # space
# # abc:
# # angles:
# # sites:
# # POT  SCF 100  7.0000   0, screened core-hole, AFOLP (folp(0)= 1.150)
# # Abs   Z=29 Rmt= 1.228 Rnm= 1.326 K  shell
# # Pot 1 Z=29 Rmt= 1.174 Rnm= 1.293
# # Pot 2 Z= 5 Rmt= 0.749 Rnm= 0.989
# # Pot 3 Z= 8 Rmt= 1.002 Rnm= 1.111
# # Gam_ch=1.729E+00 H-L exch Vi= 0.000E+00 Vr= 0.000E+00
# # Mu=-7.121E+00eV kf=2.247E+00 Vint=-1.564E+01eV Rs_int= 1.614
# FMS rfms= 9.0000
# # PATH  Rmax=-1.000,  Keep_limit= 0.00, Heap_limit 0.00  Pwcrit= 2.50%
#  S02=0.950  Temp=   0.00  Debye_temp=   0.00  Global_sig2= 0.00000
#  Energy zero shift, vr, vi    0.00000E+00   0.00000E+00
#  Curved wave amplitude ratio filter   4.000%
#     file         sig2 tot  cw amp ratio   deg  nlegs   reff  inp sig2
#     0/   0 paths used
#  xsedge+ 50, used to normalize mu           2.4563E-04
#  -----------------------------------------------------------------------
#  omega    e    k    mu    mu0     chi     @#
    8983.472    -10.931  -1.000  3.40877E-02  5.42836E-02 -2.01959E-02
    8983.771    -10.632  -0.960  3.55781E-02  5.82262E-02 -2.26481E-02
    8984.057    -10.346  -0.920  3.71483E-02  6.26063E-02 -2.54580E-02
    8984.331    -10.072  -0.880  3.88039E-02  6.74883E-02 -2.86844E-02
    8984.594     -9.809  -0.840  4.05509E-02  7.29468E-02 -3.23959E-02
    8984.844     -9.559  -0.800  4.23962E-02  7.90686E-02 -3.66724E-02
    8985.081     -9.322  -0.760  4.43472E-02  8.59529E-02 -4.16057E-02
    8985.307     -9.096  -0.720  4.64120E-02  9.37120E-02 -4.72999E-02
    8985.520     -8.883  -0.680  4.85991E-02  1.02469E-01 -5.38703E-02
    8985.721     -8.682  -0.640  5.09165E-02  1.12355E-01 -6.14390E-02
    8985.910     -8.493  -0.600  5.33712E-02  1.23498E-01 -7.01269E-02
    8986.087     -8.316  -0.560  5.59668E-02  1.36007E-01 -8.00397E-02
    8986.252     -8.151  -0.520  5.87011E-02  1.49945E-01 -9.12443E-02
    8986.404     -7.999  -0.480  6.15616E-02  1.65300E-01 -1.03738E-01
    8986.544     -7.859  -0.440  6.45214E-02  1.81936E-01 -1.17414E-01
    8986.672     -7.731  -0.400  6.75356E-02  1.99563E-01 -1.32028E-01
    8986.788     -7.615  -0.360  7.05409E-02  2.17729E-01 -1.47188E-01
    8986.892     -7.511  -0.320  7.34596E-02  2.35842E-01 -1.62383E-01
    8986.983     -7.420  -0.280  7.62089E-02  2.53248E-01 -1.77040E-01
    8987.062     -7.341  -0.240  7.87122E-02  2.69317E-01 -1.90604E-01
    8987.130     -7.273  -0.200  8.09071E-02  2.83518E-01 -2.02611E-01
    8987.184     -7.219  -0.160  8.27493E-02  2.95466E-01 -2.12717E-01
    8987.227     -7.176  -0.120  8.42099E-02  3.04912E-01 -2.20703E-01
    8987.258     -7.145  -0.080  8.52718E-02  3.11718E-01 -2.26446E-01
    8987.282     -7.121   0.000  8.61516E-02  3.17186E-01 -2.31034E-01
    8987.337     -7.066   0.120  8.81977E-02  3.29523E-01 -2.41325E-01
    8987.379     -7.024   0.160  8.97077E-02  3.39112E-01 -2.49405E-01
    8987.434     -6.969   0.200  9.16150E-02  3.51351E-01 -2.59736E-01
    8987.501     -6.902   0.240  9.39120E-02  3.66096E-01 -2.72184E-01
    8987.581     -6.822   0.280  9.65495E-02  3.83038E-01 -2.86489E-01
    8987.672     -6.731   0.320  9.95202E-02  4.01734E-01 -3.02214E-01
    8987.776     -6.627   0.360  1.02820E-01  4.21676E-01 -3.18856E-01
    8987.892     -6.511   0.400  1.06511E-01  4.42282E-01 -3.35771E-01
    8988.020     -6.383   0.440  1.10639E-01  4.63019E-01 -3.52380E-01
    8988.160     -6.243   0.480  1.15412E-01  4.83509E-01 -3.68097E-01
    8988.312     -6.091   0.520  1.20973E-01  5.03458E-01 -3.82485E-01
    8988.477     -5.926   0.560  1.27585E-01  5.22750E-01 -3.95165E-01
    8988.654     -5.749   0.600  1.35525E-01  5.41371E-01 -4.05846E-01
    8988.842     -5.561   0.640  1.45092E-01  5.59335E-01 -4.14243E-01
    8989.044     -5.359   0.680  1.56709E-01  5.76735E-01 -4.20027E-01
    8989.257     -5.146   0.720  1.70881E-01  5.93634E-01 -4.22753E-01
    8989.483     -4.920   0.760  1.88432E-01  6.10155E-01 -4.21723E-01
    8989.720     -4.683   0.800  2.10589E-01  6.26349E-01 -4.15760E-01
    8989.970     -4.433   0.840  2.39094E-01  6.42277E-01 -4.03183E-01
    8990.232     -4.171   0.880  2.75403E-01  6.57986E-01 -3.82583E-01
    8990.507     -3.896   0.920  3.18450E-01  6.73509E-01 -3.55058E-01
    8990.793     -3.610   0.960  3.62411E-01  6.88844E-01 -3.26432E-01
    8991.092     -3.311   1.000  3.98202E-01  7.04023E-01 -3.05820E-01
    8991.403     -3.000   1.040  4.19341E-01  7.19048E-01 -2.99707E-01
    8991.726     -2.677   1.080  4.26816E-01  7.33892E-01 -3.07075E-01
    8992.061     -2.342   1.120  4.28574E-01  7.48523E-01 -3.19949E-01
    8992.409     -1.994   1.160  4.35000E-01  7.62965E-01 -3.27965E-01
    8992.768     -1.635   1.200  4.52642E-01  7.77157E-01 -3.24515E-01
    8993.140     -1.263   1.240  4.81089E-01  7.91094E-01 -3.10005E-01
    8993.524     -0.879   1.280  5.15286E-01  8.04753E-01 -2.89467E-01
    8993.920     -0.483   1.320  5.54090E-01  8.18064E-01 -2.63974E-01
    8994.329     -0.074   1.360  6.06413E-01  8.31059E-01 -2.24646E-01
    8994.749      0.346   1.400  6.79938E-01  8.43671E-01 -1.63732E-01
    8995.182      0.779   1.440  7.68210E-01  8.55869E-01 -8.76588E-02
    8995.627      1.224   1.480  8.57071E-01  8.67666E-01 -1.05956E-02
    8996.084      1.682   1.520  9.38923E-01  8.79016E-01  5.99072E-02
    8996.554      2.151   1.560  1.01225E+00  8.89909E-01  1.22337E-01
    8997.035      2.632   1.600  1.07262E+00  9.00303E-01  1.72318E-01
    8997.529      3.126   1.640  1.12075E+00  9.10230E-01  2.10523E-01
    8998.035      3.632   1.680  1.16491E+00  9.19649E-01  2.45264E-01
    8998.553      4.150   1.720  1.21501E+00  9.28556E-01  2.86456E-01
    8999.084      4.681   1.760  1.26974E+00  9.36972E-01  3.32763E-01
    8999.626      5.223   1.800  1.30909E+00  9.44857E-01  3.64236E-01
    9000.181      5.778   1.840  1.33072E+00  9.52233E-01  3.78484E-01
    9000.748      6.345   1.880  1.34461E+00  9.59102E-01  3.85513E-01
    9001.327      6.924   1.920  1.34866E+00  9.65469E-01  3.83186E-01
    9001.918      7.515   1.960  1.33983E+00  9.71359E-01  3.68472E-01
    9002.522      8.119   2.000  1.31334E+00  9.76759E-01  3.36584E-01
    9003.138      8.735   2.040  1.26843E+00  9.81695E-01  2.86732E-01
    9003.765      9.362   2.080  1.21663E+00  9.86175E-01  2.30459E-01
    9004.406     10.003   2.120  1.17205E+00  9.90208E-01  1.81842E-01
    9005.058     10.655   2.160  1.14431E+00  9.93843E-01  1.50467E-01
    9005.722     11.319   2.200  1.12979E+00  9.97049E-01  1.32741E-01
    9006.399     11.996   2.240  1.11291E+00  9.99898E-01  1.13015E-01
    9007.088     12.685   2.280  1.09011E+00  1.00238E+00  8.77312E-02
    9007.789     13.386   2.320  1.07410E+00  1.00450E+00  6.96055E-02
    9008.502     14.099   2.360  1.07287E+00  1.00632E+00  6.65535E-02
    9009.227     14.824   2.400  1.08027E+00  1.00783E+00  7.24350E-02
    9009.965     15.562   2.440  1.08777E+00  1.00904E+00  7.87265E-02
    9010.715     16.312   2.480  1.09144E+00  1.01002E+00  8.14232E-02
    9011.477     17.074   2.520  1.08649E+00  1.01073E+00  7.57619E-02
    9012.251     17.848   2.560  1.06689E+00  1.01125E+00  5.56417E-02
    9013.037     18.634   2.600  1.03847E+00  1.01154E+00  2.69293E-02
    9013.836     19.433   2.640  1.01506E+00  1.01165E+00  3.40617E-03
    9014.647     20.244   2.680  1.00067E+00  1.01159E+00 -1.09194E-02
    9015.470     21.067   2.720  9.89757E-01  1.01138E+00 -2.16225E-02
    9016.305     21.902   2.760  9.78117E-01  1.01104E+00 -3.29194E-02
    9017.152     22.749   2.800  9.65670E-01  1.01057E+00 -4.49007E-02
    9018.012     23.609   2.840  9.53413E-01  1.01001E+00 -5.65986E-02
    9018.883     24.480   2.880  9.42061E-01  1.00935E+00 -6.72841E-02
    9019.767     25.364   2.920  9.32054E-01  1.00862E+00 -7.65671E-02
    9020.663     26.260   2.960  9.23740E-01  1.00784E+00 -8.41045E-02
    9021.572     27.169   3.000  9.17190E-01  1.00700E+00 -8.98108E-02
    9022.492     28.089   3.040  9.12375E-01  1.00614E+00 -9.37613E-02
    9023.425     29.022   3.080  9.09032E-01  1.00522E+00 -9.61835E-02
    9024.370     29.967   3.120  9.06823E-01  1.00431E+00 -9.74836E-02
    9025.327     30.924   3.160  9.05247E-01  1.00337E+00 -9.81236E-02
    9026.296     31.893   3.200  9.04092E-01  1.00243E+00 -9.83417E-02
    9027.278     32.875   3.240  9.03580E-01  1.00152E+00 -9.79398E-02
    9028.271     33.868   3.280  9.03771E-01  1.00061E+00 -9.68425E-02
    9029.277     34.874   3.320  9.04956E-01  9.99737E-01 -9.47815E-02
    9030.295     35.892   3.360  9.07492E-01  9.98873E-01 -9.13809E-02
    9031.325     36.922   3.400  9.11773E-01  9.98044E-01 -8.62706E-02
    9032.368     37.965   3.440  9.18027E-01  9.97253E-01 -7.92265E-02
    9033.422     39.019   3.480  9.26338E-01  9.96504E-01 -7.01660E-02
    9034.489     40.086   3.520  9.36568E-01  9.95817E-01 -5.92487E-02
    9035.568     41.165   3.560  9.48140E-01  9.95153E-01 -4.70136E-02
    9036.659     42.256   3.600  9.60474E-01  9.94556E-01 -3.40824E-02
    9037.763     43.360   3.640  9.72773E-01  9.94027E-01 -2.12545E-02
    9038.878     44.475   3.680  9.84017E-01  9.93524E-01 -9.50620E-03
    9040.006     45.603   3.720  9.93406E-01  9.93110E-01  2.96034E-04
    9041.146     46.743   3.760  1.00040E+00  9.92724E-01  7.67433E-03
    9042.298     47.895   3.800  1.00502E+00  9.92407E-01  1.26096E-02
    9043.462     49.059   3.840  1.00766E+00  9.92160E-01  1.55040E-02
    9044.639     50.236   3.880  1.00892E+00  9.91960E-01  1.69637E-02
    9045.828     51.425   3.920  1.00929E+00  9.91809E-01  1.74810E-02
    9047.029     52.626   3.960  1.00902E+00  9.91726E-01  1.72930E-02
    9048.242     53.839   4.000  1.00826E+00  9.91692E-01  1.65681E-02
    9049.467     55.064   4.040  1.00734E+00  9.91727E-01  1.56093E-02
    9050.704     56.301   4.080  1.00681E+00  9.91809E-01  1.49984E-02
    9051.954     57.551   4.120  1.00742E+00  9.91957E-01  1.54594E-02
    9053.216     58.813   4.160  1.00967E+00  9.92127E-01  1.75475E-02
    9054.490     60.087   4.200  1.01381E+00  9.92362E-01  2.14444E-02
    9055.776     61.373   4.240  1.01957E+00  9.92639E-01  2.69314E-02
    9057.075     62.672   4.280  1.02649E+00  9.92957E-01  3.35367E-02
    9058.385     63.982   4.320  1.03394E+00  9.93313E-01  4.06289E-02
    9059.708     65.305   4.360  1.04122E+00  9.93707E-01  4.75093E-02
    9061.043     66.640   4.400  1.04769E+00  9.94115E-01  5.35776E-02
    9062.390     67.987   4.440  1.05302E+00  9.94580E-01  5.84402E-02
    9063.750     69.347   4.480  1.05691E+00  9.95056E-01  6.18578E-02
    9065.121     70.718   4.520  1.05916E+00  9.95542E-01  6.36217E-02
    9066.505     72.102   4.560  1.05966E+00  9.96058E-01  6.36000E-02
    9067.901     73.498   4.600  1.05829E+00  9.96604E-01  6.16853E-02
    9069.309     74.906   4.640  1.05510E+00  9.97157E-01  5.79469E-02
    9070.730     76.327   4.680  1.05038E+00  9.97711E-01  5.26660E-02
    9072.162     77.759   4.720  1.04449E+00  9.98268E-01  4.62213E-02
    9073.607     79.204   4.760  1.03783E+00  9.98847E-01  3.89839E-02
    9075.064     80.661   4.800  1.03070E+00  9.99403E-01  3.12960E-02
    9076.533     82.130   4.840  1.02340E+00  9.99955E-01  2.34491E-02
    9078.014     83.611   4.880  1.01626E+00  1.00050E+00  1.57544E-02
    9079.508     85.105   4.920  1.00956E+00  1.00104E+00  8.52072E-03
    9081.014     86.611   4.960  1.00348E+00  1.00156E+00  1.92420E-03
    9082.532     88.129   5.000  9.98048E-01  1.00206E+00 -4.00954E-03
    9084.062     89.659   5.040  9.93109E-01  1.00253E+00 -9.41798E-03
    9085.604     91.201   5.080  9.88491E-01  1.00299E+00 -1.44949E-02
    9087.158     92.755   5.120  9.83989E-01  1.00341E+00 -1.94197E-02
    9088.725     94.322   5.160  9.79459E-01  1.00380E+00 -2.43379E-02
    9090.304     95.901   5.200  9.74920E-01  1.00417E+00 -2.92504E-02
    9091.895     97.492   5.240  9.70563E-01  1.00451E+00 -3.39441E-02
    9093.498     99.095   5.280  9.66843E-01  1.00480E+00 -3.79606E-02
    9095.114    100.711   5.320  9.64237E-01  1.00506E+00 -4.08227E-02
    9096.741    102.338   5.360  9.63040E-01  1.00528E+00 -4.22356E-02
    9098.381    103.978   5.400  9.63312E-01  1.00545E+00 -4.21383E-02
    9100.033    105.630   5.440  9.65029E-01  1.00558E+00 -4.05550E-02
    9101.697    107.294   5.480  9.68076E-01  1.00568E+00 -3.75993E-02
    9103.374    108.971   5.520  9.72101E-01  1.00572E+00 -3.36234E-02
    9105.062    110.659   5.560  9.76361E-01  1.00573E+00 -2.93692E-02
    9106.763    112.360   5.600  9.79888E-01  1.00567E+00 -2.57845E-02
    9108.476    114.073   5.640  9.81951E-01  1.00560E+00 -2.36447E-02
    9110.201    115.798   5.680  9.82349E-01  1.00548E+00 -2.31283E-02
    9111.938    117.536   5.720  9.81525E-01  1.00530E+00 -2.37701E-02
    9113.688    119.285   5.760  9.80295E-01  1.00510E+00 -2.48011E-02
    9115.450    121.047   5.800  9.79209E-01  1.00486E+00 -2.56479E-02
    9117.224    122.821   5.840  9.78453E-01  1.00456E+00 -2.61033E-02
    9119.010    124.607   5.880  9.77980E-01  1.00424E+00 -2.62603E-02
    9120.808    126.405   5.920  9.77570E-01  1.00386E+00 -2.62944E-02
    9122.619    128.216   5.960  9.77300E-01  1.00348E+00 -2.61778E-02
    9124.441    130.038   6.000  9.77706E-01  1.00303E+00 -2.53238E-02
