# # comment:                                                     FEFF 9.9.1  
# # Source:
# # Structure
# # Reduced
# # space
# # abc:
# # angles:
# # sites:
# # POT  SCF 100  7.0000   0, screened core-hole, AFOLP (folp(0)= 1.150)
# # Abs   Z=29 Rmt= 1.138 Rnm= 1.290 K  shell
# # Pot 1 Z=11 Rmt= 1.539 Rnm= 1.596
# # Pot 2 Z=29 Rmt= 1.131 Rnm= 1.254
# # Pot 3 Z= 8 Rmt= 0.983 Rnm= 1.096
# # Gam_ch=1.729E+00 H-L exch Vi= 0.000E+00 Vr= 0.000E+00
# # Mu=-7.720E+00eV kf=2.131E+00 Vint=-1.513E+01eV Rs_int= 1.702
# FMS rfms= 9.0000
# # PATH  Rmax=-1.000,  Keep_limit= 0.00, Heap_limit 0.00  Pwcrit= 2.50%
#  S02=0.950  Temp=   0.00  Debye_temp=   0.00  Global_sig2= 0.00000
#  Energy zero shift, vr, vi    0.00000E+00   0.00000E+00
#  Curved wave amplitude ratio filter   4.000%
#     file         sig2 tot  cw amp ratio   deg  nlegs   reff  inp sig2
#     0/   0 paths used
#  xsedge+ 50, used to normalize mu           2.4366E-04
#  -----------------------------------------------------------------------
#  omega    e    k    mu    mu0     chi     @#
    8983.766    -11.530  -1.000  3.61288E-02  5.39490E-02 -1.78202E-02
    8984.065    -11.232  -0.960  3.79712E-02  5.78026E-02 -1.98313E-02
    8984.351    -10.945  -0.920  3.99445E-02  6.20759E-02 -2.21314E-02
    8984.625    -10.671  -0.880  4.20606E-02  6.68298E-02 -2.47692E-02
    8984.887    -10.409  -0.840  4.43326E-02  7.21349E-02 -2.78023E-02
    8985.137    -10.159  -0.800  4.67747E-02  7.80727E-02 -3.12981E-02
    8985.375     -9.921  -0.760  4.94021E-02  8.47369E-02 -3.53347E-02
    8985.601     -9.695  -0.720  5.22312E-02  9.22328E-02 -4.00017E-02
    8985.814     -9.482  -0.680  5.52783E-02  1.00677E-01 -4.53982E-02
    8986.015     -9.281  -0.640  5.85592E-02  1.10190E-01 -5.16308E-02
    8986.204     -9.092  -0.600  6.20873E-02  1.20893E-01 -5.88056E-02
    8986.381     -8.915  -0.560  6.58703E-02  1.32887E-01 -6.70164E-02
    8986.546     -8.751  -0.520  6.99068E-02  1.46231E-01 -7.63243E-02
    8986.698     -8.598  -0.480  7.41797E-02  1.60911E-01 -8.67311E-02
    8986.838     -8.458  -0.440  7.86505E-02  1.76797E-01 -9.81470E-02
    8986.966     -8.330  -0.400  8.32539E-02  1.93618E-01 -1.10364E-01
    8987.082     -8.214  -0.360  8.78961E-02  2.10943E-01 -1.23047E-01
    8987.186     -8.110  -0.320  9.24602E-02  2.28215E-01 -1.35755E-01
    8987.277     -8.019  -0.280  9.68174E-02  2.44816E-01 -1.47998E-01
    8987.356     -7.940  -0.240  1.00841E-01  2.60147E-01 -1.59306E-01
    8987.423     -7.873  -0.200  1.04421E-01  2.73706E-01 -1.69285E-01
    8987.478     -7.818  -0.160  1.07467E-01  2.85122E-01 -1.77655E-01
    8987.521     -7.775  -0.120  1.09913E-01  2.94154E-01 -1.84240E-01
    8987.551     -7.745  -0.080  1.11713E-01  3.00666E-01 -1.88953E-01
    8987.576     -7.720   0.000  1.13225E-01  3.05901E-01 -1.92676E-01
    8987.631     -7.665   0.120  1.16606E-01  3.17734E-01 -2.01127E-01
    8987.673     -7.623   0.160  1.19189E-01  3.26931E-01 -2.07742E-01
    8987.728     -7.568   0.200  1.22505E-01  3.38678E-01 -2.16173E-01
    8987.795     -7.501   0.240  1.26598E-01  3.52876E-01 -2.26277E-01
    8987.874     -7.422   0.280  1.31452E-01  3.69204E-01 -2.37752E-01
    8987.966     -7.330   0.320  1.37159E-01  3.87323E-01 -2.50164E-01
    8988.070     -7.227   0.360  1.43781E-01  4.06734E-01 -2.62953E-01
    8988.185     -7.111   0.400  1.51461E-01  4.26906E-01 -2.75445E-01
    8988.313     -6.983   0.440  1.60452E-01  4.47391E-01 -2.86939E-01
    8988.454     -6.842   0.480  1.71025E-01  4.67784E-01 -2.96759E-01
    8988.606     -6.690   0.520  1.83458E-01  4.87834E-01 -3.04376E-01
    8988.771     -6.526   0.560  1.97945E-01  5.07474E-01 -3.09530E-01
    8988.947     -6.349   0.600  2.14445E-01  5.26630E-01 -3.12184E-01
    8989.136     -6.160   0.640  2.33047E-01  5.45328E-01 -3.12281E-01
    8989.338     -5.959   0.680  2.54409E-01  5.63672E-01 -3.09262E-01
    8989.551     -5.745   0.720  2.79813E-01  5.81711E-01 -3.01898E-01
    8989.776     -5.520   0.760  3.10978E-01  5.99493E-01 -2.88515E-01
    8990.014     -5.282   0.800  3.49915E-01  6.17119E-01 -2.67204E-01
    8990.264     -5.032   0.840  3.97792E-01  6.34595E-01 -2.36803E-01
    8990.526     -4.770   0.880  4.52745E-01  6.51955E-01 -1.99210E-01
    8990.801     -4.496   0.920  5.08373E-01  6.69217E-01 -1.60845E-01
    8991.087     -4.209   0.960  5.54281E-01  6.86393E-01 -1.32112E-01
    8991.386     -3.910   1.000  5.77151E-01  7.03460E-01 -1.26309E-01
    8991.697     -3.599   1.040  5.70307E-01  7.20388E-01 -1.50082E-01
    8992.020     -3.276   1.080  5.45451E-01  7.37182E-01 -1.91731E-01
    8992.355     -2.941   1.120  5.22056E-01  7.53800E-01 -2.31744E-01
    8992.703     -2.594   1.160  5.08650E-01  7.70172E-01 -2.61522E-01
    8993.062     -2.234   1.200  5.02203E-01  7.86291E-01 -2.84088E-01
    8993.434     -1.862   1.240  4.99635E-01  8.02124E-01 -3.02489E-01
    8993.818     -1.478   1.280  5.01844E-01  8.17596E-01 -3.15752E-01
    8994.214     -1.082   1.320  5.08758E-01  8.32712E-01 -3.23954E-01
    8994.623     -0.673   1.360  5.17510E-01  8.47376E-01 -3.29865E-01
    8995.043     -0.253   1.400  5.25268E-01  8.61593E-01 -3.36325E-01
    8995.476      0.180   1.440  5.31507E-01  8.75310E-01 -3.43803E-01
    8995.921      0.625   1.480  5.40472E-01  8.88492E-01 -3.48020E-01
    8996.378      1.082   1.520  5.60243E-01  9.01109E-01 -3.40866E-01
    8996.848      1.552   1.560  5.96173E-01  9.13172E-01 -3.16998E-01
    8997.329      2.033   1.600  6.49615E-01  9.24609E-01 -2.74994E-01
    8997.823      2.527   1.640  7.21385E-01  9.35434E-01 -2.14049E-01
    8998.329      3.033   1.680  8.01768E-01  9.45625E-01 -1.43857E-01
    8998.847      3.551   1.720  8.65079E-01  9.55200E-01 -9.01210E-02
    8999.378      4.081   1.760  9.01239E-01  9.64115E-01 -6.28760E-02
    8999.920      4.624   1.800  9.25416E-01  9.72394E-01 -4.69773E-02
    9000.475      5.179   1.840  9.53390E-01  9.80040E-01 -2.66499E-02
    9001.042      5.746   1.880  9.89297E-01  9.87058E-01  2.23902E-03
    9001.621      6.325   1.920  1.03138E+00  9.93475E-01  3.79096E-02
    9002.212      6.916   1.960  1.07621E+00  9.99278E-01  7.69316E-02
    9002.816      7.520   2.000  1.12058E+00  1.00450E+00  1.16085E-01
    9003.431      8.135   2.040  1.16119E+00  1.00916E+00  1.52026E-01
    9004.059      8.763   2.080  1.19365E+00  1.01328E+00  1.80366E-01
    9004.699      9.403   2.120  1.21754E+00  1.01688E+00  2.00657E-01
    9005.352     10.056   2.160  1.23972E+00  1.01999E+00  2.19725E-01
    9006.016     10.720   2.200  1.26989E+00  1.02263E+00  2.47260E-01
    9006.693     11.397   2.240  1.30959E+00  1.02483E+00  2.84757E-01
    9007.382     12.086   2.280  1.34367E+00  1.02661E+00  3.17057E-01
    9008.083     12.787   2.320  1.35552E+00  1.02800E+00  3.27519E-01
    9008.796     13.500   2.360  1.34512E+00  1.02903E+00  3.16093E-01
    9009.521     14.225   2.400  1.31791E+00  1.02973E+00  2.88178E-01
    9010.259     14.963   2.440  1.27731E+00  1.03011E+00  2.47200E-01
    9011.009     15.713   2.480  1.23128E+00  1.03020E+00  2.01086E-01
    9011.771     16.475   2.520  1.19146E+00  1.03003E+00  1.61425E-01
    9012.545     17.249   2.560  1.16430E+00  1.02965E+00  1.34651E-01
    9013.331     18.035   2.600  1.14299E+00  1.02905E+00  1.13936E-01
    9014.130     18.834   2.640  1.12111E+00  1.02826E+00  9.28509E-02
    9014.941     19.645   2.680  1.09940E+00  1.02730E+00  7.21042E-02
    9015.764     20.467   2.720  1.07949E+00  1.02620E+00  5.32864E-02
    9016.599     21.303   2.760  1.06222E+00  1.02496E+00  3.72617E-02
    9017.446     22.150   2.800  1.04745E+00  1.02362E+00  2.38370E-02
    9018.306     23.009   2.840  1.03502E+00  1.02221E+00  1.28073E-02
    9019.177     23.881   2.880  1.02465E+00  1.02071E+00  3.94656E-03
    9020.061     24.765   2.920  1.01599E+00  1.01915E+00 -3.16152E-03
    9020.957     25.661   2.960  1.00883E+00  1.01756E+00 -8.72521E-03
    9021.866     26.570   3.000  1.00309E+00  1.01595E+00 -1.28541E-02
    9022.786     27.490   3.040  9.98404E-01  1.01431E+00 -1.59050E-02
    9023.719     28.423   3.080  9.94006E-01  1.01269E+00 -1.86827E-02
    9024.664     29.368   3.120  9.88935E-01  1.01105E+00 -2.21168E-02
    9025.621     30.325   3.160  9.82533E-01  1.00944E+00 -2.69108E-02
    9026.590     31.294   3.200  9.74689E-01  1.00787E+00 -3.31804E-02
    9027.571     32.275   3.240  9.66071E-01  1.00633E+00 -4.02629E-02
    9028.565     33.269   3.280  9.57378E-01  1.00484E+00 -4.74639E-02
    9029.571     34.275   3.320  9.48842E-01  1.00342E+00 -5.45729E-02
    9030.589     35.293   3.360  9.40199E-01  1.00202E+00 -6.18190E-02
    9031.619     36.323   3.400  9.31139E-01  1.00071E+00 -6.95732E-02
    9032.662     37.366   3.440  9.21507E-01  9.99462E-01 -7.79547E-02
    9033.716     38.420   3.480  9.11778E-01  9.98289E-01 -8.65109E-02
    9034.783     39.487   3.520  9.02825E-01  9.97194E-01 -9.43692E-02
    9035.862     40.566   3.560  8.95372E-01  9.96181E-01 -1.00809E-01
    9036.953     41.657   3.600  8.89782E-01  9.95250E-01 -1.05468E-01
    9038.057     42.760   3.640  8.86259E-01  9.94403E-01 -1.08144E-01
    9039.172     43.876   3.680  8.84909E-01  9.93661E-01 -1.08751E-01
    9040.300     45.004   3.720  8.85650E-01  9.92982E-01 -1.07332E-01
    9041.440     46.144   3.760  8.88581E-01  9.92410E-01 -1.03829E-01
    9042.592     47.296   3.800  8.93796E-01  9.91925E-01 -9.81281E-02
    9043.756     48.460   3.840  9.01482E-01  9.91547E-01 -9.00652E-02
    9044.933     49.637   3.880  9.11619E-01  9.91233E-01 -7.96133E-02
    9046.122     50.825   3.920  9.24029E-01  9.91024E-01 -6.69945E-02
    9047.322     52.026   3.960  9.38018E-01  9.90900E-01 -5.28826E-02
    9048.536     53.239   4.000  9.52506E-01  9.90859E-01 -3.83527E-02
    9049.761     54.465   4.040  9.66416E-01  9.90902E-01 -2.44860E-02
    9050.998     55.702   4.080  9.79070E-01  9.91049E-01 -1.19797E-02
    9052.248     56.952   4.120  9.90275E-01  9.91254E-01 -9.78881E-04
    9053.510     58.214   4.160  1.00040E+00  9.91538E-01  8.86391E-03
    9054.784     59.488   4.200  1.01000E+00  9.91901E-01  1.80969E-02
    9056.070     60.774   4.240  1.01946E+00  9.92339E-01  2.71226E-02
    9057.369     62.072   4.280  1.02891E+00  9.92830E-01  3.60811E-02
    9058.679     63.383   4.320  1.03819E+00  9.93396E-01  4.47963E-02
    9060.002     64.706   4.360  1.04678E+00  9.94032E-01  5.27526E-02
    9061.337     66.041   4.400  1.05389E+00  9.94694E-01  5.91963E-02
    9062.684     67.388   4.440  1.05880E+00  9.95446E-01  6.33586E-02
    9064.044     68.748   4.480  1.06098E+00  9.96221E-01  6.47637E-02
    9065.415     70.119   4.520  1.06053E+00  9.97058E-01  6.34728E-02
    9066.799     71.503   4.560  1.05808E+00  9.97912E-01  6.01671E-02
    9068.195     72.899   4.600  1.05456E+00  9.98803E-01  5.57528E-02
    9069.603     74.307   4.640  1.05065E+00  9.99730E-01  5.09238E-02
    9071.024     75.727   4.680  1.04668E+00  1.00069E+00  4.59864E-02
    9072.456     77.160   4.720  1.04266E+00  1.00166E+00  4.10053E-02
    9073.901     78.605   4.760  1.03862E+00  1.00263E+00  3.59881E-02
    9075.358     80.062   4.800  1.03461E+00  1.00363E+00  3.09864E-02
    9076.827     81.531   4.840  1.03068E+00  1.00461E+00  2.60765E-02
    9078.308     83.012   4.880  1.02698E+00  1.00560E+00  2.13716E-02
    9079.802     84.506   4.920  1.02372E+00  1.00660E+00  1.71141E-02
    9081.307     86.011   4.960  1.02119E+00  1.00757E+00  1.36172E-02
    9082.825     87.529   5.000  1.01972E+00  1.00853E+00  1.11893E-02
    9084.355     89.059   5.040  1.01953E+00  1.00946E+00  1.00727E-02
    9085.898     90.602   5.080  1.02071E+00  1.01037E+00  1.03378E-02
    9087.452     92.156   5.120  1.02311E+00  1.01126E+00  1.18562E-02
    9089.019     93.723   5.160  1.02636E+00  1.01212E+00  1.42356E-02
    9090.598     95.302   5.200  1.02974E+00  1.01292E+00  1.68186E-02
    9092.189     96.893   5.240  1.03254E+00  1.01368E+00  1.88616E-02
    9093.792     98.496   5.280  1.03417E+00  1.01439E+00  1.97767E-02
    9095.407    100.111   5.320  1.03443E+00  1.01507E+00  1.93672E-02
    9097.035    101.739   5.360  1.03346E+00  1.01569E+00  1.77720E-02
    9098.675    103.379   5.400  1.03150E+00  1.01627E+00  1.52294E-02
    9100.327    105.031   5.440  1.02867E+00  1.01678E+00  1.18920E-02
    9101.991    106.695   5.480  1.02508E+00  1.01721E+00  7.86823E-03
    9103.668    108.371   5.520  1.02092E+00  1.01759E+00  3.32725E-03
    9105.356    110.060   5.560  1.01637E+00  1.01793E+00 -1.56064E-03
    9107.057    111.761   5.600  1.01141E+00  1.01818E+00 -6.77874E-03
    9108.770    113.474   5.640  1.00593E+00  1.01837E+00 -1.24405E-02
    9110.495    115.199   5.680  9.99972E-01  1.01849E+00 -1.85213E-02
    9112.232    116.936   5.720  9.93909E-01  1.01852E+00 -2.46135E-02
    9113.982    118.686   5.760  9.88646E-01  1.01852E+00 -2.98767E-02
    9115.744    120.448   5.800  9.85130E-01  1.01843E+00 -3.32964E-02
    9117.518    122.221   5.840  9.84174E-01  1.01828E+00 -3.41055E-02
    9119.304    124.008   5.880  9.85954E-01  1.01809E+00 -3.21311E-02
    9121.102    125.806   5.920  9.89919E-01  1.01782E+00 -2.78978E-02
    9122.913    127.616   5.960  9.94963E-01  1.01746E+00 -2.25014E-02
    9124.735    129.439   6.000  9.99621E-01  1.01698E+00 -1.73612E-02
