# # comment:                                                     FEFF 9.9.1  
# # Source:
# # Structure
# # Reduced
# # space
# # abc:
# # angles:
# # sites:
# # POT  SCF 100  7.0000   0, screened core-hole, AFOLP (folp(0)= 1.150)
# # Abs   Z=29 Rmt= 1.341 Rnm= 1.399 K  shell
# # Pot 1 Z= 3 Rmt= 1.238 Rnm= 1.297
# # Pot 2 Z=29 Rmt= 1.325 Rnm= 1.384
# # Pot 3 Z=15 Rmt= 0.944 Rnm= 1.153
# # Pot 4 Z= 8 Rmt= 0.938 Rnm= 1.040
# # Gam_ch=1.729E+00 H-L exch Vi= 0.000E+00 Vr= 0.000E+00
# # Mu=-6.761E+00eV kf=2.371E+00 Vint=-1.791E+01eV Rs_int= 1.530
# FMS rfms= 9.0000
# # PATH  Rmax=-1.000,  Keep_limit= 0.00, Heap_limit 0.00  Pwcrit= 2.50%
#  S02=0.950  Temp=   0.00  Debye_temp=   0.00  Global_sig2= 0.00000
#  Energy zero shift, vr, vi    0.00000E+00   0.00000E+00
#  Curved wave amplitude ratio filter   4.000%
#     file         sig2 tot  cw amp ratio   deg  nlegs   reff  inp sig2
#     0/   0 paths used
#  xsedge+ 50, used to normalize mu           2.4688E-04
#  -----------------------------------------------------------------------
#  omega    e    k    mu    mu0     chi     @#
    8983.905    -10.571  -1.000  5.24644E-02  5.48931E-02 -2.42873E-03
    8984.203    -10.272  -0.960  5.61315E-02  5.89152E-02 -2.78377E-03
    8984.490     -9.985  -0.920  6.02018E-02  6.33894E-02 -3.18764E-03
    8984.764     -9.711  -0.880  6.47360E-02  6.83828E-02 -3.64680E-03
    8985.026     -9.449  -0.840  6.98050E-02  7.39736E-02 -4.16855E-03
    8985.276     -9.199  -0.800  7.54915E-02  8.02527E-02 -4.76112E-03
    8985.514     -8.961  -0.760  8.18905E-02  8.73243E-02 -5.43378E-03
    8985.739     -8.736  -0.720  8.91097E-02  9.53065E-02 -6.19677E-03
    8985.953     -8.522  -0.680  9.72681E-02  1.04329E-01 -7.06120E-03
    8986.154     -8.321  -0.640  1.06492E-01  1.14530E-01 -8.03854E-03
    8986.343     -8.132  -0.600  1.16904E-01  1.26044E-01 -9.13976E-03
    8986.520     -7.955  -0.560  1.28614E-01  1.38987E-01 -1.03737E-02
    8986.684     -7.791  -0.520  1.41684E-01  1.53429E-01 -1.17443E-02
    8986.837     -7.638  -0.480  1.56106E-01  1.69354E-01 -1.32474E-02
    8986.977     -7.498  -0.440  1.71756E-01  1.86623E-01 -1.48664E-02
    8987.105     -7.370  -0.400  1.88364E-01  2.04933E-01 -1.65692E-02
    8987.221     -7.254  -0.360  2.05500E-01  2.23808E-01 -1.83077E-02
    8987.324     -7.151  -0.320  2.22607E-01  2.42629E-01 -2.00222E-02
    8987.416     -7.059  -0.280  2.39062E-01  2.60711E-01 -2.16490E-02
    8987.495     -6.980  -0.240  2.54265E-01  2.77395E-01 -2.31303E-02
    8987.562     -6.913  -0.200  2.67710E-01  2.92131E-01 -2.44212E-02
    8987.617     -6.858  -0.160  2.79027E-01  3.04520E-01 -2.54930E-02
    8987.660     -6.815  -0.120  2.87974E-01  3.14306E-01 -2.63327E-02
    8987.690     -6.785  -0.080  2.94414E-01  3.21353E-01 -2.69388E-02
    8987.715     -6.761   0.000  2.99561E-01  3.27011E-01 -2.74497E-02
    8987.769     -6.706   0.120  3.11142E-01  3.39758E-01 -2.86157E-02
    8987.812     -6.663   0.160  3.20210E-01  3.49660E-01 -2.94496E-02
    8987.867     -6.608   0.200  3.31826E-01  3.62287E-01 -3.04603E-02
    8987.934     -6.541   0.240  3.45860E-01  3.77452E-01 -3.15923E-02
    8988.013     -6.462   0.280  3.62081E-01  3.94836E-01 -3.27549E-02
    8988.105     -6.370   0.320  3.80169E-01  4.13972E-01 -3.38022E-02
    8988.208     -6.267   0.360  3.99709E-01  4.34264E-01 -3.45546E-02
    8988.324     -6.151   0.400  4.20293E-01  4.55102E-01 -3.48086E-02
    8988.452     -6.023   0.440  4.41511E-01  4.75928E-01 -3.44172E-02
    8988.592     -5.883   0.480  4.62842E-01  4.96316E-01 -3.34735E-02
    8988.745     -5.730   0.520  4.83462E-01  5.15972E-01 -3.25097E-02
    8988.909     -5.566   0.560  5.02098E-01  5.34773E-01 -3.26752E-02
    8989.086     -5.389   0.600  5.17057E-01  5.52710E-01 -3.56527E-02
    8989.275     -5.200   0.640  5.26593E-01  5.69806E-01 -4.32131E-02
    8989.476     -4.999   0.680  5.29494E-01  5.86209E-01 -5.67146E-02
    8989.690     -4.785   0.720  5.25135E-01  6.01976E-01 -7.68418E-02
    8989.915     -4.560   0.760  5.13764E-01  6.17248E-01 -1.03484E-01
    8990.153     -4.322   0.800  4.96736E-01  6.32115E-01 -1.35378E-01
    8990.403     -4.072   0.840  4.77106E-01  6.46653E-01 -1.69547E-01
    8990.665     -3.810   0.880  4.60131E-01  6.60922E-01 -2.00792E-01
    8990.939     -3.536   0.920  4.52860E-01  6.75014E-01 -2.22154E-01
    8991.226     -3.249   0.960  4.61343E-01  6.88921E-01 -2.27579E-01
    8991.525     -2.951   1.000  4.86776E-01  7.02709E-01 -2.15932E-01
    8991.835     -2.640   1.040  5.23052E-01  7.16390E-01 -1.93338E-01
    8992.159     -2.317   1.080  5.59581E-01  7.29951E-01 -1.70370E-01
    8992.494     -1.981   1.120  5.89098E-01  7.43410E-01 -1.54311E-01
    8992.841     -1.634   1.160  6.11641E-01  7.56759E-01 -1.45118E-01
    8993.201     -1.274   1.200  6.31972E-01  7.69988E-01 -1.38015E-01
    8993.573     -0.902   1.240  6.57122E-01  7.83078E-01 -1.25956E-01
    8993.957     -0.518   1.280  6.95324E-01  7.96032E-01 -1.00708E-01
    8994.353     -0.122   1.320  7.54419E-01  8.08806E-01 -5.43872E-02
    8994.762      0.286   1.360  8.37465E-01  8.21398E-01  1.60674E-02
    8995.182      0.707   1.400  9.35791E-01  8.33780E-01  1.02011E-01
    8995.615      1.140   1.440  1.03019E+00  8.45906E-01  1.84283E-01
    8996.060      1.585   1.480  1.10398E+00  8.57787E-01  2.46195E-01
    8996.517      2.042   1.520  1.15692E+00  8.69375E-01  2.87548E-01
    8996.987      2.511   1.560  1.20419E+00  8.80641E-01  3.23546E-01
    8997.468      2.993   1.600  1.25733E+00  8.91598E-01  3.65729E-01
    8997.962      3.487   1.640  1.30854E+00  9.02175E-01  4.06363E-01
    8998.468      3.993   1.680  1.35260E+00  9.12386E-01  4.40217E-01
    8998.986      4.511   1.720  1.39339E+00  9.22222E-01  4.71167E-01
    8999.516      5.041   1.760  1.41524E+00  9.31637E-01  4.83607E-01
    9000.059      5.584   1.800  1.38453E+00  9.40625E-01  4.43907E-01
    9000.614      6.139   1.840  1.29987E+00  9.49181E-01  3.50684E-01
    9001.181      6.705   1.880  1.20476E+00  9.57281E-01  2.47475E-01
    9001.760      7.285   1.920  1.13095E+00  9.64941E-01  1.66005E-01
    9002.351      7.876   1.960  1.08616E+00  9.72139E-01  1.14018E-01
    9002.955      8.479   2.000  1.06443E+00  9.78876E-01  8.55577E-02
    9003.570      9.095   2.040  1.05792E+00  9.85129E-01  7.27875E-02
    9004.198      9.723   2.080  1.05883E+00  9.90941E-01  6.78904E-02
    9004.838     10.363   2.120  1.05781E+00  9.96273E-01  6.15359E-02
    9005.490     11.015   2.160  1.04710E+00  1.00115E+00  4.59487E-02
    9006.155     11.680   2.200  1.02434E+00  1.00559E+00  1.87492E-02
    9006.832     12.356   2.240  9.95323E-01  1.00959E+00 -1.42682E-02
    9007.520     13.045   2.280  9.70146E-01  1.01317E+00 -4.30217E-02
    9008.221     13.746   2.320  9.54955E-01  1.01631E+00 -6.13533E-02
    9008.935     14.460   2.360  9.47406E-01  1.01906E+00 -7.16567E-02
    9009.660     15.185   2.400  9.40287E-01  1.02142E+00 -8.11288E-02
    9010.398     15.923   2.440  9.29630E-01  1.02342E+00 -9.37880E-02
    9011.147     16.672   2.480  9.18007E-01  1.02506E+00 -1.07049E-01
    9011.909     17.434   2.520  9.09612E-01  1.02634E+00 -1.16727E-01
    9012.684     18.209   2.560  9.05308E-01  1.02732E+00 -1.22011E-01
    9013.470     18.995   2.600  9.06814E-01  1.02798E+00 -1.21169E-01
    9014.269     19.794   2.640  9.20050E-01  1.02838E+00 -1.08332E-01
    9015.079     20.604   2.680  9.47496E-01  1.02851E+00 -8.10088E-02
    9015.902     21.427   2.720  9.80615E-01  1.02840E+00 -4.77893E-02
    9016.738     22.262   2.760  1.00211E+00  1.02807E+00 -2.59548E-02
    9017.585     23.110   2.800  1.00342E+00  1.02750E+00 -2.40802E-02
    9018.444     23.969   2.840  9.96503E-01  1.02678E+00 -3.02751E-02
    9019.316     24.841   2.880  9.89643E-01  1.02587E+00 -3.62255E-02
    9020.200     25.725   2.920  9.85002E-01  1.02482E+00 -3.98201E-02
    9021.096     26.621   2.960  9.81034E-01  1.02362E+00 -4.25902E-02
    9022.004     27.529   3.000  9.76332E-01  1.02233E+00 -4.59952E-02
    9022.925     28.450   3.040  9.70604E-01  1.02092E+00 -5.03123E-02
    9023.858     29.383   3.080  9.64446E-01  1.01942E+00 -5.49759E-02
    9024.802     30.327   3.120  9.58713E-01  1.01787E+00 -5.91579E-02
    9025.760     31.284   3.160  9.54046E-01  1.01625E+00 -6.22047E-02
    9026.729     32.254   3.200  9.50640E-01  1.01459E+00 -6.39491E-02
    9027.710     33.235   3.240  9.48526E-01  1.01291E+00 -6.43850E-02
    9028.704     34.229   3.280  9.47475E-01  1.01120E+00 -6.37296E-02
    9029.710     35.235   3.320  9.47294E-01  1.00952E+00 -6.22222E-02
    9030.728     36.253   3.360  9.47907E-01  1.00781E+00 -5.99006E-02
    9031.758     37.283   3.400  9.49659E-01  1.00613E+00 -5.64704E-02
    9032.800     38.325   3.440  9.53001E-01  1.00448E+00 -5.14827E-02
    9033.855     39.380   3.480  9.58281E-01  1.00287E+00 -4.45933E-02
    9034.922     40.447   3.520  9.65604E-01  1.00128E+00 -3.56811E-02
    9036.001     41.526   3.560  9.75038E-01  9.99782E-01 -2.47449E-02
    9037.092     42.617   3.600  9.86578E-01  9.98308E-01 -1.17298E-02
    9038.195     43.720   3.640  1.00036E+00  9.96903E-01  3.46146E-03
    9039.311     44.836   3.680  1.01633E+00  9.95574E-01  2.07581E-02
    9040.439     45.964   3.720  1.03393E+00  9.94323E-01  3.96094E-02
    9041.579     47.103   3.760  1.05218E+00  9.93151E-01  5.90253E-02
    9042.731     48.256   3.800  1.06981E+00  9.92059E-01  7.77551E-02
    9043.895     49.420   3.840  1.08547E+00  9.91050E-01  9.44179E-02
    9045.072     50.596   3.880  1.09798E+00  9.90122E-01  1.07854E-01
    9046.260     51.785   3.920  1.10662E+00  9.89279E-01  1.17342E-01
    9047.461     52.986   3.960  1.11098E+00  9.88543E-01  1.22432E-01
    9048.674     54.199   4.000  1.11067E+00  9.87894E-01  1.22773E-01
    9049.900     55.425   4.040  1.10570E+00  9.87350E-01  1.18353E-01
    9051.137     56.662   4.080  1.09644E+00  9.86871E-01  1.09567E-01
    9052.387     57.912   4.120  1.08378E+00  9.86497E-01  9.72869E-02
    9053.649     59.174   4.160  1.06889E+00  9.86208E-01  8.26871E-02
    9054.923     60.448   4.200  1.05299E+00  9.86003E-01  6.69826E-02
    9056.209     61.734   4.240  1.03700E+00  9.85906E-01  5.10915E-02
    9057.507     63.032   4.280  1.02153E+00  9.85889E-01  3.56395E-02
    9058.818     64.343   4.320  1.00686E+00  9.85932E-01  2.09240E-02
    9060.141     65.666   4.360  9.93026E-01  9.86076E-01  6.94950E-03
    9061.476     67.001   4.400  9.79882E-01  9.86298E-01 -6.41653E-03
    9062.823     68.348   4.440  9.67278E-01  9.86575E-01 -1.92972E-02
    9064.182     69.707   4.480  9.55169E-01  9.86926E-01 -3.17570E-02
    9065.554     71.079   4.520  9.43678E-01  9.87349E-01 -4.36713E-02
    9066.938     72.463   4.560  9.33131E-01  9.87821E-01 -5.46907E-02
    9068.334     73.859   4.600  9.23994E-01  9.88339E-01 -6.43453E-02
    9069.742     75.267   4.640  9.16824E-01  9.88923E-01 -7.20989E-02
    9071.162     76.687   4.680  9.12161E-01  9.89550E-01 -7.73893E-02
    9072.595     78.120   4.720  9.10356E-01  9.90216E-01 -7.98604E-02
    9074.040     79.565   4.760  9.11535E-01  9.90898E-01 -7.93628E-02
    9075.497     81.022   4.800  9.15623E-01  9.91635E-01 -7.60120E-02
    9076.966     82.491   4.840  9.22188E-01  9.92383E-01 -7.01952E-02
    9078.447     83.972   4.880  9.30717E-01  9.93137E-01 -6.24201E-02
    9079.941     85.465   4.920  9.40711E-01  9.93916E-01 -5.32049E-02
    9081.446     86.971   4.960  9.51630E-01  9.94677E-01 -4.30464E-02
    9082.964     88.489   5.000  9.63075E-01  9.95458E-01 -3.23824E-02
    9084.494     90.019   5.040  9.74584E-01  9.96236E-01 -2.16524E-02
    9086.037     91.561   5.080  9.85772E-01  9.96988E-01 -1.12153E-02
    9087.591     93.116   5.120  9.96443E-01  9.97730E-01 -1.28672E-03
    9089.158     94.683   5.160  1.00644E+00  9.98439E-01  7.99701E-03
    9090.737     96.261   5.200  1.01552E+00  9.99136E-01  1.63873E-02
    9092.328     97.852   5.240  1.02319E+00  9.99796E-01  2.33932E-02
    9093.931     99.456   5.280  1.02875E+00  1.00042E+00  2.83304E-02
    9095.546    101.071   5.320  1.03153E+00  1.00099E+00  3.05316E-02
    9097.174    102.699   5.360  1.03113E+00  1.00150E+00  2.96239E-02
    9098.814    104.339   5.400  1.02771E+00  1.00199E+00  2.57158E-02
    9100.466    105.991   5.440  1.02183E+00  1.00241E+00  1.94244E-02
    9102.130    107.655   5.480  1.01457E+00  1.00276E+00  1.18100E-02
    9103.806    109.331   5.520  1.00730E+00  1.00308E+00  4.22251E-03
    9105.495    111.020   5.560  1.00130E+00  1.00331E+00 -2.01334E-03
    9107.196    112.721   5.600  9.97515E-01  1.00351E+00 -5.99376E-03
    9108.909    114.434   5.640  9.96073E-01  1.00361E+00 -7.53919E-03
    9110.634    116.159   5.680  9.96465E-01  1.00366E+00 -7.19706E-03
    9112.371    117.896   5.720  9.97729E-01  1.00364E+00 -5.90907E-03
    9114.121    119.646   5.760  9.99037E-01  1.00356E+00 -4.52550E-03
    9115.882    121.407   5.800  9.99947E-01  1.00339E+00 -3.44327E-03
    9117.656    123.181   5.840  1.00067E+00  1.00319E+00 -2.52361E-03
    9119.442    124.967   5.880  1.00163E+00  1.00290E+00 -1.26813E-03
    9121.241    126.766   5.920  1.00346E+00  1.00255E+00  9.02917E-04
    9123.051    128.576   5.960  1.00648E+00  1.00213E+00  4.35081E-03
    9124.874    130.399   6.000  1.01079E+00  1.00162E+00  9.16338E-03
