# # comment:                                                     FEFF 9.9.1  
# # Source:
# # Structure
# # Reduced
# # space
# # abc:
# # angles:
# # sites:
# # POT  SCF 100  7.0000   0, screened core-hole, AFOLP (folp(0)= 1.150)
# # Abs   Z=29 Rmt= 1.256 Rnm= 1.343 K  shell
# # Pot 1 Z=29 Rmt= 1.283 Rnm= 1.357
# # Pot 2 Z=34 Rmt= 1.109 Rnm= 1.333
# # Pot 3 Z= 8 Rmt= 0.926 Rnm= 1.075
# # Gam_ch=1.729E+00 H-L exch Vi= 0.000E+00 Vr= 0.000E+00
# # Mu=-5.378E+00eV kf=2.277E+00 Vint=-1.500E+01eV Rs_int= 1.592
# FMS rfms= 9.0000
# # PATH  Rmax=-1.000,  Keep_limit= 0.00, Heap_limit 0.00  Pwcrit= 2.50%
#  S02=0.950  Temp=   0.00  Debye_temp=   0.00  Global_sig2= 0.00000
#  Energy zero shift, vr, vi    0.00000E+00   0.00000E+00
#  Curved wave amplitude ratio filter   4.000%
#     file         sig2 tot  cw amp ratio   deg  nlegs   reff  inp sig2
#     0/   0 paths used
#  xsedge+ 50, used to normalize mu           2.4503E-04
#  -----------------------------------------------------------------------
#  omega    e    k    mu    mu0     chi     @#
    8983.358     -9.188  -1.000  4.33210E-02  5.78327E-02 -1.45117E-02
    8983.656     -8.890  -0.960  4.59776E-02  6.21686E-02 -1.61910E-02
    8983.943     -8.603  -0.920  4.89025E-02  6.69985E-02 -1.80959E-02
    8984.217     -8.329  -0.880  5.21361E-02  7.23959E-02 -2.02597E-02
    8984.479     -8.067  -0.840  5.57261E-02  7.84467E-02 -2.27206E-02
    8984.729     -7.817  -0.800  5.97285E-02  8.52506E-02 -2.55222E-02
    8984.967     -7.579  -0.760  6.42087E-02  9.29221E-02 -2.87134E-02
    8985.193     -7.354  -0.720  6.92417E-02  1.01591E-01 -3.23490E-02
    8985.406     -7.140  -0.680  7.49111E-02  1.11399E-01 -3.64880E-02
    8985.607     -6.939  -0.640  8.13065E-02  1.22498E-01 -4.11915E-02
    8985.796     -6.750  -0.600  8.85171E-02  1.35036E-01 -4.65192E-02
    8985.973     -6.573  -0.560  9.66191E-02  1.49141E-01 -5.25217E-02
    8986.137     -6.409  -0.520  1.05657E-01  1.64888E-01 -5.92305E-02
    8986.290     -6.256  -0.480  1.15619E-01  1.82263E-01 -6.66434E-02
    8986.430     -6.116  -0.440  1.26403E-01  2.01112E-01 -7.47088E-02
    8986.558     -5.988  -0.400  1.37795E-01  2.21105E-01 -8.33098E-02
    8986.674     -5.872  -0.360  1.49463E-01  2.41720E-01 -9.22571E-02
    8986.777     -5.769  -0.320  1.60988E-01  2.62282E-01 -1.01295E-01
    8986.869     -5.677  -0.280  1.71918E-01  2.82040E-01 -1.10122E-01
    8986.948     -5.598  -0.240  1.81845E-01  3.00272E-01 -1.18427E-01
    8987.015     -5.531  -0.200  1.90460E-01  3.16377E-01 -1.25917E-01
    8987.070     -5.476  -0.160  1.97571E-01  3.29917E-01 -1.32346E-01
    8987.113     -5.433  -0.120  2.03087E-01  3.40614E-01 -1.37527E-01
    8987.143     -5.403  -0.080  2.06985E-01  3.48316E-01 -1.41331E-01
    8987.168     -5.378   0.000  2.10018E-01  3.54501E-01 -1.44482E-01
    8987.222     -5.324   0.120  2.16954E-01  3.68435E-01 -1.51481E-01
    8987.265     -5.281   0.160  2.22281E-01  3.79262E-01 -1.56981E-01
    8987.320     -5.226   0.200  2.28939E-01  3.93050E-01 -1.64110E-01
    8987.387     -5.159   0.240  2.36757E-01  4.09640E-01 -1.72883E-01
    8987.466     -5.080   0.280  2.45387E-01  4.28621E-01 -1.83234E-01
    8987.558     -4.988   0.320  2.54518E-01  4.49527E-01 -1.95009E-01
    8987.661     -4.885   0.360  2.63758E-01  4.71686E-01 -2.07928E-01
    8987.777     -4.769   0.400  2.72864E-01  4.94431E-01 -2.21567E-01
    8987.905     -4.641   0.440  2.81710E-01  5.17154E-01 -2.35444E-01
    8988.045     -4.501   0.480  2.90297E-01  5.39363E-01 -2.49066E-01
    8988.198     -4.348   0.520  2.98725E-01  5.60757E-01 -2.62033E-01
    8988.362     -4.184   0.560  3.07019E-01  5.81156E-01 -2.74137E-01
    8988.539     -4.007   0.600  3.15216E-01  6.00544E-01 -2.85328E-01
    8988.728     -3.818   0.640  3.23365E-01  6.18966E-01 -2.95601E-01
    8988.929     -3.617   0.680  3.31696E-01  6.36532E-01 -3.04835E-01
    8989.143     -3.403   0.720  3.40710E-01  6.53324E-01 -3.12614E-01
    8989.368     -3.178   0.760  3.51229E-01  6.69447E-01 -3.18218E-01
    8989.606     -2.940   0.800  3.64165E-01  6.85012E-01 -3.20848E-01
    8989.856     -2.690   0.840  3.79834E-01  7.00081E-01 -3.20246E-01
    8990.118     -2.428   0.880  3.96739E-01  7.14735E-01 -3.17996E-01
    8990.392     -2.154   0.920  4.10981E-01  7.29001E-01 -3.18020E-01
    8990.679     -1.867   0.960  4.18538E-01  7.42935E-01 -3.24398E-01
    8990.978     -1.568   1.000  4.19493E-01  7.56541E-01 -3.37048E-01
    8991.288     -1.258   1.040  4.19216E-01  7.69829E-01 -3.50613E-01
    8991.612     -0.934   1.080  4.23811E-01  7.82806E-01 -3.58994E-01
    8991.947     -0.599   1.120  4.36008E-01  7.95467E-01 -3.59459E-01
    8992.294     -0.252   1.160  4.55548E-01  8.07828E-01 -3.52280E-01
    8992.654      0.108   1.200  4.81183E-01  8.19858E-01 -3.38675E-01
    8993.026      0.480   1.240  5.12671E-01  8.31539E-01 -3.18868E-01
    8993.410      0.864   1.280  5.50118E-01  8.42876E-01 -2.92758E-01
    8993.806      1.260   1.320  5.93687E-01  8.53848E-01 -2.60161E-01
    8994.215      1.669   1.360  6.43149E-01  8.64437E-01 -2.21288E-01
    8994.635      2.089   1.400  6.94185E-01  8.74620E-01 -1.80435E-01
    8995.068      2.522   1.440  7.39878E-01  8.84398E-01 -1.44520E-01
    8995.513      2.967   1.480  7.79221E-01  8.93769E-01 -1.14548E-01
    8995.970      3.424   1.520  8.23611E-01  9.02694E-01 -7.90829E-02
    8996.440      3.894   1.560  8.88964E-01  9.11211E-01 -2.22471E-02
    8996.921      4.375   1.600  9.78565E-01  9.19260E-01  5.93048E-02
    8997.415      4.869   1.640  1.08058E+00  9.26883E-01  1.53693E-01
    8997.921      5.375   1.680  1.18593E+00  9.34061E-01  2.51871E-01
    8998.439      5.893   1.720  1.29509E+00  9.40778E-01  3.54311E-01
    8998.969      6.423   1.760  1.39972E+00  9.47080E-01  4.52639E-01
    8999.512      6.966   1.800  1.48363E+00  9.52948E-01  5.30686E-01
    9000.067      7.521   1.840  1.53065E+00  9.58387E-01  5.72266E-01
    9000.634      8.088   1.880  1.52847E+00  9.63426E-01  5.65040E-01
    9001.213      8.667   1.920  1.47840E+00  9.68049E-01  5.10350E-01
    9001.804      9.258   1.960  1.39405E+00  9.72286E-01  4.21765E-01
    9002.408      9.861   2.000  1.30014E+00  9.76143E-01  3.23995E-01
    9003.023     10.477   2.040  1.22303E+00  9.79647E-01  2.43383E-01
    9003.651     11.105   2.080  1.17230E+00  9.82788E-01  1.89512E-01
    9004.291     11.745   2.120  1.13780E+00  9.85617E-01  1.52178E-01
    9004.943     12.397   2.160  1.10910E+00  9.88141E-01  1.20963E-01
    9005.608     13.062   2.200  1.08829E+00  9.90349E-01  9.79377E-02
    9006.285     13.739   2.240  1.08056E+00  9.92292E-01  8.82719E-02
    9006.973     14.427   2.280  1.08500E+00  9.93977E-01  9.10239E-02
    9007.674     15.128   2.320  1.09299E+00  9.95413E-01  9.75808E-02
    9008.388     15.842   2.360  1.09380E+00  9.96611E-01  9.71870E-02
    9009.113     16.567   2.400  1.08696E+00  9.97621E-01  8.93421E-02
    9009.851     17.305   2.440  1.08426E+00  9.98431E-01  8.58276E-02
    9010.601     18.054   2.480  1.09341E+00  9.99090E-01  9.43162E-02
    9011.363     18.816   2.520  1.10969E+00  9.99565E-01  1.10129E-01
    9012.137     19.591   2.560  1.12097E+00  9.99903E-01  1.21071E-01
    9012.923     20.377   2.600  1.11705E+00  1.00012E+00  1.16931E-01
    9013.722     21.176   2.640  1.09439E+00  1.00023E+00  9.41620E-02
    9014.532     21.986   2.680  1.05471E+00  1.00023E+00  5.44804E-02
    9015.355     22.809   2.720  1.01061E+00  1.00014E+00  1.04668E-02
    9016.191     23.644   2.760  9.72441E-01  9.99975E-01 -2.75332E-02
    9017.038     24.492   2.800  9.40692E-01  9.99755E-01 -5.90624E-02
    9017.897     25.351   2.840  9.14341E-01  9.99488E-01 -8.51462E-02
    9018.769     26.223   2.880  8.92247E-01  9.99178E-01 -1.06931E-01
    9019.653     27.107   2.920  8.73835E-01  9.98833E-01 -1.24997E-01
    9020.549     28.003   2.960  8.59174E-01  9.98475E-01 -1.39301E-01
    9021.457     28.911   3.000  8.48320E-01  9.98108E-01 -1.49788E-01
    9022.378     29.832   3.040  8.40849E-01  9.97716E-01 -1.56867E-01
    9023.311     30.765   3.080  8.36280E-01  9.97344E-01 -1.61064E-01
    9024.256     31.709   3.120  8.34176E-01  9.96954E-01 -1.62778E-01
    9025.213     32.667   3.160  8.33983E-01  9.96611E-01 -1.62628E-01
    9026.182     33.636   3.200  8.35519E-01  9.96255E-01 -1.60736E-01
    9027.163     34.617   3.240  8.38939E-01  9.95952E-01 -1.57014E-01
    9028.157     35.611   3.280  8.44220E-01  9.95662E-01 -1.51443E-01
    9029.163     36.617   3.320  8.51683E-01  9.95407E-01 -1.43724E-01
    9030.181     37.635   3.360  8.61801E-01  9.95189E-01 -1.33388E-01
    9031.211     38.665   3.400  8.74931E-01  9.95009E-01 -1.20077E-01
    9032.253     39.707   3.440  8.90892E-01  9.94867E-01 -1.03975E-01
    9033.308     40.762   3.480  9.09231E-01  9.94744E-01 -8.55129E-02
    9034.375     41.829   3.520  9.29217E-01  9.94683E-01 -6.54655E-02
    9035.454     42.908   3.560  9.49882E-01  9.94685E-01 -4.48028E-02
    9036.545     43.999   3.600  9.70340E-01  9.94707E-01 -2.43674E-02
    9037.648     45.102   3.640  9.89907E-01  9.94770E-01 -4.86232E-03
    9038.764     46.218   3.680  1.00797E+00  9.94895E-01  1.30721E-02
    9039.892     47.346   3.720  1.02391E+00  9.95041E-01  2.88703E-02
    9041.032     48.486   3.760  1.03742E+00  9.95248E-01  4.21674E-02
    9042.184     49.638   3.800  1.04817E+00  9.95474E-01  5.26927E-02
    9043.348     50.802   3.840  1.05609E+00  9.95763E-01  6.03252E-02
    9044.525     51.979   3.880  1.06122E+00  9.96089E-01  6.51320E-02
    9045.713     53.167   3.920  1.06369E+00  9.96432E-01  6.72611E-02
    9046.914     54.368   3.960  1.06373E+00  9.96833E-01  6.68939E-02
    9048.127     55.581   4.000  1.06156E+00  9.97249E-01  6.43128E-02
    9049.353     56.807   4.040  1.05760E+00  9.97699E-01  5.98985E-02
    9050.590     58.044   4.080  1.05234E+00  9.98183E-01  5.41601E-02
    9051.840     59.294   4.120  1.04644E+00  9.98677E-01  4.77629E-02
    9053.102     60.556   4.160  1.04069E+00  9.99202E-01  4.14919E-02
    9054.376     61.830   4.200  1.03570E+00  9.99735E-01  3.59684E-02
    9055.662     63.116   4.240  1.03194E+00  1.00030E+00  3.16463E-02
    9056.960     64.414   4.280  1.02974E+00  1.00086E+00  2.88799E-02
    9058.271     65.725   4.320  1.02936E+00  1.00143E+00  2.79252E-02
    9059.594     67.048   4.360  1.03085E+00  1.00202E+00  2.88283E-02
    9060.929     68.383   4.400  1.03394E+00  1.00259E+00  3.13470E-02
    9062.276     69.730   4.440  1.03826E+00  1.00319E+00  3.50757E-02
    9063.636     71.089   4.480  1.04329E+00  1.00375E+00  3.95402E-02
    9065.007     72.461   4.520  1.04859E+00  1.00431E+00  4.42795E-02
    9066.391     73.845   4.560  1.05370E+00  1.00487E+00  4.88279E-02
    9067.787     75.241   4.600  1.05808E+00  1.00542E+00  5.26554E-02
    9069.195     76.649   4.640  1.06112E+00  1.00594E+00  5.51792E-02
    9070.615     78.069   4.680  1.06233E+00  1.00645E+00  5.58751E-02
    9072.048     79.502   4.720  1.06126E+00  1.00693E+00  5.43277E-02
    9073.493     80.947   4.760  1.05764E+00  1.00739E+00  5.02461E-02
    9074.950     82.404   4.800  1.05137E+00  1.00782E+00  4.35509E-02
    9076.419     83.873   4.840  1.04270E+00  1.00822E+00  3.44838E-02
    9077.900     85.354   4.880  1.03234E+00  1.00860E+00  2.37421E-02
    9079.394     86.848   4.920  1.02133E+00  1.00894E+00  1.23940E-02
    9080.899     88.353   4.960  1.01075E+00  1.00921E+00  1.53740E-03
    9082.417     89.871   5.000  1.00149E+00  1.00947E+00 -7.97777E-03
    9083.947     91.401   5.040  9.94018E-01  1.00969E+00 -1.56736E-02
    9085.490     92.944   5.080  9.88404E-01  1.00987E+00 -2.14702E-02
    9087.044     94.498   5.120  9.84297E-01  1.01004E+00 -2.57399E-02
    9088.611     96.065   5.160  9.80765E-01  1.01014E+00 -2.93707E-02
    9090.190     97.644   5.200  9.76751E-01  1.01019E+00 -3.34404E-02
    9091.781     99.235   5.240  9.71436E-01  1.01020E+00 -3.87684E-02
    9093.384    100.838   5.280  9.64657E-01  1.01017E+00 -4.55165E-02
    9094.999    102.453   5.320  9.56897E-01  1.01010E+00 -5.32034E-02
    9096.627    104.081   5.360  9.49024E-01  1.00996E+00 -6.09376E-02
    9098.267    105.721   5.400  9.42108E-01  1.00981E+00 -6.76971E-02
    9099.919    107.373   5.440  9.37083E-01  1.00961E+00 -7.25267E-02
    9101.583    109.037   5.480  9.34646E-01  1.00937E+00 -7.47279E-02
    9103.259    110.713   5.520  9.35132E-01  1.00910E+00 -7.39682E-02
    9104.948    112.402   5.560  9.38423E-01  1.00881E+00 -7.03871E-02
    9106.649    114.103   5.600  9.43889E-01  1.00846E+00 -6.45685E-02
    9108.362    115.816   5.640  9.50703E-01  1.00807E+00 -5.73623E-02
    9110.087    117.541   5.680  9.58104E-01  1.00766E+00 -4.95555E-02
    9111.824    119.278   5.720  9.65656E-01  1.00722E+00 -4.15630E-02
    9113.574    121.028   5.760  9.73425E-01  1.00674E+00 -3.33156E-02
    9115.335    122.789   5.800  9.81713E-01  1.00623E+00 -2.45160E-02
    9117.109    124.563   5.840  9.90695E-01  1.00571E+00 -1.50159E-02
    9118.896    126.349   5.880  1.00016E+00  1.00516E+00 -5.00849E-03
    9120.694    128.148   5.920  1.00965E+00  1.00461E+00  5.03604E-03
    9122.504    129.958   5.960  1.01849E+00  1.00405E+00  1.44472E-02
    9124.327    131.781   6.000  1.02606E+00  1.00346E+00  2.26057E-02
