# # comment:                                                     FEFF 9.9.1  
# # Source:
# # Structure
# # Reduced
# # space
# # abc:
# # angles:
# # sites:
# # POT  SCF 100  7.0000   0, screened core-hole, AFOLP (folp(0)= 1.150)
# # Abs   Z=29 Rmt= 1.192 Rnm= 1.338 K  shell
# # Pot 1 Z= 3 Rmt= 1.251 Rnm= 1.319
# # Pot 2 Z=29 Rmt= 1.255 Rnm= 1.341
# # Pot 3 Z= 8 Rmt= 0.989 Rnm= 1.098
# # Gam_ch=1.729E+00 H-L exch Vi= 0.000E+00 Vr= 0.000E+00
# # Mu=-7.048E+00eV kf=2.079E+00 Vint=-1.619E+01eV Rs_int= 1.744
# FMS rfms= 9.0000
# # PATH  Rmax=-1.000,  Keep_limit= 0.00, Heap_limit 0.00  Pwcrit= 2.50%
#  S02=0.950  Temp=   0.00  Debye_temp=   0.00  Global_sig2= 0.00000
#  Energy zero shift, vr, vi    0.00000E+00   0.00000E+00
#  Curved wave amplitude ratio filter   4.000%
#     file         sig2 tot  cw amp ratio   deg  nlegs   reff  inp sig2
#     0/   0 paths used
#  xsedge+ 50, used to normalize mu           2.4567E-04
#  -----------------------------------------------------------------------
#  omega    e    k    mu    mu0     chi     @#
    8983.967    -10.858  -1.000  4.59042E-02  5.67153E-02 -1.08111E-02
    8984.266    -10.560  -0.960  4.88447E-02  6.09066E-02 -1.20619E-02
    8984.552    -10.273  -0.920  5.20790E-02  6.55694E-02 -1.34903E-02
    8984.827     -9.999  -0.880  5.56481E-02  7.07733E-02 -1.51252E-02
    8985.089     -9.737  -0.840  5.95995E-02  7.65997E-02 -1.70002E-02
    8985.339     -9.487  -0.800  6.39881E-02  8.31427E-02 -1.91546E-02
    8985.577     -9.249  -0.760  6.88770E-02  9.05107E-02 -2.16336E-02
    8985.802     -9.024  -0.720  7.43371E-02  9.88257E-02 -2.44886E-02
    8986.015     -8.810  -0.680  8.04462E-02  1.08222E-01 -2.77762E-02
    8986.217     -8.609  -0.640  8.72865E-02  1.18843E-01 -3.15568E-02
    8986.406     -8.420  -0.600  9.49380E-02  1.30828E-01 -3.58900E-02
    8986.582     -8.243  -0.560  1.03468E-01  1.44296E-01 -4.08274E-02
    8986.747     -8.079  -0.520  1.12917E-01  1.59318E-01 -4.64013E-02
    8986.899     -7.926  -0.480  1.23272E-01  1.75880E-01 -5.26087E-02
    8987.040     -7.786  -0.440  1.34443E-01  1.93836E-01 -5.93929E-02
    8987.168     -7.658  -0.400  1.46244E-01  2.12872E-01 -6.66283E-02
    8987.283     -7.542  -0.360  1.58380E-01  2.32495E-01 -7.41158E-02
    8987.387     -7.439  -0.320  1.70468E-01  2.52065E-01 -8.15967E-02
    8987.478     -7.347  -0.280  1.82084E-01  2.70869E-01 -8.87853E-02
    8987.558     -7.268  -0.240  1.92815E-01  2.88225E-01 -9.54099E-02
    8987.625     -7.201  -0.200  2.02313E-01  3.03560E-01 -1.01247E-01
    8987.680     -7.146  -0.160  2.10318E-01  3.16458E-01 -1.06140E-01
    8987.722     -7.103  -0.120  2.16660E-01  3.26651E-01 -1.09991E-01
    8987.753     -7.073  -0.080  2.21238E-01  3.33993E-01 -1.12755E-01
    8987.777     -7.048   0.000  2.24923E-01  3.39891E-01 -1.14968E-01
    8987.832     -6.994   0.120  2.33223E-01  3.53191E-01 -1.19968E-01
    8987.875     -6.951   0.160  2.39677E-01  3.63513E-01 -1.23835E-01
    8987.930     -6.896   0.200  2.47961E-01  3.76709E-01 -1.28748E-01
    8987.997     -6.829   0.240  2.57926E-01  3.92556E-01 -1.34630E-01
    8988.076     -6.750   0.280  2.69404E-01  4.10730E-01 -1.41326E-01
    8988.167     -6.658   0.320  2.82129E-01  4.30781E-01 -1.48652E-01
    8988.271     -6.555   0.360  2.95700E-01  4.52084E-01 -1.56384E-01
    8988.387     -6.439   0.400  3.09742E-01  4.74039E-01 -1.64297E-01
    8988.515     -6.311   0.440  3.23818E-01  4.96056E-01 -1.72239E-01
    8988.655     -6.171   0.480  3.37593E-01  5.17678E-01 -1.80085E-01
    8988.807     -6.018   0.520  3.50895E-01  5.38623E-01 -1.87729E-01
    8988.972     -5.854   0.560  3.63735E-01  5.58743E-01 -1.95008E-01
    8989.149     -5.677   0.600  3.76405E-01  5.78022E-01 -2.01617E-01
    8989.338     -5.488   0.640  3.89331E-01  5.96481E-01 -2.07151E-01
    8989.539     -5.287   0.680  4.03009E-01  6.14222E-01 -2.11214E-01
    8989.752     -5.073   0.720  4.17674E-01  6.31340E-01 -2.13665E-01
    8989.978     -4.848   0.760  4.33290E-01  6.47928E-01 -2.14639E-01
    8990.216     -4.610   0.800  4.49749E-01  6.64072E-01 -2.14323E-01
    8990.465     -4.360   0.840  4.67113E-01  6.79841E-01 -2.12728E-01
    8990.728     -4.098   0.880  4.85622E-01  6.95290E-01 -2.09668E-01
    8991.002     -3.824   0.920  5.05356E-01  7.10461E-01 -2.05106E-01
    8991.288     -3.537   0.960  5.26197E-01  7.25363E-01 -1.99165E-01
    8991.587     -3.238   1.000  5.48265E-01  7.40031E-01 -1.91766E-01
    8991.898     -2.928   1.040  5.72033E-01  7.54472E-01 -1.82439E-01
    8992.221     -2.604   1.080  5.97606E-01  7.68665E-01 -1.71059E-01
    8992.556     -2.269   1.120  6.23803E-01  7.82605E-01 -1.58802E-01
    8992.904     -1.922   1.160  6.48915E-01  7.96278E-01 -1.47364E-01
    8993.264     -1.562   1.200  6.72912E-01  8.09668E-01 -1.36756E-01
    8993.635     -1.190   1.240  6.97241E-01  8.22754E-01 -1.25513E-01
    8994.019     -0.806   1.280  7.22692E-01  8.35514E-01 -1.12822E-01
    8994.416     -0.410   1.320  7.49062E-01  8.47924E-01 -9.88620E-02
    8994.824     -0.001   1.360  7.75421E-01  8.59961E-01 -8.45400E-02
    8995.245      0.419   1.400  7.99874E-01  8.71597E-01 -7.17226E-02
    8995.678      0.852   1.440  8.20854E-01  8.82828E-01 -6.19736E-02
    8996.123      1.297   1.480  8.38750E-01  8.93609E-01 -5.48589E-02
    8996.580      1.754   1.520  8.55517E-01  9.03954E-01 -4.84369E-02
    8997.049      2.224   1.560  8.72463E-01  9.13839E-01 -4.13768E-02
    8997.531      2.705   1.600  8.88772E-01  9.23243E-01 -3.44708E-02
    8998.024      3.199   1.640  9.02906E-01  9.32161E-01 -2.92557E-02
    8998.530      3.705   1.680  9.15904E-01  9.40594E-01 -2.46896E-02
    8999.049      4.223   1.720  9.31332E-01  9.48539E-01 -1.72069E-02
    8999.579      4.753   1.760  9.49147E-01  9.55978E-01 -6.83150E-03
    9000.122      5.296   1.800  9.63539E-01  9.62915E-01  6.23808E-04
    9000.676      5.851   1.840  9.76130E-01  9.69371E-01  6.75850E-03
    9001.243      6.418   1.880  9.95496E-01  9.75331E-01  2.01647E-02
    9001.822      6.997   1.920  1.02213E+00  9.80841E-01  4.12896E-02
    9002.414      7.588   1.960  1.05351E+00  9.85867E-01  6.76399E-02
    9003.017      8.191   2.000  1.08787E+00  9.90435E-01  9.74338E-02
    9003.633      8.807   2.040  1.12210E+00  9.94573E-01  1.27526E-01
    9004.261      9.435   2.080  1.15214E+00  9.98290E-01  1.53848E-01
    9004.901     10.075   2.120  1.17417E+00  1.00162E+00  1.72554E-01
    9005.553     10.727   2.160  1.18540E+00  1.00452E+00  1.80880E-01
    9006.217     11.392   2.200  1.18644E+00  1.00709E+00  1.79354E-01
    9006.894     12.069   2.240  1.18205E+00  1.00927E+00  1.72780E-01
    9007.583     12.757   2.280  1.17856E+00  1.01114E+00  1.67415E-01
    9008.284     13.458   2.320  1.17892E+00  1.01269E+00  1.66233E-01
    9008.997     14.172   2.360  1.18181E+00  1.01395E+00  1.67866E-01
    9009.723     14.897   2.400  1.18522E+00  1.01492E+00  1.70297E-01
    9010.460     15.635   2.440  1.18680E+00  1.01566E+00  1.71144E-01
    9011.210     16.384   2.480  1.18000E+00  1.01616E+00  1.63840E-01
    9011.972     17.146   2.520  1.15745E+00  1.01642E+00  1.41028E-01
    9012.746     17.921   2.560  1.12993E+00  1.01651E+00  1.13426E-01
    9013.533     18.707   2.600  1.10189E+00  1.01642E+00  8.54748E-02
    9014.331     19.506   2.640  1.07567E+00  1.01614E+00  5.95341E-02
    9015.142     20.316   2.680  1.05200E+00  1.01575E+00  3.62530E-02
    9015.965     21.139   2.720  1.03112E+00  1.01521E+00  1.59112E-02
    9016.800     21.974   2.760  1.01336E+00  1.01455E+00 -1.19362E-03
    9017.647     22.822   2.800  9.98395E-01  1.01380E+00 -1.54021E-02
    9018.507     23.681   2.840  9.85917E-01  1.01296E+00 -2.70439E-02
    9019.379     24.553   2.880  9.75802E-01  1.01207E+00 -3.62660E-02
    9020.263     25.437   2.920  9.67717E-01  1.01110E+00 -4.33864E-02
    9021.159     26.333   2.960  9.61578E-01  1.01009E+00 -4.85151E-02
    9022.067     27.241   3.000  9.57418E-01  1.00904E+00 -5.16261E-02
    9022.988     28.162   3.040  9.54876E-01  1.00798E+00 -5.31041E-02
    9023.920     29.095   3.080  9.53414E-01  1.00689E+00 -5.34715E-02
    9024.865     30.039   3.120  9.52696E-01  1.00579E+00 -5.30924E-02
    9025.822     30.997   3.160  9.52424E-01  1.00471E+00 -5.22871E-02
    9026.791     31.966   3.200  9.52362E-01  1.00362E+00 -5.12547E-02
    9027.773     32.947   3.240  9.52578E-01  1.00255E+00 -4.99738E-02
    9028.766     33.941   3.280  9.53216E-01  1.00152E+00 -4.83028E-02
    9029.772     34.947   3.320  9.54169E-01  1.00052E+00 -4.63507E-02
    9030.790     35.965   3.360  9.55134E-01  9.99538E-01 -4.44037E-02
    9031.821     36.995   3.400  9.55701E-01  9.98616E-01 -4.29150E-02
    9032.863     38.037   3.440  9.55337E-01  9.97737E-01 -4.23995E-02
    9033.918     39.092   3.480  9.53747E-01  9.96900E-01 -4.31525E-02
    9034.984     40.159   3.520  9.50975E-01  9.96105E-01 -4.51301E-02
    9036.063     41.238   3.560  9.47401E-01  9.95356E-01 -4.79553E-02
    9037.155     42.329   3.600  9.43448E-01  9.94678E-01 -5.12294E-02
    9038.258     43.432   3.640  9.39689E-01  9.94069E-01 -5.43805E-02
    9039.373     44.548   3.680  9.36605E-01  9.93509E-01 -5.69046E-02
    9040.501     45.676   3.720  9.34593E-01  9.92998E-01 -5.84054E-02
    9041.641     46.816   3.760  9.33919E-01  9.92559E-01 -5.86405E-02
    9042.793     47.968   3.800  9.34684E-01  9.92192E-01 -5.75077E-02
    9043.958     49.132   3.840  9.36786E-01  9.91874E-01 -5.50876E-02
    9045.134     50.309   3.880  9.40042E-01  9.91627E-01 -5.15850E-02
    9046.323     51.497   3.920  9.44276E-01  9.91430E-01 -4.71546E-02
    9047.524     52.698   3.960  9.49387E-01  9.91302E-01 -4.19147E-02
    9048.737     53.911   4.000  9.55214E-01  9.91221E-01 -3.60072E-02
    9049.962     55.137   4.040  9.61636E-01  9.91188E-01 -2.95528E-02
    9051.200     56.374   4.080  9.68630E-01  9.91223E-01 -2.25930E-02
    9052.449     57.624   4.120  9.76215E-01  9.91306E-01 -1.50905E-02
    9053.711     58.886   4.160  9.84554E-01  9.91455E-01 -6.90122E-03
    9054.985     60.160   4.200  9.93783E-01  9.91650E-01  2.13384E-03
    9056.272     61.446   4.240  1.00389E+00  9.91886E-01  1.20000E-02
    9057.570     62.744   4.280  1.01452E+00  9.92163E-01  2.23610E-02
    9058.881     64.055   4.320  1.02515E+00  9.92478E-01  3.26763E-02
    9060.203     65.378   4.360  1.03514E+00  9.92830E-01  4.23140E-02
    9061.538     66.713   4.400  1.04390E+00  9.93199E-01  5.07048E-02
    9062.886     68.060   4.440  1.05101E+00  9.93625E-01  5.73859E-02
    9064.245     69.419   4.480  1.05607E+00  9.94064E-01  6.20050E-02
    9065.617     70.791   4.520  1.05890E+00  9.94536E-01  6.43684E-02
    9067.000     72.175   4.560  1.05958E+00  9.95038E-01  6.45432E-02
    9068.396     73.571   4.600  1.05842E+00  9.95527E-01  6.28935E-02
    9069.805     74.979   4.640  1.05594E+00  9.96063E-01  5.98734E-02
    9071.225     76.399   4.680  1.05243E+00  9.96583E-01  5.58471E-02
    9072.658     77.832   4.720  1.04814E+00  9.97126E-01  5.10138E-02
    9074.102     79.277   4.760  1.04315E+00  9.97648E-01  4.54993E-02
    9075.559     80.734   4.800  1.03772E+00  9.98191E-01  3.95249E-02
    9077.028     82.203   4.840  1.03222E+00  9.98732E-01  3.34851E-02
    9078.510     83.684   4.880  1.02705E+00  9.99247E-01  2.78066E-02
    9080.003     85.178   4.920  1.02260E+00  9.99756E-01  2.28481E-02
    9081.509     86.683   4.960  1.01909E+00  1.00026E+00  1.88277E-02
    9083.027     88.201   5.000  1.01656E+00  1.00076E+00  1.58030E-02
    9084.557     89.731   5.040  1.01490E+00  1.00122E+00  1.36766E-02
    9086.099     91.274   5.080  1.01383E+00  1.00165E+00  1.21775E-02
    9087.654     92.828   5.120  1.01298E+00  1.00207E+00  1.09109E-02
    9089.220     94.395   5.160  1.01195E+00  1.00248E+00  9.47635E-03
    9090.799     95.974   5.200  1.01037E+00  1.00283E+00  7.53930E-03
    9092.390     97.565   5.240  1.00805E+00  1.00316E+00  4.89089E-03
    9093.993     99.168   5.280  1.00492E+00  1.00346E+00  1.46000E-03
    9095.609    100.783   5.320  1.00103E+00  1.00371E+00 -2.67818E-03
    9097.236    102.411   5.360  9.96612E-01  1.00393E+00 -7.31495E-03
    9098.876    104.051   5.400  9.91984E-01  1.00410E+00 -1.21181E-02
    9100.528    105.703   5.440  9.87538E-01  1.00424E+00 -1.67007E-02
    9102.193    107.367   5.480  9.83615E-01  1.00436E+00 -2.07432E-02
    9103.869    109.043   5.520  9.80225E-01  1.00441E+00 -2.41894E-02
    9105.557    110.732   5.560  9.77110E-01  1.00443E+00 -2.73190E-02
    9107.258    112.433   5.600  9.73895E-01  1.00443E+00 -3.05303E-02
    9108.971    114.146   5.640  9.70398E-01  1.00436E+00 -3.39585E-02
    9110.696    115.871   5.680  9.66941E-01  1.00425E+00 -3.73054E-02
    9112.434    117.608   5.720  9.64063E-01  1.00410E+00 -4.00326E-02
    9114.183    119.358   5.760  9.62232E-01  1.00391E+00 -4.16746E-02
    9115.945    121.119   5.800  9.61690E-01  1.00370E+00 -4.20115E-02
    9117.719    122.893   5.840  9.62388E-01  1.00343E+00 -4.10461E-02
    9119.505    124.679   5.880  9.64244E-01  1.00313E+00 -3.88862E-02
    9121.303    126.478   5.920  9.67146E-01  1.00282E+00 -3.56692E-02
    9123.114    128.288   5.960  9.70910E-01  1.00244E+00 -3.15291E-02
    9124.937    130.111   6.000  9.75640E-01  1.00203E+00 -2.63889E-02
