# # comment:                                                     FEFF 9.9.1  
# # Source:
# # Structure
# # Reduced
# # space
# # abc:
# # angles:
# # sites:
# # POT  SCF 100  7.0000   0, screened core-hole, AFOLP (folp(0)= 1.150)
# # Abs   Z=29 Rmt= 1.284 Rnm= 1.357 K  shell
# # Pot 1 Z=29 Rmt= 1.284 Rnm= 1.357
# # Pot 2 Z=34 Rmt= 1.110 Rnm= 1.333
# # Pot 3 Z= 8 Rmt= 0.959 Rnm= 1.072
# # Gam_ch=1.729E+00 H-L exch Vi= 0.000E+00 Vr= 0.000E+00
# # Mu=-5.246E+00eV kf=2.278E+00 Vint=-1.525E+01eV Rs_int= 1.592
# FMS rfms= 9.0000
# # PATH  Rmax=-1.000,  Keep_limit= 0.00, Heap_limit 0.00  Pwcrit= 2.50%
#  S02=0.950  Temp=   0.00  Debye_temp=   0.00  Global_sig2= 0.00000
#  Energy zero shift, vr, vi    0.00000E+00   0.00000E+00
#  Curved wave amplitude ratio filter   4.000%
#     file         sig2 tot  cw amp ratio   deg  nlegs   reff  inp sig2
#     0/   0 paths used
#  xsedge+ 50, used to normalize mu           2.4532E-04
#  -----------------------------------------------------------------------
#  omega    e    k    mu    mu0     chi     @#
    8983.388     -9.056  -1.000  4.48340E-02  5.78307E-02 -1.29966E-02
    8983.686     -8.758  -0.960  4.73713E-02  6.21699E-02 -1.47986E-02
    8983.973     -8.471  -0.920  5.01083E-02  6.70042E-02 -1.68959E-02
    8984.247     -8.197  -0.880  5.30653E-02  7.24074E-02 -1.93421E-02
    8984.509     -7.935  -0.840  5.62651E-02  7.84657E-02 -2.22006E-02
    8984.759     -7.685  -0.800  5.97327E-02  8.52792E-02 -2.55465E-02
    8984.997     -7.447  -0.760  6.34956E-02  9.29630E-02 -2.94674E-02
    8985.222     -7.222  -0.720  6.75828E-02  1.01647E-01 -3.40641E-02
    8985.436     -7.008  -0.680  7.20246E-02  1.11475E-01 -3.94499E-02
    8985.637     -6.807  -0.640  7.68508E-02  1.22597E-01 -4.57467E-02
    8985.826     -6.618  -0.600  8.20876E-02  1.35165E-01 -5.30774E-02
    8986.003     -6.441  -0.560  8.77532E-02  1.49305E-01 -6.15517E-02
    8986.167     -6.277  -0.520  9.38515E-02  1.65094E-01 -7.12425E-02
    8986.320     -6.124  -0.480  1.00363E-01  1.82517E-01 -8.21545E-02
    8986.460     -5.984  -0.440  1.07235E-01  2.01421E-01 -9.41867E-02
    8986.588     -5.856  -0.400  1.14372E-01  2.21474E-01 -1.07102E-01
    8986.704     -5.740  -0.360  1.21636E-01  2.42152E-01 -1.20516E-01
    8986.807     -5.637  -0.320  1.28847E-01  2.62776E-01 -1.33930E-01
    8986.899     -5.545  -0.280  1.35799E-01  2.82593E-01 -1.46794E-01
    8986.978     -5.466  -0.240  1.42283E-01  3.00878E-01 -1.58595E-01
    8987.045     -5.399  -0.200  1.48104E-01  3.17028E-01 -1.68924E-01
    8987.100     -5.344  -0.160  1.53094E-01  3.30604E-01 -1.77510E-01
    8987.143     -5.301  -0.120  1.57119E-01  3.41328E-01 -1.84209E-01
    8987.173     -5.271  -0.080  1.60078E-01  3.49048E-01 -1.88970E-01
    8987.198     -5.246   0.000  1.62528E-01  3.55247E-01 -1.92719E-01
    8987.252     -5.192   0.120  1.68126E-01  3.69207E-01 -2.01082E-01
    8987.295     -5.149   0.160  1.72507E-01  3.80060E-01 -2.07553E-01
    8987.350     -5.094   0.200  1.78234E-01  3.93889E-01 -2.15655E-01
    8987.417     -5.027   0.240  1.85384E-01  4.10492E-01 -2.25107E-01
    8987.496     -4.948   0.280  1.94050E-01  4.29515E-01 -2.35465E-01
    8987.588     -4.856   0.320  2.04317E-01  4.50423E-01 -2.46106E-01
    8987.691     -4.753   0.360  2.16300E-01  4.72581E-01 -2.56281E-01
    8987.807     -4.637   0.400  2.30147E-01  4.95317E-01 -2.65171E-01
    8987.935     -4.509   0.440  2.45984E-01  5.17995E-01 -2.72011E-01
    8988.075     -4.369   0.480  2.63968E-01  5.40139E-01 -2.76171E-01
    8988.228     -4.216   0.520  2.84168E-01  5.61429E-01 -2.77260E-01
    8988.392     -4.052   0.560  3.06518E-01  5.81700E-01 -2.75182E-01
    8988.569     -3.875   0.600  3.30713E-01  6.00941E-01 -2.70227E-01
    8988.758     -3.686   0.640  3.56024E-01  6.19197E-01 -2.63174E-01
    8988.959     -3.485   0.680  3.81414E-01  6.36558E-01 -2.55145E-01
    8989.173     -3.271   0.720  4.06012E-01  6.53132E-01 -2.47120E-01
    8989.398     -3.046   0.760  4.29815E-01  6.69045E-01 -2.39230E-01
    8989.636     -2.808   0.800  4.53528E-01  6.84372E-01 -2.30844E-01
    8989.886     -2.558   0.840  4.77588E-01  6.99214E-01 -2.21626E-01
    8990.148     -2.296   0.880  5.01259E-01  7.13637E-01 -2.12378E-01
    8990.422     -2.022   0.920  5.23462E-01  7.27672E-01 -2.04210E-01
    8990.709     -1.735   0.960  5.44148E-01  7.41376E-01 -1.97228E-01
    8991.008     -1.436   1.000  5.64454E-01  7.54772E-01 -1.90318E-01
    8991.318     -1.126   1.040  5.85513E-01  7.67856E-01 -1.82343E-01
    8991.642     -0.802   1.080  6.07645E-01  7.80655E-01 -1.73010E-01
    8991.977     -0.467   1.120  6.31472E-01  7.93168E-01 -1.61696E-01
    8992.324     -0.120   1.160  6.60646E-01  8.05389E-01 -1.44743E-01
    8992.684      0.240   1.200  7.01544E-01  8.17287E-01 -1.15743E-01
    8993.056      0.612   1.240  7.56009E-01  8.28889E-01 -7.28795E-02
    8993.440      0.996   1.280  8.16100E-01  8.40157E-01 -2.40576E-02
    8993.836      1.392   1.320  8.67337E-01  8.51075E-01  1.62620E-02
    8994.245      1.801   1.360  8.99129E-01  8.61641E-01  3.74880E-02
    8994.665      2.221   1.400  9.15038E-01  8.71855E-01  4.31826E-02
    8995.098      2.654   1.440  9.26149E-01  8.81676E-01  4.44726E-02
    8995.543      3.099   1.480  9.43392E-01  8.91083E-01  5.23089E-02
    8996.000      3.556   1.520  9.76067E-01  9.00115E-01  7.59525E-02
    8996.470      4.026   1.560  1.02781E+00  9.08730E-01  1.19081E-01
    8996.951      4.507   1.600  1.09821E+00  9.16910E-01  1.81301E-01
    8997.445      5.001   1.640  1.18589E+00  9.24692E-01  2.61198E-01
    8997.951      5.507   1.680  1.28331E+00  9.32040E-01  3.51273E-01
    8998.469      6.025   1.720  1.37604E+00  9.38954E-01  4.37086E-01
    8998.999      6.555   1.760  1.44737E+00  9.45437E-01  5.01938E-01
    8999.542      7.098   1.800  1.48431E+00  9.51513E-01  5.32796E-01
    9000.097      7.653   1.840  1.47962E+00  9.57187E-01  5.22430E-01
    9000.664      8.220   1.880  1.43281E+00  9.62444E-01  4.70367E-01
    9001.243      8.799   1.920  1.35902E+00  9.67308E-01  3.91714E-01
    9001.834      9.390   1.960  1.28170E+00  9.71765E-01  3.09938E-01
    9002.437      9.994   2.000  1.21609E+00  9.75862E-01  2.40228E-01
    9003.053     10.609   2.040  1.16493E+00  9.79609E-01  1.85317E-01
    9003.681     11.237   2.080  1.12372E+00  9.82989E-01  1.40733E-01
    9004.321     11.877   2.120  1.08833E+00  9.86032E-01  1.02299E-01
    9004.973     12.529   2.160  1.05764E+00  9.88767E-01  6.88770E-02
    9005.638     13.194   2.200  1.03282E+00  9.91182E-01  4.16387E-02
    9006.315     13.871   2.240  1.01458E+00  9.93327E-01  2.12552E-02
    9007.003     14.559   2.280  1.00036E+00  9.95188E-01  5.17382E-03
    9007.704     15.260   2.320  9.88117E-01  9.96795E-01 -8.67761E-03
    9008.418     15.974   2.360  9.81480E-01  9.98179E-01 -1.66987E-02
    9009.143     16.699   2.400  9.83586E-01  9.99326E-01 -1.57398E-02
    9009.881     17.437   2.440  9.90157E-01  1.00029E+00 -1.01289E-02
    9010.630     18.186   2.480  9.93889E-01  1.00105E+00 -7.15866E-03
    9011.392     18.948   2.520  9.89936E-01  1.00164E+00 -1.17007E-02
    9012.167     19.723   2.560  9.77302E-01  1.00206E+00 -2.47598E-02
    9012.953     20.509   2.600  9.59070E-01  1.00235E+00 -4.32845E-02
    9013.752     21.308   2.640  9.42294E-01  1.00252E+00 -6.02230E-02
    9014.562     22.118   2.680  9.38567E-01  1.00256E+00 -6.39912E-02
    9015.385     22.941   2.720  9.47499E-01  1.00249E+00 -5.49868E-02
    9016.220     23.777   2.760  9.58362E-01  1.00235E+00 -4.39842E-02
    9017.068     24.624   2.800  9.66379E-01  1.00213E+00 -3.57459E-02
    9017.927     25.483   2.840  9.69425E-01  1.00183E+00 -3.24045E-02
    9018.799     26.355   2.880  9.66917E-01  1.00149E+00 -3.45684E-02
    9019.683     27.239   2.920  9.59442E-01  1.00110E+00 -4.16549E-02
    9020.579     28.135   2.960  9.48546E-01  1.00069E+00 -5.21437E-02
    9021.487     29.043   3.000  9.36171E-01  1.00023E+00 -6.40557E-02
    9022.408     29.964   3.040  9.24251E-01  9.99775E-01 -7.55244E-02
    9023.341     30.897   3.080  9.14021E-01  9.99296E-01 -8.52749E-02
    9024.285     31.841   3.120  9.06232E-01  9.98814E-01 -9.25820E-02
    9025.243     32.799   3.160  9.00875E-01  9.98355E-01 -9.74800E-02
    9026.212     33.768   3.200  8.97874E-01  9.97878E-01 -1.00003E-01
    9027.193     34.749   3.240  8.97272E-01  9.97448E-01 -1.00176E-01
    9028.187     35.743   3.280  8.98892E-01  9.97008E-01 -9.81159E-02
    9029.193     36.749   3.320  9.02639E-01  9.96619E-01 -9.39804E-02
    9030.211     37.767   3.360  9.08245E-01  9.96243E-01 -8.79972E-02
    9031.241     38.797   3.400  9.15447E-01  9.95901E-01 -8.04536E-02
    9032.283     39.839   3.440  9.23795E-01  9.95575E-01 -7.17802E-02
    9033.338     40.894   3.480  9.33091E-01  9.95308E-01 -6.22179E-02
    9034.405     41.961   3.520  9.43108E-01  9.95082E-01 -5.19739E-02
    9035.484     43.040   3.560  9.53614E-01  9.94895E-01 -4.12815E-02
    9036.575     44.131   3.600  9.64371E-01  9.94748E-01 -3.03778E-02
    9037.678     45.234   3.640  9.75146E-01  9.94643E-01 -1.94964E-02
    9038.794     46.350   3.680  9.85733E-01  9.94579E-01 -8.84577E-03
    9039.922     47.478   3.720  9.95909E-01  9.94556E-01  1.35348E-03
    9041.062     48.618   3.760  1.00555E+00  9.94595E-01  1.09524E-02
    9042.214     49.770   3.800  1.01441E+00  9.94655E-01  1.97577E-02
    9043.378     50.934   3.840  1.02239E+00  9.94775E-01  2.76124E-02
    9044.555     52.111   3.880  1.02946E+00  9.94915E-01  3.45486E-02
    9045.743     53.299   3.920  1.03590E+00  9.95114E-01  4.07866E-02
    9046.944     54.500   3.960  1.04194E+00  9.95333E-01  4.66102E-02
    9048.157     55.713   4.000  1.04791E+00  9.95609E-01  5.23015E-02
    9049.383     56.939   4.040  1.05391E+00  9.95901E-01  5.80038E-02
    9050.620     58.176   4.080  1.05981E+00  9.96230E-01  6.35750E-02
    9051.870     59.426   4.120  1.06514E+00  9.96594E-01  6.85470E-02
    9053.132     60.688   4.160  1.06927E+00  9.96992E-01  7.22771E-02
    9054.406     61.962   4.200  1.07139E+00  9.97401E-01  7.39915E-02
    9055.692     63.248   4.240  1.07092E+00  9.97840E-01  7.30795E-02
    9056.990     64.546   4.280  1.06770E+00  9.98288E-01  6.94151E-02
    9058.301     65.857   4.320  1.06221E+00  9.98764E-01  6.34460E-02
    9059.624     67.180   4.360  1.05527E+00  9.99245E-01  5.60208E-02
    9060.959     68.515   4.400  1.04784E+00  9.99731E-01  4.81053E-02
    9062.306     69.862   4.440  1.04087E+00  1.00024E+00  4.06247E-02
    9063.665     71.221   4.480  1.03492E+00  1.00073E+00  3.41877E-02
    9065.037     72.593   4.520  1.03029E+00  1.00124E+00  2.90460E-02
    9066.421     73.977   4.560  1.02685E+00  1.00176E+00  2.50895E-02
    9067.817     75.373   4.600  1.02419E+00  1.00226E+00  2.19274E-02
    9069.225     76.781   4.640  1.02183E+00  1.00275E+00  1.90870E-02
    9070.645     78.201   4.680  1.01941E+00  1.00322E+00  1.61880E-02
    9072.078     79.634   4.720  1.01666E+00  1.00369E+00  1.29662E-02
    9073.523     81.079   4.760  1.01343E+00  1.00416E+00  9.27080E-03
    9074.980     82.536   4.800  1.00966E+00  1.00459E+00  5.07648E-03
    9076.449     84.005   4.840  1.00549E+00  1.00501E+00  4.80640E-04
    9077.930     85.486   4.880  1.00114E+00  1.00540E+00 -4.26138E-03
    9079.424     86.980   4.920  9.96925E-01  1.00575E+00 -8.82427E-03
    9080.929     88.485   4.960  9.93158E-01  1.00609E+00 -1.29316E-02
    9082.447     90.003   5.000  9.90010E-01  1.00640E+00 -1.63856E-02
    9083.977     91.533   5.040  9.87547E-01  1.00668E+00 -1.91381E-02
    9085.520     93.076   5.080  9.85563E-01  1.00691E+00 -2.13521E-02
    9087.074     94.630   5.120  9.83690E-01  1.00713E+00 -2.34384E-02
    9088.641     96.197   5.160  9.81317E-01  1.00730E+00 -2.59863E-02
    9090.220     97.776   5.200  9.78007E-01  1.00744E+00 -2.94308E-02
    9091.811     99.367   5.240  9.73685E-01  1.00753E+00 -3.38476E-02
    9093.414    100.970   5.280  9.68729E-01  1.00759E+00 -3.88584E-02
    9095.029    102.585   5.320  9.63823E-01  1.00760E+00 -4.37765E-02
    9096.657    104.213   5.360  9.59751E-01  1.00757E+00 -4.78237E-02
    9098.297    105.853   5.400  9.57131E-01  1.00753E+00 -5.04003E-02
    9099.949    107.505   5.440  9.56189E-01  1.00742E+00 -5.12350E-02
    9101.613    109.169   5.480  9.56837E-01  1.00728E+00 -5.04408E-02
    9103.289    110.845   5.520  9.58682E-01  1.00711E+00 -4.84307E-02
    9104.978    112.534   5.560  9.61071E-01  1.00689E+00 -4.58172E-02
    9106.679    114.235   5.600  9.63406E-01  1.00665E+00 -4.32416E-02
    9108.392    115.948   5.640  9.65219E-01  1.00637E+00 -4.11499E-02
    9110.117    117.673   5.680  9.66478E-01  1.00605E+00 -3.95749E-02
    9111.854    119.410   5.720  9.67584E-01  1.00570E+00 -3.81156E-02
    9113.604    121.160   5.760  9.69237E-01  1.00533E+00 -3.60952E-02
    9115.365    122.921   5.800  9.72036E-01  1.00491E+00 -3.28719E-02
    9117.139    124.695   5.840  9.76363E-01  1.00447E+00 -2.81110E-02
    9118.925    126.481   5.880  9.82165E-01  1.00403E+00 -2.18682E-02
    9120.724    128.280   5.920  9.89132E-01  1.00354E+00 -1.44065E-02
    9122.534    130.090   5.960  9.97080E-01  1.00304E+00 -5.96377E-03
    9124.357    131.913   6.000  1.00613E+00  1.00253E+00  3.60014E-03
