# # comment:                                                     FEFF 9.9.1  
# # Source:
# # Structure
# # Reduced
# # space
# # abc:
# # angles:
# # sites:
# # POT  SCF 100  7.0000   0, screened core-hole, AFOLP (folp(0)= 1.150)
# # Abs   Z=29 Rmt= 1.298 Rnm= 1.368 K  shell
# # Pot 1 Z=24 Rmt= 1.310 Rnm= 1.412
# # Pot 2 Z=48 Rmt= 1.424 Rnm= 1.510
# # Pot 3 Z=29 Rmt= 1.269 Rnm= 1.343
# # Pot 4 Z= 8 Rmt= 1.031 Rnm= 1.100
# # Gam_ch=1.729E+00 H-L exch Vi= 0.000E+00 Vr= 0.000E+00
# # Mu=-1.057E+01eV kf=2.178E+00 Vint=-1.866E+01eV Rs_int= 1.665
# FMS rfms= 9.0000
# # PATH  Rmax=-1.000,  Keep_limit= 0.00, Heap_limit 0.00  Pwcrit= 2.50%
#  S02=0.950  Temp=   0.00  Debye_temp=   0.00  Global_sig2= 0.00000
#  Energy zero shift, vr, vi    0.00000E+00   0.00000E+00
#  Curved wave amplitude ratio filter   4.000%
#     file         sig2 tot  cw amp ratio   deg  nlegs   reff  inp sig2
#     0/   0 paths used
#  xsedge+ 50, used to normalize mu           2.5137E-04
#  -----------------------------------------------------------------------
#  omega    e    k    mu    mu0     chi     @#
    8984.177    -14.379  -1.000  3.35219E-02  4.50302E-02 -1.15083E-02
    8984.475    -14.080  -0.960  3.51985E-02  4.80713E-02 -1.28728E-02
    8984.762    -13.794  -0.920  3.70002E-02  5.14338E-02 -1.44336E-02
    8985.036    -13.519  -0.880  3.89407E-02  5.51639E-02 -1.62232E-02
    8985.298    -13.257  -0.840  4.10358E-02  5.93151E-02 -1.82794E-02
    8985.548    -13.007  -0.800  4.33031E-02  6.39495E-02 -2.06464E-02
    8985.786    -12.769  -0.760  4.57627E-02  6.91380E-02 -2.33753E-02
    8986.012    -12.544  -0.720  4.84364E-02  7.49608E-02 -2.65244E-02
    8986.225    -12.331  -0.680  5.13477E-02  8.15059E-02 -3.01582E-02
    8986.426    -12.129  -0.640  5.45206E-02  8.88660E-02 -3.43455E-02
    8986.615    -11.940  -0.600  5.79770E-02  9.71319E-02 -3.91549E-02
    8986.792    -11.764  -0.560  6.17337E-02  1.06381E-01 -4.46469E-02
    8986.956    -11.599  -0.520  6.57959E-02  1.16657E-01 -5.08609E-02
    8987.109    -11.447  -0.480  7.01500E-02  1.27948E-01 -5.77982E-02
    8987.249    -11.306  -0.440  7.47548E-02  1.40156E-01 -6.54016E-02
    8987.377    -11.178  -0.400  7.95342E-02  1.53072E-01 -7.35377E-02
    8987.493    -11.063  -0.360  8.43757E-02  1.66367E-01 -8.19908E-02
    8987.597    -10.959  -0.320  8.91387E-02  1.79615E-01 -9.04759E-02
    8987.688    -10.868  -0.280  9.36705E-02  1.92342E-01 -9.86719E-02
    8987.767    -10.788  -0.240  9.78274E-02  2.04094E-01 -1.06267E-01
    8987.834    -10.721  -0.200  1.01490E-01  2.14485E-01 -1.12995E-01
    8987.889    -10.666  -0.160  1.04571E-01  2.23232E-01 -1.18661E-01
    8987.932    -10.624  -0.120  1.07011E-01  2.30152E-01 -1.23142E-01
    8987.962    -10.593  -0.080  1.08768E-01  2.35141E-01 -1.26374E-01
    8987.987    -10.569   0.000  1.10165E-01  2.39153E-01 -1.28988E-01
    8988.042    -10.514   0.120  1.13504E-01  2.48214E-01 -1.34710E-01
    8988.084    -10.471   0.160  1.16103E-01  2.55253E-01 -1.39149E-01
    8988.139    -10.416   0.200  1.19490E-01  2.64273E-01 -1.44784E-01
    8988.206    -10.349   0.240  1.23657E-01  2.75147E-01 -1.51490E-01
    8988.285    -10.270   0.280  1.28610E-01  2.87655E-01 -1.59045E-01
    8988.377    -10.179   0.320  1.34439E-01  3.01544E-01 -1.67106E-01
    8988.480    -10.075   0.360  1.41229E-01  3.16429E-01 -1.75200E-01
    8988.596     -9.959   0.400  1.49162E-01  3.31917E-01 -1.82755E-01
    8988.724     -9.831   0.440  1.58467E-01  3.47634E-01 -1.89166E-01
    8988.865     -9.691   0.480  1.69344E-01  3.63323E-01 -1.93978E-01
    8989.017     -9.539   0.520  1.81840E-01  3.78791E-01 -1.96951E-01
    8989.181     -9.374   0.560  1.95680E-01  3.93980E-01 -1.98301E-01
    8989.358     -9.197   0.600  2.10124E-01  4.08848E-01 -1.98723E-01
    8989.547     -9.008   0.640  2.23917E-01  4.23458E-01 -1.99542E-01
    8989.748     -8.807   0.680  2.35156E-01  4.37879E-01 -2.02724E-01
    8989.962     -8.594   0.720  2.42012E-01  4.52170E-01 -2.10158E-01
    8990.187     -8.368   0.760  2.44473E-01  4.66389E-01 -2.21916E-01
    8990.425     -8.130   0.800  2.45485E-01  4.80606E-01 -2.35121E-01
    8990.675     -7.881   0.840  2.49975E-01  4.94883E-01 -2.44908E-01
    8990.937     -7.618   0.880  2.62602E-01  5.09250E-01 -2.46648E-01
    8991.211     -7.344   0.920  2.86587E-01  5.23750E-01 -2.37164E-01
    8991.498     -7.058   0.960  3.23294E-01  5.38395E-01 -2.15102E-01
    8991.797     -6.759   1.000  3.70470E-01  5.53190E-01 -1.82720E-01
    8992.108     -6.448   1.040  4.18340E-01  5.68152E-01 -1.49812E-01
    8992.431     -6.125   1.080  4.48689E-01  5.83252E-01 -1.34563E-01
    8992.766     -5.790   1.120  4.49304E-01  5.98517E-01 -1.49213E-01
    8993.113     -5.442   1.160  4.32906E-01  6.13891E-01 -1.80985E-01
    8993.473     -5.082   1.200  4.23785E-01  6.29389E-01 -2.05604E-01
    8993.845     -4.711   1.240  4.31237E-01  6.44947E-01 -2.13710E-01
    8994.229     -4.327   1.280  4.50664E-01  6.60599E-01 -2.09935E-01
    8994.625     -3.930   1.320  4.77503E-01  6.76254E-01 -1.98751E-01
    8995.034     -3.522   1.360  5.10516E-01  6.91921E-01 -1.81405E-01
    8995.454     -3.101   1.400  5.46952E-01  7.07545E-01 -1.60594E-01
    8995.887     -2.668   1.440  5.85691E-01  7.23115E-01 -1.37424E-01
    8996.332     -2.223   1.480  6.31528E-01  7.38553E-01 -1.07024E-01
    8996.789     -1.766   1.520  6.85504E-01  7.53862E-01 -6.83586E-02
    8997.259     -1.297   1.560  7.32283E-01  7.68990E-01 -3.67069E-02
    8997.740     -0.815   1.600  7.52235E-01  7.83896E-01 -3.16619E-02
    8998.234     -0.321   1.640  7.45147E-01  7.98565E-01 -5.34180E-02
    8998.740      0.184   1.680  7.33553E-01  8.12921E-01 -7.93680E-02
    8999.258      0.703   1.720  7.48179E-01  8.26970E-01 -7.87907E-02
    8999.788      1.233   1.760  8.04435E-01  8.40673E-01 -3.62388E-02
    9000.331      1.776   1.800  9.06116E-01  8.53978E-01  5.21380E-02
    9000.886      2.330   1.840  1.05874E+00  8.66869E-01  1.91867E-01
    9001.453      2.897   1.880  1.25057E+00  8.79316E-01  3.71258E-01
    9002.032      3.476   1.920  1.41255E+00  8.91307E-01  5.21245E-01
    9002.623      4.068   1.960  1.44131E+00  9.02809E-01  5.38504E-01
    9003.227      4.671   2.000  1.34005E+00  9.13795E-01  4.26254E-01
    9003.842      5.287   2.040  1.23332E+00  9.24259E-01  3.09066E-01
    9004.470      5.915   2.080  1.20083E+00  9.34213E-01  2.66613E-01
    9005.110      6.555   2.120  1.23060E+00  9.43591E-01  2.87010E-01
    9005.763      7.207   2.160  1.27082E+00  9.52430E-01  3.18389E-01
    9006.427      7.871   2.200  1.28878E+00  9.60710E-01  3.28070E-01
    9007.104      8.548   2.240  1.26405E+00  9.68427E-01  2.95623E-01
    9007.793      9.237   2.280  1.19736E+00  9.75584E-01  2.21776E-01
    9008.494      9.938   2.320  1.11605E+00  9.82202E-01  1.33844E-01
    9009.207     10.651   2.360  1.03328E+00  9.88242E-01  4.50397E-02
    9009.932     11.377   2.400  9.54300E-01  9.93751E-01 -3.94510E-02
    9010.670     12.114   2.440  9.00026E-01  9.98733E-01 -9.87070E-02
    9011.420     12.864   2.480  8.81190E-01  1.00319E+00 -1.22004E-01
    9012.182     13.626   2.520  8.82707E-01  1.00714E+00 -1.24433E-01
    9012.956     14.400   2.560  8.97804E-01  1.01060E+00 -1.12797E-01
    9013.742     15.187   2.600  9.31243E-01  1.01358E+00 -8.23418E-02
    9014.541     15.985   2.640  9.64680E-01  1.01612E+00 -5.14400E-02
    9015.352     16.796   2.680  9.87247E-01  1.01822E+00 -3.09681E-02
    9016.174     17.619   2.720  9.97514E-01  1.01988E+00 -2.23691E-02
    9017.010     18.454   2.760  1.00006E+00  1.02117E+00 -2.11113E-02
    9017.857     19.301   2.800  9.99520E-01  1.02210E+00 -2.25792E-02
    9018.716     20.161   2.840  9.97494E-01  1.02265E+00 -2.51528E-02
    9019.588     21.033   2.880  9.93417E-01  1.02289E+00 -2.94737E-02
    9020.472     21.917   2.920  9.86358E-01  1.02282E+00 -3.64624E-02
    9021.368     22.813   2.960  9.76071E-01  1.02247E+00 -4.63976E-02
    9022.277     23.721   3.000  9.63155E-01  1.02184E+00 -5.86897E-02
    9023.197     24.642   3.040  9.49264E-01  1.02100E+00 -7.17372E-02
    9024.130     25.574   3.080  9.36609E-01  1.01993E+00 -8.33191E-02
    9025.075     26.519   3.120  9.26844E-01  1.01866E+00 -9.18124E-02
    9026.032     27.476   3.160  9.20257E-01  1.01722E+00 -9.69602E-02
    9027.001     28.445   3.200  9.16252E-01  1.01562E+00 -9.93657E-02
    9027.982     29.427   3.240  9.13820E-01  1.01389E+00 -1.00070E-01
    9028.976     30.421   3.280  9.11796E-01  1.01204E+00 -1.00247E-01
    9029.982     31.426   3.320  9.09511E-01  1.01008E+00 -1.00573E-01
    9031.000     32.444   3.360  9.06963E-01  1.00804E+00 -1.01079E-01
    9032.030     33.475   3.400  9.04608E-01  1.00595E+00 -1.01339E-01
    9033.073     34.517   3.440  9.03271E-01  1.00378E+00 -1.00514E-01
    9034.127     35.572   3.480  9.03974E-01  1.00160E+00 -9.76289E-02
    9035.194     36.638   3.520  9.07545E-01  9.99389E-01 -9.18438E-02
    9036.273     37.717   3.560  9.14390E-01  9.97149E-01 -8.27586E-02
    9037.364     38.809   3.600  9.24810E-01  9.94931E-01 -7.01211E-02
    9038.467     39.912   3.640  9.38721E-01  9.92741E-01 -5.40200E-02
    9039.583     41.027   3.680  9.55396E-01  9.90561E-01 -3.51652E-02
    9040.711     42.155   3.720  9.73520E-01  9.88417E-01 -1.48977E-02
    9041.851     43.295   3.760  9.91565E-01  9.86315E-01  5.24999E-03
    9043.003     44.447   3.800  1.00835E+00  9.84257E-01  2.40951E-02
    9044.167     45.612   3.840  1.02372E+00  9.82270E-01  4.14520E-02
    9045.344     46.788   3.880  1.03835E+00  9.80357E-01  5.79911E-02
    9046.532     47.977   3.920  1.05299E+00  9.78521E-01  7.44690E-02
    9047.733     49.178   3.960  1.06775E+00  9.76764E-01  9.09819E-02
    9048.946     50.391   4.000  1.08181E+00  9.75087E-01  1.06722E-01
    9050.172     51.616   4.040  1.09354E+00  9.73494E-01  1.20050E-01
    9051.409     52.854   4.080  1.10093E+00  9.71984E-01  1.28943E-01
    9052.659     54.103   4.120  1.10256E+00  9.70582E-01  1.31979E-01
    9053.921     55.365   4.160  1.09864E+00  9.69292E-01  1.29353E-01
    9055.195     56.639   4.200  1.09123E+00  9.68092E-01  1.23139E-01
    9056.481     57.926   4.240  1.08334E+00  9.67002E-01  1.16341E-01
    9057.779     59.224   4.280  1.07699E+00  9.66001E-01  1.10987E-01
    9059.090     60.535   4.320  1.07159E+00  9.65113E-01  1.06476E-01
    9060.413     61.857   4.360  1.06392E+00  9.64336E-01  9.95822E-02
    9061.748     63.192   4.400  1.04994E+00  9.63651E-01  8.62898E-02
    9063.095     64.540   4.440  1.02748E+00  9.63079E-01  6.43962E-02
    9064.455     65.899   4.480  9.97701E-01  9.62618E-01  3.50826E-02
    9065.826     67.271   4.520  9.64634E-01  9.62247E-01  2.38700E-03
    9067.210     68.654   4.560  9.33033E-01  9.61985E-01 -2.89527E-02
    9068.606     70.050   4.600  9.06471E-01  9.61812E-01 -5.53410E-02
    9070.014     71.459   4.640  8.86863E-01  9.61745E-01 -7.48822E-02
    9071.434     72.879   4.680  8.74495E-01  9.61763E-01 -8.72689E-02
    9072.867     74.312   4.720  8.68705E-01  9.61866E-01 -9.31608E-02
    9074.312     75.756   4.760  8.68667E-01  9.62071E-01 -9.34039E-02
    9075.769     77.213   4.800  8.73779E-01  9.62333E-01 -8.85536E-02
    9077.238     78.682   4.840  8.83758E-01  9.62671E-01 -7.89132E-02
    9078.719     80.164   4.880  8.98175E-01  9.63086E-01 -6.49112E-02
    9080.213     81.657   4.920  9.15973E-01  9.63578E-01 -4.76045E-02
    9081.718     83.163   4.960  9.35275E-01  9.64141E-01 -2.88659E-02
    9083.236     84.681   5.000  9.53344E-01  9.64752E-01 -1.14076E-02
    9084.766     86.211   5.040  9.67334E-01  9.65408E-01  1.92576E-03
    9086.309     87.753   5.080  9.75699E-01  9.66127E-01  9.57229E-03
    9087.863     89.308   5.120  9.78968E-01  9.66866E-01  1.21028E-02
    9089.430     90.874   5.160  9.79268E-01  9.67663E-01  1.16050E-02
    9091.009     92.453   5.200  9.78735E-01  9.68474E-01  1.02606E-02
    9092.600     94.044   5.240  9.78555E-01  9.69318E-01  9.23733E-03
    9094.203     95.647   5.280  9.78558E-01  9.70168E-01  8.39028E-03
    9095.818     97.263   5.320  9.77798E-01  9.71044E-01  6.75398E-03
    9097.446     98.890   5.360  9.75321E-01  9.71902E-01  3.41970E-03
    9099.086    100.530   5.400  9.70852E-01  9.72781E-01 -1.92915E-03
    9100.738    102.182   5.440  9.64701E-01  9.73658E-01 -8.95743E-03
    9102.402    103.847   5.480  9.57619E-01  9.74508E-01 -1.68888E-02
    9104.078    105.523   5.520  9.50558E-01  9.75349E-01 -2.47903E-02
    9105.767    107.211   5.560  9.44127E-01  9.76158E-01 -3.20314E-02
    9107.468    108.912   5.600  9.38288E-01  9.76955E-01 -3.86670E-02
    9109.181    110.625   5.640  9.32395E-01  9.77716E-01 -4.53207E-02
    9110.906    112.350   5.680  9.26072E-01  9.78434E-01 -5.23624E-02
    9112.643    114.088   5.720  9.19910E-01  9.79089E-01 -5.91793E-02
    9114.393    115.837   5.760  9.15499E-01  9.79723E-01 -6.42243E-02
    9116.155    117.599   5.800  9.14502E-01  9.80289E-01 -6.57875E-02
    9117.928    119.373   5.840  9.18098E-01  9.80806E-01 -6.27088E-02
    9119.715    121.159   5.880  9.26727E-01  9.81252E-01 -5.45249E-02
    9121.513    122.957   5.920  9.40331E-01  9.81644E-01 -4.13125E-02
    9123.323    124.768   5.960  9.58435E-01  9.81971E-01 -2.35362E-02
    9125.146    126.591   6.000  9.80811E-01  9.82159E-01 -1.34732E-03
