# # comment:                                                     FEFF 9.9.1  
# # Source:
# # Structure
# # Reduced
# # space
# # abc:
# # angles:
# # sites:
# # POT  SCF 100  7.0000   0, screened core-hole, AFOLP (folp(0)= 1.150)
# # Abs   Z=29 Rmt= 1.213 Rnm= 1.309 K  shell
# # Pot 1 Z=29 Rmt= 1.171 Rnm= 1.292
# # Pot 2 Z=14 Rmt= 1.003 Rnm= 1.228
# # Pot 3 Z=51 Rmt= 1.353 Rnm= 1.489
# # Pot 4 Z= 8 Rmt= 0.994 Rnm= 1.107
# # Gam_ch=1.729E+00 H-L exch Vi= 0.000E+00 Vr= 0.000E+00
# # Mu=-7.019E+00eV kf=2.210E+00 Vint=-1.492E+01eV Rs_int= 1.641
# FMS rfms= 9.0000
# # PATH  Rmax=-1.000,  Keep_limit= 0.00, Heap_limit 0.00  Pwcrit= 2.50%
#  S02=0.950  Temp=   0.00  Debye_temp=   0.00  Global_sig2= 0.00000
#  Energy zero shift, vr, vi    0.00000E+00   0.00000E+00
#  Curved wave amplitude ratio filter   4.000%
#     file         sig2 tot  cw amp ratio   deg  nlegs   reff  inp sig2
#     0/   0 paths used
#  xsedge+ 50, used to normalize mu           2.4410E-04
#  -----------------------------------------------------------------------
#  omega    e    k    mu    mu0     chi     @#
    8983.453    -10.829  -1.000  3.24644E-02  5.42167E-02 -2.17523E-02
    8983.752    -10.530  -0.960  3.38670E-02  5.81352E-02 -2.42682E-02
    8984.038    -10.243  -0.920  3.53486E-02  6.24860E-02 -2.71374E-02
    8984.312     -9.969  -0.880  3.69156E-02  6.73321E-02 -3.04165E-02
    8984.575     -9.707  -0.840  3.85755E-02  7.27470E-02 -3.41715E-02
    8984.824     -9.457  -0.800  4.03368E-02  7.88156E-02 -3.84788E-02
    8985.062     -9.219  -0.760  4.22089E-02  8.56355E-02 -4.34265E-02
    8985.288     -8.994  -0.720  4.42024E-02  9.33165E-02 -4.91141E-02
    8985.501     -8.780  -0.680  4.63283E-02  1.01980E-01 -5.56514E-02
    8985.702     -8.579  -0.640  4.85982E-02  1.11753E-01 -6.31545E-02
    8985.891     -8.390  -0.600  5.10223E-02  1.22761E-01 -7.17383E-02
    8986.068     -8.213  -0.560  5.36076E-02  1.35110E-01 -8.15024E-02
    8986.233     -8.049  -0.520  5.63545E-02  1.48864E-01 -9.25094E-02
    8986.385     -7.896  -0.480  5.92520E-02  1.64007E-01 -1.04755E-01
    8986.525     -7.756  -0.440  6.22728E-02  1.80407E-01 -1.18134E-01
    8986.653     -7.628  -0.400  6.53690E-02  1.97780E-01 -1.32411E-01
    8986.769     -7.512  -0.360  6.84711E-02  2.15680E-01 -1.47209E-01
    8986.873     -7.409  -0.320  7.14935E-02  2.33529E-01 -1.62035E-01
    8986.964     -7.317  -0.280  7.43453E-02  2.50682E-01 -1.76336E-01
    8987.043     -7.238  -0.240  7.69425E-02  2.66519E-01 -1.89577E-01
    8987.110     -7.171  -0.200  7.92184E-02  2.80521E-01 -2.01303E-01
    8987.165     -7.116  -0.160  8.11271E-02  2.92305E-01 -2.11178E-01
    8987.208     -7.074  -0.120  8.26410E-02  3.01624E-01 -2.18983E-01
    8987.238     -7.043  -0.080  8.37459E-02  3.08341E-01 -2.24595E-01
    8987.263     -7.019   0.000  8.46751E-02  3.13739E-01 -2.29064E-01
    8987.318     -6.964   0.120  8.67202E-02  3.25919E-01 -2.39198E-01
    8987.360     -6.921   0.160  8.82423E-02  3.35394E-01 -2.47151E-01
    8987.415     -6.866   0.200  9.01471E-02  3.47489E-01 -2.57342E-01
    8987.482     -6.799   0.240  9.24114E-02  3.62072E-01 -2.69661E-01
    8987.562     -6.720   0.280  9.50165E-02  3.78846E-01 -2.83829E-01
    8987.653     -6.629   0.320  9.79099E-02  3.97381E-01 -2.99471E-01
    8987.757     -6.525   0.360  1.01143E-01  4.17211E-01 -3.16068E-01
    8987.872     -6.409   0.400  1.04712E-01  4.37730E-01 -3.33018E-01
    8988.000     -6.281   0.440  1.08718E-01  4.58463E-01 -3.49745E-01
    8988.141     -6.141   0.480  1.13270E-01  4.79003E-01 -3.65733E-01
    8988.293     -5.988   0.520  1.18513E-01  4.99105E-01 -3.80592E-01
    8988.458     -5.824   0.560  1.24540E-01  5.18613E-01 -3.94073E-01
    8988.634     -5.647   0.600  1.31533E-01  5.37535E-01 -4.06002E-01
    8988.823     -5.458   0.640  1.39683E-01  5.55881E-01 -4.16198E-01
    8989.025     -5.257   0.680  1.49279E-01  5.73717E-01 -4.24438E-01
    8989.238     -5.044   0.720  1.60815E-01  5.91142E-01 -4.30326E-01
    8989.464     -4.818   0.760  1.74954E-01  6.08231E-01 -4.33277E-01
    8989.701     -4.580   0.800  1.92316E-01  6.25011E-01 -4.32695E-01
    8989.951     -4.330   0.840  2.13426E-01  6.41597E-01 -4.28171E-01
    8990.213     -4.068   0.880  2.38523E-01  6.57968E-01 -4.19444E-01
    8990.488     -3.794   0.920  2.68074E-01  6.74171E-01 -4.06097E-01
    8990.774     -3.507   0.960  3.02303E-01  6.90199E-01 -3.87896E-01
    8991.073     -3.209   1.000  3.40060E-01  7.06082E-01 -3.66021E-01
    8991.384     -2.898   1.040  3.77825E-01  7.21794E-01 -3.43968E-01
    8991.707     -2.575   1.080  4.11029E-01  7.37303E-01 -3.26274E-01
    8992.042     -2.239   1.120  4.36433E-01  7.52613E-01 -3.16180E-01
    8992.390     -1.892   1.160  4.52799E-01  7.67685E-01 -3.14886E-01
    8992.749     -1.532   1.200  4.60811E-01  7.82471E-01 -3.21660E-01
    8993.121     -1.160   1.240  4.63547E-01  7.96967E-01 -3.33420E-01
    8993.505     -0.776   1.280  4.66132E-01  8.11123E-01 -3.44991E-01
    8993.901     -0.380   1.320  4.73715E-01  8.24908E-01 -3.51193E-01
    8994.310      0.028   1.360  4.91226E-01  8.38314E-01 -3.47088E-01
    8994.730      0.449   1.400  5.21490E-01  8.51287E-01 -3.29798E-01
    8995.163      0.882   1.440  5.61491E-01  8.63800E-01 -3.02309E-01
    8995.608      1.327   1.480  6.04494E-01  8.75824E-01 -2.71329E-01
    8996.065      1.784   1.520  6.52213E-01  8.87369E-01 -2.35157E-01
    8996.535      2.253   1.560  7.14322E-01  8.98388E-01 -1.84065E-01
    8997.016      2.735   1.600  7.91328E-01  9.08856E-01 -1.17528E-01
    8997.510      3.229   1.640  8.71845E-01  9.18791E-01 -4.69459E-02
    8998.016      3.735   1.680  9.54793E-01  9.28167E-01  2.66259E-02
    8998.534      4.253   1.720  1.05647E+00  9.36986E-01  1.19485E-01
    8999.065      4.783   1.760  1.18222E+00  9.45248E-01  2.36974E-01
    8999.607      5.326   1.800  1.31251E+00  9.52955E-01  3.59555E-01
    9000.162      5.880   1.840  1.42548E+00  9.60110E-01  4.65368E-01
    9000.729      6.447   1.880  1.50135E+00  9.66719E-01  5.34630E-01
    9001.308      7.026   1.920  1.52791E+00  9.72789E-01  5.55120E-01
    9001.899      7.618   1.960  1.50320E+00  9.78344E-01  5.24853E-01
    9002.503      8.221   2.000  1.42894E+00  9.83395E-01  4.45542E-01
    9003.118      8.837   2.040  1.33770E+00  9.87950E-01  3.49748E-01
    9003.746      9.465   2.080  1.26665E+00  9.92041E-01  2.74606E-01
    9004.386     10.105   2.120  1.22609E+00  9.95677E-01  2.30409E-01
    9005.039     10.757   2.160  1.20897E+00  9.98889E-01  2.10080E-01
    9005.703     11.422   2.200  1.20873E+00  1.00169E+00  2.07038E-01
    9006.380     12.098   2.240  1.21982E+00  1.00411E+00  2.15711E-01
    9007.069     12.787   2.280  1.22719E+00  1.00618E+00  2.21006E-01
    9007.770     13.488   2.320  1.21660E+00  1.00790E+00  2.08696E-01
    9008.483     14.201   2.360  1.18749E+00  1.00931E+00  1.78173E-01
    9009.208     14.927   2.400  1.15037E+00  1.01043E+00  1.39939E-01
    9009.946     15.664   2.440  1.11539E+00  1.01127E+00  1.04115E-01
    9010.696     16.414   2.480  1.08757E+00  1.01189E+00  7.56866E-02
    9011.458     17.176   2.520  1.07215E+00  1.01226E+00  5.98899E-02
    9012.232     17.950   2.560  1.06512E+00  1.01242E+00  5.26992E-02
    9013.018     18.737   2.600  1.05665E+00  1.01239E+00  4.42576E-02
    9013.817     19.535   2.640  1.04636E+00  1.01221E+00  3.41478E-02
    9014.628     20.346   2.680  1.03693E+00  1.01188E+00  2.50531E-02
    9015.451     21.169   2.720  1.02704E+00  1.01144E+00  1.56078E-02
    9016.286     22.004   2.760  1.01545E+00  1.01086E+00  4.58970E-03
    9017.133     22.852   2.800  1.00200E+00  1.01021E+00 -8.20529E-03
    9017.993     23.711   2.840  9.86980E-01  1.00945E+00 -2.24731E-02
    9018.864     24.583   2.880  9.70788E-01  1.00865E+00 -3.78570E-02
    9019.748     25.467   2.920  9.53557E-01  1.00779E+00 -5.42323E-02
    9020.644     26.363   2.960  9.35890E-01  1.00689E+00 -7.10033E-02
    9021.553     27.271   3.000  9.18529E-01  1.00596E+00 -8.74320E-02
    9022.473     28.192   3.040  9.02257E-01  1.00502E+00 -1.02764E-01
    9023.406     29.124   3.080  8.88162E-01  1.00407E+00 -1.15913E-01
    9024.351     30.069   3.120  8.77081E-01  1.00313E+00 -1.26048E-01
    9025.308     31.026   3.160  8.69198E-01  1.00219E+00 -1.32991E-01
    9026.277     31.996   3.200  8.64074E-01  1.00128E+00 -1.37205E-01
    9027.259     32.977   3.240  8.61303E-01  1.00040E+00 -1.39099E-01
    9028.252     33.971   3.280  8.60357E-01  9.99541E-01 -1.39185E-01
    9029.258     34.977   3.320  8.61242E-01  9.98740E-01 -1.37498E-01
    9030.276     35.995   3.360  8.64065E-01  9.97960E-01 -1.33895E-01
    9031.306     37.025   3.400  8.68887E-01  9.97247E-01 -1.28360E-01
    9032.349     38.067   3.440  8.75549E-01  9.96601E-01 -1.21052E-01
    9033.403     39.122   3.480  8.83806E-01  9.96003E-01 -1.12197E-01
    9034.470     40.189   3.520  8.93460E-01  9.95454E-01 -1.01995E-01
    9035.549     41.268   3.560  9.04111E-01  9.94976E-01 -9.08653E-02
    9036.640     42.359   3.600  9.15581E-01  9.94549E-01 -7.89678E-02
    9037.744     43.462   3.640  9.27828E-01  9.94194E-01 -6.63662E-02
    9038.859     44.578   3.680  9.40819E-01  9.93914E-01 -5.30953E-02
    9039.987     45.705   3.720  9.54541E-01  9.93687E-01 -3.91462E-02
    9041.127     46.845   3.760  9.69054E-01  9.93534E-01 -2.44808E-02
    9042.279     47.998   3.800  9.84250E-01  9.93456E-01 -9.20577E-03
    9043.443     49.162   3.840  9.99779E-01  9.93430E-01  6.34822E-03
    9044.620     50.338   3.880  1.01519E+00  9.93498E-01  2.16917E-02
    9045.809     51.527   3.920  1.02970E+00  9.93596E-01  3.61074E-02
    9047.010     52.728   3.960  1.04240E+00  9.93765E-01  4.86304E-02
    9048.223     53.941   4.000  1.05247E+00  9.94006E-01  5.84667E-02
    9049.448     55.166   4.040  1.05946E+00  9.94295E-01  6.51621E-02
    9050.685     56.404   4.080  1.06335E+00  9.94630E-01  6.87228E-02
    9051.935     57.654   4.120  1.06461E+00  9.95033E-01  6.95758E-02
    9053.197     58.915   4.160  1.06387E+00  9.95482E-01  6.83831E-02
    9054.471     60.189   4.200  1.06182E+00  9.95974E-01  6.58455E-02
    9055.757     61.476   4.240  1.05916E+00  9.96529E-01  6.26272E-02
    9057.056     62.774   4.280  1.05649E+00  9.97101E-01  5.93862E-02
    9058.366     64.085   4.320  1.05430E+00  9.97712E-01  5.65895E-02
    9059.689     65.408   4.360  1.05285E+00  9.98358E-01  5.44880E-02
    9061.024     66.743   4.400  1.05222E+00  9.99039E-01  5.31767E-02
    9062.371     68.090   4.440  1.05235E+00  9.99730E-01  5.26161E-02
    9063.731     69.449   4.480  1.05305E+00  1.00045E+00  5.26013E-02
    9065.102     70.821   4.520  1.05392E+00  1.00118E+00  5.27396E-02
    9066.486     72.205   4.560  1.05446E+00  1.00191E+00  5.25471E-02
    9067.882     73.601   4.600  1.05412E+00  1.00267E+00  5.14548E-02
    9069.290     75.009   4.640  1.05238E+00  1.00343E+00  4.89588E-02
    9070.711     76.429   4.680  1.04888E+00  1.00416E+00  4.47216E-02
    9072.143     77.862   4.720  1.04357E+00  1.00492E+00  3.86538E-02
    9073.588     79.306   4.760  1.03671E+00  1.00567E+00  3.10395E-02
    9075.045     80.763   4.800  1.02896E+00  1.00639E+00  2.25746E-02
    9076.514     82.233   4.840  1.02121E+00  1.00708E+00  1.41282E-02
    9077.995     83.714   4.880  1.01427E+00  1.00778E+00  6.48837E-03
    9079.489     85.207   4.920  1.00855E+00  1.00843E+00  1.25711E-04
    9080.995     86.713   4.960  1.00415E+00  1.00906E+00 -4.91455E-03
    9082.512     88.231   5.000  1.00075E+00  1.00968E+00 -8.93190E-03
    9084.043     89.761   5.040  9.97806E-01  1.01024E+00 -1.24358E-02
    9085.585     91.303   5.080  9.94944E-01  1.01078E+00 -1.58391E-02
    9087.139     92.858   5.120  9.91990E-01  1.01126E+00 -1.92702E-02
    9088.706     94.424   5.160  9.89063E-01  1.01172E+00 -2.26553E-02
    9090.285     96.003   5.200  9.86215E-01  1.01211E+00 -2.58974E-02
    9091.876     97.594   5.240  9.83486E-01  1.01248E+00 -2.89981E-02
    9093.479     99.198   5.280  9.80926E-01  1.01279E+00 -3.18633E-02
    9095.095    100.813   5.320  9.78876E-01  1.01305E+00 -3.41727E-02
    9096.722    102.441   5.360  9.77813E-01  1.01326E+00 -3.54492E-02
    9098.362    104.080   5.400  9.78061E-01  1.01341E+00 -3.53480E-02
    9100.014    105.732   5.440  9.79693E-01  1.01353E+00 -3.38373E-02
    9101.678    107.397   5.480  9.82289E-01  1.01358E+00 -3.12937E-02
    9103.355    109.073   5.520  9.85160E-01  1.01357E+00 -2.84066E-02
    9105.043    110.762   5.560  9.87570E-01  1.01353E+00 -2.59562E-02
    9106.744    112.462   5.600  9.88955E-01  1.01342E+00 -2.44617E-02
    9108.457    114.175   5.640  9.89265E-01  1.01326E+00 -2.39961E-02
    9110.182    115.901   5.680  9.88820E-01  1.01304E+00 -2.42177E-02
    9111.919    117.638   5.720  9.88193E-01  1.01279E+00 -2.46003E-02
    9113.669    119.387   5.760  9.87873E-01  1.01248E+00 -2.46103E-02
    9115.431    121.149   5.800  9.88345E-01  1.01213E+00 -2.37859E-02
    9117.205    122.923   5.840  9.89959E-01  1.01174E+00 -2.17795E-02
    9118.991    124.709   5.880  9.92720E-01  1.01131E+00 -1.85893E-02
    9120.789    126.508   5.920  9.96095E-01  1.01084E+00 -1.47491E-02
    9122.600    128.318   5.960  9.99137E-01  1.01034E+00 -1.12064E-02
    9124.422    130.141   6.000  1.00092E+00  1.00978E+00 -8.85321E-03
