# # comment:                                                     FEFF 9.9.1  
# # Source:
# # Structure
# # Reduced
# # space
# # abc:
# # angles:109.471221
# # sites:
# # POT  SCF 100  7.0000   0, screened core-hole, AFOLP (folp(0)= 1.150)
# # Abs   Z=29 Rmt= 1.167 Rnm= 1.273 K  shell
# # Pot 1 Z=68 Rmt= 1.692 Rnm= 1.737
# # Pot 2 Z=26 Rmt= 1.297 Rnm= 1.399
# # Pot 3 Z=29 Rmt= 1.167 Rnm= 1.273
# # Pot 4 Z= 8 Rmt= 1.029 Rnm= 1.101
# # Gam_ch=1.729E+00 H-L exch Vi= 0.000E+00 Vr= 0.000E+00
# # Mu=-1.008E+01eV kf=2.170E+00 Vint=-1.760E+01eV Rs_int= 1.671
# FMS rfms= 9.0000
# # PATH  Rmax=-1.000,  Keep_limit= 0.00, Heap_limit 0.00  Pwcrit= 2.50%
#  S02=0.950  Temp=   0.00  Debye_temp=   0.00  Global_sig2= 0.00000
#  Energy zero shift, vr, vi    0.00000E+00   0.00000E+00
#  Curved wave amplitude ratio filter   4.000%
#     file         sig2 tot  cw amp ratio   deg  nlegs   reff  inp sig2
#     0/   0 paths used
#  xsedge+ 50, used to normalize mu           2.4710E-04
#  -----------------------------------------------------------------------
#  omega    e    k    mu    mu0     chi     @#
    8984.362    -13.889  -1.000  3.27000E-02  5.10959E-02 -1.83958E-02
    8984.660    -13.590  -0.960  3.41950E-02  5.46857E-02 -2.04907E-02
    8984.947    -13.304  -0.920  3.57810E-02  5.86629E-02 -2.28819E-02
    8985.221    -13.029  -0.880  3.74654E-02  6.30833E-02 -2.56179E-02
    8985.483    -12.767  -0.840  3.92562E-02  6.80117E-02 -2.87555E-02
    8985.733    -12.517  -0.800  4.11622E-02  7.35232E-02 -3.23610E-02
    8985.971    -12.279  -0.760  4.31929E-02  7.97039E-02 -3.65110E-02
    8986.197    -12.054  -0.720  4.53581E-02  8.66506E-02 -4.12924E-02
    8986.410    -11.841  -0.680  4.76681E-02  9.44698E-02 -4.68017E-02
    8986.611    -11.639  -0.640  5.01323E-02  1.03274E-01 -5.31415E-02
    8986.800    -11.450  -0.600  5.27586E-02  1.13172E-01 -6.04137E-02
    8986.977    -11.274  -0.560  5.55514E-02  1.24259E-01 -6.87072E-02
    8987.142    -11.109  -0.520  5.85091E-02  1.36587E-01 -7.80782E-02
    8987.294    -10.957  -0.480  6.16205E-02  1.50144E-01 -8.85234E-02
    8987.434    -10.816  -0.440  6.48611E-02  1.64810E-01 -9.99489E-02
    8987.562    -10.688  -0.400  6.81900E-02  1.80334E-01 -1.12144E-01
    8987.678    -10.573  -0.360  7.15482E-02  1.96320E-01 -1.24772E-01
    8987.782    -10.469  -0.320  7.48611E-02  2.12255E-01 -1.37394E-01
    8987.873    -10.378  -0.280  7.80442E-02  2.27569E-01 -1.49525E-01
    8987.952    -10.298  -0.240  8.10103E-02  2.41712E-01 -1.60701E-01
    8988.019    -10.231  -0.200  8.36771E-02  2.54219E-01 -1.70542E-01
    8988.074    -10.176  -0.160  8.59708E-02  2.64750E-01 -1.78779E-01
    8988.117    -10.134  -0.120  8.78286E-02  2.73082E-01 -1.85253E-01
    8988.147    -10.103  -0.080  8.91998E-02  2.79089E-01 -1.89889E-01
    8988.172    -10.079   0.000  9.03396E-02  2.83919E-01 -1.93579E-01
    8988.227    -10.024   0.120  9.30671E-02  2.94833E-01 -2.01766E-01
    8988.269     -9.981   0.160  9.51574E-02  3.03309E-01 -2.08151E-01
    8988.324     -9.926   0.200  9.79165E-02  3.14162E-01 -2.16245E-01
    8988.391     -9.859   0.240  1.01378E-01  3.27262E-01 -2.25884E-01
    8988.470     -9.780   0.280  1.05585E-01  3.42354E-01 -2.36769E-01
    8988.562     -9.689   0.320  1.10576E-01  3.59066E-01 -2.48490E-01
    8988.665     -9.585   0.360  1.16464E-01  3.77000E-01 -2.60536E-01
    8988.781     -9.469   0.400  1.23244E-01  3.95665E-01 -2.72422E-01
    8988.909     -9.341   0.440  1.30859E-01  4.14592E-01 -2.83733E-01
    8989.050     -9.201   0.480  1.39161E-01  4.33488E-01 -2.94327E-01
    8989.202     -9.049   0.520  1.47770E-01  4.52101E-01 -3.04331E-01
    8989.367     -8.884   0.560  1.56186E-01  4.70334E-01 -3.14149E-01
    8989.543     -8.707   0.600  1.63967E-01  4.88157E-01 -3.24190E-01
    8989.732     -8.518   0.640  1.70840E-01  5.05618E-01 -3.34778E-01
    8989.933     -8.317   0.680  1.76693E-01  5.22792E-01 -3.46099E-01
    8990.147     -8.104   0.720  1.81490E-01  5.39706E-01 -3.58216E-01
    8990.372     -7.878   0.760  1.85758E-01  5.56466E-01 -3.70708E-01
    8990.610     -7.640   0.800  1.90991E-01  5.73127E-01 -3.82136E-01
    8990.860     -7.391   0.840  1.99731E-01  5.89714E-01 -3.89984E-01
    8991.122     -7.128   0.880  2.15081E-01  6.06260E-01 -3.91178E-01
    8991.396     -6.854   0.920  2.40382E-01  6.22804E-01 -3.82422E-01
    8991.683     -6.568   0.960  2.79653E-01  6.39357E-01 -3.59704E-01
    8991.982     -6.269   1.000  3.37479E-01  6.55878E-01 -3.18399E-01
    8992.293     -5.958   1.040  4.15340E-01  6.72380E-01 -2.57040E-01
    8992.616     -5.635   1.080  5.01665E-01  6.88828E-01 -1.87163E-01
    8992.951     -5.300   1.120  5.73133E-01  7.05202E-01 -1.32069E-01
    8993.298     -4.952   1.160  6.29102E-01  7.21496E-01 -9.23949E-02
    8993.658     -4.592   1.200  6.98361E-01  7.37623E-01 -3.92625E-02
    8994.030     -4.221   1.240  7.79411E-01  7.53591E-01  2.58199E-02
    8994.414     -3.837   1.280  8.07947E-01  7.69327E-01  3.86195E-02
    8994.810     -3.440   1.320  7.41257E-01  7.84817E-01 -4.35594E-02
    8995.219     -3.032   1.360  6.30974E-01  8.00004E-01 -1.69029E-01
    8995.639     -2.611   1.400  5.43556E-01  8.14853E-01 -2.71297E-01
    8996.072     -2.178   1.440  4.99014E-01  8.29328E-01 -3.30314E-01
    8996.517     -1.733   1.480  4.88868E-01  8.43396E-01 -3.54527E-01
    8996.974     -1.276   1.520  4.96671E-01  8.57020E-01 -3.60349E-01
    8997.444     -0.807   1.560  5.11581E-01  8.70167E-01 -3.58586E-01
    8997.925     -0.325   1.600  5.40541E-01  8.82807E-01 -3.42266E-01
    8998.419      0.168   1.640  5.87539E-01  8.94951E-01 -3.07412E-01
    8998.925      0.674   1.680  6.45026E-01  9.06526E-01 -2.61500E-01
    8999.443      1.193   1.720  7.11640E-01  9.17547E-01 -2.05907E-01
    8999.974      1.723   1.760  7.85729E-01  9.27987E-01 -1.42258E-01
    9000.516      2.265   1.800  8.57848E-01  9.37843E-01 -7.99953E-02
    9001.071      2.820   1.840  9.22879E-01  9.47115E-01 -2.42362E-02
    9001.638      3.387   1.880  9.64735E-01  9.55800E-01  8.93519E-03
    9002.217      3.966   1.920  9.78407E-01  9.63881E-01  1.45266E-02
    9002.808      4.558   1.960  9.99588E-01  9.71381E-01  2.82078E-02
    9003.412      5.161   2.000  1.05595E+00  9.78322E-01  7.76239E-02
    9004.027      5.777   2.040  1.12734E+00  9.84671E-01  1.42674E-01
    9004.655      6.405   2.080  1.18047E+00  9.90477E-01  1.89994E-01
    9005.295      7.045   2.120  1.22256E+00  9.95743E-01  2.26814E-01
    9005.948      7.697   2.160  1.27182E+00  1.00048E+00  2.71344E-01
    9006.612      8.361   2.200  1.34232E+00  1.00470E+00  3.37623E-01
    9007.289      9.038   2.240  1.43687E+00  1.00845E+00  4.28421E-01
    9007.978      9.727   2.280  1.51425E+00  1.01174E+00  5.02511E-01
    9008.679     10.428   2.320  1.53044E+00  1.01457E+00  5.15869E-01
    9009.392     11.141   2.360  1.49377E+00  1.01700E+00  4.76770E-01
    9010.117     11.867   2.400  1.42995E+00  1.01900E+00  4.10946E-01
    9010.855     12.604   2.440  1.35666E+00  1.02066E+00  3.36001E-01
    9011.605     13.354   2.480  1.28696E+00  1.02196E+00  2.65007E-01
    9012.367     14.116   2.520  1.23185E+00  1.02293E+00  2.08921E-01
    9013.141     14.890   2.560  1.19273E+00  1.02360E+00  1.69131E-01
    9013.927     15.677   2.600  1.16119E+00  1.02399E+00  1.37200E-01
    9014.726     16.475   2.640  1.12770E+00  1.02413E+00  1.03567E-01
    9015.537     17.286   2.680  1.08804E+00  1.02400E+00  6.40338E-02
    9016.360     18.109   2.720  1.05120E+00  1.02369E+00  2.75062E-02
    9017.195     18.944   2.760  1.02323E+00  1.02317E+00  5.60560E-05
    9018.042     19.791   2.800  1.00532E+00  1.02247E+00 -1.71497E-02
    9018.902     20.651   2.840  9.95270E-01  1.02162E+00 -2.63544E-02
    9019.773     21.523   2.880  9.87843E-01  1.02065E+00 -3.28058E-02
    9020.657     22.407   2.920  9.78371E-01  1.01953E+00 -4.11586E-02
    9021.553     23.303   2.960  9.64655E-01  1.01832E+00 -5.36621E-02
    9022.462     24.211   3.000  9.46864E-01  1.01702E+00 -7.01547E-02
    9023.382     25.131   3.040  9.26913E-01  1.01564E+00 -8.87287E-02
    9024.315     26.064   3.080  9.08013E-01  1.01422E+00 -1.06203E-01
    9025.260     27.009   3.120  8.92906E-01  1.01274E+00 -1.19838E-01
    9026.217     27.966   3.160  8.82655E-01  1.01124E+00 -1.28580E-01
    9027.186     28.935   3.200  8.77287E-01  1.00969E+00 -1.32406E-01
    9028.167     29.917   3.240  8.75892E-01  1.00814E+00 -1.32252E-01
    9029.161     30.910   3.280  8.76733E-01  1.00661E+00 -1.29882E-01
    9030.167     31.916   3.320  8.78319E-01  1.00507E+00 -1.26748E-01
    9031.185     32.934   3.360  8.79911E-01  1.00355E+00 -1.23635E-01
    9032.215     33.965   3.400  8.80990E-01  1.00204E+00 -1.21046E-01
    9033.258     35.007   3.440  8.81242E-01  1.00058E+00 -1.19342E-01
    9034.312     36.062   3.480  8.80659E-01  9.99147E-01 -1.18488E-01
    9035.379     37.128   3.520  8.79831E-01  9.97752E-01 -1.17920E-01
    9036.458     38.207   3.560  8.79829E-01  9.96422E-01 -1.16594E-01
    9037.549     39.299   3.600  8.81976E-01  9.95140E-01 -1.13163E-01
    9038.652     40.402   3.640  8.87361E-01  9.93926E-01 -1.06565E-01
    9039.768     41.517   3.680  8.96310E-01  9.92762E-01 -9.64511E-02
    9040.896     42.645   3.720  9.08436E-01  9.91670E-01 -8.32336E-02
    9042.036     43.785   3.760  9.22898E-01  9.90630E-01 -6.77326E-02
    9043.188     44.937   3.800  9.38539E-01  9.89665E-01 -5.11261E-02
    9044.352     46.102   3.840  9.53943E-01  9.88776E-01 -3.48325E-02
    9045.529     47.278   3.880  9.67686E-01  9.87965E-01 -2.02787E-02
    9046.717     48.467   3.920  9.78552E-01  9.87229E-01 -8.67747E-03
    9047.918     49.668   3.960  9.85830E-01  9.86550E-01 -7.19763E-04
    9049.131     50.881   4.000  9.89778E-01  9.85969E-01  3.80859E-03
    9050.357     52.106   4.040  9.91636E-01  9.85445E-01  6.19160E-03
    9051.594     53.344   4.080  9.93459E-01  9.84998E-01  8.46162E-03
    9052.844     54.593   4.120  9.97278E-01  9.84627E-01  1.26505E-02
    9054.106     55.855   4.160  1.00436E+00  9.84336E-01  2.00220E-02
    9055.380     57.129   4.200  1.01450E+00  9.84121E-01  3.03802E-02
    9056.666     58.416   4.240  1.02612E+00  9.83980E-01  4.21364E-02
    9057.965     59.714   4.280  1.03712E+00  9.83892E-01  5.32321E-02
    9059.275     61.025   4.320  1.04603E+00  9.83854E-01  6.21803E-02
    9060.598     62.347   4.360  1.05237E+00  9.83910E-01  6.84619E-02
    9061.933     63.682   4.400  1.05616E+00  9.84016E-01  7.21414E-02
    9063.280     65.030   4.440  1.05728E+00  9.84171E-01  7.31043E-02
    9064.640     66.389   4.480  1.05518E+00  9.84395E-01  7.07812E-02
    9066.011     67.761   4.520  1.04968E+00  9.84662E-01  6.50221E-02
    9067.395     69.144   4.560  1.04203E+00  9.84975E-01  5.70583E-02
    9068.791     70.540   4.600  1.03460E+00  9.85355E-01  4.92494E-02
    9070.199     71.949   4.640  1.02973E+00  9.85774E-01  4.39518E-02
    9071.620     73.369   4.680  1.02872E+00  9.86211E-01  4.25052E-02
    9073.052     74.801   4.720  1.03156E+00  9.86707E-01  4.48533E-02
    9074.497     76.246   4.760  1.03720E+00  9.87216E-01  4.99844E-02
    9075.954     77.703   4.800  1.04432E+00  9.87759E-01  5.65635E-02
    9077.423     79.172   4.840  1.05159E+00  9.88315E-01  6.32765E-02
    9078.904     80.654   4.880  1.05765E+00  9.88922E-01  6.87279E-02
    9080.398     82.147   4.920  1.06082E+00  9.89514E-01  7.13075E-02
    9081.903     83.653   4.960  1.05992E+00  9.90133E-01  6.97868E-02
    9083.421     85.171   5.000  1.05498E+00  9.90755E-01  6.42224E-02
    9084.951     86.701   5.040  1.04731E+00  9.91378E-01  5.59354E-02
    9086.494     88.243   5.080  1.03859E+00  9.92000E-01  4.65882E-02
    9088.048     89.798   5.120  1.02979E+00  9.92621E-01  3.71650E-02
    9089.615     91.364   5.160  1.02074E+00  9.93236E-01  2.75032E-02
    9091.194     92.943   5.200  1.01037E+00  9.93826E-01  1.65408E-02
    9092.785     94.534   5.240  9.97551E-01  9.94430E-01  3.12108E-03
    9094.388     96.137   5.280  9.81875E-01  9.94982E-01 -1.31075E-02
    9096.003     97.753   5.320  9.64204E-01  9.95545E-01 -3.13407E-02
    9097.631     99.380   5.360  9.46067E-01  9.96053E-01 -4.99863E-02
    9099.271    101.020   5.400  9.29304E-01  9.96549E-01 -6.72458E-02
    9100.923    102.672   5.440  9.15541E-01  9.97032E-01 -8.14904E-02
    9102.587    104.336   5.480  9.06056E-01  9.97454E-01 -9.13986E-02
    9104.263    106.013   5.520  9.01711E-01  9.97859E-01 -9.61475E-02
    9105.952    107.701   5.560  9.02628E-01  9.98202E-01 -9.55747E-02
    9107.653    109.402   5.600  9.08477E-01  9.98526E-01 -9.00495E-02
    9109.366    111.115   5.640  9.18513E-01  9.98787E-01 -8.02740E-02
    9111.091    112.840   5.680  9.32024E-01  9.99028E-01 -6.70046E-02
    9112.828    114.578   5.720  9.48215E-01  9.99204E-01 -5.09886E-02
    9114.578    116.327   5.760  9.66298E-01  9.99336E-01 -3.30381E-02
    9116.340    118.089   5.800  9.85141E-01  9.99426E-01 -1.42851E-02
    9118.114    119.863   5.840  1.00322E+00  9.99474E-01  3.74457E-03
    9119.900    121.649   5.880  1.01864E+00  9.99479E-01  1.91653E-02
    9121.698    123.447   5.920  1.02958E+00  9.99413E-01  3.01627E-02
    9123.508    125.258   5.960  1.03481E+00  9.99297E-01  3.55102E-02
    9125.331    127.081   6.000  1.03364E+00  9.99104E-01  3.45358E-02
