# # comment:                                                     FEFF 9.9.1  
# # Source:
# # Structure
# # Reduced
# # space
# # abc:
# # angles:
# # sites:
# # POT  SCF 100  7.0000   0, screened core-hole, AFOLP (folp(0)= 1.150)
# # Abs   Z=29 Rmt= 1.139 Rnm= 1.278 K  shell
# # Pot 1 Z=29 Rmt= 1.132 Rnm= 1.275
# # Pot 2 Z=52 Rmt= 1.325 Rnm= 1.526
# # Pot 3 Z=16 Rmt= 0.848 Rnm= 1.104
# # Pot 4 Z= 8 Rmt= 0.972 Rnm= 1.125
# # Gam_ch=1.729E+00 H-L exch Vi= 0.000E+00 Vr= 0.000E+00
# # Mu=-6.774E+00eV kf=2.237E+00 Vint=-1.437E+01eV Rs_int= 1.621
# FMS rfms= 9.0000
# # PATH  Rmax=-1.000,  Keep_limit= 0.00, Heap_limit 0.00  Pwcrit= 2.50%
#  S02=0.950  Temp=   0.00  Debye_temp=   0.00  Global_sig2= 0.00000
#  Energy zero shift, vr, vi    0.00000E+00   0.00000E+00
#  Curved wave amplitude ratio filter   4.000%
#     file         sig2 tot  cw amp ratio   deg  nlegs   reff  inp sig2
#     0/   0 paths used
#  xsedge+ 50, used to normalize mu           2.4232E-04
#  -----------------------------------------------------------------------
#  omega    e    k    mu    mu0     chi     @#
    8983.404    -10.584  -1.000  3.38034E-02  5.66985E-02 -2.28951E-02
    8983.703    -10.285  -0.960  3.53305E-02  6.08190E-02 -2.54885E-02
    8983.989     -9.999  -0.920  3.69499E-02  6.53939E-02 -2.84440E-02
    8984.263     -9.724  -0.880  3.86696E-02  7.04892E-02 -3.18196E-02
    8984.526     -9.462  -0.840  4.04987E-02  7.61820E-02 -3.56833E-02
    8984.775     -9.212  -0.800  4.24474E-02  8.25612E-02 -4.01138E-02
    8985.013     -8.974  -0.760  4.45270E-02  8.97288E-02 -4.52018E-02
    8985.239     -8.749  -0.720  4.67501E-02  9.78000E-02 -5.10499E-02
    8985.452     -8.536  -0.680  4.91300E-02  1.06901E-01 -5.77713E-02
    8985.653     -8.334  -0.640  5.16800E-02  1.17166E-01 -6.54860E-02
    8985.842     -8.145  -0.600  5.44124E-02  1.28725E-01 -7.43127E-02
    8986.019     -7.969  -0.560  5.73354E-02  1.41690E-01 -8.43543E-02
    8986.184     -7.804  -0.520  6.04500E-02  1.56125E-01 -9.56753E-02
    8986.336     -7.652  -0.480  6.37450E-02  1.72016E-01 -1.08271E-01
    8986.476     -7.511  -0.440  6.71908E-02  1.89223E-01 -1.22032E-01
    8986.604     -7.383  -0.400  7.07350E-02  2.07449E-01 -1.36714E-01
    8986.720     -7.268  -0.360  7.43014E-02  2.26227E-01 -1.51925E-01
    8986.824     -7.164  -0.320  7.77942E-02  2.44951E-01 -1.67157E-01
    8986.915     -7.072  -0.280  8.11095E-02  2.62947E-01 -1.81838E-01
    8986.994     -6.993  -0.240  8.41482E-02  2.79566E-01 -1.95418E-01
    8987.061     -6.926  -0.200  8.68279E-02  2.94262E-01 -2.07434E-01
    8987.116     -6.871  -0.160  8.90879E-02  3.06633E-01 -2.17545E-01
    8987.159     -6.829  -0.120  9.08881E-02  3.16418E-01 -2.25530E-01
    8987.189     -6.798  -0.080  9.22034E-02  3.23473E-01 -2.31270E-01
    8987.214     -6.774   0.000  9.33003E-02  3.29145E-01 -2.35844E-01
    8987.269     -6.719   0.120  9.57264E-02  3.41938E-01 -2.46212E-01
    8987.311     -6.676   0.160  9.75487E-02  3.51889E-01 -2.54340E-01
    8987.366     -6.621   0.200  9.98615E-02  3.64603E-01 -2.64741E-01
    8987.433     -6.554   0.240  1.02652E-01  3.79944E-01 -2.77292E-01
    8987.513     -6.475   0.280  1.05881E-01  3.97607E-01 -2.91725E-01
    8987.604     -6.384   0.320  1.09506E-01  4.17149E-01 -3.07643E-01
    8987.708     -6.280   0.360  1.13541E-01  4.38046E-01 -3.24505E-01
    8987.823     -6.164   0.400  1.18059E-01  4.59732E-01 -3.41673E-01
    8987.951     -6.036   0.440  1.23152E-01  4.81673E-01 -3.58521E-01
    8988.092     -5.896   0.480  1.29050E-01  5.03467E-01 -3.74418E-01
    8988.244     -5.744   0.520  1.35958E-01  5.24840E-01 -3.88882E-01
    8988.409     -5.579   0.560  1.44047E-01  5.45649E-01 -4.01602E-01
    8988.585     -5.402   0.600  1.53367E-01  5.65860E-01 -4.12492E-01
    8988.774     -5.213   0.640  1.63880E-01  5.85523E-01 -4.21643E-01
    8988.976     -5.012   0.680  1.75275E-01  6.04685E-01 -4.29409E-01
    8989.189     -4.799   0.720  1.87117E-01  6.23424E-01 -4.36307E-01
    8989.415     -4.573   0.760  1.99035E-01  6.41817E-01 -4.42782E-01
    8989.652     -4.335   0.800  2.11291E-01  6.59931E-01 -4.48640E-01
    8989.902     -4.085   0.840  2.25151E-01  6.77797E-01 -4.52646E-01
    8990.164     -3.823   0.880  2.42737E-01  6.95474E-01 -4.52737E-01
    8990.439     -3.549   0.920  2.66183E-01  7.12946E-01 -4.46763E-01
    8990.725     -3.262   0.960  2.96967E-01  7.30224E-01 -4.33257E-01
    8991.024     -2.964   1.000  3.35696E-01  7.47291E-01 -4.11595E-01
    8991.335     -2.653   1.040  3.82249E-01  7.64159E-01 -3.81909E-01
    8991.658     -2.330   1.080  4.35401E-01  7.80751E-01 -3.45350E-01
    8991.993     -1.995   1.120  4.92273E-01  7.97088E-01 -3.04815E-01
    8992.341     -1.647   1.160  5.47948E-01  8.13084E-01 -2.65135E-01
    8992.700     -1.287   1.200  5.98321E-01  8.28751E-01 -2.30430E-01
    8993.072     -0.916   1.240  6.42465E-01  8.44017E-01 -2.01552E-01
    8993.456     -0.531   1.280  6.77352E-01  8.58852E-01 -1.81499E-01
    8993.852     -0.135   1.320  6.97080E-01  8.73198E-01 -1.76118E-01
    8994.261      0.273   1.360  7.03301E-01  8.87067E-01 -1.83766E-01
    8994.681      0.694   1.400  7.03218E-01  9.00365E-01 -1.97147E-01
    8995.114      1.127   1.440  6.97531E-01  9.13120E-01 -2.15590E-01
    8995.559      1.572   1.480  6.87573E-01  9.25263E-01 -2.37690E-01
    8996.016      2.029   1.520  6.83619E-01  9.36804E-01 -2.53186E-01
    8996.486      2.498   1.560  6.92115E-01  9.47677E-01 -2.55562E-01
    8996.967      2.980   1.600  7.11698E-01  9.57940E-01 -2.46242E-01
    8997.461      3.474   1.640  7.38864E-01  9.67505E-01 -2.28641E-01
    8997.967      3.980   1.680  7.71126E-01  9.76436E-01 -2.05311E-01
    8998.485      4.498   1.720  8.10896E-01  9.84694E-01 -1.73797E-01
    8999.016      5.028   1.760  8.64301E-01  9.92279E-01 -1.27979E-01
    8999.558      5.571   1.800  9.30405E-01  9.99241E-01 -6.88353E-02
    9000.113      6.125   1.840  1.00312E+00  1.00554E+00 -2.42901E-03
    9000.680      6.692   1.880  1.07603E+00  1.01124E+00  6.47923E-02
    9001.259      7.271   1.920  1.13971E+00  1.01631E+00  1.23403E-01
    9001.850      7.863   1.960  1.19198E+00  1.02079E+00  1.71185E-01
    9002.454      8.466   2.000  1.24185E+00  1.02472E+00  2.17131E-01
    9003.070      9.082   2.040  1.29360E+00  1.02810E+00  2.65494E-01
    9003.697      9.710   2.080  1.34144E+00  1.03098E+00  3.10457E-01
    9004.337     10.350   2.120  1.37257E+00  1.03338E+00  3.39194E-01
    9004.990     11.002   2.160  1.37854E+00  1.03530E+00  3.43238E-01
    9005.654     11.667   2.200  1.36936E+00  1.03679E+00  3.32574E-01
    9006.331     12.343   2.240  1.36144E+00  1.03789E+00  3.23551E-01
    9007.020     13.032   2.280  1.35449E+00  1.03862E+00  3.15869E-01
    9007.721     13.733   2.320  1.33681E+00  1.03901E+00  2.97802E-01
    9008.434     14.446   2.360  1.30423E+00  1.03907E+00  2.65160E-01
    9009.159     15.172   2.400  1.26646E+00  1.03884E+00  2.27628E-01
    9009.897     15.909   2.440  1.23382E+00  1.03835E+00  1.95472E-01
    9010.647     16.659   2.480  1.20718E+00  1.03763E+00  1.69543E-01
    9011.409     17.421   2.520  1.18934E+00  1.03669E+00  1.52652E-01
    9012.183     18.195   2.560  1.18878E+00  1.03557E+00  1.53213E-01
    9012.969     18.982   2.600  1.19834E+00  1.03428E+00  1.64066E-01
    9013.768     19.780   2.640  1.20005E+00  1.03285E+00  1.67201E-01
    9014.579     20.591   2.680  1.19046E+00  1.03131E+00  1.59152E-01
    9015.402     21.414   2.720  1.17523E+00  1.02967E+00  1.45559E-01
    9016.237     22.249   2.760  1.15487E+00  1.02792E+00  1.26946E-01
    9017.084     23.097   2.800  1.13040E+00  1.02614E+00  1.04256E-01
    9017.944     23.956   2.840  1.10400E+00  1.02430E+00  7.97046E-02
    9018.815     24.828   2.880  1.07749E+00  1.02242E+00  5.50739E-02
    9019.699     25.712   2.920  1.05147E+00  1.02055E+00  3.09221E-02
    9020.595     26.608   2.960  1.02636E+00  1.01865E+00  7.71084E-03
    9021.504     27.516   3.000  1.00276E+00  1.01676E+00 -1.40005E-02
    9022.424     28.437   3.040  9.80652E-01  1.01489E+00 -3.42422E-02
    9023.357     29.369   3.080  9.60019E-01  1.01307E+00 -5.30482E-02
    9024.302     30.314   3.120  9.40871E-01  1.01128E+00 -7.04083E-02
    9025.259     31.271   3.160  9.23351E-01  1.00954E+00 -8.61839E-02
    9026.228     32.240   3.200  9.07760E-01  1.00784E+00 -1.00080E-01
    9027.210     33.222   3.240  8.94337E-01  1.00622E+00 -1.11880E-01
    9028.203     34.216   3.280  8.82809E-01  1.00467E+00 -1.21862E-01
    9029.209     35.221   3.320  8.72858E-01  1.00321E+00 -1.30347E-01
    9030.227     36.239   3.360  8.64402E-01  1.00182E+00 -1.37419E-01
    9031.257     37.270   3.400  8.57529E-01  1.00052E+00 -1.42991E-01
    9032.300     38.312   3.440  8.52484E-01  9.99304E-01 -1.46820E-01
    9033.354     39.367   3.480  8.49473E-01  9.98199E-01 -1.48725E-01
    9034.421     40.433   3.520  8.48621E-01  9.97182E-01 -1.48560E-01
    9035.500     41.512   3.560  8.49628E-01  9.96253E-01 -1.46626E-01
    9036.591     42.604   3.600  8.52420E-01  9.95438E-01 -1.43018E-01
    9037.695     43.707   3.640  8.56994E-01  9.94737E-01 -1.37743E-01
    9038.810     44.823   3.680  8.63308E-01  9.94126E-01 -1.30819E-01
    9039.938     45.950   3.720  8.71341E-01  9.93606E-01 -1.22265E-01
    9041.078     47.090   3.760  8.81193E-01  9.93199E-01 -1.12007E-01
    9042.230     48.242   3.800  8.92960E-01  9.92907E-01 -9.99463E-02
    9043.394     49.407   3.840  9.06574E-01  9.92703E-01 -8.61293E-02
    9044.571     50.583   3.880  9.21992E-01  9.92591E-01 -7.05991E-02
    9045.760     51.772   3.920  9.39017E-01  9.92591E-01 -5.35735E-02
    9046.961     52.973   3.960  9.57027E-01  9.92701E-01 -3.56737E-02
    9048.174     54.186   4.000  9.75048E-01  9.92877E-01 -1.78285E-02
    9049.399     55.411   4.040  9.92191E-01  9.93159E-01 -9.67656E-04
    9050.636     56.649   4.080  1.00774E+00  9.93527E-01  1.42137E-02
    9051.886     57.898   4.120  1.02150E+00  9.93977E-01  2.75221E-02
    9053.148     59.160   4.160  1.03372E+00  9.94510E-01  3.92128E-02
    9054.422     60.434   4.200  1.04479E+00  9.95123E-01  4.96625E-02
    9055.708     61.721   4.240  1.05474E+00  9.95814E-01  5.89293E-02
    9057.007     63.019   4.280  1.06339E+00  9.96581E-01  6.68078E-02
    9058.317     64.330   4.320  1.07019E+00  9.97399E-01  7.27920E-02
    9059.640     65.653   4.360  1.07461E+00  9.98266E-01  7.63482E-02
    9060.975     66.988   4.400  1.07646E+00  9.99202E-01  7.72623E-02
    9062.322     68.335   4.440  1.07597E+00  1.00018E+00  7.57903E-02
    9063.682     69.694   4.480  1.07378E+00  1.00123E+00  7.25475E-02
    9065.053     71.066   4.520  1.07064E+00  1.00230E+00  6.83394E-02
    9066.437     72.450   4.560  1.06743E+00  1.00340E+00  6.40264E-02
    9067.833     73.845   4.600  1.06477E+00  1.00454E+00  6.02263E-02
    9069.241     75.254   4.640  1.06298E+00  1.00571E+00  5.72671E-02
    9070.662     76.674   4.680  1.06209E+00  1.00689E+00  5.51994E-02
    9072.094     78.107   4.720  1.06193E+00  1.00807E+00  5.38529E-02
    9073.539     79.551   4.760  1.06216E+00  1.00926E+00  5.29009E-02
    9074.996     81.008   4.800  1.06246E+00  1.01047E+00  5.19923E-02
    9076.465     82.477   4.840  1.06241E+00  1.01165E+00  5.07551E-02
    9077.946     83.959   4.880  1.06178E+00  1.01283E+00  4.89496E-02
    9079.440     85.452   4.920  1.06055E+00  1.01400E+00  4.65498E-02
    9080.946     86.958   4.960  1.05882E+00  1.01514E+00  4.36770E-02
    9082.463     88.476   5.000  1.05675E+00  1.01626E+00  4.04826E-02
    9083.994     90.006   5.040  1.05433E+00  1.01733E+00  3.70065E-02
    9085.536     91.548   5.080  1.05147E+00  1.01838E+00  3.30954E-02
    9087.090     93.103   5.120  1.04786E+00  1.01938E+00  2.84773E-02
    9088.657     94.669   5.160  1.04317E+00  1.02035E+00  2.28228E-02
    9090.236     96.248   5.200  1.03714E+00  1.02126E+00  1.58810E-02
    9091.827     97.839   5.240  1.02971E+00  1.02211E+00  7.59643E-03
    9093.430     99.442   5.280  1.02113E+00  1.02291E+00 -1.77353E-03
    9095.046    101.058   5.320  1.01198E+00  1.02363E+00 -1.16525E-02
    9096.673    102.686   5.360  1.00303E+00  1.02430E+00 -2.12722E-02
    9098.313    104.325   5.400  9.94998E-01  1.02489E+00 -2.98972E-02
    9099.965    105.977   5.440  9.88474E-01  1.02541E+00 -3.69376E-02
    9101.629    107.642   5.480  9.83812E-01  1.02587E+00 -4.20617E-02
    9103.306    109.318   5.520  9.81028E-01  1.02626E+00 -4.52291E-02
    9104.994    111.007   5.560  9.79937E-01  1.02656E+00 -4.66232E-02
    9106.695    112.707   5.600  9.80307E-01  1.02678E+00 -4.64758E-02
    9108.408    114.420   5.640  9.81907E-01  1.02693E+00 -4.50190E-02
    9110.133    116.145   5.680  9.84514E-01  1.02701E+00 -4.24983E-02
    9111.870    117.883   5.720  9.87766E-01  1.02700E+00 -3.92298E-02
    9113.620    119.632   5.760  9.91321E-01  1.02692E+00 -3.55994E-02
    9115.382    121.394   5.800  9.94677E-01  1.02674E+00 -3.20669E-02
    9117.156    123.168   5.840  9.97423E-01  1.02651E+00 -2.90890E-02
    9118.942    124.954   5.880  9.99185E-01  1.02620E+00 -2.70195E-02
    9120.740    126.752   5.920  9.99832E-01  1.02582E+00 -2.59893E-02
    9122.551    128.563   5.960  9.99559E-01  1.02538E+00 -2.58194E-02
    9124.373    130.386   6.000  9.98823E-01  1.02480E+00 -2.59774E-02
