# # comment:                                                     FEFF 9.9.1  
# # Source:
# # Structure
# # Reduced
# # space
# # abc:
# # angles:
# # sites:
# # POT  SCF 100  7.0000   0, screened core-hole, AFOLP (folp(0)= 1.150)
# # Abs   Z=29 Rmt= 1.232 Rnm= 1.320 K  shell
# # Pot 1 Z= 3 Rmt= 1.255 Rnm= 1.301
# # Pot 2 Z=25 Rmt= 1.229 Rnm= 1.346
# # Pot 3 Z=29 Rmt= 1.223 Rnm= 1.314
# # Pot 4 Z= 8 Rmt= 1.015 Rnm= 1.094
# # Gam_ch=1.729E+00 H-L exch Vi= 0.000E+00 Vr= 0.000E+00
# # Mu=-1.085E+01eV kf=2.192E+00 Vint=-1.829E+01eV Rs_int= 1.655
# FMS rfms= 9.0000
# # PATH  Rmax=-1.000,  Keep_limit= 0.00, Heap_limit 0.00  Pwcrit= 2.50%
#  S02=0.950  Temp=   0.00  Debye_temp=   0.00  Global_sig2= 0.00000
#  Energy zero shift, vr, vi    0.00000E+00   0.00000E+00
#  Curved wave amplitude ratio filter   4.000%
#     file         sig2 tot  cw amp ratio   deg  nlegs   reff  inp sig2
#     0/   0 paths used
#  xsedge+ 50, used to normalize mu           2.5047E-04
#  -----------------------------------------------------------------------
#  omega    e    k    mu    mu0     chi     @#
    8984.242    -14.656  -1.000  3.02203E-02  4.52793E-02 -1.50591E-02
    8984.541    -14.357  -0.960  3.16310E-02  4.83444E-02 -1.67134E-02
    8984.827    -14.071  -0.920  3.31456E-02  5.17330E-02 -1.85874E-02
    8985.102    -13.796  -0.880  3.47773E-02  5.54914E-02 -2.07141E-02
    8985.364    -13.534  -0.840  3.65414E-02  5.96733E-02 -2.31319E-02
    8985.614    -13.284  -0.800  3.84559E-02  6.43408E-02 -2.58849E-02
    8985.851    -13.046  -0.760  4.05418E-02  6.95650E-02 -2.90233E-02
    8986.077    -12.821  -0.720  4.28232E-02  7.54262E-02 -3.26031E-02
    8986.290    -12.608  -0.680  4.53269E-02  8.20123E-02 -3.66854E-02
    8986.491    -12.406  -0.640  4.80815E-02  8.94160E-02 -4.13345E-02
    8986.680    -12.217  -0.600  5.11146E-02  9.77280E-02 -4.66133E-02
    8986.857    -12.041  -0.560  5.44484E-02  1.07025E-01 -5.25765E-02
    8987.022    -11.876  -0.520  5.80922E-02  1.17351E-01 -5.92593E-02
    8987.174    -11.724  -0.480  6.20317E-02  1.28695E-01 -6.66634E-02
    8987.314    -11.583  -0.440  6.62179E-02  1.40957E-01 -7.47389E-02
    8987.442    -11.455  -0.400  7.05583E-02  1.53927E-01 -8.33685E-02
    8987.558    -11.340  -0.360  7.49177E-02  1.67277E-01 -9.23591E-02
    8987.662    -11.236  -0.320  7.91328E-02  1.80581E-01 -1.01448E-01
    8987.753    -11.144  -0.280  8.30396E-02  1.93364E-01 -1.10324E-01
    8987.833    -11.065  -0.240  8.65031E-02  2.05169E-01 -1.18665E-01
    8987.900    -10.998  -0.200  8.94367E-02  2.15610E-01 -1.26173E-01
    8987.954    -10.943  -0.160  9.18037E-02  2.24402E-01 -1.32598E-01
    8987.997    -10.901  -0.120  9.36036E-02  2.31360E-01 -1.37756E-01
    8988.028    -10.870  -0.080  9.48524E-02  2.36378E-01 -1.41525E-01
    8988.052    -10.846   0.000  9.57977E-02  2.40413E-01 -1.44616E-01
    8988.107    -10.791   0.120  9.80721E-02  2.49524E-01 -1.51452E-01
    8988.150    -10.748   0.160  9.97810E-02  2.56620E-01 -1.56839E-01
    8988.204    -10.693   0.200  1.01871E-01  2.65687E-01 -1.63816E-01
    8988.271    -10.626   0.240  1.04286E-01  2.76646E-01 -1.72360E-01
    8988.351    -10.547   0.280  1.06927E-01  2.89284E-01 -1.82357E-01
    8988.442    -10.456   0.320  1.09729E-01  3.03314E-01 -1.93585E-01
    8988.546    -10.352   0.360  1.12698E-01  3.18355E-01 -2.05657E-01
    8988.662    -10.236   0.400  1.16008E-01  3.34059E-01 -2.18052E-01
    8988.790    -10.108   0.440  1.19952E-01  3.50037E-01 -2.30084E-01
    8988.930     -9.968   0.480  1.24970E-01  3.66015E-01 -2.41045E-01
    8989.082     -9.816   0.520  1.31674E-01  3.81839E-01 -2.50165E-01
    8989.247     -9.651   0.560  1.40609E-01  3.97393E-01 -2.56784E-01
    8989.424     -9.474   0.600  1.52238E-01  4.12692E-01 -2.60454E-01
    8989.613     -9.285   0.640  1.66506E-01  4.27757E-01 -2.61250E-01
    8989.814     -9.084   0.680  1.82260E-01  4.42655E-01 -2.60395E-01
    8990.027     -8.871   0.720  1.96622E-01  4.57441E-01 -2.60819E-01
    8990.253     -8.645   0.760  2.05526E-01  4.72189E-01 -2.66662E-01
    8990.490     -8.407   0.800  2.06517E-01  4.86944E-01 -2.80428E-01
    8990.740     -8.157   0.840  2.01586E-01  5.01745E-01 -3.00159E-01
    8991.002     -7.895   0.880  1.96239E-01  5.16637E-01 -3.20398E-01
    8991.277     -7.621   0.920  1.95838E-01  5.31639E-01 -3.35801E-01
    8991.563     -7.334   0.960  2.03695E-01  5.46759E-01 -3.43063E-01
    8991.862     -7.036   1.000  2.21815E-01  5.62015E-01 -3.40199E-01
    8992.173     -6.725   1.040  2.52253E-01  5.77381E-01 -3.25127E-01
    8992.496     -6.402   1.080  2.97827E-01  5.92844E-01 -2.95017E-01
    8992.831     -6.067   1.120  3.59339E-01  6.08387E-01 -2.49048E-01
    8993.179     -5.719   1.160  4.27318E-01  6.24027E-01 -1.96710E-01
    8993.538     -5.359   1.200  4.76147E-01  6.39681E-01 -1.63534E-01
    8993.910     -4.988   1.240  4.81613E-01  6.55359E-01 -1.73746E-01
    8994.294     -4.604   1.280  4.50602E-01  6.70989E-01 -2.20387E-01
    8994.691     -4.207   1.320  4.17214E-01  6.86581E-01 -2.69368E-01
    8995.099     -3.799   1.360  4.04028E-01  7.02081E-01 -2.98053E-01
    8995.520     -3.378   1.400  4.09282E-01  7.17455E-01 -3.08173E-01
    8995.952     -2.945   1.440  4.27611E-01  7.32665E-01 -3.05054E-01
    8996.397     -2.500   1.480  4.61998E-01  7.47658E-01 -2.85660E-01
    8996.855     -2.043   1.520  5.17174E-01  7.62416E-01 -2.45243E-01
    8997.324     -1.574   1.560  5.92133E-01  7.76926E-01 -1.84793E-01
    8997.806     -1.092   1.600  6.82033E-01  7.91112E-01 -1.09079E-01
    8998.299     -0.598   1.640  7.78136E-01  8.04959E-01 -2.68231E-02
    8998.805     -0.092   1.680  8.53642E-01  8.18434E-01  3.52078E-02
    8999.323      0.426   1.720  8.70135E-01  8.31543E-01  3.85914E-02
    8999.854      0.956   1.760  8.46734E-01  8.44217E-01  2.51702E-03
    9000.396      1.499   1.800  8.32426E-01  8.56445E-01 -2.40188E-02
    9000.951      2.053   1.840  8.47048E-01  8.68216E-01 -2.11674E-02
    9001.518      2.620   1.880  8.95532E-01  8.79503E-01  1.60294E-02
    9002.097      3.199   1.920  9.76980E-01  8.90321E-01  8.66587E-02
    9002.688      3.791   1.960  1.07966E+00  9.00624E-01  1.79040E-01
    9003.292      4.394   2.000  1.17891E+00  9.10408E-01  2.68499E-01
    9003.908      5.010   2.040  1.25688E+00  9.19692E-01  3.37192E-01
    9004.536      5.638   2.080  1.30887E+00  9.28454E-01  3.80413E-01
    9005.176      6.278   2.120  1.32461E+00  9.36693E-01  3.87920E-01
    9005.828      6.930   2.160  1.30828E+00  9.44432E-01  3.63846E-01
    9006.492      7.595   2.200  1.28963E+00  9.51653E-01  3.37982E-01
    9007.169      8.271   2.240  1.28847E+00  9.58359E-01  3.30107E-01
    9007.858      8.960   2.280  1.30581E+00  9.64574E-01  3.41238E-01
    9008.559      9.661   2.320  1.32425E+00  9.70303E-01  3.53945E-01
    9009.272     10.374   2.360  1.30705E+00  9.75552E-01  3.31494E-01
    9009.998     11.100   2.400  1.23715E+00  9.80330E-01  2.56823E-01
    9010.735     11.837   2.440  1.13648E+00  9.84683E-01  1.51792E-01
    9011.485     12.587   2.480  1.03474E+00  9.88599E-01  4.61450E-02
    9012.247     13.349   2.520  9.53549E-01  9.92107E-01 -3.85580E-02
    9013.021     14.123   2.560  9.12284E-01  9.95194E-01 -8.29100E-02
    9013.807     14.910   2.600  9.19989E-01  9.97930E-01 -7.79412E-02
    9014.606     15.708   2.640  9.49003E-01  1.00028E+00 -5.12817E-02
    9015.417     16.519   2.680  9.72332E-01  1.00231E+00 -2.99741E-02
    9016.240     17.342   2.720  9.83334E-01  1.00401E+00 -2.06708E-02
    9017.075     18.177   2.760  9.83947E-01  1.00539E+00 -2.14448E-02
    9017.922     19.024   2.800  9.78692E-01  1.00651E+00 -2.78211E-02
    9018.782     19.884   2.840  9.72068E-01  1.00734E+00 -3.52726E-02
    9019.654     20.756   2.880  9.67184E-01  1.00794E+00 -4.07596E-02
    9020.537     21.640   2.920  9.64342E-01  1.00831E+00 -4.39677E-02
    9021.434     22.536   2.960  9.62705E-01  1.00845E+00 -4.57423E-02
    9022.342     23.444   3.000  9.61266E-01  1.00841E+00 -4.71406E-02
    9023.262     24.365   3.040  9.59148E-01  1.00818E+00 -4.90288E-02
    9024.195     25.297   3.080  9.55619E-01  1.00781E+00 -5.21858E-02
    9025.140     26.242   3.120  9.49511E-01  1.00728E+00 -5.77683E-02
    9026.097     27.199   3.160  9.40240E-01  1.00661E+00 -6.63655E-02
    9027.066     28.168   3.200  9.28973E-01  1.00583E+00 -7.68609E-02
    9028.048     29.150   3.240  9.18058E-01  1.00495E+00 -8.68899E-02
    9029.041     30.144   3.280  9.09515E-01  1.00398E+00 -9.44622E-02
    9030.047     31.149   3.320  9.04090E-01  1.00293E+00 -9.88367E-02
    9031.065     32.167   3.360  9.01335E-01  1.00180E+00 -1.00468E-01
    9032.095     33.198   3.400  9.00141E-01  1.00065E+00 -1.00511E-01
    9033.138     34.240   3.440  8.99531E-01  9.99437E-01 -9.99062E-02
    9034.192     35.295   3.480  8.99194E-01  9.98186E-01 -9.89922E-02
    9035.259     36.361   3.520  8.99237E-01  9.96923E-01 -9.76858E-02
    9036.338     37.440   3.560  8.99811E-01  9.95651E-01 -9.58404E-02
    9037.429     38.532   3.600  9.01351E-01  9.94354E-01 -9.30032E-02
    9038.533     39.635   3.640  9.04478E-01  9.93056E-01 -8.85779E-02
    9039.648     40.751   3.680  9.09674E-01  9.91783E-01 -8.21089E-02
    9040.776     41.878   3.720  9.16932E-01  9.90517E-01 -7.35857E-02
    9041.916     43.018   3.760  9.26042E-01  9.89283E-01 -6.32412E-02
    9043.068     44.170   3.800  9.36639E-01  9.88081E-01 -5.14415E-02
    9044.232     45.335   3.840  9.48369E-01  9.86893E-01 -3.85238E-02
    9045.409     46.511   3.880  9.61041E-01  9.85741E-01 -2.46998E-02
    9046.598     47.700   3.920  9.74509E-01  9.84628E-01 -1.01188E-02
    9047.799     48.901   3.960  9.88576E-01  9.83578E-01  4.99830E-03
    9049.012     50.114   4.000  1.00294E+00  9.82550E-01  2.03888E-02
    9050.237     51.339   4.040  1.01728E+00  9.81588E-01  3.56938E-02
    9051.475     52.577   4.080  1.03098E+00  9.80692E-01  5.02883E-02
    9052.724     53.826   4.120  1.04324E+00  9.79819E-01  6.34167E-02
    9053.986     55.088   4.160  1.05355E+00  9.79016E-01  7.45331E-02
    9055.260     56.362   4.200  1.06173E+00  9.78280E-01  8.34533E-02
    9056.546     57.649   4.240  1.06813E+00  9.77592E-01  9.05367E-02
    9057.845     58.947   4.280  1.07349E+00  9.76952E-01  9.65396E-02
    9059.155     60.258   4.320  1.07853E+00  9.76383E-01  1.02149E-01
    9060.478     61.580   4.360  1.08345E+00  9.75884E-01  1.07570E-01
    9061.813     62.916   4.400  1.08783E+00  9.75435E-01  1.12396E-01
    9063.160     64.263   4.440  1.09069E+00  9.75053E-01  1.15637E-01
    9064.520     65.622   4.480  1.09050E+00  9.74719E-01  1.15781E-01
    9065.891     66.994   4.520  1.08542E+00  9.74431E-01  1.10988E-01
    9067.275     68.378   4.560  1.07386E+00  9.74211E-01  9.96502E-02
    9068.671     69.773   4.600  1.05527E+00  9.74038E-01  8.12301E-02
    9070.079     71.182   4.640  1.03091E+00  9.73932E-01  5.69775E-02
    9071.500     72.602   4.680  1.00362E+00  9.73871E-01  2.97525E-02
    9072.932     74.035   4.720  9.76818E-01  9.73852E-01  2.96651E-03
    9074.377     75.479   4.760  9.53317E-01  9.73875E-01 -2.05577E-02
    9075.834     76.936   4.800  9.34817E-01  9.73961E-01 -3.91444E-02
    9077.303     78.405   4.840  9.21819E-01  9.74067E-01 -5.22488E-02
    9078.784     79.887   4.880  9.14175E-01  9.74233E-01 -6.00583E-02
    9080.278     81.380   4.920  9.11202E-01  9.74415E-01 -6.32125E-02
    9081.784     82.886   4.960  9.12130E-01  9.74632E-01 -6.25011E-02
    9083.302     84.404   5.000  9.16182E-01  9.74884E-01 -5.87013E-02
    9084.832     85.934   5.040  9.22700E-01  9.75172E-01 -5.24720E-02
    9086.374     87.476   5.080  9.31167E-01  9.75471E-01 -4.43039E-02
    9087.928     89.031   5.120  9.41253E-01  9.75801E-01 -3.45484E-02
    9089.495     90.597   5.160  9.52628E-01  9.76163E-01 -2.35352E-02
    9091.074     92.176   5.200  9.64722E-01  9.76532E-01 -1.18102E-02
    9092.665     93.767   5.240  9.76533E-01  9.76903E-01 -3.70295E-04
    9094.268     95.370   5.280  9.86773E-01  9.77277E-01  9.49572E-03
    9095.884     96.986   5.320  9.94254E-01  9.77675E-01  1.65783E-02
    9097.511     98.614   5.360  9.98270E-01  9.78053E-01  2.02165E-02
    9099.151    100.253   5.400  9.98815E-01  9.78451E-01  2.03636E-02
    9100.803    101.905   5.440  9.96091E-01  9.78825E-01  1.72663E-02
    9102.467    103.570   5.480  9.90465E-01  9.79197E-01  1.12689E-02
    9104.144    105.246   5.520  9.82568E-01  9.79586E-01  2.98217E-03
    9105.832    106.935   5.560  9.73278E-01  9.79926E-01 -6.64781E-03
    9107.533    108.635   5.600  9.63776E-01  9.80281E-01 -1.65046E-02
    9109.246    110.348   5.640  9.55068E-01  9.80605E-01 -2.55366E-02
    9110.971    112.073   5.680  9.47904E-01  9.80896E-01 -3.29921E-02
    9112.709    113.811   5.720  9.42494E-01  9.81177E-01 -3.86830E-02
    9114.458    115.560   5.760  9.38477E-01  9.81425E-01 -4.29474E-02
    9116.220    117.322   5.800  9.35334E-01  9.81659E-01 -4.63250E-02
    9117.994    119.096   5.840  9.32662E-01  9.81836E-01 -4.91738E-02
    9119.780    120.882   5.880  9.30440E-01  9.81998E-01 -5.15582E-02
    9121.578    122.680   5.920  9.28773E-01  9.82149E-01 -5.33757E-02
    9123.389    124.491   5.960  9.27856E-01  9.82232E-01 -5.43753E-02
    9125.211    126.314   6.000  9.28520E-01  9.82256E-01 -5.37359E-02
