# # comment:                                                     FEFF 9.9.1  
# # Source:
# # Structure
# # Reduced
# # space
# # abc:
# # angles:
# # sites:
# # POT  SCF 100  7.0000   0, screened core-hole, AFOLP (folp(0)= 1.150)
# # Abs   Z=29 Rmt= 1.280 Rnm= 1.343 K  shell
# # Pot 1 Z= 3 Rmt= 1.300 Rnm= 1.410
# # Pot 2 Z=29 Rmt= 1.280 Rnm= 1.343
# # Pot 3 Z=15 Rmt= 0.940 Rnm= 1.157
# # Pot 4 Z= 8 Rmt= 0.943 Rnm= 1.051
# # Gam_ch=1.729E+00 H-L exch Vi= 0.000E+00 Vr= 0.000E+00
# # Mu=-6.301E+00eV kf=2.347E+00 Vint=-1.686E+01eV Rs_int= 1.545
# FMS rfms= 9.0000
# # PATH  Rmax=-1.000,  Keep_limit= 0.00, Heap_limit 0.00  Pwcrit= 2.50%
#  S02=0.950  Temp=   0.00  Debye_temp=   0.00  Global_sig2= 0.00000
#  Energy zero shift, vr, vi    0.00000E+00   0.00000E+00
#  Curved wave amplitude ratio filter   4.000%
#     file         sig2 tot  cw amp ratio   deg  nlegs   reff  inp sig2
#     0/   0 paths used
#  xsedge+ 50, used to normalize mu           2.4733E-04
#  -----------------------------------------------------------------------
#  omega    e    k    mu    mu0     chi     @#
    8983.521    -10.111  -1.000  4.27788E-02  5.51710E-02 -1.23922E-02
    8983.820     -9.812  -0.960  4.52095E-02  5.92484E-02 -1.40389E-02
    8984.106     -9.526  -0.920  4.78484E-02  6.37869E-02 -1.59385E-02
    8984.380     -9.252  -0.880  5.07218E-02  6.88552E-02 -1.81334E-02
    8984.643     -8.989  -0.840  5.38605E-02  7.45334E-02 -2.06729E-02
    8984.893     -8.740  -0.800  5.72999E-02  8.09143E-02 -2.36144E-02
    8985.130     -8.502  -0.760  6.10809E-02  8.81048E-02 -2.70239E-02
    8985.356     -8.276  -0.720  6.52492E-02  9.62256E-02 -3.09763E-02
    8985.569     -8.063  -0.680  6.98556E-02  1.05410E-01 -3.55542E-02
    8985.770     -7.862  -0.640  7.49530E-02  1.15798E-01 -4.08450E-02
    8985.959     -7.673  -0.600  8.05934E-02  1.27529E-01 -4.69356E-02
    8986.136     -7.496  -0.560  8.68200E-02  1.40721E-01 -5.39011E-02
    8986.301     -7.331  -0.520  9.36567E-02  1.55446E-01 -6.17889E-02
    8986.453     -7.179  -0.480  1.01092E-01  1.71688E-01 -7.05958E-02
    8986.593     -7.039  -0.440  1.09063E-01  1.89305E-01 -8.02425E-02
    8986.721     -6.911  -0.400  1.17437E-01  2.07988E-01 -9.05512E-02
    8986.837     -6.795  -0.360  1.26011E-01  2.27251E-01 -1.01239E-01
    8986.941     -6.691  -0.320  1.34521E-01  2.46460E-01 -1.11939E-01
    8987.032     -6.600  -0.280  1.42673E-01  2.64916E-01 -1.22243E-01
    8987.111     -6.521  -0.240  1.50184E-01  2.81945E-01 -1.31760E-01
    8987.178     -6.454  -0.200  1.56817E-01  2.96985E-01 -1.40168E-01
    8987.233     -6.399  -0.160  1.62397E-01  3.09629E-01 -1.47233E-01
    8987.276     -6.356  -0.120  1.66811E-01  3.19618E-01 -1.52807E-01
    8987.307     -6.326  -0.080  1.69997E-01  3.26809E-01 -1.56812E-01
    8987.331     -6.301   0.000  1.72567E-01  3.32585E-01 -1.60018E-01
    8987.386     -6.246   0.120  1.78237E-01  3.45587E-01 -1.67350E-01
    8987.428     -6.204   0.160  1.82642E-01  3.55690E-01 -1.73049E-01
    8987.483     -6.149   0.200  1.88272E-01  3.68588E-01 -1.80316E-01
    8987.550     -6.082   0.240  1.95006E-01  3.84049E-01 -1.89042E-01
    8987.630     -6.002   0.280  2.02733E-01  4.01765E-01 -1.99032E-01
    8987.721     -5.911   0.320  2.11224E-01  4.21259E-01 -2.10036E-01
    8987.825     -5.807   0.360  2.20236E-01  4.41942E-01 -2.21706E-01
    8987.940     -5.692   0.400  2.29457E-01  4.63165E-01 -2.33708E-01
    8988.069     -5.564   0.440  2.38527E-01  4.84341E-01 -2.45814E-01
    8988.209     -5.423   0.480  2.47116E-01  5.05049E-01 -2.57933E-01
    8988.361     -5.271   0.520  2.54859E-01  5.24990E-01 -2.70131E-01
    8988.526     -5.106   0.560  2.61595E-01  5.44015E-01 -2.82421E-01
    8988.702     -4.930   0.600  2.67744E-01  5.62134E-01 -2.94389E-01
    8988.891     -4.741   0.640  2.74463E-01  5.79348E-01 -3.04885E-01
    8989.093     -4.539   0.680  2.83654E-01  5.95805E-01 -3.12151E-01
    8989.306     -4.326   0.720  2.97186E-01  6.11587E-01 -3.14401E-01
    8989.532     -4.100   0.760  3.16165E-01  6.26792E-01 -3.10627E-01
    8989.769     -3.863   0.800  3.40690E-01  6.41532E-01 -3.00842E-01
    8990.019     -3.613   0.840  3.70233E-01  6.55882E-01 -2.85650E-01
    8990.281     -3.351   0.880  4.04319E-01  6.69907E-01 -2.65588E-01
    8990.556     -3.076   0.920  4.42222E-01  6.83674E-01 -2.41452E-01
    8990.842     -2.790   0.960  4.81780E-01  6.97197E-01 -2.15417E-01
    8991.141     -2.491   1.000  5.19011E-01  7.10521E-01 -1.91510E-01
    8991.452     -2.180   1.040  5.48935E-01  7.23659E-01 -1.74724E-01
    8991.775     -1.857   1.080  5.68203E-01  7.36619E-01 -1.68416E-01
    8992.110     -1.522   1.120  5.79954E-01  7.49420E-01 -1.69466E-01
    8992.458     -1.174   1.160  5.94529E-01  7.62013E-01 -1.67484E-01
    8992.817     -0.815   1.200  6.21178E-01  7.74448E-01 -1.53271E-01
    8993.189     -0.443   1.240  6.62052E-01  7.86651E-01 -1.24599E-01
    8993.573     -0.059   1.280  7.14106E-01  7.98664E-01 -8.45578E-02
    8993.969      0.337   1.320  7.72387E-01  8.10447E-01 -3.80604E-02
    8994.378      0.746   1.360  8.33361E-01  8.21978E-01  1.13831E-02
    8994.798      1.166   1.400  8.97508E-01  8.33233E-01  6.42750E-02
    8995.231      1.599   1.440  9.68622E-01  8.44209E-01  1.24414E-01
    8995.676      2.044   1.480  1.04618E+00  8.54901E-01  1.91275E-01
    8996.133      2.501   1.520  1.11618E+00  8.65264E-01  2.50911E-01
    8996.603      2.971   1.560  1.16270E+00  8.75296E-01  2.87406E-01
    8997.084      3.452   1.600  1.18717E+00  8.84990E-01  3.02183E-01
    8997.578      3.946   1.640  1.19102E+00  8.94302E-01  2.96721E-01
    8998.084      4.452   1.680  1.17420E+00  9.03269E-01  2.70931E-01
    8998.602      4.970   1.720  1.15137E+00  9.11846E-01  2.39527E-01
    8999.133      5.501   1.760  1.14266E+00  9.20035E-01  2.22629E-01
    8999.675      6.043   1.800  1.15666E+00  9.27810E-01  2.28853E-01
    9000.230      6.598   1.840  1.19145E+00  9.35211E-01  2.56241E-01
    9000.797      7.165   1.880  1.23950E+00  9.42200E-01  2.97300E-01
    9001.376      7.744   1.920  1.28595E+00  9.48797E-01  3.37156E-01
    9001.967      8.335   1.960  1.31085E+00  9.54982E-01  3.55871E-01
    9002.571      8.939   2.000  1.30436E+00  9.60779E-01  3.43579E-01
    9003.187      9.555   2.040  1.27662E+00  9.66169E-01  3.10452E-01
    9003.814     10.182   2.080  1.24563E+00  9.71177E-01  2.74456E-01
    9004.454     10.822   2.120  1.22035E+00  9.75808E-01  2.44542E-01
    9005.107     11.475   2.160  1.20085E+00  9.80065E-01  2.20784E-01
    9005.771     12.139   2.200  1.18459E+00  9.83975E-01  2.00619E-01
    9006.448     12.816   2.240  1.17008E+00  9.87523E-01  1.82560E-01
    9007.137     13.505   2.280  1.15762E+00  9.90715E-01  1.66909E-01
    9007.838     14.206   2.320  1.14619E+00  9.93599E-01  1.52589E-01
    9008.551     14.919   2.360  1.12964E+00  9.96182E-01  1.33461E-01
    9009.276     15.644   2.400  1.10082E+00  9.98450E-01  1.02368E-01
    9010.014     16.382   2.440  1.06216E+00  1.00045E+00  6.17110E-02
    9010.764     17.132   2.480  1.02349E+00  1.00215E+00  2.13345E-02
    9011.526     17.894   2.520  9.91505E-01  1.00362E+00 -1.21159E-02
    9012.300     18.668   2.560  9.65778E-01  1.00484E+00 -3.90660E-02
    9013.086     19.454   2.600  9.40164E-01  1.00583E+00 -6.56665E-02
    9013.885     20.253   2.640  9.11298E-01  1.00661E+00 -9.53116E-02
    9014.696     21.064   2.680  8.84517E-01  1.00721E+00 -1.22690E-01
    9015.519     21.887   2.720  8.61315E-01  1.00761E+00 -1.46296E-01
    9016.354     22.722   2.760  8.45252E-01  1.00785E+00 -1.62595E-01
    9017.201     23.569   2.800  8.34825E-01  1.00794E+00 -1.73119E-01
    9018.061     24.429   2.840  8.29188E-01  1.00789E+00 -1.78699E-01
    9018.932     25.300   2.880  8.27893E-01  1.00768E+00 -1.79791E-01
    9019.816     26.184   2.920  8.29574E-01  1.00740E+00 -1.77827E-01
    9020.712     27.080   2.960  8.33282E-01  1.00699E+00 -1.73704E-01
    9021.621     27.989   3.000  8.39006E-01  1.00650E+00 -1.67496E-01
    9022.541     28.909   3.040  8.46686E-01  1.00594E+00 -1.59252E-01
    9023.474     29.842   3.080  8.56110E-01  1.00530E+00 -1.49188E-01
    9024.419     30.787   3.120  8.67127E-01  1.00459E+00 -1.37459E-01
    9025.376     31.744   3.160  8.79437E-01  1.00385E+00 -1.24412E-01
    9026.345     32.713   3.200  8.92625E-01  1.00307E+00 -1.10447E-01
    9027.327     33.695   3.240  9.06472E-01  1.00226E+00 -9.57854E-02
    9028.320     34.688   3.280  9.20646E-01  1.00141E+00 -8.07627E-02
    9029.326     35.694   3.320  9.34720E-01  1.00055E+00 -6.58336E-02
    9030.344     36.712   3.360  9.48600E-01  9.99695E-01 -5.10949E-02
    9031.374     37.742   3.400  9.62348E-01  9.98856E-01 -3.65082E-02
    9032.417     38.785   3.440  9.75892E-01  9.97998E-01 -2.21067E-02
    9033.471     39.839   3.480  9.89307E-01  9.97165E-01 -7.85814E-03
    9034.538     40.906   3.520  1.00259E+00  9.96339E-01  6.24794E-03
    9035.617     41.985   3.560  1.01551E+00  9.95543E-01  1.99670E-02
    9036.708     43.076   3.600  1.02763E+00  9.94758E-01  3.28736E-02
    9037.812     44.180   3.640  1.03845E+00  9.94007E-01  4.44443E-02
    9038.927     45.295   3.680  1.04739E+00  9.93296E-01  5.40897E-02
    9040.055     46.423   3.720  1.05400E+00  9.92643E-01  6.13528E-02
    9041.195     47.563   3.760  1.05815E+00  9.92008E-01  6.61429E-02
    9042.347     48.715   3.800  1.06013E+00  9.91412E-01  6.87145E-02
    9043.511     49.879   3.840  1.06045E+00  9.90856E-01  6.95893E-02
    9044.688     51.056   3.880  1.05990E+00  9.90342E-01  6.95577E-02
    9045.877     52.245   3.920  1.05917E+00  9.89892E-01  6.92825E-02
    9047.078     53.446   3.960  1.05857E+00  9.89487E-01  6.90812E-02
    9048.291     54.659   4.000  1.05800E+00  9.89125E-01  6.88717E-02
    9049.516     55.884   4.040  1.05720E+00  9.88807E-01  6.83907E-02
    9050.753     57.121   4.080  1.05587E+00  9.88552E-01  6.73211E-02
    9052.003     58.371   4.120  1.05376E+00  9.88342E-01  6.54213E-02
    9053.265     59.633   4.160  1.05071E+00  9.88153E-01  6.25553E-02
    9054.539     60.907   4.200  1.04661E+00  9.88049E-01  5.85620E-02
    9055.825     62.193   4.240  1.04125E+00  9.87967E-01  5.32878E-02
    9057.124     63.492   4.280  1.03471E+00  9.87926E-01  4.67848E-02
    9058.434     64.802   4.320  1.02737E+00  9.87948E-01  3.94186E-02
    9059.757     66.125   4.360  1.01978E+00  9.88011E-01  3.17686E-02
    9061.092     67.460   4.400  1.01255E+00  9.88092E-01  2.44565E-02
    9062.439     68.807   4.440  1.00619E+00  9.88231E-01  1.79559E-02
    9063.799     70.167   4.480  1.00085E+00  9.88386E-01  1.24627E-02
    9065.170     71.538   4.520  9.96495E-01  9.88576E-01  7.91841E-03
    9066.554     72.922   4.560  9.92871E-01  9.88804E-01  4.06709E-03
    9067.950     74.318   4.600  9.89618E-01  9.89069E-01  5.49358E-04
    9069.358     75.726   4.640  9.86394E-01  9.89365E-01 -2.97132E-03
    9070.779     77.147   4.680  9.82957E-01  9.89671E-01 -6.71417E-03
    9072.211     78.579   4.720  9.79192E-01  9.89985E-01 -1.07931E-02
    9073.656     80.024   4.760  9.75137E-01  9.90328E-01 -1.51909E-02
    9075.113     81.481   4.800  9.70969E-01  9.90699E-01 -1.97301E-02
    9076.582     82.950   4.840  9.66915E-01  9.91054E-01 -2.41387E-02
    9078.063     84.431   4.880  9.63313E-01  9.91434E-01 -2.81212E-02
    9079.557     85.925   4.920  9.60385E-01  9.91817E-01 -3.14328E-02
    9081.063     87.431   4.960  9.58256E-01  9.92224E-01 -3.39688E-02
    9082.580     88.948   5.000  9.56901E-01  9.92608E-01 -3.57072E-02
    9084.111     90.479   5.040  9.56310E-01  9.92988E-01 -3.66787E-02
    9085.653     92.021   5.080  9.56437E-01  9.93366E-01 -3.69285E-02
    9087.207     93.575   5.120  9.57245E-01  9.93738E-01 -3.64933E-02
    9088.774     95.142   5.160  9.58628E-01  9.94082E-01 -3.54544E-02
    9090.353     96.721   5.200  9.60532E-01  9.94420E-01 -3.38878E-02
    9091.944     98.312   5.240  9.62823E-01  9.94749E-01 -3.19259E-02
    9093.547     99.915   5.280  9.65341E-01  9.95049E-01 -2.97082E-02
    9095.163    101.531   5.320  9.68019E-01  9.95338E-01 -2.73191E-02
    9096.790    103.158   5.360  9.70822E-01  9.95595E-01 -2.47738E-02
    9098.430    104.798   5.400  9.73736E-01  9.95841E-01 -2.21052E-02
    9100.082    106.450   5.440  9.76603E-01  9.96053E-01 -1.94497E-02
    9101.746    108.114   5.480  9.79209E-01  9.96227E-01 -1.70186E-02
    9103.423    109.791   5.520  9.81370E-01  9.96387E-01 -1.50171E-02
    9105.111    111.479   5.560  9.82940E-01  9.96489E-01 -1.35493E-02
    9106.812    113.180   5.600  9.84006E-01  9.96574E-01 -1.25687E-02
    9108.525    114.893   5.640  9.84764E-01  9.96623E-01 -1.18591E-02
    9110.250    116.618   5.680  9.85556E-01  9.96634E-01 -1.10786E-02
    9111.987    118.355   5.720  9.86797E-01  9.96630E-01 -9.83287E-03
    9113.737    120.105   5.760  9.88827E-01  9.96565E-01 -7.73820E-03
    9115.499    121.867   5.800  9.91941E-01  9.96461E-01 -4.52026E-03
    9117.273    123.641   5.840  9.96227E-01  9.96343E-01 -1.16074E-04
    9119.059    125.427   5.880  1.00146E+00  9.96189E-01  5.27129E-03
    9120.857    127.225   5.920  1.00718E+00  9.95973E-01  1.12091E-02
    9122.668    129.036   5.960  1.01281E+00  9.95742E-01  1.70631E-02
    9124.490    130.858   6.000  1.01756E+00  9.95454E-01  2.21068E-02
