# # comment:                                                     FEFF 9.9.1  
# # Source:
# # Structure
# # Reduced
# # space
# # abc:
# # angles:
# # sites:
# # POT  SCF 100  7.0000   0, screened core-hole, AFOLP (folp(0)= 1.150)
# # Abs   Z=29 Rmt= 1.206 Rnm= 1.307 K  shell
# # Pot 1 Z= 3 Rmt= 1.268 Rnm= 1.316
# # Pot 2 Z=26 Rmt= 1.274 Rnm= 1.379
# # Pot 3 Z=29 Rmt= 1.215 Rnm= 1.312
# # Pot 4 Z= 8 Rmt= 1.017 Rnm= 1.103
# # Gam_ch=1.729E+00 H-L exch Vi= 0.000E+00 Vr= 0.000E+00
# # Mu=-1.103E+01eV kf=2.136E+00 Vint=-1.738E+01eV Rs_int= 1.698
# FMS rfms= 9.0000
# # PATH  Rmax=-1.000,  Keep_limit= 0.00, Heap_limit 0.00  Pwcrit= 2.50%
#  S02=0.950  Temp=   0.00  Debye_temp=   0.00  Global_sig2= 0.00000
#  Energy zero shift, vr, vi    0.00000E+00   0.00000E+00
#  Curved wave amplitude ratio filter   4.000%
#     file         sig2 tot  cw amp ratio   deg  nlegs   reff  inp sig2
#     0/   0 paths used
#  xsedge+ 50, used to normalize mu           2.4884E-04
#  -----------------------------------------------------------------------
#  omega    e    k    mu    mu0     chi     @#
    8984.158    -14.842  -1.000  2.86928E-02  4.49750E-02 -1.62822E-02
    8984.456    -14.544  -0.960  2.99704E-02  4.79663E-02 -1.79958E-02
    8984.743    -14.257  -0.920  3.13396E-02  5.12666E-02 -1.99270E-02
    8985.017    -13.983  -0.880  3.28118E-02  5.49194E-02 -2.21076E-02
    8985.279    -13.721  -0.840  3.44007E-02  5.89750E-02 -2.45743E-02
    8985.529    -13.471  -0.800  3.61223E-02  6.34914E-02 -2.73692E-02
    8985.767    -13.233  -0.760  3.79952E-02  6.85352E-02 -3.05400E-02
    8985.993    -13.007  -0.720  4.00406E-02  7.41809E-02 -3.41403E-02
    8986.206    -12.794  -0.680  4.22822E-02  8.05105E-02 -3.82282E-02
    8986.407    -12.593  -0.640  4.47449E-02  8.76099E-02 -4.28650E-02
    8986.596    -12.404  -0.600  4.74528E-02  9.55630E-02 -4.81102E-02
    8986.773    -12.227  -0.560  5.04248E-02  1.04440E-01 -5.40156E-02
    8986.937    -12.063  -0.520  5.36686E-02  1.14283E-01 -6.06142E-02
    8987.090    -11.910  -0.480  5.71712E-02  1.25077E-01 -6.79057E-02
    8987.230    -11.770  -0.440  6.08890E-02  1.36729E-01 -7.58402E-02
    8987.358    -11.642  -0.400  6.47409E-02  1.49042E-01 -8.43015E-02
    8987.474    -11.526  -0.360  6.86091E-02  1.61709E-01 -9.30996E-02
    8987.577    -11.423  -0.320  7.23525E-02  1.74328E-01 -1.01976E-01
    8987.669    -11.331  -0.280  7.58302E-02  1.86456E-01 -1.10626E-01
    8987.748    -11.252  -0.240  7.89267E-02  1.97661E-01 -1.18734E-01
    8987.815    -11.185  -0.200  8.15671E-02  2.07579E-01 -1.26011E-01
    8987.870    -11.130  -0.160  8.37165E-02  2.15937E-01 -1.32220E-01
    8987.913    -11.087  -0.120  8.53672E-02  2.22557E-01 -1.37190E-01
    8987.943    -11.057  -0.080  8.65250E-02  2.27336E-01 -1.40811E-01
    8987.968    -11.032   0.000  8.74194E-02  2.31182E-01 -1.43762E-01
    8988.022    -10.978   0.120  8.96866E-02  2.39867E-01 -1.50180E-01
    8988.065    -10.935   0.160  9.13785E-02  2.46641E-01 -1.55262E-01
    8988.120    -10.880   0.200  9.34865E-02  2.55321E-01 -1.61835E-01
    8988.187    -10.813   0.240  9.59668E-02  2.65821E-01 -1.69854E-01
    8988.266    -10.734   0.280  9.87804E-02  2.77969E-01 -1.79189E-01
    8988.358    -10.642   0.320  1.01922E-01  2.91510E-01 -1.89588E-01
    8988.461    -10.539   0.360  1.05466E-01  3.06120E-01 -2.00654E-01
    8988.577    -10.423   0.400  1.09599E-01  3.21453E-01 -2.11854E-01
    8988.705    -10.295   0.440  1.14629E-01  3.37184E-01 -2.22555E-01
    8988.845    -10.155   0.480  1.20991E-01  3.53083E-01 -2.32092E-01
    8988.998    -10.002   0.520  1.29044E-01  3.68974E-01 -2.39931E-01
    8989.162     -9.838   0.560  1.38978E-01  3.84768E-01 -2.45789E-01
    8989.339     -9.661   0.600  1.50358E-01  4.00478E-01 -2.50121E-01
    8989.528     -9.472   0.640  1.61650E-01  4.16124E-01 -2.54474E-01
    8989.729     -9.271   0.680  1.70142E-01  4.31761E-01 -2.61620E-01
    8989.943     -9.057   0.720  1.73109E-01  4.47417E-01 -2.74307E-01
    8990.168     -8.832   0.760  1.69920E-01  4.63172E-01 -2.93253E-01
    8990.406     -8.594   0.800  1.62684E-01  4.79066E-01 -3.16381E-01
    8990.656     -8.344   0.840  1.54958E-01  4.95103E-01 -3.40145E-01
    8990.918     -8.082   0.880  1.49904E-01  5.11322E-01 -3.61417E-01
    8991.192     -7.808   0.920  1.49407E-01  5.27749E-01 -3.78341E-01
    8991.479     -7.521   0.960  1.54250E-01  5.44343E-01 -3.90093E-01
    8991.778     -7.222   1.000  1.65052E-01  5.61116E-01 -3.96064E-01
    8992.089     -6.912   1.040  1.82777E-01  5.78051E-01 -3.95275E-01
    8992.412     -6.588   1.080  2.09074E-01  5.95129E-01 -3.86055E-01
    8992.747     -6.253   1.120  2.46996E-01  6.12302E-01 -3.65305E-01
    8993.094     -5.906   1.160  3.00675E-01  6.29520E-01 -3.28845E-01
    8993.454     -5.546   1.200  3.70255E-01  6.46791E-01 -2.76536E-01
    8993.826     -5.174   1.240  4.39391E-01  6.64017E-01 -2.24626E-01
    8994.210     -4.790   1.280  4.74598E-01  6.81202E-01 -2.06605E-01
    8994.606     -4.394   1.320  4.60461E-01  6.98266E-01 -2.37805E-01
    8995.015     -3.985   1.360  4.27495E-01  7.15168E-01 -2.87673E-01
    8995.435     -3.565   1.400  4.10150E-01  7.31868E-01 -3.21718E-01
    8995.868     -3.132   1.440  4.12388E-01  7.48325E-01 -3.35936E-01
    8996.313     -2.687   1.480  4.28044E-01  7.64457E-01 -3.36413E-01
    8996.770     -2.230   1.520  4.58538E-01  7.80266E-01 -3.21728E-01
    8997.240     -1.760   1.560  5.08254E-01  7.95713E-01 -2.87459E-01
    8997.721     -1.279   1.600  5.81054E-01  8.10718E-01 -2.29664E-01
    8998.215     -0.785   1.640  6.82302E-01  8.25266E-01 -1.42964E-01
    8998.721     -0.279   1.680  7.98987E-01  8.39342E-01 -4.03553E-02
    8999.239      0.239   1.720  8.80560E-01  8.52891E-01  2.76687E-02
    8999.769      0.769   1.760  8.94988E-01  8.65903E-01  2.90847E-02
    9000.312      1.312   1.800  8.75310E-01  8.78348E-01 -3.03818E-03
    9000.867      1.867   1.840  8.66720E-01  8.90217E-01 -2.34969E-02
    9001.434      2.434   1.880  8.90202E-01  9.01505E-01 -1.13024E-02
    9002.013      3.013   1.920  9.46092E-01  9.12188E-01  3.39035E-02
    9002.604      3.604   1.960  1.02387E+00  9.22264E-01  1.01609E-01
    9003.208      4.208   2.000  1.10701E+00  9.31751E-01  1.75259E-01
    9003.823      4.823   2.040  1.18231E+00  9.40612E-01  2.41698E-01
    9004.451      5.451   2.080  1.24643E+00  9.48888E-01  2.97541E-01
    9005.091      6.091   2.120  1.29731E+00  9.56564E-01  3.40745E-01
    9005.743      6.743   2.160  1.32428E+00  9.63664E-01  3.60619E-01
    9006.408      7.408   2.200  1.32511E+00  9.70174E-01  3.54941E-01
    9007.085      8.085   2.240  1.31866E+00  9.76144E-01  3.42516E-01
    9007.773      8.773   2.280  1.32958E+00  9.81583E-01  3.47998E-01
    9008.474      9.474   2.320  1.35765E+00  9.86498E-01  3.71157E-01
    9009.188     10.188   2.360  1.36568E+00  9.90920E-01  3.74765E-01
    9009.913     10.913   2.400  1.31188E+00  9.94840E-01  3.17041E-01
    9010.651     11.651   2.440  1.20381E+00  9.98329E-01  2.05478E-01
    9011.401     12.401   2.480  1.08832E+00  1.00138E+00  8.69403E-02
    9012.163     13.163   2.520  1.00436E+00  1.00400E+00  3.63825E-04
    9012.937     13.937   2.560  9.76852E-01  1.00626E+00 -2.94089E-02
    9013.723     14.723   2.600  9.84931E-01  1.00814E+00 -2.32066E-02
    9014.522     15.522   2.640  1.00458E+00  1.00966E+00 -5.08634E-03
    9015.332     16.332   2.680  1.02385E+00  1.01088E+00  1.29637E-02
    9016.155     17.155   2.720  1.03557E+00  1.01180E+00  2.37730E-02
    9016.991     17.991   2.760  1.03713E+00  1.01245E+00  2.46790E-02
    9017.838     18.838   2.800  1.02944E+00  1.01285E+00  1.65874E-02
    9018.697     19.697   2.840  1.01683E+00  1.01300E+00  3.83093E-03
    9019.569     20.569   2.880  1.00328E+00  1.01296E+00 -9.67675E-03
    9020.453     21.453   2.920  9.90842E-01  1.01272E+00 -2.18822E-02
    9021.349     22.349   2.960  9.80266E-01  1.01232E+00 -3.20530E-02
    9022.257     23.257   3.000  9.71713E-01  1.01174E+00 -4.00223E-02
    9023.178     24.178   3.040  9.64934E-01  1.01104E+00 -4.61084E-02
    9024.111     25.111   3.080  9.58891E-01  1.01023E+00 -5.13382E-02
    9025.056     26.056   3.120  9.51548E-01  1.00930E+00 -5.77521E-02
    9026.013     27.013   3.160  9.41487E-01  1.00829E+00 -6.67981E-02
    9026.982     27.982   3.200  9.29291E-01  1.00719E+00 -7.78999E-02
    9027.963     28.963   3.240  9.16910E-01  1.00602E+00 -8.91115E-02
    9028.957     29.957   3.280  9.06181E-01  1.00481E+00 -9.86262E-02
    9029.963     30.963   3.320  8.97968E-01  1.00358E+00 -1.05608E-01
    9030.981     31.981   3.360  8.92259E-01  1.00231E+00 -1.10050E-01
    9032.011     33.011   3.400  8.88392E-01  1.00101E+00 -1.12620E-01
    9033.053     34.053   3.440  8.85995E-01  9.99709E-01 -1.13714E-01
    9034.108     35.108   3.480  8.84953E-01  9.98427E-01 -1.13473E-01
    9035.175     36.175   3.520  8.85119E-01  9.97127E-01 -1.12008E-01
    9036.254     37.254   3.560  8.86320E-01  9.95855E-01 -1.09535E-01
    9037.345     38.345   3.600  8.88624E-01  9.94614E-01 -1.05991E-01
    9038.448     39.448   3.640  8.92302E-01  9.93386E-01 -1.01083E-01
    9039.564     40.564   3.680  8.97572E-01  9.92195E-01 -9.46228E-02
    9040.692     41.692   3.720  9.04399E-01  9.91065E-01 -8.66655E-02
    9041.832     42.832   3.760  9.12497E-01  9.89955E-01 -7.74576E-02
    9042.984     43.984   3.800  9.21588E-01  9.88907E-01 -6.73190E-02
    9044.148     45.148   3.840  9.31464E-01  9.87904E-01 -5.64397E-02
    9045.325     46.325   3.880  9.42255E-01  9.86945E-01 -4.46902E-02
    9046.513     47.513   3.920  9.54262E-01  9.86034E-01 -3.17717E-02
    9047.714     48.714   3.960  9.67784E-01  9.85212E-01 -1.74283E-02
    9048.927     49.927   4.000  9.82785E-01  9.84419E-01 -1.63359E-03
    9050.153     51.153   4.040  9.98982E-01  9.83694E-01  1.52881E-02
    9051.390     52.390   4.080  1.01553E+00  9.83042E-01  3.24927E-02
    9052.640     53.640   4.120  1.03130E+00  9.82441E-01  4.88614E-02
    9053.902     54.902   4.160  1.04519E+00  9.81911E-01  6.32743E-02
    9055.176     56.176   4.200  1.05644E+00  9.81453E-01  7.49903E-02
    9056.462     57.462   4.240  1.06507E+00  9.81046E-01  8.40253E-02
    9057.760     58.760   4.280  1.07184E+00  9.80708E-01  9.11298E-02
    9059.071     60.071   4.320  1.07762E+00  9.80418E-01  9.72002E-02
    9060.394     61.394   4.360  1.08288E+00  9.80175E-01  1.02709E-01
    9061.729     62.729   4.400  1.08743E+00  9.80002E-01  1.07426E-01
    9063.076     64.076   4.440  1.09039E+00  9.79899E-01  1.10488E-01
    9064.436     65.436   4.480  1.09050E+00  9.79842E-01  1.10663E-01
    9065.807     66.807   4.520  1.08648E+00  9.79828E-01  1.06649E-01
    9067.191     68.191   4.560  1.07733E+00  9.79858E-01  9.74700E-02
    9068.587     69.587   4.600  1.06285E+00  9.79952E-01  8.28962E-02
    9069.995     70.995   4.640  1.04386E+00  9.80067E-01  6.37906E-02
    9071.415     72.415   4.680  1.02234E+00  9.80243E-01  4.21012E-02
    9072.848     73.848   4.720  1.00075E+00  9.80459E-01  2.02874E-02
    9074.293     75.293   4.760  9.81353E-01  9.80690E-01  6.62446E-04
    9075.750     76.750   4.800  9.65802E-01  9.80980E-01 -1.51774E-02
    9077.219     78.219   4.840  9.54742E-01  9.81283E-01 -2.65410E-02
    9078.700     79.700   4.880  9.48091E-01  9.81619E-01 -3.35279E-02
    9080.194     81.194   4.920  9.45126E-01  9.81965E-01 -3.68387E-02
    9081.699     82.699   4.960  9.44924E-01  9.82343E-01 -3.74186E-02
    9083.217     84.217   5.000  9.46677E-01  9.82750E-01 -3.60737E-02
    9084.747     85.747   5.040  9.50048E-01  9.83164E-01 -3.31165E-02
    9086.290     87.290   5.080  9.55143E-01  9.83581E-01 -2.84383E-02
    9087.844     88.844   5.120  9.62043E-01  9.83999E-01 -2.19561E-02
    9089.411     90.411   5.160  9.70454E-01  9.84419E-01 -1.39655E-02
    9090.990     91.990   5.200  9.79711E-01  9.84862E-01 -5.15100E-03
    9092.581     93.581   5.240  9.88910E-01  9.85280E-01  3.63002E-03
    9094.184     95.184   5.280  9.97295E-01  9.85694E-01  1.16011E-02
    9095.799     96.799   5.320  1.00423E+00  9.86105E-01  1.81263E-02
    9097.427     98.427   5.360  1.00909E+00  9.86510E-01  2.25832E-02
    9099.067    100.067   5.400  1.01100E+00  9.86887E-01  2.41097E-02
    9100.719    101.719   5.440  1.00902E+00  9.87254E-01  2.17676E-02
    9102.383    103.383   5.480  1.00274E+00  9.87590E-01  1.51532E-02
    9104.059    105.059   5.520  9.92776E-01  9.87916E-01  4.86040E-03
    9105.748    106.748   5.560  9.80528E-01  9.88209E-01 -7.68146E-03
    9107.449    108.449   5.600  9.67735E-01  9.88492E-01 -2.07569E-02
    9109.162    110.162   5.640  9.55850E-01  9.88739E-01 -3.28886E-02
    9110.887    111.887   5.680  9.45782E-01  9.88949E-01 -4.31662E-02
    9112.624    113.624   5.720  9.37755E-01  9.89121E-01 -5.13668E-02
    9114.374    115.374   5.760  9.31555E-01  9.89280E-01 -5.77242E-02
    9116.135    117.135   5.800  9.26817E-01  9.89378E-01 -6.25603E-02
    9117.909    118.909   5.840  9.23377E-01  9.89460E-01 -6.60829E-02
    9119.696    120.696   5.880  9.21023E-01  9.89507E-01 -6.84843E-02
    9121.494    122.494   5.920  9.19595E-01  9.89515E-01 -6.99197E-02
    9123.304    124.304   5.960  9.19291E-01  9.89479E-01 -7.01880E-02
    9125.127    126.127   6.000  9.21282E-01  9.89383E-01 -6.81009E-02
