# # comment:                                                     FEFF 9.9.1  
# # Source:
# # Structure
# # Reduced
# # space
# # abc:
# # angles:
# # sites:
# # POT  SCF 100  7.0000   0, screened core-hole, AFOLP (folp(0)= 1.150)
# # Abs   Z=29 Rmt= 1.241 Rnm= 1.331 K  shell
# # Pot 1 Z=56 Rmt= 2.000 Rnm= 2.069
# # Pot 2 Z=29 Rmt= 1.242 Rnm= 1.333
# # Pot 3 Z=14 Rmt= 0.992 Rnm= 1.210
# # Pot 4 Z= 8 Rmt= 0.952 Rnm= 1.077
# # Gam_ch=1.729E+00 H-L exch Vi= 0.000E+00 Vr= 0.000E+00
# # Mu=-8.213E+00eV kf=2.330E+00 Vint=-1.809E+01eV Rs_int= 1.557
# FMS rfms= 9.0000
# # PATH  Rmax=-1.000,  Keep_limit= 0.00, Heap_limit 0.00  Pwcrit= 2.50%
#  S02=0.950  Temp=   0.00  Debye_temp=   0.00  Global_sig2= 0.00000
#  Energy zero shift, vr, vi    0.00000E+00   0.00000E+00
#  Curved wave amplitude ratio filter   4.000%
#     file         sig2 tot  cw amp ratio   deg  nlegs   reff  inp sig2
#     0/   0 paths used
#  xsedge+ 50, used to normalize mu           2.5097E-04
#  -----------------------------------------------------------------------
#  omega    e    k    mu    mu0     chi     @#
    8983.605    -12.023  -1.000  3.10998E-02  4.58925E-02 -1.47928E-02
    8983.904    -11.724  -0.960  3.25282E-02  4.90724E-02 -1.65443E-02
    8984.190    -11.438  -0.920  3.40475E-02  5.25974E-02 -1.85498E-02
    8984.465    -11.163  -0.880  3.56661E-02  5.65179E-02 -2.08518E-02
    8984.727    -10.901  -0.840  3.73930E-02  6.08927E-02 -2.34997E-02
    8984.977    -10.651  -0.800  3.92382E-02  6.57898E-02 -2.65516E-02
    8985.215    -10.414  -0.760  4.12129E-02  7.12874E-02 -3.00745E-02
    8985.440    -10.188  -0.720  4.33289E-02  7.74737E-02 -3.41448E-02
    8985.654     -9.975  -0.680  4.55985E-02  8.44458E-02 -3.88473E-02
    8985.855     -9.773  -0.640  4.80339E-02  9.23063E-02 -4.42723E-02
    8986.044     -9.584  -0.600  5.06458E-02  1.01156E-01 -5.05099E-02
    8986.220     -9.408  -0.560  5.34412E-02  1.11080E-01 -5.76387E-02
    8986.385     -9.243  -0.520  5.64208E-02  1.22130E-01 -6.57090E-02
    8986.537     -9.091  -0.480  5.95742E-02  1.34293E-01 -7.47188E-02
    8986.678     -8.951  -0.440  6.28761E-02  1.47463E-01 -8.45868E-02
    8986.806     -8.822  -0.400  6.62817E-02  1.61411E-01 -9.51295E-02
    8986.921     -8.707  -0.360  6.97254E-02  1.75779E-01 -1.06053E-01
    8987.025     -8.603  -0.320  7.31236E-02  1.90100E-01 -1.16976E-01
    8987.117     -8.512  -0.280  7.63821E-02  2.03857E-01 -1.27475E-01
    8987.196     -8.432  -0.240  7.94061E-02  2.16554E-01 -1.37148E-01
    8987.263     -8.365  -0.200  8.21092E-02  2.27773E-01 -1.45663E-01
    8987.318     -8.310  -0.160  8.44192E-02  2.37209E-01 -1.52790E-01
    8987.360     -8.268  -0.120  8.62802E-02  2.44669E-01 -1.58389E-01
    8987.391     -8.237  -0.080  8.76526E-02  2.50044E-01 -1.62391E-01
    8987.415     -8.213   0.000  8.88103E-02  2.54363E-01 -1.65553E-01
    8987.470     -8.158   0.120  9.14249E-02  2.64094E-01 -1.72669E-01
    8987.513     -8.115   0.160  9.34262E-02  2.71657E-01 -1.78231E-01
    8987.568     -8.060   0.200  9.60069E-02  2.81333E-01 -1.85326E-01
    8987.635     -7.993   0.240  9.91591E-02  2.92950E-01 -1.93791E-01
    8987.714     -7.914   0.280  1.02897E-01  3.06296E-01 -2.03399E-01
    8987.805     -7.823   0.320  1.07228E-01  3.21052E-01 -2.13824E-01
    8987.909     -7.719   0.360  1.12086E-01  3.36759E-01 -2.24672E-01
    8988.025     -7.603   0.400  1.17449E-01  3.52968E-01 -2.35519E-01
    8988.153     -7.475   0.440  1.23305E-01  3.69315E-01 -2.46010E-01
    8988.293     -7.335   0.480  1.29605E-01  3.85425E-01 -2.55820E-01
    8988.445     -7.183   0.520  1.36418E-01  4.01140E-01 -2.64722E-01
    8988.610     -7.018   0.560  1.43933E-01  4.16352E-01 -2.72419E-01
    8988.787     -6.841   0.600  1.52479E-01  4.31056E-01 -2.78578E-01
    8988.976     -6.652   0.640  1.62534E-01  4.45284E-01 -2.82750E-01
    8989.177     -6.451   0.680  1.74708E-01  4.59132E-01 -2.84424E-01
    8989.390     -6.238   0.720  1.89569E-01  4.72652E-01 -2.83083E-01
    8989.616     -6.012   0.760  2.07599E-01  4.85954E-01 -2.78355E-01
    8989.854     -5.775   0.800  2.28822E-01  4.99122E-01 -2.70300E-01
    8990.104     -5.525   0.840  2.52598E-01  5.12187E-01 -2.59589E-01
    8990.366     -5.262   0.880  2.77528E-01  5.25232E-01 -2.47704E-01
    8990.640     -4.988   0.920  3.01431E-01  5.38267E-01 -2.36836E-01
    8990.927     -4.702   0.960  3.22533E-01  5.51353E-01 -2.28821E-01
    8991.225     -4.403   1.000  3.40699E-01  5.64507E-01 -2.23808E-01
    8991.536     -4.092   1.040  3.57534E-01  5.77731E-01 -2.20196E-01
    8991.859     -3.769   1.080  3.75451E-01  5.91046E-01 -2.15594E-01
    8992.194     -3.434   1.120  3.97199E-01  6.04445E-01 -2.07246E-01
    8992.542     -3.086   1.160  4.24518E-01  6.17937E-01 -1.93420E-01
    8992.902     -2.727   1.200  4.51860E-01  6.31490E-01 -1.79630E-01
    8993.273     -2.355   1.240  4.66692E-01  6.45123E-01 -1.78431E-01
    8993.658     -1.971   1.280  4.66752E-01  6.58797E-01 -1.92045E-01
    8994.054     -1.574   1.320  4.63393E-01  6.72508E-01 -2.09115E-01
    8994.462     -1.166   1.360  4.67587E-01  6.86210E-01 -2.18623E-01
    8994.883     -0.745   1.400  4.83411E-01  6.99918E-01 -2.16506E-01
    8995.316     -0.313   1.440  5.11366E-01  7.13581E-01 -2.02215E-01
    8995.761      0.132   1.480  5.51894E-01  7.27191E-01 -1.75298E-01
    8996.218      0.590   1.520  6.01526E-01  7.40700E-01 -1.39174E-01
    8996.687      1.059   1.560  6.54681E-01  7.54114E-01 -9.94327E-02
    8997.169      1.541   1.600  7.07257E-01  7.67361E-01 -6.01043E-02
    8997.663      2.034   1.640  7.60638E-01  7.80450E-01 -1.98122E-02
    8998.169      2.540   1.680  8.20242E-01  7.93351E-01  2.68908E-02
    8998.687      3.059   1.720  8.86290E-01  8.06032E-01  8.02584E-02
    8999.217      3.589   1.760  9.57702E-01  8.18458E-01  1.39244E-01
    8999.760      4.131   1.800  1.02476E+00  8.30620E-01  1.94140E-01
    9000.314      4.686   1.840  1.06398E+00  8.42487E-01  2.21490E-01
    9000.881      5.253   1.880  1.06529E+00  8.54027E-01  2.11268E-01
    9001.460      5.832   1.920  1.04664E+00  8.65210E-01  1.81433E-01
    9002.052      6.424   1.960  1.02694E+00  8.76067E-01  1.50868E-01
    9002.655      7.027   2.000  1.01296E+00  8.86509E-01  1.26447E-01
    9003.271      7.643   2.040  1.01218E+00  8.96570E-01  1.15615E-01
    9003.899      8.271   2.080  1.03074E+00  9.06221E-01  1.24522E-01
    9004.539      8.911   2.120  1.06846E+00  9.15456E-01  1.53001E-01
    9005.191      9.563   2.160  1.12145E+00  9.24253E-01  1.97198E-01
    9005.856     10.227   2.200  1.18403E+00  9.32603E-01  2.51427E-01
    9006.532     10.904   2.240  1.24563E+00  9.40506E-01  3.05121E-01
    9007.221     11.593   2.280  1.28502E+00  9.47939E-01  3.37081E-01
    9007.922     12.294   2.320  1.28483E+00  9.54920E-01  3.29914E-01
    9008.635     13.007   2.360  1.24873E+00  9.61450E-01  2.87283E-01
    9009.361     13.733   2.400  1.19555E+00  9.67529E-01  2.28022E-01
    9010.098     14.470   2.440  1.14605E+00  9.73140E-01  1.72906E-01
    9010.848     15.220   2.480  1.11261E+00  9.78305E-01  1.34310E-01
    9011.610     15.982   2.520  1.09565E+00  9.83026E-01  1.12621E-01
    9012.384     16.756   2.560  1.08782E+00  9.87308E-01  1.00515E-01
    9013.171     17.543   2.600  1.07979E+00  9.91179E-01  8.86118E-02
    9013.969     18.341   2.640  1.06592E+00  9.94641E-01  7.12797E-02
    9014.780     19.152   2.680  1.04739E+00  9.97681E-01  4.97141E-02
    9015.603     19.975   2.720  1.02798E+00  1.00034E+00  2.76380E-02
    9016.438     20.810   2.760  1.01203E+00  1.00264E+00  9.39044E-03
    9017.286     21.657   2.800  9.97515E-01  1.00456E+00 -7.04480E-03
    9018.145     22.517   2.840  9.82451E-01  1.00616E+00 -2.37131E-02
    9019.017     23.389   2.880  9.67355E-01  1.00742E+00 -4.00699E-02
    9019.901     24.273   2.920  9.52967E-01  1.00837E+00 -5.54031E-02
    9020.797     25.169   2.960  9.40246E-01  1.00905E+00 -6.88029E-02
    9021.705     26.077   3.000  9.29403E-01  1.00943E+00 -8.00274E-02
    9022.626     26.997   3.040  9.19699E-01  1.00956E+00 -8.98642E-02
    9023.558     27.930   3.080  9.10371E-01  1.00948E+00 -9.91050E-02
    9024.503     28.875   3.120  9.01239E-01  1.00914E+00 -1.07899E-01
    9025.460     29.832   3.160  8.92415E-01  1.00862E+00 -1.16204E-01
    9026.429     30.801   3.200  8.84030E-01  1.00793E+00 -1.23898E-01
    9027.411     31.783   3.240  8.76410E-01  1.00705E+00 -1.30641E-01
    9028.405     32.776   3.280  8.69962E-01  1.00602E+00 -1.36054E-01
    9029.410     33.782   3.320  8.64865E-01  1.00485E+00 -1.39988E-01
    9030.428     34.800   3.360  8.61412E-01  1.00359E+00 -1.42181E-01
    9031.459     35.831   3.400  8.60231E-01  1.00220E+00 -1.41968E-01
    9032.501     36.873   3.440  8.61627E-01  1.00074E+00 -1.39115E-01
    9033.556     37.928   3.480  8.65778E-01  9.99206E-01 -1.33428E-01
    9034.622     38.994   3.520  8.72760E-01  9.97599E-01 -1.24839E-01
    9035.701     40.073   3.560  8.82496E-01  9.95948E-01 -1.13452E-01
    9036.793     41.164   3.600  8.94719E-01  9.94281E-01 -9.95617E-02
    9037.896     42.268   3.640  9.09232E-01  9.92582E-01 -8.33500E-02
    9039.012     43.383   3.680  9.25840E-01  9.90876E-01 -6.50361E-02
    9040.139     44.511   3.720  9.44041E-01  9.89149E-01 -4.51088E-02
    9041.279     45.651   3.760  9.63180E-01  9.87468E-01 -2.42872E-02
    9042.431     46.803   3.800  9.82247E-01  9.85774E-01 -3.52730E-03
    9043.596     47.968   3.840  1.00014E+00  9.84134E-01  1.60031E-02
    9044.772     49.144   3.880  1.01581E+00  9.82511E-01  3.32964E-02
    9045.961     50.333   3.920  1.02855E+00  9.80950E-01  4.75960E-02
    9047.162     51.534   3.960  1.03777E+00  9.79413E-01  5.83614E-02
    9048.375     52.747   4.000  1.04335E+00  9.77964E-01  6.53855E-02
    9049.600     53.972   4.040  1.04551E+00  9.76565E-01  6.89460E-02
    9050.838     55.210   4.080  1.04500E+00  9.75218E-01  6.97804E-02
    9052.087     56.459   4.120  1.04274E+00  9.73967E-01  6.87720E-02
    9053.349     57.721   4.160  1.03966E+00  9.72774E-01  6.68859E-02
    9054.623     58.995   4.200  1.03662E+00  9.71679E-01  6.49444E-02
    9055.910     60.281   4.240  1.03410E+00  9.70644E-01  6.34587E-02
    9057.208     61.580   4.280  1.03219E+00  9.69711E-01  6.24736E-02
    9058.519     62.891   4.320  1.03044E+00  9.68862E-01  6.15755E-02
    9059.842     64.213   4.360  1.02810E+00  9.68094E-01  6.00023E-02
    9061.177     65.548   4.400  1.02440E+00  9.67410E-01  5.69866E-02
    9062.524     66.896   4.440  1.01918E+00  9.66830E-01  5.23451E-02
    9063.883     68.255   4.480  1.01292E+00  9.66335E-01  4.65898E-02
    9065.255     69.627   4.520  1.00664E+00  9.65922E-01  4.07229E-02
    9066.639     71.010   4.560  1.00132E+00  9.65592E-01  3.57303E-02
    9068.035     72.406   4.600  9.97460E-01  9.65367E-01  3.20927E-02
    9069.443     73.815   4.640  9.94949E-01  9.65222E-01  2.97267E-02
    9070.863     75.235   4.680  9.93433E-01  9.65136E-01  2.82963E-02
    9072.296     76.667   4.720  9.92685E-01  9.65152E-01  2.75326E-02
    9073.740     78.112   4.760  9.92547E-01  9.65247E-01  2.72995E-02
    9075.197     79.569   4.800  9.92874E-01  9.65419E-01  2.74551E-02
    9076.666     81.038   4.840  9.93306E-01  9.65647E-01  2.76595E-02
    9078.148     82.520   4.880  9.93333E-01  9.65970E-01  2.73637E-02
    9079.641     84.013   4.920  9.92278E-01  9.66343E-01  2.59349E-02
    9081.147     85.519   4.960  9.89577E-01  9.66764E-01  2.28131E-02
    9082.665     87.037   5.000  9.84899E-01  9.67253E-01  1.76452E-02
    9084.195     88.567   5.040  9.78197E-01  9.67790E-01  1.04074E-02
    9085.737     90.109   5.080  9.69863E-01  9.68390E-01  1.47264E-03
    9087.292     91.664   5.120  9.60587E-01  9.69010E-01 -8.42311E-03
    9088.858     93.230   5.160  9.51249E-01  9.69689E-01 -1.84403E-02
    9090.437     94.809   5.200  9.42493E-01  9.70383E-01 -2.78897E-02
    9092.028     96.400   5.240  9.34739E-01  9.71108E-01 -3.63690E-02
    9093.632     98.003   5.280  9.28286E-01  9.71844E-01 -4.35586E-02
    9095.247     99.619   5.320  9.23237E-01  9.72610E-01 -4.93725E-02
    9096.875    101.246   5.360  9.19978E-01  9.73402E-01 -5.34242E-02
    9098.514    102.886   5.400  9.18856E-01  9.74174E-01 -5.53176E-02
    9100.166    104.538   5.440  9.20056E-01  9.74943E-01 -5.48879E-02
    9101.831    106.202   5.480  9.23275E-01  9.75712E-01 -5.24361E-02
    9103.507    107.879   5.520  9.27776E-01  9.76475E-01 -4.86995E-02
    9105.196    109.567   5.560  9.32607E-01  9.77231E-01 -4.46240E-02
    9106.896    111.268   5.600  9.36902E-01  9.77956E-01 -4.10532E-02
    9108.609    112.981   5.640  9.40410E-01  9.78643E-01 -3.82334E-02
    9110.334    114.706   5.680  9.43267E-01  9.79295E-01 -3.60279E-02
    9112.072    116.444   5.720  9.45922E-01  9.79931E-01 -3.40090E-02
    9113.821    118.193   5.760  9.48801E-01  9.80527E-01 -3.17255E-02
    9115.583    119.955   5.800  9.52180E-01  9.81057E-01 -2.88762E-02
    9117.357    121.729   5.840  9.56143E-01  9.81542E-01 -2.53981E-02
    9119.143    123.515   5.880  9.60443E-01  9.81980E-01 -2.15376E-02
    9120.941    125.313   5.920  9.64680E-01  9.82368E-01 -1.76875E-02
    9122.752    127.124   5.960  9.68609E-01  9.82671E-01 -1.40627E-02
    9124.575    128.947   6.000  9.72632E-01  9.82896E-01 -1.02643E-02
