# # comment:                                                     FEFF 9.9.1  
# # Source:
# # Structure
# # Reduced
# # space
# # abc:
# # angles:
# # sites:
# # POT  SCF 100  7.0000   0, screened core-hole, AFOLP (folp(0)= 1.150)
# # Abs   Z=29 Rmt= 1.192 Rnm= 1.303 K  shell
# # Pot 1 Z=11 Rmt= 1.663 Rnm= 1.687
# # Pot 2 Z=29 Rmt= 1.161 Rnm= 1.280
# # Pot 3 Z= 8 Rmt= 1.009 Rnm= 1.108
# # Gam_ch=1.729E+00 H-L exch Vi= 0.000E+00 Vr= 0.000E+00
# # Mu=-6.648E+00eV kf=2.155E+00 Vint=-1.491E+01eV Rs_int= 1.683
# FMS rfms= 9.0000
# # PATH  Rmax=-1.000,  Keep_limit= 0.00, Heap_limit 0.00  Pwcrit= 2.50%
#  S02=0.950  Temp=   0.00  Debye_temp=   0.00  Global_sig2= 0.00000
#  Energy zero shift, vr, vi    0.00000E+00   0.00000E+00
#  Curved wave amplitude ratio filter   4.000%
#     file         sig2 tot  cw amp ratio   deg  nlegs   reff  inp sig2
#     0/   0 paths used
#  xsedge+ 50, used to normalize mu           2.4281E-04
#  -----------------------------------------------------------------------
#  omega    e    k    mu    mu0     chi     @#
    8983.774    -10.458  -1.000  4.42600E-02  5.96572E-02 -1.53972E-02
    8984.073    -10.160  -0.960  4.71452E-02  6.41092E-02 -1.69640E-02
    8984.359     -9.873  -0.920  5.03509E-02  6.90629E-02 -1.87120E-02
    8984.634     -9.599  -0.880  5.39284E-02  7.45925E-02 -2.06641E-02
    8984.896     -9.337  -0.840  5.79385E-02  8.07844E-02 -2.28460E-02
    8985.146     -9.087  -0.800  6.24520E-02  8.77385E-02 -2.52865E-02
    8985.383     -8.849  -0.760  6.75515E-02  9.55695E-02 -2.80180E-02
    8985.609     -8.623  -0.720  7.33310E-02  1.04407E-01 -3.10759E-02
    8985.822     -8.410  -0.680  7.98954E-02  1.14394E-01 -3.44983E-02
    8986.023     -8.209  -0.640  8.73565E-02  1.25680E-01 -3.83238E-02
    8986.212     -8.020  -0.600  9.58266E-02  1.38415E-01 -4.25883E-02
    8986.389     -7.843  -0.560  1.05405E-01  1.52724E-01 -4.73189E-02
    8986.554     -7.679  -0.520  1.16157E-01  1.68682E-01 -5.25245E-02
    8986.706     -7.526  -0.480  1.28090E-01  1.86273E-01 -5.81831E-02
    8986.846     -7.386  -0.440  1.41116E-01  2.05344E-01 -6.42275E-02
    8986.974     -7.258  -0.400  1.55026E-01  2.25561E-01 -7.05349E-02
    8987.090     -7.142  -0.360  1.69475E-01  2.46401E-01 -7.69262E-02
    8987.194     -7.039  -0.320  1.84004E-01  2.67187E-01 -8.31836E-02
    8987.285     -6.947  -0.280  1.98083E-01  2.87164E-01 -8.90808E-02
    8987.365     -6.868  -0.240  2.11187E-01  3.05605E-01 -9.44188E-02
    8987.432     -6.801  -0.200  2.22856E-01  3.21905E-01 -9.90490E-02
    8987.486     -6.746  -0.160  2.32738E-01  3.35617E-01 -1.02879E-01
    8987.529     -6.703  -0.120  2.40596E-01  3.46456E-01 -1.05860E-01
    8987.560     -6.673  -0.080  2.46287E-01  3.54266E-01 -1.07978E-01
    8987.584     -6.648   0.000  2.50887E-01  3.60540E-01 -1.09652E-01
    8987.639     -6.594   0.120  2.60958E-01  3.74694E-01 -1.13736E-01
    8987.681     -6.551   0.160  2.68860E-01  3.85701E-01 -1.16841E-01
    8987.736     -6.496   0.200  2.78927E-01  3.99721E-01 -1.20795E-01
    8987.803     -6.429   0.240  2.91056E-01  4.16629E-01 -1.25574E-01
    8987.883     -6.350   0.280  3.04866E-01  4.36029E-01 -1.31163E-01
    8987.974     -6.258   0.320  3.19833E-01  4.57429E-01 -1.37595E-01
    8988.078     -6.155   0.360  3.35222E-01  4.80219E-01 -1.44997E-01
    8988.194     -6.039   0.400  3.50124E-01  5.03749E-01 -1.53625E-01
    8988.322     -5.911   0.440  3.63466E-01  5.27382E-01 -1.63916E-01
    8988.462     -5.771   0.480  3.74213E-01  5.50677E-01 -1.76465E-01
    8988.614     -5.618   0.520  3.81212E-01  5.73278E-01 -1.92065E-01
    8988.779     -5.454   0.560  3.83430E-01  5.95065E-01 -2.11634E-01
    8988.956     -5.277   0.600  3.80092E-01  6.15978E-01 -2.35886E-01
    8989.145     -5.088   0.640  3.71109E-01  6.36056E-01 -2.64948E-01
    8989.346     -4.887   0.680  3.57181E-01  6.55401E-01 -2.98220E-01
    8989.559     -4.673   0.720  3.39691E-01  6.74064E-01 -3.34374E-01
    8989.785     -4.448   0.760  3.20586E-01  6.92162E-01 -3.71576E-01
    8990.022     -4.210   0.800  3.01816E-01  7.09754E-01 -4.07938E-01
    8990.272     -3.960   0.840  2.85142E-01  7.26909E-01 -4.41766E-01
    8990.534     -3.698   0.880  2.72296E-01  7.43679E-01 -4.71383E-01
    8990.809     -3.424   0.920  2.64705E-01  7.60079E-01 -4.95374E-01
    8991.095     -3.137   0.960  2.63345E-01  7.76114E-01 -5.12768E-01
    8991.394     -2.838   1.000  2.68826E-01  7.91815E-01 -5.22988E-01
    8991.705     -2.528   1.040  2.81495E-01  8.07143E-01 -5.25647E-01
    8992.028     -2.204   1.080  3.01405E-01  8.22114E-01 -5.20709E-01
    8992.363     -1.869   1.120  3.27924E-01  8.36675E-01 -5.08751E-01
    8992.711     -1.522   1.160  3.60026E-01  8.50830E-01 -4.90804E-01
    8993.070     -1.162   1.200  3.97545E-01  8.64538E-01 -4.66993E-01
    8993.442     -0.790   1.240  4.42072E-01  8.77778E-01 -4.35706E-01
    8993.826     -0.406   1.280  4.96157E-01  8.90546E-01 -3.94389E-01
    8994.222     -0.010   1.320  5.64491E-01  9.02776E-01 -3.38285E-01
    8994.631      0.399   1.360  6.55210E-01  9.14485E-01 -2.59274E-01
    8995.052      0.819   1.400  7.74793E-01  9.25625E-01 -1.50832E-01
    8995.484      1.252   1.440  9.11147E-01  9.36195E-01 -2.50482E-02
    8995.929      1.697   1.480  1.00349E+00  9.46172E-01  5.73151E-02
    8996.387      2.154   1.520  9.91856E-01  9.55532E-01  3.63244E-02
    8996.856      2.624   1.560  9.31456E-01  9.64319E-01 -3.28627E-02
    8997.338      3.105   1.600  9.05748E-01  9.72471E-01 -6.67235E-02
    8997.831      3.599   1.640  9.31907E-01  9.80033E-01 -4.81251E-02
    8998.337      4.105   1.680  9.97838E-01  9.86986E-01  1.08518E-02
    8998.855      4.623   1.720  1.08780E+00  9.93341E-01  9.44610E-02
    8999.386      5.153   1.760  1.18247E+00  9.99102E-01  1.83370E-01
    8999.928      5.696   1.800  1.26258E+00  1.00432E+00  2.58261E-01
    9000.483      6.251   1.840  1.32592E+00  1.00896E+00  3.16957E-01
    9001.050      6.818   1.880  1.38612E+00  1.01308E+00  3.73043E-01
    9001.629      7.397   1.920  1.44088E+00  1.01671E+00  4.24174E-01
    9002.220      7.988   1.960  1.45627E+00  1.01982E+00  4.36456E-01
    9002.824      8.592   2.000  1.40823E+00  1.02248E+00  3.85755E-01
    9003.440      9.207   2.040  1.33311E+00  1.02468E+00  3.08424E-01
    9004.067      9.835   2.080  1.28068E+00  1.02649E+00  2.54188E-01
    9004.708     10.475   2.120  1.25935E+00  1.02790E+00  2.31451E-01
    9005.360     11.127   2.160  1.25268E+00  1.02895E+00  2.23724E-01
    9006.024     11.792   2.200  1.25634E+00  1.02967E+00  2.26673E-01
    9006.701     12.469   2.240  1.28080E+00  1.03008E+00  2.50716E-01
    9007.390     13.157   2.280  1.32392E+00  1.03021E+00  2.93711E-01
    9008.091     13.858   2.320  1.36124E+00  1.03007E+00  3.31167E-01
    9008.804     14.572   2.360  1.35931E+00  1.02970E+00  3.29610E-01
    9009.529     15.297   2.400  1.30194E+00  1.02913E+00  2.72807E-01
    9010.267     16.035   2.440  1.20750E+00  1.02836E+00  1.79139E-01
    9011.017     16.785   2.480  1.11209E+00  1.02743E+00  8.46651E-02
    9011.779     17.547   2.520  1.03716E+00  1.02636E+00  1.08047E-02
    9012.553     18.321   2.560  9.95726E-01  1.02516E+00 -2.94379E-02
    9013.339     19.107   2.600  9.86930E-01  1.02385E+00 -3.69237E-02
    9014.138     19.906   2.640  9.88391E-01  1.02248E+00 -3.40878E-02
    9014.949     20.716   2.680  9.89246E-01  1.02103E+00 -3.17809E-02
    9015.772     21.539   2.720  9.87534E-01  1.01953E+00 -3.19937E-02
    9016.607     22.375   2.760  9.84205E-01  1.01801E+00 -3.38053E-02
    9017.454     23.222   2.800  9.80686E-01  1.01646E+00 -3.57708E-02
    9018.314     24.081   2.840  9.78245E-01  1.01488E+00 -3.66330E-02
    9019.185     24.953   2.880  9.76922E-01  1.01332E+00 -3.63971E-02
    9020.069     25.837   2.920  9.74866E-01  1.01177E+00 -3.68999E-02
    9020.966     26.733   2.960  9.69744E-01  1.01025E+00 -4.05009E-02
    9021.874     27.641   3.000  9.60430E-01  1.00876E+00 -4.83320E-02
    9022.794     28.562   3.040  9.47932E-01  1.00732E+00 -5.93858E-02
    9023.727     29.495   3.080  9.34987E-01  1.00592E+00 -7.09316E-02
    9024.672     30.440   3.120  9.24246E-01  1.00459E+00 -8.03424E-02
    9025.629     31.397   3.160  9.17041E-01  1.00331E+00 -8.62682E-02
    9026.598     32.366   3.200  9.13200E-01  1.00210E+00 -8.89051E-02
    9027.580     33.347   3.240  9.11523E-01  1.00098E+00 -8.94532E-02
    9028.573     34.341   3.280  9.09950E-01  9.99906E-01 -8.99566E-02
    9029.579     35.347   3.320  9.07198E-01  9.98939E-01 -9.17411E-02
    9030.597     36.365   3.360  9.03015E-01  9.98056E-01 -9.50408E-02
    9031.627     37.395   3.400  8.97932E-01  9.97257E-01 -9.93246E-02
    9032.670     38.437   3.440  8.92800E-01  9.96563E-01 -1.03763E-01
    9033.724     39.492   3.480  8.88384E-01  9.95933E-01 -1.07549E-01
    9034.791     40.559   3.520  8.85271E-01  9.95410E-01 -1.10140E-01
    9035.870     41.638   3.560  8.83473E-01  9.94973E-01 -1.11499E-01
    9036.961     42.729   3.600  8.83135E-01  9.94620E-01 -1.11485E-01
    9038.065     43.832   3.640  8.84747E-01  9.94375E-01 -1.09628E-01
    9039.180     44.948   3.680  8.88815E-01  9.94193E-01 -1.05378E-01
    9040.308     46.076   3.720  8.95685E-01  9.94117E-01 -9.84321E-02
    9041.448     47.216   3.760  9.05207E-01  9.94126E-01 -8.89187E-02
    9042.600     48.368   3.800  9.16658E-01  9.94217E-01 -7.75591E-02
    9043.764     49.532   3.840  9.28967E-01  9.94391E-01 -6.54241E-02
    9044.941     50.709   3.880  9.41416E-01  9.94667E-01 -5.32514E-02
    9046.130     51.897   3.920  9.53932E-01  9.95001E-01 -4.10689E-02
    9047.331     53.098   3.960  9.67046E-01  9.95388E-01 -2.83426E-02
    9048.544     54.311   4.000  9.81617E-01  9.95873E-01 -1.42556E-02
    9049.769     55.537   4.040  9.98232E-01  9.96411E-01  1.82026E-03
    9051.006     56.774   4.080  1.01711E+00  9.97021E-01  2.00933E-02
    9052.256     58.024   4.120  1.03781E+00  9.97679E-01  4.01317E-02
    9053.518     59.286   4.160  1.05932E+00  9.98382E-01  6.09426E-02
    9054.792     60.560   4.200  1.08021E+00  9.99151E-01  8.10600E-02
    9056.078     61.846   4.240  1.09886E+00  9.99941E-01  9.89225E-02
    9057.377     63.144   4.280  1.11425E+00  1.00079E+00  1.13461E-01
    9058.687     64.455   4.320  1.12603E+00  1.00168E+00  1.24343E-01
    9060.010     65.778   4.360  1.13439E+00  1.00258E+00  1.31810E-01
    9061.345     67.113   4.400  1.13978E+00  1.00352E+00  1.36260E-01
    9062.692     68.460   4.440  1.14236E+00  1.00446E+00  1.37897E-01
    9064.052     69.820   4.480  1.14202E+00  1.00543E+00  1.36589E-01
    9065.423     71.191   4.520  1.13838E+00  1.00640E+00  1.31976E-01
    9066.807     72.575   4.560  1.13102E+00  1.00738E+00  1.23637E-01
    9068.203     73.971   4.600  1.11963E+00  1.00833E+00  1.11300E-01
    9069.611     75.379   4.640  1.10432E+00  1.00929E+00  9.50262E-02
    9071.032     76.799   4.680  1.08549E+00  1.01026E+00  7.52266E-02
    9072.464     78.232   4.720  1.06396E+00  1.01119E+00  5.27716E-02
    9073.909     79.677   4.760  1.04132E+00  1.01212E+00  2.92070E-02
    9075.366     81.134   4.800  1.01961E+00  1.01300E+00  6.60286E-03
    9076.835     82.603   4.840  1.00068E+00  1.01385E+00 -1.31686E-02
    9078.316     84.084   4.880  9.85572E-01  1.01466E+00 -2.90917E-02
    9079.810     85.578   4.920  9.74162E-01  1.01546E+00 -4.12936E-02
    9081.316     87.083   4.960  9.65455E-01  1.01619E+00 -5.07309E-02
    9082.834     88.601   5.000  9.58570E-01  1.01689E+00 -5.83246E-02
    9084.364     90.131   5.040  9.53328E-01  1.01753E+00 -6.42064E-02
    9085.906     91.674   5.080  9.50528E-01  1.01813E+00 -6.76004E-02
    9087.460     93.228   5.120  9.51287E-01  1.01868E+00 -6.73885E-02
    9089.027     94.795   5.160  9.56319E-01  1.01915E+00 -6.28324E-02
    9090.606     96.374   5.200  9.65718E-01  1.01958E+00 -5.38598E-02
    9092.197     97.965   5.240  9.78807E-01  1.01995E+00 -4.11462E-02
    9093.800     99.568   5.280  9.94260E-01  1.02026E+00 -2.59949E-02
    9095.416    101.183   5.320  1.01029E+00  1.02048E+00 -1.01884E-02
    9097.043    102.811   5.360  1.02512E+00  1.02066E+00  4.46351E-03
    9098.683    104.451   5.400  1.03741E+00  1.02076E+00  1.66523E-02
    9100.335    106.103   5.440  1.04645E+00  1.02081E+00  2.56396E-02
    9101.999    107.767   5.480  1.05156E+00  1.02078E+00  3.07773E-02
    9103.676    109.443   5.520  1.05195E+00  1.02071E+00  3.12415E-02
    9105.364    111.132   5.560  1.04705E+00  1.02056E+00  2.64937E-02
    9107.065    112.833   5.600  1.03735E+00  1.02036E+00  1.69903E-02
    9108.778    114.546   5.640  1.02443E+00  1.02009E+00  4.34207E-03
    9110.503    116.271   5.680  1.01035E+00  1.01977E+00 -9.41797E-03
    9112.241    118.008   5.720  9.96463E-01  1.01941E+00 -2.29434E-02
    9113.990    119.758   5.760  9.82999E-01  1.01897E+00 -3.59742E-02
    9115.752    121.519   5.800  9.69605E-01  1.01850E+00 -4.88910E-02
    9117.526    123.293   5.840  9.56170E-01  1.01798E+00 -6.18085E-02
    9119.312    125.080   5.880  9.43453E-01  1.01742E+00 -7.39679E-02
    9121.110    126.878   5.920  9.33005E-01  1.01680E+00 -8.37987E-02
    9122.921    128.688   5.960  9.26829E-01  1.01618E+00 -8.93493E-02
    9124.743    130.511   6.000  9.27158E-01  1.01548E+00 -8.83267E-02
