# # comment:                                                     FEFF 9.9.1  
# # Source:
# # Structure
# # Reduced
# # space
# # abc:
# # angles:
# # sites:
# # POT  SCF 100  7.0000   0, screened core-hole, AFOLP (folp(0)= 1.150)
# # Abs   Z=29 Rmt= 1.250 Rnm= 1.350 K  shell
# # Pot 1 Z=29 Rmt= 1.261 Rnm= 1.347
# # Pot 2 Z=28 Rmt= 1.373 Rnm= 1.464
# # Pot 3 Z=15 Rmt= 0.915 Rnm= 1.155
# # Pot 4 Z= 8 Rmt= 1.004 Rnm= 1.104
# # Gam_ch=1.729E+00 H-L exch Vi= 0.000E+00 Vr= 0.000E+00
# # Mu=-7.715E+00eV kf=2.297E+00 Vint=-1.612E+01eV Rs_int= 1.579
# FMS rfms= 9.0000
# # PATH  Rmax=-1.000,  Keep_limit= 0.00, Heap_limit 0.00  Pwcrit= 2.50%
#  S02=0.950  Temp=   0.00  Debye_temp=   0.00  Global_sig2= 0.00000
#  Energy zero shift, vr, vi    0.00000E+00   0.00000E+00
#  Curved wave amplitude ratio filter   4.000%
#     file         sig2 tot  cw amp ratio   deg  nlegs   reff  inp sig2
#     0/   0 paths used
#  xsedge+ 50, used to normalize mu           2.4722E-04
#  -----------------------------------------------------------------------
#  omega    e    k    mu    mu0     chi     @#
    8983.472    -11.525  -1.000  3.79327E-02  5.12137E-02 -1.32810E-02
    8983.771    -11.226  -0.960  4.00069E-02  5.48583E-02 -1.48514E-02
    8984.057    -10.940  -0.920  4.22469E-02  5.89020E-02 -1.66551E-02
    8984.331    -10.665  -0.880  4.46703E-02  6.34031E-02 -1.87329E-02
    8984.594    -10.403  -0.840  4.72960E-02  6.84293E-02 -2.11333E-02
    8984.844    -10.153  -0.800  5.01453E-02  7.40591E-02 -2.39138E-02
    8985.081     -9.915  -0.760  5.32406E-02  8.03823E-02 -2.71417E-02
    8985.307     -9.690  -0.720  5.66059E-02  8.75005E-02 -3.08946E-02
    8985.520     -9.477  -0.680  6.02657E-02  9.55256E-02 -3.52599E-02
    8985.721     -9.275  -0.640  6.42431E-02  1.04575E-01 -4.03321E-02
    8985.910     -9.086  -0.600  6.85582E-02  1.14765E-01 -4.62068E-02
    8986.087     -8.910  -0.560  7.32236E-02  1.26193E-01 -5.29697E-02
    8986.252     -8.745  -0.520  7.82391E-02  1.38918E-01 -6.06793E-02
    8986.404     -8.593  -0.480  8.35844E-02  1.52926E-01 -6.93418E-02
    8986.544     -8.452  -0.440  8.92111E-02  1.68094E-01 -7.88829E-02
    8986.672     -8.324  -0.400  9.50364E-02  1.84159E-01 -8.91228E-02
    8986.788     -8.209  -0.360  1.00941E-01  2.00710E-01 -9.97683E-02
    8986.892     -8.105  -0.320  1.06777E-01  2.17210E-01 -1.10433E-01
    8986.983     -8.013  -0.280  1.12379E-01  2.33065E-01 -1.20686E-01
    8987.062     -7.934  -0.240  1.17585E-01  2.47702E-01 -1.30117E-01
    8987.130     -7.867  -0.200  1.22246E-01  2.60641E-01 -1.38395E-01
    8987.184     -7.812  -0.160  1.26237E-01  2.71529E-01 -1.45292E-01
    8987.227     -7.770  -0.120  1.29457E-01  2.80139E-01 -1.50681E-01
    8987.258     -7.739  -0.080  1.31828E-01  2.86343E-01 -1.54515E-01
    8987.282     -7.715   0.000  1.33796E-01  2.91329E-01 -1.57534E-01
    8987.337     -7.660   0.120  1.38352E-01  3.02570E-01 -1.64218E-01
    8987.379     -7.617   0.160  1.41908E-01  3.11312E-01 -1.69403E-01
    8987.434     -7.562   0.200  1.46598E-01  3.22487E-01 -1.75889E-01
    8987.501     -7.495   0.240  1.52535E-01  3.35953E-01 -1.83418E-01
    8987.581     -7.416   0.280  1.59857E-01  3.51429E-01 -1.91572E-01
    8987.672     -7.325   0.320  1.68815E-01  3.68536E-01 -1.99720E-01
    8987.776     -7.221   0.360  1.79764E-01  3.86820E-01 -2.07056E-01
    8987.892     -7.105   0.400  1.93146E-01  4.05736E-01 -2.12591E-01
    8988.020     -6.977   0.440  2.09560E-01  4.24825E-01 -2.15264E-01
    8988.160     -6.837   0.480  2.29619E-01  4.43748E-01 -2.14130E-01
    8988.312     -6.685   0.520  2.53682E-01  4.62241E-01 -2.08558E-01
    8988.477     -6.520   0.560  2.81436E-01  4.80198E-01 -1.98762E-01
    8988.654     -6.343   0.600  3.11371E-01  4.97609E-01 -1.86238E-01
    8988.842     -6.154   0.640  3.40444E-01  5.14486E-01 -1.74042E-01
    8989.044     -5.953   0.680  3.65135E-01  5.30954E-01 -1.65818E-01
    8989.257     -5.740   0.720  3.83520E-01  5.47026E-01 -1.63506E-01
    8989.483     -5.514   0.760  3.97096E-01  5.62837E-01 -1.65741E-01
    8989.720     -5.276   0.800  4.09062E-01  5.78433E-01 -1.69371E-01
    8989.970     -5.026   0.840  4.20716E-01  5.93867E-01 -1.73150E-01
    8990.232     -4.764   0.880  4.30076E-01  6.09198E-01 -1.79122E-01
    8990.507     -4.490   0.920  4.33937E-01  6.24436E-01 -1.90499E-01
    8990.793     -4.204   0.960  4.30698E-01  6.39599E-01 -2.08901E-01
    8991.092     -3.905   1.000  4.22250E-01  6.54715E-01 -2.32465E-01
    8991.403     -3.594   1.040  4.12615E-01  6.69762E-01 -2.57147E-01
    8991.726     -3.271   1.080  4.05472E-01  6.84734E-01 -2.79263E-01
    8992.061     -2.936   1.120  4.03185E-01  6.99637E-01 -2.96452E-01
    8992.409     -2.588   1.160  4.06259E-01  7.14413E-01 -3.08154E-01
    8992.768     -2.228   1.200  4.14841E-01  7.29081E-01 -3.14240E-01
    8993.140     -1.857   1.240  4.29989E-01  7.43574E-01 -3.13585E-01
    8993.524     -1.473   1.280  4.53368E-01  7.57887E-01 -3.04520E-01
    8993.920     -1.076   1.320  4.86296E-01  7.71991E-01 -2.85695E-01
    8994.329     -0.668   1.360  5.28372E-01  7.85856E-01 -2.57484E-01
    8994.749     -0.247   1.400  5.74023E-01  7.99429E-01 -2.25406E-01
    8995.182      0.186   1.440  6.15195E-01  8.12700E-01 -1.97505E-01
    8995.627      0.631   1.480  6.49080E-01  8.25638E-01 -1.76558E-01
    8996.084      1.088   1.520  6.80589E-01  8.38212E-01 -1.57623E-01
    8996.554      1.557   1.560  7.14775E-01  8.50393E-01 -1.35617E-01
    8997.035      2.039   1.600  7.49637E-01  8.62170E-01 -1.12533E-01
    8997.529      2.533   1.640  7.85810E-01  8.73536E-01 -8.77256E-02
    8998.035      3.039   1.680  8.37008E-01  8.84422E-01 -4.74139E-02
    8998.553      3.557   1.720  9.19658E-01  8.94862E-01  2.47959E-02
    8999.084      4.087   1.760  1.03486E+00  9.04832E-01  1.30024E-01
    8999.626      4.630   1.800  1.15995E+00  9.14307E-01  2.45645E-01
    9000.181      5.184   1.840  1.25735E+00  9.23304E-01  3.34050E-01
    9000.748      5.751   1.880  1.31645E+00  9.31783E-01  3.84664E-01
    9001.327      6.330   1.920  1.35446E+00  9.39784E-01  4.14671E-01
    9001.918      6.922   1.960  1.36680E+00  9.47268E-01  4.19533E-01
    9002.522      7.525   2.000  1.34570E+00  9.54276E-01  3.91427E-01
    9003.138      8.141   2.040  1.30387E+00  9.60792E-01  3.43078E-01
    9003.765      8.769   2.080  1.26223E+00  9.66823E-01  2.95407E-01
    9004.406      9.409   2.120  1.23584E+00  9.72391E-01  2.63445E-01
    9005.058     10.061   2.160  1.22342E+00  9.77503E-01  2.45922E-01
    9005.722     10.726   2.200  1.21477E+00  9.82166E-01  2.32607E-01
    9006.399     11.402   2.240  1.19892E+00  9.86408E-01  2.12513E-01
    9007.088     12.091   2.280  1.17511E+00  9.90218E-01  1.84892E-01
    9007.789     12.792   2.320  1.14861E+00  9.93642E-01  1.54967E-01
    9008.502     13.505   2.360  1.12188E+00  9.96671E-01  1.25212E-01
    9009.227     14.231   2.400  1.10012E+00  9.99354E-01  1.00765E-01
    9009.965     14.968   2.440  1.08796E+00  1.00168E+00  8.62820E-02
    9010.715     15.718   2.480  1.08127E+00  1.00370E+00  7.75727E-02
    9011.477     16.480   2.520  1.07131E+00  1.00538E+00  6.59273E-02
    9012.251     17.254   2.560  1.05312E+00  1.00679E+00  4.63255E-02
    9013.037     18.041   2.600  1.02694E+00  1.00795E+00  1.89952E-02
    9013.836     18.839   2.640  9.96860E-01  1.00884E+00 -1.19753E-02
    9014.647     19.650   2.680  9.69578E-01  1.00948E+00 -3.99030E-02
    9015.470     20.473   2.720  9.53595E-01  1.00992E+00 -5.63225E-02
    9016.305     21.308   2.760  9.44911E-01  1.01017E+00 -6.52599E-02
    9017.152     22.155   2.800  9.38796E-01  1.01023E+00 -7.14383E-02
    9018.012     23.015   2.840  9.33370E-01  1.01013E+00 -7.67637E-02
    9018.883     23.887   2.880  9.28290E-01  1.00990E+00 -8.16071E-02
    9019.767     24.771   2.920  9.23909E-01  1.00951E+00 -8.56018E-02
    9020.663     25.667   2.960  9.20648E-01  1.00903E+00 -8.83772E-02
    9021.572     26.575   3.000  9.18312E-01  1.00843E+00 -9.01160E-02
    9022.492     27.496   3.040  9.16782E-01  1.00774E+00 -9.09616E-02
    9023.425     28.428   3.080  9.16045E-01  1.00698E+00 -9.09336E-02
    9024.370     29.373   3.120  9.16091E-01  1.00616E+00 -9.00708E-02
    9025.327     30.330   3.160  9.16815E-01  1.00528E+00 -8.84611E-02
    9026.296     31.299   3.200  9.18147E-01  1.00437E+00 -8.62226E-02
    9027.278     32.281   3.240  9.19797E-01  1.00343E+00 -8.36295E-02
    9028.271     33.275   3.280  9.21187E-01  1.00245E+00 -8.12630E-02
    9029.277     34.280   3.320  9.22048E-01  1.00146E+00 -7.94164E-02
    9030.295     35.298   3.360  9.22393E-01  1.00048E+00 -7.80836E-02
    9031.325     36.329   3.400  9.22608E-01  9.99488E-01 -7.68797E-02
    9032.368     37.371   3.440  9.23347E-01  9.98503E-01 -7.51562E-02
    9033.422     38.426   3.480  9.25356E-01  9.97546E-01 -7.21895E-02
    9034.489     39.492   3.520  9.29106E-01  9.96598E-01 -6.74921E-02
    9035.568     40.571   3.560  9.34540E-01  9.95681E-01 -6.11409E-02
    9036.659     41.663   3.600  9.41351E-01  9.94801E-01 -5.34503E-02
    9037.763     42.766   3.640  9.49034E-01  9.93938E-01 -4.49039E-02
    9038.878     43.882   3.680  9.57200E-01  9.93134E-01 -3.59335E-02
    9040.006     45.009   3.720  9.65618E-01  9.92373E-01 -2.67553E-02
    9041.146     46.149   3.760  9.74245E-01  9.91654E-01 -1.74090E-02
    9042.298     47.301   3.800  9.83090E-01  9.90978E-01 -7.88832E-03
    9043.462     48.466   3.840  9.92130E-01  9.90369E-01  1.76183E-03
    9044.639     49.642   3.880  1.00127E+00  9.89805E-01  1.14643E-02
    9045.828     50.831   3.920  1.01034E+00  9.89288E-01  2.10480E-02
    9047.029     52.032   3.960  1.01912E+00  9.88836E-01  3.02805E-02
    9048.242     53.245   4.000  1.02750E+00  9.88430E-01  3.90666E-02
    9049.467     54.470   4.040  1.03543E+00  9.88072E-01  4.73567E-02
    9050.704     55.708   4.080  1.04278E+00  9.87781E-01  5.49981E-02
    9051.954     56.957   4.120  1.04920E+00  9.87535E-01  6.16678E-02
    9053.216     58.219   4.160  1.05431E+00  9.87335E-01  6.69696E-02
    9054.490     59.493   4.200  1.05784E+00  9.87204E-01  7.06313E-02
    9055.776     60.780   4.240  1.05974E+00  9.87118E-01  7.26195E-02
    9057.075     62.078   4.280  1.06032E+00  9.87098E-01  7.32270E-02
    9058.385     63.389   4.320  1.05985E+00  9.87100E-01  7.27477E-02
    9059.708     64.711   4.360  1.05840E+00  9.87166E-01  7.12306E-02
    9061.043     66.046   4.400  1.05575E+00  9.87275E-01  6.84733E-02
    9062.390     67.394   4.440  1.05159E+00  9.87424E-01  6.41656E-02
    9063.750     68.753   4.480  1.04568E+00  9.87612E-01  5.80726E-02
    9065.121     70.125   4.520  1.03801E+00  9.87839E-01  5.01749E-02
    9066.505     71.508   4.560  1.02889E+00  9.88103E-01  4.07829E-02
    9067.901     72.904   4.600  1.01883E+00  9.88382E-01  3.04496E-02
    9069.309     74.313   4.640  1.00866E+00  9.88715E-01  1.99399E-02
    9070.730     75.733   4.680  9.99108E-01  9.89060E-01  1.00472E-02
    9072.162     77.166   4.720  9.90796E-01  9.89415E-01  1.38038E-03
    9073.607     78.610   4.760  9.84088E-01  9.89802E-01 -5.71330E-03
    9075.064     80.067   4.800  9.78997E-01  9.90218E-01 -1.12206E-02
    9076.533     81.536   4.840  9.75220E-01  9.90639E-01 -1.54184E-02
    9078.014     83.018   4.880  9.72350E-01  9.91064E-01 -1.87142E-02
    9079.508     84.511   4.920  9.70003E-01  9.91492E-01 -2.14895E-02
    9081.014     86.017   4.960  9.67991E-01  9.91942E-01 -2.39519E-02
    9082.532     87.535   5.000  9.66292E-01  9.92373E-01 -2.60806E-02
    9084.062     89.065   5.040  9.65111E-01  9.92822E-01 -2.77106E-02
    9085.604     90.607   5.080  9.64654E-01  9.93247E-01 -2.85928E-02
    9087.158     92.162   5.120  9.65136E-01  9.93666E-01 -2.85299E-02
    9088.725     93.728   5.160  9.66600E-01  9.94079E-01 -2.74787E-02
    9090.304     95.307   5.200  9.68893E-01  9.94463E-01 -2.55705E-02
    9091.895     96.898   5.240  9.71732E-01  9.94840E-01 -2.31086E-02
    9093.498     98.501   5.280  9.74755E-01  9.95208E-01 -2.04525E-02
    9095.114    100.117   5.320  9.77614E-01  9.95543E-01 -1.79288E-02
    9096.741    101.745   5.360  9.80094E-01  9.95844E-01 -1.57499E-02
    9098.381    103.384   5.400  9.82040E-01  9.96133E-01 -1.40929E-02
    9100.033    105.036   5.440  9.83277E-01  9.96388E-01 -1.31114E-02
    9101.697    106.701   5.480  9.83749E-01  9.96629E-01 -1.28801E-02
    9103.374    108.377   5.520  9.83552E-01  9.96811E-01 -1.32585E-02
    9105.062    110.066   5.560  9.83038E-01  9.96977E-01 -1.39389E-02
    9106.763    111.766   5.600  9.82395E-01  9.97106E-01 -1.47112E-02
    9108.476    113.479   5.640  9.81473E-01  9.97195E-01 -1.57222E-02
    9110.201    115.204   5.680  9.79836E-01  9.97245E-01 -1.74090E-02
    9111.938    116.942   5.720  9.77181E-01  9.97255E-01 -2.00739E-02
    9113.688    118.691   5.760  9.73743E-01  9.97229E-01 -2.34858E-02
    9115.450    120.453   5.800  9.70281E-01  9.97185E-01 -2.69040E-02
    9117.224    122.227   5.840  9.67605E-01  9.97080E-01 -2.94758E-02
    9119.010    124.013   5.880  9.66336E-01  9.96937E-01 -3.06005E-02
    9120.808    125.811   5.920  9.66857E-01  9.96779E-01 -2.99218E-02
    9122.619    127.622   5.960  9.69438E-01  9.96557E-01 -2.71190E-02
    9124.441    129.445   6.000  9.74659E-01  9.96270E-01 -2.16114E-02
