# # comment:                                                     FEFF 9.9.1  
# # Source:
# # Structure
# # Reduced
# # space
# # abc:
# # angles:146.090938
# # sites:
# # POT  SCF 100  7.0000   0, screened core-hole, AFOLP (folp(0)= 1.150)
# # Abs   Z=29 Rmt= 1.242 Rnm= 1.321 K  shell
# # Pot 1 Z=59 Rmt= 1.681 Rnm= 1.774
# # Pot 2 Z=29 Rmt= 1.242 Rnm= 1.322
# # Pot 3 Z= 8 Rmt= 1.072 Rnm= 1.123
# # Gam_ch=1.729E+00 H-L exch Vi= 0.000E+00 Vr= 0.000E+00
# # Mu=-8.101E+00eV kf=2.062E+00 Vint=-1.729E+01eV Rs_int= 1.759
# FMS rfms= 9.0000
# # PATH  Rmax=-1.000,  Keep_limit= 0.00, Heap_limit 0.00  Pwcrit= 2.50%
#  S02=0.950  Temp=   0.00  Debye_temp=   0.00  Global_sig2= 0.00000
#  Energy zero shift, vr, vi    0.00000E+00   0.00000E+00
#  Curved wave amplitude ratio filter   4.000%
#     file         sig2 tot  cw amp ratio   deg  nlegs   reff  inp sig2
#     0/   0 paths used
#  xsedge+ 50, used to normalize mu           2.4548E-04
#  -----------------------------------------------------------------------
#  omega    e    k    mu    mu0     chi     @#
    8984.669    -11.911  -1.000  4.27400E-02  5.64961E-02 -1.37561E-02
    8984.968    -11.612  -0.960  4.53949E-02  6.06826E-02 -1.52877E-02
    8985.254    -11.326  -0.920  4.83293E-02  6.53415E-02 -1.70122E-02
    8985.529    -11.051  -0.880  5.15874E-02  7.05427E-02 -1.89553E-02
    8985.791    -10.789  -0.840  5.52216E-02  7.63680E-02 -2.11464E-02
    8986.041    -10.539  -0.800  5.92936E-02  8.29118E-02 -2.36183E-02
    8986.279    -10.302  -0.760  6.38755E-02  9.02829E-02 -2.64074E-02
    8986.504    -10.076  -0.720  6.90502E-02  9.86042E-02 -2.95539E-02
    8986.717     -9.863  -0.680  7.49105E-02  1.08011E-01 -3.31003E-02
    8986.919     -9.662  -0.640  8.15561E-02  1.18646E-01 -3.70898E-02
    8987.108     -9.473  -0.600  8.90876E-02  1.30650E-01 -4.15623E-02
    8987.284     -9.296  -0.560  9.75947E-02  1.44143E-01 -4.65485E-02
    8987.449     -9.131  -0.520  1.07138E-01  1.59197E-01 -5.20597E-02
    8987.601     -8.979  -0.480  1.17722E-01  1.75797E-01 -5.80755E-02
    8987.742     -8.839  -0.440  1.29269E-01  1.93798E-01 -6.45290E-02
    8987.870     -8.711  -0.400  1.41587E-01  2.12883E-01 -7.12959E-02
    8987.985     -8.595  -0.360  1.54364E-01  2.32559E-01 -7.81944E-02
    8988.089     -8.491  -0.320  1.67181E-01  2.52181E-01 -8.50001E-02
    8988.181     -8.400  -0.280  1.79560E-01  2.71036E-01 -9.14759E-02
    8988.260     -8.320  -0.240  1.91033E-01  2.88438E-01 -9.74050E-02
    8988.327     -8.253  -0.200  2.01199E-01  3.03813E-01 -1.02615E-01
    8988.382     -8.199  -0.160  2.09761E-01  3.16743E-01 -1.06982E-01
    8988.424     -8.156  -0.120  2.16537E-01  3.26961E-01 -1.10423E-01
    8988.455     -8.125  -0.080  2.21433E-01  3.34319E-01 -1.12886E-01
    8988.479     -8.101   0.000  2.25415E-01  3.40230E-01 -1.14815E-01
    8988.534     -8.046   0.120  2.33944E-01  3.53549E-01 -1.19605E-01
    8988.577     -8.003   0.160  2.40522E-01  3.63896E-01 -1.23375E-01
    8988.632     -7.949   0.200  2.48803E-01  3.77109E-01 -1.28306E-01
    8988.699     -7.882   0.240  2.58528E-01  3.92981E-01 -1.34453E-01
    8988.778     -7.802   0.280  2.69249E-01  4.11186E-01 -1.41937E-01
    8988.869     -7.711   0.320  2.80285E-01  4.31250E-01 -1.50965E-01
    8988.973     -7.607   0.360  2.90681E-01  4.52583E-01 -1.61901E-01
    8989.089     -7.491   0.400  2.99192E-01  4.74517E-01 -1.75325E-01
    8989.217     -7.363   0.440  3.04637E-01  4.96502E-01 -1.91865E-01
    8989.357     -7.223   0.480  3.06132E-01  5.18054E-01 -2.11921E-01
    8989.509     -7.071   0.520  3.03738E-01  5.38911E-01 -2.35173E-01
    8989.674     -6.906   0.560  2.98574E-01  5.58922E-01 -2.60347E-01
    8989.851     -6.729   0.600  2.92490E-01  5.78031E-01 -2.85541E-01
    8990.040     -6.540   0.640  2.87450E-01  5.96321E-01 -3.08871E-01
    8990.241     -6.339   0.680  2.84735E-01  6.13851E-01 -3.29117E-01
    8990.454     -6.126   0.720  2.84900E-01  6.30720E-01 -3.45820E-01
    8990.680     -5.900   0.760  2.87795E-01  6.47042E-01 -3.59247E-01
    8990.918     -5.663   0.800  2.92537E-01  6.62881E-01 -3.70344E-01
    8991.168     -5.413   0.840  2.97962E-01  6.78329E-01 -3.80367E-01
    8991.430     -5.151   0.880  3.03792E-01  6.93421E-01 -3.89629E-01
    8991.704     -4.876   0.920  3.11455E-01  7.08222E-01 -3.96766E-01
    8991.990     -4.590   0.960  3.23163E-01  7.22737E-01 -3.99575E-01
    8992.289     -4.291   1.000  3.40247E-01  7.36987E-01 -3.96741E-01
    8992.600     -3.980   1.040  3.61908E-01  7.50959E-01 -3.89051E-01
    8992.923     -3.657   1.080  3.84661E-01  7.64693E-01 -3.80031E-01
    8993.258     -3.322   1.120  4.05279E-01  7.78163E-01 -3.72884E-01
    8993.606     -2.974   1.160  4.26534E-01  7.91339E-01 -3.64805E-01
    8993.966     -2.615   1.200  4.53575E-01  8.04226E-01 -3.50652E-01
    8994.337     -2.243   1.240  4.84313E-01  8.16804E-01 -3.32491E-01
    8994.721     -1.859   1.280  5.15474E-01  8.29053E-01 -3.13578E-01
    8995.118     -1.462   1.320  5.51591E-01  8.40951E-01 -2.89360E-01
    8995.526     -1.054   1.360  5.96797E-01  8.52475E-01 -2.55678E-01
    8995.947     -0.633   1.400  6.51220E-01  8.63600E-01 -2.12380E-01
    8996.380     -0.201   1.440  7.17770E-01  8.74323E-01 -1.56553E-01
    8996.825      0.244   1.480  8.00851E-01  8.84620E-01 -8.37697E-02
    8997.282      0.702   1.520  9.02427E-01  8.94488E-01  7.93819E-03
    8997.751      1.171   1.560  1.01882E+00  9.03904E-01  1.14915E-01
    8998.233      1.653   1.600  1.14221E+00  9.12866E-01  2.29340E-01
    8998.727      2.146   1.640  1.27432E+00  9.21355E-01  3.52970E-01
    8999.233      2.652   1.680  1.42619E+00  9.29390E-01  4.96801E-01
    8999.751      3.170   1.720  1.56466E+00  9.36951E-01  6.27708E-01
    9000.281      3.701   1.760  1.60392E+00  9.44040E-01  6.59879E-01
    9000.824      4.243   1.800  1.55312E+00  9.50682E-01  6.02437E-01
    9001.378      4.798   1.840  1.49324E+00  9.56861E-01  5.36384E-01
    9001.945      5.365   1.880  1.44283E+00  9.62580E-01  4.80248E-01
    9002.524      5.944   1.920  1.38265E+00  9.67865E-01  4.14781E-01
    9003.116      6.535   1.960  1.31853E+00  9.72704E-01  3.45829E-01
    9003.719      7.139   2.000  1.27073E+00  9.77144E-01  2.93588E-01
    9004.335      7.755   2.040  1.23666E+00  9.81194E-01  2.55465E-01
    9004.963      8.383   2.080  1.19751E+00  9.84840E-01  2.12674E-01
    9005.603      9.023   2.120  1.14428E+00  9.88111E-01  1.56168E-01
    9006.255      9.675   2.160  1.07881E+00  9.91039E-01  8.77736E-02
    9006.920     10.339   2.200  1.00939E+00  9.93631E-01  1.57558E-02
    9007.596     11.016   2.240  9.47176E-01  9.95896E-01 -4.87207E-02
    9008.285     11.705   2.280  9.02491E-01  9.97887E-01 -9.53966E-02
    9008.986     12.406   2.320  8.84717E-01  9.99572E-01 -1.14855E-01
    9009.699     13.119   2.360  9.02551E-01  1.00102E+00 -9.84678E-02
    9010.425     13.845   2.400  9.56231E-01  1.00220E+00 -4.59681E-02
    9011.162     14.582   2.440  1.03135E+00  1.00316E+00  2.81912E-02
    9011.912     15.332   2.480  1.09614E+00  1.00391E+00  9.22265E-02
    9012.674     16.094   2.520  1.12281E+00  1.00449E+00  1.18319E-01
    9013.448     16.868   2.560  1.12214E+00  1.00489E+00  1.17247E-01
    9014.235     17.654   2.600  1.10764E+00  1.00512E+00  1.02527E-01
    9015.033     18.453   2.640  1.08559E+00  1.00522E+00  8.03643E-02
    9015.844     19.264   2.680  1.05943E+00  1.00519E+00  5.42439E-02
    9016.667     20.087   2.720  1.03213E+00  1.00505E+00  2.70775E-02
    9017.502     20.922   2.760  1.00545E+00  1.00482E+00  6.22051E-04
    9018.349     21.769   2.800  9.79501E-01  1.00449E+00 -2.49923E-02
    9019.209     22.629   2.840  9.54263E-01  1.00410E+00 -4.98409E-02
    9020.081     23.501   2.880  9.29770E-01  1.00366E+00 -7.38918E-02
    9020.965     24.384   2.920  9.06653E-01  1.00315E+00 -9.65021E-02
    9021.861     25.281   2.960  8.86357E-01  1.00263E+00 -1.16270E-01
    9022.769     26.189   3.000  8.69797E-01  1.00206E+00 -1.32266E-01
    9023.690     27.109   3.040  8.56626E-01  1.00147E+00 -1.44839E-01
    9024.622     28.042   3.080  8.46124E-01  1.00086E+00 -1.54737E-01
    9025.567     28.987   3.120  8.37948E-01  1.00028E+00 -1.62329E-01
    9026.524     29.944   3.160  8.32222E-01  9.99672E-01 -1.67450E-01
    9027.493     30.913   3.200  8.29813E-01  9.99091E-01 -1.69277E-01
    9028.475     31.895   3.240  8.31765E-01  9.98517E-01 -1.66752E-01
    9029.469     32.888   3.280  8.38222E-01  9.97974E-01 -1.59752E-01
    9030.474     33.894   3.320  8.48980E-01  9.97442E-01 -1.48462E-01
    9031.492     34.912   3.360  8.63838E-01  9.96965E-01 -1.33127E-01
    9032.523     35.942   3.400  8.82267E-01  9.96504E-01 -1.14237E-01
    9033.565     36.985   3.440  9.03512E-01  9.96080E-01 -9.25676E-02
    9034.620     38.039   3.480  9.26496E-01  9.95694E-01 -6.91980E-02
    9035.686     39.106   3.520  9.49493E-01  9.95348E-01 -4.58554E-02
    9036.765     40.185   3.560  9.70438E-01  9.95043E-01 -2.46048E-02
    9037.857     41.276   3.600  9.88130E-01  9.94781E-01 -6.65065E-03
    9038.960     42.380   3.640  1.00284E+00  9.94583E-01  8.25317E-03
    9040.076     43.495   3.680  1.01568E+00  9.94428E-01  2.12538E-02
    9041.203     44.623   3.720  1.02792E+00  9.94316E-01  3.36022E-02
    9042.343     45.763   3.760  1.04019E+00  9.94246E-01  4.59469E-02
    9043.495     46.915   3.800  1.05229E+00  9.94217E-01  5.80758E-02
    9044.660     48.079   3.840  1.06343E+00  9.94230E-01  6.91982E-02
    9045.836     49.256   3.880  1.07288E+00  9.94305E-01  7.85716E-02
    9047.025     50.445   3.920  1.08002E+00  9.94403E-01  8.56152E-02
    9048.226     51.646   3.960  1.08419E+00  9.94562E-01  8.96260E-02
    9049.439     52.859   4.000  1.08471E+00  9.94760E-01  8.99482E-02
    9050.664     54.084   4.040  1.08102E+00  9.94976E-01  8.60400E-02
    9051.902     55.322   4.080  1.07312E+00  9.95250E-01  7.78680E-02
    9053.151     56.571   4.120  1.06180E+00  9.95539E-01  6.62648E-02
    9054.413     57.833   4.160  1.04873E+00  9.95863E-01  5.28658E-02
    9055.687     59.107   4.200  1.03592E+00  9.96224E-01  3.96938E-02
    9056.974     60.393   4.240  1.02515E+00  9.96618E-01  2.85340E-02
    9058.272     61.692   4.280  1.01753E+00  9.97023E-01  2.05117E-02
    9059.583     63.002   4.320  1.01333E+00  9.97456E-01  1.58715E-02
    9060.905     64.325   4.360  1.01223E+00  9.97896E-01  1.43385E-02
    9062.241     65.660   4.400  1.01404E+00  9.98342E-01  1.56956E-02
    9063.588     67.007   4.440  1.01881E+00  9.98814E-01  1.99988E-02
    9064.947     68.367   4.480  1.02661E+00  9.99290E-01  2.73233E-02
    9066.319     69.738   4.520  1.03712E+00  9.99768E-01  3.73537E-02
    9067.702     71.122   4.560  1.04915E+00  1.00025E+00  4.88980E-02
    9069.098     72.518   4.600  1.06045E+00  1.00075E+00  5.96983E-02
    9070.507     73.926   4.640  1.06802E+00  1.00122E+00  6.67922E-02
    9071.927     75.347   4.680  1.06912E+00  1.00169E+00  6.74309E-02
    9073.360     76.779   4.720  1.06240E+00  1.00213E+00  6.02621E-02
    9074.804     78.224   4.760  1.04882E+00  1.00259E+00  4.62323E-02
    9076.261     79.681   4.800  1.03128E+00  1.00302E+00  2.82553E-02
    9077.730     81.150   4.840  1.01329E+00  1.00342E+00  9.87184E-03
    9079.212     82.631   4.880  9.97808E-01  1.00383E+00 -6.02020E-03
    9080.705     84.125   4.920  9.86377E-01  1.00418E+00 -1.78067E-02
    9082.211     85.631   4.960  9.79270E-01  1.00453E+00 -2.52581E-02
    9083.729     87.149   5.000  9.75630E-01  1.00486E+00 -2.92272E-02
    9085.259     88.679   5.040  9.73776E-01  1.00513E+00 -3.13542E-02
    9086.801     90.221   5.080  9.72005E-01  1.00539E+00 -3.33822E-02
    9088.356     91.775   5.120  9.69026E-01  1.00561E+00 -3.65818E-02
    9089.922     93.342   5.160  9.64372E-01  1.00581E+00 -4.14422E-02
    9091.501     94.921   5.200  9.58203E-01  1.00596E+00 -4.77570E-02
    9093.092     96.512   5.240  9.51179E-01  1.00609E+00 -5.49099E-02
    9094.695     98.115   5.280  9.44216E-01  1.00618E+00 -6.19629E-02
    9096.311     99.731   5.320  9.38419E-01  1.00623E+00 -6.78112E-02
    9097.939    101.358   5.360  9.34963E-01  1.00624E+00 -7.12780E-02
    9099.578    102.998   5.400  9.34735E-01  1.00621E+00 -7.14760E-02
    9101.230    104.650   5.440  9.37960E-01  1.00614E+00 -6.81804E-02
    9102.895    106.314   5.480  9.44012E-01  1.00603E+00 -6.20200E-02
    9104.571    107.991   5.520  9.51709E-01  1.00591E+00 -5.41987E-02
    9106.260    109.679   5.560  9.59672E-01  1.00572E+00 -4.60524E-02
    9107.960    111.380   5.600  9.67138E-01  1.00552E+00 -3.83852E-02
    9109.673    113.093   5.640  9.74198E-01  1.00528E+00 -3.10859E-02
    9111.398    114.818   5.680  9.81579E-01  1.00501E+00 -2.34284E-02
    9113.136    116.556   5.720  9.89826E-01  1.00469E+00 -1.48671E-02
    9114.885    118.305   5.760  9.98878E-01  1.00434E+00 -5.46469E-03
    9116.647    120.067   5.800  1.00832E+00  1.00398E+00  4.33374E-03
    9118.421    121.841   5.840  1.01767E+00  1.00359E+00  1.40810E-02
    9120.207    123.627   5.880  1.02644E+00  1.00316E+00  2.32755E-02
    9122.005    125.425   5.920  1.03366E+00  1.00273E+00  3.09244E-02
    9123.816    127.236   5.960  1.03796E+00  1.00228E+00  3.56877E-02
    9125.639    129.058   6.000  1.03873E+00  1.00177E+00  3.69665E-02
