# # comment:                                                     FEFF 9.9.1  
# # Source:
# # Structure
# # Reduced
# # space
# # abc:
# # angles:101.195005
# # sites:
# # POT  SCF 100  7.0000   0, screened core-hole, AFOLP (folp(0)= 1.150)
# # Abs   Z=29 Rmt= 1.267 Rnm= 1.335 K  shell
# # Pot 1 Z= 3 Rmt= 1.253 Rnm= 1.317
# # Pot 2 Z=29 Rmt= 1.267 Rnm= 1.335
# # Pot 3 Z= 5 Rmt= 0.770 Rnm= 0.986
# # Pot 4 Z= 8 Rmt= 0.891 Rnm= 1.052
# # Gam_ch=1.729E+00 H-L exch Vi= 0.000E+00 Vr= 0.000E+00
# # Mu=-7.366E+00eV kf=2.335E+00 Vint=-1.743E+01eV Rs_int= 1.553
# FMS rfms= 9.0000
# # PATH  Rmax=-1.000,  Keep_limit= 0.00, Heap_limit 0.00  Pwcrit= 2.50%
#  S02=0.950  Temp=   0.00  Debye_temp=   0.00  Global_sig2= 0.00000
#  Energy zero shift, vr, vi    0.00000E+00   0.00000E+00
#  Curved wave amplitude ratio filter   4.000%
#     file         sig2 tot  cw amp ratio   deg  nlegs   reff  inp sig2
#     0/   0 paths used
#  xsedge+ 50, used to normalize mu           2.4788E-04
#  -----------------------------------------------------------------------
#  omega    e    k    mu    mu0     chi     @#
    8983.790    -11.176  -1.000  4.25841E-02  5.25501E-02 -9.96597E-03
    8984.089    -10.877  -0.960  4.51076E-02  5.63629E-02 -1.12553E-02
    8984.376    -10.590  -0.920  4.78453E-02  6.06014E-02 -1.27561E-02
    8984.650    -10.316  -0.880  5.08194E-02  6.53285E-02 -1.45091E-02
    8984.912    -10.054  -0.840  5.40544E-02  7.06176E-02 -1.65632E-02
    8985.162     -9.804  -0.800  5.75764E-02  7.65538E-02 -1.89774E-02
    8985.400     -9.566  -0.760  6.14132E-02  8.32347E-02 -2.18215E-02
    8985.625     -9.341  -0.720  6.55937E-02  9.07709E-02 -2.51772E-02
    8985.839     -9.127  -0.680  7.01464E-02  9.92840E-02 -2.91376E-02
    8986.040     -8.926  -0.640  7.50979E-02  1.08903E-01 -3.38047E-02
    8986.229     -8.737  -0.600  8.04699E-02  1.19753E-01 -3.92832E-02
    8986.405     -8.560  -0.560  8.62755E-02  1.31943E-01 -4.56679E-02
    8986.570     -8.396  -0.520  9.25132E-02  1.45538E-01 -5.30250E-02
    8986.722     -8.243  -0.480  9.91598E-02  1.60523E-01 -6.13637E-02
    8986.863     -8.103  -0.440  1.06163E-01  1.76768E-01 -7.06047E-02
    8986.991     -7.975  -0.400  1.13433E-01  1.93987E-01 -8.05534E-02
    8987.107     -7.859  -0.360  1.20842E-01  2.11734E-01 -9.08926E-02
    8987.210     -7.756  -0.320  1.28222E-01  2.29431E-01 -1.01209E-01
    8987.302     -7.664  -0.280  1.35381E-01  2.46433E-01 -1.11052E-01
    8987.381     -7.585  -0.240  1.42112E-01  2.62123E-01 -1.20011E-01
    8987.448     -7.518  -0.200  1.48212E-01  2.75983E-01 -1.27772E-01
    8987.503     -7.463  -0.160  1.53492E-01  2.87638E-01 -1.34147E-01
    8987.545     -7.421  -0.120  1.57791E-01  2.96848E-01 -1.39057E-01
    8987.576     -7.390  -0.080  1.60979E-01  3.03480E-01 -1.42501E-01
    8987.600     -7.366   0.000  1.63644E-01  3.08807E-01 -1.45163E-01
    8987.655     -7.311   0.120  1.69716E-01  3.20809E-01 -1.51093E-01
    8987.698     -7.268   0.160  1.74535E-01  3.30146E-01 -1.55611E-01
    8987.753     -7.213   0.200  1.80904E-01  3.42048E-01 -1.61144E-01
    8987.820     -7.146   0.240  1.88991E-01  3.56342E-01 -1.67351E-01
    8987.899     -7.067   0.280  1.99053E-01  3.72753E-01 -1.73700E-01
    8987.990     -6.976   0.320  2.11303E-01  3.90812E-01 -1.79509E-01
    8988.094     -6.872   0.360  2.26155E-01  4.10027E-01 -1.83872E-01
    8988.210     -6.756   0.400  2.44017E-01  4.29789E-01 -1.85772E-01
    8988.338     -6.628   0.440  2.65526E-01  4.49583E-01 -1.84057E-01
    8988.478     -6.488   0.480  2.91495E-01  4.69011E-01 -1.77516E-01
    8988.631     -6.335   0.520  3.23008E-01  4.87821E-01 -1.64813E-01
    8988.795     -6.171   0.560  3.61166E-01  5.05876E-01 -1.44710E-01
    8988.972     -5.994   0.600  4.06638E-01  5.23146E-01 -1.16508E-01
    8989.161     -5.805   0.640  4.58408E-01  5.39713E-01 -8.13051E-02
    8989.362     -5.604   0.680  5.11853E-01  5.55631E-01 -4.37773E-02
    8989.575     -5.391   0.720  5.57495E-01  5.71011E-01 -1.35154E-02
    8989.801     -5.165   0.760  5.83184E-01  5.85962E-01 -2.77855E-03
    8990.039     -4.927   0.800  5.81453E-01  6.00565E-01 -1.91118E-02
    8990.289     -4.677   0.840  5.55867E-01  6.14866E-01 -5.89986E-02
    8990.551     -4.415   0.880  5.18386E-01  6.28979E-01 -1.10594E-01
    8990.825     -4.141   0.920  4.81406E-01  6.42888E-01 -1.61482E-01
    8991.112     -3.854   0.960  4.53809E-01  6.56680E-01 -2.02870E-01
    8991.410     -3.556   1.000  4.39731E-01  6.70332E-01 -2.30602E-01
    8991.721     -3.245   1.040  4.38400E-01  6.83897E-01 -2.45497E-01
    8992.044     -2.922   1.080  4.44384E-01  6.97356E-01 -2.52973E-01
    8992.380     -2.586   1.120  4.50318E-01  7.10725E-01 -2.60407E-01
    8992.727     -2.239   1.160  4.53248E-01  7.23974E-01 -2.70726E-01
    8993.087     -1.879   1.200  4.57709E-01  7.37107E-01 -2.79399E-01
    8993.459     -1.507   1.240  4.70639E-01  7.50109E-01 -2.79470E-01
    8993.843     -1.123   1.280  4.97140E-01  7.62938E-01 -2.65798E-01
    8994.239     -0.727   1.320  5.39469E-01  7.75613E-01 -2.36143E-01
    8994.647     -0.319   1.360  5.95738E-01  7.88109E-01 -1.92372E-01
    8995.068      0.102   1.400  6.59976E-01  8.00380E-01 -1.40404E-01
    8995.501      0.535   1.440  7.25564E-01  8.12398E-01 -8.68342E-02
    8995.946      0.980   1.480  7.88754E-01  8.24178E-01 -3.54241E-02
    8996.403      1.437   1.520  8.50406E-01  8.35673E-01  1.47328E-02
    8996.872      1.906   1.560  9.12333E-01  8.46874E-01  6.54591E-02
    8997.354      2.388   1.600  9.71461E-01  8.57733E-01  1.13728E-01
    8997.848      2.882   1.640  1.02270E+00  8.68284E-01  1.54419E-01
    8998.354      3.388   1.680  1.06681E+00  8.78461E-01  1.88348E-01
    8998.872      3.906   1.720  1.11279E+00  8.88276E-01  2.24517E-01
    8999.402      4.436   1.760  1.15940E+00  8.97686E-01  2.61712E-01
    8999.945      4.979   1.800  1.18969E+00  9.06728E-01  2.82966E-01
    9000.499      5.533   1.840  1.20026E+00  9.15355E-01  2.84905E-01
    9001.066      6.100   1.880  1.20497E+00  9.23587E-01  2.81386E-01
    9001.645      6.679   1.920  1.20579E+00  9.31400E-01  2.74391E-01
    9002.237      7.271   1.960  1.19436E+00  9.38775E-01  2.55582E-01
    9002.840      7.874   2.000  1.16755E+00  9.45751E-01  2.21798E-01
    9003.456      8.490   2.040  1.13427E+00  9.52288E-01  1.81982E-01
    9004.084      9.118   2.080  1.10764E+00  9.58431E-01  1.49207E-01
    9004.724      9.758   2.120  1.09346E+00  9.64139E-01  1.29318E-01
    9005.376     10.410   2.160  1.08567E+00  9.69458E-01  1.16212E-01
    9006.041     11.075   2.200  1.07096E+00  9.74370E-01  9.65876E-02
    9006.717     11.751   2.240  1.04830E+00  9.78881E-01  6.94194E-02
    9007.406     12.440   2.280  1.03002E+00  9.83034E-01  4.69905E-02
    9008.107     13.141   2.320  1.02832E+00  9.86797E-01  4.15202E-02
    9008.820     13.854   2.360  1.05435E+00  9.90194E-01  6.41569E-02
    9009.546     14.580   2.400  1.11555E+00  9.93254E-01  1.22297E-01
    9010.283     15.317   2.440  1.20106E+00  9.95984E-01  2.05075E-01
    9011.033     16.067   2.480  1.27793E+00  9.98391E-01  2.79540E-01
    9011.795     16.829   2.520  1.31344E+00  1.00050E+00  3.12939E-01
    9012.569     17.603   2.560  1.29932E+00  1.00232E+00  2.96998E-01
    9013.356     18.390   2.600  1.24821E+00  1.00386E+00  2.44343E-01
    9014.154     19.188   2.640  1.17754E+00  1.00515E+00  1.72392E-01
    9014.965     19.999   2.680  1.09780E+00  1.00618E+00  9.16276E-02
    9015.788     20.822   2.720  1.01765E+00  1.00700E+00  1.06490E-02
    9016.623     21.657   2.760  9.53917E-01  1.00760E+00 -5.36827E-02
    9017.471     22.505   2.800  9.11388E-01  1.00800E+00 -9.66076E-02
    9018.330     23.364   2.840  8.81848E-01  1.00822E+00 -1.26368E-01
    9019.202     24.236   2.880  8.61800E-01  1.00827E+00 -1.46471E-01
    9020.086     25.120   2.920  8.48951E-01  1.00817E+00 -1.59217E-01
    9020.982     26.016   2.960  8.41618E-01  1.00791E+00 -1.66295E-01
    9021.890     26.924   3.000  8.38469E-01  1.00755E+00 -1.69084E-01
    9022.811     27.845   3.040  8.37974E-01  1.00708E+00 -1.69101E-01
    9023.743     28.777   3.080  8.38896E-01  1.00651E+00 -1.67610E-01
    9024.688     29.722   3.120  8.40673E-01  1.00583E+00 -1.65158E-01
    9025.645     30.679   3.160  8.43280E-01  1.00510E+00 -1.61816E-01
    9026.615     31.649   3.200  8.46892E-01  1.00429E+00 -1.57393E-01
    9027.596     32.630   3.240  8.52001E-01  1.00341E+00 -1.51404E-01
    9028.590     33.624   3.280  8.59254E-01  1.00250E+00 -1.43248E-01
    9029.595     34.629   3.320  8.68604E-01  1.00156E+00 -1.32958E-01
    9030.613     35.648   3.360  8.80078E-01  1.00059E+00 -1.20508E-01
    9031.644     36.678   3.400  8.93653E-01  9.99603E-01 -1.05950E-01
    9032.686     37.720   3.440  9.09031E-01  9.98615E-01 -8.95837E-02
    9033.741     38.775   3.480  9.25665E-01  9.97624E-01 -7.19593E-02
    9034.808     39.842   3.520  9.42830E-01  9.96634E-01 -5.38048E-02
    9035.886     40.921   3.560  9.59456E-01  9.95649E-01 -3.61922E-02
    9036.978     42.012   3.600  9.74284E-01  9.94690E-01 -2.04064E-02
    9038.081     43.115   3.640  9.86534E-01  9.93743E-01 -7.20963E-03
    9039.197     44.231   3.680  9.95980E-01  9.92829E-01  3.15092E-03
    9040.324     45.358   3.720  1.00277E+00  9.91951E-01  1.08238E-02
    9041.464     46.498   3.760  1.00739E+00  9.91110E-01  1.62823E-02
    9042.616     47.650   3.800  1.01047E+00  9.90310E-01  2.01566E-02
    9043.781     48.815   3.840  1.01265E+00  9.89551E-01  2.30960E-02
    9044.957     49.991   3.880  1.01459E+00  9.88834E-01  2.57605E-02
    9046.146     51.180   3.920  1.01693E+00  9.88182E-01  2.87483E-02
    9047.347     52.381   3.960  1.02006E+00  9.87575E-01  3.24850E-02
    9048.560     53.594   4.000  1.02414E+00  9.87012E-01  3.71331E-02
    9049.785     54.819   4.040  1.02920E+00  9.86494E-01  4.27087E-02
    9051.023     56.057   4.080  1.03506E+00  9.86043E-01  4.90126E-02
    9052.272     57.307   4.120  1.04132E+00  9.85639E-01  5.56832E-02
    9053.534     58.568   4.160  1.04762E+00  9.85303E-01  6.23181E-02
    9054.808     59.842   4.200  1.05362E+00  9.85012E-01  6.86077E-02
    9056.095     61.129   4.240  1.05907E+00  9.84767E-01  7.42985E-02
    9057.393     62.427   4.280  1.06371E+00  9.84566E-01  7.91452E-02
    9058.704     63.738   4.320  1.06743E+00  9.84435E-01  8.29909E-02
    9060.027     65.061   4.360  1.07000E+00  9.84371E-01  8.56278E-02
    9061.362     66.396   4.400  1.07108E+00  9.84329E-01  8.67468E-02
    9062.709     67.743   4.440  1.07025E+00  9.84352E-01  8.59028E-02
    9064.068     69.102   4.480  1.06702E+00  9.84419E-01  8.26053E-02
    9065.440     70.474   4.520  1.06103E+00  9.84527E-01  7.65026E-02
    9066.824     71.858   4.560  1.05232E+00  9.84677E-01  6.76445E-02
    9068.220     73.254   4.600  1.04142E+00  9.84888E-01  5.65326E-02
    9069.628     74.662   4.640  1.02902E+00  9.85117E-01  4.39019E-02
    9071.048     76.082   4.680  1.01594E+00  9.85382E-01  3.05542E-02
    9072.481     77.515   4.720  1.00285E+00  9.85682E-01  1.71667E-02
    9073.925     78.959   4.760  9.90241E-01  9.85995E-01  4.24610E-03
    9075.382     80.416   4.800  9.78565E-01  9.86363E-01 -7.79754E-03
    9076.851     81.885   4.840  9.67994E-01  9.86721E-01 -1.87268E-02
    9078.333     83.367   4.880  9.58701E-01  9.87131E-01 -2.84301E-02
    9079.826     84.860   4.920  9.50712E-01  9.87548E-01 -3.68359E-02
    9081.332     86.366   4.960  9.44078E-01  9.87970E-01 -4.38911E-02
    9082.850     87.884   5.000  9.38880E-01  9.88395E-01 -4.95150E-02
    9084.380     89.414   5.040  9.35244E-01  9.88844E-01 -5.35999E-02
    9085.922     90.956   5.080  9.33185E-01  9.89274E-01 -5.60885E-02
    9087.477     92.511   5.120  9.32709E-01  9.89725E-01 -5.70161E-02
    9089.043     94.077   5.160  9.33593E-01  9.90174E-01 -5.65807E-02
    9090.622     95.656   5.200  9.35586E-01  9.90596E-01 -5.50107E-02
    9092.213     97.247   5.240  9.38527E-01  9.91014E-01 -5.24874E-02
    9093.817     98.851   5.280  9.42289E-01  9.91426E-01 -4.91368E-02
    9095.432    100.466   5.320  9.46727E-01  9.91809E-01 -4.50819E-02
    9097.060    102.094   5.360  9.51725E-01  9.92205E-01 -4.04804E-02
    9098.699    103.733   5.400  9.57111E-01  9.92547E-01 -3.54358E-02
    9100.351    105.385   5.440  9.62917E-01  9.92876E-01 -2.99598E-02
    9102.016    107.050   5.480  9.69108E-01  9.93172E-01 -2.40635E-02
    9103.692    108.726   5.520  9.75467E-01  9.93453E-01 -1.79861E-02
    9105.381    110.415   5.560  9.81431E-01  9.93677E-01 -1.22455E-02
    9107.081    112.115   5.600  9.86434E-01  9.93885E-01 -7.45065E-03
    9108.794    113.828   5.640  9.90084E-01  9.94057E-01 -3.97241E-03
    9110.520    115.554   5.680  9.92477E-01  9.94213E-01 -1.73602E-03
    9112.257    117.291   5.720  9.93959E-01  9.94306E-01 -3.47031E-04
    9114.006    119.040   5.760  9.94935E-01  9.94359E-01  5.75490E-04
    9115.768    120.802   5.800  9.95558E-01  9.94373E-01  1.18477E-03
    9117.542    122.576   5.840  9.95801E-01  9.94371E-01  1.42942E-03
    9119.328    124.362   5.880  9.95475E-01  9.94306E-01  1.16871E-03
    9121.127    126.161   5.920  9.94471E-01  9.94200E-01  2.70184E-04
    9122.937    127.971   5.960  9.92772E-01  9.94050E-01 -1.27827E-03
    9124.760    129.794   6.000  9.90600E-01  9.93834E-01 -3.23343E-03
