# # comment:                                                     FEFF 9.9.1  
# # Source:
# # Structure
# # Reduced
# # space
# # abc:
# # angles:119.737996
# # sites:
# # POT  SCF 100  7.0000   0, screened core-hole, AFOLP (folp(0)= 1.150)
# # Abs   Z=29 Rmt= 1.279 Rnm= 1.347 K  shell
# # Pot 1 Z= 3 Rmt= 1.299 Rnm= 1.357
# # Pot 2 Z=29 Rmt= 1.279 Rnm= 1.347
# # Pot 3 Z= 5 Rmt= 0.768 Rnm= 0.986
# # Pot 4 Z= 8 Rmt= 0.932 Rnm= 1.059
# # Gam_ch=1.729E+00 H-L exch Vi= 0.000E+00 Vr= 0.000E+00
# # Mu=-7.264E+00eV kf=2.322E+00 Vint=-1.745E+01eV Rs_int= 1.562
# FMS rfms= 9.0000
# # PATH  Rmax=-1.000,  Keep_limit= 0.00, Heap_limit 0.00  Pwcrit= 2.50%
#  S02=0.950  Temp=   0.00  Debye_temp=   0.00  Global_sig2= 0.00000
#  Energy zero shift, vr, vi    0.00000E+00   0.00000E+00
#  Curved wave amplitude ratio filter   4.000%
#     file         sig2 tot  cw amp ratio   deg  nlegs   reff  inp sig2
#     0/   0 paths used
#  xsedge+ 50, used to normalize mu           2.4752E-04
#  -----------------------------------------------------------------------
#  omega    e    k    mu    mu0     chi     @#
    8983.782    -11.074  -1.000  4.26942E-02  5.45701E-02 -1.18759E-02
    8984.081    -10.775  -0.960  4.51327E-02  5.85772E-02 -1.34445E-02
    8984.367    -10.488  -0.920  4.77731E-02  6.30351E-02 -1.52620E-02
    8984.642    -10.214  -0.880  5.06381E-02  6.80106E-02 -1.73725E-02
    8984.904     -9.952  -0.840  5.37533E-02  7.35817E-02 -1.98284E-02
    8985.154     -9.702  -0.800  5.71472E-02  7.98388E-02 -2.26915E-02
    8985.391     -9.464  -0.760  6.08518E-02  8.68857E-02 -2.60340E-02
    8985.617     -9.239  -0.720  6.49015E-02  9.48401E-02 -2.99385E-02
    8985.830     -9.025  -0.680  6.93330E-02  1.03831E-01 -3.44982E-02
    8986.032     -8.824  -0.640  7.41831E-02  1.13996E-01 -3.98130E-02
    8986.221     -8.635  -0.600  7.94855E-02  1.25469E-01 -4.59836E-02
    8986.397     -8.458  -0.560  8.52658E-02  1.38365E-01 -5.30996E-02
    8986.562     -8.294  -0.520  9.15334E-02  1.52754E-01 -6.12203E-02
    8986.714     -8.142  -0.480  9.82712E-02  1.68620E-01 -7.03487E-02
    8986.855     -8.001  -0.440  1.05423E-01  1.85824E-01 -8.04010E-02
    8986.983     -7.873  -0.400  1.12885E-01  2.04066E-01 -9.11806E-02
    8987.098     -7.757  -0.360  1.20499E-01  2.22871E-01 -1.02371E-01
    8987.202     -7.654  -0.320  1.28062E-01  2.41623E-01 -1.13561E-01
    8987.293     -7.562  -0.280  1.35343E-01  2.59639E-01 -1.24296E-01
    8987.373     -7.483  -0.240  1.42114E-01  2.76265E-01 -1.34151E-01
    8987.440     -7.416  -0.200  1.48165E-01  2.90951E-01 -1.42786E-01
    8987.495     -7.361  -0.160  1.53328E-01  3.03299E-01 -1.49971E-01
    8987.537     -7.319  -0.120  1.57474E-01  3.13055E-01 -1.55581E-01
    8987.568     -7.288  -0.080  1.60513E-01  3.20080E-01 -1.59568E-01
    8987.592     -7.264   0.000  1.63020E-01  3.25723E-01 -1.62703E-01
    8987.647     -7.209   0.120  1.68578E-01  3.38444E-01 -1.69866E-01
    8987.690     -7.166   0.160  1.72927E-01  3.48305E-01 -1.75378E-01
    8987.745     -7.111   0.200  1.78601E-01  3.60912E-01 -1.82312E-01
    8987.812     -7.044   0.240  1.85636E-01  3.76043E-01 -1.90407E-01
    8987.891     -6.965   0.280  1.94087E-01  3.93380E-01 -1.99293E-01
    8987.982     -6.874   0.320  2.04034E-01  4.12483E-01 -2.08448E-01
    8988.086     -6.770   0.360  2.15584E-01  4.32763E-01 -2.17179E-01
    8988.202     -6.654   0.400  2.28924E-01  4.53614E-01 -2.24690E-01
    8988.330     -6.526   0.440  2.44275E-01  4.74447E-01 -2.30172E-01
    8988.470     -6.386   0.480  2.61965E-01  4.94874E-01 -2.32909E-01
    8988.622     -6.233   0.520  2.82123E-01  5.14586E-01 -2.32463E-01
    8988.787     -6.069   0.560  3.04523E-01  5.33479E-01 -2.28957E-01
    8988.964     -5.892   0.600  3.28189E-01  5.51482E-01 -2.23292E-01
    8989.153     -5.703   0.640  3.51508E-01  5.68696E-01 -2.17187E-01
    8989.354     -5.502   0.680  3.72562E-01  5.85184E-01 -2.12622E-01
    8989.567     -5.289   0.720  3.90280E-01  6.01064E-01 -2.10784E-01
    8989.793     -5.063   0.760  4.05549E-01  6.16430E-01 -2.10881E-01
    8990.031     -4.825   0.800  4.21501E-01  6.31368E-01 -2.09867E-01
    8990.280     -4.575   0.840  4.41662E-01  6.45951E-01 -2.04288E-01
    8990.543     -4.313   0.880  4.66311E-01  6.60257E-01 -1.93946E-01
    8990.817     -4.039   0.920  4.89842E-01  6.74353E-01 -1.84511E-01
    8991.103     -3.752   0.960  5.03916E-01  6.88230E-01 -1.84313E-01
    8991.402     -3.454   1.000  5.06122E-01  7.01929E-01 -1.95807E-01
    8991.713     -3.143   1.040  5.03614E-01  7.15482E-01 -2.11868E-01
    8992.036     -2.820   1.080  5.05139E-01  7.28871E-01 -2.23733E-01
    8992.371     -2.484   1.120  5.12797E-01  7.42095E-01 -2.29299E-01
    8992.719     -2.137   1.160  5.25393E-01  7.55165E-01 -2.29773E-01
    8993.078     -1.777   1.200  5.44583E-01  7.68068E-01 -2.23485E-01
    8993.450     -1.405   1.240  5.72764E-01  7.80765E-01 -2.08001E-01
    8993.834     -1.021   1.280  6.09679E-01  7.93260E-01 -1.83581E-01
    8994.231     -0.625   1.320  6.52831E-01  8.05550E-01 -1.52719E-01
    8994.639     -0.217   1.360  7.03753E-01  8.17570E-01 -1.13817E-01
    8995.060      0.204   1.400  7.73685E-01  8.29338E-01 -5.56526E-02
    8995.493      0.637   1.440  8.75700E-01  8.40827E-01  3.48728E-02
    8995.938      1.082   1.480  1.00923E+00  8.52012E-01  1.57218E-01
    8996.395      1.539   1.520  1.15436E+00  8.62866E-01  2.91497E-01
    8996.864      2.008   1.560  1.27966E+00  8.73362E-01  4.06296E-01
    8997.346      2.490   1.600  1.35703E+00  8.83517E-01  4.73512E-01
    8997.839      2.984   1.640  1.37502E+00  8.93305E-01  4.81716E-01
    8998.345      3.490   1.680  1.34465E+00  9.02700E-01  4.41953E-01
    8998.864      4.008   1.720  1.28452E+00  9.11699E-01  3.72818E-01
    8999.394      4.538   1.760  1.21584E+00  9.20279E-01  2.95566E-01
    8999.936      5.081   1.800  1.15397E+00  9.28457E-01  2.25509E-01
    9000.491      5.635   1.840  1.09967E+00  9.36213E-01  1.63462E-01
    9001.058      6.202   1.880  1.05536E+00  9.43543E-01  1.11815E-01
    9001.637      6.781   1.920  1.03157E+00  9.50429E-01  8.11422E-02
    9002.229      7.373   1.960  1.02958E+00  9.56914E-01  7.26686E-02
    9002.832      7.976   2.000  1.03761E+00  9.62980E-01  7.46290E-02
    9003.448      8.592   2.040  1.04630E+00  9.68629E-01  7.76692E-02
    9004.076      9.220   2.080  1.05283E+00  9.73842E-01  7.89860E-02
    9004.716      9.860   2.120  1.05647E+00  9.78686E-01  7.77863E-02
    9005.368     10.512   2.160  1.05880E+00  9.83105E-01  7.56975E-02
    9006.032     11.177   2.200  1.06137E+00  9.87166E-01  7.42037E-02
    9006.709     11.853   2.240  1.06930E+00  9.90834E-01  7.84627E-02
    9007.398     12.542   2.280  1.09119E+00  9.94135E-01  9.70551E-02
    9008.099     13.243   2.320  1.12834E+00  9.97115E-01  1.31223E-01
    9008.812     13.956   2.360  1.17015E+00  9.99745E-01  1.70409E-01
    9009.538     14.682   2.400  1.20248E+00  1.00205E+00  2.00433E-01
    9010.275     15.419   2.440  1.21765E+00  1.00406E+00  2.13590E-01
    9011.025     16.169   2.480  1.21076E+00  1.00578E+00  2.04979E-01
    9011.787     16.931   2.520  1.17676E+00  1.00724E+00  1.69517E-01
    9012.561     17.705   2.560  1.11709E+00  1.00842E+00  1.08663E-01
    9013.348     18.492   2.600  1.04832E+00  1.00937E+00  3.89519E-02
    9014.146     19.290   2.640  9.92507E-01  1.01009E+00 -1.75865E-02
    9014.957     20.101   2.680  9.57448E-01  1.01061E+00 -5.31630E-02
    9015.780     20.924   2.720  9.39983E-01  1.01093E+00 -7.09465E-02
    9016.615     21.759   2.760  9.31283E-01  1.01107E+00 -7.97909E-02
    9017.462     22.607   2.800  9.23252E-01  1.01103E+00 -8.77818E-02
    9018.322     23.466   2.840  9.14237E-01  1.01088E+00 -9.66415E-02
    9019.194     24.338   2.880  9.05720E-01  1.01057E+00 -1.04851E-01
    9020.078     25.222   2.920  8.98803E-01  1.01012E+00 -1.11316E-01
    9020.974     26.118   2.960  8.93662E-01  1.00959E+00 -1.15930E-01
    9021.882     27.026   3.000  8.90020E-01  1.00895E+00 -1.18935E-01
    9022.802     27.947   3.040  8.87686E-01  1.00823E+00 -1.20548E-01
    9023.735     28.879   3.080  8.86631E-01  1.00743E+00 -1.20804E-01
    9024.680     29.824   3.120  8.86908E-01  1.00658E+00 -1.19675E-01
    9025.637     30.781   3.160  8.88328E-01  1.00569E+00 -1.17357E-01
    9026.606     31.751   3.200  8.90305E-01  1.00472E+00 -1.14419E-01
    9027.588     32.732   3.240  8.92555E-01  1.00375E+00 -1.11191E-01
    9028.581     33.726   3.280  8.94965E-01  1.00276E+00 -1.07793E-01
    9029.587     34.731   3.320  8.97497E-01  1.00174E+00 -1.04245E-01
    9030.605     35.750   3.360  9.00448E-01  1.00072E+00 -1.00273E-01
    9031.636     36.780   3.400  9.04338E-01  9.99721E-01 -9.53833E-02
    9032.678     37.822   3.440  9.09636E-01  9.98703E-01 -8.90669E-02
    9033.733     38.877   3.480  9.16868E-01  9.97709E-01 -8.08410E-02
    9034.799     39.944   3.520  9.26413E-01  9.96724E-01 -7.03107E-02
    9035.878     41.023   3.560  9.38344E-01  9.95772E-01 -5.74277E-02
    9036.970     42.114   3.600  9.52226E-01  9.94855E-01 -4.26289E-02
    9038.073     43.217   3.640  9.67222E-01  9.93975E-01 -2.67522E-02
    9039.188     44.333   3.680  9.82276E-01  9.93133E-01 -1.08567E-02
    9040.316     45.460   3.720  9.96327E-01  9.92309E-01  4.01804E-03
    9041.456     46.600   3.760  1.00875E+00  9.91549E-01  1.72006E-02
    9042.608     47.752   3.800  1.01931E+00  9.90853E-01  2.84578E-02
    9043.773     48.917   3.840  1.02799E+00  9.90180E-01  3.78081E-02
    9044.949     50.093   3.880  1.03509E+00  9.89572E-01  4.55145E-02
    9046.138     51.282   3.920  1.04105E+00  9.89009E-01  5.20388E-02
    9047.339     52.483   3.960  1.04641E+00  9.88490E-01  5.79153E-02
    9048.552     53.696   4.000  1.05163E+00  9.88039E-01  6.35863E-02
    9049.777     54.921   4.040  1.05703E+00  9.87635E-01  6.93923E-02
    9051.015     56.159   4.080  1.06270E+00  9.87276E-01  7.54287E-02
    9052.264     57.409   4.120  1.06843E+00  9.86985E-01  8.14457E-02
    9053.526     58.670   4.160  1.07363E+00  9.86741E-01  8.68889E-02
    9054.800     59.944   4.200  1.07761E+00  9.86565E-01  9.10485E-02
    9056.086     61.231   4.240  1.07961E+00  9.86436E-01  9.31723E-02
    9057.385     62.529   4.280  1.07901E+00  9.86351E-01  9.26628E-02
    9058.696     63.840   4.320  1.07564E+00  9.86329E-01  8.93082E-02
    9060.018     65.163   4.360  1.06954E+00  9.86330E-01  8.32055E-02
    9061.353     66.498   4.400  1.06109E+00  9.86396E-01  7.46985E-02
    9062.701     67.845   4.440  1.05083E+00  9.86502E-01  6.43314E-02
    9064.060     69.204   4.480  1.03939E+00  9.86649E-01  5.27396E-02
    9065.432     70.576   4.520  1.02745E+00  9.86836E-01  4.06163E-02
    9066.815     71.960   4.560  1.01579E+00  9.87062E-01  2.87293E-02
    9068.211     73.356   4.600  1.00507E+00  9.87323E-01  1.77442E-02
    9069.620     74.764   4.640  9.95640E-01  9.87599E-01  8.04115E-03
    9071.040     76.184   4.680  9.87622E-01  9.87931E-01 -3.08977E-04
    9072.472     77.617   4.720  9.80716E-01  9.88275E-01 -7.55853E-03
    9073.917     79.061   4.760  9.74541E-01  9.88627E-01 -1.40861E-02
    9075.374     80.518   4.800  9.68858E-01  9.89008E-01 -2.01509E-02
    9076.843     81.987   4.840  9.63615E-01  9.89420E-01 -2.58044E-02
    9078.325     83.469   4.880  9.58948E-01  9.89815E-01 -3.08671E-02
    9079.818     84.962   4.920  9.55179E-01  9.90236E-01 -3.50573E-02
    9081.324     86.468   4.960  9.52473E-01  9.90681E-01 -3.82083E-02
    9082.842     87.986   5.000  9.50855E-01  9.91106E-01 -4.02508E-02
    9084.372     89.516   5.040  9.50290E-01  9.91529E-01 -4.12392E-02
    9085.914     91.058   5.080  9.50603E-01  9.91949E-01 -4.13459E-02
    9087.469     92.613   5.120  9.51511E-01  9.92367E-01 -4.08563E-02
    9089.035     94.179   5.160  9.52550E-01  9.92782E-01 -4.02321E-02
    9090.614     95.758   5.200  9.53238E-01  9.93191E-01 -3.99530E-02
    9092.205     97.349   5.240  9.53135E-01  9.93571E-01 -4.04362E-02
    9093.808     98.953   5.280  9.52092E-01  9.93942E-01 -4.18500E-02
    9095.424    100.568   5.320  9.50286E-01  9.94281E-01 -4.39952E-02
    9097.051    102.196   5.360  9.48287E-01  9.94608E-01 -4.63216E-02
    9098.691    103.835   5.400  9.46800E-01  9.94901E-01 -4.81009E-02
    9100.343    105.487   5.440  9.46498E-01  9.95159E-01 -4.86605E-02
    9102.007    107.152   5.480  9.47898E-01  9.95402E-01 -4.75038E-02
    9103.684    108.828   5.520  9.51309E-01  9.95587E-01 -4.42779E-02
    9105.372    110.517   5.560  9.56973E-01  9.95780E-01 -3.88072E-02
    9107.073    112.217   5.600  9.64699E-01  9.95914E-01 -3.12152E-02
    9108.786    113.930   5.640  9.73990E-01  9.96007E-01 -2.20169E-02
    9110.511    115.656   5.680  9.84036E-01  9.96060E-01 -1.20238E-02
    9112.249    117.393   5.720  9.93981E-01  9.96099E-01 -2.11762E-03
    9113.998    119.142   5.760  1.00301E+00  9.96076E-01  6.93797E-03
    9115.760    120.904   5.800  1.01063E+00  9.96036E-01  1.45898E-02
    9117.534    122.678   5.840  1.01652E+00  9.95934E-01  2.05864E-02
    9119.320    124.464   5.880  1.02083E+00  9.95816E-01  2.50108E-02
    9121.118    126.263   5.920  1.02378E+00  9.95635E-01  2.81407E-02
    9122.929    128.073   5.960  1.02561E+00  9.95411E-01  3.02002E-02
    9124.752    129.896   6.000  1.02627E+00  9.95152E-01  3.11208E-02
