# # comment:                                                     FEFF 9.9.1  
# # Source:
# # Structure
# # Reduced
# # space
# # abc:
# # angles:110.619492
# # sites:
# # POT  SCF 100  7.0000   0, screened core-hole, AFOLP (folp(0)= 1.150)
# # Abs   Z=29 Rmt= 1.199 Rnm= 1.290 K  shell
# # Pot 1 Z=60 Rmt= 1.739 Rnm= 1.788
# # Pot 2 Z=25 Rmt= 1.293 Rnm= 1.397
# # Pot 3 Z=29 Rmt= 1.190 Rnm= 1.284
# # Pot 4 Z= 8 Rmt= 1.037 Rnm= 1.100
# # Gam_ch=1.729E+00 H-L exch Vi= 0.000E+00 Vr= 0.000E+00
# # Mu=-1.057E+01eV kf=2.176E+00 Vint=-1.839E+01eV Rs_int= 1.667
# FMS rfms= 9.0000
# # PATH  Rmax=-1.000,  Keep_limit= 0.00, Heap_limit 0.00  Pwcrit= 2.50%
#  S02=0.950  Temp=   0.00  Debye_temp=   0.00  Global_sig2= 0.00000
#  Energy zero shift, vr, vi    0.00000E+00   0.00000E+00
#  Curved wave amplitude ratio filter   4.000%
#     file         sig2 tot  cw amp ratio   deg  nlegs   reff  inp sig2
#     0/   0 paths used
#  xsedge+ 50, used to normalize mu           2.4879E-04
#  -----------------------------------------------------------------------
#  omega    e    k    mu    mu0     chi     @#
    8984.569    -14.379  -1.000  3.33550E-02  4.94677E-02 -1.61127E-02
    8984.867    -14.080  -0.960  3.49290E-02  5.29240E-02 -1.79950E-02
    8985.154    -13.794  -0.920  3.66040E-02  5.67531E-02 -2.01491E-02
    8985.428    -13.520  -0.880  3.83887E-02  6.10086E-02 -2.26199E-02
    8985.690    -13.257  -0.840  4.02929E-02  6.57532E-02 -2.54603E-02
    8985.940    -13.007  -0.800  4.23277E-02  7.10594E-02 -2.87317E-02
    8986.178    -12.770  -0.760  4.45051E-02  7.70100E-02 -3.25049E-02
    8986.403    -12.544  -0.720  4.68381E-02  8.36987E-02 -3.68606E-02
    8986.617    -12.331  -0.680  4.93402E-02  9.12283E-02 -4.18881E-02
    8986.818    -12.130  -0.640  5.20249E-02  9.97071E-02 -4.76822E-02
    8987.007    -11.941  -0.600  5.49039E-02  1.09241E-01 -5.43374E-02
    8987.184    -11.764  -0.560  5.79847E-02  1.19921E-01 -6.19363E-02
    8987.348    -11.599  -0.520  6.12670E-02  1.31799E-01 -7.05322E-02
    8987.501    -11.447  -0.480  6.47371E-02  1.44862E-01 -8.01248E-02
    8987.641    -11.307  -0.440  6.83627E-02  1.58995E-01 -9.06324E-02
    8987.769    -11.179  -0.400  7.20881E-02  1.73955E-01 -1.01867E-01
    8987.885    -11.063  -0.360  7.58333E-02  1.89362E-01 -1.13528E-01
    8987.988    -10.959  -0.320  7.94994E-02  2.04719E-01 -1.25219E-01
    8988.080    -10.868  -0.280  8.29800E-02  2.19476E-01 -1.36495E-01
    8988.159    -10.789  -0.240  8.61740E-02  2.33102E-01 -1.46928E-01
    8988.226    -10.721  -0.200  8.89960E-02  2.45151E-01 -1.56155E-01
    8988.281    -10.667  -0.160  9.13806E-02  2.55294E-01 -1.63913E-01
    8988.324    -10.624  -0.120  9.32798E-02  2.63318E-01 -1.70039E-01
    8988.354    -10.593  -0.080  9.46603E-02  2.69103E-01 -1.74443E-01
    8988.379    -10.569   0.000  9.57857E-02  2.73755E-01 -1.77969E-01
    8988.433    -10.514   0.120  9.84541E-02  2.84255E-01 -1.85801E-01
    8988.476    -10.472   0.160  1.00500E-01  2.92418E-01 -1.91918E-01
    8988.531    -10.417   0.200  1.03116E-01  3.02852E-01 -1.99737E-01
    8988.598    -10.350   0.240  1.06354E-01  3.15448E-01 -2.09094E-01
    8988.677    -10.270   0.280  1.10201E-01  3.29954E-01 -2.19753E-01
    8988.769    -10.179   0.320  1.14695E-01  3.46028E-01 -2.31332E-01
    8988.872    -10.075   0.360  1.19865E-01  3.63224E-01 -2.43359E-01
    8988.988     -9.959   0.400  1.25857E-01  3.81104E-01 -2.55247E-01
    8989.116     -9.831   0.440  1.32762E-01  3.99230E-01 -2.66468E-01
    8989.256     -9.691   0.480  1.40763E-01  4.17300E-01 -2.76537E-01
    8989.409     -9.539   0.520  1.49786E-01  4.35048E-01 -2.85263E-01
    8989.573     -9.374   0.560  1.59632E-01  4.52422E-01 -2.92790E-01
    8989.750     -9.197   0.600  1.69798E-01  4.69372E-01 -2.99574E-01
    8989.939     -9.009   0.640  1.79833E-01  4.85965E-01 -3.06132E-01
    8990.140     -8.807   0.680  1.89642E-01  5.02238E-01 -3.12596E-01
    8990.354     -8.594   0.720  1.99561E-01  5.18278E-01 -3.18717E-01
    8990.579     -8.368   0.760  2.10100E-01  5.34148E-01 -3.24048E-01
    8990.817     -8.131   0.800  2.21707E-01  5.49906E-01 -3.28199E-01
    8991.067     -7.881   0.840  2.35477E-01  5.65597E-01 -3.30120E-01
    8991.329     -7.619   0.880  2.54550E-01  5.81295E-01 -3.26745E-01
    8991.603     -7.344   0.920  2.84215E-01  5.96982E-01 -3.12766E-01
    8991.890     -7.058   0.960  3.30153E-01  6.12670E-01 -2.82516E-01
    8992.189     -6.759   1.000  3.94873E-01  6.28382E-01 -2.33509E-01
    8992.499     -6.448   1.040  4.70786E-01  6.44113E-01 -1.73327E-01
    8992.822     -6.125   1.080  5.39417E-01  6.59832E-01 -1.20415E-01
    8993.158     -5.790   1.120  5.94375E-01  6.75521E-01 -8.11459E-02
    8993.505     -5.442   1.160  6.53803E-01  6.91159E-01 -3.73560E-02
    8993.865     -5.083   1.200  7.21577E-01  7.06721E-01  1.48564E-02
    8994.237     -4.711   1.240  7.56688E-01  7.22177E-01  3.45112E-02
    8994.621     -4.327   1.280  7.22462E-01  7.37478E-01 -1.50160E-02
    8995.017     -3.931   1.320  6.45413E-01  7.52593E-01 -1.07180E-01
    8995.425     -3.522   1.360  5.68971E-01  7.67486E-01 -1.98515E-01
    8995.846     -3.102   1.400  5.13352E-01  7.82144E-01 -2.68792E-01
    8996.279     -2.669   1.440  4.89206E-01  7.96514E-01 -3.07308E-01
    8996.724     -2.224   1.480  4.95137E-01  8.10542E-01 -3.15405E-01
    8997.181     -1.766   1.520  5.17370E-01  8.24232E-01 -3.06862E-01
    8997.651     -1.297   1.560  5.48973E-01  8.37532E-01 -2.88560E-01
    8998.132     -0.816   1.600  5.97321E-01  8.50432E-01 -2.53111E-01
    8998.626     -0.322   1.640  6.60480E-01  8.62877E-01 -2.02397E-01
    8999.132      0.184   1.680  7.21678E-01  8.74859E-01 -1.53181E-01
    8999.650      0.702   1.720  7.74872E-01  8.86369E-01 -1.11497E-01
    9000.180      1.233   1.760  8.30814E-01  8.97378E-01 -6.65636E-02
    9000.723      1.775   1.800  8.81599E-01  9.07861E-01 -2.62618E-02
    9001.278      2.330   1.840  9.10906E-01  9.17835E-01 -6.92919E-03
    9001.845      2.897   1.880  9.20650E-01  9.27276E-01 -6.62609E-03
    9002.424      3.476   1.920  9.37901E-01  9.36181E-01  1.71968E-03
    9003.015      4.067   1.960  9.99695E-01  9.44552E-01  5.51430E-02
    9003.618      4.671   2.000  1.10431E+00  9.52388E-01  1.51925E-01
    9004.234      5.287   2.040  1.20611E+00  9.59672E-01  2.46438E-01
    9004.862      5.914   2.080  1.25590E+00  9.66470E-01  2.89433E-01
    9005.502      6.555   2.120  1.26217E+00  9.72723E-01  2.89447E-01
    9006.154      7.207   2.160  1.27549E+00  9.78478E-01  2.97010E-01
    9006.819      7.871   2.200  1.32740E+00  9.83742E-01  3.43661E-01
    9007.496      8.548   2.240  1.40350E+00  9.88522E-01  4.14976E-01
    9008.184      9.237   2.280  1.45199E+00  9.92846E-01  4.59147E-01
    9008.885      9.938   2.320  1.44340E+00  9.96704E-01  4.46692E-01
    9009.599     10.651   2.360  1.39575E+00  1.00016E+00  3.95590E-01
    9010.324     11.376   2.400  1.33583E+00  1.00319E+00  3.32632E-01
    9011.062     12.114   2.440  1.27426E+00  1.00583E+00  2.68438E-01
    9011.811     12.864   2.480  1.21212E+00  1.00811E+00  2.04004E-01
    9012.573     13.626   2.520  1.15623E+00  1.01004E+00  1.46190E-01
    9013.348     14.400   2.560  1.11150E+00  1.01164E+00  9.98677E-02
    9014.134     15.186   2.600  1.07799E+00  1.01292E+00  6.50688E-02
    9014.933     15.985   2.640  1.04821E+00  1.01391E+00  3.43009E-02
    9015.743     16.796   2.680  1.01969E+00  1.01462E+00  5.07182E-03
    9016.566     17.619   2.720  9.97139E-01  1.01509E+00 -1.79505E-02
    9017.401     18.454   2.760  9.82010E-01  1.01534E+00 -3.33293E-02
    9018.249     19.301   2.800  9.73599E-01  1.01536E+00 -4.17614E-02
    9019.108     20.161   2.840  9.69931E-01  1.01520E+00 -4.52725E-02
    9019.980     21.032   2.880  9.67480E-01  1.01486E+00 -4.73763E-02
    9020.864     21.916   2.920  9.62703E-01  1.01435E+00 -5.16441E-02
    9021.760     22.812   2.960  9.53179E-01  1.01371E+00 -6.05270E-02
    9022.668     23.721   3.000  9.38446E-01  1.01294E+00 -7.44943E-02
    9023.589     24.641   3.040  9.20331E-01  1.01206E+00 -9.17269E-02
    9024.522     25.574   3.080  9.02315E-01  1.01109E+00 -1.08771E-01
    9025.466     26.519   3.120  8.87306E-01  1.01003E+00 -1.22726E-01
    9026.424     27.476   3.160  8.76345E-01  1.00890E+00 -1.32555E-01
    9027.393     28.445   3.200  8.69431E-01  1.00772E+00 -1.38287E-01
    9028.374     29.427   3.240  8.66128E-01  1.00647E+00 -1.40343E-01
    9029.368     30.420   3.280  8.65703E-01  1.00521E+00 -1.39502E-01
    9030.374     31.426   3.320  8.67363E-01  1.00391E+00 -1.36543E-01
    9031.392     32.444   3.360  8.70424E-01  1.00260E+00 -1.32173E-01
    9032.422     33.474   3.400  8.74076E-01  1.00128E+00 -1.27209E-01
    9033.464     34.517   3.440  8.77824E-01  9.99951E-01 -1.22126E-01
    9034.519     35.571   3.480  8.81856E-01  9.98640E-01 -1.16785E-01
    9035.586     36.638   3.520  8.86841E-01  9.97357E-01 -1.10516E-01
    9036.665     37.717   3.560  8.93528E-01  9.96084E-01 -1.02556E-01
    9037.756     38.808   3.600  9.02736E-01  9.94824E-01 -9.20873E-02
    9038.859     39.912   3.640  9.15030E-01  9.93620E-01 -7.85895E-02
    9039.975     41.027   3.680  9.30409E-01  9.92453E-01 -6.20448E-02
    9041.103     42.155   3.720  9.48118E-01  9.91307E-01 -4.31890E-02
    9042.243     43.295   3.760  9.66832E-01  9.90224E-01 -2.33915E-02
    9043.395     44.447   3.800  9.84483E-01  9.89185E-01 -4.70170E-03
    9044.559     45.611   3.840  9.98889E-01  9.88212E-01  1.06773E-02
    9045.736     46.788   3.880  1.00833E+00  9.87264E-01  2.10632E-02
    9046.924     47.977   3.920  1.01218E+00  9.86404E-01  2.57804E-02
    9048.125     49.178   3.960  1.01102E+00  9.85573E-01  2.54511E-02
    9049.338     50.391   4.000  1.00668E+00  9.84833E-01  2.18510E-02
    9050.564     51.616   4.040  1.00158E+00  9.84120E-01  1.74615E-02
    9051.801     52.853   4.080  9.98279E-01  9.83497E-01  1.47819E-02
    9053.051     54.103   4.120  9.98566E-01  9.82905E-01  1.56616E-02
    9054.313     55.365   4.160  1.00316E+00  9.82403E-01  2.07590E-02
    9055.587     56.639   4.200  1.01129E+00  9.81951E-01  2.93411E-02
    9056.873     57.925   4.240  1.02147E+00  9.81548E-01  3.99250E-02
    9058.171     59.224   4.280  1.03249E+00  9.81217E-01  5.12772E-02
    9059.482     60.534   4.320  1.04360E+00  9.80955E-01  6.26446E-02
    9060.805     61.857   4.360  1.05375E+00  9.80741E-01  7.30068E-02
    9062.140     63.192   4.400  1.06119E+00  9.80573E-01  8.06183E-02
    9063.487     64.539   4.440  1.06403E+00  9.80472E-01  8.35599E-02
    9064.846     65.899   4.480  1.06129E+00  9.80417E-01  8.08743E-02
    9066.218     67.270   4.520  1.05390E+00  9.80405E-01  7.34930E-02
    9067.602     68.654   4.560  1.04444E+00  9.80458E-01  6.39835E-02
    9068.998     70.050   4.600  1.03575E+00  9.80532E-01  5.52163E-02
    9070.406     71.458   4.640  1.02991E+00  9.80667E-01  4.92399E-02
    9071.826     72.879   4.680  1.02770E+00  9.80843E-01  4.68570E-02
    9073.259     74.311   4.720  1.02875E+00  9.81035E-01  4.77186E-02
    9074.704     75.756   4.760  1.03209E+00  9.81285E-01  5.08068E-02
    9076.161     77.213   4.800  1.03632E+00  9.81550E-01  5.47655E-02
    9077.630     78.682   4.840  1.03983E+00  9.81849E-01  5.79777E-02
    9079.111     80.163   4.880  1.04092E+00  9.82182E-01  5.87361E-02
    9080.605     81.657   4.920  1.03828E+00  9.82524E-01  5.57526E-02
    9082.110     83.163   4.960  1.03173E+00  9.82896E-01  4.88292E-02
    9083.628     84.681   5.000  1.02219E+00  9.83277E-01  3.89134E-02
    9085.158     86.211   5.040  1.01096E+00  9.83683E-01  2.72801E-02
    9086.701     87.753   5.080  9.98879E-01  9.84093E-01  1.47858E-02
    9088.255     89.307   5.120  9.86074E-01  9.84482E-01  1.59165E-03
    9089.822     90.874   5.160  9.72245E-01  9.84893E-01 -1.26481E-02
    9091.400     92.453   5.200  9.57069E-01  9.85306E-01 -2.82369E-02
    9092.992     94.044   5.240  9.40876E-01  9.85717E-01 -4.48412E-02
    9094.595     95.647   5.280  9.24719E-01  9.86127E-01 -6.14081E-02
    9096.210     97.263   5.320  9.09863E-01  9.86532E-01 -7.66689E-02
    9097.838     98.890   5.360  8.97401E-01  9.86908E-01 -8.95065E-02
    9099.478    100.530   5.400  8.88387E-01  9.87275E-01 -9.88885E-02
    9101.130    102.182   5.440  8.83815E-01  9.87612E-01 -1.03797E-01
    9102.794    103.846   5.480  8.84442E-01  9.87942E-01 -1.03500E-01
    9104.470    105.523   5.520  8.90470E-01  9.88263E-01 -9.77932E-02
    9106.159    107.211   5.560  9.01659E-01  9.88549E-01 -8.68907E-02
    9107.860    108.912   5.600  9.17511E-01  9.88800E-01 -7.12889E-02
    9109.573    110.625   5.640  9.37382E-01  9.89015E-01 -5.16325E-02
    9111.298    112.350   5.680  9.60464E-01  9.89217E-01 -2.87526E-02
    9113.035    114.088   5.720  9.85191E-01  9.89384E-01 -4.19316E-03
    9114.785    115.837   5.760  1.00910E+00  9.89515E-01  1.95847E-02
    9116.546    117.599   5.800  1.02948E+00  9.89630E-01  3.98465E-02
    9118.320    119.373   5.840  1.04407E+00  9.89684E-01  5.43838E-02
    9120.106    121.159   5.880  1.05134E+00  9.89699E-01  6.16400E-02
    9121.905    122.957   5.920  1.05050E+00  9.89700E-01  6.07981E-02
    9123.715    124.768   5.960  1.04191E+00  9.89660E-01  5.22546E-02
    9125.538    126.590   6.000  1.02703E+00  9.89530E-01  3.75015E-02
