# # comment:                                                     FEFF 9.9.1  
# # Source:
# # Structure
# # Reduced
# # space
# # abc:
# # angles:
# # sites:
# # POT  SCF 100  7.0000   0, screened core-hole, AFOLP (folp(0)= 1.150)
# # Abs   Z=29 Rmt= 1.284 Rnm= 1.387 K  shell
# # Pot 1 Z= 3 Rmt= 1.270 Rnm= 1.331
# # Pot 2 Z=29 Rmt= 1.362 Rnm= 1.418
# # Pot 3 Z=15 Rmt= 0.946 Rnm= 1.158
# # Pot 4 Z= 8 Rmt= 0.918 Rnm= 1.040
# # Gam_ch=1.729E+00 H-L exch Vi= 0.000E+00 Vr= 0.000E+00
# # Mu=-5.977E+00eV kf=2.381E+00 Vint=-1.701E+01eV Rs_int= 1.523
# FMS rfms= 9.0000
# # PATH  Rmax=-1.000,  Keep_limit= 0.00, Heap_limit 0.00  Pwcrit= 2.50%
#  S02=0.950  Temp=   0.00  Debye_temp=   0.00  Global_sig2= 0.00000
#  Energy zero shift, vr, vi    0.00000E+00   0.00000E+00
#  Curved wave amplitude ratio filter   4.000%
#     file         sig2 tot  cw amp ratio   deg  nlegs   reff  inp sig2
#     0/   0 paths used
#  xsedge+ 50, used to normalize mu           2.4784E-04
#  -----------------------------------------------------------------------
#  omega    e    k    mu    mu0     chi     @#
    8983.613     -9.787  -1.000  5.72737E-02  5.61203E-02  1.15348E-03
    8983.912     -9.488  -0.960  6.16685E-02  6.02852E-02  1.38336E-03
    8984.199     -9.202  -0.920  6.65944E-02  6.49224E-02  1.67195E-03
    8984.473     -8.927  -0.880  7.21368E-02  7.01026E-02  2.03425E-03
    8984.735     -8.665  -0.840  7.83965E-02  7.59077E-02  2.48875E-03
    8984.985     -8.415  -0.800  8.54913E-02  8.24334E-02  3.05798E-03
    8985.223     -8.177  -0.760  9.35582E-02  8.97891E-02  3.76911E-03
    8985.448     -7.952  -0.720  1.02753E-01  9.80988E-02  4.65425E-03
    8985.662     -7.739  -0.680  1.13250E-01  1.07499E-01  5.75039E-03
    8985.863     -7.537  -0.640  1.25234E-01  1.18136E-01  7.09861E-03
    8986.052     -7.348  -0.600  1.38891E-01  1.30149E-01  8.74200E-03
    8986.229     -7.172  -0.560  1.54385E-01  1.43663E-01  1.07217E-02
    8986.393     -7.007  -0.520  1.71820E-01  1.58750E-01  1.30708E-02
    8986.546     -6.855  -0.480  1.91200E-01  1.75395E-01  1.58049E-02
    8986.686     -6.714  -0.440  2.12364E-01  1.93451E-01  1.89123E-02
    8986.814     -6.586  -0.400  2.34946E-01  2.12603E-01  2.23431E-02
    8986.930     -6.471  -0.360  2.58354E-01  2.32349E-01  2.60049E-02
    8987.033     -6.367  -0.320  2.81808E-01  2.52041E-01  2.97667E-02
    8987.125     -6.276  -0.280  3.04433E-01  2.70960E-01  3.34724E-02
    8987.204     -6.196  -0.240  3.25379E-01  2.88416E-01  3.69626E-02
    8987.271     -6.129  -0.200  3.43927E-01  3.03832E-01  4.00953E-02
    8987.326     -6.074  -0.160  3.59551E-01  3.16790E-01  4.27608E-02
    8987.369     -6.032  -0.120  3.71912E-01  3.27026E-01  4.48855E-02
    8987.399     -6.001  -0.080  3.80820E-01  3.34395E-01  4.64243E-02
    8987.423     -5.977   0.000  3.87963E-01  3.40313E-01  4.76504E-02
    8987.478     -5.922   0.120  4.03658E-01  3.53636E-01  5.00217E-02
    8987.521     -5.879   0.160  4.15979E-01  3.63983E-01  5.19966E-02
    8987.576     -5.824   0.200  4.31740E-01  3.77191E-01  5.45489E-02
    8987.643     -5.757   0.240  4.50659E-01  3.93026E-01  5.76322E-02
    8987.722     -5.678   0.280  4.72283E-01  4.11167E-01  6.11165E-02
    8987.814     -5.587   0.320  4.95859E-01  4.31099E-01  6.47608E-02
    8987.917     -5.483   0.360  5.20352E-01  4.52235E-01  6.81173E-02
    8988.033     -5.367   0.400  5.44315E-01  4.73889E-01  7.04258E-02
    8988.161     -5.239   0.440  5.65973E-01  4.95494E-01  7.04792E-02
    8988.301     -5.099   0.480  5.83126E-01  5.16596E-01  6.65304E-02
    8988.454     -4.947   0.520  5.93301E-01  5.36865E-01  5.64358E-02
    8988.618     -4.782   0.560  5.94444E-01  5.56190E-01  3.82540E-02
    8988.795     -4.605   0.600  5.85799E-01  5.74521E-01  1.12773E-02
    8988.984     -4.416   0.640  5.68974E-01  5.91945E-01 -2.29709E-02
    8989.185     -4.215   0.680  5.47972E-01  6.08550E-01 -6.05785E-02
    8989.399     -4.002   0.720  5.28098E-01  6.24423E-01 -9.63254E-02
    8989.624     -3.776   0.760  5.14454E-01  6.39728E-01 -1.25274E-01
    8989.862     -3.538   0.800  5.10623E-01  6.54520E-01 -1.43896E-01
    8990.112     -3.289   0.840  5.18277E-01  6.68900E-01 -1.50623E-01
    8990.374     -3.026   0.880  5.36348E-01  6.82934E-01 -1.46587E-01
    8990.648     -2.752   0.920  5.60422E-01  6.96695E-01 -1.36273E-01
    8990.935     -2.466   0.960  5.84786E-01  7.10220E-01 -1.25434E-01
    8991.233     -2.167   1.000  6.07106E-01  7.23535E-01 -1.16429E-01
    8991.544     -1.856   1.040  6.29595E-01  7.36655E-01 -1.07060E-01
    8991.867     -1.533   1.080  6.54720E-01  7.49591E-01 -9.48706E-02
    8992.203     -1.198   1.120  6.81812E-01  7.62342E-01 -8.05303E-02
    8992.550     -0.850   1.160  7.07938E-01  7.74923E-01 -6.69852E-02
    8992.910     -0.490   1.200  7.31076E-01  7.87324E-01 -5.62481E-02
    8993.282     -0.119   1.240  7.52785E-01  7.99533E-01 -4.67481E-02
    8993.666      0.265   1.280  7.77515E-01  8.11530E-01 -3.40151E-02
    8994.062      0.662   1.320  8.07953E-01  8.23296E-01 -1.53428E-02
    8994.470      1.070   1.360  8.42763E-01  8.34812E-01  7.95131E-03
    8994.891      1.491   1.400  8.80353E-01  8.46073E-01  3.42806E-02
    8995.324      1.924   1.440  9.19214E-01  8.57076E-01  6.21376E-02
    8995.769      2.369   1.480  9.56738E-01  8.67757E-01  8.89810E-02
    8996.226      2.826   1.520  9.94066E-01  8.78150E-01  1.15916E-01
    8996.695      3.295   1.560  1.02897E+00  8.88189E-01  1.40779E-01
    8997.177      3.777   1.600  1.05401E+00  8.97893E-01  1.56119E-01
    8997.671      4.270   1.640  1.06808E+00  9.07255E-01  1.60829E-01
    8998.177      4.776   1.680  1.07168E+00  9.16230E-01  1.55453E-01
    8998.695      5.295   1.720  1.06359E+00  9.24814E-01  1.38773E-01
    8999.225      5.825   1.760  1.04928E+00  9.33006E-01  1.16277E-01
    8999.768      6.368   1.800  1.04049E+00  9.40803E-01  9.96867E-02
    9000.322      6.922   1.840  1.04189E+00  9.48203E-01  9.36901E-02
    9000.889      7.489   1.880  1.04960E+00  9.55187E-01  9.44148E-02
    9001.469      8.068   1.920  1.06010E+00  9.61773E-01  9.83299E-02
    9002.060      8.660   1.960  1.07469E+00  9.67923E-01  1.06765E-01
    9002.663      9.263   2.000  1.09360E+00  9.73678E-01  1.19925E-01
    9003.279      9.879   2.040  1.10997E+00  9.79040E-01  1.30925E-01
    9003.907     10.507   2.080  1.11475E+00  9.83973E-01  1.30781E-01
    9004.547     11.147   2.120  1.10588E+00  9.88520E-01  1.17359E-01
    9005.199     11.799   2.160  1.08904E+00  9.92686E-01  9.63526E-02
    9005.864     12.463   2.200  1.06900E+00  9.96477E-01  7.25209E-02
    9006.540     13.140   2.240  1.04992E+00  9.99897E-01  5.00242E-02
    9007.229     13.829   2.280  1.03791E+00  1.00295E+00  3.49616E-02
    9007.930     14.530   2.320  1.03525E+00  1.00567E+00  2.95847E-02
    9008.643     15.243   2.360  1.03750E+00  1.00805E+00  2.94421E-02
    9009.369     15.969   2.400  1.03873E+00  1.01012E+00  2.86169E-02
    9010.107     16.706   2.440  1.03689E+00  1.01188E+00  2.50039E-02
    9010.856     17.456   2.480  1.03191E+00  1.01336E+00  1.85557E-02
    9011.618     18.218   2.520  1.02467E+00  1.01456E+00  1.01144E-02
    9012.393     18.992   2.560  1.01665E+00  1.01550E+00  1.15553E-03
    9013.179     19.779   2.600  1.00818E+00  1.01619E+00 -8.01650E-03
    9013.977     20.577   2.640  9.99394E-01  1.01667E+00 -1.72797E-02
    9014.788     21.388   2.680  9.92652E-01  1.01693E+00 -2.42734E-02
    9015.611     22.211   2.720  9.92069E-01  1.01700E+00 -2.49268E-02
    9016.446     23.046   2.760  1.00055E+00  1.01687E+00 -1.63259E-02
    9017.294     23.893   2.800  1.01241E+00  1.01660E+00 -4.19561E-03
    9018.153     24.753   2.840  1.01725E+00  1.01615E+00  1.10209E-03
    9019.025     25.625   2.880  1.01500E+00  1.01559E+00 -5.92504E-04
    9019.909     26.509   2.920  1.00891E+00  1.01489E+00 -5.97243E-03
    9020.805     27.405   2.960  1.00184E+00  1.01406E+00 -1.22255E-02
    9021.713     28.313   3.000  9.94985E-01  1.01317E+00 -1.81842E-02
    9022.634     29.234   3.040  9.88452E-01  1.01217E+00 -2.37176E-02
    9023.566     30.166   3.080  9.81996E-01  1.01109E+00 -2.90953E-02
    9024.511     31.111   3.120  9.75506E-01  1.00996E+00 -3.44555E-02
    9025.468     32.068   3.160  9.69151E-01  1.00878E+00 -3.96339E-02
    9026.438     33.037   3.200  9.63046E-01  1.00757E+00 -4.45202E-02
    9027.419     34.019   3.240  9.57384E-01  1.00631E+00 -4.89269E-02
    9028.413     35.012   3.280  9.52453E-01  1.00504E+00 -5.25911E-02
    9029.419     36.018   3.320  9.48590E-01  1.00375E+00 -5.51596E-02
    9030.437     37.036   3.360  9.46335E-01  1.00247E+00 -5.61365E-02
    9031.467     38.067   3.400  9.46105E-01  1.00117E+00 -5.50681E-02
    9032.509     39.109   3.440  9.47974E-01  9.99898E-01 -5.19242E-02
    9033.564     40.164   3.480  9.51407E-01  9.98632E-01 -4.72247E-02
    9034.631     41.230   3.520  9.55700E-01  9.97396E-01 -4.16962E-02
    9035.710     42.309   3.560  9.60102E-01  9.96195E-01 -3.60933E-02
    9036.801     43.401   3.600  9.64011E-01  9.95010E-01 -3.09996E-02
    9037.904     44.504   3.640  9.67236E-01  9.93886E-01 -2.66499E-02
    9039.020     45.619   3.680  9.69768E-01  9.92802E-01 -2.30340E-02
    9040.147     46.747   3.720  9.71722E-01  9.91761E-01 -2.00392E-02
    9041.287     47.887   3.760  9.73319E-01  9.90764E-01 -1.74453E-02
    9042.440     49.039   3.800  9.74893E-01  9.89833E-01 -1.49400E-02
    9043.604     50.204   3.840  9.76730E-01  9.88951E-01 -1.22203E-02
    9044.780     51.380   3.880  9.79055E-01  9.88115E-01 -9.06055E-03
    9045.969     52.569   3.920  9.82007E-01  9.87350E-01 -5.34310E-03
    9047.170     53.770   3.960  9.85591E-01  9.86657E-01 -1.06603E-03
    9048.383     54.983   4.000  9.89678E-01  9.86015E-01  3.66307E-03
    9049.608     56.208   4.040  9.94144E-01  9.85445E-01  8.69855E-03
    9050.846     57.446   4.080  9.98869E-01  9.84948E-01  1.39202E-02
    9052.096     58.695   4.120  1.00372E+00  9.84503E-01  1.92223E-02
    9053.357     59.957   4.160  1.00859E+00  9.84128E-01  2.44632E-02
    9054.632     61.231   4.200  1.01323E+00  9.83802E-01  2.94243E-02
    9055.918     62.518   4.240  1.01734E+00  9.83547E-01  3.37913E-02
    9057.216     63.816   4.280  1.02061E+00  9.83344E-01  3.72693E-02
    9058.527     65.127   4.320  1.02295E+00  9.83211E-01  3.97378E-02
    9059.850     66.449   4.360  1.02441E+00  9.83149E-01  4.12647E-02
    9061.185     67.784   4.400  1.02514E+00  9.83135E-01  4.20084E-02
    9062.532     69.132   4.440  1.02530E+00  9.83166E-01  4.21378E-02
    9063.891     70.491   4.480  1.02504E+00  9.83264E-01  4.17771E-02
    9065.263     71.863   4.520  1.02431E+00  9.83386E-01  4.09229E-02
    9066.647     73.246   4.560  1.02309E+00  9.83592E-01  3.94958E-02
    9068.043     74.642   4.600  1.02123E+00  9.83820E-01  3.74132E-02
    9069.451     76.051   4.640  1.01871E+00  9.84088E-01  3.46270E-02
    9070.871     77.471   4.680  1.01558E+00  9.84395E-01  3.11817E-02
    9072.304     78.904   4.720  1.01202E+00  9.84762E-01  2.72595E-02
    9073.749     80.348   4.760  1.00813E+00  9.85122E-01  2.30098E-02
    9075.205     81.805   4.800  1.00406E+00  9.85539E-01  1.85237E-02
    9076.675     83.274   4.840  9.99806E-01  9.85991E-01  1.38145E-02
    9078.156     84.756   4.880  9.95345E-01  9.86451E-01  8.89388E-03
    9079.649     86.249   4.920  9.90889E-01  9.86919E-01  3.97044E-03
    9081.155     87.755   4.960  9.86918E-01  9.87413E-01 -4.94313E-04
    9082.673     89.273   5.000  9.83960E-01  9.87913E-01 -3.95245E-03
    9084.203     90.803   5.040  9.82283E-01  9.88416E-01 -6.13318E-03
    9085.745     92.345   5.080  9.81638E-01  9.88942E-01 -7.30413E-03
    9087.300     93.900   5.120  9.81280E-01  9.89446E-01 -8.16603E-03
    9088.867     95.466   5.160  9.80425E-01  9.89946E-01 -9.52132E-03
    9090.445     97.045   5.200  9.78571E-01  9.90444E-01 -1.18735E-02
    9092.036     98.636   5.240  9.75724E-01  9.90938E-01 -1.52139E-02
    9093.640    100.239   5.280  9.72371E-01  9.91426E-01 -1.90556E-02
    9095.255    101.855   5.320  9.69201E-01  9.91884E-01 -2.26826E-02
    9096.883    103.482   5.360  9.66850E-01  9.92332E-01 -2.54814E-02
    9098.523    105.122   5.400  9.65586E-01  9.92745E-01 -2.71596E-02
    9100.175    106.774   5.440  9.65273E-01  9.93124E-01 -2.78517E-02
    9101.839    108.439   5.480  9.65493E-01  9.93490E-01 -2.79969E-02
    9103.515    110.115   5.520  9.65708E-01  9.93822E-01 -2.81134E-02
    9105.204    111.803   5.560  9.65568E-01  9.94114E-01 -2.85465E-02
    9106.905    113.504   5.600  9.64981E-01  9.94369E-01 -2.93874E-02
    9108.617    115.217   5.640  9.64142E-01  9.94607E-01 -3.04654E-02
    9110.343    116.942   5.680  9.63385E-01  9.94783E-01 -3.13976E-02
    9112.080    118.680   5.720  9.63201E-01  9.94917E-01 -3.17161E-02
    9113.830    120.429   5.760  9.64020E-01  9.95035E-01 -3.10152E-02
    9115.591    122.191   5.800  9.66084E-01  9.95088E-01 -2.90039E-02
    9117.365    123.965   5.840  9.69619E-01  9.95100E-01 -2.54805E-02
    9119.151    125.751   5.880  9.74712E-01  9.95068E-01 -2.03565E-02
    9120.950    127.549   5.920  9.81203E-01  9.94995E-01 -1.37920E-02
    9122.760    129.360   5.960  9.88590E-01  9.94849E-01 -6.25980E-03
    9124.583    131.183   6.000  9.96269E-01  9.94659E-01  1.60990E-03
