# # comment:                                                     FEFF 9.9.1  
# # Source:
# # Structure
# # Reduced
# # space
# # abc:
# # angles:
# # sites:
# # POT  SCF 100  7.0000   0, screened core-hole, AFOLP (folp(0)= 1.150)
# # Abs   Z=29 Rmt= 1.173 Rnm= 1.281 K  shell
# # Pot 1 Z=57 Rmt= 1.729 Rnm= 1.811
# # Pot 2 Z=29 Rmt= 1.160 Rnm= 1.272
# # Pot 3 Z= 8 Rmt= 1.036 Rnm= 1.105
# # Gam_ch=1.729E+00 H-L exch Vi= 0.000E+00 Vr= 0.000E+00
# # Mu=-8.492E+00eV kf=2.060E+00 Vint=-1.785E+01eV Rs_int= 1.760
# FMS rfms= 9.0000
# # PATH  Rmax=-1.000,  Keep_limit= 0.00, Heap_limit 0.00  Pwcrit= 2.50%
#  S02=0.950  Temp=   0.00  Debye_temp=   0.00  Global_sig2= 0.00000
#  Energy zero shift, vr, vi    0.00000E+00   0.00000E+00
#  Curved wave amplitude ratio filter   4.000%
#     file         sig2 tot  cw amp ratio   deg  nlegs   reff  inp sig2
#     0/   0 paths used
#  xsedge+ 50, used to normalize mu           2.4683E-04
#  -----------------------------------------------------------------------
#  omega    e    k    mu    mu0     chi     @#
    8984.577    -12.302  -1.000  3.83862E-02  5.38557E-02 -1.54695E-02
    8984.875    -12.003  -0.960  4.06385E-02  5.77731E-02 -1.71346E-02
    8985.162    -11.717  -0.920  4.31170E-02  6.21271E-02 -1.90101E-02
    8985.436    -11.442  -0.880  4.58563E-02  6.69822E-02 -2.11259E-02
    8985.698    -11.180  -0.840  4.88975E-02  7.24133E-02 -2.35158E-02
    8985.948    -10.930  -0.800  5.22889E-02  7.85074E-02 -2.62185E-02
    8986.186    -10.692  -0.760  5.60870E-02  8.53642E-02 -2.92772E-02
    8986.412    -10.467  -0.720  6.03564E-02  9.30965E-02 -3.27401E-02
    8986.625    -10.254  -0.680  6.51697E-02  1.01829E-01 -3.66588E-02
    8986.826    -10.052  -0.640  7.06046E-02  1.11692E-01 -4.10869E-02
    8987.015     -9.863  -0.600  7.67388E-02  1.22814E-01 -4.60754E-02
    8987.192     -9.687  -0.560  8.36397E-02  1.35307E-01 -5.16668E-02
    8987.356     -9.522  -0.520  9.13494E-02  1.49234E-01 -5.78848E-02
    8987.509     -9.370  -0.480  9.98618E-02  1.64583E-01 -6.47210E-02
    8987.649     -9.229  -0.440  1.09098E-01  1.81217E-01 -7.21195E-02
    8987.777     -9.101  -0.400  1.18884E-01  1.98848E-01 -7.99638E-02
    8987.893     -8.986  -0.360  1.28947E-01  2.17019E-01 -8.80716E-02
    8987.997     -8.882  -0.320  1.38934E-01  2.35138E-01 -9.62042E-02
    8988.088     -8.791  -0.280  1.48457E-01  2.52548E-01 -1.04091E-01
    8988.167     -8.711  -0.240  1.57157E-01  2.68616E-01 -1.11458E-01
    8988.234     -8.644  -0.200  1.64750E-01  2.82814E-01 -1.18063E-01
    8988.289     -8.589  -0.160  1.71048E-01  2.94755E-01 -1.23706E-01
    8988.332     -8.547  -0.120  1.75951E-01  3.04193E-01 -1.28242E-01
    8988.362     -8.516  -0.080  1.79419E-01  3.10991E-01 -1.31573E-01
    8988.387     -8.492   0.000  1.82109E-01  3.16453E-01 -1.34344E-01
    8988.442     -8.437   0.120  1.88389E-01  3.28769E-01 -1.40380E-01
    8988.484     -8.394   0.160  1.93190E-01  3.38325E-01 -1.45135E-01
    8988.539     -8.339   0.200  1.99216E-01  3.50545E-01 -1.51329E-01
    8988.606     -8.272   0.240  2.06208E-01  3.65221E-01 -1.59014E-01
    8988.685     -8.193   0.280  2.13867E-01  3.82079E-01 -1.68212E-01
    8988.777     -8.102   0.320  2.21714E-01  4.00662E-01 -1.78947E-01
    8988.880     -7.998   0.360  2.29292E-01  4.20452E-01 -1.91161E-01
    8988.996     -7.882   0.400  2.36084E-01  4.40838E-01 -2.04754E-01
    8989.124     -7.754   0.440  2.41820E-01  4.61296E-01 -2.19476E-01
    8989.265     -7.614   0.480  2.46490E-01  4.81442E-01 -2.34952E-01
    8989.417     -7.462   0.520  2.50375E-01  5.00981E-01 -2.50607E-01
    8989.582     -7.297   0.560  2.54035E-01  5.19795E-01 -2.65759E-01
    8989.758     -7.120   0.600  2.58033E-01  5.37851E-01 -2.79818E-01
    8989.947     -6.931   0.640  2.62815E-01  5.55229E-01 -2.92414E-01
    8990.148     -6.730   0.680  2.68353E-01  5.71983E-01 -3.03630E-01
    8990.362     -6.517   0.720  2.74403E-01  5.88204E-01 -3.13801E-01
    8990.587     -6.291   0.760  2.80752E-01  6.03977E-01 -3.23225E-01
    8990.825     -6.053   0.800  2.87617E-01  6.19422E-01 -3.31805E-01
    8991.075     -5.803   0.840  2.95937E-01  6.34584E-01 -3.38647E-01
    8991.337     -5.541   0.880  3.07367E-01  6.49514E-01 -3.42147E-01
    8991.611     -5.267   0.920  3.23332E-01  6.64273E-01 -3.40941E-01
    8991.898     -4.981   0.960  3.43705E-01  6.78865E-01 -3.35160E-01
    8992.197     -4.682   1.000  3.66570E-01  6.93306E-01 -3.26736E-01
    8992.508     -4.371   1.040  3.89173E-01  7.07602E-01 -3.18428E-01
    8992.831     -4.048   1.080  4.07339E-01  7.21772E-01 -3.14434E-01
    8993.166     -3.713   1.120  4.13950E-01  7.35790E-01 -3.21840E-01
    8993.513     -3.365   1.160  4.05628E-01  7.49661E-01 -3.44032E-01
    8993.873     -3.005   1.200  3.90220E-01  7.63328E-01 -3.73108E-01
    8994.245     -2.634   1.240  3.78892E-01  7.76813E-01 -3.97921E-01
    8994.629     -2.250   1.280  3.76909E-01  7.90092E-01 -4.13183E-01
    8995.025     -1.853   1.320  3.86151E-01  8.03119E-01 -4.16969E-01
    8995.434     -1.445   1.360  4.09771E-01  8.15870E-01 -4.06099E-01
    8995.854     -1.024   1.400  4.52797E-01  8.28335E-01 -3.75537E-01
    8996.287     -0.591   1.440  5.17218E-01  8.40468E-01 -3.23249E-01
    8996.732     -0.146   1.480  5.96658E-01  8.52281E-01 -2.55624E-01
    8997.189      0.311   1.520  6.79914E-01  8.63726E-01 -1.83812E-01
    8997.659      0.780   1.560  7.54417E-01  8.74797E-01 -1.20379E-01
    8998.140      1.262   1.600  8.08556E-01  8.85445E-01 -7.68894E-02
    8998.634      1.756   1.640  8.51109E-01  8.95705E-01 -4.45957E-02
    8999.140      2.261   1.680  9.05324E-01  9.05511E-01 -1.86233E-04
    8999.658      2.780   1.720  9.86724E-01  9.14880E-01  7.18441E-02
    9000.188      3.310   1.760  1.09720E+00  9.23808E-01  1.73395E-01
    9000.731      3.853   1.800  1.22560E+00  9.32273E-01  2.93324E-01
    9001.286      4.407   1.840  1.35409E+00  9.40273E-01  4.13816E-01
    9001.853      4.974   1.880  1.46482E+00  9.47809E-01  5.17012E-01
    9002.432      5.553   1.920  1.51807E+00  9.54882E-01  5.63188E-01
    9003.023      6.145   1.960  1.48041E+00  9.61494E-01  5.18916E-01
    9003.627      6.748   2.000  1.39979E+00  9.67645E-01  4.32148E-01
    9004.242      7.364   2.040  1.34089E+00  9.73341E-01  3.67545E-01
    9004.870      7.992   2.080  1.30680E+00  9.78588E-01  3.28208E-01
    9005.510      8.632   2.120  1.27321E+00  9.83409E-01  2.89805E-01
    9006.163      9.284   2.160  1.22830E+00  9.87813E-01  2.40490E-01
    9006.827      9.949   2.200  1.17489E+00  9.91805E-01  1.83085E-01
    9007.504     10.625   2.240  1.12590E+00  9.95391E-01  1.30505E-01
    9008.193     11.314   2.280  1.09167E+00  9.98602E-01  9.30648E-02
    9008.894     12.015   2.320  1.07105E+00  1.00147E+00  6.95848E-02
    9009.607     12.728   2.360  1.06061E+00  1.00397E+00  5.66384E-02
    9010.332     13.454   2.400  1.06269E+00  1.00612E+00  5.65690E-02
    9011.070     14.191   2.440  1.08217E+00  1.00799E+00  7.41802E-02
    9011.820     14.941   2.480  1.10805E+00  1.00955E+00  9.85017E-02
    9012.582     15.703   2.520  1.11642E+00  1.01082E+00  1.05609E-01
    9013.356     16.477   2.560  1.10939E+00  1.01183E+00  9.75629E-02
    9014.142     17.264   2.600  1.09808E+00  1.01260E+00  8.54821E-02
    9014.941     18.062   2.640  1.08813E+00  1.01313E+00  7.49981E-02
    9015.752     18.873   2.680  1.07971E+00  1.01345E+00  6.62621E-02
    9016.574     19.696   2.720  1.07109E+00  1.01359E+00  5.74934E-02
    9017.410     20.531   2.760  1.06042E+00  1.01354E+00  4.68722E-02
    9018.257     21.378   2.800  1.04623E+00  1.01335E+00  3.28833E-02
    9019.116     22.238   2.840  1.02791E+00  1.01298E+00  1.49262E-02
    9019.988     23.110   2.880  1.00637E+00  1.01251E+00 -6.13374E-03
    9020.872     23.994   2.920  9.82903E-01  1.01191E+00 -2.90060E-02
    9021.768     24.890   2.960  9.59355E-01  1.01122E+00 -5.18640E-02
    9022.677     25.798   3.000  9.37769E-01  1.01042E+00 -7.26511E-02
    9023.597     26.719   3.040  9.19280E-01  1.00954E+00 -9.02611E-02
    9024.530     27.651   3.080  9.04022E-01  1.00861E+00 -1.04586E-01
    9025.475     28.596   3.120  8.91846E-01  1.00763E+00 -1.15782E-01
    9026.432     29.553   3.160  8.82020E-01  1.00661E+00 -1.24586E-01
    9027.401     30.522   3.200  8.74150E-01  1.00555E+00 -1.31395E-01
    9028.382     31.504   3.240  8.68339E-01  1.00445E+00 -1.36110E-01
    9029.376     32.498   3.280  8.64777E-01  1.00334E+00 -1.38567E-01
    9030.382     33.503   3.320  8.63593E-01  1.00224E+00 -1.38642E-01
    9031.400     34.521   3.360  8.64824E-01  1.00113E+00 -1.36302E-01
    9032.430     35.552   3.400  8.68441E-01  1.00002E+00 -1.31579E-01
    9033.473     36.594   3.440  8.73864E-01  9.98942E-01 -1.25077E-01
    9034.527     37.649   3.480  8.80678E-01  9.97872E-01 -1.17194E-01
    9035.594     38.715   3.520  8.88813E-01  9.96837E-01 -1.08024E-01
    9036.673     39.794   3.560  8.98408E-01  9.95838E-01 -9.74302E-02
    9037.764     40.886   3.600  9.09544E-01  9.94877E-01 -8.53323E-02
    9038.867     41.989   3.640  9.22189E-01  9.93955E-01 -7.17659E-02
    9039.983     43.105   3.680  9.36173E-01  9.93076E-01 -5.69030E-02
    9041.111     44.232   3.720  9.51161E-01  9.92240E-01 -4.10790E-02
    9042.251     45.372   3.760  9.66813E-01  9.91469E-01 -2.46569E-02
    9043.403     46.524   3.800  9.82616E-01  9.90745E-01 -8.12888E-03
    9044.567     47.689   3.840  9.97681E-01  9.90067E-01  7.61422E-03
    9045.744     48.865   3.880  1.01088E+00  9.89458E-01  2.14213E-02
    9046.932     50.054   3.920  1.02103E+00  9.88897E-01  3.21303E-02
    9048.133     51.255   3.960  1.02717E+00  9.88406E-01  3.87651E-02
    9049.346     52.468   4.000  1.02880E+00  9.87963E-01  4.08356E-02
    9050.572     53.693   4.040  1.02627E+00  9.87591E-01  3.86757E-02
    9051.809     54.931   4.080  1.02090E+00  9.87269E-01  3.36262E-02
    9053.059     56.180   4.120  1.01463E+00  9.87016E-01  2.76174E-02
    9054.321     57.442   4.160  1.00941E+00  9.86811E-01  2.25970E-02
    9055.595     58.716   4.200  1.00652E+00  9.86676E-01  1.98392E-02
    9056.881     60.003   4.240  1.00638E+00  9.86588E-01  1.97913E-02
    9058.180     61.301   4.280  1.00887E+00  9.86546E-01  2.23195E-02
    9059.490     62.612   4.320  1.01366E+00  9.86573E-01  2.70835E-02
    9060.813     63.934   4.360  1.02040E+00  9.86646E-01  3.37551E-02
    9062.148     65.269   4.400  1.02875E+00  9.86784E-01  4.19646E-02
    9063.495     66.617   4.440  1.03817E+00  9.86944E-01  5.12312E-02
    9064.855     67.976   4.480  1.04786E+00  9.87168E-01  6.06922E-02
    9066.226     69.348   4.520  1.05649E+00  9.87434E-01  6.90599E-02
    9067.610     70.731   4.560  1.06264E+00  9.87738E-01  7.49022E-02
    9069.006     72.127   4.600  1.06510E+00  9.88059E-01  7.70359E-02
    9070.414     73.536   4.640  1.06338E+00  9.88440E-01  7.49410E-02
    9071.834     74.956   4.680  1.05790E+00  9.88858E-01  6.90468E-02
    9073.267     76.389   4.720  1.04981E+00  9.89288E-01  6.05223E-02
    9074.712     77.833   4.760  1.04047E+00  9.89750E-01  5.07207E-02
    9076.169     79.290   4.800  1.03113E+00  9.90221E-01  4.09099E-02
    9077.638     80.759   4.840  1.02280E+00  9.90721E-01  3.20764E-02
    9079.119     82.241   4.880  1.01603E+00  9.91227E-01  2.48013E-02
    9080.613     83.734   4.920  1.01088E+00  9.91738E-01  1.91376E-02
    9082.118     85.240   4.960  1.00690E+00  9.92275E-01  1.46242E-02
    9083.636     86.758   5.000  1.00343E+00  9.92816E-01  1.06170E-02
    9085.166     88.288   5.040  9.99987E-01  9.93357E-01  6.63032E-03
    9086.709     89.830   5.080  9.96391E-01  9.93896E-01  2.49477E-03
    9088.263     91.385   5.120  9.92712E-01  9.94431E-01 -1.71911E-03
    9089.830     92.951   5.160  9.89022E-01  9.94939E-01 -5.91709E-03
    9091.409     94.530   5.200  9.85357E-01  9.95441E-01 -1.00838E-02
    9093.000     96.121   5.240  9.81547E-01  9.95938E-01 -1.43909E-02
    9094.603     97.724   5.280  9.77247E-01  9.96427E-01 -1.91794E-02
    9096.218     99.340   5.320  9.72236E-01  9.96883E-01 -2.46471E-02
    9097.846    100.968   5.360  9.66831E-01  9.97305E-01 -3.04744E-02
    9099.486    102.607   5.400  9.61928E-01  9.97715E-01 -3.57876E-02
    9101.138    104.259   5.440  9.58514E-01  9.98089E-01 -3.95755E-02
    9102.802    105.924   5.480  9.57218E-01  9.98428E-01 -4.12101E-02
    9104.478    107.600   5.520  9.58018E-01  9.98750E-01 -4.07324E-02
    9106.167    109.289   5.560  9.60254E-01  9.99012E-01 -3.87580E-02
    9107.868    110.989   5.600  9.63183E-01  9.99255E-01 -3.60726E-02
    9109.581    112.702   5.640  9.66140E-01  9.99438E-01 -3.32981E-02
    9111.306    114.427   5.680  9.68846E-01  9.99604E-01 -3.07584E-02
    9113.043    116.165   5.720  9.71270E-01  9.99730E-01 -2.84603E-02
    9114.793    117.914   5.760  9.73670E-01  9.99815E-01 -2.61444E-02
    9116.555    119.676   5.800  9.76323E-01  9.99835E-01 -2.35118E-02
    9118.328    121.450   5.840  9.79281E-01  9.99836E-01 -2.05549E-02
    9120.115    123.236   5.880  9.82091E-01  9.99772E-01 -1.76810E-02
    9121.913    125.034   5.920  9.84149E-01  9.99666E-01 -1.55176E-02
    9123.723    126.845   5.960  9.85070E-01  9.99542E-01 -1.44724E-02
    9125.546    128.668   6.000  9.84989E-01  9.99321E-01 -1.43315E-02
