# # comment:                                                     FEFF 9.9.1  
# # Source:
# # Structure
# # Reduced
# # space
# # abc:
# # angles:
# # sites:
# # POT  SCF 100  7.0000   0, screened core-hole, AFOLP (folp(0)= 1.150)
# # Abs   Z=29 Rmt= 1.268 Rnm= 1.338 K  shell
# # Pot 1 Z=29 Rmt= 1.268 Rnm= 1.338
# # Pot 2 Z= 8 Rmt= 0.991 Rnm= 1.080
# # Pot 3 Z=73 Rmt= 1.322 Rnm= 1.467
# # Gam_ch=1.729E+00 H-L exch Vi= 0.000E+00 Vr= 0.000E+00
# # Mu=-5.778E+00eV kf=2.254E+00 Vint=-1.647E+01eV Rs_int= 1.609
# FMS rfms= 9.0000
# # PATH  Rmax=-1.000,  Keep_limit= 0.00, Heap_limit 0.00  Pwcrit= 2.50%
#  S02=0.950  Temp=   0.00  Debye_temp=   0.00  Global_sig2= 0.00000
#  Energy zero shift, vr, vi    0.00000E+00   0.00000E+00
#  Curved wave amplitude ratio filter   4.000%
#     file         sig2 tot  cw amp ratio   deg  nlegs   reff  inp sig2
#     0/   0 paths used
#  xsedge+ 50, used to normalize mu           2.4607E-04
#  -----------------------------------------------------------------------
#  omega    e    k    mu    mu0     chi     @#
    8983.600     -9.588  -1.000  5.41526E-02  5.88569E-02 -4.70431E-03
    8983.899     -9.289  -0.960  5.78099E-02  6.32978E-02 -5.48783E-03
    8984.185     -9.003  -0.920  6.18217E-02  6.82475E-02 -6.42576E-03
    8984.459     -8.729  -0.880  6.62311E-02  7.37824E-02 -7.55131E-03
    8984.721     -8.466  -0.840  7.10864E-02  7.99914E-02 -8.90501E-03
    8984.971     -8.217  -0.800  7.64417E-02  8.69777E-02 -1.05360E-02
    8985.209     -7.979  -0.760  8.23569E-02  9.48602E-02 -1.25033E-02
    8985.435     -7.753  -0.720  8.88966E-02  1.03773E-01 -1.48764E-02
    8985.648     -7.540  -0.680  9.61291E-02  1.13865E-01 -1.77354E-02
    8985.849     -7.339  -0.640  1.04123E-01  1.25291E-01 -2.11688E-02
    8986.038     -7.150  -0.600  1.12940E-01  1.38208E-01 -2.52676E-02
    8986.215     -6.973  -0.560  1.22631E-01  1.52747E-01 -3.01157E-02
    8986.380     -6.808  -0.520  1.33215E-01  1.68987E-01 -3.57717E-02
    8986.532     -6.656  -0.480  1.44669E-01  1.86914E-01 -4.22449E-02
    8986.672     -6.516  -0.440  1.56903E-01  2.06369E-01 -4.94667E-02
    8986.800     -6.388  -0.400  1.69743E-01  2.27010E-01 -5.72676E-02
    8986.916     -6.272  -0.360  1.82926E-01  2.48298E-01 -6.53718E-02
    8987.020     -6.168  -0.320  1.96107E-01  2.69530E-01 -7.34236E-02
    8987.111     -6.077  -0.280  2.08887E-01  2.89930E-01 -8.10431E-02
    8987.190     -5.998  -0.240  2.20855E-01  3.08751E-01 -8.78952E-02
    8987.257     -5.931  -0.200  2.31630E-01  3.25371E-01 -9.37416E-02
    8987.312     -5.876  -0.160  2.40880E-01  3.39340E-01 -9.84599E-02
    8987.355     -5.833  -0.120  2.48346E-01  3.50372E-01 -1.02027E-01
    8987.385     -5.803  -0.080  2.53832E-01  3.58314E-01 -1.04482E-01
    8987.410     -5.778   0.000  2.58352E-01  3.64689E-01 -1.06337E-01
    8987.465     -5.723   0.120  2.68490E-01  3.79068E-01 -1.10578E-01
    8987.507     -5.681   0.160  2.76521E-01  3.90211E-01 -1.13691E-01
    8987.562     -5.626   0.200  2.87041E-01  4.04404E-01 -1.17363E-01
    8987.629     -5.559   0.240  3.00219E-01  4.21452E-01 -1.21232E-01
    8987.709     -5.479   0.280  3.16200E-01  4.40984E-01 -1.24784E-01
    8987.800     -5.388   0.320  3.35030E-01  4.62423E-01 -1.27393E-01
    8987.904     -5.284   0.360  3.56771E-01  4.85108E-01 -1.28336E-01
    8988.019     -5.169   0.400  3.81436E-01  5.08355E-01 -1.26919E-01
    8988.147     -5.041   0.440  4.08918E-01  5.31488E-01 -1.22570E-01
    8988.288     -4.900   0.480  4.39082E-01  5.54033E-01 -1.14950E-01
    8988.440     -4.748   0.520  4.71672E-01  5.75612E-01 -1.03940E-01
    8988.605     -4.583   0.560  5.06667E-01  5.96122E-01 -8.94548E-02
    8988.781     -4.407   0.600  5.44599E-01  6.15508E-01 -7.09090E-02
    8988.970     -4.218   0.640  5.87100E-01  6.33841E-01 -4.67408E-02
    8989.172     -4.016   0.680  6.35798E-01  6.51219E-01 -1.54205E-02
    8989.385     -3.803   0.720  6.89450E-01  6.67753E-01  2.16971E-02
    8989.610     -3.577   0.760  7.41495E-01  6.83558E-01  5.79369E-02
    8989.848     -3.340   0.800  7.81685E-01  6.98736E-01  8.29494E-02
    8990.098     -3.090   0.840  8.01613E-01  7.13393E-01  8.82204E-02
    8990.360     -2.828   0.880  8.00561E-01  7.27603E-01  7.29582E-02
    8990.635     -2.553   0.920  7.86929E-01  7.41421E-01  4.55088E-02
    8990.921     -2.267   0.960  7.70674E-01  7.54868E-01  1.58057E-02
    8991.220     -1.968   1.000  7.53835E-01  7.68014E-01 -1.41788E-02
    8991.531     -1.657   1.040  7.31833E-01  7.80835E-01 -4.90025E-02
    8991.854     -1.334   1.080  7.04699E-01  7.93385E-01 -8.86863E-02
    8992.189     -0.999   1.120  6.81459E-01  8.05624E-01 -1.24166E-01
    8992.537     -0.651   1.160  6.70910E-01  8.17590E-01 -1.46680E-01
    8992.896     -0.292   1.200  6.75625E-01  8.29274E-01 -1.53650E-01
    8993.268      0.080   1.240  6.95849E-01  8.40623E-01 -1.44775E-01
    8993.652      0.464   1.280  7.28846E-01  8.51684E-01 -1.22838E-01
    8994.048      0.860   1.320  7.66148E-01  8.62419E-01 -9.62704E-02
    8994.457      1.269   1.360  8.00157E-01  8.72809E-01 -7.26514E-02
    8994.877      1.689   1.400  8.34875E-01  8.82855E-01 -4.79791E-02
    8995.310      2.122   1.440  8.79682E-01  8.92535E-01 -1.28535E-02
    8995.755      2.567   1.480  9.31896E-01  9.01850E-01  3.00464E-02
    8996.212      3.024   1.520  9.75565E-01  9.10756E-01  6.48095E-02
    8996.682      3.494   1.560  1.00307E+00  9.19294E-01  8.37770E-02
    8997.163      3.975   1.600  1.02436E+00  9.27423E-01  9.69340E-02
    8997.657      4.469   1.640  1.05243E+00  9.35142E-01  1.17284E-01
    8998.163      4.975   1.680  1.09221E+00  9.42454E-01  1.49761E-01
    8998.681      5.493   1.720  1.14030E+00  9.49337E-01  1.90965E-01
    8999.212      6.024   1.760  1.19547E+00  9.55814E-01  2.39660E-01
    8999.754      6.566   1.800  1.24679E+00  9.61888E-01  2.84906E-01
    9000.309      7.121   1.840  1.26880E+00  9.67562E-01  3.01242E-01
    9000.876      7.688   1.880  1.24798E+00  9.72819E-01  2.75165E-01
    9001.455      8.267   1.920  1.20481E+00  9.77684E-01  2.27123E-01
    9002.046      8.858   1.960  1.17947E+00  9.82142E-01  1.97330E-01
    9002.650      9.462   2.000  1.18687E+00  9.86239E-01  2.00628E-01
    9003.265     10.077   2.040  1.20234E+00  9.89982E-01  2.12359E-01
    9003.893     10.705   2.080  1.19858E+00  9.93336E-01  2.05245E-01
    9004.533     11.345   2.120  1.17790E+00  9.96369E-01  1.81530E-01
    9005.186     11.998   2.160  1.15874E+00  9.99070E-01  1.59665E-01
    9005.850     12.662   2.200  1.15623E+00  1.00147E+00  1.54765E-01
    9006.527     13.339   2.240  1.17763E+00  1.00354E+00  1.74088E-01
    9007.216     14.028   2.280  1.21402E+00  1.00535E+00  2.08672E-01
    9007.917     14.729   2.320  1.23810E+00  1.00688E+00  2.31221E-01
    9008.630     15.442   2.360  1.22285E+00  1.00815E+00  2.14700E-01
    9009.355     16.167   2.400  1.16847E+00  1.00920E+00  1.59268E-01
    9010.093     16.905   2.440  1.10019E+00  1.01001E+00  9.01756E-02
    9010.843     17.655   2.480  1.04123E+00  1.01062E+00  3.06065E-02
    9011.605     18.417   2.520  1.00313E+00  1.01104E+00 -7.91765E-03
    9012.379     19.191   2.560  9.83845E-01  1.01130E+00 -2.74545E-02
    9013.165     19.977   2.600  9.73497E-01  1.01139E+00 -3.78924E-02
    9013.964     20.776   2.640  9.71922E-01  1.01132E+00 -3.94012E-02
    9014.775     21.587   2.680  9.81055E-01  1.01115E+00 -3.00929E-02
    9015.598     22.410   2.720  9.87269E-01  1.01083E+00 -2.35588E-02
    9016.433     23.245   2.760  9.83699E-01  1.01041E+00 -2.67157E-02
    9017.280     24.092   2.800  9.66941E-01  1.00991E+00 -4.29708E-02
    9018.140     24.952   2.840  9.39906E-01  1.00933E+00 -6.94207E-02
    9019.011     25.823   2.880  9.10353E-01  1.00867E+00 -9.83127E-02
    9019.895     26.707   2.920  8.84284E-01  1.00798E+00 -1.23691E-01
    9020.791     27.603   2.960  8.64177E-01  1.00722E+00 -1.43041E-01
    9021.700     28.512   3.000  8.49707E-01  1.00642E+00 -1.56711E-01
    9022.620     29.432   3.040  8.39821E-01  1.00558E+00 -1.65760E-01
    9023.553     30.365   3.080  8.34067E-01  1.00473E+00 -1.70666E-01
    9024.498     31.310   3.120  8.32047E-01  1.00388E+00 -1.71833E-01
    9025.455     32.267   3.160  8.33137E-01  1.00302E+00 -1.69887E-01
    9026.424     33.236   3.200  8.37202E-01  1.00217E+00 -1.64969E-01
    9027.405     34.218   3.240  8.44782E-01  1.00134E+00 -1.56559E-01
    9028.399     35.211   3.280  8.56096E-01  1.00052E+00 -1.44421E-01
    9029.405     36.217   3.320  8.71238E-01  9.99701E-01 -1.28462E-01
    9030.423     37.235   3.360  8.89791E-01  9.98917E-01 -1.09126E-01
    9031.453     38.265   3.400  9.10695E-01  9.98167E-01 -8.74718E-02
    9032.496     39.308   3.440  9.32442E-01  9.97454E-01 -6.50122E-02
    9033.550     40.362   3.480  9.53809E-01  9.96757E-01 -4.29474E-02
    9034.617     41.429   3.520  9.74160E-01  9.96121E-01 -2.19612E-02
    9035.696     42.508   3.560  9.93035E-01  9.95527E-01 -2.49254E-03
    9036.787     43.599   3.600  1.01000E+00  9.94976E-01  1.50270E-02
    9037.891     44.703   3.640  1.02428E+00  9.94468E-01  2.98157E-02
    9039.006     45.818   3.680  1.03480E+00  9.94024E-01  4.07806E-02
    9040.134     46.946   3.720  1.04082E+00  9.93625E-01  4.71949E-02
    9041.274     48.086   3.760  1.04245E+00  9.93270E-01  4.91821E-02
    9042.426     49.238   3.800  1.04069E+00  9.92959E-01  4.77312E-02
    9043.590     50.402   3.840  1.03707E+00  9.92715E-01  4.43532E-02
    9044.767     51.579   3.880  1.03309E+00  9.92515E-01  4.05734E-02
    9045.956     52.768   3.920  1.03015E+00  9.92358E-01  3.77888E-02
    9047.156     53.969   3.960  1.02945E+00  9.92246E-01  3.72067E-02
    9048.370     55.182   4.000  1.03196E+00  9.92201E-01  3.97570E-02
    9049.595     56.407   4.040  1.03813E+00  9.92198E-01  4.59337E-02
    9050.832     57.644   4.080  1.04762E+00  9.92238E-01  5.53817E-02
    9052.082     58.894   4.120  1.05920E+00  9.92321E-01  6.68772E-02
    9053.344     60.156   4.160  1.07108E+00  9.92465E-01  7.86178E-02
    9054.618     61.430   4.200  1.08134E+00  9.92630E-01  8.87100E-02
    9055.904     62.716   4.240  1.08845E+00  9.92833E-01  9.56189E-02
    9057.203     64.015   4.280  1.09146E+00  9.93095E-01  9.83617E-02
    9058.513     65.325   4.320  1.08983E+00  9.93373E-01  9.64593E-02
    9059.836     66.648   4.360  1.08340E+00  9.93683E-01  8.97150E-02
    9061.171     67.983   4.400  1.07250E+00  9.94006E-01  7.84894E-02
    9062.518     69.330   4.440  1.05844E+00  9.94362E-01  6.40737E-02
    9063.878     70.690   4.480  1.04332E+00  9.94749E-01  4.85694E-02
    9065.249     72.061   4.520  1.02948E+00  9.95147E-01  3.43319E-02
    9066.633     73.445   4.560  1.01875E+00  9.95573E-01  2.31771E-02
    9068.029     74.841   4.600  1.01177E+00  9.96004E-01  1.57689E-02
    9069.437     76.249   4.640  1.00805E+00  9.96440E-01  1.16128E-02
    9070.858     77.670   4.680  1.00632E+00  9.96902E-01  9.41799E-03
    9072.290     79.102   4.720  1.00498E+00  9.97365E-01  7.61530E-03
    9073.735     80.547   4.760  1.00267E+00  9.97805E-01  4.86176E-03
    9075.192     82.004   4.800  9.98585E-01  9.98266E-01  3.18614E-04
    9076.661     83.473   4.840  9.92438E-01  9.98725E-01 -6.28649E-03
    9078.142     84.954   4.880  9.84365E-01  9.99156E-01 -1.47908E-02
    9079.636     86.448   4.920  9.74761E-01  9.99582E-01 -2.48209E-02
    9081.142     87.954   4.960  9.64090E-01  1.00000E+00 -3.59141E-02
    9082.659     89.471   5.000  9.52942E-01  1.00042E+00 -4.74760E-02
    9084.189     91.002   5.040  9.41998E-01  1.00080E+00 -5.88011E-02
    9085.732     92.544   5.080  9.32057E-01  1.00115E+00 -6.90895E-02
    9087.286     94.098   5.120  9.23933E-01  1.00148E+00 -7.75494E-02
    9088.853     95.665   5.160  9.18380E-01  1.00179E+00 -8.34056E-02
    9090.432     97.244   5.200  9.16236E-01  1.00208E+00 -8.58405E-02
    9092.023     98.835   5.240  9.18174E-01  1.00233E+00 -8.41580E-02
    9093.626    100.438   5.280  9.24457E-01  1.00255E+00 -7.80939E-02
    9095.241    102.054   5.320  9.34720E-01  1.00275E+00 -6.80335E-02
    9096.869    103.681   5.360  9.48008E-01  1.00290E+00 -5.48901E-02
    9098.509    105.321   5.400  9.63169E-01  1.00303E+00 -3.98563E-02
    9100.161    106.973   5.440  9.78769E-01  1.00311E+00 -2.43460E-02
    9101.825    108.637   5.480  9.93204E-01  1.00317E+00 -9.96147E-03
    9103.502    110.314   5.520  1.00502E+00  1.00318E+00  1.84230E-03
    9105.190    112.002   5.560  1.01349E+00  1.00317E+00  1.03179E-02
    9106.891    113.703   5.600  1.01888E+00  1.00311E+00  1.57707E-02
    9108.604    115.416   5.640  1.02234E+00  1.00300E+00  1.93442E-02
    9110.329    117.141   5.680  1.02517E+00  1.00285E+00  2.23162E-02
    9112.066    118.878   5.720  1.02802E+00  1.00269E+00  2.53278E-02
    9113.816    120.628   5.760  1.03054E+00  1.00249E+00  2.80554E-02
    9115.578    122.390   5.800  1.03173E+00  1.00223E+00  2.95069E-02
    9117.352    124.164   5.840  1.03070E+00  1.00195E+00  2.87471E-02
    9119.138    125.950   5.880  1.02724E+00  1.00164E+00  2.56025E-02
    9120.936    127.748   5.920  1.02212E+00  1.00130E+00  2.08286E-02
    9122.747    129.559   5.960  1.01646E+00  1.00092E+00  1.55466E-02
    9124.569    131.381   6.000  1.01079E+00  1.00051E+00  1.02768E-02
