# # comment:                                                     FEFF 9.9.1  
# # Source:
# # Structure
# # Reduced
# # space
# # abc:
# # angles:109.471221
# # sites:
# # POT  SCF 100  7.0000   0, screened core-hole, AFOLP (folp(0)= 1.150)
# # Abs   Z=29 Rmt= 1.250 Rnm= 1.336 K  shell
# # Pot 1 Z=30 Rmt= 1.661 Rnm= 1.678
# # Pot 2 Z=29 Rmt= 1.250 Rnm= 1.336
# # Pot 3 Z=42 Rmt= 1.346 Rnm= 1.456
# # Pot 4 Z= 8 Rmt= 1.022 Rnm= 1.098
# # Gam_ch=1.729E+00 H-L exch Vi= 0.000E+00 Vr= 0.000E+00
# # Mu=-6.737E+00eV kf=2.201E+00 Vint=-1.590E+01eV Rs_int= 1.648
# FMS rfms= 9.0000
# # PATH  Rmax=-1.000,  Keep_limit= 0.00, Heap_limit 0.00  Pwcrit= 2.50%
#  S02=0.950  Temp=   0.00  Debye_temp=   0.00  Global_sig2= 0.00000
#  Energy zero shift, vr, vi    0.00000E+00   0.00000E+00
#  Curved wave amplitude ratio filter   4.000%
#     file         sig2 tot  cw amp ratio   deg  nlegs   reff  inp sig2
#     0/   0 paths used
#  xsedge+ 50, used to normalize mu           2.4568E-04
#  -----------------------------------------------------------------------
#  omega    e    k    mu    mu0     chi     @#
    8983.695    -10.547  -1.000  4.40687E-02  5.59223E-02 -1.18536E-02
    8983.994    -10.249  -0.960  4.66467E-02  6.00449E-02 -1.33982E-02
    8984.280     -9.962  -0.920  4.94391E-02  6.46308E-02 -1.51917E-02
    8984.555     -9.688  -0.880  5.24694E-02  6.97485E-02 -1.72791E-02
    8984.817     -9.426  -0.840  5.57641E-02  7.54780E-02 -1.97140E-02
    8985.067     -9.176  -0.800  5.93526E-02  8.19119E-02 -2.25594E-02
    8985.304     -8.938  -0.760  6.32679E-02  8.91565E-02 -2.58886E-02
    8985.530     -8.713  -0.720  6.75460E-02  9.73318E-02 -2.97858E-02
    8985.743     -8.499  -0.680  7.22254E-02  1.06570E-01 -3.43450E-02
    8985.944     -8.298  -0.640  7.73449E-02  1.17012E-01 -3.96670E-02
    8986.133     -8.109  -0.600  8.29403E-02  1.28794E-01 -4.58536E-02
    8986.310     -7.932  -0.560  8.90383E-02  1.42034E-01 -5.29955E-02
    8986.475     -7.768  -0.520  9.56468E-02  1.56801E-01 -6.11547E-02
    8986.627     -7.615  -0.480  1.02742E-01  1.73082E-01 -7.03397E-02
    8986.767     -7.475  -0.440  1.10256E-01  1.90733E-01 -8.04770E-02
    8986.895     -7.347  -0.400  1.18059E-01  2.09445E-01 -9.13858E-02
    8987.011     -7.231  -0.360  1.25964E-01  2.28735E-01 -1.02770E-01
    8987.115     -7.128  -0.320  1.33733E-01  2.47971E-01 -1.14238E-01
    8987.206     -7.036  -0.280  1.41107E-01  2.66455E-01 -1.25349E-01
    8987.286     -6.957  -0.240  1.47844E-01  2.83515E-01 -1.35671E-01
    8987.353     -6.890  -0.200  1.53747E-01  2.98589E-01 -1.44842E-01
    8987.408     -6.835  -0.160  1.58680E-01  3.11266E-01 -1.52586E-01
    8987.450     -6.792  -0.120  1.62559E-01  3.21284E-01 -1.58725E-01
    8987.481     -6.762  -0.080  1.65344E-01  3.28500E-01 -1.63156E-01
    8987.505     -6.737   0.000  1.67576E-01  3.34295E-01 -1.66719E-01
    8987.560     -6.683   0.120  1.72560E-01  3.47357E-01 -1.74797E-01
    8987.603     -6.640   0.160  1.76397E-01  3.57506E-01 -1.81109E-01
    8987.657     -6.585   0.200  1.81271E-01  3.70468E-01 -1.89197E-01
    8987.724     -6.518   0.240  1.87087E-01  3.86041E-01 -1.98954E-01
    8987.804     -6.439   0.280  1.93757E-01  4.03908E-01 -2.10151E-01
    8987.895     -6.347   0.320  2.01187E-01  4.23626E-01 -2.22439E-01
    8987.999     -6.244   0.360  2.09307E-01  4.44559E-01 -2.35252E-01
    8988.115     -6.128   0.400  2.18250E-01  4.66137E-01 -2.47887E-01
    8988.243     -6.000   0.440  2.28387E-01  4.87761E-01 -2.59374E-01
    8988.383     -5.860   0.480  2.40551E-01  5.09021E-01 -2.68469E-01
    8988.535     -5.707   0.520  2.55956E-01  5.29599E-01 -2.73643E-01
    8988.700     -5.543   0.560  2.76370E-01  5.49370E-01 -2.73000E-01
    8988.877     -5.366   0.600  3.03916E-01  5.68298E-01 -2.64382E-01
    8989.066     -5.177   0.640  3.40869E-01  5.86446E-01 -2.45576E-01
    8989.267     -4.976   0.680  3.88887E-01  6.03870E-01 -2.14983E-01
    8989.480     -4.762   0.720  4.47355E-01  6.20685E-01 -1.73331E-01
    8989.706     -4.537   0.760  5.11119E-01  6.36985E-01 -1.25866E-01
    8989.943     -4.299   0.800  5.71560E-01  6.52851E-01 -8.12916E-02
    8990.193     -4.049   0.840  6.23470E-01  6.68353E-01 -4.48838E-02
    8990.455     -3.787   0.880  6.68126E-01  6.83567E-01 -1.54407E-02
    8990.730     -3.513   0.920  7.05230E-01  6.98492E-01  6.73846E-03
    8991.016     -3.226   0.960  7.28214E-01  7.13154E-01  1.50595E-02
    8991.315     -2.927   1.000  7.29476E-01  7.27612E-01  1.86320E-03
    8991.626     -2.617   1.040  7.07404E-01  7.41832E-01 -3.44287E-02
    8991.949     -2.294   1.080  6.70980E-01  7.55835E-01 -8.48547E-02
    8992.284     -1.958   1.120  6.32947E-01  7.69592E-01 -1.36645E-01
    8992.632     -1.611   1.160  5.99288E-01  7.83090E-01 -1.83803E-01
    8992.991     -1.251   1.200  5.70311E-01  7.96336E-01 -2.26026E-01
    8993.363     -0.879   1.240  5.47939E-01  8.09289E-01 -2.61350E-01
    8993.747     -0.495   1.280  5.42366E-01  8.21947E-01 -2.79581E-01
    8994.144     -0.099   1.320  5.69412E-01  8.34265E-01 -2.64852E-01
    8994.552      0.309   1.360  6.36494E-01  8.46220E-01 -2.09726E-01
    8994.973      0.730   1.400  7.32732E-01  8.57807E-01 -1.25075E-01
    8995.405      1.163   1.440  8.31223E-01  8.69021E-01 -3.77982E-02
    8995.850      1.608   1.480  8.99155E-01  8.79795E-01  1.93594E-02
    8996.308      2.065   1.520  9.16395E-01  8.90165E-01  2.62298E-02
    8996.777      2.535   1.560  8.91045E-01  9.00068E-01 -9.02357E-03
    8997.259      3.016   1.600  8.45176E-01  9.09540E-01 -6.43635E-02
    8997.752      3.510   1.640  8.07455E-01  9.18537E-01 -1.11082E-01
    8998.258      4.016   1.680  8.02947E-01  9.27081E-01 -1.24134E-01
    8998.777      4.534   1.720  8.30199E-01  9.35129E-01 -1.04930E-01
    8999.307      5.064   1.760  8.73029E-01  9.42722E-01 -6.96938E-02
    8999.849      5.607   1.800  9.28624E-01  9.49821E-01 -2.11975E-02
    9000.404      6.162   1.840  1.01818E+00  9.56472E-01  6.17115E-02
    9000.971      6.729   1.880  1.14453E+00  9.62636E-01  1.81898E-01
    9001.550      7.308   1.920  1.26440E+00  9.68358E-01  2.96038E-01
    9002.141      7.899   1.960  1.34168E+00  9.73625E-01  3.68057E-01
    9002.745      8.502   2.000  1.39361E+00  9.78462E-01  4.15144E-01
    9003.361      9.118   2.040  1.43100E+00  9.82856E-01  4.48142E-01
    9003.989      9.746   2.080  1.43345E+00  9.86857E-01  4.46594E-01
    9004.629     10.386   2.120  1.38792E+00  9.90451E-01  3.97464E-01
    9005.281     11.038   2.160  1.32409E+00  9.93689E-01  3.30400E-01
    9005.945     11.703   2.200  1.28988E+00  9.96558E-01  2.93319E-01
    9006.622     12.380   2.240  1.30854E+00  9.99066E-01  3.09471E-01
    9007.311     13.068   2.280  1.36482E+00  1.00127E+00  3.63558E-01
    9008.012     13.769   2.320  1.40160E+00  1.00315E+00  3.98449E-01
    9008.725     14.483   2.360  1.35667E+00  1.00474E+00  3.51934E-01
    9009.451     15.208   2.400  1.24346E+00  1.00607E+00  2.37397E-01
    9010.188     15.946   2.440  1.12718E+00  1.00715E+00  1.20032E-01
    9010.938     16.695   2.480  1.03662E+00  1.00801E+00  2.86141E-02
    9011.700     17.457   2.520  9.68745E-01  1.00863E+00 -3.98880E-02
    9012.474     18.232   2.560  9.20348E-01  1.00908E+00 -8.87308E-02
    9013.261     19.018   2.600  8.92357E-01  1.00933E+00 -1.16973E-01
    9014.059     19.817   2.640  8.89237E-01  1.00941E+00 -1.20177E-01
    9014.870     20.627   2.680  8.97532E-01  1.00936E+00 -1.11830E-01
    9015.693     21.450   2.720  9.06639E-01  1.00918E+00 -1.02543E-01
    9016.528     22.285   2.760  9.10554E-01  1.00886E+00 -9.83049E-02
    9017.375     23.133   2.800  9.09826E-01  1.00846E+00 -9.86368E-02
    9018.235     23.992   2.840  9.07088E-01  1.00796E+00 -1.00873E-01
    9019.107     24.864   2.880  9.03221E-01  1.00740E+00 -1.04179E-01
    9019.990     25.748   2.920  8.97928E-01  1.00676E+00 -1.08836E-01
    9020.887     26.644   2.960  8.91135E-01  1.00608E+00 -1.14946E-01
    9021.795     27.552   3.000  8.83052E-01  1.00535E+00 -1.22303E-01
    9022.715     28.473   3.040  8.74653E-01  1.00459E+00 -1.29938E-01
    9023.648     29.406   3.080  8.67683E-01  1.00382E+00 -1.36134E-01
    9024.593     30.350   3.120  8.63531E-01  1.00303E+00 -1.39504E-01
    9025.550     31.308   3.160  8.62212E-01  1.00223E+00 -1.40018E-01
    9026.519     32.277   3.200  8.63741E-01  1.00144E+00 -1.37704E-01
    9027.501     33.258   3.240  8.68311E-01  1.00066E+00 -1.32352E-01
    9028.494     34.252   3.280  8.76120E-01  9.99910E-01 -1.23790E-01
    9029.500     35.258   3.320  8.87331E-01  9.99166E-01 -1.11835E-01
    9030.518     36.276   3.360  9.02041E-01  9.98433E-01 -9.63920E-02
    9031.548     37.306   3.400  9.20046E-01  9.97756E-01 -7.77102E-02
    9032.591     38.348   3.440  9.40414E-01  9.97095E-01 -5.66808E-02
    9033.645     39.403   3.480  9.61835E-01  9.96494E-01 -3.46590E-02
    9034.712     40.470   3.520  9.81929E-01  9.95913E-01 -1.39846E-02
    9035.791     41.549   3.560  9.97884E-01  9.95395E-01  2.48945E-03
    9036.882     42.640   3.600  1.00734E+00  9.94919E-01  1.24214E-02
    9037.986     43.743   3.640  1.00920E+00  9.94487E-01  1.47180E-02
    9039.101     44.859   3.680  1.00412E+00  9.94100E-01  1.00212E-02
    9040.229     45.987   3.720  9.94559E-01  9.93778E-01  7.80874E-04
    9041.369     47.127   3.760  9.83976E-01  9.93502E-01 -9.52560E-03
    9042.521     48.279   3.800  9.75435E-01  9.93269E-01 -1.78344E-02
    9043.686     49.443   3.840  9.70923E-01  9.93104E-01 -2.21809E-02
    9044.862     50.620   3.880  9.71431E-01  9.92963E-01 -2.15322E-02
    9046.051     51.808   3.920  9.77414E-01  9.92909E-01 -1.54945E-02
    9047.252     53.009   3.960  9.88852E-01  9.92878E-01 -4.02616E-03
    9048.465     54.222   4.000  1.00538E+00  9.92910E-01  1.24679E-02
    9049.690     55.448   4.040  1.02614E+00  9.92964E-01  3.31762E-02
    9050.928     56.685   4.080  1.04961E+00  9.93082E-01  5.65254E-02
    9052.177     57.935   4.120  1.07318E+00  9.93243E-01  7.99371E-02
    9053.439     59.197   4.160  1.09384E+00  9.93445E-01  1.00397E-01
    9054.713     60.471   4.200  1.10869E+00  9.93708E-01  1.14982E-01
    9055.999     61.757   4.240  1.11576E+00  9.93987E-01  1.21770E-01
    9057.298     63.055   4.280  1.11446E+00  9.94280E-01  1.20181E-01
    9058.608     64.366   4.320  1.10549E+00  9.94630E-01  1.10859E-01
    9059.931     65.689   4.360  1.09064E+00  9.94993E-01  9.56478E-02
    9061.266     67.024   4.400  1.07287E+00  9.95388E-01  7.74846E-02
    9062.614     68.371   4.440  1.05547E+00  9.95817E-01  5.96509E-02
    9063.973     69.730   4.480  1.04085E+00  9.96257E-01  4.45953E-02
    9065.345     71.102   4.520  1.03028E+00  9.96724E-01  3.35552E-02
    9066.728     72.486   4.560  1.02373E+00  9.97197E-01  2.65298E-02
    9068.124     73.882   4.600  1.02022E+00  9.97672E-01  2.25429E-02
    9069.532     75.290   4.640  1.01829E+00  9.98150E-01  2.01381E-02
    9070.953     76.710   4.680  1.01649E+00  9.98650E-01  1.78394E-02
    9072.385     78.143   4.720  1.01392E+00  9.99128E-01  1.47909E-02
    9073.830     79.588   4.760  1.01073E+00  9.99605E-01  1.11277E-02
    9075.287     81.045   4.800  1.00776E+00  1.00010E+00  7.65806E-03
    9076.756     82.514   4.840  1.00549E+00  1.00057E+00  4.92317E-03
    9078.238     83.995   4.880  1.00362E+00  1.00103E+00  2.58699E-03
    9079.731     85.489   4.920  1.00105E+00  1.00147E+00 -4.12354E-04
    9081.237     86.994   4.960  9.96739E-01  1.00189E+00 -5.15422E-03
    9082.755     88.512   5.000  9.90079E-01  1.00231E+00 -1.22317E-02
    9084.285     90.042   5.040  9.81082E-01  1.00270E+00 -2.16143E-02
    9085.827     91.585   5.080  9.70512E-01  1.00307E+00 -3.25583E-02
    9087.381     93.139   5.120  9.59628E-01  1.00341E+00 -4.37802E-02
    9088.948     94.706   5.160  9.49766E-01  1.00371E+00 -5.39447E-02
    9090.527     96.285   5.200  9.41993E-01  1.00398E+00 -6.19828E-02
    9092.118     97.876   5.240  9.37116E-01  1.00423E+00 -6.71102E-02
    9093.721     99.479   5.280  9.35601E-01  1.00444E+00 -6.88389E-02
    9095.337    101.094   5.320  9.37350E-01  1.00462E+00 -6.72660E-02
    9096.964    102.722   5.360  9.41688E-01  1.00475E+00 -6.30657E-02
    9098.604    104.362   5.400  9.47879E-01  1.00487E+00 -5.69951E-02
    9100.256    106.014   5.440  9.55631E-01  1.00493E+00 -4.93029E-02
    9101.920    107.678   5.480  9.65147E-01  1.00498E+00 -3.98279E-02
    9103.597    109.354   5.520  9.76326E-01  1.00495E+00 -2.86281E-02
    9105.285    111.043   5.560  9.88478E-01  1.00492E+00 -1.64378E-02
    9106.986    112.744   5.600  1.00071E+00  1.00484E+00 -4.12715E-03
    9108.699    114.457   5.640  1.01256E+00  1.00470E+00  7.86548E-03
    9110.424    116.182   5.680  1.02358E+00  1.00454E+00  1.90371E-02
    9112.162    117.919   5.720  1.03182E+00  1.00434E+00  2.74818E-02
    9113.911    119.669   5.760  1.03391E+00  1.00411E+00  2.98040E-02
    9115.673    121.430   5.800  1.02708E+00  1.00384E+00  2.32422E-02
    9117.447    123.204   5.840  1.01178E+00  1.00356E+00  8.21863E-03
    9119.233    124.990   5.880  9.91861E-01  1.00322E+00 -1.13549E-02
    9121.031    126.789   5.920  9.72875E-01  1.00286E+00 -2.99893E-02
    9122.842    128.599   5.960  9.59701E-01  1.00245E+00 -4.27538E-02
    9124.664    130.422   6.000  9.55496E-01  1.00204E+00 -4.65472E-02
