# # comment:                                                     FEFF 9.9.1  
# # Source:
# # Structure
# # Reduced
# # space
# # abc:
# # angles:
# # sites:
# # POT  SCF 100  7.0000   0, screened core-hole, AFOLP (folp(0)= 1.150)
# # Abs   Z=29 Rmt= 1.290 Rnm= 1.357 K  shell
# # Pot 1 Z=29 Rmt= 1.290 Rnm= 1.357
# # Pot 2 Z=47 Rmt= 1.623 Rnm= 1.671
# # Pot 3 Z=15 Rmt= 0.945 Rnm= 1.161
# # Pot 4 Z= 8 Rmt= 0.913 Rnm= 1.049
# # Gam_ch=1.729E+00 H-L exch Vi= 0.000E+00 Vr= 0.000E+00
# # Mu=-6.431E+00eV kf=2.388E+00 Vint=-1.632E+01eV Rs_int= 1.519
# FMS rfms= 9.0000
# # PATH  Rmax=-1.000,  Keep_limit= 0.00, Heap_limit 0.00  Pwcrit= 2.50%
#  S02=0.950  Temp=   0.00  Debye_temp=   0.00  Global_sig2= 0.00000
#  Energy zero shift, vr, vi    0.00000E+00   0.00000E+00
#  Curved wave amplitude ratio filter   4.000%
#     file         sig2 tot  cw amp ratio   deg  nlegs   reff  inp sig2
#     0/   0 paths used
#  xsedge+ 50, used to normalize mu           2.4748E-04
#  -----------------------------------------------------------------------
#  omega    e    k    mu    mu0     chi     @#
    8983.333    -10.241  -1.000  3.91545E-02  5.30852E-02 -1.39307E-02
    8983.632     -9.943  -0.960  4.11745E-02  5.69489E-02 -1.57745E-02
    8983.918     -9.656  -0.920  4.33363E-02  6.12447E-02 -1.79084E-02
    8984.193     -9.382  -0.880  4.56533E-02  6.60363E-02 -2.03830E-02
    8984.455     -9.120  -0.840  4.81406E-02  7.13984E-02 -2.32578E-02
    8984.705     -8.870  -0.800  5.08146E-02  7.74172E-02 -2.66025E-02
    8984.942     -8.632  -0.760  5.36939E-02  8.41919E-02 -3.04980E-02
    8985.168     -8.406  -0.720  5.67983E-02  9.18347E-02 -3.50364E-02
    8985.381     -8.193  -0.680  6.01488E-02  1.00469E-01 -4.03203E-02
    8985.583     -7.992  -0.640  6.37662E-02  1.10226E-01 -4.64593E-02
    8985.772     -7.803  -0.600  6.76692E-02  1.21232E-01 -5.35631E-02
    8985.948     -7.626  -0.560  7.18707E-02  1.33599E-01 -6.17284E-02
    8986.113     -7.462  -0.520  7.63723E-02  1.47391E-01 -7.10190E-02
    8986.265     -7.309  -0.480  8.11572E-02  1.62595E-01 -8.14378E-02
    8986.406     -7.169  -0.440  8.61817E-02  1.79076E-01 -9.28948E-02
    8986.534     -7.041  -0.400  9.13681E-02  1.96548E-01 -1.05180E-01
    8986.649     -6.925  -0.360  9.66033E-02  2.14556E-01 -1.17953E-01
    8986.753     -6.821  -0.320  1.01745E-01  2.32513E-01 -1.30768E-01
    8986.844     -6.730  -0.280  1.06638E-01  2.49765E-01 -1.43127E-01
    8986.924     -6.651  -0.240  1.11133E-01  2.65686E-01 -1.54553E-01
    8986.991     -6.584  -0.200  1.15103E-01  2.79752E-01 -1.64649E-01
    8987.046     -6.529  -0.160  1.18451E-01  2.91579E-01 -1.73128E-01
    8987.088     -6.486  -0.120  1.21113E-01  3.00925E-01 -1.79812E-01
    8987.119     -6.456  -0.080  1.23047E-01  3.07656E-01 -1.84609E-01
    8987.143     -6.431   0.000  1.24627E-01  3.13062E-01 -1.88435E-01
    8987.198     -6.376   0.120  1.28163E-01  3.25253E-01 -1.97090E-01
    8987.241     -6.334   0.160  1.30886E-01  3.34724E-01 -2.03839E-01
    8987.296     -6.279   0.200  1.34357E-01  3.46792E-01 -2.12435E-01
    8987.363     -6.212   0.240  1.38600E-01  3.61304E-01 -2.22705E-01
    8987.442     -6.133   0.280  1.43577E-01  3.77960E-01 -2.34383E-01
    8987.533     -6.041   0.320  1.49264E-01  3.96305E-01 -2.47041E-01
    8987.637     -5.938   0.360  1.55660E-01  4.15797E-01 -2.60137E-01
    8987.753     -5.822   0.400  1.62833E-01  4.35863E-01 -2.73030E-01
    8987.881     -5.694   0.440  1.70942E-01  4.55958E-01 -2.85017E-01
    8988.021     -5.554   0.480  1.80308E-01  4.75699E-01 -2.95392E-01
    8988.173     -5.401   0.520  1.91319E-01  4.94790E-01 -3.03471E-01
    8988.338     -5.237   0.560  2.04521E-01  5.13113E-01 -3.08592E-01
    8988.515     -5.060   0.600  2.20454E-01  5.30657E-01 -3.10203E-01
    8988.704     -4.871   0.640  2.39600E-01  5.47462E-01 -3.07862E-01
    8988.905     -4.670   0.680  2.62379E-01  5.63605E-01 -3.01225E-01
    8989.118     -4.456   0.720  2.89219E-01  5.79215E-01 -2.89997E-01
    8989.344     -4.231   0.760  3.20508E-01  5.94364E-01 -2.73856E-01
    8989.582     -3.993   0.800  3.56478E-01  6.09153E-01 -2.52675E-01
    8989.831     -3.743   0.840  3.96383E-01  6.23629E-01 -2.27246E-01
    8990.094     -3.481   0.880  4.37563E-01  6.37886E-01 -2.00323E-01
    8990.368     -3.207   0.920  4.75045E-01  6.51925E-01 -1.76880E-01
    8990.654     -2.920   0.960  5.03327E-01  6.65835E-01 -1.62508E-01
    8990.953     -2.621   1.000  5.19421E-01  6.79595E-01 -1.60175E-01
    8991.264     -2.310   1.040  5.25749E-01  6.93216E-01 -1.67467E-01
    8991.587     -1.987   1.080  5.29677E-01  7.06736E-01 -1.77059E-01
    8991.922     -1.652   1.120  5.39338E-01  7.20111E-01 -1.80773E-01
    8992.270     -1.305   1.160  5.58441E-01  7.33374E-01 -1.74933E-01
    8992.630     -0.945   1.200  5.85136E-01  7.46469E-01 -1.61333E-01
    8993.001     -0.573   1.240  6.18878E-01  7.59417E-01 -1.40539E-01
    8993.385     -0.189   1.280  6.62903E-01  7.72177E-01 -1.09274E-01
    8993.782      0.207   1.320  7.14503E-01  7.84749E-01 -7.02454E-02
    8994.190      0.616   1.360  7.62528E-01  7.97086E-01 -3.45577E-02
    8994.611      1.036   1.400  8.00834E-01  8.09183E-01 -8.34867E-03
    8995.044      1.469   1.440  8.36310E-01  8.21015E-01  1.52952E-02
    8995.489      1.914   1.480  8.79877E-01  8.32574E-01  4.73029E-02
    8995.946      2.371   1.520  9.34243E-01  8.43813E-01  9.04295E-02
    8996.415      2.841   1.560  9.94849E-01  8.54748E-01  1.40101E-01
    8996.897      3.322   1.600  1.05267E+00  8.65329E-01  1.87344E-01
    8997.390      3.816   1.640  1.09279E+00  8.75551E-01  2.17236E-01
    8997.896      4.322   1.680  1.11527E+00  8.85409E-01  2.29856E-01
    8998.415      4.840   1.720  1.13713E+00  8.94856E-01  2.42277E-01
    8998.945      5.370   1.760  1.16061E+00  9.03930E-01  2.56676E-01
    8999.487      5.913   1.800  1.17871E+00  9.12588E-01  2.66124E-01
    9000.042      6.468   1.840  1.19692E+00  9.20826E-01  2.76091E-01
    9000.609      7.035   1.880  1.22058E+00  9.28645E-01  2.91940E-01
    9001.188      7.614   1.920  1.24360E+00  9.36063E-01  3.07537E-01
    9001.780      8.205   1.960  1.25682E+00  9.43040E-01  3.13780E-01
    9002.383      8.809   2.000  1.25819E+00  9.49618E-01  3.08570E-01
    9002.999      9.424   2.040  1.24977E+00  9.55758E-01  2.94013E-01
    9003.627     10.052   2.080  1.23395E+00  9.61485E-01  2.72462E-01
    9004.267     10.692   2.120  1.21343E+00  9.66821E-01  2.46608E-01
    9004.919     11.345   2.160  1.18804E+00  9.71751E-01  2.16287E-01
    9005.583     12.009   2.200  1.15826E+00  9.76300E-01  1.81956E-01
    9006.260     12.686   2.240  1.13071E+00  9.80453E-01  1.50253E-01
    9006.949     13.374   2.280  1.11289E+00  9.84256E-01  1.28634E-01
    9007.650     14.076   2.320  1.10438E+00  9.87676E-01  1.16707E-01
    9008.363     14.789   2.360  1.09865E+00  9.90780E-01  1.07867E-01
    9009.089     15.514   2.400  1.08870E+00  9.93555E-01  9.51444E-02
    9009.826     16.252   2.440  1.07277E+00  9.96009E-01  7.67600E-02
    9010.576     17.002   2.480  1.05456E+00  9.98169E-01  5.63872E-02
    9011.338     17.764   2.520  1.03661E+00  1.00004E+00  3.65676E-02
    9012.112     18.538   2.560  1.01921E+00  1.00164E+00  1.75762E-02
    9012.899     19.324   2.600  1.00261E+00  1.00298E+00 -3.69430E-04
    9013.697     20.123   2.640  9.86455E-01  1.00411E+00 -1.76517E-02
    9014.508     20.934   2.680  9.69332E-01  1.00500E+00 -3.56651E-02
    9015.331     21.756   2.720  9.49496E-01  1.00568E+00 -5.61824E-02
    9016.166     22.592   2.760  9.25784E-01  1.00616E+00 -8.03786E-02
    9017.013     23.439   2.800  9.04890E-01  1.00650E+00 -1.01607E-01
    9017.873     24.298   2.840  8.89207E-01  1.00665E+00 -1.17439E-01
    9018.745     25.170   2.880  8.77561E-01  1.00666E+00 -1.29098E-01
    9019.629     26.054   2.920  8.68834E-01  1.00652E+00 -1.37687E-01
    9020.525     26.950   2.960  8.62193E-01  1.00626E+00 -1.44068E-01
    9021.433     27.859   3.000  8.57470E-01  1.00591E+00 -1.48435E-01
    9022.353     28.779   3.040  8.54531E-01  1.00546E+00 -1.50930E-01
    9023.286     29.712   3.080  8.53355E-01  1.00493E+00 -1.51577E-01
    9024.231     30.657   3.120  8.54235E-01  1.00430E+00 -1.50069E-01
    9025.188     31.614   3.160  8.57535E-01  1.00364E+00 -1.46109E-01
    9026.157     32.583   3.200  8.63282E-01  1.00292E+00 -1.39634E-01
    9027.139     33.564   3.240  8.71574E-01  1.00214E+00 -1.30570E-01
    9028.132     34.558   3.280  8.82644E-01  1.00134E+00 -1.18691E-01
    9029.138     35.564   3.320  8.96228E-01  1.00051E+00 -1.04287E-01
    9030.156     36.582   3.360  9.12005E-01  9.99684E-01 -8.76797E-02
    9031.187     37.612   3.400  9.29346E-01  9.98827E-01 -6.94814E-02
    9032.229     38.655   3.440  9.47267E-01  9.97969E-01 -5.07026E-02
    9033.284     39.709   3.480  9.64714E-01  9.97133E-01 -3.24183E-02
    9034.350     40.776   3.520  9.80895E-01  9.96300E-01 -1.54046E-02
    9035.429     41.855   3.560  9.95445E-01  9.95474E-01 -2.91881E-05
    9036.521     42.946   3.600  1.00831E+00  9.94677E-01  1.36291E-02
    9037.624     44.049   3.640  1.01965E+00  9.93891E-01  2.57596E-02
    9038.739     45.165   3.680  1.02965E+00  9.93138E-01  3.65135E-02
    9039.867     46.293   3.720  1.03840E+00  9.92423E-01  4.59808E-02
    9041.007     47.433   3.760  1.04601E+00  9.91745E-01  5.42697E-02
    9042.159     48.585   3.800  1.05253E+00  9.91106E-01  6.14205E-02
    9043.324     49.749   3.840  1.05775E+00  9.90508E-01  6.72397E-02
    9044.500     50.926   3.880  1.06151E+00  9.89974E-01  7.15324E-02
    9045.689     52.114   3.920  1.06367E+00  9.89459E-01  7.42149E-02
    9046.890     53.315   3.960  1.06430E+00  9.88985E-01  7.53198E-02
    9048.103     54.528   4.000  1.06346E+00  9.88576E-01  7.48889E-02
    9049.328     55.754   4.040  1.06124E+00  9.88211E-01  7.30286E-02
    9050.566     56.991   4.080  1.05762E+00  9.87892E-01  6.97266E-02
    9051.815     58.241   4.120  1.05260E+00  9.87638E-01  6.49610E-02
    9053.077     59.503   4.160  1.04632E+00  9.87428E-01  5.88956E-02
    9054.351     60.777   4.200  1.03920E+00  9.87259E-01  5.19414E-02
    9055.638     62.063   4.240  1.03177E+00  9.87133E-01  4.46405E-02
    9056.936     63.361   4.280  1.02458E+00  9.87048E-01  3.75323E-02
    9058.247     64.672   4.320  1.01802E+00  9.87006E-01  3.10128E-02
    9059.569     65.995   4.360  1.01225E+00  9.87028E-01  2.52245E-02
    9060.904     67.330   4.400  1.00729E+00  9.87091E-01  2.01965E-02
    9062.252     68.677   4.440  1.00308E+00  9.87171E-01  1.59094E-02
    9063.611     70.037   4.480  9.99628E-01  9.87310E-01  1.23172E-02
    9064.983     71.408   4.520  9.96844E-01  9.87468E-01  9.37632E-03
    9066.366     72.792   4.560  9.94707E-01  9.87683E-01  7.02362E-03
    9067.762     74.188   4.600  9.92996E-01  9.87913E-01  5.08309E-03
    9069.171     75.596   4.640  9.91379E-01  9.88176E-01  3.20323E-03
    9070.591     77.016   4.680  9.89347E-01  9.88451E-01  8.95869E-04
    9072.023     78.449   4.720  9.86483E-01  9.88779E-01 -2.29634E-03
    9073.468     79.894   4.760  9.82543E-01  9.89096E-01 -6.55217E-03
    9074.925     81.351   4.800  9.77842E-01  9.89441E-01 -1.15989E-02
    9076.394     82.820   4.840  9.72987E-01  9.89815E-01 -1.68272E-02
    9077.876     84.301   4.880  9.68668E-01  9.90195E-01 -2.15270E-02
    9079.369     85.795   4.920  9.65438E-01  9.90577E-01 -2.51390E-02
    9080.875     87.300   4.960  9.63610E-01  9.90960E-01 -2.73494E-02
    9082.393     88.818   5.000  9.63266E-01  9.91345E-01 -2.80789E-02
    9083.923     90.348   5.040  9.64263E-01  9.91752E-01 -2.74887E-02
    9085.465     91.891   5.080  9.66164E-01  9.92135E-01 -2.59708E-02
    9087.020     93.445   5.120  9.68473E-01  9.92514E-01 -2.40411E-02
    9088.586     95.012   5.160  9.70687E-01  9.92890E-01 -2.22031E-02
    9090.165     96.591   5.200  9.72409E-01  9.93260E-01 -2.08512E-02
    9091.756     98.182   5.240  9.73328E-01  9.93600E-01 -2.02724E-02
    9093.359     99.785   5.280  9.73359E-01  9.93932E-01 -2.05724E-02
    9094.975    101.400   5.320  9.72617E-01  9.94232E-01 -2.16144E-02
    9096.602    103.028   5.360  9.71434E-01  9.94520E-01 -2.30860E-02
    9098.242    104.668   5.400  9.70116E-01  9.94777E-01 -2.46614E-02
    9099.894    106.320   5.440  9.68860E-01  9.95024E-01 -2.61642E-02
    9101.558    107.984   5.480  9.67689E-01  9.95235E-01 -2.75457E-02
    9103.235    109.660   5.520  9.66650E-01  9.95409E-01 -2.87596E-02
    9104.923    111.349   5.560  9.65902E-01  9.95570E-01 -2.96681E-02
    9106.624    113.050   5.600  9.65703E-01  9.95671E-01 -2.99676E-02
    9108.337    114.763   5.640  9.66587E-01  9.95756E-01 -2.91693E-02
    9110.062    116.488   5.680  9.69110E-01  9.95805E-01 -2.66949E-02
    9111.800    118.225   5.720  9.73690E-01  9.95817E-01 -2.21268E-02
    9113.549    119.975   5.760  9.80361E-01  9.95813E-01 -1.54520E-02
    9115.311    121.737   5.800  9.88614E-01  9.95749E-01 -7.13447E-03
    9117.085    123.510   5.840  9.97669E-01  9.95645E-01  2.02480E-03
    9118.871    125.297   5.880  1.00667E+00  9.95526E-01  1.11467E-02
    9120.669    127.095   5.920  1.01487E+00  9.95348E-01  1.95217E-02
    9122.480    128.905   5.960  1.02180E+00  9.95155E-01  2.66451E-02
    9124.303    130.728   6.000  1.02705E+00  9.94904E-01  3.21454E-02
