# # comment:                                                     FEFF 9.9.1  
# # Source:
# # Structure
# # Reduced
# # space
# # abc:
# # angles:109.471221
# # sites:
# # POT  SCF 100  7.0000   0, screened core-hole, AFOLP (folp(0)= 1.150)
# # Abs   Z=29 Rmt= 1.326 Rnm= 1.395 K  shell
# # Pot 1 Z=20 Rmt= 1.791 Rnm= 1.828
# # Pot 2 Z=29 Rmt= 1.326 Rnm= 1.395
# # Pot 3 Z=51 Rmt= 1.389 Rnm= 1.506
# # Pot 4 Z= 8 Rmt= 1.024 Rnm= 1.090
# # Gam_ch=1.729E+00 H-L exch Vi= 0.000E+00 Vr= 0.000E+00
# # Mu=-5.956E+00eV kf=2.172E+00 Vint=-1.606E+01eV Rs_int= 1.670
# FMS rfms= 9.0000
# # PATH  Rmax=-1.000,  Keep_limit= 0.00, Heap_limit 0.00  Pwcrit= 2.50%
#  S02=0.950  Temp=   0.00  Debye_temp=   0.00  Global_sig2= 0.00000
#  Energy zero shift, vr, vi    0.00000E+00   0.00000E+00
#  Curved wave amplitude ratio filter   4.000%
#     file         sig2 tot  cw amp ratio   deg  nlegs   reff  inp sig2
#     0/   0 paths used
#  xsedge+ 50, used to normalize mu           2.4563E-04
#  -----------------------------------------------------------------------
#  omega    e    k    mu    mu0     chi     @#
    8983.540     -9.766  -1.000  5.64677E-02  5.73400E-02 -8.72337E-04
    8983.839     -9.468  -0.960  6.06021E-02  6.16035E-02 -1.00143E-03
    8984.125     -9.181  -0.920  6.51957E-02  6.63498E-02 -1.15407E-03
    8984.399     -8.907  -0.880  7.03143E-02  7.16507E-02 -1.33643E-03
    8984.662     -8.645  -0.840  7.60330E-02  7.75899E-02 -1.55688E-03
    8984.912     -8.395  -0.800  8.24380E-02  8.42646E-02 -1.82667E-03
    8985.149     -8.157  -0.760  8.96256E-02  9.17864E-02 -2.16074E-03
    8985.375     -7.932  -0.720  9.77029E-02  1.00281E-01 -2.57839E-03
    8985.588     -7.718  -0.680  1.06785E-01  1.09889E-01 -3.10366E-03
    8985.789     -7.517  -0.640  1.16991E-01  1.20755E-01 -3.76454E-03
    8985.978     -7.328  -0.600  1.28435E-01  1.33026E-01 -4.59031E-03
    8986.155     -7.151  -0.560  1.41219E-01  1.46824E-01 -5.60532E-03
    8986.320     -6.987  -0.520  1.55406E-01  1.62224E-01 -6.81815E-03
    8986.472     -6.834  -0.480  1.71005E-01  1.79211E-01 -8.20582E-03
    8986.612     -6.694  -0.440  1.87939E-01  1.97635E-01 -9.69615E-03
    8986.740     -6.566  -0.400  2.06017E-01  2.17174E-01 -1.11564E-02
    8986.856     -6.450  -0.360  2.24917E-01  2.37318E-01 -1.24006E-02
    8986.960     -6.347  -0.320  2.44184E-01  2.57408E-01 -1.32239E-02
    8987.051     -6.255  -0.280  2.63250E-01  2.76711E-01 -1.34616E-02
    8987.130     -6.176  -0.240  2.81476E-01  2.94524E-01 -1.30481E-02
    8987.198     -6.109  -0.200  2.98208E-01  3.10259E-01 -1.20502E-02
    8987.252     -6.054  -0.160  3.12832E-01  3.23488E-01 -1.06559E-02
    8987.295     -6.011  -0.120  3.24816E-01  3.33940E-01 -9.12345E-03
    8987.326     -5.981  -0.080  3.33744E-01  3.41466E-01 -7.72159E-03
    8987.350     -5.956   0.000  3.41238E-01  3.47510E-01 -6.27184E-03
    8987.405     -5.902   0.120  3.57780E-01  3.61125E-01 -3.34516E-03
    8987.447     -5.859   0.160  3.71061E-01  3.71693E-01 -6.32195E-04
    8987.502     -5.804   0.200  3.88669E-01  3.85184E-01  3.48527E-03
    8987.569     -5.737   0.240  4.10893E-01  4.01401E-01  9.49250E-03
    8987.649     -5.658   0.280  4.37841E-01  4.19962E-01  1.78793E-02
    8987.740     -5.566   0.320  4.69291E-01  4.40393E-01  2.88980E-02
    8987.844     -5.463   0.360  5.04211E-01  4.62082E-01  4.21288E-02
    8987.960     -5.347   0.400  5.40313E-01  4.84357E-01  5.59560E-02
    8988.088     -5.219   0.440  5.73842E-01  5.06626E-01  6.72152E-02
    8988.228     -5.079   0.480  6.00100E-01  5.28410E-01  7.16895E-02
    8988.380     -4.926   0.520  6.15289E-01  5.49418E-01  6.58719E-02
    8988.545     -4.762   0.560  6.18737E-01  5.69494E-01  4.92429E-02
    8988.722     -4.585   0.600  6.13732E-01  5.88606E-01  2.51263E-02
    8988.911     -4.396   0.640  6.06062E-01  6.06839E-01 -7.76528E-04
    8989.112     -4.195   0.680  6.01362E-01  6.24241E-01 -2.28791E-02
    8989.325     -3.981   0.720  6.03033E-01  6.40956E-01 -3.79233E-02
    8989.551     -3.756   0.760  6.10084E-01  6.57087E-01 -4.70029E-02
    8989.788     -3.518   0.800  6.15988E-01  6.72704E-01 -5.67160E-02
    8990.038     -3.268   0.840  6.11489E-01  6.87928E-01 -7.64393E-02
    8990.300     -3.006   0.880  5.92123E-01  7.02781E-01 -1.10658E-01
    8990.575     -2.732   0.920  5.63628E-01  7.17330E-01 -1.53703E-01
    8990.861     -2.445   0.960  5.37603E-01  7.31610E-01 -1.94007E-01
    8991.160     -2.146   1.000  5.23010E-01  7.45645E-01 -2.22635E-01
    8991.471     -1.836   1.040  5.21643E-01  7.59467E-01 -2.37824E-01
    8991.794     -1.512   1.080  5.29932E-01  7.73039E-01 -2.43106E-01
    8992.129     -1.177   1.120  5.44697E-01  7.86380E-01 -2.41683E-01
    8992.477     -0.830   1.160  5.67397E-01  7.99480E-01 -2.32083E-01
    8992.836     -0.470   1.200  6.05821E-01  8.12347E-01 -2.06526E-01
    8993.208     -0.098   1.240  6.73248E-01  8.24924E-01 -1.51676E-01
    8993.592      0.286   1.280  7.83074E-01  8.37211E-01 -5.41367E-02
    8993.988      0.682   1.320  9.34814E-01  8.49207E-01  8.56068E-02
    8994.397      1.091   1.360  1.08670E+00  8.60869E-01  2.25827E-01
    8994.818      1.511   1.400  1.17244E+00  8.72194E-01  3.00245E-01
    8995.250      1.944   1.440  1.18353E+00  8.83156E-01  3.00375E-01
    8995.695      2.389   1.480  1.15483E+00  8.93709E-01  2.61118E-01
    8996.153      2.846   1.520  1.09546E+00  9.03889E-01  1.91568E-01
    8996.622      3.316   1.560  1.01686E+00  9.13633E-01  1.03227E-01
    8997.103      3.797   1.600  9.53738E-01  9.22977E-01  3.07608E-02
    8997.597      4.291   1.640  9.20454E-01  9.31857E-01 -1.14031E-02
    8998.103      4.797   1.680  9.02755E-01  9.40289E-01 -3.75343E-02
    8998.621      5.315   1.720  8.96959E-01  9.48274E-01 -5.13152E-02
    8999.152      5.845   1.760  9.30377E-01  9.55790E-01 -2.54135E-02
    8999.694      6.388   1.800  1.02296E+00  9.62858E-01  6.01061E-02
    9000.249      6.943   1.840  1.16141E+00  9.69460E-01  1.91947E-01
    9000.816      7.510   1.880  1.29073E+00  9.75597E-01  3.15133E-01
    9001.395      8.089   1.920  1.34939E+00  9.81273E-01  3.68118E-01
    9001.986      8.680   1.960  1.34153E+00  9.86511E-01  3.55017E-01
    9002.590      9.284   2.000  1.31340E+00  9.91297E-01  3.22100E-01
    9003.206      9.899   2.040  1.29616E+00  9.95658E-01  3.00499E-01
    9003.833     10.527   2.080  1.29875E+00  9.99620E-01  2.99132E-01
    9004.474     11.167   2.120  1.31763E+00  1.00315E+00  3.14481E-01
    9005.126     11.819   2.160  1.33794E+00  1.00629E+00  3.31643E-01
    9005.790     12.484   2.200  1.34077E+00  1.00908E+00  3.31682E-01
    9006.467     13.161   2.240  1.31631E+00  1.01149E+00  3.04824E-01
    9007.156     13.849   2.280  1.26200E+00  1.01357E+00  2.48427E-01
    9007.857     14.550   2.320  1.17805E+00  1.01533E+00  1.62720E-01
    9008.570     15.264   2.360  1.07246E+00  1.01676E+00  5.57007E-02
    9009.295     15.989   2.400  9.65050E-01  1.01792E+00 -5.28747E-02
    9010.033     16.727   2.440  8.80299E-01  1.01881E+00 -1.38510E-01
    9010.783     17.477   2.480  8.27022E-01  1.01944E+00 -1.92419E-01
    9011.545     18.239   2.520  7.98219E-01  1.01983E+00 -2.21612E-01
    9012.319     19.013   2.560  7.91800E-01  1.02001E+00 -2.28209E-01
    9013.105     19.799   2.600  8.15232E-01  1.02000E+00 -2.04772E-01
    9013.904     20.598   2.640  8.46341E-01  1.01981E+00 -1.73465E-01
    9014.715     21.408   2.680  8.76439E-01  1.01946E+00 -1.43024E-01
    9015.538     22.231   2.720  9.00483E-01  1.01894E+00 -1.18459E-01
    9016.373     23.067   2.760  9.14941E-01  1.01831E+00 -1.03372E-01
    9017.220     23.914   2.800  9.20214E-01  1.01757E+00 -9.73526E-02
    9018.080     24.773   2.840  9.19572E-01  1.01673E+00 -9.71535E-02
    9018.951     25.645   2.880  9.15551E-01  1.01580E+00 -1.00249E-01
    9019.835     26.529   2.920  9.10255E-01  1.01480E+00 -1.04541E-01
    9020.731     27.425   2.960  9.06731E-01  1.01372E+00 -1.06988E-01
    9021.640     28.333   3.000  9.07577E-01  1.01262E+00 -1.05039E-01
    9022.560     29.254   3.040  9.13460E-01  1.01145E+00 -9.79943E-02
    9023.493     30.187   3.080  9.23537E-01  1.01030E+00 -8.67640E-02
    9024.438     31.131   3.120  9.35709E-01  1.00912E+00 -7.34089E-02
    9025.395     32.089   3.160  9.47455E-01  1.00791E+00 -6.04555E-02
    9026.364     33.058   3.200  9.57415E-01  1.00674E+00 -4.93285E-02
    9027.346     34.039   3.240  9.65345E-01  1.00556E+00 -4.02181E-02
    9028.339     35.033   3.280  9.71263E-01  1.00441E+00 -3.31472E-02
    9029.345     36.039   3.320  9.74508E-01  1.00327E+00 -2.87615E-02
    9030.363     37.057   3.360  9.74269E-01  1.00219E+00 -2.79176E-02
    9031.393     38.087   3.400  9.70638E-01  1.00114E+00 -3.05042E-02
    9032.436     39.129   3.440  9.64946E-01  1.00012E+00 -3.51741E-02
    9033.490     40.184   3.480  9.59190E-01  9.99162E-01 -3.99715E-02
    9034.557     41.251   3.520  9.55309E-01  9.98270E-01 -4.29607E-02
    9035.636     42.330   3.560  9.55084E-01  9.97405E-01 -4.23212E-02
    9036.727     43.421   3.600  9.60210E-01  9.96631E-01 -3.64210E-02
    9037.831     44.524   3.640  9.71625E-01  9.95887E-01 -2.42615E-02
    9038.946     45.640   3.680  9.89347E-01  9.95235E-01 -5.88766E-03
    9040.074     46.768   3.720  1.01222E+00  9.94637E-01  1.75852E-02
    9041.214     47.908   3.760  1.03854E+00  9.94112E-01  4.44241E-02
    9042.366     49.060   3.800  1.06610E+00  9.93641E-01  7.24544E-02
    9043.530     50.224   3.840  1.09238E+00  9.93266E-01  9.91110E-02
    9044.707     51.401   3.880  1.11491E+00  9.92944E-01  1.21968E-01
    9045.896     52.589   3.920  1.13154E+00  9.92675E-01  1.38862E-01
    9047.097     53.790   3.960  1.14086E+00  9.92500E-01  1.48362E-01
    9048.310     55.003   4.000  1.14256E+00  9.92379E-01  1.50176E-01
    9049.535     56.229   4.040  1.13714E+00  9.92310E-01  1.44829E-01
    9050.772     57.466   4.080  1.12521E+00  9.92335E-01  1.32876E-01
    9052.022     58.716   4.120  1.10700E+00  9.92410E-01  1.14586E-01
    9053.284     59.978   4.160  1.08344E+00  9.92533E-01  9.09111E-02
    9054.558     61.252   4.200  1.05728E+00  9.92726E-01  6.45526E-02
    9055.844     62.538   4.240  1.03259E+00  9.92965E-01  3.96289E-02
    9057.143     63.836   4.280  1.01301E+00  9.93248E-01  1.97599E-02
    9058.453     65.147   4.320  1.00003E+00  9.93597E-01  6.42834E-03
    9059.776     66.470   4.360  9.92641E-01  9.93989E-01 -1.34886E-03
    9061.111     67.805   4.400  9.88241E-01  9.94399E-01 -6.15859E-03
    9062.458     69.152   4.440  9.83980E-01  9.94869E-01 -1.08896E-02
    9063.818     70.511   4.480  9.77926E-01  9.95377E-01 -1.74505E-02
    9065.189     71.883   4.520  9.69819E-01  9.95898E-01 -2.60796E-02
    9066.573     73.267   4.560  9.60930E-01  9.96451E-01 -3.55215E-02
    9067.969     74.663   4.600  9.53174E-01  9.97014E-01 -4.38398E-02
    9069.377     76.071   4.640  9.48275E-01  9.97606E-01 -4.93317E-02
    9070.798     77.491   4.680  9.47095E-01  9.98227E-01 -5.11323E-02
    9072.230     78.924   4.720  9.49518E-01  9.98831E-01 -4.93130E-02
    9073.675     80.369   4.760  9.54739E-01  9.99457E-01 -4.47187E-02
    9075.132     81.826   4.800  9.61233E-01  1.00008E+00 -3.88503E-02
    9076.601     83.295   4.840  9.67073E-01  1.00069E+00 -3.36118E-02
    9078.082     84.776   4.880  9.70616E-01  1.00130E+00 -3.06889E-02
    9079.576     86.270   4.920  9.71072E-01  1.00190E+00 -3.08257E-02
    9081.082     87.775   4.960  9.68946E-01  1.00248E+00 -3.35343E-02
    9082.600     89.293   5.000  9.65526E-01  1.00303E+00 -3.75072E-02
    9084.130     90.823   5.040  9.62137E-01  1.00358E+00 -4.14384E-02
    9085.672     92.366   5.080  9.59622E-01  1.00408E+00 -4.44611E-02
    9087.226     93.920   5.120  9.58567E-01  1.00458E+00 -4.60091E-02
    9088.793     95.487   5.160  9.59482E-01  1.00501E+00 -4.55279E-02
    9090.372     97.066   5.200  9.62963E-01  1.00543E+00 -4.24632E-02
    9091.963     98.657   5.240  9.69299E-01  1.00580E+00 -3.65028E-02
    9093.566    100.260   5.280  9.78420E-01  1.00614E+00 -2.77164E-02
    9095.182    101.875   5.320  9.89722E-01  1.00641E+00 -1.66836E-02
    9096.809    103.503   5.360  1.00224E+00  1.00665E+00 -4.41708E-03
    9098.449    105.143   5.400  1.01481E+00  1.00684E+00  7.97094E-03
    9100.101    106.795   5.440  1.02654E+00  1.00700E+00  1.95396E-02
    9101.765    108.459   5.480  1.03642E+00  1.00709E+00  2.93276E-02
    9103.442    110.135   5.520  1.04306E+00  1.00714E+00  3.59190E-02
    9105.130    111.824   5.560  1.04468E+00  1.00712E+00  3.75530E-02
    9106.831    113.525   5.600  1.04013E+00  1.00708E+00  3.30474E-02
    9108.544    115.238   5.640  1.02983E+00  1.00697E+00  2.28515E-02
    9110.269    116.963   5.680  1.01606E+00  1.00682E+00  9.23935E-03
    9112.007    118.700   5.720  1.00208E+00  1.00660E+00 -4.51304E-03
    9113.756    120.450   5.760  9.90961E-01  1.00635E+00 -1.53937E-02
    9115.518    122.211   5.800  9.84445E-01  1.00605E+00 -2.16019E-02
    9117.292    123.985   5.840  9.82963E-01  1.00570E+00 -2.27346E-02
    9119.078    125.771   5.880  9.85855E-01  1.00531E+00 -1.94536E-02
    9120.876    127.570   5.920  9.91782E-01  1.00488E+00 -1.30996E-02
    9122.687    129.380   5.960  9.99089E-01  1.00439E+00 -5.30237E-03
    9124.509    131.203   6.000  1.00642E+00  1.00386E+00  2.55792E-03
