# # comment:                                                     FEFF 9.9.1  
# # Source:
# # Structure
# # Reduced
# # space
# # abc:
# # angles:
# # sites:
# # POT  SCF 100  7.0000   0, screened core-hole, AFOLP (folp(0)= 1.150)
# # Abs   Z=29 Rmt= 1.275 Rnm= 1.342 K  shell
# # Pot 1 Z=30 Rmt= 1.365 Rnm= 1.468
# # Pot 2 Z=29 Rmt= 1.279 Rnm= 1.348
# # Pot 3 Z=15 Rmt= 0.939 Rnm= 1.153
# # Pot 4 Z= 8 Rmt= 0.923 Rnm= 1.040
# # Gam_ch=1.729E+00 H-L exch Vi= 0.000E+00 Vr= 0.000E+00
# # Mu=-6.297E+00eV kf=2.453E+00 Vint=-1.788E+01eV Rs_int= 1.478
# FMS rfms= 9.0000
# # PATH  Rmax=-1.000,  Keep_limit= 0.00, Heap_limit 0.00  Pwcrit= 2.50%
#  S02=0.950  Temp=   0.00  Debye_temp=   0.00  Global_sig2= 0.00000
#  Energy zero shift, vr, vi    0.00000E+00   0.00000E+00
#  Curved wave amplitude ratio filter   4.000%
#     file         sig2 tot  cw amp ratio   deg  nlegs   reff  inp sig2
#     0/   0 paths used
#  xsedge+ 50, used to normalize mu           2.4874E-04
#  -----------------------------------------------------------------------
#  omega    e    k    mu    mu0     chi     @#
    8983.526    -10.107  -1.000  4.86525E-02  5.43001E-02 -5.64764E-03
    8983.825     -9.808  -0.960  5.18007E-02  5.82987E-02 -6.49797E-03
    8984.112     -9.522  -0.920  5.52510E-02  6.27493E-02 -7.49827E-03
    8984.386     -9.247  -0.880  5.90415E-02  6.77193E-02 -8.67788E-03
    8984.648     -8.985  -0.840  6.32154E-02  7.32876E-02 -1.00722E-02
    8984.898     -8.735  -0.800  6.78216E-02  7.95453E-02 -1.17237E-02
    8985.136     -8.498  -0.760  7.29146E-02  8.65973E-02 -1.36827E-02
    8985.361     -8.272  -0.720  7.85539E-02  9.45624E-02 -1.60085E-02
    8985.575     -8.059  -0.680  8.48031E-02  1.03571E-01 -1.87682E-02
    8985.776     -7.857  -0.640  9.17270E-02  1.13763E-01 -2.20358E-02
    8985.965     -7.668  -0.600  9.93864E-02  1.25273E-01 -2.58864E-02
    8986.142     -7.492  -0.560  1.07830E-01  1.38218E-01 -3.03882E-02
    8986.306     -7.327  -0.520  1.17082E-01  1.52669E-01 -3.55866E-02
    8986.459     -7.175  -0.480  1.27127E-01  1.68611E-01 -4.14840E-02
    8986.599     -7.034  -0.440  1.37889E-01  1.85905E-01 -4.80151E-02
    8986.727     -6.906  -0.400  1.49217E-01  2.04245E-01 -5.50278E-02
    8986.843     -6.791  -0.360  1.60875E-01  2.23154E-01 -6.22787E-02
    8986.946     -6.687  -0.320  1.72553E-01  2.42011E-01 -6.94573E-02
    8987.038     -6.596  -0.280  1.83892E-01  2.60126E-01 -7.62338E-02
    8987.117     -6.516  -0.240  1.94519E-01  2.76838E-01 -8.23184E-02
    8987.184     -6.449  -0.200  2.04090E-01  2.91596E-01 -8.75067E-02
    8987.239     -6.394  -0.160  2.12307E-01  3.04001E-01 -9.16939E-02
    8987.281     -6.352  -0.120  2.18939E-01  3.13798E-01 -9.48595E-02
    8987.312     -6.321  -0.080  2.23814E-01  3.20851E-01 -9.70366E-02
    8987.336     -6.297   0.000  2.27842E-01  3.26513E-01 -9.86710E-02
    8987.391     -6.242   0.120  2.36787E-01  3.39270E-01 -1.02483E-01
    8987.434     -6.199   0.160  2.43870E-01  3.49178E-01 -1.05308E-01
    8987.489     -6.144   0.200  2.53146E-01  3.61805E-01 -1.08659E-01
    8987.556     -6.077   0.240  2.64722E-01  3.76961E-01 -1.12239E-01
    8987.635     -5.998   0.280  2.78692E-01  3.94317E-01 -1.15625E-01
    8987.726     -5.907   0.320  2.95072E-01  4.13381E-01 -1.18309E-01
    8987.830     -5.803   0.360  3.13868E-01  4.33588E-01 -1.19720E-01
    8987.946     -5.687   0.400  3.34931E-01  4.54297E-01 -1.19366E-01
    8988.074     -5.559   0.440  3.58040E-01  4.74965E-01 -1.16926E-01
    8988.214     -5.419   0.480  3.82804E-01  4.95116E-01 -1.12312E-01
    8988.367     -5.267   0.520  4.08876E-01  5.14476E-01 -1.05600E-01
    8988.531     -5.102   0.560  4.35943E-01  5.32939E-01 -9.69966E-02
    8988.708     -4.925   0.600  4.63515E-01  5.50456E-01 -8.69409E-02
    8988.897     -4.736   0.640  4.90671E-01  5.67092E-01 -7.64215E-02
    8989.098     -4.535   0.680  5.15902E-01  5.82934E-01 -6.70327E-02
    8989.311     -4.322   0.720  5.37579E-01  5.98144E-01 -6.05652E-02
    8989.537     -4.096   0.760  5.54296E-01  6.12764E-01 -5.84685E-02
    8989.775     -3.858   0.800  5.65378E-01  6.26948E-01 -6.15700E-02
    8990.025     -3.609   0.840  5.70790E-01  6.40752E-01 -6.99627E-02
    8990.287     -3.346   0.880  5.71006E-01  6.54263E-01 -8.32576E-02
    8990.561     -3.072   0.920  5.66657E-01  6.67553E-01 -1.00896E-01
    8990.848     -2.786   0.960  5.59317E-01  6.80636E-01 -1.21319E-01
    8991.146     -2.487   1.000  5.52225E-01  6.93561E-01 -1.41335E-01
    8991.457     -2.176   1.040  5.49350E-01  7.06344E-01 -1.56994E-01
    8991.780     -1.853   1.080  5.54054E-01  7.18993E-01 -1.64939E-01
    8992.116     -1.518   1.120  5.68405E-01  7.31532E-01 -1.63126E-01
    8992.463     -1.170   1.160  5.93610E-01  7.43975E-01 -1.50365E-01
    8992.823     -0.811   1.200  6.29542E-01  7.56274E-01 -1.26731E-01
    8993.195     -0.439   1.240  6.72947E-01  7.68434E-01 -9.54870E-02
    8993.579     -0.055   1.280  7.17679E-01  7.80481E-01 -6.28019E-02
    8993.975      0.342   1.320  7.60584E-01  7.92354E-01 -3.17700E-02
    8994.383      0.750   1.360  8.07176E-01  8.04054E-01  3.12252E-03
    8994.804      1.171   1.400  8.67126E-01  8.15577E-01  5.15485E-02
    8995.237      1.604   1.440  9.44034E-01  8.26900E-01  1.17134E-01
    8995.682      2.049   1.480  1.02430E+00  8.37976E-01  1.86323E-01
    8996.139      2.506   1.520  1.08580E+00  8.48821E-01  2.36975E-01
    8996.608      2.975   1.560  1.12451E+00  8.59408E-01  2.65103E-01
    8997.090      3.457   1.600  1.14793E+00  8.69713E-01  2.78216E-01
    8997.584      3.950   1.640  1.15421E+00  8.79729E-01  2.74482E-01
    8998.090      4.456   1.680  1.14453E+00  8.89409E-01  2.55120E-01
    8998.608      4.975   1.720  1.13349E+00  8.98787E-01  2.34701E-01
    8999.138      5.505   1.760  1.12696E+00  9.07800E-01  2.19159E-01
    8999.681      6.047   1.800  1.11705E+00  9.16481E-01  2.00567E-01
    9000.235      6.602   1.840  1.10248E+00  9.24787E-01  1.77689E-01
    9000.802      7.169   1.880  1.09184E+00  9.32714E-01  1.59130E-01
    9001.381      7.748   1.920  1.08840E+00  9.40260E-01  1.48145E-01
    9001.973      8.340   1.960  1.08870E+00  9.47422E-01  1.41281E-01
    9002.576      8.943   2.000  1.09085E+00  9.54201E-01  1.36652E-01
    9003.192      9.559   2.040  1.09705E+00  9.60575E-01  1.36473E-01
    9003.820     10.187   2.080  1.11015E+00  9.66564E-01  1.43589E-01
    9004.460     10.827   2.120  1.12565E+00  9.72170E-01  1.53484E-01
    9005.112     11.479   2.160  1.13200E+00  9.77373E-01  1.54628E-01
    9005.777     12.143   2.200  1.12603E+00  9.82177E-01  1.43851E-01
    9006.453     12.820   2.240  1.11757E+00  9.86624E-01  1.30947E-01
    9007.142     13.509   2.280  1.11365E+00  9.90678E-01  1.22968E-01
    9007.843     14.210   2.320  1.11220E+00  9.94363E-01  1.17840E-01
    9008.556     14.923   2.360  1.10878E+00  9.97706E-01  1.11070E-01
    9009.282     15.649   2.400  1.09944E+00  1.00069E+00  9.87515E-02
    9010.019     16.386   2.440  1.08366E+00  1.00337E+00  8.02965E-02
    9010.769     17.136   2.480  1.06447E+00  1.00569E+00  5.87818E-02
    9011.531     17.898   2.520  1.04628E+00  1.00770E+00  3.85804E-02
    9012.305     18.672   2.560  1.03306E+00  1.00943E+00  2.36271E-02
    9013.092     19.459   2.600  1.02603E+00  1.01086E+00  1.51682E-02
    9013.890     20.257   2.640  1.02494E+00  1.01203E+00  1.29111E-02
    9014.701     21.068   2.680  1.02782E+00  1.01293E+00  1.48871E-02
    9015.524     21.891   2.720  1.02684E+00  1.01360E+00  1.32365E-02
    9016.359     22.726   2.760  1.01546E+00  1.01404E+00  1.41433E-03
    9017.207     23.573   2.800  9.93724E-01  1.01427E+00 -2.05469E-02
    9018.066     24.433   2.840  9.64310E-01  1.01430E+00 -4.99891E-02
    9018.938     25.305   2.880  9.36040E-01  1.01415E+00 -7.81125E-02
    9019.822     26.189   2.920  9.13212E-01  1.01382E+00 -1.00607E-01
    9020.718     27.085   2.960  8.94841E-01  1.01335E+00 -1.18505E-01
    9021.626     27.993   3.000  8.80596E-01  1.01272E+00 -1.32126E-01
    9022.547     28.913   3.040  8.70861E-01  1.01199E+00 -1.41132E-01
    9023.479     29.846   3.080  8.65929E-01  1.01112E+00 -1.45194E-01
    9024.424     30.791   3.120  8.65896E-01  1.01016E+00 -1.44267E-01
    9025.381     31.748   3.160  8.70300E-01  1.00912E+00 -1.38816E-01
    9026.351     32.717   3.200  8.77719E-01  1.00799E+00 -1.30271E-01
    9027.332     33.699   3.240  8.86905E-01  1.00681E+00 -1.19904E-01
    9028.326     34.692   3.280  8.96829E-01  1.00556E+00 -1.08731E-01
    9029.332     35.698   3.320  9.06638E-01  1.00427E+00 -9.76315E-02
    9030.350     36.716   3.360  9.15854E-01  1.00296E+00 -8.71059E-02
    9031.380     37.747   3.400  9.24221E-01  1.00162E+00 -7.73960E-02
    9032.422     38.789   3.440  9.31739E-01  1.00025E+00 -6.85075E-02
    9033.477     39.844   3.480  9.38820E-01  9.98893E-01 -6.00735E-02
    9034.544     40.910   3.520  9.46062E-01  9.97539E-01 -5.14769E-02
    9035.623     41.989   3.560  9.53975E-01  9.96188E-01 -4.22129E-02
    9036.714     43.081   3.600  9.62813E-01  9.94846E-01 -3.20332E-02
    9037.817     44.184   3.640  9.72667E-01  9.93533E-01 -2.08664E-02
    9038.933     45.299   3.680  9.83436E-01  9.92256E-01 -8.81942E-03
    9040.060     46.427   3.720  9.94820E-01  9.91016E-01  3.80374E-03
    9041.200     47.567   3.760  1.00641E+00  9.89816E-01  1.65977E-02
    9042.353     48.719   3.800  1.01783E+00  9.88657E-01  2.91751E-02
    9043.517     49.884   3.840  1.02865E+00  9.87542E-01  4.11035E-02
    9044.693     51.060   3.880  1.03854E+00  9.86494E-01  5.20461E-02
    9045.882     52.249   3.920  1.04723E+00  9.85494E-01  6.17317E-02
    9047.083     53.450   3.960  1.05447E+00  9.84563E-01  6.99078E-02
    9048.296     54.663   4.000  1.05998E+00  9.83682E-01  7.62951E-02
    9049.521     55.888   4.040  1.06356E+00  9.82874E-01  8.06873E-02
    9050.759     57.126   4.080  1.06501E+00  9.82138E-01  8.28701E-02
    9052.009     58.375   4.120  1.06414E+00  9.81454E-01  8.26823E-02
    9053.270     59.637   4.160  1.06101E+00  9.80842E-01  8.01680E-02
    9054.544     60.911   4.200  1.05596E+00  9.80283E-01  7.56723E-02
    9055.831     62.197   4.240  1.04954E+00  9.79820E-01  6.97199E-02
    9057.129     63.496   4.280  1.04228E+00  9.79411E-01  6.28725E-02
    9058.440     64.807   4.320  1.03462E+00  9.79074E-01  5.55464E-02
    9059.763     66.129   4.360  1.02666E+00  9.78792E-01  4.78632E-02
    9061.098     67.464   4.400  1.01843E+00  9.78605E-01  3.98240E-02
    9062.445     68.812   4.440  1.01000E+00  9.78467E-01  3.15366E-02
    9063.804     70.171   4.480  1.00164E+00  9.78378E-01  2.32612E-02
    9065.176     71.543   4.520  9.93742E-01  9.78360E-01  1.53823E-02
    9066.560     72.926   4.560  9.86699E-01  9.78391E-01  8.30749E-03
    9067.956     74.322   4.600  9.80834E-01  9.78493E-01  2.34132E-03
    9069.364     75.731   4.640  9.76266E-01  9.78662E-01 -2.39598E-03
    9070.784     77.151   4.680  9.72865E-01  9.78856E-01 -5.99079E-03
    9072.217     78.583   4.720  9.70382E-01  9.79113E-01 -8.73082E-03
    9073.661     80.028   4.760  9.68445E-01  9.79414E-01 -1.09690E-02
    9075.118     81.485   4.800  9.66849E-01  9.79757E-01 -1.29085E-02
    9076.587     82.954   4.840  9.65647E-01  9.80161E-01 -1.45142E-02
    9078.069     84.436   4.880  9.65010E-01  9.80581E-01 -1.55712E-02
    9079.562     85.929   4.920  9.65152E-01  9.81014E-01 -1.58622E-02
    9081.068     87.435   4.960  9.66148E-01  9.81502E-01 -1.53538E-02
    9082.586     88.953   5.000  9.67817E-01  9.82002E-01 -1.41851E-02
    9084.116     90.483   5.040  9.69918E-01  9.82533E-01 -1.26156E-02
    9085.658     92.025   5.080  9.72091E-01  9.83070E-01 -1.09789E-02
    9087.213     93.580   5.120  9.73962E-01  9.83612E-01 -9.65003E-03
    9088.779     95.146   5.160  9.75120E-01  9.84180E-01 -9.06023E-03
    9090.358     96.725   5.200  9.75169E-01  9.84749E-01 -9.58009E-03
    9091.949     98.316   5.240  9.73821E-01  9.85295E-01 -1.14740E-02
    9093.553     99.919   5.280  9.71053E-01  9.85859E-01 -1.48063E-02
    9095.168    101.535   5.320  9.67029E-01  9.86399E-01 -1.93692E-02
    9096.796    103.162   5.360  9.62255E-01  9.86932E-01 -2.46770E-02
    9098.435    104.802   5.400  9.57393E-01  9.87459E-01 -3.00659E-02
    9100.087    106.454   5.440  9.53050E-01  9.87955E-01 -3.49051E-02
    9101.752    108.118   5.480  9.49697E-01  9.88442E-01 -3.87446E-02
    9103.428    109.795   5.520  9.47575E-01  9.88895E-01 -4.13207E-02
    9105.117    111.483   5.560  9.46866E-01  9.89334E-01 -4.24678E-02
    9106.817    113.184   5.600  9.47640E-01  9.89714E-01 -4.20732E-02
    9108.530    114.897   5.640  9.49964E-01  9.90076E-01 -4.01127E-02
    9110.256    116.622   5.680  9.53662E-01  9.90377E-01 -3.67152E-02
    9111.993    118.360   5.720  9.58505E-01  9.90660E-01 -3.21545E-02
    9113.742    120.109   5.760  9.64185E-01  9.90903E-01 -2.67179E-02
    9115.504    121.871   5.800  9.70430E-01  9.91082E-01 -2.06518E-02
    9117.278    123.645   5.840  9.77050E-01  9.91240E-01 -1.41905E-02
    9119.064    125.431   5.880  9.83724E-01  9.91333E-01 -7.60956E-03
    9120.863    127.229   5.920  9.90163E-01  9.91380E-01 -1.21713E-03
    9122.673    129.040   5.960  9.96026E-01  9.91377E-01  4.64861E-03
    9124.496    130.863   6.000  1.00102E+00  9.91272E-01  9.74583E-03
