# # comment:                                                     FEFF 9.9.1  
# # Source:
# # Structure
# # Reduced
# # space
# # abc:
# # angles:
# # sites:
# # POT  SCF 100  7.0000   0, screened core-hole, AFOLP (folp(0)= 1.150)
# # Abs   Z=29 Rmt= 1.276 Rnm= 1.339 K  shell
# # Pot 1 Z=29 Rmt= 1.276 Rnm= 1.339
# # Pot 2 Z= 5 Rmt= 1.007 Rnm= 1.087
# # Pot 3 Z= 8 Rmt= 0.953 Rnm= 1.029
# # Gam_ch=1.729E+00 H-L exch Vi= 0.000E+00 Vr= 0.000E+00
# # Mu=-5.372E+00eV kf=2.378E+00 Vint=-1.774E+01eV Rs_int= 1.525
# FMS rfms= 9.0000
# # PATH  Rmax=-1.000,  Keep_limit= 0.00, Heap_limit 0.00  Pwcrit= 2.50%
#  S02=0.950  Temp=   0.00  Debye_temp=   0.00  Global_sig2= 0.00000
#  Energy zero shift, vr, vi    0.00000E+00   0.00000E+00
#  Curved wave amplitude ratio filter   4.000%
#     file         sig2 tot  cw amp ratio   deg  nlegs   reff  inp sig2
#     0/   0 paths used
#  xsedge+ 50, used to normalize mu           2.4766E-04
#  -----------------------------------------------------------------------
#  omega    e    k    mu    mu0     chi     @#
    8983.967     -9.182  -1.000  4.57770E-02  5.62518E-02 -1.04747E-02
    8984.266     -8.884  -0.960  4.90380E-02  6.04740E-02 -1.14360E-02
    8984.552     -8.597  -0.920  5.27146E-02  6.51807E-02 -1.24661E-02
    8984.827     -8.323  -0.880  5.68836E-02  7.04448E-02 -1.35612E-02
    8985.089     -8.061  -0.840  6.16383E-02  7.63514E-02 -1.47132E-02
    8985.339     -7.811  -0.800  6.70907E-02  8.29992E-02 -1.59086E-02
    8985.577     -7.573  -0.760  7.33750E-02  9.05020E-02 -1.71270E-02
    8985.802     -7.347  -0.720  8.06489E-02  9.89883E-02 -1.83394E-02
    8986.015     -7.134  -0.680  8.90931E-02  1.08600E-01 -1.95071E-02
    8986.217     -6.933  -0.640  9.89052E-02  1.19488E-01 -2.05827E-02
    8986.406     -6.744  -0.600  1.10287E-01  1.31800E-01 -2.15131E-02
    8986.582     -6.567  -0.560  1.23415E-01  1.45663E-01 -2.22478E-02
    8986.747     -6.403  -0.520  1.38399E-01  1.61153E-01 -2.27540E-02
    8986.899     -6.250  -0.480  1.55219E-01  1.78258E-01 -2.30385E-02
    8987.040     -6.110  -0.440  1.73653E-01  1.96825E-01 -2.31714E-02
    8987.168     -5.982  -0.400  1.93226E-01  2.16527E-01 -2.33003E-02
    8987.283     -5.866  -0.360  2.13208E-01  2.36846E-01 -2.36380E-02
    8987.387     -5.762  -0.320  2.32700E-01  2.57113E-01 -2.44124E-02
    8987.478     -5.671  -0.280  2.50792E-01  2.76582E-01 -2.57897E-02
    8987.558     -5.592  -0.240  2.66736E-01  2.94540E-01 -2.78041E-02
    8987.625     -5.525  -0.200  2.80066E-01  3.10394E-01 -3.03283E-02
    8987.680     -5.470  -0.160  2.90615E-01  3.23716E-01 -3.31007E-02
    8987.722     -5.427  -0.120  2.98438E-01  3.34233E-01 -3.57956E-02
    8987.753     -5.397  -0.080  3.03705E-01  3.41803E-01 -3.80983E-02
    8987.777     -5.372   0.000  3.07478E-01  3.47879E-01 -4.04010E-02
    8987.832     -5.317   0.120  3.16336E-01  3.61571E-01 -4.52355E-02
    8987.875     -5.275   0.160  3.22920E-01  3.72180E-01 -4.92600E-02
    8987.930     -5.220   0.200  3.30673E-01  3.85694E-01 -5.50207E-02
    8987.997     -5.153   0.240  3.38867E-01  4.01899E-01 -6.30317E-02
    8988.076     -5.074   0.280  3.46567E-01  4.20454E-01 -7.38875E-02
    8988.167     -4.982   0.320  3.52618E-01  4.40776E-01 -8.81575E-02
    8988.271     -4.879   0.360  3.56014E-01  4.62261E-01 -1.06247E-01
    8988.387     -4.763   0.400  3.55982E-01  4.84228E-01 -1.28245E-01
    8988.515     -4.635   0.440  3.52218E-01  5.06017E-01 -1.53799E-01
    8988.655     -4.495   0.480  3.45004E-01  5.27152E-01 -1.82148E-01
    8988.807     -4.342   0.520  3.35144E-01  5.47330E-01 -2.12186E-01
    8988.972     -4.178   0.560  3.23727E-01  5.66410E-01 -2.42683E-01
    8989.149     -4.001   0.600  3.11956E-01  5.84383E-01 -2.72427E-01
    8989.338     -3.812   0.640  3.00928E-01  6.01281E-01 -3.00353E-01
    8989.539     -3.611   0.680  2.91659E-01  6.17218E-01 -3.25559E-01
    8989.752     -3.397   0.720  2.85035E-01  6.32330E-01 -3.47295E-01
    8989.978     -3.172   0.760  2.81909E-01  6.46730E-01 -3.64821E-01
    8990.216     -2.934   0.800  2.83101E-01  6.60522E-01 -3.77421E-01
    8990.465     -2.684   0.840  2.89453E-01  6.73835E-01 -3.84382E-01
    8990.728     -2.422   0.880  3.01480E-01  6.86723E-01 -3.85243E-01
    8991.002     -2.148   0.920  3.19427E-01  6.99246E-01 -3.79819E-01
    8991.288     -1.861   0.960  3.43703E-01  7.11488E-01 -3.67785E-01
    8991.587     -1.562   1.000  3.74925E-01  7.23461E-01 -3.48536E-01
    8991.898     -1.251   1.040  4.12577E-01  7.35191E-01 -3.22614E-01
    8992.221     -0.928   1.080  4.54375E-01  7.46730E-01 -2.92354E-01
    8992.556     -0.593   1.120  4.96958E-01  7.58063E-01 -2.61105E-01
    8992.904     -0.246   1.160  5.34319E-01  7.69192E-01 -2.34873E-01
    8993.264      0.114   1.200  5.58491E-01  7.80154E-01 -2.21663E-01
    8993.635      0.486   1.240  5.70060E-01  7.90918E-01 -2.20858E-01
    8994.019      0.870   1.280  5.82015E-01  8.01472E-01 -2.19457E-01
    8994.416      1.266   1.320  6.01538E-01  8.11842E-01 -2.10305E-01
    8994.824      1.675   1.360  6.20487E-01  8.21991E-01 -2.01505E-01
    8995.245      2.095   1.400  6.34542E-01  8.31921E-01 -1.97379E-01
    8995.678      2.528   1.440  6.49034E-01  8.41611E-01 -1.92577E-01
    8996.123      2.973   1.480  6.67135E-01  8.51060E-01 -1.83925E-01
    8996.580      3.430   1.520  6.88453E-01  8.60249E-01 -1.71796E-01
    8997.049      3.900   1.560  7.07190E-01  8.69172E-01 -1.61983E-01
    8997.531      4.381   1.600  7.15388E-01  8.77831E-01 -1.62443E-01
    8998.024      4.875   1.640  7.17673E-01  8.86183E-01 -1.68510E-01
    8998.530      5.381   1.680  7.31620E-01  8.94264E-01 -1.62644E-01
    8999.049      5.899   1.720  7.67903E-01  9.02013E-01 -1.34110E-01
    8999.579      6.429   1.760  8.30742E-01  9.09471E-01 -7.87292E-02
    9000.122      6.972   1.800  9.26847E-01  9.16614E-01  1.02330E-02
    9000.676      7.527   1.840  1.06123E+00  9.23422E-01  1.37812E-01
    9001.243      8.094   1.880  1.22375E+00  9.29936E-01  2.93816E-01
    9001.822      8.673   1.920  1.36995E+00  9.36096E-01  4.33850E-01
    9002.414      9.264   1.960  1.44570E+00  9.41942E-01  5.03755E-01
    9003.017      9.868   2.000  1.47289E+00  9.47476E-01  5.25410E-01
    9003.633     10.483   2.040  1.51705E+00  9.52680E-01  5.64369E-01
    9004.261     11.111   2.080  1.56852E+00  9.57576E-01  6.10947E-01
    9004.901     11.751   2.120  1.57192E+00  9.62146E-01  6.09771E-01
    9005.553     12.404   2.160  1.51779E+00  9.66414E-01  5.51376E-01
    9006.217     13.068   2.200  1.43205E+00  9.70362E-01  4.61686E-01
    9006.894     13.745   2.240  1.34778E+00  9.74038E-01  3.73741E-01
    9007.583     14.433   2.280  1.26630E+00  9.77424E-01  2.88872E-01
    9008.284     15.135   2.320  1.18238E+00  9.80523E-01  2.01860E-01
    9008.997     15.848   2.360  1.11033E+00  9.83341E-01  1.26993E-01
    9009.723     16.573   2.400  1.05579E+00  9.85925E-01  6.98623E-02
    9010.460     17.311   2.440  1.00777E+00  9.88239E-01  1.95329E-02
    9011.210     18.061   2.480  9.59750E-01  9.90329E-01 -3.05797E-02
    9011.972     18.823   2.520  9.16639E-01  9.92182E-01 -7.55431E-02
    9012.746     19.597   2.560  8.86742E-01  9.93821E-01 -1.07079E-01
    9013.533     20.383   2.600  8.74782E-01  9.95253E-01 -1.20471E-01
    9014.331     21.182   2.640  8.79489E-01  9.96484E-01 -1.16995E-01
    9015.142     21.992   2.680  8.91826E-01  9.97540E-01 -1.05714E-01
    9015.965     22.815   2.720  8.94457E-01  9.98427E-01 -1.03970E-01
    9016.800     23.651   2.760  8.71054E-01  9.99151E-01 -1.28097E-01
    9017.647     24.498   2.800  8.30181E-01  9.99717E-01 -1.69536E-01
    9018.507     25.357   2.840  7.95826E-01  1.00015E+00 -2.04325E-01
    9019.379     26.229   2.880  7.76124E-01  1.00046E+00 -2.24333E-01
    9020.263     27.113   2.920  7.72492E-01  1.00064E+00 -2.28152E-01
    9021.159     28.009   2.960  7.83021E-01  1.00074E+00 -2.17715E-01
    9022.067     28.918   3.000  8.06350E-01  1.00072E+00 -1.94366E-01
    9022.988     29.838   3.040  8.41349E-01  1.00061E+00 -1.59260E-01
    9023.920     30.771   3.080  8.86324E-01  1.00042E+00 -1.14097E-01
    9024.865     31.716   3.120  9.38794E-01  1.00018E+00 -6.13841E-02
    9025.822     32.673   3.160  9.94942E-01  9.99861E-01 -4.91912E-03
    9026.791     33.642   3.200  1.05021E+00  9.99497E-01  5.07110E-02
    9027.773     34.623   3.240  1.09873E+00  9.99089E-01  9.96385E-02
    9028.766     35.617   3.280  1.13271E+00  9.98641E-01  1.34072E-01
    9029.772     36.623   3.320  1.14540E+00  9.98156E-01  1.47244E-01
    9030.790     37.641   3.360  1.13640E+00  9.97659E-01  1.38741E-01
    9031.821     38.671   3.400  1.11278E+00  9.97153E-01  1.15624E-01
    9032.863     39.713   3.440  1.08347E+00  9.96617E-01  8.68534E-02
    9033.918     40.768   3.480  1.05404E+00  9.96077E-01  5.79593E-02
    9034.984     41.835   3.520  1.02649E+00  9.95536E-01  3.09512E-02
    9036.063     42.914   3.560  1.00124E+00  9.94996E-01  6.24371E-03
    9037.155     44.005   3.600  9.78229E-01  9.94480E-01 -1.62508E-02
    9038.258     45.108   3.640  9.57116E-01  9.93969E-01 -3.68533E-02
    9039.373     46.224   3.680  9.37419E-01  9.93464E-01 -5.60450E-02
    9040.501     47.352   3.720  9.18998E-01  9.92988E-01 -7.39894E-02
    9041.641     48.492   3.760  9.02450E-01  9.92522E-01 -9.00729E-02
    9042.793     49.644   3.800  8.89226E-01  9.92110E-01 -1.02883E-01
    9043.958     50.808   3.840  8.80782E-01  9.91687E-01 -1.10906E-01
    9045.134     51.985   3.880  8.77998E-01  9.91318E-01 -1.13320E-01
    9046.323     53.173   3.920  8.80806E-01  9.90964E-01 -1.10158E-01
    9047.524     54.374   3.960  8.88350E-01  9.90645E-01 -1.02294E-01
    9048.737     55.587   4.000  8.99175E-01  9.90360E-01 -9.11857E-02
    9049.962     56.813   4.040  9.11858E-01  9.90112E-01 -7.82541E-02
    9051.200     58.050   4.080  9.25712E-01  9.89880E-01 -6.41684E-02
    9052.449     59.300   4.120  9.40818E-01  9.89704E-01 -4.88860E-02
    9053.711     60.562   4.160  9.57389E-01  9.89544E-01 -3.21552E-02
    9054.985     61.836   4.200  9.75394E-01  9.89420E-01 -1.40266E-02
    9056.272     63.122   4.240  9.94003E-01  9.89334E-01  4.66921E-03
    9057.570     64.420   4.280  1.01169E+00  9.89283E-01  2.24024E-02
    9058.881     65.731   4.320  1.02713E+00  9.89271E-01  3.78607E-02
    9060.203     67.054   4.360  1.04002E+00  9.89293E-01  5.07243E-02
    9061.538     68.389   4.400  1.05126E+00  9.89327E-01  6.19285E-02
    9062.886     69.736   4.440  1.06250E+00  9.89395E-01  7.31014E-02
    9064.245     71.096   4.480  1.07486E+00  9.89497E-01  8.53673E-02
    9065.617     72.467   4.520  1.08804E+00  9.89609E-01  9.84328E-02
    9067.000     73.851   4.560  1.10013E+00  9.89751E-01  1.10379E-01
    9068.396     75.247   4.600  1.10820E+00  9.89904E-01  1.18295E-01
    9069.805     76.655   4.640  1.10981E+00  9.90089E-01  1.19717E-01
    9071.225     78.075   4.680  1.10457E+00  9.90303E-01  1.14267E-01
    9072.658     79.508   4.720  1.09474E+00  9.90525E-01  1.04216E-01
    9074.102     80.953   4.760  1.08393E+00  9.90752E-01  9.31768E-02
    9075.559     82.410   4.800  1.07508E+00  9.91005E-01  8.40767E-02
    9077.028     83.879   4.840  1.06894E+00  9.91241E-01  7.76997E-02
    9078.510     85.360   4.880  1.06428E+00  9.91522E-01  7.27592E-02
    9080.003     86.854   4.920  1.05893E+00  9.91784E-01  6.71497E-02
    9081.509     88.359   4.960  1.05128E+00  9.92043E-01  5.92369E-02
    9083.027     89.877   5.000  1.04061E+00  9.92303E-01  4.83060E-02
    9084.557     91.407   5.040  1.02683E+00  9.92562E-01  3.42670E-02
    9086.099     92.950   5.080  1.01017E+00  9.92818E-01  1.73497E-02
    9087.654     94.504   5.120  9.91281E-01  9.93072E-01 -1.79090E-03
    9089.220     96.071   5.160  9.71281E-01  9.93320E-01 -2.20388E-02
    9090.799     97.650   5.200  9.51459E-01  9.93540E-01 -4.20811E-02
    9092.390     99.241   5.240  9.32915E-01  9.93754E-01 -6.08383E-02
    9093.993    100.844   5.280  9.16311E-01  9.93961E-01 -7.76493E-02
    9095.609    102.459   5.320  9.01885E-01  9.94138E-01 -9.22532E-02
    9097.236    104.087   5.360  8.89636E-01  9.94309E-01 -1.04673E-01
    9098.876    105.727   5.400  8.79561E-01  9.94470E-01 -1.14909E-01
    9100.528    107.379   5.440  8.71995E-01  9.94599E-01 -1.22604E-01
    9102.193    109.043   5.480  8.67874E-01  9.94694E-01 -1.26820E-01
    9103.869    110.719   5.520  8.68696E-01  9.94777E-01 -1.26080E-01
    9105.557    112.408   5.560  8.75869E-01  9.94825E-01 -1.18955E-01
    9107.258    114.109   5.600  8.89859E-01  9.94838E-01 -1.04979E-01
    9108.971    115.822   5.640  9.09633E-01  9.94839E-01 -8.52056E-02
    9110.696    117.547   5.680  9.32901E-01  9.94804E-01 -6.19033E-02
    9112.434    119.284   5.720  9.57007E-01  9.94733E-01 -3.77262E-02
    9114.183    121.034   5.760  9.79497E-01  9.94628E-01 -1.51311E-02
    9115.945    122.796   5.800  9.98477E-01  9.94510E-01  3.96746E-03
    9117.719    124.569   5.840  1.01288E+00  9.94358E-01  1.85202E-02
    9119.505    126.356   5.880  1.02248E+00  9.94172E-01  2.83051E-02
    9121.303    128.154   5.920  1.02744E+00  9.93976E-01  3.34636E-02
    9123.114    129.964   5.960  1.02811E+00  9.93719E-01  3.43864E-02
    9124.937    131.787   6.000  1.02568E+00  9.93433E-01  3.22504E-02
