# # comment:                                                     FEFF 9.9.1  
# # Source:
# # Structure
# # Reduced
# # space
# # abc:
# # angles:
# # sites:
# # POT  SCF 100  7.0000   0, screened core-hole, AFOLP (folp(0)= 1.150)
# # Abs   Z=29 Rmt= 1.277 Rnm= 1.360 K  shell
# # Pot 1 Z=29 Rmt= 1.272 Rnm= 1.354
# # Pot 2 Z=82 Rmt= 1.834 Rnm= 1.887
# # Pot 3 Z=34 Rmt= 1.115 Rnm= 1.337
# # Pot 4 Z= 8 Rmt= 0.961 Rnm= 1.076
# # Gam_ch=1.729E+00 H-L exch Vi= 0.000E+00 Vr= 0.000E+00
# # Mu=-4.895E+00eV kf=2.258E+00 Vint=-1.501E+01eV Rs_int= 1.606
# FMS rfms= 9.0000
# # PATH  Rmax=-1.000,  Keep_limit= 0.00, Heap_limit 0.00  Pwcrit= 2.50%
#  S02=0.950  Temp=   0.00  Debye_temp=   0.00  Global_sig2= 0.00000
#  Energy zero shift, vr, vi    0.00000E+00   0.00000E+00
#  Curved wave amplitude ratio filter   4.000%
#     file         sig2 tot  cw amp ratio   deg  nlegs   reff  inp sig2
#     0/   0 paths used
#  xsedge+ 50, used to normalize mu           2.4541E-04
#  -----------------------------------------------------------------------
#  omega    e    k    mu    mu0     chi     @#
    8983.262     -8.705  -1.000  4.53902E-02  5.83395E-02 -1.29493E-02
    8983.561     -8.406  -0.960  4.81161E-02  6.27297E-02 -1.46136E-02
    8983.848     -8.120  -0.920  5.10937E-02  6.76216E-02 -1.65278E-02
    8984.122     -7.845  -0.880  5.43570E-02  7.30903E-02 -1.87334E-02
    8984.384     -7.583  -0.840  5.79451E-02  7.92235E-02 -2.12784E-02
    8984.634     -7.333  -0.800  6.19035E-02  8.61226E-02 -2.42191E-02
    8984.872     -7.095  -0.760  6.62846E-02  9.39043E-02 -2.76197E-02
    8985.097     -6.870  -0.720  7.11475E-02  1.02701E-01 -3.15533E-02
    8985.311     -6.656  -0.680  7.65572E-02  1.12658E-01 -3.61003E-02
    8985.512     -6.455  -0.640  8.25826E-02  1.23929E-01 -4.13461E-02
    8985.701     -6.266  -0.600  8.92908E-02  1.36666E-01 -4.73750E-02
    8985.878     -6.090  -0.560  9.67382E-02  1.50999E-01 -5.42606E-02
    8986.042     -5.925  -0.520  1.04956E-01  1.67006E-01 -6.20495E-02
    8986.195     -5.773  -0.480  1.13931E-01  1.84671E-01 -7.07401E-02
    8986.335     -5.632  -0.440  1.23583E-01  2.03840E-01 -8.02577E-02
    8986.463     -5.504  -0.400  1.33743E-01  2.24175E-01 -9.04329E-02
    8986.579     -5.389  -0.360  1.44151E-01  2.45146E-01 -1.00994E-01
    8986.682     -5.285  -0.320  1.54475E-01  2.66062E-01 -1.11587E-01
    8986.774     -5.193  -0.280  1.64345E-01  2.86158E-01 -1.21814E-01
    8986.853     -5.114  -0.240  1.73413E-01  3.04701E-01 -1.31289E-01
    8986.920     -5.047  -0.200  1.81392E-01  3.21079E-01 -1.39687E-01
    8986.975     -4.992  -0.160  1.88077E-01  3.34845E-01 -1.46768E-01
    8987.018     -4.950  -0.120  1.93342E-01  3.45719E-01 -1.52377E-01
    8987.048     -4.919  -0.080  1.97119E-01  3.53547E-01 -1.56428E-01
    8987.072     -4.895   0.000  2.00132E-01  3.59832E-01 -1.59700E-01
    8987.127     -4.840   0.120  2.07017E-01  3.73992E-01 -1.66975E-01
    8987.170     -4.797   0.160  2.12346E-01  3.84997E-01 -1.72650E-01
    8987.225     -4.742   0.200  2.19081E-01  3.99000E-01 -1.79919E-01
    8987.292     -4.675   0.240  2.27161E-01  4.15834E-01 -1.88673E-01
    8987.371     -4.596   0.280  2.36334E-01  4.35098E-01 -1.98764E-01
    8987.463     -4.505   0.320  2.46381E-01  4.56289E-01 -2.09908E-01
    8987.566     -4.401   0.360  2.56951E-01  4.78740E-01 -2.21789E-01
    8987.682     -4.285   0.400  2.67706E-01  5.01745E-01 -2.34039E-01
    8987.810     -4.157   0.440  2.78361E-01  5.24679E-01 -2.46318E-01
    8987.950     -4.017   0.480  2.88723E-01  5.47059E-01 -2.58336E-01
    8988.103     -3.865   0.520  2.98695E-01  5.68557E-01 -2.69863E-01
    8988.267     -3.700   0.560  3.08402E-01  5.89010E-01 -2.80608E-01
    8988.444     -3.523   0.600  3.18266E-01  6.08383E-01 -2.90117E-01
    8988.633     -3.334   0.640  3.29086E-01  6.26763E-01 -2.97678E-01
    8988.834     -3.133   0.680  3.41817E-01  6.44203E-01 -3.02386E-01
    8989.047     -2.920   0.720  3.57542E-01  6.60853E-01 -3.03311E-01
    8989.273     -2.694   0.760  3.77082E-01  6.76800E-01 -2.99718E-01
    8989.511     -2.456   0.800  4.01024E-01  6.92142E-01 -2.91117E-01
    8989.761     -2.206   0.840  4.29596E-01  7.06962E-01 -2.77367E-01
    8990.023     -1.944   0.880  4.62617E-01  7.21369E-01 -2.58752E-01
    8990.297     -1.670   0.920  4.99223E-01  7.35353E-01 -2.36129E-01
    8990.584     -1.383   0.960  5.37425E-01  7.48993E-01 -2.11568E-01
    8990.882     -1.085   1.000  5.72814E-01  7.62317E-01 -1.89503E-01
    8991.193     -0.774   1.040  5.99121E-01  7.75318E-01 -1.76197E-01
    8991.516     -0.451   1.080  6.12473E-01  7.88025E-01 -1.75552E-01
    8991.852     -0.116   1.120  6.15816E-01  8.00437E-01 -1.84622E-01
    8992.199      0.232   1.160  6.17682E-01  8.12531E-01 -1.94849E-01
    8992.559      0.592   1.200  6.26013E-01  8.24294E-01 -1.98281E-01
    8992.931      0.963   1.240  6.45239E-01  8.35756E-01 -1.90517E-01
    8993.315      1.348   1.280  6.76496E-01  8.46880E-01 -1.70385E-01
    8993.711      1.744   1.320  7.16333E-01  8.57647E-01 -1.41314E-01
    8994.119      2.152   1.360  7.58297E-01  8.68059E-01 -1.09762E-01
    8994.540      2.573   1.400  8.01844E-01  8.78096E-01 -7.62523E-02
    8994.973      3.006   1.440  8.54572E-01  8.87756E-01 -3.31841E-02
    8995.418      3.451   1.480  9.23660E-01  8.96999E-01  2.66603E-02
    8995.875      3.908   1.520  1.00866E+00  9.05846E-01  1.02812E-01
    8996.344      4.377   1.560  1.09819E+00  9.14273E-01  1.83921E-01
    8996.826      4.859   1.600  1.17562E+00  9.22283E-01  2.53335E-01
    8997.320      5.353   1.640  1.23368E+00  9.29877E-01  3.03808E-01
    8997.826      5.859   1.680  1.27748E+00  9.37055E-01  3.40429E-01
    8998.344      6.377   1.720  1.30937E+00  9.43779E-01  3.65594E-01
    8998.874      6.907   1.760  1.32567E+00  9.50092E-01  3.75582E-01
    8999.417      7.450   1.800  1.32461E+00  9.56001E-01  3.68612E-01
    8999.971      8.004   1.840  1.30782E+00  9.61487E-01  3.46332E-01
    9000.538      8.571   1.880  1.28037E+00  9.66574E-01  3.13795E-01
    9001.118      9.150   1.920  1.24832E+00  9.71251E-01  2.77068E-01
    9001.709      9.742   1.960  1.21911E+00  9.75563E-01  2.43544E-01
    9002.312     10.345   2.000  1.20159E+00  9.79496E-01  2.22095E-01
    9002.928     10.961   2.040  1.19853E+00  9.83059E-01  2.15467E-01
    9003.556     11.589   2.080  1.20502E+00  9.86279E-01  2.18739E-01
    9004.196     12.229   2.120  1.21450E+00  9.89185E-01  2.25311E-01
    9004.848     12.881   2.160  1.22247E+00  9.91763E-01  2.30710E-01
    9005.513     13.546   2.200  1.22443E+00  9.94023E-01  2.30406E-01
    9006.189     14.222   2.240  1.21432E+00  9.96036E-01  2.18288E-01
    9006.878     14.911   2.280  1.18697E+00  9.97767E-01  1.89204E-01
    9007.579     15.612   2.320  1.14270E+00  9.99225E-01  1.43470E-01
    9008.292     16.325   2.360  1.08950E+00  1.00048E+00  8.90170E-02
    9009.018     17.051   2.400  1.03973E+00  1.00151E+00  3.82219E-02
    9009.756     17.788   2.440  1.00324E+00  1.00234E+00  8.91035E-04
    9010.505     18.538   2.480  9.80959E-01  1.00299E+00 -2.20261E-02
    9011.267     19.300   2.520  9.66201E-01  1.00346E+00 -3.72556E-02
    9012.041     20.074   2.560  9.52390E-01  1.00379E+00 -5.13967E-02
    9012.828     20.861   2.600  9.39349E-01  1.00396E+00 -6.46145E-02
    9013.626     21.659   2.640  9.31082E-01  1.00402E+00 -7.29331E-02
    9014.437     22.470   2.680  9.33330E-01  1.00397E+00 -7.06382E-02
    9015.260     23.293   2.720  9.39051E-01  1.00381E+00 -6.47575E-02
    9016.095     24.128   2.760  9.43818E-01  1.00359E+00 -5.97677E-02
    9016.943     24.976   2.800  9.45500E-01  1.00328E+00 -5.77823E-02
    9017.802     25.835   2.840  9.43658E-01  1.00290E+00 -5.92472E-02
    9018.674     26.707   2.880  9.38782E-01  1.00248E+00 -6.36974E-02
    9019.558     27.591   2.920  9.31482E-01  1.00201E+00 -7.05301E-02
    9020.454     28.487   2.960  9.22595E-01  1.00153E+00 -7.89341E-02
    9021.362     29.395   3.000  9.13160E-01  1.00101E+00 -8.78517E-02
    9022.283     30.316   3.040  9.04098E-01  1.00048E+00 -9.63865E-02
    9023.215     31.248   3.080  8.96093E-01  9.99932E-01 -1.03839E-01
    9024.160     32.193   3.120  8.90022E-01  9.99398E-01 -1.09377E-01
    9025.117     33.150   3.160  8.86129E-01  9.98869E-01 -1.12740E-01
    9026.087     34.119   3.200  8.84841E-01  9.98365E-01 -1.13524E-01
    9027.068     35.101   3.240  8.86351E-01  9.97848E-01 -1.11496E-01
    9028.062     36.095   3.280  8.90617E-01  9.97381E-01 -1.06764E-01
    9029.068     37.100   3.320  8.97194E-01  9.96927E-01 -9.97322E-02
    9030.086     38.118   3.360  9.05532E-01  9.96508E-01 -9.09753E-02
    9031.116     39.149   3.400  9.14917E-01  9.96125E-01 -8.12075E-02
    9032.158     40.191   3.440  9.24440E-01  9.95781E-01 -7.13410E-02
    9033.213     41.246   3.480  9.33571E-01  9.95476E-01 -6.19049E-02
    9034.280     42.312   3.520  9.42143E-01  9.95210E-01 -5.30669E-02
    9035.359     43.391   3.560  9.50333E-01  9.94984E-01 -4.46503E-02
    9036.450     44.483   3.600  9.58541E-01  9.94798E-01 -3.62565E-02
    9037.553     45.586   3.640  9.67152E-01  9.94653E-01 -2.75013E-02
    9038.669     46.702   3.680  9.76283E-01  9.94552E-01 -1.82687E-02
    9039.796     47.829   3.720  9.85797E-01  9.94512E-01 -8.71502E-03
    9040.936     48.969   3.760  9.95481E-01  9.94493E-01  9.87513E-04
    9042.089     50.121   3.800  1.00523E+00  9.94538E-01  1.06921E-02
    9043.253     51.286   3.840  1.01493E+00  9.94626E-01  2.03025E-02
    9044.429     52.462   3.880  1.02458E+00  9.94754E-01  2.98218E-02
    9045.618     53.651   3.920  1.03418E+00  9.94922E-01  3.92577E-02
    9046.819     54.852   3.960  1.04365E+00  9.95129E-01  4.85229E-02
    9048.032     56.065   4.000  1.05282E+00  9.95375E-01  5.74419E-02
    9049.257     57.290   4.040  1.06141E+00  9.95660E-01  6.57458E-02
    9050.495     58.528   4.080  1.06893E+00  9.95978E-01  7.29559E-02
    9051.745     59.777   4.120  1.07467E+00  9.96311E-01  7.83560E-02
    9053.006     61.039   4.160  1.07799E+00  9.96679E-01  8.13078E-02
    9054.280     62.313   4.200  1.07851E+00  9.97080E-01  8.14322E-02
    9055.567     63.600   4.240  1.07633E+00  9.97514E-01  7.88159E-02
    9056.865     64.898   4.280  1.07200E+00  9.97957E-01  7.40412E-02
    9058.176     66.209   4.320  1.06636E+00  9.98406E-01  6.79522E-02
    9059.499     67.532   4.360  1.06027E+00  9.98885E-01  6.13890E-02
    9060.834     68.867   4.400  1.05444E+00  9.99390E-01  5.50472E-02
    9062.181     70.214   4.440  1.04935E+00  9.99878E-01  4.94695E-02
    9063.540     71.573   4.480  1.04533E+00  1.00039E+00  4.49455E-02
    9064.912     72.945   4.520  1.04240E+00  1.00088E+00  4.15285E-02
    9066.296     74.329   4.560  1.04037E+00  1.00138E+00  3.89867E-02
    9067.692     75.725   4.600  1.03867E+00  1.00189E+00  3.67782E-02
    9069.100     77.133   4.640  1.03654E+00  1.00237E+00  3.41672E-02
    9070.520     78.553   4.680  1.03331E+00  1.00285E+00  3.04651E-02
    9071.953     79.986   4.720  1.02855E+00  1.00332E+00  2.52317E-02
    9073.397     81.430   4.760  1.02219E+00  1.00378E+00  1.84079E-02
    9074.854     82.887   4.800  1.01458E+00  1.00421E+00  1.03665E-02
    9076.324     84.356   4.840  1.00638E+00  1.00464E+00  1.74175E-03
    9077.805     85.838   4.880  9.98218E-01  1.00502E+00 -6.80471E-03
    9079.298     87.331   4.920  9.90588E-01  1.00538E+00 -1.47888E-02
    9080.804     88.837   4.960  9.83718E-01  1.00572E+00 -2.20000E-02
    9082.322     90.355   5.000  9.77667E-01  1.00605E+00 -2.83807E-02
    9083.852     91.885   5.040  9.72406E-01  1.00632E+00 -3.39119E-02
    9085.394     93.427   5.080  9.68033E-01  1.00657E+00 -3.85384E-02
    9086.949     94.982   5.120  9.64598E-01  1.00679E+00 -4.21909E-02
    9088.515     96.548   5.160  9.62002E-01  1.00697E+00 -4.49631E-02
    9090.094     98.127   5.200  9.59989E-01  1.00710E+00 -4.71122E-02
    9091.685     99.718   5.240  9.58142E-01  1.00720E+00 -4.90557E-02
    9093.289    101.322   5.280  9.56086E-01  1.00726E+00 -5.11703E-02
    9094.904    102.937   5.320  9.53712E-01  1.00730E+00 -5.35849E-02
    9096.532    104.565   5.360  9.51246E-01  1.00728E+00 -5.60299E-02
    9098.172    106.204   5.400  9.49320E-01  1.00723E+00 -5.79153E-02
    9099.824    107.856   5.440  9.48557E-01  1.00713E+00 -5.85755E-02
    9101.488    109.521   5.480  9.49513E-01  1.00701E+00 -5.74998E-02
    9103.164    111.197   5.520  9.52430E-01  1.00685E+00 -5.44224E-02
    9104.853    112.886   5.560  9.57351E-01  1.00663E+00 -4.92793E-02
    9106.553    114.586   5.600  9.64284E-01  1.00639E+00 -4.21061E-02
    9108.266    116.299   5.640  9.73010E-01  1.00611E+00 -3.31033E-02
    9109.992    118.024   5.680  9.83015E-01  1.00580E+00 -2.27853E-02
    9111.729    119.762   5.720  9.93459E-01  1.00547E+00 -1.20135E-02
    9113.479    121.511   5.760  1.00337E+00  1.00509E+00 -1.71928E-03
    9115.240    123.273   5.800  1.01206E+00  1.00469E+00  7.37183E-03
    9117.014    125.047   5.840  1.01905E+00  1.00426E+00  1.47917E-02
    9118.800    126.833   5.880  1.02407E+00  1.00382E+00  2.02507E-02
    9120.599    128.631   5.920  1.02698E+00  1.00333E+00  2.36501E-02
    9122.409    130.442   5.960  1.02785E+00  1.00286E+00  2.49971E-02
    9124.232    132.265   6.000  1.02679E+00  1.00231E+00  2.44739E-02
