# # comment:                                                     FEFF 9.9.1  
# # Source:
# # Structure
# # Reduced
# # space
# # abc:
# # angles:107.580080
# # sites:
# # POT  SCF 100  7.0000   0, screened core-hole, AFOLP (folp(0)= 1.150)
# # Abs   Z=29 Rmt= 1.233 Rnm= 1.312 K  shell
# # Pot 1 Z=56 Rmt= 1.912 Rnm= 1.975
# # Pot 2 Z=38 Rmt= 1.795 Rnm= 1.859
# # Pot 3 Z=29 Rmt= 1.225 Rnm= 1.308
# # Pot 4 Z= 8 Rmt= 1.080 Rnm= 1.128
# # Gam_ch=1.729E+00 H-L exch Vi= 0.000E+00 Vr= 0.000E+00
# # Mu=-1.034E+01eV kf=1.915E+00 Vint=-1.755E+01eV Rs_int= 1.894
# FMS rfms= 9.0000
# # PATH  Rmax=-1.000,  Keep_limit= 0.00, Heap_limit 0.00  Pwcrit= 2.50%
#  S02=0.950  Temp=   0.00  Debye_temp=   0.00  Global_sig2= 0.00000
#  Energy zero shift, vr, vi    0.00000E+00   0.00000E+00
#  Curved wave amplitude ratio filter   4.000%
#     file         sig2 tot  cw amp ratio   deg  nlegs   reff  inp sig2
#     0/   0 paths used
#  xsedge+ 50, used to normalize mu           2.4454E-04
#  -----------------------------------------------------------------------
#  omega    e    k    mu    mu0     chi     @#
    8985.347    -14.150  -1.000  3.39214E-02  5.26515E-02 -1.87301E-02
    8985.645    -13.852  -0.960  3.55054E-02  5.63892E-02 -2.08838E-02
    8985.932    -13.565  -0.920  3.72008E-02  6.05325E-02 -2.33317E-02
    8986.206    -13.291  -0.880  3.90210E-02  6.51398E-02 -2.61188E-02
    8986.468    -13.029  -0.840  4.09820E-02  7.02793E-02 -2.92973E-02
    8986.718    -12.779  -0.800  4.31022E-02  7.60295E-02 -3.29273E-02
    8986.956    -12.541  -0.760  4.54031E-02  8.24805E-02 -3.70775E-02
    8987.182    -12.316  -0.720  4.79089E-02  8.97340E-02 -4.18251E-02
    8987.395    -12.102  -0.680  5.06467E-02  9.79014E-02 -4.72547E-02
    8987.596    -11.901  -0.640  5.36452E-02  1.07100E-01 -5.34553E-02
    8987.785    -11.712  -0.600  5.69325E-02  1.17446E-01 -6.05136E-02
    8987.962    -11.535  -0.560  6.05326E-02  1.29036E-01 -6.85033E-02
    8988.127    -11.371  -0.520  6.44597E-02  1.41927E-01 -7.74677E-02
    8988.279    -11.218  -0.480  6.87096E-02  1.56105E-01 -8.73956E-02
    8988.419    -11.078  -0.440  7.32511E-02  1.71446E-01 -9.81947E-02
    8988.547    -10.950  -0.400  7.80171E-02  1.87685E-01 -1.09668E-01
    8988.663    -10.834  -0.360  8.29017E-02  2.04411E-01 -1.21509E-01
    8988.767    -10.731  -0.320  8.77650E-02  2.21085E-01 -1.33320E-01
    8988.858    -10.639  -0.280  9.24480E-02  2.37111E-01 -1.44663E-01
    8988.937    -10.560  -0.240  9.67923E-02  2.51912E-01 -1.55120E-01
    8989.004    -10.493  -0.200  1.00659E-01  2.65004E-01 -1.64345E-01
    8989.059    -10.438  -0.160  1.03938E-01  2.76027E-01 -1.72089E-01
    8989.102    -10.395  -0.120  1.06556E-01  2.84749E-01 -1.78194E-01
    8989.132    -10.365  -0.080  1.08463E-01  2.91039E-01 -1.82576E-01
    8989.157    -10.340   0.000  1.10031E-01  2.96096E-01 -1.86065E-01
    8989.212    -10.286   0.120  1.13536E-01  3.07501E-01 -1.93965E-01
    8989.254    -10.243   0.160  1.16237E-01  3.16399E-01 -2.00162E-01
    8989.309    -10.188   0.200  1.19664E-01  3.27766E-01 -2.08102E-01
    8989.376    -10.121   0.240  1.23750E-01  3.41467E-01 -2.17718E-01
    8989.455    -10.042   0.280  1.28393E-01  3.57278E-01 -2.28884E-01
    8989.547     -9.950   0.320  1.33408E-01  3.74812E-01 -2.41403E-01
    8989.651     -9.847   0.360  1.38496E-01  3.93591E-01 -2.55095E-01
    8989.766     -9.731   0.400  1.43282E-01  4.13146E-01 -2.69864E-01
    8989.894     -9.603   0.440  1.47344E-01  4.33008E-01 -2.85665E-01
    8990.035     -9.463   0.480  1.50318E-01  4.52808E-01 -3.02490E-01
    8990.187     -9.310   0.520  1.52110E-01  4.72324E-01 -3.20214E-01
    8990.352     -9.146   0.560  1.52948E-01  4.91453E-01 -3.38504E-01
    8990.528     -8.969   0.600  1.53227E-01  5.10140E-01 -3.56913E-01
    8990.717     -8.780   0.640  1.53417E-01  5.28433E-01 -3.75017E-01
    8990.919     -8.579   0.680  1.53885E-01  5.46389E-01 -3.92504E-01
    8991.132     -8.365   0.720  1.55063E-01  5.64074E-01 -4.09011E-01
    8991.357     -8.140   0.760  1.57652E-01  5.81553E-01 -4.23901E-01
    8991.595     -7.902   0.800  1.62461E-01  5.98862E-01 -4.36401E-01
    8991.845     -7.652   0.840  1.70422E-01  6.16085E-01 -4.45663E-01
    8992.107     -7.390   0.880  1.82405E-01  6.33212E-01 -4.50808E-01
    8992.382     -7.116   0.920  1.99429E-01  6.50241E-01 -4.50812E-01
    8992.668     -6.829   0.960  2.22687E-01  6.67220E-01 -4.44533E-01
    8992.967     -6.531   1.000  2.53142E-01  6.84106E-01 -4.30963E-01
    8993.278     -6.220   1.040  2.90932E-01  7.00867E-01 -4.09935E-01
    8993.601     -5.897   1.080  3.34645E-01  7.17508E-01 -3.82863E-01
    8993.936     -5.561   1.120  3.81627E-01  7.33984E-01 -3.52357E-01
    8994.283     -5.214   1.160  4.29840E-01  7.50270E-01 -3.20431E-01
    8994.643     -4.854   1.200  4.77375E-01  7.66294E-01 -2.88919E-01
    8995.015     -4.482   1.240  5.19107E-01  7.82044E-01 -2.62936E-01
    8995.399     -4.098   1.280  5.50281E-01  7.97466E-01 -2.47185E-01
    8995.795     -3.702   1.320  5.73746E-01  8.12544E-01 -2.38798E-01
    8996.204     -3.294   1.360  5.97594E-01  8.27203E-01 -2.29610E-01
    8996.624     -2.873   1.400  6.30086E-01  8.41409E-01 -2.11323E-01
    8997.057     -2.440   1.440  6.79332E-01  8.55147E-01 -1.75815E-01
    8997.502     -1.995   1.480  7.47270E-01  8.68384E-01 -1.21115E-01
    8997.959     -1.538   1.520  8.15873E-01  8.81090E-01 -6.52171E-02
    8998.429     -1.069   1.560  8.69173E-01  8.93233E-01 -2.40602E-02
    8998.910     -0.587   1.600  9.35753E-01  9.04784E-01  3.09684E-02
    8999.404     -0.093   1.640  1.05305E+00  9.15759E-01  1.37293E-01
    8999.910      0.413   1.680  1.20122E+00  9.26113E-01  2.75104E-01
    9000.428      0.931   1.720  1.29119E+00  9.35863E-01  3.55326E-01
    9000.959      1.461   1.760  1.28984E+00  9.45009E-01  3.44830E-01
    9001.501      2.004   1.800  1.29806E+00  9.53510E-01  3.44550E-01
    9002.056      2.559   1.840  1.38573E+00  9.61411E-01  4.24322E-01
    9002.623      3.126   1.880  1.52534E+00  9.68717E-01  5.56622E-01
    9003.202      3.705   1.920  1.62611E+00  9.75414E-01  6.50693E-01
    9003.793      4.296   1.960  1.59620E+00  9.81548E-01  6.14650E-01
    9004.397      4.899   2.000  1.46110E+00  9.87108E-01  4.73991E-01
    9005.012      5.515   2.040  1.30978E+00  9.92126E-01  3.17655E-01
    9005.640      6.143   2.080  1.18725E+00  9.96612E-01  1.90634E-01
    9006.280      6.783   2.120  1.09893E+00  1.00059E+00  9.83355E-02
    9006.933      7.435   2.160  1.03983E+00  1.00411E+00  3.57220E-02
    9007.597      8.100   2.200  1.00809E+00  1.00715E+00  9.43424E-04
    9008.274      8.776   2.240  9.99418E-01  1.00978E+00 -1.03666E-02
    9008.963      9.465   2.280  9.94221E-01  1.01199E+00 -1.77692E-02
    9009.664     10.166   2.320  9.75061E-01  1.01384E+00 -3.87801E-02
    9010.377     10.880   2.360  9.63109E-01  1.01533E+00 -5.22175E-02
    9011.102     11.605   2.400  9.62625E-01  1.01648E+00 -5.38562E-02
    9011.840     12.343   2.440  9.69807E-01  1.01732E+00 -4.75115E-02
    9012.590     13.092   2.480  9.83399E-01  1.01789E+00 -3.44918E-02
    9013.352     13.854   2.520  1.00220E+00  1.01821E+00 -1.60082E-02
    9014.126     14.629   2.560  1.02306E+00  1.01829E+00  4.76700E-03
    9014.912     15.415   2.600  1.04195E+00  1.01819E+00  2.37634E-02
    9015.711     16.214   2.640  1.05516E+00  1.01788E+00  3.72763E-02
    9016.522     17.024   2.680  1.06068E+00  1.01739E+00  4.32893E-02
    9017.345     17.847   2.720  1.05840E+00  1.01679E+00  4.16106E-02
    9018.180     18.682   2.760  1.04980E+00  1.01603E+00  3.37627E-02
    9019.027     19.530   2.800  1.03647E+00  1.01518E+00  2.12880E-02
    9019.887     20.389   2.840  1.01979E+00  1.01422E+00  5.56616E-03
    9020.758     21.261   2.880  1.00094E+00  1.01321E+00 -1.22674E-02
    9021.642     22.145   2.920  9.80797E-01  1.01211E+00 -3.13178E-02
    9022.538     23.041   2.960  9.60391E-01  1.01100E+00 -5.06088E-02
    9023.447     23.949   3.000  9.40773E-01  1.00983E+00 -6.90526E-02
    9024.367     24.870   3.040  9.22988E-01  1.00864E+00 -8.56513E-02
    9025.300     25.803   3.080  9.07895E-01  1.00745E+00 -9.95519E-02
    9026.245     26.747   3.120  8.96016E-01  1.00625E+00 -1.10238E-01
    9027.202     27.704   3.160  8.87507E-01  1.00507E+00 -1.17558E-01
    9028.171     28.674   3.200  8.82397E-01  1.00391E+00 -1.21509E-01
    9029.152     29.655   3.240  8.80663E-01  1.00276E+00 -1.22094E-01
    9030.146     30.649   3.280  8.81876E-01  1.00167E+00 -1.19791E-01
    9031.152     31.655   3.320  8.85408E-01  1.00059E+00 -1.15187E-01
    9032.170     32.673   3.360  8.90841E-01  9.99564E-01 -1.08723E-01
    9033.200     33.703   3.400  8.97942E-01  9.98602E-01 -1.00660E-01
    9034.243     34.745   3.440  9.06558E-01  9.97709E-01 -9.11513E-02
    9035.297     35.800   3.480  9.16785E-01  9.96844E-01 -8.00590E-02
    9036.364     36.867   3.520  9.28898E-01  9.96072E-01 -6.71733E-02
    9037.443     37.946   3.560  9.42790E-01  9.95351E-01 -5.25606E-02
    9038.534     39.037   3.600  9.58035E-01  9.94684E-01 -3.66485E-02
    9039.638     40.140   3.640  9.73995E-01  9.94113E-01 -2.01183E-02
    9040.753     41.256   3.680  9.89672E-01  9.93598E-01 -3.92602E-03
    9041.881     42.384   3.720  1.00408E+00  9.93159E-01  1.09260E-02
    9043.021     43.524   3.760  1.01637E+00  9.92797E-01  2.35721E-02
    9044.173     44.676   3.800  1.02579E+00  9.92513E-01  3.32742E-02
    9045.337     45.840   3.840  1.03188E+00  9.92284E-01  3.95951E-02
    9046.514     47.017   3.880  1.03479E+00  9.92151E-01  4.26380E-02
    9047.703     48.205   3.920  1.03521E+00  9.92073E-01  4.31349E-02
    9048.903     49.406   3.960  1.03411E+00  9.92047E-01  4.20593E-02
    9050.117     50.619   4.000  1.03235E+00  9.92119E-01  4.02361E-02
    9051.342     51.845   4.040  1.03029E+00  9.92240E-01  3.80504E-02
    9052.579     53.082   4.080  1.02801E+00  9.92412E-01  3.56023E-02
    9053.829     54.332   4.120  1.02570E+00  9.92656E-01  3.30390E-02
    9055.091     55.594   4.160  1.02388E+00  9.92970E-01  3.09100E-02
    9056.365     56.868   4.200  1.02333E+00  9.93330E-01  2.99953E-02
    9057.651     58.154   4.240  1.02458E+00  9.93734E-01  3.08413E-02
    9058.950     59.452   4.280  1.02764E+00  9.94180E-01  3.34592E-02
    9060.260     60.763   4.320  1.03197E+00  9.94669E-01  3.72975E-02
    9061.583     62.086   4.360  1.03665E+00  9.95221E-01  4.14264E-02
    9062.918     63.421   4.400  1.04080E+00  9.95789E-01  4.50076E-02
    9064.265     64.768   4.440  1.04412E+00  9.96391E-01  4.77315E-02
    9065.625     66.127   4.480  1.04696E+00  9.97028E-01  4.99306E-02
    9066.996     67.499   4.520  1.04995E+00  9.97677E-01  5.22756E-02
    9068.380     68.883   4.560  1.05364E+00  9.98356E-01  5.52892E-02
    9069.776     70.279   4.600  1.05780E+00  9.99042E-01  5.87540E-02
    9071.184     71.687   4.640  1.06136E+00  9.99756E-01  6.15999E-02
    9072.605     73.107   4.680  1.06270E+00  1.00047E+00  6.22278E-02
    9074.037     74.540   4.720  1.06024E+00  1.00119E+00  5.90513E-02
    9075.482     75.985   4.760  1.05305E+00  1.00190E+00  5.11467E-02
    9076.939     77.442   4.800  1.04131E+00  1.00259E+00  3.87144E-02
    9078.408     78.911   4.840  1.02644E+00  1.00330E+00  2.31420E-02
    9079.889     80.392   4.880  1.01061E+00  1.00398E+00  6.62915E-03
    9081.383     81.886   4.920  9.96166E-01  1.00465E+00 -8.48356E-03
    9082.888     83.391   4.960  9.84930E-01  1.00529E+00 -2.03577E-02
    9084.406     84.909   5.000  9.77966E-01  1.00591E+00 -2.79483E-02
    9085.936     86.439   5.040  9.75362E-01  1.00651E+00 -3.11465E-02
    9087.479     87.981   5.080  9.76427E-01  1.00709E+00 -3.06593E-02
    9089.033     89.536   5.120  9.79755E-01  1.00760E+00 -2.78487E-02
    9090.600     91.103   5.160  9.83748E-01  1.00810E+00 -2.43554E-02
    9092.179     92.681   5.200  9.86904E-01  1.00856E+00 -2.16591E-02
    9093.770     94.273   5.240  9.88183E-01  1.00896E+00 -2.07753E-02
    9095.373     95.876   5.280  9.87110E-01  1.00933E+00 -2.22236E-02
    9096.988     97.491   5.320  9.83603E-01  1.00967E+00 -2.60643E-02
    9098.616     99.119   5.360  9.78104E-01  1.00993E+00 -3.18289E-02
    9100.256    100.759   5.400  9.71526E-01  1.01015E+00 -3.86284E-02
    9101.908    102.411   5.440  9.64890E-01  1.01035E+00 -4.54640E-02
    9103.572    104.075   5.480  9.58889E-01  1.01046E+00 -5.15735E-02
    9105.249    105.751   5.520  9.54094E-01  1.01055E+00 -5.64535E-02
    9106.937    107.440   5.560  9.50847E-01  1.01057E+00 -5.97203E-02
    9108.638    109.141   5.600  9.49628E-01  1.01056E+00 -6.09370E-02
    9110.351    110.854   5.640  9.50838E-01  1.01049E+00 -5.96557E-02
    9112.076    112.579   5.680  9.54403E-01  1.01035E+00 -5.59507E-02
    9113.813    114.316   5.720  9.60223E-01  1.01019E+00 -4.99681E-02
    9115.563    116.066   5.760  9.67580E-01  1.00996E+00 -4.23838E-02
    9117.325    117.827   5.800  9.75575E-01  1.00969E+00 -3.41172E-02
    9119.099    119.601   5.840  9.83354E-01  1.00938E+00 -2.60271E-02
    9120.885    121.387   5.880  9.90430E-01  1.00903E+00 -1.86024E-02
    9122.683    123.186   5.920  9.96872E-01  1.00865E+00 -1.17733E-02
    9124.494    124.996   5.960  1.00307E+00  1.00822E+00 -5.15650E-03
    9126.316    126.819   6.000  1.01008E+00  1.00773E+00  2.34531E-03
