# # comment:                                                     FEFF 9.9.1  
# # Source:
# # Structure
# # Reduced
# # space
# # abc:
# # angles:
# # sites:
# # POT  SCF 100  7.0000   0, screened core-hole, AFOLP (folp(0)= 1.150)
# # Abs   Z=29 Rmt= 1.146 Rnm= 1.264 K  shell
# # Pot 1 Z= 3 Rmt= 1.220 Rnm= 1.286
# # Pot 2 Z=29 Rmt= 1.130 Rnm= 1.254
# # Pot 3 Z= 8 Rmt= 1.018 Rnm= 1.111
# # Gam_ch=1.729E+00 H-L exch Vi= 0.000E+00 Vr= 0.000E+00
# # Mu=-7.872E+00eV kf=2.110E+00 Vint=-1.606E+01eV Rs_int= 1.718
# FMS rfms= 9.0000
# # PATH  Rmax=-1.000,  Keep_limit= 0.00, Heap_limit 0.00  Pwcrit= 2.50%
#  S02=0.950  Temp=   0.00  Debye_temp=   0.00  Global_sig2= 0.00000
#  Energy zero shift, vr, vi    0.00000E+00   0.00000E+00
#  Curved wave amplitude ratio filter   4.000%
#     file         sig2 tot  cw amp ratio   deg  nlegs   reff  inp sig2
#     0/   0 paths used
#  xsedge+ 50, used to normalize mu           2.4406E-04
#  -----------------------------------------------------------------------
#  omega    e    k    mu    mu0     chi     @#
    8984.177    -11.682  -1.000  3.69442E-02  5.46279E-02 -1.76837E-02
    8984.475    -11.383  -0.960  3.90753E-02  5.85794E-02 -1.95040E-02
    8984.762    -11.097  -0.920  4.14150E-02  6.29670E-02 -2.15520E-02
    8985.036    -10.823  -0.880  4.39933E-02  6.78547E-02 -2.38613E-02
    8985.298    -10.561  -0.840  4.68451E-02  7.33166E-02 -2.64715E-02
    8985.548    -10.311  -0.800  5.00100E-02  7.94386E-02 -2.94285E-02
    8985.786    -10.073  -0.760  5.35335E-02  8.63192E-02 -3.27857E-02
    8986.012     -9.847  -0.720  5.74658E-02  9.40696E-02 -3.66039E-02
    8986.225     -9.634  -0.680  6.18615E-02  1.02812E-01 -4.09508E-02
    8986.426     -9.433  -0.640  6.67776E-02  1.12676E-01 -4.58986E-02
    8986.615     -9.244  -0.600  7.22694E-02  1.23788E-01 -5.15185E-02
    8986.792     -9.067  -0.560  7.83851E-02  1.36255E-01 -5.78702E-02
    8986.956     -8.902  -0.520  8.51567E-02  1.50142E-01 -6.49854E-02
    8987.109     -8.750  -0.480  9.25882E-02  1.65433E-01 -7.28451E-02
    8987.249     -8.610  -0.440  1.00642E-01  1.81995E-01 -8.13526E-02
    8987.377     -8.482  -0.400  1.09227E-01  1.99540E-01 -9.03133E-02
    8987.493     -8.366  -0.360  1.18185E-01  2.17618E-01 -9.94326E-02
    8987.597     -8.262  -0.320  1.27299E-01  2.35643E-01 -1.08344E-01
    8987.688     -8.171  -0.280  1.36297E-01  2.52965E-01 -1.16668E-01
    8987.767     -8.092  -0.240  1.44881E-01  2.68958E-01 -1.24077E-01
    8987.834     -8.025  -0.200  1.52745E-01  2.83095E-01 -1.30350E-01
    8987.889     -7.970  -0.160  1.59609E-01  2.94993E-01 -1.35384E-01
    8987.932     -7.927  -0.120  1.65231E-01  3.04401E-01 -1.39170E-01
    8987.962     -7.897  -0.080  1.69421E-01  3.11181E-01 -1.41761E-01
    8987.987     -7.872   0.000  1.72948E-01  3.16631E-01 -1.43684E-01
    8988.042     -7.817   0.120  1.80725E-01  3.28916E-01 -1.48191E-01
    8988.084     -7.775   0.160  1.86942E-01  3.38481E-01 -1.51539E-01
    8988.139     -7.720   0.200  1.95169E-01  3.50694E-01 -1.55525E-01
    8988.206     -7.653   0.240  2.05533E-01  3.65399E-01 -1.59866E-01
    8988.285     -7.574   0.280  2.18144E-01  3.82314E-01 -1.64170E-01
    8988.377     -7.482   0.320  2.32949E-01  4.01003E-01 -1.68054E-01
    8988.480     -7.378   0.360  2.49623E-01  4.20971E-01 -1.71347E-01
    8988.596     -7.263   0.400  2.67323E-01  4.41644E-01 -1.74321E-01
    8988.724     -7.135   0.440  2.84372E-01  4.62498E-01 -1.78126E-01
    8988.865     -6.994   0.480  2.98285E-01  4.83143E-01 -1.84858E-01
    8989.017     -6.842   0.520  3.06137E-01  5.03308E-01 -1.97172E-01
    8989.181     -6.677   0.560  3.05927E-01  5.22880E-01 -2.16952E-01
    8989.358     -6.501   0.600  2.97827E-01  5.41824E-01 -2.43997E-01
    8989.547     -6.312   0.640  2.84329E-01  5.60193E-01 -2.75864E-01
    8989.748     -6.110   0.680  2.68719E-01  5.78037E-01 -3.09318E-01
    8989.962     -5.897   0.720  2.53686E-01  5.95456E-01 -3.41770E-01
    8990.187     -5.672   0.760  2.40817E-01  6.12529E-01 -3.71712E-01
    8990.425     -5.434   0.800  2.30834E-01  6.29306E-01 -3.98472E-01
    8990.675     -5.184   0.840  2.24110E-01  6.45843E-01 -4.21733E-01
    8990.937     -4.922   0.880  2.20915E-01  6.62224E-01 -4.41309E-01
    8991.211     -4.647   0.920  2.21289E-01  6.78417E-01 -4.57127E-01
    8991.498     -4.361   0.960  2.24596E-01  6.94459E-01 -4.69863E-01
    8991.797     -4.062   1.000  2.29384E-01  7.10379E-01 -4.80995E-01
    8992.108     -3.751   1.040  2.34908E-01  7.26112E-01 -4.91205E-01
    8992.431     -3.428   1.080  2.42472E-01  7.41693E-01 -4.99221E-01
    8992.766     -3.093   1.120  2.54579E-01  7.57084E-01 -5.02506E-01
    8993.113     -2.746   1.160  2.73077E-01  7.72244E-01 -4.99167E-01
    8993.473     -2.386   1.200  2.98716E-01  7.87172E-01 -4.88455E-01
    8993.845     -2.014   1.240  3.32072E-01  8.01820E-01 -4.69748E-01
    8994.229     -1.630   1.280  3.74708E-01  8.16159E-01 -4.41451E-01
    8994.625     -1.234   1.320  4.29572E-01  8.30158E-01 -4.00586E-01
    8995.034     -0.825   1.360  5.01229E-01  8.43788E-01 -3.42559E-01
    8995.454     -0.405   1.400  5.96056E-01  8.56997E-01 -2.60940E-01
    8995.887      0.028   1.440  7.17744E-01  8.69772E-01 -1.52028E-01
    8996.332      0.473   1.480  8.47390E-01  8.82087E-01 -3.46968E-02
    8996.789      0.930   1.520  9.24182E-01  8.93931E-01  3.02512E-02
    8997.259      1.400   1.560  9.07046E-01  9.05255E-01  1.79180E-03
    8997.740      1.881   1.600  8.41009E-01  9.16052E-01 -7.50424E-02
    8998.234      2.375   1.640  7.87269E-01  9.26297E-01 -1.39028E-01
    8998.740      2.881   1.680  7.70258E-01  9.36006E-01 -1.65748E-01
    8999.258      3.399   1.720  7.96715E-01  9.45155E-01 -1.48440E-01
    8999.788      3.930   1.760  8.71977E-01  9.53746E-01 -8.17692E-02
    9000.331      4.472   1.800  9.93657E-01  9.61759E-01  3.18977E-02
    9000.886      5.027   1.840  1.13613E+00  9.69234E-01  1.66900E-01
    9001.453      5.594   1.880  1.24575E+00  9.76116E-01  2.69634E-01
    9002.032      6.173   1.920  1.28916E+00  9.82470E-01  3.06686E-01
    9002.623      6.764   1.960  1.28797E+00  9.88301E-01  2.99665E-01
    9003.227      7.368   2.000  1.27407E+00  9.93577E-01  2.80492E-01
    9003.842      7.983   2.040  1.25446E+00  9.98366E-01  2.56093E-01
    9004.470      8.611   2.080  1.22890E+00  1.00264E+00  2.26259E-01
    9005.110      9.251   2.120  1.20710E+00  1.00644E+00  2.00658E-01
    9005.763      9.904   2.160  1.20043E+00  1.00980E+00  1.90624E-01
    9006.427     10.568   2.200  1.20831E+00  1.01272E+00  1.95588E-01
    9007.104     11.245   2.240  1.22259E+00  1.01522E+00  2.07363E-01
    9007.793     11.934   2.280  1.24250E+00  1.01732E+00  2.25177E-01
    9008.494     12.635   2.320  1.27486E+00  1.01907E+00  2.55798E-01
    9009.207     13.348   2.360  1.32160E+00  1.02045E+00  3.01148E-01
    9009.932     14.073   2.400  1.37055E+00  1.02153E+00  3.49020E-01
    9010.670     14.811   2.440  1.39804E+00  1.02231E+00  3.75728E-01
    9011.420     15.561   2.480  1.38117E+00  1.02281E+00  3.58356E-01
    9012.182     16.323   2.520  1.31693E+00  1.02303E+00  2.93892E-01
    9012.956     17.097   2.560  1.24074E+00  1.02306E+00  2.17680E-01
    9013.742     17.883   2.600  1.17960E+00  1.02285E+00  1.56755E-01
    9014.541     18.682   2.640  1.13291E+00  1.02244E+00  1.10475E-01
    9015.352     19.493   2.680  1.09649E+00  1.02188E+00  7.46123E-02
    9016.174     20.316   2.720  1.06637E+00  1.02114E+00  4.52263E-02
    9017.010     21.151   2.760  1.03999E+00  1.02029E+00  1.97006E-02
    9017.857     21.998   2.800  1.01598E+00  1.01932E+00 -3.34527E-03
    9018.716     22.858   2.840  9.94139E-01  1.01824E+00 -2.40998E-02
    9019.588     23.729   2.880  9.74381E-01  1.01709E+00 -4.27096E-02
    9020.472     24.613   2.920  9.56060E-01  1.01585E+00 -5.97855E-02
    9021.368     25.509   2.960  9.39284E-01  1.01457E+00 -7.52875E-02
    9022.277     26.418   3.000  9.24669E-01  1.01326E+00 -8.85873E-02
    9023.197     27.338   3.040  9.13034E-01  1.01190E+00 -9.88698E-02
    9024.130     28.271   3.080  9.04790E-01  1.01052E+00 -1.05729E-01
    9025.075     29.216   3.120  8.99964E-01  1.00915E+00 -1.09188E-01
    9026.032     30.173   3.160  8.97850E-01  1.00776E+00 -1.09913E-01
    9027.001     31.142   3.200  8.97553E-01  1.00640E+00 -1.08849E-01
    9027.982     32.123   3.240  8.98355E-01  1.00507E+00 -1.06717E-01
    9028.976     33.117   3.280  8.99636E-01  1.00376E+00 -1.04120E-01
    9029.982     34.123   3.320  9.01056E-01  1.00250E+00 -1.01443E-01
    9031.000     35.141   3.360  9.02223E-01  1.00126E+00 -9.90386E-02
    9032.030     36.171   3.400  9.02732E-01  1.00009E+00 -9.73588E-02
    9033.073     37.214   3.440  9.01995E-01  9.98966E-01 -9.69708E-02
    9034.127     38.268   3.480  8.99809E-01  9.97912E-01 -9.81031E-02
    9035.194     39.335   3.520  8.96433E-01  9.96909E-01 -1.00476E-01
    9036.273     40.414   3.560  8.92414E-01  9.95979E-01 -1.03565E-01
    9037.364     41.505   3.600  8.88416E-01  9.95104E-01 -1.06687E-01
    9038.467     42.609   3.640  8.85162E-01  9.94327E-01 -1.09165E-01
    9039.583     43.724   3.680  8.83291E-01  9.93609E-01 -1.10318E-01
    9040.711     44.852   3.720  8.83264E-01  9.92989E-01 -1.09726E-01
    9041.851     45.992   3.760  8.85505E-01  9.92430E-01 -1.06924E-01
    9043.003     47.144   3.800  8.90305E-01  9.91950E-01 -1.01645E-01
    9044.167     48.308   3.840  8.97622E-01  9.91572E-01 -9.39496E-02
    9045.344     49.485   3.880  9.07127E-01  9.91253E-01 -8.41259E-02
    9046.532     50.674   3.920  9.18577E-01  9.91013E-01 -7.24359E-02
    9047.733     51.874   3.960  9.31864E-01  9.90852E-01 -5.89881E-02
    9048.946     53.088   4.000  9.47108E-01  9.90774E-01 -4.36655E-02
    9050.172     54.313   4.040  9.64526E-01  9.90798E-01 -2.62716E-02
    9051.409     55.550   4.080  9.83920E-01  9.90876E-01 -6.95601E-03
    9052.659     56.800   4.120  1.00438E+00  9.91009E-01  1.33696E-02
    9053.921     58.062   4.160  1.02445E+00  9.91239E-01  3.32131E-02
    9055.195     59.336   4.200  1.04242E+00  9.91525E-01  5.08905E-02
    9056.481     60.622   4.240  1.05697E+00  9.91882E-01  6.50901E-02
    9057.779     61.921   4.280  1.06765E+00  9.92291E-01  7.53566E-02
    9059.090     63.231   4.320  1.07489E+00  9.92771E-01  8.21148E-02
    9060.413     64.554   4.360  1.07964E+00  9.93298E-01  8.63448E-02
    9061.748     65.889   4.400  1.08300E+00  9.93895E-01  8.91066E-02
    9063.095     67.236   4.440  1.08590E+00  9.94538E-01  9.13613E-02
    9064.455     68.596   4.480  1.08882E+00  9.95222E-01  9.35951E-02
    9065.826     69.967   4.520  1.09171E+00  9.95947E-01  9.57612E-02
    9067.210     71.351   4.560  1.09397E+00  9.96709E-01  9.72593E-02
    9068.606     72.747   4.600  1.09454E+00  9.97508E-01  9.70351E-02
    9070.014     74.155   4.640  1.09217E+00  9.98320E-01  9.38450E-02
    9071.434     75.576   4.680  1.08592E+00  9.99165E-01  8.67500E-02
    9072.867     77.008   4.720  1.07562E+00  1.00004E+00  7.55766E-02
    9074.312     78.453   4.760  1.06213E+00  1.00092E+00  6.12080E-02
    9075.769     79.910   4.800  1.04720E+00  1.00181E+00  4.53907E-02
    9077.238     81.379   4.840  1.03282E+00  1.00272E+00  3.00969E-02
    9078.719     82.860   4.880  1.02056E+00  1.00361E+00  1.69498E-02
    9080.213     84.354   4.920  1.01156E+00  1.00452E+00  7.03125E-03
    9081.718     85.859   4.960  1.00627E+00  1.00541E+00  8.60574E-04
    9083.236     87.377   5.000  1.00470E+00  1.00628E+00 -1.58048E-03
    9084.766     88.907   5.040  1.00624E+00  1.00713E+00 -8.90936E-04
    9086.309     90.450   5.080  1.00973E+00  1.00796E+00  1.76789E-03
    9087.863     92.004   5.120  1.01368E+00  1.00879E+00  4.89387E-03
    9089.430     93.571   5.160  1.01661E+00  1.00955E+00  7.05422E-03
    9091.009     95.150   5.200  1.01775E+00  1.01030E+00  7.45049E-03
    9092.600     96.741   5.240  1.01734E+00  1.01101E+00  6.32368E-03
    9094.203     98.344   5.280  1.01643E+00  1.01168E+00  4.74944E-03
    9095.818     99.959   5.320  1.01625E+00  1.01231E+00  3.93665E-03
    9097.446    101.587   5.360  1.01736E+00  1.01290E+00  4.46005E-03
    9099.086    103.227   5.400  1.01932E+00  1.01344E+00  5.88437E-03
    9100.738    104.879   5.440  1.02080E+00  1.01391E+00  6.89205E-03
    9102.402    106.543   5.480  1.02013E+00  1.01433E+00  5.79731E-03
    9104.078    108.220   5.520  1.01596E+00  1.01471E+00  1.25055E-03
    9105.767    109.908   5.560  1.00787E+00  1.01501E+00 -7.14338E-03
    9107.468    111.609   5.600  9.96714E-01  1.01527E+00 -1.85543E-02
    9109.181    113.322   5.640  9.84282E-01  1.01548E+00 -3.11943E-02
    9110.906    115.047   5.680  9.72627E-01  1.01561E+00 -4.29836E-02
    9112.643    116.784   5.720  9.63358E-01  1.01567E+00 -5.23135E-02
    9114.393    118.534   5.760  9.57358E-01  1.01568E+00 -5.83226E-02
    9116.155    120.296   5.800  9.54742E-01  1.01562E+00 -6.08754E-02
    9117.928    122.070   5.840  9.55093E-01  1.01551E+00 -6.04140E-02
    9119.715    123.856   5.880  9.57522E-01  1.01532E+00 -5.78019E-02
    9121.513    125.654   5.920  9.61062E-01  1.01509E+00 -5.40296E-02
    9123.323    127.465   5.960  9.64914E-01  1.01478E+00 -4.98679E-02
    9125.146    129.287   6.000  9.68771E-01  1.01438E+00 -4.56065E-02
