# # comment:                                                     FEFF 9.9.1  
# # Source:
# # Structure
# # Reduced
# # space
# # abc:
# # angles:
# # sites:
# # POT  SCF 100  7.0000   0, screened core-hole, AFOLP (folp(0)= 1.150)
# # Abs   Z=29 Rmt= 1.169 Rnm= 1.282 K  shell
# # Pot 1 Z=56 Rmt= 1.922 Rnm= 1.982
# # Pot 2 Z=67 Rmt= 1.621 Rnm= 1.700
# # Pot 3 Z=29 Rmt= 1.169 Rnm= 1.282
# # Pot 4 Z= 8 Rmt= 1.084 Rnm= 1.134
# # Gam_ch=1.729E+00 H-L exch Vi= 0.000E+00 Vr= 0.000E+00
# # Mu=-9.246E+00eV kf=1.987E+00 Vint=-1.792E+01eV Rs_int= 1.825
# FMS rfms= 9.0000
# # PATH  Rmax=-1.000,  Keep_limit= 0.00, Heap_limit 0.00  Pwcrit= 2.50%
#  S02=0.950  Temp=   0.00  Debye_temp=   0.00  Global_sig2= 0.00000
#  Energy zero shift, vr, vi    0.00000E+00   0.00000E+00
#  Curved wave amplitude ratio filter   4.000%
#     file         sig2 tot  cw amp ratio   deg  nlegs   reff  inp sig2
#     0/   0 paths used
#  xsedge+ 50, used to normalize mu           2.4501E-04
#  -----------------------------------------------------------------------
#  omega    e    k    mu    mu0     chi     @#
    8985.213    -13.056  -1.000  3.80482E-02  5.63411E-02 -1.82929E-02
    8985.512    -12.757  -0.960  4.01733E-02  6.04684E-02 -2.02950E-02
    8985.799    -12.470  -0.920  4.25022E-02  6.50559E-02 -2.25537E-02
    8986.073    -12.196  -0.880  4.50665E-02  7.01713E-02 -2.51049E-02
    8986.335    -11.934  -0.840  4.79038E-02  7.58936E-02 -2.79898E-02
    8986.585    -11.684  -0.800  5.10589E-02  8.23139E-02 -3.12550E-02
    8986.823    -11.446  -0.760  5.45842E-02  8.95370E-02 -3.49528E-02
    8987.048    -11.221  -0.720  5.85405E-02  9.76813E-02 -3.91408E-02
    8987.262    -11.007  -0.680  6.29963E-02  1.06877E-01 -4.38807E-02
    8987.463    -10.806  -0.640  6.80258E-02  1.17262E-01 -4.92360E-02
    8987.652    -10.617  -0.600  7.37039E-02  1.28970E-01 -5.52666E-02
    8987.829    -10.440  -0.560  8.00973E-02  1.42118E-01 -6.20211E-02
    8987.993    -10.276  -0.520  8.72503E-02  1.56774E-01 -6.95236E-02
    8988.146    -10.123  -0.480  9.51646E-02  1.72922E-01 -7.77572E-02
    8988.286     -9.983  -0.440  1.03776E-01  1.90420E-01 -8.66446E-02
    8988.414     -9.855  -0.400  1.12932E-01  2.08965E-01 -9.60326E-02
    8988.530     -9.739  -0.360  1.22389E-01  2.28077E-01 -1.05688E-01
    8988.633     -9.636  -0.320  1.31823E-01  2.47136E-01 -1.15313E-01
    8988.725     -9.544  -0.280  1.40871E-01  2.65450E-01 -1.24579E-01
    8988.804     -9.465  -0.240  1.49188E-01  2.82357E-01 -1.33169E-01
    8988.871     -9.398  -0.200  1.56488E-01  2.97299E-01 -1.40811E-01
    8988.926     -9.343  -0.160  1.62574E-01  3.09869E-01 -1.47295E-01
    8988.969     -9.300  -0.120  1.67337E-01  3.19807E-01 -1.52470E-01
    8988.999     -9.270  -0.080  1.70730E-01  3.26967E-01 -1.56237E-01
    8989.023     -9.246   0.000  1.73406E-01  3.32720E-01 -1.59314E-01
    8989.078     -9.191   0.120  1.79386E-01  3.45690E-01 -1.66304E-01
    8989.121     -9.148   0.160  1.83973E-01  3.55778E-01 -1.71806E-01
    8989.176     -9.093   0.200  1.89656E-01  3.68660E-01 -1.79004E-01
    8989.243     -9.026   0.240  1.96149E-01  3.84143E-01 -1.87995E-01
    8989.322     -8.947   0.280  2.03037E-01  4.01942E-01 -1.98905E-01
    8989.414     -8.855   0.320  2.09654E-01  4.21587E-01 -2.11932E-01
    8989.517     -8.752   0.360  2.15198E-01  4.42520E-01 -2.27323E-01
    8989.633     -8.636   0.400  2.18785E-01  4.64128E-01 -2.45343E-01
    8989.761     -8.508   0.440  2.19794E-01  4.85887E-01 -2.66093E-01
    8989.901     -8.368   0.480  2.18062E-01  5.07337E-01 -2.89275E-01
    8990.054     -8.215   0.520  2.14107E-01  5.28188E-01 -3.14081E-01
    8990.218     -8.051   0.560  2.09094E-01  5.48338E-01 -3.39244E-01
    8990.395     -7.874   0.600  2.04305E-01  5.67752E-01 -3.63446E-01
    8990.584     -7.685   0.640  2.00814E-01  5.86447E-01 -3.85633E-01
    8990.785     -7.484   0.680  1.99371E-01  6.04519E-01 -4.05148E-01
    8990.999     -7.270   0.720  2.00458E-01  6.22057E-01 -4.21599E-01
    8991.224     -7.045   0.760  2.04351E-01  6.39150E-01 -4.34799E-01
    8991.462     -6.807   0.800  2.11212E-01  6.55875E-01 -4.44663E-01
    8991.712     -6.557   0.840  2.21136E-01  6.72296E-01 -4.51161E-01
    8991.974     -6.295   0.880  2.34306E-01  6.88443E-01 -4.54137E-01
    8992.248     -6.021   0.920  2.51403E-01  7.04371E-01 -4.52969E-01
    8992.535     -5.734   0.960  2.73844E-01  7.20104E-01 -4.46261E-01
    8992.833     -5.436   1.000  3.03390E-01  7.35612E-01 -4.32222E-01
    8993.144     -5.125   1.040  3.41424E-01  7.50940E-01 -4.09516E-01
    8993.467     -4.802   1.080  3.87728E-01  7.66040E-01 -3.78312E-01
    8993.803     -4.466   1.120  4.40440E-01  7.80901E-01 -3.40461E-01
    8994.150     -4.119   1.160  4.97425E-01  7.95507E-01 -2.98083E-01
    8994.510     -3.759   1.200  5.56593E-01  8.09858E-01 -2.53265E-01
    8994.882     -3.387   1.240  6.09886E-01  8.23889E-01 -2.14003E-01
    8995.266     -3.003   1.280  6.41330E-01  8.37595E-01 -1.96265E-01
    8995.662     -2.607   1.320  6.47367E-01  8.50927E-01 -2.03560E-01
    8996.070     -2.199   1.360  6.43290E-01  8.63879E-01 -2.20589E-01
    8996.491     -1.778   1.400  6.43075E-01  8.76400E-01 -2.33325E-01
    8996.924     -1.345   1.440  6.57738E-01  8.88484E-01 -2.30746E-01
    8997.369     -0.900   1.480  6.95292E-01  9.00102E-01 -2.04810E-01
    8997.826     -0.443   1.520  7.48730E-01  9.11247E-01 -1.62517E-01
    8998.295      0.026   1.560  7.84220E-01  9.21872E-01 -1.37651E-01
    8998.777      0.508   1.600  7.73499E-01  9.31992E-01 -1.58492E-01
    8999.271      1.002   1.640  7.51876E-01  9.41561E-01 -1.89685E-01
    8999.777      1.508   1.680  7.73853E-01  9.50580E-01 -1.76727E-01
    9000.295      2.026   1.720  8.66705E-01  9.59066E-01 -9.23609E-02
    9000.825      2.556   1.760  1.03309E+00  9.67019E-01  6.60747E-02
    9001.368      3.099   1.800  1.25246E+00  9.74401E-01  2.78062E-01
    9001.923      3.653   1.840  1.45912E+00  9.81236E-01  4.77883E-01
    9002.489      4.220   1.880  1.57392E+00  9.87547E-01  5.86372E-01
    9003.069      4.800   1.920  1.59730E+00  9.93319E-01  6.03980E-01
    9003.660      5.391   1.960  1.54581E+00  9.98579E-01  5.47228E-01
    9004.263      5.994   2.000  1.43039E+00  1.00331E+00  4.27074E-01
    9004.879      6.610   2.040  1.30488E+00  1.00757E+00  2.97307E-01
    9005.507      7.238   2.080  1.21915E+00  1.01137E+00  2.07780E-01
    9006.147      7.878   2.120  1.19280E+00  1.01470E+00  1.78097E-01
    9006.799      8.530   2.160  1.20363E+00  1.01759E+00  1.86042E-01
    9007.464      9.195   2.200  1.20864E+00  1.02008E+00  1.88552E-01
    9008.140      9.871   2.240  1.18960E+00  1.02217E+00  1.67423E-01
    9008.829     10.560   2.280  1.15779E+00  1.02389E+00  1.33907E-01
    9009.530     11.261   2.320  1.13073E+00  1.02524E+00  1.05492E-01
    9010.244     11.974   2.360  1.11715E+00  1.02628E+00  9.08680E-02
    9010.969     12.700   2.400  1.11751E+00  1.02703E+00  9.04831E-02
    9011.707     13.438   2.440  1.12794E+00  1.02748E+00  1.00453E-01
    9012.456     14.187   2.480  1.14755E+00  1.02767E+00  1.19879E-01
    9013.218     14.949   2.520  1.16986E+00  1.02762E+00  1.42237E-01
    9013.993     15.724   2.560  1.17980E+00  1.02735E+00  1.52453E-01
    9014.779     16.510   2.600  1.16924E+00  1.02688E+00  1.42359E-01
    9015.578     17.308   2.640  1.14084E+00  1.02623E+00  1.14615E-01
    9016.388     18.119   2.680  1.10310E+00  1.02543E+00  7.76679E-02
    9017.211     18.942   2.720  1.06449E+00  1.02448E+00  4.00132E-02
    9018.046     19.777   2.760  1.03008E+00  1.02343E+00  6.65621E-03
    9018.894     20.625   2.800  1.00112E+00  1.02223E+00 -2.11163E-02
    9019.753     21.484   2.840  9.77928E-01  1.02098E+00 -4.30478E-02
    9020.625     22.356   2.880  9.60346E-01  1.01964E+00 -5.92917E-02
    9021.509     23.240   2.920  9.47684E-01  1.01825E+00 -7.05633E-02
    9022.405     24.136   2.960  9.38944E-01  1.01679E+00 -7.78471E-02
    9023.313     25.044   3.000  9.32948E-01  1.01532E+00 -8.23690E-02
    9024.234     25.965   3.040  9.28604E-01  1.01381E+00 -8.52038E-02
    9025.166     26.897   3.080  9.25078E-01  1.01229E+00 -8.72139E-02
    9026.111     27.842   3.120  9.21833E-01  1.01077E+00 -8.89403E-02
    9027.068     28.799   3.160  9.18288E-01  1.00926E+00 -9.09699E-02
    9028.038     29.769   3.200  9.13861E-01  1.00775E+00 -9.38882E-02
    9029.019     30.750   3.240  9.08214E-01  1.00629E+00 -9.80797E-02
    9030.013     31.744   3.280  9.01037E-01  1.00485E+00 -1.03817E-01
    9031.019     32.750   3.320  8.92532E-01  1.00345E+00 -1.10923E-01
    9032.037     33.768   3.360  8.83463E-01  1.00212E+00 -1.18656E-01
    9033.067     34.798   3.400  8.75049E-01  1.00083E+00 -1.25780E-01
    9034.109     35.840   3.440  8.68455E-01  9.99585E-01 -1.31130E-01
    9035.164     36.895   3.480  8.64764E-01  9.98391E-01 -1.33626E-01
    9036.231     37.962   3.520  8.64803E-01  9.97291E-01 -1.32488E-01
    9037.310     39.041   3.560  8.68785E-01  9.96247E-01 -1.27461E-01
    9038.401     40.132   3.600  8.76557E-01  9.95277E-01 -1.18720E-01
    9039.504     41.235   3.640  8.87856E-01  9.94384E-01 -1.06528E-01
    9040.620     42.351   3.680  9.02321E-01  9.93550E-01 -9.12295E-02
    9041.748     43.478   3.720  9.19486E-01  9.92815E-01 -7.33287E-02
    9042.887     44.618   3.760  9.38650E-01  9.92159E-01 -5.35093E-02
    9044.040     45.771   3.800  9.58697E-01  9.91563E-01 -3.28658E-02
    9045.204     46.935   3.840  9.78073E-01  9.91067E-01 -1.29941E-02
    9046.380     48.111   3.880  9.95048E-01  9.90631E-01  4.41696E-03
    9047.569     49.300   3.920  1.00860E+00  9.90298E-01  1.83000E-02
    9048.770     50.501   3.960  1.01850E+00  9.90044E-01  2.84539E-02
    9049.983     51.714   4.000  1.02540E+00  9.89846E-01  3.55529E-02
    9051.208     52.939   4.040  1.03059E+00  9.89727E-01  4.08628E-02
    9052.446     54.177   4.080  1.03551E+00  9.89709E-01  4.58019E-02
    9053.696     55.427   4.120  1.04122E+00  9.89747E-01  5.14709E-02
    9054.957     56.688   4.160  1.04814E+00  9.89858E-01  5.82851E-02
    9056.232     57.963   4.200  1.05551E+00  9.90023E-01  6.54869E-02
    9057.518     59.249   4.240  1.06147E+00  9.90261E-01  7.12063E-02
    9058.816     60.547   4.280  1.06388E+00  9.90573E-01  7.33029E-02
    9060.127     61.858   4.320  1.06141E+00  9.90935E-01  7.04709E-02
    9061.450     63.181   4.360  1.05423E+00  9.91366E-01  6.28680E-02
    9062.785     64.516   4.400  1.04398E+00  9.91842E-01  5.21402E-02
    9064.132     65.863   4.440  1.03313E+00  9.92361E-01  4.07726E-02
    9065.491     67.222   4.480  1.02422E+00  9.92925E-01  3.12933E-02
    9066.863     68.594   4.520  1.01929E+00  9.93550E-01  2.57356E-02
    9068.247     69.978   4.560  1.01956E+00  9.94193E-01  2.53678E-02
    9069.643     71.374   4.600  1.02528E+00  9.94874E-01  3.04027E-02
    9071.051     72.782   4.640  1.03549E+00  9.95590E-01  3.99044E-02
    9072.471     74.202   4.680  1.04834E+00  9.96339E-01  5.20027E-02
    9073.904     75.635   4.720  1.06142E+00  9.97096E-01  6.43195E-02
    9075.349     77.080   4.760  1.07230E+00  9.97860E-01  7.44368E-02
    9076.805     78.536   4.800  1.07900E+00  9.98650E-01  8.03530E-02
    9078.275     80.006   4.840  1.08034E+00  9.99444E-01  8.08928E-02
    9079.756     81.487   4.880  1.07598E+00  1.00024E+00  7.57414E-02
    9081.249     82.980   4.920  1.06631E+00  1.00103E+00  6.52716E-02
    9082.755     84.486   4.960  1.05229E+00  1.00183E+00  5.04663E-02
    9084.273     86.004   5.000  1.03558E+00  1.00261E+00  3.29689E-02
    9085.803     87.534   5.040  1.01825E+00  1.00337E+00  1.48807E-02
    9087.345     89.076   5.080  1.00235E+00  1.00412E+00 -1.77072E-03
    9088.900     90.631   5.120  9.89295E-01  1.00483E+00 -1.55360E-02
    9090.467     92.198   5.160  9.79642E-01  1.00553E+00 -2.58929E-02
    9092.045     93.776   5.200  9.72953E-01  1.00620E+00 -3.32488E-02
    9093.636     95.367   5.240  9.68185E-01  1.00683E+00 -3.86477E-02
    9095.240     96.971   5.280  9.64223E-01  1.00745E+00 -4.32224E-02
    9096.855     98.586   5.320  9.60365E-01  1.00800E+00 -4.76302E-02
    9098.483    100.214   5.360  9.56836E-01  1.00850E+00 -5.16670E-02
    9100.123    101.854   5.400  9.54574E-01  1.00899E+00 -5.44173E-02
    9101.775    103.506   5.440  9.54424E-01  1.00941E+00 -5.49876E-02
    9103.439    105.170   5.480  9.56485E-01  1.00976E+00 -5.32782E-02
    9105.115    106.846   5.520  9.60040E-01  1.01009E+00 -5.00513E-02
    9106.804    108.535   5.560  9.64068E-01  1.01035E+00 -4.62838E-02
    9108.505    110.236   5.600  9.68130E-01  1.01057E+00 -4.24362E-02
    9110.218    111.948   5.640  9.72264E-01  1.01073E+00 -3.84691E-02
    9111.943    113.674   5.680  9.76941E-01  1.01083E+00 -3.38887E-02
    9113.680    115.411   5.720  9.82314E-01  1.01088E+00 -2.85631E-02
    9115.430    117.161   5.760  9.88043E-01  1.01085E+00 -2.28109E-02
    9117.191    118.922   5.800  9.93191E-01  1.01078E+00 -1.75913E-02
    9118.965    120.696   5.840  9.96295E-01  1.01064E+00 -1.43449E-02
    9120.751    122.482   5.880  9.96232E-01  1.01045E+00 -1.42200E-02
    9122.550    124.281   5.920  9.93144E-01  1.01022E+00 -1.70742E-02
    9124.360    126.091   5.960  9.88937E-01  1.00991E+00 -2.09727E-02
    9126.183    127.914   6.000  9.85565E-01  1.00951E+00 -2.39457E-02
