# # comment:                                                     FEFF 9.9.1  
# # Source:
# # Structure
# # Reduced
# # space
# # abc:
# # angles:167.772046
# # sites:
# # POT  SCF 100  7.0000   0, screened core-hole, AFOLP (folp(0)= 1.150)
# # Abs   Z=29 Rmt= 1.169 Rnm= 1.328 K  shell
# # Pot 1 Z= 3 Rmt= 1.249 Rnm= 1.307
# # Pot 2 Z=29 Rmt= 1.242 Rnm= 1.319
# # Pot 3 Z= 8 Rmt= 1.027 Rnm= 1.104
# # Gam_ch=1.729E+00 H-L exch Vi= 0.000E+00 Vr= 0.000E+00
# # Mu=-7.197E+00eV kf=2.125E+00 Vint=-1.624E+01eV Rs_int= 1.707
# FMS rfms= 9.0000
# # PATH  Rmax=-1.000,  Keep_limit= 0.00, Heap_limit 0.00  Pwcrit= 2.50%
#  S02=0.950  Temp=   0.00  Debye_temp=   0.00  Global_sig2= 0.00000
#  Energy zero shift, vr, vi    0.00000E+00   0.00000E+00
#  Curved wave amplitude ratio filter   4.000%
#     file         sig2 tot  cw amp ratio   deg  nlegs   reff  inp sig2
#     0/   0 paths used
#  xsedge+ 50, used to normalize mu           2.4442E-04
#  -----------------------------------------------------------------------
#  omega    e    k    mu    mu0     chi     @#
    8984.114    -11.007  -1.000  4.93349E-02  5.75006E-02 -8.16573E-03
    8984.413    -10.708  -0.960  5.27899E-02  6.17525E-02 -8.96259E-03
    8984.699    -10.422  -0.920  5.66327E-02  6.64823E-02 -9.84952E-03
    8984.974    -10.148  -0.880  6.09227E-02  7.17604E-02 -1.08377E-02
    8985.236     -9.886  -0.840  6.57296E-02  7.76693E-02 -1.19397E-02
    8985.486     -9.636  -0.800  7.11344E-02  8.43043E-02 -1.31699E-02
    8985.723     -9.398  -0.760  7.72307E-02  9.17748E-02 -1.45441E-02
    8985.949     -9.172  -0.720  8.41248E-02  1.00205E-01 -1.60797E-02
    8986.162     -8.959  -0.680  9.19341E-02  1.09730E-01 -1.77955E-02
    8986.364     -8.758  -0.640  1.00784E-01  1.20494E-01 -1.97105E-02
    8986.553     -8.569  -0.600  1.10797E-01  1.32639E-01 -2.18421E-02
    8986.729     -8.392  -0.560  1.22083E-01  1.46286E-01 -2.42034E-02
    8986.894     -8.227  -0.520  1.34709E-01  1.61506E-01 -2.67978E-02
    8987.046     -8.075  -0.480  1.48672E-01  1.78285E-01 -2.96128E-02
    8987.186     -7.935  -0.440  1.63861E-01  1.96474E-01 -3.26123E-02
    8987.315     -7.807  -0.400  1.80024E-01  2.15756E-01 -3.57315E-02
    8987.430     -7.691  -0.360  1.96756E-01  2.35632E-01 -3.88767E-02
    8987.534     -7.587  -0.320  2.13520E-01  2.55454E-01 -4.19344E-02
    8987.625     -7.496  -0.280  2.29713E-01  2.74502E-01 -4.47891E-02
    8987.705     -7.417  -0.240  2.44742E-01  2.92083E-01 -4.73415E-02
    8987.772     -7.350  -0.200  2.58096E-01  3.07619E-01 -4.95225E-02
    8987.827     -7.295  -0.160  2.69392E-01  3.20686E-01 -5.12939E-02
    8987.869     -7.252  -0.120  2.78371E-01  3.31013E-01 -5.26416E-02
    8987.900     -7.222  -0.080  2.84883E-01  3.38452E-01 -5.35691E-02
    8987.924     -7.197   0.000  2.90169E-01  3.44427E-01 -5.42587E-02
    8987.979     -7.142   0.120  3.01613E-01  3.57899E-01 -5.62864E-02
    8988.022     -7.100   0.160  3.10602E-01  3.68365E-01 -5.77632E-02
    8988.076     -7.045   0.200  3.22129E-01  3.81716E-01 -5.95865E-02
    8988.144     -6.978   0.240  3.36083E-01  3.97787E-01 -6.17040E-02
    8988.223     -6.898   0.280  3.52199E-01  4.16233E-01 -6.40338E-02
    8988.314     -6.807   0.320  3.70019E-01  4.36558E-01 -6.65392E-02
    8988.418     -6.703   0.360  3.88932E-01  4.58195E-01 -6.92633E-02
    8988.534     -6.588   0.400  4.07983E-01  4.80496E-01 -7.25132E-02
    8988.662     -6.460   0.440  4.25861E-01  5.02847E-01 -7.69863E-02
    8988.802     -6.319   0.480  4.40898E-01  5.24847E-01 -8.39490E-02
    8988.954     -6.167   0.520  4.51058E-01  5.46171E-01 -9.51129E-02
    8989.119     -6.002   0.560  4.54713E-01  5.66689E-01 -1.11976E-01
    8989.296     -5.826   0.600  4.51715E-01  5.86345E-01 -1.34631E-01
    8989.485     -5.637   0.640  4.44374E-01  6.05201E-01 -1.60828E-01
    8989.686     -5.435   0.680  4.37049E-01  6.23358E-01 -1.86309E-01
    8989.899     -5.222   0.720  4.34569E-01  6.40892E-01 -2.06323E-01
    8990.125     -4.997   0.760  4.40608E-01  6.57896E-01 -2.17288E-01
    8990.362     -4.759   0.800  4.56779E-01  6.74455E-01 -2.17676E-01
    8990.612     -4.509   0.840  4.82093E-01  6.90640E-01 -2.08546E-01
    8990.875     -4.247   0.880  5.12629E-01  7.06504E-01 -1.93875E-01
    8991.149     -3.972   0.920  5.42134E-01  7.22109E-01 -1.79974E-01
    8991.435     -3.686   0.960  5.65018E-01  7.37441E-01 -1.72423E-01
    8991.734     -3.387   1.000  5.80948E-01  7.52515E-01 -1.71567E-01
    8992.045     -3.076   1.040  5.94743E-01  7.67360E-01 -1.72616E-01
    8992.368     -2.753   1.080  6.10570E-01  7.81952E-01 -1.71382E-01
    8992.703     -2.418   1.120  6.27543E-01  7.96283E-01 -1.68740E-01
    8993.051     -2.070   1.160  6.39707E-01  8.10317E-01 -1.70610E-01
    8993.410     -1.711   1.200  6.39641E-01  8.24059E-01 -1.84418E-01
    8993.782     -1.339   1.240  6.25479E-01  8.37487E-01 -2.12008E-01
    8994.166     -0.955   1.280  6.04516E-01  8.50557E-01 -2.46041E-01
    8994.563     -0.559   1.320  5.86840E-01  8.63244E-01 -2.76404E-01
    8994.971     -0.150   1.360  5.77258E-01  8.75542E-01 -2.98285E-01
    8995.392      0.270   1.400  5.74084E-01  8.87426E-01 -3.13342E-01
    8995.824      0.703   1.440  5.74896E-01  8.98847E-01 -3.23951E-01
    8996.269      1.148   1.480  5.81394E-01  9.09820E-01 -3.28426E-01
    8996.727      1.605   1.520  5.98019E-01  9.20300E-01 -3.22280E-01
    8997.196      2.075   1.560  6.29353E-01  9.30281E-01 -3.00928E-01
    8997.678      2.556   1.600  6.81327E-01  9.39742E-01 -2.58415E-01
    8998.171      3.050   1.640  7.62889E-01  9.48698E-01 -1.85808E-01
    8998.677      3.556   1.680  8.80076E-01  9.57129E-01 -7.70522E-02
    8999.196      4.074   1.720  1.02011E+00  9.65034E-01  5.50737E-02
    8999.726      4.605   1.760  1.14616E+00  9.72395E-01  1.73766E-01
    9000.268      5.147   1.800  1.23055E+00  9.79235E-01  2.51318E-01
    9000.823      5.702   1.840  1.27633E+00  9.85556E-01  2.90771E-01
    9001.390      6.269   1.880  1.29964E+00  9.91365E-01  3.08270E-01
    9001.969      6.848   1.920  1.32254E+00  9.96667E-01  3.25876E-01
    9002.561      7.439   1.960  1.37411E+00  1.00147E+00  3.72643E-01
    9003.164      8.043   2.000  1.45508E+00  1.00577E+00  4.49307E-01
    9003.780      8.658   2.040  1.51900E+00  1.00964E+00  5.09360E-01
    9004.408      9.286   2.080  1.52445E+00  1.01305E+00  5.11403E-01
    9005.048      9.926   2.120  1.48735E+00  1.01603E+00  4.71322E-01
    9005.700     10.579   2.160  1.44119E+00  1.01860E+00  4.22589E-01
    9006.364     11.243   2.200  1.37336E+00  1.02079E+00  3.52575E-01
    9007.041     11.920   2.240  1.28258E+00  1.02260E+00  2.59976E-01
    9007.730     12.609   2.280  1.20689E+00  1.02407E+00  1.82817E-01
    9008.431     13.310   2.320  1.13472E+00  1.02522E+00  1.09500E-01
    9009.144     14.023   2.360  1.03771E+00  1.02604E+00  1.16782E-02
    9009.870     14.748   2.400  9.31582E-01  1.02659E+00 -9.50077E-02
    9010.607     15.486   2.440  8.43985E-01  1.02689E+00 -1.82902E-01
    9011.357     16.236   2.480  7.92481E-01  1.02694E+00 -2.34456E-01
    9012.119     16.998   2.520  7.78955E-01  1.02675E+00 -2.47795E-01
    9012.893     17.772   2.560  8.05270E-01  1.02638E+00 -2.21110E-01
    9013.680     18.558   2.600  8.40872E-01  1.02584E+00 -1.84963E-01
    9014.478     19.357   2.640  8.79899E-01  1.02510E+00 -1.45205E-01
    9015.289     20.168   2.680  9.20638E-01  1.02424E+00 -1.03600E-01
    9016.112     20.991   2.720  9.63180E-01  1.02327E+00 -6.00860E-02
    9016.947     21.826   2.760  1.00653E+00  1.02215E+00 -1.56286E-02
    9017.794     22.673   2.800  1.04895E+00  1.02097E+00  2.79716E-02
    9018.654     23.533   2.840  1.08767E+00  1.01969E+00  6.79824E-02
    9019.526     24.404   2.880  1.11955E+00  1.01835E+00  1.01200E-01
    9020.410     25.288   2.920  1.14257E+00  1.01697E+00  1.25602E-01
    9021.306     26.184   2.960  1.15516E+00  1.01554E+00  1.39617E-01
    9022.214     27.093   3.000  1.15574E+00  1.01410E+00  1.41640E-01
    9023.134     28.013   3.040  1.14307E+00  1.01263E+00  1.30439E-01
    9024.067     28.946   3.080  1.11779E+00  1.01116E+00  1.06631E-01
    9025.012     29.891   3.120  1.08379E+00  1.00969E+00  7.40973E-02
    9025.969     30.848   3.160  1.04664E+00  1.00825E+00  3.83929E-02
    9026.938     31.817   3.200  1.01036E+00  1.00684E+00  3.52734E-03
    9027.920     32.798   3.240  9.77507E-01  1.00544E+00 -2.79303E-02
    9028.913     33.792   3.280  9.49286E-01  1.00408E+00 -5.47909E-02
    9029.919     34.798   3.320  9.25980E-01  1.00276E+00 -7.67785E-02
    9030.937     35.816   3.360  9.07328E-01  1.00151E+00 -9.41781E-02
    9031.968     36.846   3.400  8.92967E-01  1.00030E+00 -1.07333E-01
    9033.010     37.889   3.440  8.82287E-01  9.99166E-01 -1.16879E-01
    9034.065     38.943   3.480  8.74754E-01  9.98083E-01 -1.23328E-01
    9035.131     40.010   3.520  8.69902E-01  9.97073E-01 -1.27171E-01
    9036.210     41.089   3.560  8.67290E-01  9.96116E-01 -1.28827E-01
    9037.301     42.180   3.600  8.66783E-01  9.95257E-01 -1.28474E-01
    9038.405     43.284   3.640  8.68596E-01  9.94457E-01 -1.25860E-01
    9039.520     44.399   3.680  8.73265E-01  9.93737E-01 -1.20472E-01
    9040.648     45.527   3.720  8.81047E-01  9.93116E-01 -1.12069E-01
    9041.788     46.667   3.760  8.91716E-01  9.92554E-01 -1.00838E-01
    9042.940     47.819   3.800  9.04834E-01  9.92072E-01 -8.72384E-02
    9044.105     48.983   3.840  9.19976E-01  9.91671E-01 -7.16950E-02
    9045.281     50.160   3.880  9.36895E-01  9.91373E-01 -5.44780E-02
    9046.470     51.349   3.920  9.55254E-01  9.91132E-01 -3.58788E-02
    9047.671     52.549   3.960  9.74321E-01  9.90972E-01 -1.66515E-02
    9048.884     53.763   4.000  9.92882E-01  9.90890E-01  1.99211E-03
    9050.109     54.988   4.040  1.00979E+00  9.90885E-01  1.89017E-02
    9051.347     56.225   4.080  1.02451E+00  9.90959E-01  3.35512E-02
    9052.596     57.475   4.120  1.03716E+00  9.91089E-01  4.60713E-02
    9053.858     58.737   4.160  1.04826E+00  9.91315E-01  5.69463E-02
    9055.132     60.011   4.200  1.05813E+00  9.91593E-01  6.65342E-02
    9056.418     61.297   4.240  1.06691E+00  9.91922E-01  7.49924E-02
    9057.717     62.596   4.280  1.07479E+00  9.92323E-01  8.24712E-02
    9059.028     63.906   4.320  1.08192E+00  9.92796E-01  8.91248E-02
    9060.350     65.229   4.360  1.08827E+00  9.93314E-01  9.49537E-02
    9061.685     66.564   4.400  1.09356E+00  9.93876E-01  9.96857E-02
    9063.033     67.911   4.440  1.09736E+00  9.94482E-01  1.02878E-01
    9064.392     69.271   4.480  1.09895E+00  9.95128E-01  1.03823E-01
    9065.764     70.642   4.520  1.09726E+00  9.95837E-01  1.01426E-01
    9067.147     72.026   4.560  1.09090E+00  9.96563E-01  9.43365E-02
    9068.543     73.422   4.600  1.07892E+00  9.97324E-01  8.15922E-02
    9069.952     74.830   4.640  1.06155E+00  9.98118E-01  6.34273E-02
    9071.372     76.251   4.680  1.04056E+00  9.98920E-01  4.16410E-02
    9072.804     77.683   4.720  1.01867E+00  9.99728E-01  1.89452E-02
    9074.249     79.128   4.760  9.98378E-01  1.00057E+00 -2.18682E-03
    9075.706     80.585   4.800  9.81151E-01  1.00141E+00 -2.02569E-02
    9077.175     82.054   4.840  9.67483E-01  1.00227E+00 -3.47899E-02
    9078.657     83.535   4.880  9.57181E-01  1.00312E+00 -4.59342E-02
    9080.150     85.029   4.920  9.49869E-01  1.00395E+00 -5.40853E-02
    9081.656     86.535   4.960  9.45070E-01  1.00479E+00 -5.97176E-02
    9083.174     88.052   5.000  9.42314E-01  1.00559E+00 -6.32786E-02
    9084.704     89.582   5.040  9.41438E-01  1.00641E+00 -6.49718E-02
    9086.246     91.125   5.080  9.42496E-01  1.00717E+00 -6.46777E-02
    9087.801     92.679   5.120  9.45796E-01  1.00792E+00 -6.21275E-02
    9089.367     94.246   5.160  9.51421E-01  1.00864E+00 -5.72167E-02
    9090.946     95.825   5.200  9.59229E-01  1.00934E+00 -5.01081E-02
    9092.537     97.416   5.240  9.68886E-01  1.00998E+00 -4.10897E-02
    9094.140     99.019   5.280  9.80122E-01  1.01059E+00 -3.04724E-02
    9095.756    100.634   5.320  9.92621E-01  1.01115E+00 -1.85270E-02
    9097.383    102.262   5.360  1.00622E+00  1.01168E+00 -5.46294E-03
    9099.023    103.902   5.400  1.02073E+00  1.01215E+00  8.58667E-03
    9100.675    105.554   5.440  1.03618E+00  1.01257E+00  2.36125E-02
    9102.339    107.218   5.480  1.05264E+00  1.01292E+00  3.97198E-02
    9104.016    108.895   5.520  1.06991E+00  1.01324E+00  5.66642E-02
    9105.704    110.583   5.560  1.08651E+00  1.01350E+00  7.30160E-02
    9107.405    112.284   5.600  1.09960E+00  1.01368E+00  8.59154E-02
    9109.118    113.997   5.640  1.10593E+00  1.01381E+00  9.21199E-02
    9110.843    115.722   5.680  1.10374E+00  1.01390E+00  8.98359E-02
    9112.581    117.459   5.720  1.09362E+00  1.01391E+00  7.97102E-02
    9114.330    119.209   5.760  1.07828E+00  1.01385E+00  6.44257E-02
    9116.092    120.971   5.800  1.06128E+00  1.01374E+00  4.75348E-02
    9117.866    122.745   5.840  1.04550E+00  1.01359E+00  3.19114E-02
    9119.652    124.531   5.880  1.03185E+00  1.01337E+00  1.84816E-02
    9121.450    126.329   5.920  1.01926E+00  1.01309E+00  6.16319E-03
    9123.261    128.140   5.960  1.00591E+00  1.01275E+00 -6.84032E-03
    9125.084    129.962   6.000  9.90482E-01  1.01231E+00 -2.18244E-02
