# # comment:                                                     FEFF 9.9.1  
# # Source:
# # Structure
# # Reduced
# # space
# # abc:
# # angles:
# # sites:
# # POT  SCF 100  7.0000   0, screened core-hole, AFOLP (folp(0)= 1.150)
# # Abs   Z=29 Rmt= 1.164 Rnm= 1.292 K  shell
# # Pot 1 Z=29 Rmt= 1.164 Rnm= 1.292
# # Pot 2 Z=15 Rmt= 0.905 Rnm= 1.155
# # Pot 3 Z= 8 Rmt= 1.018 Rnm= 1.123
# # Gam_ch=1.729E+00 H-L exch Vi= 0.000E+00 Vr= 0.000E+00
# # Mu=-7.098E+00eV kf=2.272E+00 Vint=-1.507E+01eV Rs_int= 1.596
# FMS rfms= 9.0000
# # PATH  Rmax=-1.000,  Keep_limit= 0.00, Heap_limit 0.00  Pwcrit= 2.50%
#  S02=0.950  Temp=   0.00  Debye_temp=   0.00  Global_sig2= 0.00000
#  Energy zero shift, vr, vi    0.00000E+00   0.00000E+00
#  Curved wave amplitude ratio filter   4.000%
#     file         sig2 tot  cw amp ratio   deg  nlegs   reff  inp sig2
#     0/   0 paths used
#  xsedge+ 50, used to normalize mu           2.4413E-04
#  -----------------------------------------------------------------------
#  omega    e    k    mu    mu0     chi     @#
    8983.434    -10.908  -1.000  3.34810E-02  5.52619E-02 -2.17809E-02
    8983.733    -10.609  -0.960  3.49524E-02  5.92620E-02 -2.43096E-02
    8984.019    -10.323  -0.920  3.65057E-02  6.37031E-02 -2.71974E-02
    8984.293    -10.048  -0.880  3.81470E-02  6.86496E-02 -3.05026E-02
    8984.555     -9.786  -0.840  3.98832E-02  7.41764E-02 -3.42932E-02
    8984.805     -9.536  -0.800  4.17222E-02  8.03701E-02 -3.86480E-02
    8985.043     -9.299  -0.760  4.36725E-02  8.73302E-02 -4.36576E-02
    8985.269     -9.073  -0.720  4.57438E-02  9.51686E-02 -4.94248E-02
    8985.482     -8.860  -0.680  4.79462E-02  1.04009E-01 -5.60626E-02
    8985.683     -8.659  -0.640  5.02897E-02  1.13981E-01 -6.36911E-02
    8985.872     -8.470  -0.600  5.27834E-02  1.25212E-01 -7.24288E-02
    8986.049     -8.293  -0.560  5.54326E-02  1.37811E-01 -8.23789E-02
    8986.214     -8.128  -0.520  5.82360E-02  1.51843E-01 -9.36068E-02
    8986.366     -7.976  -0.480  6.11806E-02  1.67291E-01 -1.06110E-01
    8986.506     -7.836  -0.440  6.42365E-02  1.84020E-01 -1.19784E-01
    8986.634     -7.708  -0.400  6.73531E-02  2.01742E-01 -1.34389E-01
    8986.750     -7.592  -0.360  7.04582E-02  2.20000E-01 -1.49542E-01
    8986.854     -7.488  -0.320  7.34646E-02  2.38206E-01 -1.64742E-01
    8986.945     -7.397  -0.280  7.62809E-02  2.55703E-01 -1.79422E-01
    8987.024     -7.317  -0.240  7.88259E-02  2.71858E-01 -1.93032E-01
    8987.091     -7.250  -0.200  8.10380E-02  2.86140E-01 -2.05102E-01
    8987.146     -7.196  -0.160  8.28778E-02  2.98161E-01 -2.15283E-01
    8987.189     -7.153  -0.120  8.43247E-02  3.07669E-01 -2.23344E-01
    8987.219     -7.122  -0.080  8.53690E-02  3.14522E-01 -2.29152E-01
    8987.244     -7.098   0.000  8.62253E-02  3.20030E-01 -2.33805E-01
    8987.299     -7.043   0.120  8.81779E-02  3.32439E-01 -2.44261E-01
    8987.341     -7.000   0.160  8.96404E-02  3.42115E-01 -2.52474E-01
    8987.396     -6.946   0.200  9.14390E-02  3.54456E-01 -2.63017E-01
    8987.463     -6.879   0.240  9.35589E-02  3.69325E-01 -2.75767E-01
    8987.543     -6.799   0.280  9.59757E-02  3.86443E-01 -2.90467E-01
    8987.634     -6.708   0.320  9.86442E-02  4.05372E-01 -3.06728E-01
    8987.738     -6.604   0.360  1.01579E-01  4.25616E-01 -3.24037E-01
    8987.853     -6.488   0.400  1.04787E-01  4.46558E-01 -3.41771E-01
    8987.981     -6.360   0.440  1.08435E-01  4.67736E-01 -3.59301E-01
    8988.122     -6.220   0.480  1.12732E-01  4.88734E-01 -3.76002E-01
    8988.274     -6.068   0.520  1.17892E-01  5.09264E-01 -3.91372E-01
    8988.439     -5.903   0.560  1.24279E-01  5.29228E-01 -4.04949E-01
    8988.615     -5.726   0.600  1.32231E-01  5.48572E-01 -4.16342E-01
    8988.804     -5.537   0.640  1.42161E-01  5.67350E-01 -4.25189E-01
    8989.006     -5.336   0.680  1.54492E-01  5.85649E-01 -4.31157E-01
    8989.219     -5.123   0.720  1.69645E-01  6.03508E-01 -4.33863E-01
    8989.444     -4.897   0.760  1.88154E-01  6.21026E-01 -4.32873E-01
    8989.682     -4.660   0.800  2.10503E-01  6.38272E-01 -4.27769E-01
    8989.932     -4.410   0.840  2.37200E-01  6.55280E-01 -4.18080E-01
    8990.194     -4.148   0.880  2.68964E-01  6.72111E-01 -4.03147E-01
    8990.469     -3.873   0.920  3.06563E-01  6.88794E-01 -3.82231E-01
    8990.755     -3.587   0.960  3.49587E-01  7.05304E-01 -3.55716E-01
    8991.054     -3.288   1.000  3.94871E-01  7.21644E-01 -3.26773E-01
    8991.365     -2.977   1.040  4.36594E-01  7.37833E-01 -3.01239E-01
    8991.688     -2.654   1.080  4.69924E-01  7.53838E-01 -2.83915E-01
    8992.023     -2.319   1.120  4.94896E-01  7.69602E-01 -2.74707E-01
    8992.371     -1.971   1.160  5.16691E-01  7.85145E-01 -2.68453E-01
    8992.730     -1.612   1.200  5.41889E-01  8.00418E-01 -2.58530E-01
    8993.102     -1.240   1.240  5.71697E-01  8.15354E-01 -2.43657E-01
    8993.486     -0.856   1.280  6.00231E-01  8.29963E-01 -2.29732E-01
    8993.882     -0.460   1.320  6.21616E-01  8.44196E-01 -2.22580E-01
    8994.291     -0.051   1.360  6.36115E-01  8.58018E-01 -2.21903E-01
    8994.711      0.370   1.400  6.51369E-01  8.71378E-01 -2.20010E-01
    8995.144      0.802   1.440  6.70395E-01  8.84265E-01 -2.13870E-01
    8995.589      1.247   1.480  6.85729E-01  8.96648E-01 -2.10919E-01
    8996.046      1.705   1.520  6.98206E-01  9.08498E-01 -2.10292E-01
    8996.516      2.174   1.560  7.22414E-01  9.19806E-01 -1.97393E-01
    8996.997      2.656   1.600  7.66858E-01  9.30547E-01 -1.63689E-01
    8997.491      3.149   1.640  8.23467E-01  9.40694E-01 -1.17227E-01
    8997.997      3.655   1.680  8.77918E-01  9.50267E-01 -7.23485E-02
    8998.515      4.173   1.720  9.28350E-01  9.59241E-01 -3.08906E-02
    8999.046      4.704   1.760  9.83992E-01  9.67596E-01  1.63962E-02
    8999.588      5.246   1.800  1.05404E+00  9.75376E-01  7.86668E-02
    9000.143      5.801   1.840  1.14020E+00  9.82543E-01  1.57658E-01
    9000.710      6.368   1.880  1.21985E+00  9.89143E-01  2.30707E-01
    9001.289      6.947   1.920  1.27049E+00  9.95160E-01  2.75326E-01
    9001.880      7.538   1.960  1.30141E+00  1.00060E+00  3.00809E-01
    9002.484      8.142   2.000  1.31722E+00  1.00552E+00  3.11695E-01
    9003.099      8.758   2.040  1.30903E+00  1.00990E+00  2.99129E-01
    9003.727      9.385   2.080  1.28614E+00  1.01376E+00  2.72375E-01
    9004.367     10.026   2.120  1.27438E+00  1.01714E+00  2.57237E-01
    9005.020     10.678   2.160  1.27840E+00  1.02007E+00  2.58338E-01
    9005.684     11.342   2.200  1.28214E+00  1.02256E+00  2.59579E-01
    9006.361     12.019   2.240  1.28518E+00  1.02461E+00  2.60570E-01
    9007.050     12.708   2.280  1.29071E+00  1.02629E+00  2.64425E-01
    9007.751     13.409   2.320  1.28485E+00  1.02761E+00  2.57248E-01
    9008.464     14.122   2.360  1.25939E+00  1.02855E+00  2.30842E-01
    9009.189     14.847   2.400  1.22385E+00  1.02920E+00  1.94652E-01
    9009.927     15.585   2.440  1.19072E+00  1.02954E+00  1.61179E-01
    9010.677     16.335   2.480  1.16742E+00  1.02962E+00  1.37800E-01
    9011.439     17.097   2.520  1.15383E+00  1.02946E+00  1.24368E-01
    9012.213     17.871   2.560  1.14255E+00  1.02905E+00  1.13493E-01
    9012.999     18.657   2.600  1.12775E+00  1.02846E+00  9.92888E-02
    9013.798     19.456   2.640  1.11130E+00  1.02768E+00  8.36221E-02
    9014.609     20.267   2.680  1.09539E+00  1.02675E+00  6.86405E-02
    9015.432     21.090   2.720  1.08246E+00  1.02567E+00  5.67917E-02
    9016.267     21.925   2.760  1.07427E+00  1.02449E+00  4.97779E-02
    9017.114     22.772   2.800  1.06906E+00  1.02317E+00  4.58889E-02
    9017.974     23.632   2.840  1.06350E+00  1.02179E+00  4.17171E-02
    9018.845     24.504   2.880  1.05436E+00  1.02035E+00  3.40153E-02
    9019.729     25.387   2.920  1.04021E+00  1.01884E+00  2.13733E-02
    9020.625     26.284   2.960  1.02201E+00  1.01728E+00  4.72154E-03
    9021.534     27.192   3.000  1.00185E+00  1.01569E+00 -1.38447E-02
    9022.454     28.112   3.040  9.81562E-01  1.01410E+00 -3.25347E-02
    9023.387     29.045   3.080  9.62577E-01  1.01252E+00 -4.99409E-02
    9024.332     29.990   3.120  9.45413E-01  1.01092E+00 -6.55089E-02
    9025.289     30.947   3.160  9.29796E-01  1.00935E+00 -7.95568E-02
    9026.258     31.916   3.200  9.15408E-01  1.00779E+00 -9.23868E-02
    9027.240     32.898   3.240  9.02222E-01  1.00629E+00 -1.04071E-01
    9028.233     33.891   3.280  8.90171E-01  1.00481E+00 -1.14641E-01
    9029.239     34.897   3.320  8.79581E-01  1.00340E+00 -1.23816E-01
    9030.257     35.915   3.360  8.71097E-01  1.00203E+00 -1.30932E-01
    9031.287     36.945   3.400  8.65222E-01  1.00073E+00 -1.35510E-01
    9032.330     37.988   3.440  8.62228E-01  9.99487E-01 -1.37259E-01
    9033.384     39.042   3.480  8.62107E-01  9.98317E-01 -1.36211E-01
    9034.451     40.109   3.520  8.64494E-01  9.97225E-01 -1.32732E-01
    9035.530     41.188   3.560  8.68730E-01  9.96213E-01 -1.27483E-01
    9036.621     42.279   3.600  8.74284E-01  9.95282E-01 -1.20998E-01
    9037.725     43.383   3.640  8.80834E-01  9.94432E-01 -1.13598E-01
    9038.840     44.498   3.680  8.88162E-01  9.93662E-01 -1.05500E-01
    9039.968     45.626   3.720  8.96128E-01  9.92977E-01 -9.68493E-02
    9041.108     46.766   3.760  9.04649E-01  9.92398E-01 -8.77490E-02
    9042.260     47.918   3.800  9.13554E-01  9.91881E-01 -7.83277E-02
    9043.424     49.082   3.840  9.22736E-01  9.91470E-01 -6.87339E-02
    9044.601     50.259   3.880  9.32204E-01  9.91141E-01 -5.89365E-02
    9045.790     51.448   3.920  9.42123E-01  9.90896E-01 -4.87723E-02
    9046.990     52.649   3.960  9.52723E-01  9.90732E-01 -3.80091E-02
    9048.204     53.862   4.000  9.64235E-01  9.90650E-01 -2.64152E-02
    9049.429     55.087   4.040  9.76850E-01  9.90649E-01 -1.37990E-02
    9050.666     56.324   4.080  9.90547E-01  9.90730E-01 -1.82836E-04
    9051.916     57.574   4.120  1.00507E+00  9.90890E-01  1.41812E-02
    9053.178     58.836   4.160  1.02001E+00  9.91129E-01  2.88768E-02
    9054.452     60.110   4.200  1.03480E+00  9.91448E-01  4.33565E-02
    9055.738     61.396   4.240  1.04881E+00  9.91841E-01  5.69720E-02
    9057.037     62.695   4.280  1.06139E+00  9.92285E-01  6.91018E-02
    9058.347     64.005   4.320  1.07201E+00  9.92779E-01  7.92294E-02
    9059.670     65.328   4.360  1.08041E+00  9.93366E-01  8.70402E-02
    9061.005     66.663   4.400  1.08651E+00  9.93979E-01  9.25267E-02
    9062.352     68.010   4.440  1.09050E+00  9.94659E-01  9.58376E-02
    9063.712     69.370   4.480  1.09243E+00  9.95382E-01  9.70432E-02
    9065.083     70.741   4.520  1.09228E+00  9.96147E-01  9.61307E-02
    9066.467     72.125   4.560  1.09008E+00  9.96951E-01  9.31285E-02
    9067.863     73.521   4.600  1.08601E+00  9.97790E-01  8.82167E-02
    9069.271     74.929   4.640  1.08040E+00  9.98644E-01  8.17589E-02
    9070.692     76.350   4.680  1.07393E+00  9.99552E-01  7.43732E-02
    9072.124     77.782   4.720  1.06701E+00  1.00045E+00  6.65646E-02
    9073.569     79.227   4.760  1.06010E+00  1.00137E+00  5.87271E-02
    9075.026     80.684   4.800  1.05348E+00  1.00230E+00  5.11889E-02
    9076.495     82.153   4.840  1.04750E+00  1.00325E+00  4.42590E-02
    9077.976     83.634   4.880  1.04239E+00  1.00417E+00  3.82173E-02
    9079.470     85.128   4.920  1.03827E+00  1.00510E+00  3.31685E-02
    9080.976     86.634   4.960  1.03489E+00  1.00604E+00  2.88474E-02
    9082.493     88.152   5.000  1.03163E+00  1.00693E+00  2.47008E-02
    9084.024     89.682   5.040  1.02788E+00  1.00781E+00  2.00648E-02
    9085.566     91.224   5.080  1.02309E+00  1.00869E+00  1.44002E-02
    9087.120     92.778   5.120  1.01699E+00  1.00952E+00  7.46911E-03
    9088.687     94.345   5.160  1.00979E+00  1.01035E+00 -5.50952E-04
    9090.266     95.924   5.200  1.00203E+00  1.01111E+00 -9.07230E-03
    9091.857     97.515   5.240  9.94491E-01  1.01182E+00 -1.73333E-02
    9093.460     99.118   5.280  9.87867E-01  1.01252E+00 -2.46554E-02
    9095.076    100.734   5.320  9.82535E-01  1.01316E+00 -3.06209E-02
    9096.703    102.361   5.360  9.78688E-01  1.01374E+00 -3.50554E-02
    9098.343    104.001   5.400  9.76229E-01  1.01428E+00 -3.80559E-02
    9099.995    105.653   5.440  9.74818E-01  1.01475E+00 -3.99367E-02
    9101.659    107.317   5.480  9.74046E-01  1.01518E+00 -4.11319E-02
    9103.336    108.994   5.520  9.73508E-01  1.01555E+00 -4.20442E-02
    9105.024    110.682   5.560  9.72836E-01  1.01585E+00 -4.30184E-02
    9106.725    112.383   5.600  9.71880E-01  1.01611E+00 -4.42247E-02
    9108.438    114.096   5.640  9.70685E-01  1.01628E+00 -4.55967E-02
    9110.163    115.821   5.680  9.69495E-01  1.01638E+00 -4.68887E-02
    9111.900    117.559   5.720  9.68603E-01  1.01643E+00 -4.78314E-02
    9113.650    119.308   5.760  9.68233E-01  1.01641E+00 -4.81789E-02
    9115.412    121.070   5.800  9.68561E-01  1.01634E+00 -4.77775E-02
    9117.186    122.844   5.840  9.69587E-01  1.01619E+00 -4.66041E-02
    9118.972    124.630   5.880  9.71196E-01  1.01597E+00 -4.47750E-02
    9120.770    126.428   5.920  9.73262E-01  1.01570E+00 -4.24418E-02
    9122.581    128.239   5.960  9.75735E-01  1.01538E+00 -3.96469E-02
    9124.403    130.061   6.000  9.78895E-01  1.01494E+00 -3.60432E-02
