# # comment:                                                     FEFF 9.9.1  
# # Source:
# # Structure
# # Reduced
# # space
# # abc:
# # angles:
# # sites:
# # POT  SCF 100  7.0000   0, screened core-hole, AFOLP (folp(0)= 1.150)
# # Abs   Z=29 Rmt= 1.268 Rnm= 1.373 K  shell
# # Pot 1 Z=29 Rmt= 1.268 Rnm= 1.373
# # Pot 2 Z= 1 Rmt= 0.831 Rnm= 0.958
# # Pot 3 Z= 7 Rmt= 1.035 Rnm= 1.215
# # Pot 4 Z= 8 Rmt= 0.739 Rnm= 1.006
# # Gam_ch=1.729E+00 H-L exch Vi= 0.000E+00 Vr= 0.000E+00
# # Mu=-7.356E+00eV kf=2.374E+00 Vint=-1.427E+01eV Rs_int= 1.527
# FMS rfms= 9.0000
# # PATH  Rmax=-1.000,  Keep_limit= 0.00, Heap_limit 0.00  Pwcrit= 2.50%
#  S02=0.950  Temp=   0.00  Debye_temp=   0.00  Global_sig2= 0.00000
#  Energy zero shift, vr, vi    0.00000E+00   0.00000E+00
#  Curved wave amplitude ratio filter   4.000%
#     file         sig2 tot  cw amp ratio   deg  nlegs   reff  inp sig2
#     0/   0 paths used
#  xsedge+ 50, used to normalize mu           2.4509E-04
#  -----------------------------------------------------------------------
#  omega    e    k    mu    mu0     chi     @#
    8983.235    -11.166  -1.000  3.48051E-02  5.26468E-02 -1.78417E-02
    8983.534    -10.868  -0.960  3.64122E-02  5.63904E-02 -1.99782E-02
    8983.820    -10.581  -0.920  3.81134E-02  6.05402E-02 -2.24268E-02
    8984.095    -10.307  -0.880  3.99154E-02  6.51547E-02 -2.52393E-02
    8984.357    -10.045  -0.840  4.18253E-02  7.03021E-02 -2.84768E-02
    8984.607     -9.795  -0.800  4.38505E-02  7.60608E-02 -3.22104E-02
    8984.845     -9.557  -0.760  4.59988E-02  8.25211E-02 -3.65223E-02
    8985.070     -9.332  -0.720  4.82782E-02  8.97844E-02 -4.15062E-02
    8985.283     -9.118  -0.680  5.06963E-02  9.79621E-02 -4.72658E-02
    8985.485     -8.917  -0.640  5.32598E-02  1.07172E-01 -5.39119E-02
    8985.674     -8.728  -0.600  5.59736E-02  1.17528E-01 -6.15544E-02
    8985.850     -8.551  -0.560  5.88389E-02  1.29129E-01 -7.02897E-02
    8986.015     -8.387  -0.520  6.18507E-02  1.42030E-01 -8.01796E-02
    8986.167     -8.234  -0.480  6.49953E-02  1.56218E-01 -9.12229E-02
    8986.308     -8.094  -0.440  6.82465E-02  1.71568E-01 -1.03322E-01
    8986.436     -7.966  -0.400  7.15625E-02  1.87818E-01 -1.16255E-01
    8986.551     -7.850  -0.360  7.48855E-02  2.04553E-01 -1.29667E-01
    8986.655     -7.747  -0.320  7.81438E-02  2.21237E-01 -1.43093E-01
    8986.746     -7.655  -0.280  8.12570E-02  2.37274E-01 -1.56017E-01
    8986.826     -7.576  -0.240  8.41438E-02  2.52087E-01 -1.67943E-01
    8986.893     -7.509  -0.200  8.67286E-02  2.65191E-01 -1.78463E-01
    8986.948     -7.454  -0.160  8.89455E-02  2.76227E-01 -1.87282E-01
    8986.990     -7.411  -0.120  9.07404E-02  2.84961E-01 -1.94221E-01
    8987.021     -7.381  -0.080  9.20705E-02  2.91260E-01 -1.99190E-01
    8987.045     -7.356   0.000  9.31950E-02  2.96326E-01 -2.03131E-01
    8987.100     -7.302   0.120  9.57598E-02  3.07762E-01 -2.12002E-01
    8987.143     -7.259   0.160  9.77219E-02  3.16663E-01 -2.18941E-01
    8987.198     -7.204   0.200  1.00256E-01  3.28045E-01 -2.27789E-01
    8987.265     -7.137   0.240  1.03433E-01  3.41797E-01 -2.38364E-01
    8987.344     -7.058   0.280  1.07259E-01  3.57657E-01 -2.50398E-01
    8987.435     -6.966   0.320  1.11778E-01  3.75242E-01 -2.63464E-01
    8987.539     -6.863   0.360  1.17070E-01  3.94121E-01 -2.77051E-01
    8987.655     -6.747   0.400  1.23122E-01  4.13764E-01 -2.90642E-01
    8987.783     -6.619   0.440  1.30043E-01  4.33748E-01 -3.03705E-01
    8987.923     -6.479   0.480  1.37839E-01  4.53706E-01 -3.15868E-01
    8988.075     -6.326   0.520  1.46566E-01  4.73417E-01 -3.26851E-01
    8988.240     -6.162   0.560  1.56330E-01  4.92734E-01 -3.36404E-01
    8988.417     -5.985   0.600  1.67402E-01  5.11624E-01 -3.44222E-01
    8988.606     -5.796   0.640  1.80362E-01  5.30152E-01 -3.49790E-01
    8988.807     -5.595   0.680  1.95926E-01  5.48351E-01 -3.52425E-01
    8989.020     -5.381   0.720  2.14911E-01  5.66264E-01 -3.51353E-01
    8989.246     -5.156   0.760  2.38001E-01  5.83994E-01 -3.45993E-01
    8989.484     -4.918   0.800  2.65429E-01  6.01532E-01 -3.36103E-01
    8989.733     -4.668   0.840  2.97168E-01  6.18959E-01 -3.21792E-01
    8989.996     -4.406   0.880  3.32905E-01  6.36282E-01 -3.03377E-01
    8990.270     -4.132   0.920  3.71644E-01  6.53474E-01 -2.81830E-01
    8990.556     -3.845   0.960  4.10739E-01  6.70582E-01 -2.59842E-01
    8990.855     -3.546   1.000  4.45836E-01  6.87558E-01 -2.41722E-01
    8991.166     -3.236   1.040  4.73028E-01  7.04369E-01 -2.31341E-01
    8991.489     -2.913   1.080  4.91070E-01  7.21016E-01 -2.29946E-01
    8991.824     -2.577   1.120  5.00461E-01  7.37434E-01 -2.36974E-01
    8992.172     -2.230   1.160  5.04013E-01  7.53615E-01 -2.49602E-01
    8992.532     -1.870   1.200  5.07913E-01  7.69466E-01 -2.61553E-01
    8992.903     -1.498   1.240  5.18198E-01  7.84993E-01 -2.66795E-01
    8993.287     -1.114   1.280  5.37046E-01  8.00143E-01 -2.63097E-01
    8993.684     -0.718   1.320  5.61922E-01  8.14862E-01 -2.52940E-01
    8994.092     -0.310   1.360  5.86229E-01  8.29115E-01 -2.42886E-01
    8994.513      0.111   1.400  6.05759E-01  8.42887E-01 -2.37128E-01
    8994.946      0.544   1.440  6.25308E-01  8.56127E-01 -2.30819E-01
    8995.391      0.989   1.480  6.54513E-01  8.68804E-01 -2.14291E-01
    8995.848      1.446   1.520  7.02958E-01  8.80929E-01 -1.77971E-01
    8996.317      1.916   1.560  7.79420E-01  8.92434E-01 -1.13014E-01
    8996.799      2.397   1.600  8.86958E-01  9.03356E-01 -1.63985E-02
    8997.293      2.891   1.640  1.01667E+00  9.13649E-01  1.03022E-01
    8997.798      3.397   1.680  1.13850E+00  9.23313E-01  2.15192E-01
    8998.317      3.915   1.720  1.21502E+00  9.32348E-01  2.82675E-01
    8998.847      4.445   1.760  1.24665E+00  9.40779E-01  3.05868E-01
    8999.390      4.988   1.800  1.25714E+00  9.48590E-01  3.08551E-01
    8999.944      5.543   1.840  1.24981E+00  9.55806E-01  2.94008E-01
    9000.511      6.110   1.880  1.22676E+00  9.62415E-01  2.64345E-01
    9001.090      6.689   1.920  1.20600E+00  9.68467E-01  2.37536E-01
    9001.682      7.280   1.960  1.19829E+00  9.73973E-01  2.24315E-01
    9002.285      7.883   2.000  1.19900E+00  9.78944E-01  2.20056E-01
    9002.901      8.499   2.040  1.19791E+00  9.83411E-01  2.14497E-01
    9003.529      9.127   2.080  1.18834E+00  9.87386E-01  2.00950E-01
    9004.169      9.767   2.120  1.17921E+00  9.90901E-01  1.88305E-01
    9004.821     10.419   2.160  1.18051E+00  9.93974E-01  1.86532E-01
    9005.485     11.084   2.200  1.19276E+00  9.96657E-01  1.96105E-01
    9006.162     11.761   2.240  1.21389E+00  9.98963E-01  2.14925E-01
    9006.851     12.449   2.280  1.23630E+00  1.00090E+00  2.35395E-01
    9007.552     13.150   2.320  1.24607E+00  1.00252E+00  2.43555E-01
    9008.265     13.864   2.360  1.23397E+00  1.00383E+00  2.30140E-01
    9008.991     14.589   2.400  1.20163E+00  1.00487E+00  1.96769E-01
    9009.728     15.327   2.440  1.15657E+00  1.00567E+00  1.50902E-01
    9010.478     16.076   2.480  1.10826E+00  1.00621E+00  1.02045E-01
    9011.240     16.838   2.520  1.06771E+00  1.00657E+00  6.11359E-02
    9012.014     17.613   2.560  1.04305E+00  1.00676E+00  3.62946E-02
    9012.801     18.399   2.600  1.03290E+00  1.00676E+00  2.61485E-02
    9013.599     19.198   2.640  1.02564E+00  1.00662E+00  1.90229E-02
    9014.410     20.008   2.680  1.00993E+00  1.00638E+00  3.55319E-03
    9015.233     20.831   2.720  9.84158E-01  1.00601E+00 -2.18483E-02
    9016.068     21.666   2.760  9.53924E-01  1.00556E+00 -5.16410E-02
    9016.915     22.514   2.800  9.31948E-01  1.00504E+00 -7.30960E-02
    9017.775     23.373   2.840  9.20806E-01  1.00445E+00 -8.36457E-02
    9018.647     24.245   2.880  9.16119E-01  1.00383E+00 -8.77150E-02
    9019.531     25.129   2.920  9.14610E-01  1.00316E+00 -8.85487E-02
    9020.427     26.025   2.960  9.13980E-01  1.00247E+00 -8.84918E-02
    9021.335     26.933   3.000  9.12772E-01  1.00178E+00 -8.90063E-02
    9022.256     27.854   3.040  9.10221E-01  1.00108E+00 -9.08627E-02
    9023.188     28.787   3.080  9.06165E-01  1.00041E+00 -9.42494E-02
    9024.133     29.731   3.120  9.00775E-01  9.99730E-01 -9.89547E-02
    9025.090     30.689   3.160  8.94566E-01  9.99097E-01 -1.04532E-01
    9026.059     31.658   3.200  8.88090E-01  9.98478E-01 -1.10389E-01
    9027.041     32.639   3.240  8.82042E-01  9.97895E-01 -1.15854E-01
    9028.035     33.633   3.280  8.77189E-01  9.97351E-01 -1.20163E-01
    9029.040     34.639   3.320  8.74267E-01  9.96849E-01 -1.22581E-01
    9030.058     35.657   3.360  8.73896E-01  9.96390E-01 -1.22494E-01
    9031.089     36.687   3.400  8.76585E-01  9.95996E-01 -1.19411E-01
    9032.131     37.729   3.440  8.82675E-01  9.95649E-01 -1.12974E-01
    9033.186     38.784   3.480  8.92423E-01  9.95347E-01 -1.02924E-01
    9034.252     39.851   3.520  9.05808E-01  9.95112E-01 -8.93043E-02
    9035.331     40.930   3.560  9.22233E-01  9.94925E-01 -7.26917E-02
    9036.423     42.021   3.600  9.40905E-01  9.94785E-01 -5.38802E-02
    9037.526     43.124   3.640  9.60767E-01  9.94714E-01 -3.39476E-02
    9038.641     44.240   3.680  9.80613E-01  9.94692E-01 -1.40789E-02
    9039.769     45.368   3.720  9.99338E-01  9.94737E-01  4.60085E-03
    9040.909     46.508   3.760  1.01604E+00  9.94830E-01  2.12137E-02
    9042.061     47.660   3.800  1.03020E+00  9.94990E-01  3.52094E-02
    9043.226     48.824   3.840  1.04172E+00  9.95173E-01  4.65446E-02
    9044.402     50.001   3.880  1.05105E+00  9.95421E-01  5.56254E-02
    9045.591     51.189   3.920  1.05867E+00  9.95713E-01  6.29617E-02
    9046.792     52.390   3.960  1.06501E+00  9.96068E-01  6.89391E-02
    9048.005     53.603   4.000  1.07012E+00  9.96441E-01  7.36815E-02
    9049.230     54.829   4.040  1.07376E+00  9.96852E-01  7.69089E-02
    9050.468     56.066   4.080  1.07546E+00  9.97301E-01  7.81608E-02
    9051.717     57.316   4.120  1.07490E+00  9.97784E-01  7.71136E-02
    9052.979     58.578   4.160  1.07206E+00  9.98278E-01  7.37810E-02
    9054.253     59.852   4.200  1.06725E+00  9.98804E-01  6.84457E-02
    9055.540     61.138   4.240  1.06093E+00  9.99363E-01  6.15711E-02
    9056.838     62.436   4.280  1.05364E+00  9.99927E-01  5.37169E-02
    9058.149     63.747   4.320  1.04598E+00  1.00050E+00  4.54855E-02
    9059.471     65.070   4.360  1.03863E+00  1.00109E+00  3.75402E-02
    9060.806     66.405   4.400  1.03217E+00  1.00167E+00  3.05025E-02
    9062.154     67.752   4.440  1.02699E+00  1.00226E+00  2.47274E-02
    9063.513     69.111   4.480  1.02303E+00  1.00286E+00  2.01770E-02
    9064.885     70.483   4.520  1.01992E+00  1.00343E+00  1.64976E-02
    9066.268     71.867   4.560  1.01724E+00  1.00401E+00  1.32295E-02
    9067.664     73.263   4.600  1.01458E+00  1.00457E+00  1.00105E-02
    9069.073     74.671   4.640  1.01176E+00  1.00510E+00  6.66305E-03
    9070.493     76.091   4.680  1.00875E+00  1.00563E+00  3.11985E-03
    9071.926     77.524   4.720  1.00549E+00  1.00612E+00 -6.28470E-04
    9073.370     78.969   4.760  1.00208E+00  1.00659E+00 -4.51262E-03
    9074.827     80.426   4.800  9.98665E-01  1.00705E+00 -8.38258E-03
    9076.296     81.895   4.840  9.95391E-01  1.00745E+00 -1.20558E-02
    9077.778     83.376   4.880  9.92449E-01  1.00783E+00 -1.53805E-02
    9079.271     84.870   4.920  9.89868E-01  1.00817E+00 -1.83050E-02
    9080.777     86.375   4.960  9.87640E-01  1.00848E+00 -2.08368E-02
    9082.295     87.893   5.000  9.85764E-01  1.00874E+00 -2.29761E-02
    9083.825     89.423   5.040  9.84231E-01  1.00896E+00 -2.47305E-02
    9085.367     90.966   5.080  9.83029E-01  1.00914E+00 -2.61117E-02
    9086.922     92.520   5.120  9.82158E-01  1.00928E+00 -2.71195E-02
    9088.488     94.087   5.160  9.81695E-01  1.00937E+00 -2.76790E-02
    9090.067     95.665   5.200  9.81818E-01  1.00943E+00 -2.76106E-02
    9091.658     97.257   5.240  9.82724E-01  1.00944E+00 -2.67153E-02
    9093.261     98.860   5.280  9.84542E-01  1.00941E+00 -2.48655E-02
    9094.877    100.475   5.320  9.87225E-01  1.00933E+00 -2.21081E-02
    9096.504    102.103   5.360  9.90546E-01  1.00919E+00 -1.86466E-02
    9098.144    103.743   5.400  9.94257E-01  1.00903E+00 -1.47770E-02
    9099.796    105.395   5.440  9.97985E-01  1.00883E+00 -1.08481E-02
    9101.461    107.059   5.480  1.00128E+00  1.00857E+00 -7.28733E-03
    9103.137    108.735   5.520  1.00369E+00  1.00829E+00 -4.59365E-03
    9104.825    110.424   5.560  1.00474E+00  1.00797E+00 -3.23064E-03
    9106.526    112.125   5.600  1.00415E+00  1.00761E+00 -3.46152E-03
    9108.239    113.838   5.640  1.00199E+00  1.00721E+00 -5.21779E-03
    9109.964    115.563   5.680  9.98689E-01  1.00677E+00 -8.08141E-03
    9111.702    117.300   5.720  9.94893E-01  1.00630E+00 -1.14053E-02
    9113.451    119.050   5.760  9.91304E-01  1.00582E+00 -1.45109E-02
    9115.213    120.811   5.800  9.88458E-01  1.00530E+00 -1.68432E-02
    9116.987    122.585   5.840  9.86763E-01  1.00478E+00 -1.80174E-02
    9118.773    124.371   5.880  9.86417E-01  1.00423E+00 -1.78153E-02
    9120.571    126.170   5.920  9.87502E-01  1.00368E+00 -1.61817E-02
    9122.382    127.980   5.960  9.89885E-01  1.00311E+00 -1.32285E-02
    9124.205    129.803   6.000  9.93379E-01  1.00250E+00 -9.12006E-03
