# # comment:                                                     FEFF 9.9.1  
# # Source:
# # Structure
# # Reduced
# # space
# # abc:
# # angles:
# # sites:
# # POT  SCF 100  7.0000   0, screened core-hole, AFOLP (folp(0)= 1.150)
# # Abs   Z=29 Rmt= 1.261 Rnm= 1.334 K  shell
# # Pot 1 Z=73 Rmt= 1.320 Rnm= 1.468
# # Pot 2 Z=29 Rmt= 1.263 Rnm= 1.334
# # Pot 3 Z= 8 Rmt= 1.001 Rnm= 1.085
# # Gam_ch=1.729E+00 H-L exch Vi= 0.000E+00 Vr= 0.000E+00
# # Mu=-5.920E+00eV kf=2.249E+00 Vint=-1.643E+01eV Rs_int= 1.612
# FMS rfms= 9.0000
# # PATH  Rmax=-1.000,  Keep_limit= 0.00, Heap_limit 0.00  Pwcrit= 2.50%
#  S02=0.950  Temp=   0.00  Debye_temp=   0.00  Global_sig2= 0.00000
#  Energy zero shift, vr, vi    0.00000E+00   0.00000E+00
#  Curved wave amplitude ratio filter   4.000%
#     file         sig2 tot  cw amp ratio   deg  nlegs   reff  inp sig2
#     0/   0 paths used
#  xsedge+ 50, used to normalize mu           2.4609E-04
#  -----------------------------------------------------------------------
#  omega    e    k    mu    mu0     chi     @#
    8983.605     -9.730  -1.000  5.10195E-02  5.79108E-02 -6.89129E-03
    8983.904     -9.431  -0.960  5.43123E-02  6.22561E-02 -7.94380E-03
    8984.190     -9.144  -0.920  5.79082E-02  6.70975E-02 -9.18931E-03
    8984.465     -8.870  -0.880  6.18423E-02  7.25090E-02 -1.06667E-02
    8984.727     -8.608  -0.840  6.61544E-02  7.85773E-02 -1.24229E-02
    8984.977     -8.358  -0.800  7.08887E-02  8.54027E-02 -1.45141E-02
    8985.215     -8.120  -0.760  7.60938E-02  9.31007E-02 -1.70069E-02
    8985.440     -7.895  -0.720  8.18225E-02  1.01802E-01 -1.99792E-02
    8985.654     -7.681  -0.680  8.81305E-02  1.11650E-01 -2.35193E-02
    8985.855     -7.480  -0.640  9.50733E-02  1.22797E-01 -2.77240E-02
    8986.044     -7.291  -0.600  1.02702E-01  1.35394E-01 -3.26922E-02
    8986.220     -7.114  -0.560  1.11055E-01  1.49569E-01 -3.85135E-02
    8986.385     -6.950  -0.520  1.20148E-01  1.65398E-01 -4.52503E-02
    8986.537     -6.797  -0.480  1.29956E-01  1.82868E-01 -5.29115E-02
    8986.678     -6.657  -0.440  1.40400E-01  2.01824E-01 -6.14232E-02
    8986.806     -6.529  -0.400  1.51328E-01  2.21932E-01 -7.06034E-02
    8986.921     -6.413  -0.360  1.62511E-01  2.42668E-01 -8.01566E-02
    8987.025     -6.310  -0.320  1.73652E-01  2.63349E-01 -8.96979E-02
    8987.117     -6.218  -0.280  1.84410E-01  2.83220E-01 -9.88101E-02
    8987.196     -6.139  -0.240  1.94442E-01  3.01554E-01 -1.07112E-01
    8987.263     -6.072  -0.200  2.03433E-01  3.17745E-01 -1.14313E-01
    8987.318     -6.017  -0.160  2.11119E-01  3.31355E-01 -1.20236E-01
    8987.360     -5.974  -0.120  2.17301E-01  3.42105E-01 -1.24804E-01
    8987.391     -5.944  -0.080  2.21834E-01  3.49844E-01 -1.28010E-01
    8987.415     -5.920   0.000  2.25571E-01  3.56058E-01 -1.30487E-01
    8987.470     -5.865   0.120  2.33863E-01  3.70064E-01 -1.36201E-01
    8987.513     -5.822   0.160  2.40376E-01  3.80918E-01 -1.40542E-01
    8987.568     -5.767   0.200  2.48883E-01  3.94765E-01 -1.45882E-01
    8987.635     -5.700   0.240  2.59473E-01  4.11397E-01 -1.51924E-01
    8987.714     -5.621   0.280  2.72223E-01  4.30434E-01 -1.58211E-01
    8987.805     -5.529   0.320  2.87193E-01  4.51359E-01 -1.64166E-01
    8987.909     -5.426   0.360  3.04501E-01  4.73532E-01 -1.69031E-01
    8988.025     -5.310   0.400  3.24212E-01  4.96253E-01 -1.72041E-01
    8988.153     -5.182   0.440  3.46471E-01  5.18902E-01 -1.72430E-01
    8988.293     -5.042   0.480  3.71339E-01  5.40980E-01 -1.69641E-01
    8988.445     -4.889   0.520  3.98810E-01  5.62183E-01 -1.63373E-01
    8988.610     -4.725   0.560  4.28716E-01  5.82372E-01 -1.53656E-01
    8988.787     -4.548   0.600  4.60918E-01  6.01470E-01 -1.40552E-01
    8988.976     -4.359   0.640  4.95912E-01  6.19587E-01 -1.23675E-01
    8989.177     -4.158   0.680  5.35235E-01  6.36797E-01 -1.01562E-01
    8989.390     -3.945   0.720  5.81483E-01  6.53208E-01 -7.17248E-02
    8989.616     -3.719   0.760  6.36601E-01  6.68950E-01 -3.23497E-02
    8989.854     -3.481   0.800  6.98141E-01  6.84122E-01  1.40191E-02
    8990.104     -3.231   0.840  7.56652E-01  6.98806E-01  5.78454E-02
    8990.366     -2.969   0.880  7.97912E-01  7.13071E-01  8.48402E-02
    8990.640     -2.695   0.920  8.09449E-01  7.26970E-01  8.24789E-02
    8990.927     -2.408   0.960  7.90541E-01  7.40541E-01  4.99994E-02
    8991.225     -2.110   1.000  7.55057E-01  7.53813E-01  1.24348E-03
    8991.536     -1.799   1.040  7.17769E-01  7.66822E-01 -4.90530E-02
    8991.859     -1.476   1.080  6.84671E-01  7.79576E-01 -9.49051E-02
    8992.194     -1.140   1.120  6.59240E-01  7.92056E-01 -1.32816E-01
    8992.542     -0.793   1.160  6.46818E-01  8.04256E-01 -1.57439E-01
    8992.902     -0.433   1.200  6.50379E-01  8.16189E-01 -1.65809E-01
    8993.273     -0.061   1.240  6.70610E-01  8.27860E-01 -1.57250E-01
    8993.658      0.323   1.280  7.07117E-01  8.39213E-01 -1.32096E-01
    8994.054      0.719   1.320  7.53930E-01  8.50251E-01 -9.63216E-02
    8994.462      1.127   1.360  8.03748E-01  8.60995E-01 -5.72469E-02
    8994.883      1.548   1.400  8.57644E-01  8.71380E-01 -1.37366E-02
    8995.316      1.981   1.440  9.14785E-01  8.81407E-01  3.33784E-02
    8995.761      2.426   1.480  9.58782E-01  8.91094E-01  6.76884E-02
    8996.218      2.883   1.520  9.80139E-01  9.00378E-01  7.97614E-02
    8996.687      3.352   1.560  9.93761E-01  9.09279E-01  8.44824E-02
    8997.169      3.834   1.600  1.01242E+00  9.17794E-01  9.46235E-02
    8997.663      4.328   1.640  1.03801E+00  9.25903E-01  1.12109E-01
    8998.169      4.834   1.680  1.07579E+00  9.33604E-01  1.42183E-01
    8998.687      5.352   1.720  1.12895E+00  9.40877E-01  1.88070E-01
    8999.217      5.882   1.760  1.18860E+00  9.47745E-01  2.40859E-01
    8999.760      6.425   1.800  1.23563E+00  9.54208E-01  2.81419E-01
    9000.314      6.979   1.840  1.24972E+00  9.60250E-01  2.89473E-01
    9000.881      7.546   1.880  1.22880E+00  9.65874E-01  2.62928E-01
    9001.460      8.126   1.920  1.19320E+00  9.71103E-01  2.22101E-01
    9002.052      8.717   1.960  1.17322E+00  9.75941E-01  1.97275E-01
    9002.655      9.320   2.000  1.17880E+00  9.80396E-01  1.98407E-01
    9003.271      9.936   2.040  1.18909E+00  9.84472E-01  2.04615E-01
    9003.899     10.564   2.080  1.17884E+00  9.88175E-01  1.90661E-01
    9004.539     11.204   2.120  1.14849E+00  9.91532E-01  1.56959E-01
    9005.191     11.856   2.160  1.11766E+00  9.94552E-01  1.23110E-01
    9005.856     12.521   2.200  1.10286E+00  9.97241E-01  1.05620E-01
    9006.532     13.197   2.240  1.11206E+00  9.99626E-01  1.12438E-01
    9007.221     13.886   2.280  1.14460E+00  1.00172E+00  1.42882E-01
    9007.922     14.587   2.320  1.18707E+00  1.00350E+00  1.83568E-01
    9008.635     15.300   2.360  1.21377E+00  1.00504E+00  2.08728E-01
    9009.361     16.026   2.400  1.20044E+00  1.00634E+00  1.94100E-01
    9010.098     16.764   2.440  1.15033E+00  1.00739E+00  1.42944E-01
    9010.848     17.513   2.480  1.09193E+00  1.00823E+00  8.36991E-02
    9011.610     18.275   2.520  1.04338E+00  1.00886E+00  3.45179E-02
    9012.384     19.050   2.560  1.00791E+00  1.00929E+00 -1.37654E-03
    9013.171     19.836   2.600  9.85600E-01  1.00957E+00 -2.39730E-02
    9013.969     20.634   2.640  9.80046E-01  1.00967E+00 -2.96271E-02
    9014.780     21.445   2.680  9.89092E-01  1.00966E+00 -2.05685E-02
    9015.603     22.268   2.720  9.98114E-01  1.00950E+00 -1.13856E-02
    9016.438     23.103   2.760  1.00074E+00  1.00922E+00 -8.47277E-03
    9017.286     23.951   2.800  9.92700E-01  1.00886E+00 -1.61613E-02
    9018.145     24.810   2.840  9.73496E-01  1.00840E+00 -3.49022E-02
    9019.017     25.682   2.880  9.47944E-01  1.00785E+00 -5.99090E-02
    9019.901     26.566   2.920  9.21376E-01  1.00723E+00 -8.58555E-02
    9020.797     27.462   2.960  8.97077E-01  1.00658E+00 -1.09503E-01
    9021.705     28.370   3.000  8.76099E-01  1.00586E+00 -1.29766E-01
    9022.626     29.291   3.040  8.58806E-01  1.00511E+00 -1.46301E-01
    9023.558     30.223   3.080  8.45691E-01  1.00433E+00 -1.58644E-01
    9024.503     31.168   3.120  8.36937E-01  1.00353E+00 -1.66595E-01
    9025.460     32.125   3.160  8.32336E-01  1.00274E+00 -1.70409E-01
    9026.429     33.095   3.200  8.31798E-01  1.00193E+00 -1.70135E-01
    9027.411     34.076   3.240  8.35611E-01  1.00112E+00 -1.65510E-01
    9028.405     35.070   3.280  8.43655E-01  1.00033E+00 -1.56679E-01
    9029.410     36.076   3.320  8.55631E-01  9.99555E-01 -1.43924E-01
    9030.428     37.094   3.360  8.70981E-01  9.98804E-01 -1.27823E-01
    9031.459     38.124   3.400  8.88833E-01  9.98064E-01 -1.09231E-01
    9032.501     39.166   3.440  9.08127E-01  9.97358E-01 -8.92307E-02
    9033.556     40.221   3.480  9.28150E-01  9.96688E-01 -6.85378E-02
    9034.622     41.288   3.520  9.48535E-01  9.96056E-01 -4.75212E-02
    9035.701     42.367   3.560  9.68827E-01  9.95464E-01 -2.66367E-02
    9036.793     43.458   3.600  9.88291E-01  9.94911E-01 -6.62006E-03
    9037.896     44.561   3.640  1.00575E+00  9.94402E-01  1.13515E-02
    9039.012     45.677   3.680  1.01979E+00  9.93956E-01  2.58351E-02
    9040.139     46.804   3.720  1.02927E+00  9.93531E-01  3.57413E-02
    9041.279     47.944   3.760  1.03395E+00  9.93170E-01  4.07854E-02
    9042.431     49.097   3.800  1.03437E+00  9.92853E-01  4.15166E-02
    9043.596     50.261   3.840  1.03178E+00  9.92581E-01  3.91947E-02
    9044.772     51.437   3.880  1.02786E+00  9.92375E-01  3.54841E-02
    9045.961     52.626   3.920  1.02443E+00  9.92213E-01  3.22119E-02
    9047.162     53.827   3.960  1.02316E+00  9.92094E-01  3.10689E-02
    9048.375     55.040   4.000  1.02535E+00  9.92017E-01  3.33303E-02
    9049.600     56.265   4.040  1.03164E+00  9.91984E-01  3.96532E-02
    9050.838     57.503   4.080  1.04187E+00  9.92015E-01  4.98506E-02
    9052.087     58.753   4.120  1.05505E+00  9.92086E-01  6.29663E-02
    9053.349     60.014   4.160  1.06957E+00  9.92177E-01  7.73958E-02
    9054.623     61.289   4.200  1.08340E+00  9.92330E-01  9.10729E-02
    9055.910     62.575   4.240  1.09436E+00  9.92523E-01  1.01836E-01
    9057.208     63.873   4.280  1.10077E+00  9.92753E-01  1.08014E-01
    9058.519     65.184   4.320  1.10184E+00  9.93001E-01  1.08835E-01
    9059.842     66.507   4.360  1.09759E+00  9.93305E-01  1.04289E-01
    9061.177     67.842   4.400  1.08854E+00  9.93622E-01  9.49138E-02
    9062.524     69.189   4.440  1.07573E+00  9.93970E-01  8.17597E-02
    9063.883     70.548   4.480  1.06064E+00  9.94329E-01  6.63113E-02
    9065.255     71.920   4.520  1.04508E+00  9.94719E-01  5.03627E-02
    9066.639     73.304   4.560  1.03075E+00  9.95117E-01  3.56295E-02
    9068.035     74.700   4.600  1.01879E+00  9.95543E-01  2.32510E-02
    9069.443     76.108   4.640  1.00964E+00  9.95975E-01  1.36658E-02
    9070.863     77.528   4.680  1.00320E+00  9.96434E-01  6.76703E-03
    9072.296     78.961   4.720  9.98974E-01  9.96871E-01  2.10232E-03
    9073.740     80.405   4.760  9.96329E-01  9.97331E-01 -1.00117E-03
    9075.197     81.862   4.800  9.94303E-01  9.97768E-01 -3.46538E-03
    9076.666     83.332   4.840  9.91818E-01  9.98224E-01 -6.40643E-03
    9078.148     84.813   4.880  9.87802E-01  9.98655E-01 -1.08527E-02
    9079.641     86.306   4.920  9.81612E-01  9.99082E-01 -1.74701E-02
    9081.147     87.812   4.960  9.73144E-01  9.99503E-01 -2.63597E-02
    9082.665     89.330   5.000  9.62960E-01  9.99918E-01 -3.69575E-02
    9084.195     90.860   5.040  9.52024E-01  1.00030E+00 -4.82794E-02
    9085.737     92.402   5.080  9.41391E-01  1.00068E+00 -5.92891E-02
    9087.292     93.957   5.120  9.31839E-01  1.00102E+00 -6.91851E-02
    9088.858     95.524   5.160  9.23977E-01  1.00136E+00 -7.73782E-02
    9090.437     97.102   5.200  9.18392E-01  1.00165E+00 -8.32589E-02
    9092.028     98.693   5.240  9.15796E-01  1.00191E+00 -8.61148E-02
    9093.632    100.297   5.280  9.16921E-01  1.00213E+00 -8.52129E-02
    9095.247    101.912   5.320  9.22199E-01  1.00234E+00 -8.01439E-02
    9096.875    103.540   5.360  9.31435E-01  1.00252E+00 -7.10807E-02
    9098.514    105.180   5.400  9.43866E-01  1.00265E+00 -5.87856E-02
    9100.166    106.832   5.440  9.58346E-01  1.00277E+00 -4.44257E-02
    9101.831    108.496   5.480  9.73565E-01  1.00283E+00 -2.92670E-02
    9103.507    110.172   5.520  9.88471E-01  1.00288E+00 -1.44051E-02
    9105.196    111.861   5.560  1.00226E+00  1.00288E+00 -6.24201E-04
    9106.896    113.561   5.600  1.01448E+00  1.00284E+00  1.16320E-02
    9108.609    115.274   5.640  1.02491E+00  1.00274E+00  2.21634E-02
    9110.334    117.000   5.680  1.03345E+00  1.00263E+00  3.08189E-02
    9112.072    118.737   5.720  1.03970E+00  1.00248E+00  3.72221E-02
    9113.821    120.487   5.760  1.04296E+00  1.00229E+00  4.06779E-02
    9115.583    122.248   5.800  1.04250E+00  1.00208E+00  4.04159E-02
    9117.357    124.022   5.840  1.03794E+00  1.00182E+00  3.61269E-02
    9119.143    125.808   5.880  1.02998E+00  1.00154E+00  2.84361E-02
    9120.941    127.607   5.920  1.02009E+00  1.00120E+00  1.88891E-02
    9122.752    129.417   5.960  1.01025E+00  1.00086E+00  9.39200E-03
    9124.575    131.240   6.000  1.00186E+00  1.00046E+00  1.40229E-03
