# # comment:                                                     FEFF 9.9.1  
# # Source:
# # Structure
# # Reduced
# # space
# # abc:
# # angles:
# # sites:
# # POT  SCF 100  7.0000   0, screened core-hole, AFOLP (folp(0)= 1.150)
# # Abs   Z=29 Rmt= 1.238 Rnm= 1.314 K  shell
# # Pot 1 Z=24 Rmt= 1.316 Rnm= 1.416
# # Pot 2 Z=29 Rmt= 1.250 Rnm= 1.317
# # Pot 3 Z=15 Rmt= 0.939 Rnm= 1.156
# # Pot 4 Z= 8 Rmt= 0.890 Rnm= 1.047
# # Gam_ch=1.729E+00 H-L exch Vi= 0.000E+00 Vr= 0.000E+00
# # Mu=-7.240E+00eV kf=2.480E+00 Vint=-1.725E+01eV Rs_int= 1.462
# FMS rfms= 9.0000
# # PATH  Rmax=-1.000,  Keep_limit= 0.00, Heap_limit 0.00  Pwcrit= 2.50%
#  S02=0.950  Temp=   0.00  Debye_temp=   0.00  Global_sig2= 0.00000
#  Energy zero shift, vr, vi    0.00000E+00   0.00000E+00
#  Curved wave amplitude ratio filter   4.000%
#     file         sig2 tot  cw amp ratio   deg  nlegs   reff  inp sig2
#     0/   0 paths used
#  xsedge+ 50, used to normalize mu           2.4978E-04
#  -----------------------------------------------------------------------
#  omega    e    k    mu    mu0     chi     @#
    8983.309    -11.050  -1.000  3.15074E-02  4.87651E-02 -1.72577E-02
    8983.607    -10.751  -0.960  3.28629E-02  5.22337E-02 -1.93707E-02
    8983.894    -10.465  -0.920  3.42925E-02  5.60853E-02 -2.17928E-02
    8984.168    -10.190  -0.880  3.58019E-02  6.03766E-02 -2.45746E-02
    8984.430     -9.928  -0.840  3.73976E-02  6.51730E-02 -2.77755E-02
    8984.680     -9.678  -0.800  3.90867E-02  7.05511E-02 -3.14644E-02
    8984.918     -9.440  -0.760  4.08772E-02  7.65981E-02 -3.57209E-02
    8985.144     -9.215  -0.720  4.27777E-02  8.34130E-02 -4.06353E-02
    8985.357     -9.001  -0.680  4.47976E-02  9.11049E-02 -4.63074E-02
    8985.558     -8.800  -0.640  4.69456E-02  9.97888E-02 -5.28432E-02
    8985.747     -8.611  -0.600  4.92297E-02  1.09578E-01 -6.03480E-02
    8985.924     -8.435  -0.560  5.16551E-02  1.20568E-01 -6.89132E-02
    8986.088     -8.270  -0.520  5.42215E-02  1.32818E-01 -7.85964E-02
    8986.241     -8.118  -0.480  5.69198E-02  1.46314E-01 -8.93941E-02
    8986.381     -7.977  -0.440  5.97283E-02  1.60938E-01 -1.01209E-01
    8986.509     -7.849  -0.400  6.26091E-02  1.76434E-01 -1.13825E-01
    8986.625     -7.734  -0.360  6.55074E-02  1.92403E-01 -1.26895E-01
    8986.728     -7.630  -0.320  6.83537E-02  2.08323E-01 -1.39970E-01
    8986.820     -7.538  -0.280  7.10705E-02  2.23618E-01 -1.52548E-01
    8986.899     -7.459  -0.240  7.35810E-02  2.37732E-01 -1.64151E-01
    8986.966     -7.392  -0.200  7.58162E-02  2.50202E-01 -1.74386E-01
    8987.021     -7.337  -0.160  7.77198E-02  2.60688E-01 -1.82968E-01
    8987.064     -7.295  -0.120  7.92483E-02  2.68975E-01 -1.89727E-01
    8987.094     -7.264  -0.080  8.03699E-02  2.74943E-01 -1.94574E-01
    8987.119     -7.240   0.000  8.13018E-02  2.79737E-01 -1.98436E-01
    8987.174     -7.185   0.120  8.34298E-02  2.90550E-01 -2.07120E-01
    8987.216     -7.142   0.160  8.50558E-02  2.98946E-01 -2.13890E-01
    8987.271     -7.087   0.200  8.71694E-02  3.09670E-01 -2.22500E-01
    8987.338     -7.020   0.240  8.97435E-02  3.22551E-01 -2.32807E-01
    8987.417     -6.941   0.280  9.27971E-02  3.37347E-01 -2.44550E-01
    8987.509     -6.850   0.320  9.63138E-02  3.53631E-01 -2.57318E-01
    8987.612     -6.746   0.360  1.00311E-01  3.70972E-01 -2.70661E-01
    8987.728     -6.630   0.400  1.04727E-01  3.88843E-01 -2.84116E-01
    8987.856     -6.502   0.440  1.09539E-01  4.06763E-01 -2.97223E-01
    8987.996     -6.362   0.480  1.14644E-01  4.24377E-01 -3.09733E-01
    8988.149     -6.210   0.520  1.19963E-01  4.41480E-01 -3.21517E-01
    8988.313     -6.045   0.560  1.25388E-01  4.57952E-01 -3.32563E-01
    8988.490     -5.868   0.600  1.30883E-01  4.73743E-01 -3.42860E-01
    8988.679     -5.679   0.640  1.36730E-01  4.88950E-01 -3.52220E-01
    8988.880     -5.478   0.680  1.43372E-01  5.03637E-01 -3.60265E-01
    8989.094     -5.265   0.720  1.51406E-01  5.17868E-01 -3.66461E-01
    8989.319     -5.039   0.760  1.61410E-01  5.31779E-01 -3.70369E-01
    8989.557     -4.801   0.800  1.73622E-01  5.45402E-01 -3.71779E-01
    8989.807     -4.551   0.840  1.88128E-01  5.58836E-01 -3.70709E-01
    8990.069     -4.289   0.880  2.04850E-01  5.72130E-01 -3.67281E-01
    8990.343     -4.015   0.920  2.23931E-01  5.85339E-01 -3.61408E-01
    8990.630     -3.728   0.960  2.45805E-01  5.98469E-01 -3.52664E-01
    8990.929     -3.430   1.000  2.71239E-01  6.11556E-01 -3.40317E-01
    8991.240     -3.119   1.040  3.00703E-01  6.24629E-01 -3.23925E-01
    8991.563     -2.796   1.080  3.33867E-01  6.37665E-01 -3.03798E-01
    8991.898     -2.460   1.120  3.70536E-01  6.50702E-01 -2.80166E-01
    8992.245     -2.113   1.160  4.12215E-01  6.63689E-01 -2.51474E-01
    8992.605     -1.753   1.200  4.61740E-01  6.76652E-01 -2.14912E-01
    8992.977     -1.382   1.240  5.16683E-01  6.89575E-01 -1.72892E-01
    8993.361     -0.997   1.280  5.68359E-01  7.02437E-01 -1.34078E-01
    8993.757     -0.601   1.320  6.09582E-01  7.15194E-01 -1.05613E-01
    8994.166     -0.193   1.360  6.36929E-01  7.27884E-01 -9.09552E-02
    8994.586      0.228   1.400  6.55738E-01  7.40421E-01 -8.46828E-02
    8995.019      0.661   1.440  6.80930E-01  7.52839E-01 -7.19090E-02
    8995.464      1.106   1.480  7.23095E-01  7.65089E-01 -4.19946E-02
    8995.921      1.563   1.520  7.86870E-01  7.77164E-01  9.70582E-03
    8996.391      2.032   1.560  8.72250E-01  7.89016E-01  8.32340E-02
    8996.872      2.514   1.600  9.65328E-01  8.00636E-01  1.64692E-01
    8997.366      3.008   1.640  1.04263E+00  8.12015E-01  2.30618E-01
    8997.872      3.514   1.680  1.09016E+00  8.23129E-01  2.67033E-01
    8998.390      4.032   1.720  1.10357E+00  8.33968E-01  2.69603E-01
    8998.920      4.562   1.760  1.09368E+00  8.44504E-01  2.49173E-01
    8999.463      5.105   1.800  1.08669E+00  8.54711E-01  2.31984E-01
    9000.018      5.659   1.840  1.11311E+00  8.64583E-01  2.48528E-01
    9000.585      6.226   1.880  1.18164E+00  8.74135E-01  3.07500E-01
    9001.164      6.805   1.920  1.25325E+00  8.83302E-01  3.69950E-01
    9001.755      7.397   1.960  1.27029E+00  8.92121E-01  3.78171E-01
    9002.359      8.000   2.000  1.23331E+00  9.00568E-01  3.32744E-01
    9002.974      8.616   2.040  1.18153E+00  9.08641E-01  2.72892E-01
    9003.602      9.244   2.080  1.13531E+00  9.16340E-01  2.18975E-01
    9004.242      9.884   2.120  1.09991E+00  9.23661E-01  1.76248E-01
    9004.895     10.536   2.160  1.07941E+00  9.30586E-01  1.48827E-01
    9005.559     11.201   2.200  1.07161E+00  9.37115E-01  1.34492E-01
    9006.236     11.877   2.240  1.07067E+00  9.43290E-01  1.27380E-01
    9006.924     12.566   2.280  1.07232E+00  9.49073E-01  1.23247E-01
    9007.626     13.267   2.320  1.07464E+00  9.54485E-01  1.20155E-01
    9008.339     13.980   2.360  1.07649E+00  9.59531E-01  1.16964E-01
    9009.064     14.706   2.400  1.06992E+00  9.64215E-01  1.05708E-01
    9009.802     15.443   2.440  1.04666E+00  9.68561E-01  7.80982E-02
    9010.552     16.193   2.480  1.01664E+00  9.72553E-01  4.40898E-02
    9011.314     16.955   2.520  9.99101E-01  9.76216E-01  2.28847E-02
    9012.088     17.729   2.560  1.00097E+00  9.79555E-01  2.14128E-02
    9012.874     18.516   2.600  1.01404E+00  9.82598E-01  3.14449E-02
    9013.673     19.314   2.640  1.02737E+00  9.85330E-01  4.20400E-02
    9014.483     20.125   2.680  1.03614E+00  9.87775E-01  4.83611E-02
    9015.306     20.948   2.720  1.03515E+00  9.89941E-01  4.52123E-02
    9016.142     21.783   2.760  1.02420E+00  9.91855E-01  3.23462E-02
    9016.989     22.631   2.800  1.00936E+00  9.93524E-01  1.58330E-02
    9017.848     23.490   2.840  9.92855E-01  9.94955E-01 -2.09913E-03
    9018.720     24.362   2.880  9.76389E-01  9.96172E-01 -1.97825E-02
    9019.604     25.246   2.920  9.62332E-01  9.97164E-01 -3.48315E-02
    9020.500     26.142   2.960  9.50368E-01  9.97977E-01 -4.76091E-02
    9021.408     27.050   3.000  9.39099E-01  9.98596E-01 -5.94972E-02
    9022.329     27.971   3.040  9.27859E-01  9.99071E-01 -7.12124E-02
    9023.262     28.903   3.080  9.16485E-01  9.99365E-01 -8.28805E-02
    9024.207     29.848   3.120  9.05032E-01  9.99503E-01 -9.44717E-02
    9025.164     30.805   3.160  8.94103E-01  9.99534E-01 -1.05431E-01
    9026.133     31.775   3.200  8.84772E-01  9.99424E-01 -1.14652E-01
    9027.114     32.756   3.240  8.78218E-01  9.99219E-01 -1.21000E-01
    9028.108     33.750   3.280  8.75196E-01  9.98922E-01 -1.23726E-01
    9029.114     34.755   3.320  8.75409E-01  9.98520E-01 -1.23111E-01
    9030.132     35.773   3.360  8.78596E-01  9.98037E-01 -1.19441E-01
    9031.162     36.804   3.400  8.84614E-01  9.97497E-01 -1.12883E-01
    9032.204     37.846   3.440  8.92994E-01  9.96886E-01 -1.03892E-01
    9033.259     38.901   3.480  9.03132E-01  9.96228E-01 -9.30956E-02
    9034.326     39.967   3.520  9.14357E-01  9.95527E-01 -8.11699E-02
    9035.405     41.046   3.560  9.25967E-01  9.94788E-01 -6.88210E-02
    9036.496     42.138   3.600  9.37265E-01  9.94012E-01 -5.67472E-02
    9037.599     43.241   3.640  9.48149E-01  9.93226E-01 -4.50768E-02
    9038.715     44.357   3.680  9.58830E-01  9.92432E-01 -3.36027E-02
    9039.843     45.484   3.720  9.69619E-01  9.91614E-01 -2.19947E-02
    9040.983     46.624   3.760  9.80709E-01  9.90813E-01 -1.01044E-02
    9042.135     47.776   3.800  9.91774E-01  9.89993E-01  1.78089E-03
    9043.299     48.941   3.840  1.00199E+00  9.89196E-01  1.27896E-02
    9044.476     50.117   3.880  1.01031E+00  9.88406E-01  2.18994E-02
    9045.664     51.306   3.920  1.01598E+00  9.87643E-01  2.83347E-02
    9046.865     52.507   3.960  1.01874E+00  9.86891E-01  3.18538E-02
    9048.078     53.720   4.000  1.01909E+00  9.86171E-01  3.29153E-02
    9049.304     54.945   4.040  1.01798E+00  9.85483E-01  3.24987E-02
    9050.541     56.183   4.080  1.01646E+00  9.84811E-01  3.16520E-02
    9051.791     57.432   4.120  1.01531E+00  9.84195E-01  3.11158E-02
    9053.053     58.694   4.160  1.01484E+00  9.83594E-01  3.12406E-02
    9054.327     59.968   4.200  1.01514E+00  9.83031E-01  3.21129E-02
    9055.613     61.255   4.240  1.01630E+00  9.82505E-01  3.37904E-02
    9056.911     62.553   4.280  1.01844E+00  9.82020E-01  3.64214E-02
    9058.222     63.864   4.320  1.02174E+00  9.81597E-01  4.01450E-02
    9059.545     65.187   4.360  1.02599E+00  9.81190E-01  4.48021E-02
    9060.880     66.522   4.400  1.03059E+00  9.80822E-01  4.97693E-02
    9062.227     67.869   4.440  1.03459E+00  9.80496E-01  5.40961E-02
    9063.587     69.228   4.480  1.03701E+00  9.80230E-01  5.67847E-02
    9064.958     70.600   4.520  1.03706E+00  9.79984E-01  5.70761E-02
    9066.342     71.984   4.560  1.03444E+00  9.79799E-01  5.46457E-02
    9067.738     73.380   4.600  1.02917E+00  9.79631E-01  4.95433E-02
    9069.146     74.788   4.640  1.02167E+00  9.79523E-01  4.21446E-02
    9070.566     76.208   4.680  1.01259E+00  9.79434E-01  3.31552E-02
    9071.999     77.641   4.720  1.00289E+00  9.79403E-01  2.34862E-02
    9073.444     79.085   4.760  9.93455E-01  9.79388E-01  1.40669E-02
    9074.901     80.542   4.800  9.85096E-01  9.79409E-01  5.68754E-03
    9076.370     82.011   4.840  9.78364E-01  9.79465E-01 -1.10069E-03
    9077.851     83.493   4.880  9.73589E-01  9.79555E-01 -5.96612E-03
    9079.345     84.986   4.920  9.70902E-01  9.79659E-01 -8.75649E-03
    9080.850     86.492   4.960  9.70286E-01  9.79795E-01 -9.50928E-03
    9082.368     88.010   5.000  9.71518E-01  9.79964E-01 -8.44534E-03
    9083.898     89.540   5.040  9.74167E-01  9.80142E-01 -5.97429E-03
    9085.441     91.082   5.080  9.77714E-01  9.80349E-01 -2.63437E-03
    9086.995     92.637   5.120  9.81479E-01  9.80562E-01  9.17288E-04
    9088.562     94.203   5.160  9.84715E-01  9.80781E-01  3.93325E-03
    9090.141     95.782   5.200  9.86727E-01  9.81027E-01  5.69990E-03
    9091.732     97.373   5.240  9.86969E-01  9.81277E-01  5.69190E-03
    9093.335     98.977   5.280  9.85236E-01  9.81529E-01  3.70658E-03
    9094.950    100.592   5.320  9.81712E-01  9.81784E-01 -7.18349E-05
    9096.578    102.220   5.360  9.76917E-01  9.82060E-01 -5.14304E-03
    9098.218    103.859   5.400  9.71463E-01  9.82314E-01 -1.08504E-02
    9099.870    105.511   5.440  9.66010E-01  9.82564E-01 -1.65533E-02
    9101.534    107.176   5.480  9.61067E-01  9.82812E-01 -2.17451E-02
    9103.210    108.852   5.520  9.56950E-01  9.83058E-01 -2.61079E-02
    9104.899    110.541   5.560  9.53768E-01  9.83298E-01 -2.95293E-02
    9106.600    112.241   5.600  9.51502E-01  9.83508E-01 -3.20059E-02
    9108.313    113.954   5.640  9.50125E-01  9.83711E-01 -3.35860E-02
    9110.038    115.679   5.680  9.49581E-01  9.83883E-01 -3.43022E-02
    9111.775    117.417   5.720  9.49854E-01  9.84045E-01 -3.41912E-02
    9113.525    119.166   5.760  9.50859E-01  9.84176E-01 -3.33173E-02
    9115.287    120.928   5.800  9.52424E-01  9.84301E-01 -3.18765E-02
    9117.060    122.702   5.840  9.54223E-01  9.84414E-01 -3.01910E-02
    9118.847    124.488   5.880  9.55806E-01  9.84470E-01 -2.86635E-02
    9120.645    126.286   5.920  9.56840E-01  9.84514E-01 -2.76736E-02
    9122.455    128.097   5.960  9.57166E-01  9.84520E-01 -2.73539E-02
    9124.278    129.920   6.000  9.57138E-01  9.84506E-01 -2.73673E-02
