# # comment:                                                     FEFF 9.9.1  
# # Source:
# # Structure
# # Reduced
# # space
# # abc:
# # angles:
# # sites:
# # POT  SCF 100  7.0000   0, screened core-hole, AFOLP (folp(0)= 1.150)
# # Abs   Z=29 Rmt= 1.302 Rnm= 1.365 K  shell
# # Pot 1 Z=29 Rmt= 1.293 Rnm= 1.358
# # Pot 2 Z= 1 Rmt= 0.672 Rnm= 0.788
# # Pot 3 Z= 6 Rmt= 0.780 Rnm= 0.978
# # Pot 4 Z= 8 Rmt= 0.803 Rnm= 1.010
# # Gam_ch=1.729E+00 H-L exch Vi= 0.000E+00 Vr= 0.000E+00
# # Mu=-7.767E+00eV kf=2.656E+00 Vint=-1.809E+01eV Rs_int= 1.365
# FMS rfms= 9.0000
# # PATH  Rmax=-1.000,  Keep_limit= 0.00, Heap_limit 0.00  Pwcrit= 2.50%
#  S02=0.950  Temp=   0.00  Debye_temp=   0.00  Global_sig2= 0.00000
#  Energy zero shift, vr, vi    0.00000E+00   0.00000E+00
#  Curved wave amplitude ratio filter   4.000%
#     file         sig2 tot  cw amp ratio   deg  nlegs   reff  inp sig2
#     0/   0 paths used
#  xsedge+ 50, used to normalize mu           2.4927E-04
#  -----------------------------------------------------------------------
#  omega    e    k    mu    mu0     chi     @#
    8983.303    -11.577  -1.000  3.38436E-02  4.61992E-02 -1.23555E-02
    8983.602    -11.279  -0.960  3.54469E-02  4.93796E-02 -1.39327E-02
    8983.888    -10.992  -0.920  3.71572E-02  5.29035E-02 -1.57463E-02
    8984.163    -10.718  -0.880  3.89855E-02  5.68208E-02 -1.78353E-02
    8984.425    -10.456  -0.840  4.09443E-02  6.11899E-02 -2.02456E-02
    8984.675    -10.206  -0.800  4.30480E-02  6.60783E-02 -2.30303E-02
    8984.913     -9.968  -0.760  4.53131E-02  7.15635E-02 -2.62505E-02
    8985.138     -9.742  -0.720  4.77579E-02  7.77332E-02 -2.99753E-02
    8985.351     -9.529  -0.680  5.04022E-02  8.46836E-02 -3.42815E-02
    8985.553     -9.328  -0.640  5.32668E-02  9.25166E-02 -3.92499E-02
    8985.742     -9.139  -0.600  5.63711E-02  1.01332E-01 -4.49609E-02
    8985.918     -8.962  -0.560  5.97305E-02  1.11215E-01 -5.14842E-02
    8986.083     -8.798  -0.520  6.33509E-02  1.22215E-01 -5.88642E-02
    8986.235     -8.645  -0.480  6.72223E-02  1.34321E-01 -6.70986E-02
    8986.376     -8.505  -0.440  7.13109E-02  1.47426E-01 -7.61151E-02
    8986.504     -8.377  -0.400  7.55523E-02  1.61303E-01 -8.57510E-02
    8986.619     -8.261  -0.360  7.98496E-02  1.75596E-01 -9.57465E-02
    8986.723     -8.158  -0.320  8.40795E-02  1.89842E-01 -1.05762E-01
    8986.814     -8.066  -0.280  8.81062E-02  2.03526E-01 -1.15419E-01
    8986.894     -7.987  -0.240  9.17997E-02  2.16154E-01 -1.24354E-01
    8986.961     -7.920  -0.200  9.50516E-02  2.27313E-01 -1.32261E-01
    8987.016     -7.865  -0.160  9.77827E-02  2.36699E-01 -1.38916E-01
    8987.058     -7.822  -0.120  9.99427E-02  2.44119E-01 -1.44176E-01
    8987.089     -7.792  -0.080  1.01503E-01  2.49464E-01 -1.47961E-01
    8987.113     -7.767   0.000  1.02768E-01  2.53758E-01 -1.50990E-01
    8987.168     -7.713   0.120  1.05589E-01  2.63433E-01 -1.57844E-01
    8987.211     -7.670   0.160  1.07762E-01  2.70968E-01 -1.63206E-01
    8987.266     -7.615   0.200  1.10529E-01  2.80589E-01 -1.70061E-01
    8987.333     -7.548   0.240  1.13802E-01  2.92146E-01 -1.78344E-01
    8987.412     -7.469   0.280  1.17537E-01  3.05428E-01 -1.87891E-01
    8987.503     -7.377   0.320  1.21653E-01  3.20117E-01 -1.98464E-01
    8987.607     -7.274   0.360  1.26001E-01  3.35756E-01 -2.09755E-01
    8987.723     -7.158   0.400  1.30528E-01  3.51925E-01 -2.21397E-01
    8987.851     -7.030   0.440  1.35176E-01  3.68198E-01 -2.33022E-01
    8987.991     -6.890   0.480  1.40051E-01  3.84285E-01 -2.44235E-01
    8988.143     -6.737   0.520  1.45350E-01  3.99972E-01 -2.54623E-01
    8988.308     -6.573   0.560  1.51391E-01  4.15190E-01 -2.63798E-01
    8988.485     -6.396   0.600  1.58562E-01  4.29915E-01 -2.71353E-01
    8988.674     -6.207   0.640  1.67258E-01  4.44201E-01 -2.76943E-01
    8988.875     -6.006   0.680  1.77959E-01  4.58105E-01 -2.80146E-01
    8989.088     -5.792   0.720  1.91270E-01  4.71741E-01 -2.80471E-01
    8989.314     -5.567   0.760  2.07868E-01  4.85177E-01 -2.77310E-01
    8989.552     -5.329   0.800  2.28368E-01  4.98519E-01 -2.70151E-01
    8989.802     -5.079   0.840  2.52715E-01  5.11781E-01 -2.59066E-01
    8990.064     -4.817   0.880  2.79829E-01  5.25083E-01 -2.45254E-01
    8990.338     -4.543   0.920  3.07285E-01  5.38420E-01 -2.31134E-01
    8990.624     -4.256   0.960  3.32299E-01  5.51833E-01 -2.19534E-01
    8990.923     -3.957   1.000  3.53670E-01  5.65377E-01 -2.11707E-01
    8991.234     -3.647   1.040  3.73212E-01  5.79037E-01 -2.05825E-01
    8991.557     -3.323   1.080  3.94602E-01  5.92834E-01 -1.98232E-01
    8991.892     -2.988   1.120  4.20126E-01  6.06763E-01 -1.86637E-01
    8992.240     -2.641   1.160  4.49069E-01  6.20834E-01 -1.71764E-01
    8992.600     -2.281   1.200  4.78112E-01  6.35031E-01 -1.56919E-01
    8992.971     -1.909   1.240  5.03965E-01  6.49355E-01 -1.45391E-01
    8993.355     -1.525   1.280  5.28259E-01  6.63767E-01 -1.35508E-01
    8993.752     -1.129   1.320  5.58470E-01  6.78282E-01 -1.19811E-01
    8994.160     -0.720   1.360  6.01435E-01  6.92833E-01 -9.13977E-02
    8994.581     -0.300   1.400  6.59124E-01  7.07431E-01 -4.83077E-02
    8995.014      0.133   1.440  7.28230E-01  7.22026E-01  6.20406E-03
    8995.459      0.578   1.480  8.02899E-01  7.36588E-01  6.63113E-02
    8995.916      1.035   1.520  8.80666E-01  7.51102E-01  1.29563E-01
    8996.385      1.505   1.560  9.60173E-01  7.65535E-01  1.94637E-01
    8996.867      1.986   1.600  1.03025E+00  7.79833E-01  2.50420E-01
    8997.361      2.480   1.640  1.07581E+00  7.93998E-01  2.81814E-01
    8997.866      2.986   1.680  1.09495E+00  8.07958E-01  2.86990E-01
    8998.385      3.504   1.720  1.09993E+00  8.21695E-01  2.78231E-01
    8998.915      4.034   1.760  1.10281E+00  8.35193E-01  2.67621E-01
    8999.458      4.577   1.800  1.11096E+00  8.48376E-01  2.62587E-01
    9000.012      5.132   1.840  1.12379E+00  8.61250E-01  2.62544E-01
    9000.579      5.699   1.880  1.13198E+00  8.73779E-01  2.58200E-01
    9001.158      6.278   1.920  1.12924E+00  8.85908E-01  2.43329E-01
    9001.750      6.869   1.960  1.11677E+00  8.97623E-01  2.19144E-01
    9002.353      7.473   2.000  1.10109E+00  9.08894E-01  1.92191E-01
    9002.969      8.088   2.040  1.09169E+00  9.19729E-01  1.71966E-01
    9003.597      8.716   2.080  1.09379E+00  9.30054E-01  1.63733E-01
    9004.237      9.356   2.120  1.10430E+00  9.39884E-01  1.64412E-01
    9004.889     10.008   2.160  1.11526E+00  9.49211E-01  1.66044E-01
    9005.554     10.673   2.200  1.11729E+00  9.57987E-01  1.59304E-01
    9006.230     11.350   2.240  1.10575E+00  9.66228E-01  1.39523E-01
    9006.919     12.038   2.280  1.08469E+00  9.73929E-01  1.10759E-01
    9007.620     12.739   2.320  1.06001E+00  9.81049E-01  7.89580E-02
    9008.333     13.453   2.360  1.03510E+00  9.87649E-01  4.74545E-02
    9009.059     14.178   2.400  1.01644E+00  9.93668E-01  2.27732E-02
    9009.796     14.916   2.440  1.00850E+00  9.99150E-01  9.35135E-03
    9010.546     15.666   2.480  1.00950E+00  1.00410E+00  5.40573E-03
    9011.308     16.428   2.520  1.02141E+00  1.00850E+00  1.29120E-02
    9012.082     17.202   2.560  1.04917E+00  1.01239E+00  3.67721E-02
    9012.869     17.988   2.600  1.08450E+00  1.01577E+00  6.87241E-02
    9013.667     18.787   2.640  1.10983E+00  1.01867E+00  9.11587E-02
    9014.478     19.597   2.680  1.11650E+00  1.02110E+00  9.54004E-02
    9015.301     20.420   2.720  1.10241E+00  1.02307E+00  7.93368E-02
    9016.136     21.256   2.760  1.06699E+00  1.02462E+00  4.23683E-02
    9016.983     22.103   2.800  1.01849E+00  1.02576E+00 -7.27024E-03
    9017.843     22.962   2.840  9.70596E-01  1.02651E+00 -5.59154E-02
    9018.715     23.834   2.880  9.31267E-01  1.02690E+00 -9.56289E-02
    9019.599     24.718   2.920  9.02358E-01  1.02695E+00 -1.24591E-01
    9020.495     25.614   2.960  8.83482E-01  1.02668E+00 -1.43202E-01
    9021.403     26.522   3.000  8.71996E-01  1.02613E+00 -1.54138E-01
    9022.324     27.443   3.040  8.70827E-01  1.02533E+00 -1.54504E-01
    9023.256     28.376   3.080  8.73379E-01  1.02429E+00 -1.50908E-01
    9024.201     29.321   3.120  8.77384E-01  1.02301E+00 -1.45629E-01
    9025.158     30.278   3.160  8.82882E-01  1.02156E+00 -1.38681E-01
    9026.127     31.247   3.200  8.89720E-01  1.01995E+00 -1.30229E-01
    9027.109     32.228   3.240  8.97853E-01  1.01818E+00 -1.20325E-01
    9028.103     33.222   3.280  9.07551E-01  1.01629E+00 -1.08734E-01
    9029.108     34.228   3.320  9.19046E-01  1.01430E+00 -9.52531E-02
    9030.126     35.246   3.360  9.32390E-01  1.01221E+00 -7.98203E-02
    9031.157     36.276   3.400  9.47479E-01  1.01007E+00 -6.25913E-02
    9032.199     37.318   3.440  9.63878E-01  1.00791E+00 -4.40303E-02
    9033.254     38.373   3.480  9.80867E-01  1.00569E+00 -2.48229E-02
    9034.320     39.440   3.520  9.97666E-01  1.00347E+00 -5.79888E-03
    9035.399     40.519   3.560  1.01299E+00  1.00126E+00  1.17317E-02
    9036.491     41.610   3.600  1.02510E+00  9.99067E-01  2.60304E-02
    9037.594     42.713   3.640  1.03257E+00  9.96886E-01  3.56797E-02
    9038.710     43.829   3.680  1.03488E+00  9.94767E-01  4.01097E-02
    9039.837     44.957   3.720  1.03250E+00  9.92715E-01  3.97840E-02
    9040.977     46.097   3.760  1.02672E+00  9.90715E-01  3.60043E-02
    9042.129     47.249   3.800  1.01909E+00  9.88770E-01  3.03204E-02
    9043.294     48.413   3.840  1.01099E+00  9.86929E-01  2.40629E-02
    9044.470     49.590   3.880  1.00338E+00  9.85193E-01  1.81906E-02
    9045.659     50.778   3.920  9.96801E-01  9.83544E-01  1.32561E-02
    9046.860     51.979   3.960  9.91552E-01  9.81986E-01  9.56637E-03
    9048.073     53.192   4.000  9.87808E-01  9.80541E-01  7.26751E-03
    9049.298     54.418   4.040  9.85572E-01  9.79213E-01  6.35917E-03
    9050.536     55.655   4.080  9.84791E-01  9.78002E-01  6.78826E-03
    9051.785     56.905   4.120  9.85405E-01  9.76912E-01  8.49311E-03
    9053.047     58.167   4.160  9.87396E-01  9.75940E-01  1.14562E-02
    9054.321     59.441   4.200  9.90763E-01  9.75088E-01  1.56744E-02
    9055.608     60.727   4.240  9.95418E-01  9.74358E-01  2.10609E-02
    9056.906     62.025   4.280  1.00116E+00  9.73747E-01  2.74158E-02
    9058.217     63.336   4.320  1.00766E+00  9.73255E-01  3.44089E-02
    9059.539     64.659   4.360  1.01443E+00  9.72885E-01  4.15467E-02
    9060.874     65.994   4.400  1.02081E+00  9.72632E-01  4.81760E-02
    9062.222     67.341   4.440  1.02617E+00  9.72498E-01  5.36705E-02
    9063.581     68.701   4.480  1.02999E+00  9.72482E-01  5.75101E-02
    9064.953     70.072   4.520  1.03199E+00  9.72581E-01  5.94092E-02
    9066.336     71.456   4.560  1.03216E+00  9.72772E-01  5.93882E-02
    9067.732     72.852   4.600  1.03067E+00  9.73072E-01  5.75956E-02
    9069.141     74.260   4.640  1.02763E+00  9.73460E-01  5.41715E-02
    9070.561     75.680   4.680  1.02312E+00  9.73953E-01  4.91644E-02
    9071.994     77.113   4.720  1.01699E+00  9.74507E-01  4.24840E-02
    9073.438     78.558   4.760  1.00924E+00  9.75160E-01  3.40764E-02
    9074.895     80.015   4.800  1.00000E+00  9.75868E-01  2.41320E-02
    9076.364     81.484   4.840  9.89810E-01  9.76648E-01  1.31620E-02
    9077.846     82.965   4.880  9.79447E-01  9.77477E-01  1.96941E-03
    9079.339     84.459   4.920  9.69805E-01  9.78374E-01 -8.56874E-03
    9080.845     85.964   4.960  9.61584E-01  9.79312E-01 -1.77283E-02
    9082.363     87.482   5.000  9.55177E-01  9.80287E-01 -2.51097E-02
    9083.893     89.012   5.040  9.50497E-01  9.81275E-01 -3.07777E-02
    9085.435     90.555   5.080  9.47179E-01  9.82291E-01 -3.51124E-02
    9086.990     92.109   5.120  9.44672E-01  9.83313E-01 -3.86409E-02
    9088.556     93.676   5.160  9.42511E-01  9.84337E-01 -4.18265E-02
    9090.135     95.255   5.200  9.40462E-01  9.85381E-01 -4.49186E-02
    9091.726     96.846   5.240  9.38401E-01  9.86376E-01 -4.79751E-02
    9093.329     98.449   5.280  9.36522E-01  9.87383E-01 -5.08610E-02
    9094.945    100.064   5.320  9.35022E-01  9.88356E-01 -5.33340E-02
    9096.573    101.692   5.360  9.34212E-01  9.89268E-01 -5.50560E-02
    9098.212    103.332   5.400  9.34513E-01  9.90162E-01 -5.56485E-02
    9099.864    104.984   5.440  9.36278E-01  9.91012E-01 -5.47345E-02
    9101.529    106.648   5.480  9.39740E-01  9.91796E-01 -5.20563E-02
    9103.205    108.324   5.520  9.44970E-01  9.92532E-01 -4.75617E-02
    9104.894    110.013   5.560  9.51734E-01  9.93216E-01 -4.14825E-02
    9106.594    111.714   5.600  9.59578E-01  9.93802E-01 -3.42237E-02
    9108.307    113.427   5.640  9.68090E-01  9.94330E-01 -2.62409E-02
    9110.032    115.152   5.680  9.76858E-01  9.94759E-01 -1.79011E-02
    9111.770    116.889   5.720  9.85679E-01  9.95129E-01 -9.44985E-03
    9113.519    118.639   5.760  9.94367E-01  9.95419E-01 -1.05211E-03
    9115.281    120.400   5.800  1.00269E+00  9.95603E-01  7.08793E-03
    9117.055    122.174   5.840  1.01038E+00  9.95703E-01  1.46739E-02
    9118.841    123.961   5.880  1.01705E+00  9.95720E-01  2.13310E-02
    9120.639    125.759   5.920  1.02232E+00  9.95653E-01  2.66704E-02
    9122.450    127.569   5.960  1.02577E+00  9.95466E-01  3.03079E-02
    9124.273    129.392   6.000  1.02700E+00  9.95165E-01  3.18331E-02
