# # comment:                                                     FEFF 9.9.1  
# # Source:
# # Structure
# # Reduced
# # space
# # abc:
# # angles:
# # sites:
# # POT  SCF 100  7.0000   0, screened core-hole, AFOLP (folp(0)= 1.150)
# # Abs   Z=29 Rmt= 1.377 Rnm= 1.414 K  shell
# # Pot 1 Z=29 Rmt= 1.366 Rnm= 1.403
# # Pot 2 Z= 8 Rmt= 0.922 Rnm= 1.057
# # Gam_ch=1.729E+00 H-L exch Vi= 0.000E+00 Vr= 0.000E+00
# # Mu=-7.873E+00eV kf=1.994E+00 Vint=-1.645E+01eV Rs_int= 1.819
# FMS rfms= 9.0000
# # PATH  Rmax=-1.000,  Keep_limit= 0.00, Heap_limit 0.00  Pwcrit= 2.50%
#  S02=0.950  Temp=   0.00  Debye_temp=   0.00  Global_sig2= 0.00000
#  Energy zero shift, vr, vi    0.00000E+00   0.00000E+00
#  Curved wave amplitude ratio filter   4.000%
#     file         sig2 tot  cw amp ratio   deg  nlegs   reff  inp sig2
#     0/   0 paths used
#  xsedge+ 50, used to normalize mu           2.4609E-04
#  -----------------------------------------------------------------------
#  omega    e    k    mu    mu0     chi     @#
    8984.525    -11.683  -1.000  5.04939E-02  5.77247E-02 -7.23080E-03
    8984.824    -11.384  -0.960  5.40895E-02  6.20551E-02 -7.96560E-03
    8985.110    -11.098  -0.920  5.80883E-02  6.68779E-02 -8.78959E-03
    8985.385    -10.823  -0.880  6.25510E-02  7.22664E-02 -9.71535E-03
    8985.647    -10.561  -0.840  6.75484E-02  7.83059E-02 -1.07575E-02
    8985.897    -10.311  -0.800  7.31625E-02  8.50954E-02 -1.19329E-02
    8986.134    -10.074  -0.760  7.94876E-02  9.27486E-02 -1.32610E-02
    8986.360     -9.848  -0.720  8.66303E-02  1.01394E-01 -1.47637E-02
    8986.573     -9.635  -0.680  9.47079E-02  1.11173E-01 -1.64652E-02
    8986.774     -9.433  -0.640  1.03845E-01  1.22236E-01 -1.83912E-02
    8986.963     -9.244  -0.600  1.14162E-01  1.34729E-01 -2.05667E-02
    8987.140     -9.068  -0.560  1.25766E-01  1.48778E-01 -2.30126E-02
    8987.305     -8.903  -0.520  1.38720E-01  1.64460E-01 -2.57402E-02
    8987.457     -8.751  -0.480  1.53014E-01  1.81758E-01 -2.87433E-02
    8987.597     -8.611  -0.440  1.68531E-01  2.00520E-01 -3.19891E-02
    8987.725     -8.482  -0.400  1.85007E-01  2.20418E-01 -3.54114E-02
    8987.841     -8.367  -0.360  2.02027E-01  2.40936E-01 -3.89091E-02
    8987.945     -8.263  -0.320  2.19046E-01  2.61401E-01 -4.23549E-02
    8988.036     -8.172  -0.280  2.35454E-01  2.81068E-01 -4.56135E-02
    8988.116     -8.092  -0.240  2.50656E-01  2.99219E-01 -4.85633E-02
    8988.183     -8.025  -0.200  2.64145E-01  3.15258E-01 -5.11131E-02
    8988.237     -7.970  -0.160  2.75537E-01  3.28745E-01 -5.32076E-02
    8988.280     -7.928  -0.120  2.84580E-01  3.39403E-01 -5.48231E-02
    8988.311     -7.897  -0.080  2.91121E-01  3.47079E-01 -5.59578E-02
    8988.335     -7.873   0.000  2.96406E-01  3.53243E-01 -5.68367E-02
    8988.390     -7.818   0.120  3.08215E-01  3.67130E-01 -5.89154E-02
    8988.433     -7.775   0.160  3.17459E-01  3.77944E-01 -6.04852E-02
    8988.487     -7.721   0.200  3.29265E-01  3.91704E-01 -6.24396E-02
    8988.554     -7.653   0.240  3.43569E-01  4.08259E-01 -6.46897E-02
    8988.634     -7.574   0.280  3.60106E-01  4.27248E-01 -6.71415E-02
    8988.725     -7.483   0.320  3.78499E-01  4.48154E-01 -6.96549E-02
    8988.829     -7.379   0.360  3.98269E-01  4.70384E-01 -7.21146E-02
    8988.945     -7.263   0.400  4.18785E-01  4.93221E-01 -7.44357E-02
    8989.073     -7.135   0.440  4.39451E-01  5.16087E-01 -7.66361E-02
    8989.213     -6.995   0.480  4.59659E-01  5.38519E-01 -7.88599E-02
    8989.365     -6.843   0.520  4.78765E-01  5.60159E-01 -8.13941E-02
    8989.530     -6.678   0.560  4.96215E-01  5.80887E-01 -8.46722E-02
    8989.707     -6.501   0.600  5.11385E-01  6.00644E-01 -8.92590E-02
    8989.896     -6.312   0.640  5.23670E-01  6.19469E-01 -9.57998E-02
    8990.097     -6.111   0.680  5.32486E-01  6.37467E-01 -1.04980E-01
    8990.310     -5.898   0.720  5.37284E-01  6.54692E-01 -1.17408E-01
    8990.536     -5.672   0.760  5.37864E-01  6.71283E-01 -1.33419E-01
    8990.773     -5.435   0.800  5.34415E-01  6.87285E-01 -1.52870E-01
    8991.023     -5.185   0.840  5.27870E-01  7.02789E-01 -1.74920E-01
    8991.285     -4.922   0.880  5.19841E-01  7.17831E-01 -1.97991E-01
    8991.560     -4.648   0.920  5.12517E-01  7.32454E-01 -2.19937E-01
    8991.846     -4.362   0.960  5.08351E-01  7.46687E-01 -2.38336E-01
    8992.145     -4.063   1.000  5.09676E-01  7.60527E-01 -2.50851E-01
    8992.456     -3.752   1.040  5.18284E-01  7.74003E-01 -2.55720E-01
    8992.779     -3.429   1.080  5.34788E-01  7.87098E-01 -2.52310E-01
    8993.114     -3.094   1.120  5.58266E-01  7.99785E-01 -2.41519E-01
    8993.462     -2.746   1.160  5.86752E-01  8.12095E-01 -2.25343E-01
    8993.821     -2.387   1.200  6.18262E-01  8.23994E-01 -2.05733E-01
    8994.193     -2.015   1.240  6.50995E-01  8.35469E-01 -1.84475E-01
    8994.577     -1.631   1.280  6.81936E-01  8.46522E-01 -1.64585E-01
    8994.974     -1.234   1.320  7.06910E-01  8.57114E-01 -1.50203E-01
    8995.382     -0.826   1.360  7.23954E-01  8.67246E-01 -1.43292E-01
    8995.803     -0.405   1.400  7.35974E-01  8.76921E-01 -1.40947E-01
    8996.235      0.027   1.440  7.48866E-01  8.86120E-01 -1.37254E-01
    8996.680      0.472   1.480  7.67718E-01  8.94846E-01 -1.27128E-01
    8997.138      0.930   1.520  7.95574E-01  9.03079E-01 -1.07506E-01
    8997.607      1.399   1.560  8.34746E-01  9.10845E-01 -7.60992E-02
    8998.089      1.881   1.600  8.87254E-01  9.18129E-01 -3.08756E-02
    8998.582      2.374   1.640  9.53000E-01  9.24956E-01  2.80434E-02
    8999.088      2.880   1.680  1.02619E+00  9.31311E-01  9.48809E-02
    8999.606      3.399   1.720  1.09359E+00  9.37224E-01  1.56367E-01
    9000.137      3.929   1.760  1.14034E+00  9.42699E-01  1.97645E-01
    9000.679      4.471   1.800  1.16212E+00  9.47745E-01  2.14375E-01
    9001.234      5.026   1.840  1.16588E+00  9.52375E-01  2.13506E-01
    9001.801      5.593   1.880  1.15745E+00  9.56614E-01  2.00838E-01
    9002.380      6.172   1.920  1.13746E+00  9.60495E-01  1.76968E-01
    9002.971      6.764   1.960  1.10788E+00  9.64009E-01  1.43876E-01
    9003.575      7.367   2.000  1.07473E+00  9.67184E-01  1.07545E-01
    9004.191      7.983   2.040  1.04469E+00  9.70053E-01  7.46368E-02
    9004.819      8.611   2.080  1.02330E+00  9.72627E-01  5.06721E-02
    9005.459      9.251   2.120  1.01623E+00  9.74935E-01  4.12903E-02
    9006.111      9.903   2.160  1.02884E+00  9.76968E-01  5.18763E-02
    9006.775     10.567   2.200  1.06080E+00  9.78777E-01  8.20201E-02
    9007.452     11.244   2.240  1.09893E+00  9.80371E-01  1.18556E-01
    9008.141     11.933   2.280  1.12234E+00  9.81760E-01  1.40579E-01
    9008.842     12.634   2.320  1.12382E+00  9.82952E-01  1.40869E-01
    9009.555     13.347   2.360  1.11432E+00  9.83999E-01  1.30323E-01
    9010.280     14.073   2.400  1.09745E+00  9.84909E-01  1.12545E-01
    9011.018     14.810   2.440  1.06724E+00  9.85671E-01  8.15649E-02
    9011.768     15.560   2.480  1.03161E+00  9.86332E-01  4.52778E-02
    9012.530     16.322   2.520  9.94208E-01  9.86878E-01  7.32993E-03
    9013.304     17.096   2.560  9.60538E-01  9.87360E-01 -2.68223E-02
    9014.090     17.883   2.600  9.33680E-01  9.87740E-01 -5.40605E-02
    9014.889     18.681   2.640  9.15227E-01  9.88087E-01 -7.28599E-02
    9015.700     19.492   2.680  9.05521E-01  9.88365E-01 -8.28435E-02
    9016.523     20.315   2.720  9.03284E-01  9.88599E-01 -8.53148E-02
    9017.358     21.150   2.760  9.06897E-01  9.88794E-01 -8.18964E-02
    9018.205     21.997   2.800  9.13769E-01  9.88974E-01 -7.52054E-02
    9019.065     22.857   2.840  9.22234E-01  9.89126E-01 -6.68919E-02
    9019.937     23.729   2.880  9.31362E-01  9.89291E-01 -5.79288E-02
    9020.820     24.613   2.920  9.40739E-01  9.89431E-01 -4.86921E-02
    9021.717     25.509   2.960  9.50466E-01  9.89571E-01 -3.91050E-02
    9022.625     26.417   3.000  9.60992E-01  9.89734E-01 -2.87421E-02
    9023.545     27.337   3.040  9.72561E-01  9.89899E-01 -1.73385E-02
    9024.478     28.270   3.080  9.85035E-01  9.90072E-01 -5.03647E-03
    9025.423     29.215   3.120  9.98148E-01  9.90272E-01  7.87578E-03
    9026.380     30.172   3.160  1.01112E+00  9.90479E-01  2.06439E-02
    9027.349     31.141   3.200  1.02313E+00  9.90717E-01  3.24111E-02
    9028.331     32.123   3.240  1.03309E+00  9.90987E-01  4.21008E-02
    9029.324     33.116   3.280  1.04009E+00  9.91266E-01  4.88267E-02
    9030.330     34.122   3.320  1.04364E+00  9.91577E-01  5.20601E-02
    9031.348     35.140   3.360  1.04341E+00  9.91897E-01  5.15095E-02
    9032.378     36.171   3.400  1.03914E+00  9.92248E-01  4.68930E-02
    9033.421     37.213   3.440  1.03106E+00  9.92631E-01  3.84296E-02
    9034.475     38.268   3.480  1.01967E+00  9.93024E-01  2.66467E-02
    9035.542     39.334   3.520  1.00589E+00  9.93446E-01  1.24472E-02
    9036.621     40.413   3.560  9.90863E-01  9.93877E-01 -3.01465E-03
    9037.712     41.504   3.600  9.75795E-01  9.94336E-01 -1.85409E-02
    9038.816     42.608   3.640  9.61553E-01  9.94800E-01 -3.32472E-02
    9039.931     43.723   3.680  9.48885E-01  9.95270E-01 -4.63854E-02
    9041.059     44.851   3.720  9.38536E-01  9.95766E-01 -5.72292E-02
    9042.199     45.991   3.760  9.31235E-01  9.96265E-01 -6.50296E-02
    9043.351     47.143   3.800  9.27576E-01  9.96767E-01 -6.91912E-02
    9044.515     48.308   3.840  9.27700E-01  9.97292E-01 -6.95920E-02
    9045.692     49.484   3.880  9.30973E-01  9.97795E-01 -6.68216E-02
    9046.881     50.673   3.920  9.36283E-01  9.98317E-01 -6.20340E-02
    9048.082     51.874   3.960  9.42494E-01  9.98816E-01 -5.63218E-02
    9049.295     53.087   4.000  9.49007E-01  9.99309E-01 -5.03016E-02
    9050.520     54.312   4.040  9.55659E-01  9.99796E-01 -4.41372E-02
    9051.758     55.550   4.080  9.62447E-01  1.00028E+00 -3.78303E-02
    9053.007     56.799   4.120  9.69266E-01  1.00073E+00 -3.14654E-02
    9054.269     58.061   4.160  9.75926E-01  1.00118E+00 -2.52492E-02
    9055.543     59.335   4.200  9.82002E-01  1.00161E+00 -1.96094E-02
    9056.829     60.621   4.240  9.87033E-01  1.00202E+00 -1.49838E-02
    9058.128     61.920   4.280  9.91015E-01  1.00241E+00 -1.13940E-02
    9059.438     63.231   4.320  9.94613E-01  1.00277E+00 -8.15436E-03
    9060.761     64.553   4.360  9.98958E-01  1.00309E+00 -4.13335E-03
    9062.096     65.888   4.400  1.00481E+00  1.00340E+00  1.41380E-03
    9063.443     67.236   4.440  1.01197E+00  1.00367E+00  8.29437E-03
    9064.803     68.595   4.480  1.01962E+00  1.00391E+00  1.57077E-02
    9066.174     69.967   4.520  1.02721E+00  1.00413E+00  2.30771E-02
    9067.558     71.350   4.560  1.03496E+00  1.00432E+00  3.06458E-02
    9068.954     72.746   4.600  1.04376E+00  1.00447E+00  3.92887E-02
    9070.362     74.155   4.640  1.05440E+00  1.00458E+00  4.98284E-02
    9071.783     75.575   4.680  1.06724E+00  1.00467E+00  6.25711E-02
    9073.215     77.007   4.720  1.08193E+00  1.00470E+00  7.72260E-02
    9074.660     78.452   4.760  1.09774E+00  1.00472E+00  9.30173E-02
    9076.117     79.909   4.800  1.11357E+00  1.00470E+00  1.08873E-01
    9077.586     81.378   4.840  1.12797E+00  1.00466E+00  1.23301E-01
    9079.067     82.860   4.880  1.13837E+00  1.00457E+00  1.33801E-01
    9080.561     84.353   4.920  1.14114E+00  1.00446E+00  1.36676E-01
    9082.067     85.859   4.960  1.13269E+00  1.00432E+00  1.28373E-01
    9083.585     87.377   5.000  1.11186E+00  1.00416E+00  1.07698E-01
    9085.115     88.907   5.040  1.08087E+00  1.00397E+00  7.68954E-02
    9086.657     90.449   5.080  1.04460E+00  1.00374E+00  4.08520E-02
    9088.211     92.004   5.120  1.00851E+00  1.00350E+00  5.00648E-03
    9089.778     93.570   5.160  9.76498E-01  1.00323E+00 -2.67338E-02
    9091.357     95.149   5.200  9.50077E-01  1.00293E+00 -5.28476E-02
    9092.948     96.740   5.240  9.28866E-01  1.00261E+00 -7.37432E-02
    9094.551     98.343   5.280  9.11318E-01  1.00229E+00 -9.09678E-02
    9096.167     99.959   5.320  8.95781E-01  1.00193E+00 -1.06152E-01
    9097.794    101.586   5.360  8.81416E-01  1.00157E+00 -1.20158E-01
    9099.434    103.226   5.400  8.68566E-01  1.00121E+00 -1.32640E-01
    9101.086    104.878   5.440  8.58549E-01  1.00081E+00 -1.42262E-01
    9102.750    106.542   5.480  8.52760E-01  1.00041E+00 -1.47651E-01
    9104.427    108.219   5.520  8.51802E-01  1.00001E+00 -1.48206E-01
    9106.115    109.907   5.560  8.55742E-01  9.99600E-01 -1.43858E-01
    9107.816    111.608   5.600  8.64833E-01  9.99169E-01 -1.34335E-01
    9109.529    113.321   5.640  8.78947E-01  9.98757E-01 -1.19810E-01
    9111.254    115.046   5.680  8.96680E-01  9.98324E-01 -1.01644E-01
    9112.992    116.784   5.720  9.16491E-01  9.97912E-01 -8.14209E-02
    9114.741    118.533   5.760  9.38176E-01  9.97479E-01 -5.93032E-02
    9116.503    120.295   5.800  9.62842E-01  9.97069E-01 -3.42273E-02
    9118.277    122.069   5.840  9.90873E-01  9.96640E-01 -5.76751E-03
    9120.063    123.855   5.880  1.02106E+00  9.96241E-01  2.48225E-02
    9121.861    125.653   5.920  1.05046E+00  9.95848E-01  5.46137E-02
    9123.672    127.464   5.960  1.07457E+00  9.95444E-01  7.91245E-02
    9125.494    129.287   6.000  1.08980E+00  9.95074E-01  9.47261E-02
