# # comment:                                                     FEFF 9.9.1  
# # Source:
# # Structure
# # Reduced
# # space
# # abc:
# # angles:
# # sites:
# # POT  SCF 100  7.0000   0, screened core-hole, AFOLP (folp(0)= 1.150)
# # Abs   Z=29 Rmt= 1.165 Rnm= 1.278 K  shell
# # Pot 1 Z=56 Rmt= 1.942 Rnm= 1.992
# # Pot 2 Z=60 Rmt= 1.803 Rnm= 1.871
# # Pot 3 Z=29 Rmt= 1.165 Rnm= 1.278
# # Pot 4 Z= 8 Rmt= 1.080 Rnm= 1.129
# # Gam_ch=1.729E+00 H-L exch Vi= 0.000E+00 Vr= 0.000E+00
# # Mu=-9.026E+00eV kf=1.980E+00 Vint=-1.806E+01eV Rs_int= 1.832
# FMS rfms= 9.0000
# # PATH  Rmax=-1.000,  Keep_limit= 0.00, Heap_limit 0.00  Pwcrit= 2.50%
#  S02=0.950  Temp=   0.00  Debye_temp=   0.00  Global_sig2= 0.00000
#  Energy zero shift, vr, vi    0.00000E+00   0.00000E+00
#  Curved wave amplitude ratio filter   4.000%
#     file         sig2 tot  cw amp ratio   deg  nlegs   reff  inp sig2
#     0/   0 paths used
#  xsedge+ 50, used to normalize mu           2.4529E-04
#  -----------------------------------------------------------------------
#  omega    e    k    mu    mu0     chi     @#
    8985.219    -12.836  -1.000  3.85488E-02  5.64766E-02 -1.79277E-02
    8985.518    -12.538  -0.960  4.07333E-02  6.06299E-02 -1.98966E-02
    8985.804    -12.251  -0.920  4.31317E-02  6.52484E-02 -2.21167E-02
    8986.078    -11.977  -0.880  4.57785E-02  7.04007E-02 -2.46221E-02
    8986.341    -11.715  -0.840  4.87152E-02  7.61667E-02 -2.74515E-02
    8986.590    -11.465  -0.800  5.19913E-02  8.26391E-02 -3.06478E-02
    8986.828    -11.227  -0.760  5.56659E-02  8.99242E-02 -3.42583E-02
    8987.054    -11.002  -0.720  5.98080E-02  9.81422E-02 -3.83343E-02
    8987.267    -10.788  -0.680  6.44963E-02  1.07426E-01 -4.29292E-02
    8987.468    -10.587  -0.640  6.98168E-02  1.17914E-01 -4.80970E-02
    8987.657    -10.398  -0.600  7.58570E-02  1.29745E-01 -5.38876E-02
    8987.834    -10.221  -0.560  8.26941E-02  1.43035E-01 -6.03405E-02
    8987.999    -10.057  -0.520  9.03775E-02  1.57854E-01 -6.74767E-02
    8988.151     -9.904  -0.480  9.89017E-02  1.74188E-01 -7.52862E-02
    8988.291     -9.764  -0.440  1.08177E-01  1.91892E-01 -8.37154E-02
    8988.419     -9.636  -0.400  1.18003E-01  2.10659E-01 -9.26554E-02
    8988.535     -9.520  -0.360  1.28066E-01  2.30002E-01 -1.01936E-01
    8988.639     -9.417  -0.320  1.37962E-01  2.49291E-01 -1.11329E-01
    8988.730     -9.325  -0.280  1.47263E-01  2.67827E-01 -1.20564E-01
    8988.809     -9.246  -0.240  1.55589E-01  2.84936E-01 -1.29346E-01
    8988.876     -9.179  -0.200  1.62675E-01  3.00054E-01 -1.37379E-01
    8988.931     -9.124  -0.160  1.68386E-01  3.12771E-01 -1.44384E-01
    8988.974     -9.081  -0.120  1.72707E-01  3.22822E-01 -1.50115E-01
    8989.004     -9.051  -0.080  1.75687E-01  3.30062E-01 -1.54375E-01
    8989.029     -9.026   0.000  1.77939E-01  3.35878E-01 -1.57938E-01
    8989.084     -8.972   0.120  1.82769E-01  3.48991E-01 -1.66222E-01
    8989.126     -8.929   0.160  1.86364E-01  3.59195E-01 -1.72831E-01
    8989.181     -8.874   0.200  1.90556E-01  3.72192E-01 -1.81636E-01
    8989.248     -8.807   0.240  1.94979E-01  3.87844E-01 -1.92865E-01
    8989.328     -8.728   0.280  1.99086E-01  4.05795E-01 -2.06709E-01
    8989.419     -8.636   0.320  2.02278E-01  4.25605E-01 -2.23327E-01
    8989.523     -8.533   0.360  2.04012E-01  4.46683E-01 -2.42672E-01
    8989.638     -8.417   0.400  2.04015E-01  4.68421E-01 -2.64406E-01
    8989.766     -8.289   0.440  2.02415E-01  4.90243E-01 -2.87828E-01
    8989.907     -8.149   0.480  1.99755E-01  5.11719E-01 -3.11965E-01
    8990.059     -7.996   0.520  1.96823E-01  5.32556E-01 -3.35733E-01
    8990.224     -7.832   0.560  1.94460E-01  5.52627E-01 -3.58167E-01
    8990.400     -7.655   0.600  1.93317E-01  5.71897E-01 -3.78580E-01
    8990.589     -7.466   0.640  1.93876E-01  5.90407E-01 -3.96531E-01
    8990.791     -7.265   0.680  1.96474E-01  6.08234E-01 -4.11761E-01
    8991.004     -7.051   0.720  2.01446E-01  6.25494E-01 -4.24048E-01
    8991.230     -6.826   0.760  2.09244E-01  6.42255E-01 -4.33011E-01
    8991.467     -6.588   0.800  2.20616E-01  6.58622E-01 -4.38005E-01
    8991.717     -6.338   0.840  2.36589E-01  6.74661E-01 -4.38071E-01
    8991.979     -6.076   0.880  2.58432E-01  6.90405E-01 -4.31972E-01
    8992.254     -5.802   0.920  2.87652E-01  7.05893E-01 -4.18241E-01
    8992.540     -5.515   0.960  3.25639E-01  7.21172E-01 -3.95534E-01
    8992.839     -5.216   1.000  3.73021E-01  7.36217E-01 -3.63196E-01
    8993.150     -4.906   1.040  4.28340E-01  7.51072E-01 -3.22732E-01
    8993.473     -4.582   1.080  4.86189E-01  7.65695E-01 -2.79507E-01
    8993.808     -4.247   1.120  5.37511E-01  7.80099E-01 -2.42588E-01
    8994.156     -3.900   1.160  5.74161E-01  7.94247E-01 -2.20086E-01
    8994.515     -3.540   1.200  5.97738E-01  8.08142E-01 -2.10404E-01
    8994.887     -3.168   1.240  6.14521E-01  8.21741E-01 -2.07221E-01
    8995.271     -2.784   1.280  6.17871E-01  8.35001E-01 -2.17131E-01
    8995.667     -2.388   1.320  6.01800E-01  8.47938E-01 -2.46138E-01
    8996.076     -1.979   1.360  5.81345E-01  8.60524E-01 -2.79179E-01
    8996.496     -1.559   1.400  5.79122E-01  8.72691E-01 -2.93569E-01
    8996.929     -1.126   1.440  6.09117E-01  8.84453E-01 -2.75336E-01
    8997.374     -0.681   1.480  6.63417E-01  8.95761E-01 -2.32344E-01
    8997.831     -0.224   1.520  7.02451E-01  9.06632E-01 -2.04180E-01
    8998.301      0.246   1.560  7.11238E-01  9.17018E-01 -2.05781E-01
    8998.782      0.727   1.600  7.22289E-01  9.26914E-01 -2.04625E-01
    8999.276      1.221   1.640  7.55030E-01  9.36316E-01 -1.81285E-01
    8999.782      1.727   1.680  8.23367E-01  9.45202E-01 -1.21835E-01
    9000.300      2.245   1.720  9.40495E-01  9.53572E-01 -1.30768E-02
    9000.831      2.775   1.760  1.11236E+00  9.61425E-01  1.50937E-01
    9001.373      3.318   1.800  1.31527E+00  9.68761E-01  3.46510E-01
    9001.928      3.873   1.840  1.46515E+00  9.75584E-01  4.89567E-01
    9002.495      4.440   1.880  1.53154E+00  9.81897E-01  5.49640E-01
    9003.074      5.019   1.920  1.54114E+00  9.87683E-01  5.53457E-01
    9003.665      5.610   1.960  1.49295E+00  9.92990E-01  4.99959E-01
    9004.269      6.214   2.000  1.42624E+00  9.97823E-01  4.28414E-01
    9004.885      6.829   2.040  1.37169E+00  1.00217E+00  3.69519E-01
    9005.512      7.457   2.080  1.32120E+00  1.00606E+00  3.15140E-01
    9006.152      8.097   2.120  1.26751E+00  1.00952E+00  2.57985E-01
    9006.805      8.749   2.160  1.21158E+00  1.01256E+00  1.99013E-01
    9007.469      9.414   2.200  1.16238E+00  1.01520E+00  1.47181E-01
    9008.146     10.091   2.240  1.12623E+00  1.01745E+00  1.08785E-01
    9008.835     10.779   2.280  1.10122E+00  1.01933E+00  8.18904E-02
    9009.536     11.480   2.320  1.08344E+00  1.02088E+00  6.25562E-02
    9010.249     12.194   2.360  1.07128E+00  1.02212E+00  4.91622E-02
    9010.974     12.919   2.400  1.06846E+00  1.02304E+00  4.54146E-02
    9011.712     13.657   2.440  1.07788E+00  1.02368E+00  5.42008E-02
    9012.462     14.406   2.480  1.09854E+00  1.02409E+00  7.44542E-02
    9013.224     15.168   2.520  1.12315E+00  1.02422E+00  9.89244E-02
    9013.998     15.943   2.560  1.14077E+00  1.02415E+00  1.16624E-01
    9014.784     16.729   2.600  1.14356E+00  1.02389E+00  1.19668E-01
    9015.583     17.528   2.640  1.13129E+00  1.02344E+00  1.07856E-01
    9016.394     18.338   2.680  1.10962E+00  1.02282E+00  8.68063E-02
    9017.217     19.161   2.720  1.08574E+00  1.02206E+00  6.36795E-02
    9018.052     19.996   2.760  1.06418E+00  1.02116E+00  4.30211E-02
    9018.899     20.844   2.800  1.04575E+00  1.02016E+00  2.55970E-02
    9019.759     21.703   2.840  1.02983E+00  1.01907E+00  1.07642E-02
    9020.630     22.575   2.880  1.01528E+00  1.01789E+00 -2.60981E-03
    9021.514     23.459   2.920  1.00102E+00  1.01664E+00 -1.56195E-02
    9022.410     24.355   2.960  9.86468E-01  1.01534E+00 -2.88734E-02
    9023.319     25.263   3.000  9.71144E-01  1.01400E+00 -4.28562E-02
    9024.239     26.184   3.040  9.54596E-01  1.01264E+00 -5.80457E-02
    9025.172     27.117   3.080  9.36805E-01  1.01125E+00 -7.44474E-02
    9026.117     28.061   3.120  9.18769E-01  1.00983E+00 -9.10656E-02
    9027.074     29.019   3.160  9.01800E-01  1.00844E+00 -1.06638E-01
    9028.043     29.988   3.200  8.86610E-01  1.00704E+00 -1.20435E-01
    9029.025     30.969   3.240  8.73319E-01  1.00568E+00 -1.32361E-01
    9030.018     31.963   3.280  8.61857E-01  1.00433E+00 -1.42470E-01
    9031.024     32.969   3.320  8.52417E-01  1.00301E+00 -1.50594E-01
    9032.042     33.987   3.360  8.45620E-01  1.00176E+00 -1.56135E-01
    9033.072     35.017   3.400  8.42235E-01  1.00052E+00 -1.58286E-01
    9034.115     36.059   3.440  8.42698E-01  9.99349E-01 -1.56651E-01
    9035.169     37.114   3.480  8.47279E-01  9.98224E-01 -1.50945E-01
    9036.236     38.181   3.520  8.56139E-01  9.97148E-01 -1.41009E-01
    9037.315     39.260   3.560  8.69439E-01  9.96143E-01 -1.26704E-01
    9038.406     40.351   3.600  8.87140E-01  9.95210E-01 -1.08070E-01
    9039.510     41.454   3.640  9.08924E-01  9.94330E-01 -8.54063E-02
    9040.625     42.570   3.680  9.33717E-01  9.93526E-01 -5.98093E-02
    9041.753     43.698   3.720  9.59186E-01  9.92799E-01 -3.36134E-02
    9042.893     44.838   3.760  9.82285E-01  9.92150E-01 -9.86453E-03
    9044.045     45.990   3.800  1.00005E+00  9.91577E-01  8.47299E-03
    9045.209     47.154   3.840  1.01069E+00  9.91061E-01  1.96251E-02
    9046.386     48.331   3.880  1.01435E+00  9.90644E-01  2.37078E-02
    9047.575     49.519   3.920  1.01270E+00  9.90283E-01  2.24171E-02
    9048.776     50.720   3.960  1.00808E+00  9.89999E-01  1.80850E-02
    9049.989     51.933   4.000  1.00283E+00  9.89791E-01  1.30425E-02
    9051.214     53.159   4.040  9.99012E-01  9.89661E-01  9.35102E-03
    9052.451     54.396   4.080  9.98162E-01  9.89583E-01  8.57901E-03
    9053.701     55.646   4.120  1.00123E+00  9.89581E-01  1.16512E-02
    9054.963     56.908   4.160  1.00840E+00  9.89655E-01  1.87443E-02
    9056.237     58.182   4.200  1.01900E+00  9.89802E-01  2.91958E-02
    9057.523     59.468   4.240  1.03146E+00  9.90002E-01  4.14611E-02
    9058.822     60.766   4.280  1.04364E+00  9.90272E-01  5.33674E-02
    9060.132     62.077   4.320  1.05348E+00  9.90589E-01  6.28898E-02
    9061.455     63.400   4.360  1.05965E+00  9.90952E-01  6.87017E-02
    9062.790     64.735   4.400  1.06195E+00  9.91383E-01  7.05660E-02
    9064.137     66.082   4.440  1.06107E+00  9.91856E-01  6.92166E-02
    9065.497     67.441   4.480  1.05826E+00  9.92373E-01  6.58887E-02
    9066.868     68.813   4.520  1.05485E+00  9.92929E-01  6.19192E-02
    9068.252     70.197   4.560  1.05205E+00  9.93524E-01  5.85284E-02
    9069.648     71.593   4.600  1.05071E+00  9.94153E-01  5.65563E-02
    9071.056     73.001   4.640  1.05106E+00  9.94797E-01  5.62609E-02
    9072.477     74.421   4.680  1.05274E+00  9.95473E-01  5.72722E-02
    9073.909     75.854   4.720  1.05497E+00  9.96180E-01  5.87865E-02
    9075.354     77.299   4.760  1.05675E+00  9.96895E-01  5.98546E-02
    9076.811     78.756   4.800  1.05726E+00  9.97615E-01  5.96442E-02
    9078.280     80.225   4.840  1.05580E+00  9.98361E-01  5.74377E-02
    9079.761     81.706   4.880  1.05167E+00  9.99107E-01  5.25617E-02
    9081.255     83.200   4.920  1.04445E+00  9.99831E-01  4.46195E-02
    9082.761     84.705   4.960  1.03451E+00  1.00057E+00  3.39371E-02
    9084.278     86.223   5.000  1.02291E+00  1.00129E+00  2.16214E-02
    9085.809     87.753   5.040  1.01115E+00  1.00203E+00  9.12759E-03
    9087.351     89.296   5.080  1.00054E+00  1.00271E+00 -2.17021E-03
    9088.905     90.850   5.120  9.92180E-01  1.00340E+00 -1.12211E-02
    9090.472     92.417   5.160  9.86483E-01  1.00404E+00 -1.75564E-02
    9092.051     93.996   5.200  9.83242E-01  1.00467E+00 -2.14238E-02
    9093.642     95.587   5.240  9.81576E-01  1.00528E+00 -2.37018E-02
    9095.245     97.190   5.280  9.80286E-01  1.00583E+00 -2.55440E-02
    9096.861     98.805   5.320  9.78585E-01  1.00636E+00 -2.77787E-02
    9098.488    100.433   5.360  9.75834E-01  1.00683E+00 -3.10005E-02
    9100.128    102.073   5.400  9.72470E-01  1.00729E+00 -3.48154E-02
    9101.780    103.725   5.440  9.69214E-01  1.00767E+00 -3.84600E-02
    9103.444    105.389   5.480  9.66765E-01  1.00804E+00 -4.12740E-02
    9105.121    107.065   5.520  9.65311E-01  1.00834E+00 -4.30275E-02
    9106.809    108.754   5.560  9.64635E-01  1.00859E+00 -4.39555E-02
    9108.510    110.455   5.600  9.64354E-01  1.00877E+00 -4.44208E-02
    9110.223    112.168   5.640  9.64921E-01  1.00894E+00 -4.40149E-02
    9111.948    113.893   5.680  9.66517E-01  1.00903E+00 -4.25110E-02
    9113.685    115.630   5.720  9.68976E-01  1.00905E+00 -4.00717E-02
    9115.435    117.380   5.760  9.71541E-01  1.00902E+00 -3.74801E-02
    9117.197    119.141   5.800  9.73175E-01  1.00895E+00 -3.57771E-02
    9118.971    120.915   5.840  9.73280E-01  1.00884E+00 -3.55568E-02
    9120.757    122.701   5.880  9.72191E-01  1.00865E+00 -3.64622E-02
    9122.555    124.500   5.920  9.71134E-01  1.00842E+00 -3.72909E-02
    9124.366    126.310   5.960  9.71608E-01  1.00815E+00 -3.65402E-02
    9126.188    128.133   6.000  9.74669E-01  1.00776E+00 -3.30894E-02
