# # comment:                                                     FEFF 9.9.1  
# # Source:
# # Structure
# # Reduced
# # space
# # abc:
# # angles:
# # sites:
# # POT  SCF 100  7.0000   0, screened core-hole, AFOLP (folp(0)= 1.150)
# # Abs   Z=29 Rmt= 1.335 Rnm= 1.405 K  shell
# # Pot 1 Z= 3 Rmt= 1.269 Rnm= 1.329
# # Pot 2 Z=29 Rmt= 1.361 Rnm= 1.419
# # Pot 3 Z=15 Rmt= 0.948 Rnm= 1.157
# # Pot 4 Z= 8 Rmt= 0.934 Rnm= 1.036
# # Gam_ch=1.729E+00 H-L exch Vi= 0.000E+00 Vr= 0.000E+00
# # Mu=-5.998E+00eV kf=2.381E+00 Vint=-1.699E+01eV Rs_int= 1.523
# FMS rfms= 9.0000
# # PATH  Rmax=-1.000,  Keep_limit= 0.00, Heap_limit 0.00  Pwcrit= 2.50%
#  S02=0.950  Temp=   0.00  Debye_temp=   0.00  Global_sig2= 0.00000
#  Energy zero shift, vr, vi    0.00000E+00   0.00000E+00
#  Curved wave amplitude ratio filter   4.000%
#     file         sig2 tot  cw amp ratio   deg  nlegs   reff  inp sig2
#     0/   0 paths used
#  xsedge+ 50, used to normalize mu           2.4657E-04
#  -----------------------------------------------------------------------
#  omega    e    k    mu    mu0     chi     @#
    8983.556     -9.808  -1.000  5.27573E-02  5.54256E-02 -2.66826E-03
    8983.855     -9.509  -0.960  5.64268E-02  5.95019E-02 -3.07516E-03
    8984.141     -9.223  -0.920  6.04950E-02  6.40375E-02 -3.54248E-03
    8984.416     -8.948  -0.880  6.50216E-02  6.91004E-02 -4.07882E-03
    8984.678     -8.686  -0.840  7.00764E-02  7.47703E-02 -4.69395E-03
    8984.928     -8.436  -0.800  7.57407E-02  8.11396E-02 -5.39887E-03
    8985.166     -8.199  -0.760  8.21083E-02  8.83142E-02 -6.20586E-03
    8985.391     -7.973  -0.720  8.92856E-02  9.64140E-02 -7.12846E-03
    8985.605     -7.760  -0.680  9.73903E-02  1.05571E-01 -8.18119E-03
    8985.806     -7.559  -0.640  1.06547E-01  1.15926E-01 -9.37894E-03
    8985.995     -7.370  -0.600  1.16880E-01  1.27616E-01 -1.07358E-02
    8986.171     -7.193  -0.560  1.28494E-01  1.40758E-01 -1.22633E-02
    8986.336     -7.028  -0.520  1.41456E-01  1.55423E-01 -1.39668E-02
    8986.488     -6.876  -0.480  1.55754E-01  1.71596E-01 -1.58420E-02
    8986.629     -6.736  -0.440  1.71266E-01  1.89135E-01 -1.78696E-02
    8986.757     -6.608  -0.400  1.87722E-01  2.07733E-01 -2.00119E-02
    8986.872     -6.492  -0.360  2.04695E-01  2.26906E-01 -2.22113E-02
    8986.976     -6.388  -0.320  2.21631E-01  2.46025E-01 -2.43947E-02
    8987.068     -6.297  -0.280  2.37911E-01  2.64394E-01 -2.64825E-02
    8987.147     -6.217  -0.240  2.52943E-01  2.81342E-01 -2.83993E-02
    8987.214     -6.150  -0.200  2.66229E-01  2.96312E-01 -3.00834E-02
    8987.269     -6.096  -0.160  2.77406E-01  3.08897E-01 -3.14911E-02
    8987.311     -6.053  -0.120  2.86243E-01  3.18839E-01 -3.25962E-02
    8987.342     -6.022  -0.080  2.92610E-01  3.25999E-01 -3.33884E-02
    8987.366     -5.998   0.000  2.97715E-01  3.31748E-01 -3.40335E-02
    8987.421     -5.943   0.120  3.09045E-01  3.44701E-01 -3.56562E-02
    8987.464     -5.900   0.160  3.17922E-01  3.54765E-01 -3.68434E-02
    8987.519     -5.846   0.200  3.29284E-01  3.67593E-01 -3.83094E-02
    8987.586     -5.779   0.240  3.42999E-01  3.82996E-01 -3.99973E-02
    8987.665     -5.699   0.280  3.58844E-01  4.00646E-01 -4.18022E-02
    8987.756     -5.608   0.320  3.76474E-01  4.20070E-01 -4.35961E-02
    8987.860     -5.504   0.360  3.95445E-01  4.40664E-01 -4.52189E-02
    8987.976     -5.388   0.400  4.15281E-01  4.61827E-01 -4.65452E-02
    8988.104     -5.260   0.440  4.35337E-01  4.82971E-01 -4.76341E-02
    8988.244     -5.120   0.480  4.54661E-01  5.03641E-01 -4.89807E-02
    8988.396     -4.968   0.520  4.71834E-01  5.23582E-01 -5.17479E-02
    8988.561     -4.803   0.560  4.84897E-01  5.42644E-01 -5.77471E-02
    8988.738     -4.626   0.600  4.91942E-01  5.60798E-01 -6.88557E-02
    8988.927     -4.437   0.640  4.92248E-01  5.78112E-01 -8.58642E-02
    8989.128     -4.236   0.680  4.87133E-01  5.94689E-01 -1.07556E-01
    8989.341     -4.023   0.720  4.79729E-01  6.10611E-01 -1.30882E-01
    8989.567     -3.797   0.760  4.73927E-01  6.26021E-01 -1.52094E-01
    8989.805     -3.560   0.800  4.73012E-01  6.40986E-01 -1.67974E-01
    8990.055     -3.310   0.840  4.79232E-01  6.55626E-01 -1.76394E-01
    8990.317     -3.048   0.880  4.93418E-01  6.69964E-01 -1.76546E-01
    8990.591     -2.773   0.920  5.14842E-01  6.84087E-01 -1.69245E-01
    8990.878     -2.487   0.960  5.41138E-01  6.98031E-01 -1.56894E-01
    8991.176     -2.188   1.000  5.69855E-01  7.11820E-01 -1.41965E-01
    8991.487     -1.877   1.040  6.00357E-01  7.25447E-01 -1.25090E-01
    8991.810     -1.554   1.080  6.32792E-01  7.38960E-01 -1.06168E-01
    8992.146     -1.219   1.120  6.64323E-01  7.52338E-01 -8.80143E-02
    8992.493     -0.871   1.160  6.90792E-01  7.65570E-01 -7.47775E-02
    8992.853     -0.512   1.200  7.15074E-01  7.78686E-01 -6.36117E-02
    8993.224     -0.140   1.240  7.47229E-01  7.91610E-01 -4.43812E-02
    8993.609      0.244   1.280  7.95656E-01  8.04383E-01 -8.72695E-03
    8994.005      0.641   1.320  8.61231E-01  8.16943E-01  4.42889E-02
    8994.413      1.049   1.360  9.37377E-01  8.29285E-01  1.08093E-01
    8994.834      1.470   1.400  1.01438E+00  8.41405E-01  1.72980E-01
    8995.267      1.902   1.440  1.08227E+00  8.53235E-01  2.29035E-01
    8995.712      2.347   1.480  1.13276E+00  8.64808E-01  2.67956E-01
    8996.169      2.805   1.520  1.16824E+00  8.76058E-01  2.92186E-01
    8996.638      3.274   1.560  1.19961E+00  8.86977E-01  3.12632E-01
    8997.120      3.756   1.600  1.23149E+00  8.97554E-01  3.33934E-01
    8997.614      4.249   1.640  1.25742E+00  9.07767E-01  3.49652E-01
    8998.120      4.755   1.680  1.26963E+00  9.17585E-01  3.52047E-01
    8998.638      5.273   1.720  1.26478E+00  9.27003E-01  3.37773E-01
    8999.168      5.804   1.760  1.24095E+00  9.35995E-01  3.04957E-01
    8999.711      6.346   1.800  1.20264E+00  9.44577E-01  2.58067E-01
    9000.265      6.901   1.840  1.15810E+00  9.52705E-01  2.05391E-01
    9000.832      7.468   1.880  1.11183E+00  9.60397E-01  1.51436E-01
    9001.411      8.047   1.920  1.07232E+00  9.67629E-01  1.04687E-01
    9002.003      8.638   1.960  1.04857E+00  9.74401E-01  7.41694E-02
    9002.606      9.242   2.000  1.03889E+00  9.80713E-01  5.81804E-02
    9003.222      9.858   2.040  1.03404E+00  9.86589E-01  4.74540E-02
    9003.850     10.486   2.080  1.02934E+00  9.92009E-01  3.73271E-02
    9004.490     11.126   2.120  1.02563E+00  9.96956E-01  2.86753E-02
    9005.142     11.778   2.160  1.02112E+00  1.00149E+00  1.96264E-02
    9005.807     12.442   2.200  1.01268E+00  1.00559E+00  7.09355E-03
    9006.483     13.119   2.240  1.00425E+00  1.00927E+00 -5.01891E-03
    9007.172     13.808   2.280  1.00020E+00  1.01253E+00 -1.23326E-02
    9007.873     14.509   2.320  9.97135E-01  1.01539E+00 -1.82566E-02
    9008.586     15.222   2.360  9.91454E-01  1.01790E+00 -2.64418E-02
    9009.312     15.948   2.400  9.85585E-01  1.02001E+00 -3.44264E-02
    9010.049     16.685   2.440  9.83069E-01  1.02178E+00 -3.87161E-02
    9010.799     17.435   2.480  9.83356E-01  1.02323E+00 -3.98717E-02
    9011.561     18.197   2.520  9.83628E-01  1.02437E+00 -4.07417E-02
    9012.335     18.971   2.560  9.82677E-01  1.02520E+00 -4.25192E-02
    9013.122     19.758   2.600  9.82682E-01  1.02574E+00 -4.30566E-02
    9013.920     20.556   2.640  9.86255E-01  1.02603E+00 -3.97720E-02
    9014.731     21.367   2.680  9.92549E-01  1.02609E+00 -3.35438E-02
    9015.554     22.190   2.720  9.97092E-01  1.02592E+00 -2.88300E-02
    9016.389     23.025   2.760  9.95234E-01  1.02554E+00 -3.03106E-02
    9017.237     23.872   2.800  9.88153E-01  1.02497E+00 -3.68161E-02
    9018.096     24.732   2.840  9.80322E-01  1.02423E+00 -4.39042E-02
    9018.968     25.604   2.880  9.72576E-01  1.02335E+00 -5.07696E-02
    9019.852     26.487   2.920  9.65510E-01  1.02234E+00 -5.68268E-02
    9020.748     27.384   2.960  9.59495E-01  1.02118E+00 -6.16892E-02
    9021.656     28.292   3.000  9.55046E-01  1.01996E+00 -6.49137E-02
    9022.577     29.212   3.040  9.52221E-01  1.01863E+00 -6.64078E-02
    9023.509     30.145   3.080  9.50671E-01  1.01722E+00 -6.65456E-02
    9024.454     31.090   3.120  9.50005E-01  1.01575E+00 -6.57498E-02
    9025.411     32.047   3.160  9.49936E-01  1.01425E+00 -6.43135E-02
    9026.381     33.016   3.200  9.50412E-01  1.01271E+00 -6.22952E-02
    9027.362     33.998   3.240  9.51699E-01  1.01115E+00 -5.94543E-02
    9028.356     34.991   3.280  9.54026E-01  1.00959E+00 -5.55685E-02
    9029.361     35.997   3.320  9.57516E-01  1.00803E+00 -5.05193E-02
    9030.379     37.015   3.360  9.62327E-01  1.00648E+00 -4.41535E-02
    9031.410     38.045   3.400  9.68600E-01  1.00493E+00 -3.63327E-02
    9032.452     39.088   3.440  9.76456E-01  1.00344E+00 -2.69857E-02
    9033.507     40.142   3.480  9.85788E-01  1.00197E+00 -1.61801E-02
    9034.573     41.209   3.520  9.96377E-01  1.00056E+00 -4.18055E-03
    9035.652     42.288   3.560  1.00769E+00  9.99191E-01  8.50303E-03
    9036.744     43.379   3.600  1.01913E+00  9.97871E-01  2.12572E-02
    9037.847     44.483   3.640  1.03011E+00  9.96623E-01  3.34864E-02
    9038.963     45.598   3.680  1.04006E+00  9.95448E-01  4.46079E-02
    9040.090     46.726   3.720  1.04835E+00  9.94327E-01  5.40241E-02
    9041.230     47.866   3.760  1.05460E+00  9.93283E-01  6.13193E-02
    9042.382     49.018   3.800  1.05860E+00  9.92320E-01  6.62830E-02
    9043.547     50.183   3.840  1.06032E+00  9.91458E-01  6.88667E-02
    9044.723     51.359   3.880  1.05986E+00  9.90657E-01  6.92043E-02
    9045.912     52.548   3.920  1.05740E+00  9.89957E-01  6.74380E-02
    9047.113     53.749   3.960  1.05295E+00  9.89320E-01  6.36282E-02
    9048.326     54.962   4.000  1.04663E+00  9.88786E-01  5.78486E-02
    9049.551     56.187   4.040  1.03875E+00  9.88335E-01  5.04164E-02
    9050.789     57.425   4.080  1.02978E+00  9.87965E-01  4.18117E-02
    9052.038     58.674   4.120  1.02027E+00  9.87678E-01  3.25944E-02
    9053.300     59.936   4.160  1.01075E+00  9.87474E-01  2.32768E-02
    9054.574     61.210   4.200  1.00167E+00  9.87372E-01  1.42954E-02
    9055.861     62.496   4.240  9.93301E-01  9.87329E-01  5.97262E-03
    9057.159     63.795   4.280  9.85883E-01  9.87363E-01 -1.47996E-03
    9058.470     65.105   4.320  9.79466E-01  9.87475E-01 -8.00967E-03
    9059.793     66.428   4.360  9.73965E-01  9.87666E-01 -1.37007E-02
    9061.128     67.763   4.400  9.69229E-01  9.87930E-01 -1.87010E-02
    9062.475     69.111   4.440  9.65103E-01  9.88246E-01 -2.31431E-02
    9063.834     70.470   4.480  9.61565E-01  9.88634E-01 -2.70687E-02
    9065.206     71.842   4.520  9.58724E-01  9.89069E-01 -3.03449E-02
    9066.590     73.225   4.560  9.56913E-01  9.89571E-01 -3.26578E-02
    9067.986     74.621   4.600  9.56508E-01  9.90095E-01 -3.35871E-02
    9069.394     76.029   4.640  9.57928E-01  9.90681E-01 -3.27530E-02
    9070.814     77.450   4.680  9.61395E-01  9.91309E-01 -2.99141E-02
    9072.247     78.882   4.720  9.66889E-01  9.91974E-01 -2.50856E-02
    9073.691     80.327   4.760  9.74107E-01  9.92650E-01 -1.85428E-02
    9075.148     81.784   4.800  9.82553E-01  9.93357E-01 -1.08040E-02
    9076.617     83.253   4.840  9.91549E-01  9.94073E-01 -2.52325E-03
    9078.099     84.735   4.880  1.00049E+00  9.94816E-01  5.67595E-03
    9079.592     86.228   4.920  1.00885E+00  9.95563E-01  1.32875E-02
    9081.098     87.734   4.960  1.01620E+00  9.96309E-01  1.98887E-02
    9082.616     89.252   5.000  1.02211E+00  9.97052E-01  2.50628E-02
    9084.146     90.782   5.040  1.02614E+00  9.97766E-01  2.83702E-02
    9085.688     92.324   5.080  1.02790E+00  9.98475E-01  2.94293E-02
    9087.243     93.878   5.120  1.02723E+00  9.99175E-01  2.80559E-02
    9088.809     95.445   5.160  1.02422E+00  9.99842E-01  2.43791E-02
    9090.388     97.024   5.200  1.01933E+00  1.00049E+00  1.88328E-02
    9091.979     98.615   5.240  1.01315E+00  1.00109E+00  1.20657E-02
    9093.583    100.218   5.280  1.00634E+00  1.00167E+00  4.67354E-03
    9095.198    101.834   5.320  9.99234E-01  1.00220E+00 -2.96610E-03
    9096.826    103.461   5.360  9.91953E-01  1.00267E+00 -1.07173E-02
    9098.465    105.101   5.400  9.84612E-01  1.00312E+00 -1.85061E-02
    9100.117    106.753   5.440  9.77385E-01  1.00350E+00 -2.61127E-02
    9101.782    108.417   5.480  9.70798E-01  1.00383E+00 -3.30321E-02
    9103.458    110.094   5.520  9.65547E-01  1.00409E+00 -3.85446E-02
    9105.147    111.782   5.560  9.62347E-01  1.00430E+00 -4.19553E-02
    9106.847    113.483   5.600  9.61598E-01  1.00444E+00 -4.28430E-02
    9108.560    115.196   5.640  9.63325E-01  1.00453E+00 -4.12054E-02
    9110.285    116.921   5.680  9.67054E-01  1.00455E+00 -3.74926E-02
    9112.023    118.659   5.720  9.71990E-01  1.00451E+00 -3.25225E-02
    9113.772    120.408   5.760  9.77209E-01  1.00441E+00 -2.71961E-02
    9115.534    122.170   5.800  9.82094E-01  1.00422E+00 -2.21301E-02
    9117.308    123.944   5.840  9.86572E-01  1.00399E+00 -1.74231E-02
    9119.094    125.730   5.880  9.90980E-01  1.00370E+00 -1.27151E-02
    9120.892    127.528   5.920  9.95911E-01  1.00335E+00 -7.44217E-03
    9122.703    129.339   5.960  1.00181E+00  1.00296E+00 -1.15628E-03
    9124.526    131.161   6.000  1.00888E+00  1.00246E+00  6.41574E-03
