# # comment:                                                     FEFF 9.9.1  
# # Source:
# # Structure
# # Reduced
# # space
# # abc:
# # angles:
# # sites:
# # POT  SCF 100  7.0000   0, screened core-hole, AFOLP (folp(0)= 1.150)
# # Abs   Z=29 Rmt= 1.109 Rnm= 1.302 K  shell
# # Pot 1 Z=38 Rmt= 1.753 Rnm= 1.831
# # Pot 2 Z=30 Rmt= 1.264 Rnm= 1.386
# # Pot 3 Z=29 Rmt= 1.109 Rnm= 1.302
# # Pot 4 Z= 8 Rmt= 1.057 Rnm= 1.121
# # Gam_ch=1.729E+00 H-L exch Vi= 0.000E+00 Vr= 0.000E+00
# # Mu=-8.538E+00eV kf=1.947E+00 Vint=-1.656E+01eV Rs_int= 1.862
# FMS rfms= 9.0000
# # PATH  Rmax=-1.000,  Keep_limit= 0.00, Heap_limit 0.00  Pwcrit= 2.50%
#  S02=0.950  Temp=   0.00  Debye_temp=   0.00  Global_sig2= 0.00000
#  Energy zero shift, vr, vi    0.00000E+00   0.00000E+00
#  Curved wave amplitude ratio filter   4.000%
#     file         sig2 tot  cw amp ratio   deg  nlegs   reff  inp sig2
#     0/   0 paths used
#  xsedge+ 50, used to normalize mu           2.4574E-04
#  -----------------------------------------------------------------------
#  omega    e    k    mu    mu0     chi     @#
    8984.604    -12.348  -1.000  4.74200E-02  5.57171E-02 -8.29713E-03
    8984.903    -12.049  -0.960  5.07891E-02  5.97323E-02 -8.94322E-03
    8985.189    -11.762  -0.920  5.45644E-02  6.41881E-02 -9.62366E-03
    8985.463    -11.488  -0.880  5.88152E-02  6.91487E-02 -1.03335E-02
    8985.726    -11.226  -0.840  6.36237E-02  7.46885E-02 -1.10648E-02
    8985.976    -10.976  -0.800  6.90878E-02  8.08940E-02 -1.18062E-02
    8986.213    -10.738  -0.760  7.53225E-02  8.78640E-02 -1.25415E-02
    8986.439    -10.513  -0.720  8.24609E-02  9.57102E-02 -1.32493E-02
    8986.652    -10.299  -0.680  9.06531E-02  1.04555E-01 -1.39022E-02
    8986.853    -10.098  -0.640  1.00061E-01  1.14529E-01 -1.44672E-02
    8987.042     -9.909  -0.600  1.10850E-01  1.25757E-01 -1.49076E-02
    8987.219     -9.732  -0.560  1.23162E-01  1.38349E-01 -1.51872E-02
    8987.384     -9.568  -0.520  1.37089E-01  1.52367E-01 -1.52777E-02
    8987.536     -9.415  -0.480  1.52626E-01  1.67797E-01 -1.51702E-02
    8987.676     -9.275  -0.440  1.69615E-01  1.84502E-01 -1.48877E-02
    8987.804     -9.147  -0.400  1.87702E-01  2.02195E-01 -1.44931E-02
    8987.920     -9.031  -0.360  2.06336E-01  2.20422E-01 -1.40868E-02
    8988.024     -8.928  -0.320  2.24809E-01  2.38595E-01 -1.37864E-02
    8988.115     -8.836  -0.280  2.42366E-01  2.56060E-01 -1.36937E-02
    8988.194     -8.757  -0.240  2.58324E-01  2.72186E-01 -1.38621E-02
    8988.262     -8.690  -0.200  2.72166E-01  2.86444E-01 -1.42785E-02
    8988.316     -8.635  -0.160  2.83576E-01  2.98445E-01 -1.48685E-02
    8988.359     -8.592  -0.120  2.92411E-01  3.07936E-01 -1.55251E-02
    8988.390     -8.562  -0.080  2.98633E-01  3.14778E-01 -1.61454E-02
    8988.414     -8.538   0.000  3.03395E-01  3.20277E-01 -1.68817E-02
    8988.469     -8.483   0.120  3.14000E-01  3.32676E-01 -1.86759E-02
    8988.511     -8.440   0.160  3.22373E-01  3.42335E-01 -1.99618E-02
    8988.566     -8.385   0.200  3.32876E-01  3.54671E-01 -2.17952E-02
    8988.633     -8.318   0.240  3.45123E-01  3.69529E-01 -2.44059E-02
    8988.713     -8.239   0.280  3.58497E-01  3.86629E-01 -2.81325E-02
    8988.804     -8.147   0.320  3.72109E-01  4.05560E-01 -3.34508E-02
    8988.908     -8.044   0.360  3.84809E-01  4.25807E-01 -4.09981E-02
    8989.024     -7.928   0.400  3.95222E-01  4.46780E-01 -5.15579E-02
    8989.152     -7.800   0.440  4.02096E-01  4.68018E-01 -6.59214E-02
    8989.292     -7.660   0.480  4.04472E-01  4.89070E-01 -8.45980E-02
    8989.444     -7.507   0.520  4.02363E-01  5.09710E-01 -1.07347E-01
    8989.609     -7.343   0.560  3.96822E-01  5.29823E-01 -1.33001E-01
    8989.785     -7.166   0.600  3.89477E-01  5.49336E-01 -1.59858E-01
    8989.974     -6.977   0.640  3.81961E-01  5.68342E-01 -1.86381E-01
    8990.176     -6.776   0.680  3.75249E-01  5.86870E-01 -2.11621E-01
    8990.389     -6.562   0.720  3.69855E-01  6.05021E-01 -2.35166E-01
    8990.615     -6.337   0.760  3.66039E-01  6.22874E-01 -2.56835E-01
    8990.852     -6.099   0.800  3.64183E-01  6.40498E-01 -2.76314E-01
    8991.102     -5.849   0.840  3.65245E-01  6.57947E-01 -2.92702E-01
    8991.364     -5.587   0.880  3.70445E-01  6.75244E-01 -3.04799E-01
    8991.639     -5.313   0.920  3.80279E-01  6.92437E-01 -3.12158E-01
    8991.925     -5.026   0.960  3.94242E-01  7.09521E-01 -3.15279E-01
    8992.224     -4.728   1.000  4.11560E-01  7.26482E-01 -3.14922E-01
    8992.535     -4.417   1.040  4.31764E-01  7.43335E-01 -3.11571E-01
    8992.858     -4.094   1.080  4.54423E-01  7.60029E-01 -3.05606E-01
    8993.193     -3.758   1.120  4.79530E-01  7.76566E-01 -2.97036E-01
    8993.541     -3.411   1.160  5.08334E-01  7.92904E-01 -2.84570E-01
    8993.900     -3.051   1.200  5.42197E-01  8.09015E-01 -2.66818E-01
    8994.272     -2.679   1.240  5.79664E-01  8.24829E-01 -2.45165E-01
    8994.656     -2.295   1.280  6.16759E-01  8.40355E-01 -2.23597E-01
    8995.052     -1.899   1.320  6.50812E-01  8.55519E-01 -2.04707E-01
    8995.461     -1.491   1.360  6.83057E-01  8.70307E-01 -1.87250E-01
    8995.881     -1.070   1.400  7.19083E-01  8.84645E-01 -1.65561E-01
    8996.314     -0.637   1.440  7.67730E-01  8.98537E-01 -1.30807E-01
    8996.759     -0.192   1.480  8.24941E-01  9.11931E-01 -8.69898E-02
    8997.216      0.265   1.520  8.70926E-01  9.24794E-01 -5.38682E-02
    8997.686      0.734   1.560  8.96695E-01  9.37095E-01 -4.04006E-02
    8998.167      1.216   1.600  9.06077E-01  9.48824E-01 -4.27467E-02
    8998.661      1.710   1.640  9.00645E-01  9.59951E-01 -5.93054E-02
    8999.167      2.216   1.680  8.84335E-01  9.70450E-01 -8.61150E-02
    8999.685      2.734   1.720  8.69351E-01  9.80339E-01 -1.10988E-01
    9000.216      3.264   1.760  8.71311E-01  9.89572E-01 -1.18261E-01
    9000.758      3.807   1.800  8.98373E-01  9.98167E-01 -9.97935E-02
    9001.313      4.362   1.840  9.46309E-01  1.00613E+00 -5.98193E-02
    9001.880      4.928   1.880  9.99846E-01  1.01346E+00 -1.36115E-02
    9002.459      5.508   1.920  1.04684E+00  1.02014E+00  2.66999E-02
    9003.050      6.099   1.960  1.08476E+00  1.02621E+00  5.85461E-02
    9003.654      6.702   2.000  1.11465E+00  1.03167E+00  8.29781E-02
    9004.270      7.318   2.040  1.14071E+00  1.03652E+00  1.04185E-01
    9004.897      7.946   2.080  1.16547E+00  1.04080E+00  1.24675E-01
    9005.537      8.586   2.120  1.18539E+00  1.04452E+00  1.40876E-01
    9006.190      9.238   2.160  1.19666E+00  1.04771E+00  1.48958E-01
    9006.854      9.903   2.200  1.19940E+00  1.05039E+00  1.49018E-01
    9007.531     10.579   2.240  1.19592E+00  1.05257E+00  1.43348E-01
    9008.220     11.268   2.280  1.19290E+00  1.05428E+00  1.38618E-01
    9008.921     11.969   2.320  1.19629E+00  1.05556E+00  1.40722E-01
    9009.634     12.683   2.360  1.20642E+00  1.05643E+00  1.49986E-01
    9010.359     13.408   2.400  1.21838E+00  1.05690E+00  1.61485E-01
    9011.097     14.146   2.440  1.22559E+00  1.05702E+00  1.68570E-01
    9011.847     14.895   2.480  1.22551E+00  1.05678E+00  1.68727E-01
    9012.609     15.657   2.520  1.21749E+00  1.05625E+00  1.61247E-01
    9013.383     16.432   2.560  1.20226E+00  1.05542E+00  1.46838E-01
    9014.169     17.218   2.600  1.18241E+00  1.05435E+00  1.28065E-01
    9014.968     18.017   2.640  1.15966E+00  1.05303E+00  1.06626E-01
    9015.779     18.827   2.680  1.13518E+00  1.05150E+00  8.36771E-02
    9016.602     19.650   2.720  1.11048E+00  1.04978E+00  6.07058E-02
    9017.437     20.485   2.760  1.08710E+00  1.04788E+00  3.92146E-02
    9018.284     21.333   2.800  1.06618E+00  1.04585E+00  2.03329E-02
    9019.144     22.192   2.840  1.04878E+00  1.04370E+00  5.08106E-03
    9020.015     23.064   2.880  1.03533E+00  1.04142E+00 -6.09363E-03
    9020.899     23.948   2.920  1.02563E+00  1.03906E+00 -1.34328E-02
    9021.795     24.844   2.960  1.01929E+00  1.03662E+00 -1.73312E-02
    9022.704     25.752   3.000  1.01597E+00  1.03413E+00 -1.81624E-02
    9023.624     26.673   3.040  1.01505E+00  1.03157E+00 -1.65203E-02
    9024.557     27.606   3.080  1.01587E+00  1.02902E+00 -1.31520E-02
    9025.502     28.550   3.120  1.01729E+00  1.02642E+00 -9.12954E-03
    9026.459     29.507   3.160  1.01817E+00  1.02384E+00 -5.67112E-03
    9027.428     30.477   3.200  1.01751E+00  1.02127E+00 -3.75559E-03
    9028.410     31.458   3.240  1.01486E+00  1.01872E+00 -3.85242E-03
    9029.403     32.452   3.280  1.01021E+00  1.01621E+00 -6.00105E-03
    9030.409     33.458   3.320  1.00368E+00  1.01371E+00 -1.00305E-02
    9031.427     34.476   3.360  9.95544E-01  1.01128E+00 -1.57399E-02
    9032.457     35.506   3.400  9.86029E-01  1.00890E+00 -2.28753E-02
    9033.500     36.548   3.440  9.75429E-01  1.00659E+00 -3.11635E-02
    9034.554     37.603   3.480  9.64123E-01  1.00434E+00 -4.02134E-02
    9035.621     38.670   3.520  9.52904E-01  1.00218E+00 -4.92716E-02
    9036.700     39.749   3.560  9.42453E-01  1.00008E+00 -5.76233E-02
    9037.791     40.840   3.600  9.33402E-01  9.98076E-01 -6.46742E-02
    9038.895     41.943   3.640  9.26032E-01  9.96137E-01 -7.01049E-02
    9040.010     43.059   3.680  9.20324E-01  9.94315E-01 -7.39913E-02
    9041.138     44.187   3.720  9.15715E-01  9.92604E-01 -7.68887E-02
    9042.278     45.327   3.760  9.11730E-01  9.90974E-01 -7.92438E-02
    9043.430     46.479   3.800  9.08339E-01  9.89436E-01 -8.10975E-02
    9044.594     47.643   3.840  9.06024E-01  9.88011E-01 -8.19864E-02
    9045.771     48.819   3.880  9.05596E-01  9.86698E-01 -8.11018E-02
    9046.960     50.008   3.920  9.07879E-01  9.85479E-01 -7.76001E-02
    9048.161     51.209   3.960  9.13440E-01  9.84375E-01 -7.09345E-02
    9049.374     52.422   4.000  9.22338E-01  9.83384E-01 -6.10456E-02
    9050.599     53.648   4.040  9.34082E-01  9.82486E-01 -4.84037E-02
    9051.836     54.885   4.080  9.47769E-01  9.81698E-01 -3.39295E-02
    9053.086     56.135   4.120  9.62030E-01  9.81003E-01 -1.89732E-02
    9054.348     57.397   4.160  9.75363E-01  9.80421E-01 -5.05836E-03
    9055.622     58.671   4.200  9.86391E-01  9.79930E-01  6.46168E-03
    9056.908     59.957   4.240  9.94333E-01  9.79550E-01  1.47833E-02
    9058.207     61.255   4.280  9.99120E-01  9.79282E-01  1.98377E-02
    9059.517     62.566   4.320  1.00131E+00  9.79103E-01  2.22075E-02
    9060.840     63.889   4.360  1.00181E+00  9.79008E-01  2.28045E-02
    9062.175     65.224   4.400  1.00150E+00  9.78998E-01  2.25039E-02
    9063.522     66.571   4.440  1.00113E+00  9.79094E-01  2.20397E-02
    9064.882     67.930   4.480  1.00116E+00  9.79251E-01  2.19086E-02
    9066.253     69.302   4.520  1.00185E+00  9.79512E-01  2.23398E-02
    9067.637     70.686   4.560  1.00306E+00  9.79851E-01  2.32110E-02
    9069.033     72.082   4.600  1.00438E+00  9.80245E-01  2.41381E-02
    9070.441     73.490   4.640  1.00535E+00  9.80716E-01  2.46346E-02
    9071.862     74.910   4.680  1.00564E+00  9.81263E-01  2.43795E-02
    9073.294     76.343   4.720  1.00520E+00  9.81880E-01  2.33170E-02
    9074.739     77.788   4.760  1.00423E+00  9.82524E-01  2.17098E-02
    9076.196     79.245   4.800  1.00344E+00  9.83257E-01  2.01781E-02
    9077.665     80.714   4.840  1.00358E+00  9.84013E-01  1.95695E-02
    9079.146     82.195   4.880  1.00539E+00  9.84809E-01  2.05804E-02
    9080.640     83.688   4.920  1.00915E+00  9.85668E-01  2.34809E-02
    9082.146     85.194   4.960  1.01455E+00  9.86542E-01  2.80097E-02
    9083.664     86.712   5.000  1.02095E+00  9.87452E-01  3.34945E-02
    9085.194     88.242   5.040  1.02743E+00  9.88394E-01  3.90396E-02
    9086.736     89.784   5.080  1.03302E+00  9.89343E-01  4.36807E-02
    9088.290     91.339   5.120  1.03689E+00  9.90298E-01  4.65887E-02
    9089.857     92.906   5.160  1.03851E+00  9.91278E-01  4.72356E-02
    9091.436     94.484   5.200  1.03773E+00  9.92238E-01  4.54881E-02
    9093.027     96.075   5.240  1.03493E+00  9.93220E-01  4.17096E-02
    9094.630     97.679   5.280  1.03086E+00  9.94199E-01  3.66654E-02
    9096.246     99.294   5.320  1.02639E+00  9.95150E-01  3.12376E-02
    9097.873    100.922   5.360  1.02206E+00  9.96092E-01  2.59668E-02
    9099.513    102.562   5.400  1.01781E+00  9.97003E-01  2.08118E-02
    9101.165    104.214   5.440  1.01314E+00  9.97902E-01  1.52384E-02
    9102.829    105.878   5.480  1.00740E+00  9.98764E-01  8.63256E-03
    9104.506    107.554   5.520  1.00035E+00  9.99589E-01  7.65755E-04
    9106.194    109.243   5.560  9.92439E-01  1.00038E+00 -7.93654E-03
    9107.895    110.944   5.600  9.84647E-01  1.00114E+00 -1.64962E-02
    9109.608    112.657   5.640  9.78129E-01  1.00185E+00 -2.37160E-02
    9111.333    114.382   5.680  9.73908E-01  1.00250E+00 -2.85931E-02
    9113.070    116.119   5.720  9.72385E-01  1.00309E+00 -3.07026E-02
    9114.820    117.869   5.760  9.73311E-01  1.00365E+00 -3.03382E-02
    9116.582    119.630   5.800  9.75801E-01  1.00412E+00 -2.83166E-02
    9118.356    121.404   5.840  9.78983E-01  1.00456E+00 -2.55770E-02
    9120.142    123.190   5.880  9.82118E-01  1.00493E+00 -2.28090E-02
    9121.940    124.989   5.920  9.84905E-01  1.00521E+00 -2.03082E-02
    9123.751    126.799   5.960  9.87345E-01  1.00543E+00 -1.80883E-02
    9125.573    128.622   6.000  9.89477E-01  1.00553E+00 -1.60552E-02
