# # comment:                                                     FEFF 9.9.1  
# # Source:
# # Structure
# # Reduced
# # space
# # abc:
# # angles:
# # sites:
# # POT  SCF 100  7.0000   0, screened core-hole, AFOLP (folp(0)= 1.150)
# # Abs   Z=29 Rmt= 1.160 Rnm= 1.318 K  shell
# # Pot 1 Z=11 Rmt= 1.465 Rnm= 1.528
# # Pot 2 Z=29 Rmt= 1.160 Rnm= 1.318
# # Pot 3 Z= 8 Rmt= 1.088 Rnm= 1.159
# # Gam_ch=1.729E+00 H-L exch Vi= 0.000E+00 Vr= 0.000E+00
# # Mu=-9.192E+00eV kf=1.835E+00 Vint=-1.447E+01eV Rs_int= 1.976
# FMS rfms= 9.0000
# # PATH  Rmax=-1.000,  Keep_limit= 0.00, Heap_limit 0.00  Pwcrit= 2.50%
#  S02=0.950  Temp=   0.00  Debye_temp=   0.00  Global_sig2= 0.00000
#  Energy zero shift, vr, vi    0.00000E+00   0.00000E+00
#  Curved wave amplitude ratio filter   4.000%
#     file         sig2 tot  cw amp ratio   deg  nlegs   reff  inp sig2
#     0/   0 paths used
#  xsedge+ 50, used to normalize mu           2.4276E-04
#  -----------------------------------------------------------------------
#  omega    e    k    mu    mu0     chi     @#
    8984.362    -13.002  -1.000  3.14256E-02  4.78366E-02 -1.64110E-02
    8984.660    -12.703  -0.960  3.28419E-02  5.10159E-02 -1.81740E-02
    8984.947    -12.417  -0.920  3.43451E-02  5.45187E-02 -2.01735E-02
    8985.221    -12.142  -0.880  3.59420E-02  5.83893E-02 -2.24473E-02
    8985.483    -11.880  -0.840  3.76396E-02  6.26793E-02 -2.50397E-02
    8985.733    -11.630  -0.800  3.94457E-02  6.74481E-02 -2.80025E-02
    8985.971    -11.393  -0.760  4.13677E-02  7.27632E-02 -3.13955E-02
    8986.197    -11.167  -0.720  4.34134E-02  7.87005E-02 -3.52871E-02
    8986.410    -10.954  -0.680  4.55898E-02  8.53429E-02 -3.97531E-02
    8986.611    -10.752  -0.640  4.79028E-02  9.27772E-02 -4.48744E-02
    8986.800    -10.563  -0.600  5.03562E-02  1.01088E-01 -5.07316E-02
    8986.977    -10.387  -0.560  5.29505E-02  1.10345E-01 -5.73950E-02
    8987.142    -10.222  -0.520  5.56807E-02  1.20590E-01 -6.49091E-02
    8987.294    -10.070  -0.480  5.85346E-02  1.31806E-01 -7.32714E-02
    8987.434     -9.930  -0.440  6.14903E-02  1.43897E-01 -8.24069E-02
    8987.562     -9.802  -0.400  6.45138E-02  1.56662E-01 -9.21478E-02
    8987.678     -9.686  -0.360  6.75586E-02  1.69785E-01 -1.02226E-01
    8987.782     -9.582  -0.320  7.05661E-02  1.82858E-01 -1.12292E-01
    8987.873     -9.491  -0.280  7.34685E-02  1.95426E-01 -1.21957E-01
    8987.952     -9.411  -0.240  7.61932E-02  2.07045E-01 -1.30852E-01
    8988.019     -9.344  -0.200  7.86666E-02  2.17340E-01 -1.38674E-01
    8988.074     -9.289  -0.160  8.08180E-02  2.26027E-01 -1.45209E-01
    8988.117     -9.247  -0.120  8.25842E-02  2.32914E-01 -1.50330E-01
    8988.147     -9.216  -0.080  8.39149E-02  2.37891E-01 -1.53976E-01
    8988.172     -9.192   0.000  8.50874E-02  2.41901E-01 -1.56814E-01
    8988.227     -9.137   0.120  8.78586E-02  2.50965E-01 -1.63107E-01
    8988.269     -9.094   0.160  8.99195E-02  2.58044E-01 -1.68124E-01
    8988.324     -9.040   0.200  9.26033E-02  2.67136E-01 -1.74533E-01
    8988.391     -8.972   0.240  9.59693E-02  2.78163E-01 -1.82194E-01
    8988.470     -8.893   0.280  1.00106E-01  2.90973E-01 -1.90867E-01
    8988.562     -8.802   0.320  1.05123E-01  3.05323E-01 -2.00200E-01
    8988.665     -8.698   0.360  1.11175E-01  3.20906E-01 -2.09731E-01
    8988.781     -8.582   0.400  1.18451E-01  3.37393E-01 -2.18942E-01
    8988.909     -8.454   0.440  1.27160E-01  3.54467E-01 -2.27307E-01
    8989.050     -8.314   0.480  1.37504E-01  3.71911E-01 -2.34407E-01
    8989.202     -8.162   0.520  1.49557E-01  3.89534E-01 -2.39977E-01
    8989.367     -7.997   0.560  1.63278E-01  4.07286E-01 -2.44008E-01
    8989.543     -7.820   0.600  1.78251E-01  4.25120E-01 -2.46869E-01
    8989.732     -7.631   0.640  1.93936E-01  4.43089E-01 -2.49153E-01
    8989.933     -7.430   0.680  2.09703E-01  4.61224E-01 -2.51521E-01
    8990.147     -7.217   0.720  2.25152E-01  4.79561E-01 -2.54409E-01
    8990.372     -6.991   0.760  2.39950E-01  4.98114E-01 -2.58163E-01
    8990.610     -6.754   0.800  2.53419E-01  5.16947E-01 -2.63528E-01
    8990.860     -6.504   0.840  2.64321E-01  5.36034E-01 -2.71713E-01
    8991.122     -6.241   0.880  2.72225E-01  5.55379E-01 -2.83154E-01
    8991.396     -5.967   0.920  2.79310E-01  5.74954E-01 -2.95644E-01
    8991.683     -5.681   0.960  2.89408E-01  5.94763E-01 -3.05356E-01
    8991.982     -5.382   1.000  3.04216E-01  6.14741E-01 -3.10525E-01
    8992.293     -5.071   1.040  3.21825E-01  6.34854E-01 -3.13029E-01
    8992.616     -4.748   1.080  3.39343E-01  6.55025E-01 -3.15682E-01
    8992.951     -4.413   1.120  3.56309E-01  6.75211E-01 -3.18902E-01
    8993.298     -4.065   1.160  3.73502E-01  6.95322E-01 -3.21821E-01
    8993.658     -3.706   1.200  3.90181E-01  7.15311E-01 -3.25130E-01
    8994.030     -3.334   1.240  4.04768E-01  7.35085E-01 -3.30317E-01
    8994.414     -2.950   1.280  4.17834E-01  7.54613E-01 -3.36779E-01
    8994.810     -2.553   1.320  4.31783E-01  7.73758E-01 -3.41976E-01
    8995.219     -2.145   1.360  4.49696E-01  7.92511E-01 -3.42816E-01
    8995.639     -1.724   1.400  4.74535E-01  8.10780E-01 -3.36245E-01
    8996.072     -1.292   1.440  5.06848E-01  8.28515E-01 -3.21667E-01
    8996.517     -0.847   1.480  5.44463E-01  8.45627E-01 -3.01164E-01
    8996.974     -0.389   1.520  5.86640E-01  8.62092E-01 -2.75452E-01
    8997.444      0.080   1.560  6.33600E-01  8.77869E-01 -2.44270E-01
    8997.925      0.562   1.600  6.83903E-01  8.92920E-01 -2.09017E-01
    8998.419      1.055   1.640  7.37159E-01  9.07189E-01 -1.70030E-01
    8998.925      1.561   1.680  7.97305E-01  9.20662E-01 -1.23357E-01
    8999.443      2.080   1.720  8.66244E-01  9.33334E-01 -6.70898E-02
    8999.974      2.610   1.760  9.35014E-01  9.45198E-01 -1.01835E-02
    9000.516      3.152   1.800  9.94581E-01  9.56210E-01  3.83711E-02
    9001.071      3.707   1.840  1.04285E+00  9.66414E-01  7.64357E-02
    9001.638      4.274   1.880  1.07854E+00  9.75793E-01  1.02750E-01
    9002.217      4.853   1.920  1.10158E+00  9.84376E-01  1.17203E-01
    9002.808      5.445   1.960  1.11586E+00  9.92170E-01  1.23687E-01
    9003.412      6.048   2.000  1.12763E+00  9.99186E-01  1.28445E-01
    9004.027      6.664   2.040  1.14190E+00  1.00548E+00  1.36422E-01
    9004.655      7.292   2.080  1.16073E+00  1.01104E+00  1.49691E-01
    9005.295      7.932   2.120  1.18437E+00  1.01595E+00  1.68418E-01
    9005.948      8.584   2.160  1.21112E+00  1.02018E+00  1.90941E-01
    9006.612      9.248   2.200  1.23898E+00  1.02382E+00  2.15158E-01
    9007.289      9.925   2.240  1.26702E+00  1.02685E+00  2.40174E-01
    9007.978     10.614   2.280  1.28890E+00  1.02936E+00  2.59539E-01
    9008.679     11.315   2.320  1.30241E+00  1.03135E+00  2.71061E-01
    9009.392     12.028   2.360  1.30342E+00  1.03287E+00  2.70548E-01
    9010.117     12.754   2.400  1.29066E+00  1.03397E+00  2.56694E-01
    9010.855     13.491   2.440  1.26489E+00  1.03466E+00  2.30232E-01
    9011.605     14.241   2.480  1.23181E+00  1.03498E+00  1.96827E-01
    9012.367     15.003   2.520  1.19597E+00  1.03496E+00  1.61009E-01
    9013.141     15.777   2.560  1.16080E+00  1.03463E+00  1.26168E-01
    9013.927     16.564   2.600  1.12837E+00  1.03406E+00  9.43039E-02
    9014.726     17.362   2.640  1.09894E+00  1.03323E+00  6.57163E-02
    9015.537     18.173   2.680  1.07253E+00  1.03220E+00  4.03296E-02
    9016.360     18.996   2.720  1.04953E+00  1.03098E+00  1.85453E-02
    9017.195     19.831   2.760  1.02966E+00  1.02959E+00  6.23043E-05
    9018.042     20.678   2.800  1.01273E+00  1.02808E+00 -1.53468E-02
    9018.902     21.538   2.840  9.98448E-01  1.02647E+00 -2.80202E-02
    9019.773     22.410   2.880  9.86191E-01  1.02475E+00 -3.85562E-02
    9020.657     23.294   2.920  9.75322E-01  1.02297E+00 -4.76477E-02
    9021.553     24.190   2.960  9.65579E-01  1.02112E+00 -5.55441E-02
    9022.462     25.098   3.000  9.56877E-01  1.01926E+00 -6.23824E-02
    9023.382     26.018   3.040  9.49082E-01  1.01736E+00 -6.82820E-02
    9024.315     26.951   3.080  9.42289E-01  1.01546E+00 -7.31755E-02
    9025.260     27.896   3.120  9.36473E-01  1.01359E+00 -7.71187E-02
    9026.217     28.853   3.160  9.31527E-01  1.01173E+00 -8.02008E-02
    9027.186     29.822   3.200  9.27509E-01  1.00990E+00 -8.23907E-02
    9028.167     30.804   3.240  9.24716E-01  1.00811E+00 -8.33976E-02
    9029.161     31.797   3.280  9.23439E-01  1.00637E+00 -8.29326E-02
    9030.167     32.803   3.320  9.24067E-01  1.00470E+00 -8.06344E-02
    9031.185     33.821   3.360  9.26766E-01  1.00309E+00 -7.63207E-02
    9032.215     34.852   3.400  9.31202E-01  1.00157E+00 -7.03677E-02
    9033.258     35.894   3.440  9.36471E-01  1.00011E+00 -6.36432E-02
    9034.312     36.949   3.480  9.41601E-01  9.98764E-01 -5.71625E-02
    9035.379     38.015   3.520  9.45758E-01  9.97498E-01 -5.17394E-02
    9036.458     39.094   3.560  9.48351E-01  9.96319E-01 -4.79678E-02
    9037.549     40.185   3.600  9.49303E-01  9.95228E-01 -4.59248E-02
    9038.652     41.289   3.640  9.48967E-01  9.94250E-01 -4.52830E-02
    9039.768     42.404   3.680  9.47818E-01  9.93385E-01 -4.55674E-02
    9040.896     43.532   3.720  9.46229E-01  9.92612E-01 -4.63834E-02
    9042.036     44.672   3.760  9.44572E-01  9.91931E-01 -4.73591E-02
    9043.188     45.824   3.800  9.43259E-01  9.91385E-01 -4.81263E-02
    9044.352     46.989   3.840  9.42458E-01  9.90912E-01 -4.84538E-02
    9045.529     48.165   3.880  9.42418E-01  9.90573E-01 -4.81550E-02
    9046.717     49.354   3.920  9.43342E-01  9.90326E-01 -4.69840E-02
    9047.918     50.555   3.960  9.45510E-01  9.90170E-01 -4.46601E-02
    9049.131     51.768   4.000  9.49230E-01  9.90125E-01 -4.08950E-02
    9050.357     52.993   4.040  9.54652E-01  9.90172E-01 -3.55207E-02
    9051.594     54.231   4.080  9.61708E-01  9.90328E-01 -2.86206E-02
    9052.844     55.480   4.120  9.70109E-01  9.90571E-01 -2.04615E-02
    9054.106     56.742   4.160  9.79516E-01  9.90899E-01 -1.13830E-02
    9055.380     58.016   4.200  9.89547E-01  9.91312E-01 -1.76516E-03
    9056.666     59.302   4.240  9.99733E-01  9.91829E-01  7.90398E-03
    9057.965     60.601   4.280  1.00952E+00  9.92404E-01  1.71207E-02
    9059.275     61.912   4.320  1.01863E+00  9.93058E-01  2.55766E-02
    9060.598     63.234   4.360  1.02700E+00  9.93789E-01  3.32104E-02
    9061.933     64.569   4.400  1.03471E+00  9.94595E-01  4.01162E-02
    9063.280     65.917   4.440  1.04179E+00  9.95450E-01  4.63429E-02
    9064.640     67.276   4.480  1.04817E+00  9.96352E-01  5.18172E-02
    9066.011     68.648   4.520  1.05375E+00  9.97320E-01  5.64293E-02
    9067.395     70.031   4.560  1.05871E+00  9.98309E-01  6.04007E-02
    9068.791     71.427   4.600  1.06349E+00  9.99362E-01  6.41254E-02
    9070.199     72.836   4.640  1.06839E+00  1.00045E+00  6.79358E-02
    9071.620     74.256   4.680  1.07331E+00  1.00156E+00  7.17518E-02
    9073.052     75.688   4.720  1.07759E+00  1.00270E+00  7.48898E-02
    9074.497     77.133   4.760  1.08020E+00  1.00386E+00  7.63306E-02
    9075.954     78.590   4.800  1.08036E+00  1.00504E+00  7.53216E-02
    9077.423     80.059   4.840  1.07793E+00  1.00621E+00  7.17140E-02
    9078.904     81.541   4.880  1.07333E+00  1.00739E+00  6.59430E-02
    9080.398     83.034   4.920  1.06725E+00  1.00854E+00  5.87129E-02
    9081.903     84.540   4.960  1.06034E+00  1.00970E+00  5.06356E-02
    9083.421     86.058   5.000  1.05305E+00  1.01084E+00  4.22073E-02
    9084.951     87.588   5.040  1.04574E+00  1.01196E+00  3.37706E-02
    9086.494     89.130   5.080  1.03852E+00  1.01306E+00  2.54610E-02
    9088.048     90.685   5.120  1.03125E+00  1.01411E+00  1.71381E-02
    9089.615     92.251   5.160  1.02362E+00  1.01515E+00  8.47869E-03
    9091.194     93.830   5.200  1.01540E+00  1.01612E+00 -7.20668E-04
    9092.785     95.421   5.240  1.00669E+00  1.01704E+00 -1.03514E-02
    9094.388     97.024   5.280  9.97926E-01  1.01792E+00 -1.99983E-02
    9096.003     98.640   5.320  9.89625E-01  1.01876E+00 -2.91337E-02
    9097.631    100.267   5.360  9.82272E-01  1.01952E+00 -3.72498E-02
    9099.271    101.907   5.400  9.76376E-01  1.02023E+00 -4.38565E-02
    9100.923    103.559   5.440  9.72345E-01  1.02087E+00 -4.85250E-02
    9102.587    105.223   5.480  9.70328E-01  1.02145E+00 -5.11243E-02
    9104.263    106.900   5.520  9.70023E-01  1.02194E+00 -5.19126E-02
    9105.952    108.588   5.560  9.71053E-01  1.02239E+00 -5.13337E-02
    9107.653    110.289   5.600  9.73163E-01  1.02274E+00 -4.95722E-02
    9109.366    112.002   5.640  9.76524E-01  1.02301E+00 -4.64810E-02
    9111.091    113.727   5.680  9.81300E-01  1.02322E+00 -4.19194E-02
    9112.828    115.465   5.720  9.87142E-01  1.02335E+00 -3.62104E-02
    9114.578    117.214   5.760  9.93239E-01  1.02338E+00 -3.01420E-02
    9116.340    118.976   5.800  9.98766E-01  1.02336E+00 -2.45892E-02
    9118.114    120.750   5.840  1.00329E+00  1.02325E+00 -1.99674E-02
    9119.900    122.536   5.880  1.00705E+00  1.02310E+00 -1.60513E-02
    9121.698    124.334   5.920  1.01048E+00  1.02284E+00 -1.23569E-02
    9123.508    126.145   5.960  1.01377E+00  1.02252E+00 -8.74708E-03
    9125.331    127.968   6.000  1.01654E+00  1.02206E+00 -5.52510E-03
