# # comment:                                                     FEFF 9.9.1  
# # Source:
# # Structure
# # Reduced
# # space
# # abc:
# # angles:
# # sites:
# # POT  SCF 100  7.0000   0, screened core-hole, AFOLP (folp(0)= 1.150)
# # Abs   Z=29 Rmt= 1.137 Rnm= 1.278 K  shell
# # Pot 1 Z=29 Rmt= 1.145 Rnm= 1.283
# # Pot 2 Z=15 Rmt= 0.901 Rnm= 1.154
# # Pot 3 Z= 8 Rmt= 0.979 Rnm= 1.129
# # Gam_ch=1.729E+00 H-L exch Vi= 0.000E+00 Vr= 0.000E+00
# # Mu=-7.269E+00eV kf=2.236E+00 Vint=-1.441E+01eV Rs_int= 1.622
# FMS rfms= 9.0000
# # PATH  Rmax=-1.000,  Keep_limit= 0.00, Heap_limit 0.00  Pwcrit= 2.50%
#  S02=0.950  Temp=   0.00  Debye_temp=   0.00  Global_sig2= 0.00000
#  Energy zero shift, vr, vi    0.00000E+00   0.00000E+00
#  Curved wave amplitude ratio filter   4.000%
#     file         sig2 tot  cw amp ratio   deg  nlegs   reff  inp sig2
#     0/   0 paths used
#  xsedge+ 50, used to normalize mu           2.4245E-04
#  -----------------------------------------------------------------------
#  omega    e    k    mu    mu0     chi     @#
    8983.418    -11.079  -1.000  3.34086E-02  5.58513E-02 -2.24427E-02
    8983.716    -10.780  -0.960  3.49720E-02  5.98688E-02 -2.48968E-02
    8984.003    -10.494  -0.920  3.66429E-02  6.43249E-02 -2.76820E-02
    8984.277    -10.220  -0.880  3.84332E-02  6.92830E-02 -3.08498E-02
    8984.539     -9.957  -0.840  4.03565E-02  7.48166E-02 -3.44600E-02
    8984.789     -9.707  -0.800  4.24290E-02  8.10110E-02 -3.85820E-02
    8985.027     -9.470  -0.760  4.46688E-02  8.79636E-02 -4.32948E-02
    8985.252     -9.244  -0.720  4.70970E-02  9.57845E-02 -4.86875E-02
    8985.466     -9.031  -0.680  4.97365E-02  1.04594E-01 -5.48579E-02
    8985.667     -8.830  -0.640  5.26117E-02  1.14521E-01 -6.19090E-02
    8985.856     -8.641  -0.600  5.57459E-02  1.25688E-01 -6.99419E-02
    8986.033     -8.464  -0.560  5.91577E-02  1.38202E-01 -7.90438E-02
    8986.197     -8.299  -0.520  6.28545E-02  1.52124E-01 -8.92693E-02
    8986.350     -8.147  -0.480  6.68243E-02  1.67439E-01 -1.00614E-01
    8986.490     -8.007  -0.440  7.10255E-02  1.84012E-01 -1.12987E-01
    8986.618     -7.879  -0.400  7.53792E-02  2.01560E-01 -1.26181E-01
    8986.734     -7.763  -0.360  7.97687E-02  2.19635E-01 -1.39866E-01
    8986.837     -7.659  -0.320  8.40495E-02  2.37656E-01 -1.53606E-01
    8986.929     -7.568  -0.280  8.80702E-02  2.54977E-01 -1.66907E-01
    8987.008     -7.489  -0.240  9.16968E-02  2.70977E-01 -1.79280E-01
    8987.075     -7.421  -0.200  9.48316E-02  2.85129E-01 -1.90297E-01
    8987.130     -7.367  -0.160  9.74181E-02  2.97046E-01 -1.99628E-01
    8987.173     -7.324  -0.120  9.94349E-02  3.06477E-01 -2.07042E-01
    8987.203     -7.293  -0.080  1.00881E-01  3.13277E-01 -2.12396E-01
    8987.227     -7.269   0.000  1.02062E-01  3.18746E-01 -2.16684E-01
    8987.282     -7.214   0.120  1.04586E-01  3.31071E-01 -2.26485E-01
    8987.325     -7.172   0.160  1.06457E-01  3.40676E-01 -2.34219E-01
    8987.380     -7.117   0.200  1.08789E-01  3.52981E-01 -2.44192E-01
    8987.447     -7.050   0.240  1.11422E-01  3.67799E-01 -2.56376E-01
    8987.526     -6.970   0.280  1.14303E-01  3.84886E-01 -2.70583E-01
    8987.618     -6.879   0.320  1.17292E-01  4.03849E-01 -2.86557E-01
    8987.721     -6.775   0.360  1.20311E-01  4.24172E-01 -3.03860E-01
    8987.837     -6.659   0.400  1.23289E-01  4.45306E-01 -3.22017E-01
    8987.965     -6.531   0.440  1.26359E-01  4.66786E-01 -3.40427E-01
    8988.105     -6.391   0.480  1.29707E-01  4.88215E-01 -3.58508E-01
    8988.258     -6.239   0.520  1.33645E-01  5.09310E-01 -3.75665E-01
    8988.422     -6.074   0.560  1.38731E-01  5.29980E-01 -3.91249E-01
    8988.599     -5.897   0.600  1.45521E-01  5.50167E-01 -4.04646E-01
    8988.788     -5.709   0.640  1.54657E-01  5.69899E-01 -4.15242E-01
    8988.989     -5.507   0.680  1.66827E-01  5.89258E-01 -4.22430E-01
    8989.203     -5.294   0.720  1.82437E-01  6.08293E-01 -4.25857E-01
    8989.428     -5.068   0.760  2.01731E-01  6.27075E-01 -4.25343E-01
    8989.666     -4.831   0.800  2.24820E-01  6.45661E-01 -4.20841E-01
    8989.916     -4.581   0.840  2.52479E-01  6.64097E-01 -4.11617E-01
    8990.178     -4.319   0.880  2.87120E-01  6.82373E-01 -3.95253E-01
    8990.452     -4.044   0.920  3.31800E-01  7.00507E-01 -3.68707E-01
    8990.739     -3.758   0.960  3.85179E-01  7.18507E-01 -3.33328E-01
    8991.037     -3.459   1.000  4.36905E-01  7.36325E-01 -2.99420E-01
    8991.348     -3.148   1.040  4.73492E-01  7.53992E-01 -2.80499E-01
    8991.671     -2.825   1.080  4.90543E-01  7.71404E-01 -2.80861E-01
    8992.007     -2.490   1.120  4.92172E-01  7.88578E-01 -2.96406E-01
    8992.354     -2.142   1.160  4.83785E-01  8.05443E-01 -3.21659E-01
    8992.714     -1.783   1.200  4.71381E-01  8.21946E-01 -3.50565E-01
    8993.086     -1.411   1.240  4.59922E-01  8.38071E-01 -3.78150E-01
    8993.470     -1.027   1.280  4.52857E-01  8.53743E-01 -4.00886E-01
    8993.866     -0.631   1.320  4.52813E-01  8.68925E-01 -4.16112E-01
    8994.274     -0.222   1.360  4.61241E-01  8.83602E-01 -4.22361E-01
    8994.695      0.198   1.400  4.81001E-01  8.97694E-01 -4.16693E-01
    8995.128      0.631   1.440  5.14784E-01  9.11192E-01 -3.96408E-01
    8995.573      1.076   1.480  5.58100E-01  9.24041E-01 -3.65941E-01
    8996.030      1.533   1.520  6.03003E-01  9.36252E-01 -3.33249E-01
    8996.499      2.003   1.560  6.43812E-01  9.47796E-01 -3.03984E-01
    8996.981      2.484   1.600  6.73644E-01  9.58626E-01 -2.84982E-01
    8997.475      2.978   1.640  6.94002E-01  9.68759E-01 -2.74758E-01
    8997.981      3.484   1.680  7.19865E-01  9.78175E-01 -2.58310E-01
    8998.499      4.002   1.720  7.62332E-01  9.86893E-01 -2.24561E-01
    8999.029      4.533   1.760  8.23118E-01  9.94898E-01 -1.71780E-01
    8999.572      5.075   1.800  8.99113E-01  1.00220E+00 -1.03083E-01
    9000.127      5.630   1.840  9.80926E-01  1.00883E+00 -2.79059E-02
    9000.693      6.197   1.880  1.06395E+00  1.01478E+00  4.91728E-02
    9001.273      6.776   1.920  1.16181E+00  1.02010E+00  1.41707E-01
    9001.864      7.367   1.960  1.27760E+00  1.02478E+00  2.52827E-01
    9002.467      7.971   2.000  1.37851E+00  1.02886E+00  3.49650E-01
    9003.083      8.587   2.040  1.44098E+00  1.03236E+00  4.08621E-01
    9003.711      9.214   2.080  1.47568E+00  1.03533E+00  4.40350E-01
    9004.351      9.854   2.120  1.49046E+00  1.03777E+00  4.52690E-01
    9005.003     10.507   2.160  1.48154E+00  1.03972E+00  4.41824E-01
    9005.668     11.171   2.200  1.45150E+00  1.04123E+00  4.10277E-01
    9006.344     11.848   2.240  1.40907E+00  1.04229E+00  3.66774E-01
    9007.033     12.537   2.280  1.36332E+00  1.04297E+00  3.20350E-01
    9007.734     13.238   2.320  1.32725E+00  1.04328E+00  2.83972E-01
    9008.448     13.951   2.360  1.30674E+00  1.04325E+00  2.63486E-01
    9009.173     14.676   2.400  1.29315E+00  1.04293E+00  2.50224E-01
    9009.911     15.414   2.440  1.27270E+00  1.04234E+00  2.30363E-01
    9010.660     16.164   2.480  1.23983E+00  1.04148E+00  1.98351E-01
    9011.422     16.926   2.520  1.20168E+00  1.04043E+00  1.61253E-01
    9012.197     17.700   2.560  1.16842E+00  1.03915E+00  1.29269E-01
    9012.983     18.486   2.600  1.14179E+00  1.03772E+00  1.04065E-01
    9013.782     19.285   2.640  1.12142E+00  1.03614E+00  8.52772E-02
    9014.592     20.096   2.680  1.10684E+00  1.03445E+00  7.23814E-02
    9015.415     20.919   2.720  1.09478E+00  1.03265E+00  6.21245E-02
    9016.250     21.754   2.760  1.08381E+00  1.03077E+00  5.30436E-02
    9017.098     22.601   2.800  1.07371E+00  1.02880E+00  4.49083E-02
    9017.957     23.461   2.840  1.06445E+00  1.02679E+00  3.76609E-02
    9018.829     24.332   2.880  1.05539E+00  1.02477E+00  3.06282E-02
    9019.713     25.216   2.920  1.04548E+00  1.02271E+00  2.27636E-02
    9020.609     26.112   2.960  1.03429E+00  1.02068E+00  1.36151E-02
    9021.517     27.021   3.000  1.02203E+00  1.01865E+00  3.38321E-03
    9022.438     27.941   3.040  1.00886E+00  1.01663E+00 -7.76519E-03
    9023.371     28.874   3.080  9.94822E-01  1.01464E+00 -1.98203E-02
    9024.315     29.819   3.120  9.79682E-01  1.01272E+00 -3.30382E-02
    9025.272     30.776   3.160  9.63173E-01  1.01082E+00 -4.76499E-02
    9026.242     31.745   3.200  9.45787E-01  1.00902E+00 -6.32317E-02
    9027.223     32.727   3.240  9.28420E-01  1.00725E+00 -7.88278E-02
    9028.217     33.720   3.280  9.12081E-01  1.00558E+00 -9.34950E-02
    9029.223     34.726   3.320  8.97550E-01  1.00399E+00 -1.06436E-01
    9030.241     35.744   3.360  8.85404E-01  1.00248E+00 -1.17077E-01
    9031.271     36.774   3.400  8.75752E-01  1.00108E+00 -1.25330E-01
    9032.313     37.817   3.440  8.68396E-01  9.99750E-01 -1.31354E-01
    9033.368     38.871   3.480  8.63164E-01  9.98529E-01 -1.35364E-01
    9034.435     39.938   3.520  8.59976E-01  9.97420E-01 -1.37444E-01
    9035.514     41.017   3.560  8.58761E-01  9.96405E-01 -1.37644E-01
    9036.605     42.108   3.600  8.59733E-01  9.95502E-01 -1.35769E-01
    9037.708     43.212   3.640  8.63014E-01  9.94692E-01 -1.31678E-01
    9038.824     44.327   3.680  8.68475E-01  9.93999E-01 -1.25524E-01
    9039.952     45.455   3.720  8.75726E-01  9.93422E-01 -1.17696E-01
    9041.092     46.595   3.760  8.84242E-01  9.92937E-01 -1.08694E-01
    9042.244     47.747   3.800  8.93584E-01  9.92568E-01 -9.89841E-02
    9043.408     48.911   3.840  9.03319E-01  9.92314E-01 -8.89947E-02
    9044.585     50.088   3.880  9.13382E-01  9.92150E-01 -7.87675E-02
    9045.773     51.277   3.920  9.24009E-01  9.92078E-01 -6.80686E-02
    9046.974     52.478   3.960  9.35530E-01  9.92118E-01 -5.65880E-02
    9048.187     53.691   4.000  9.48214E-01  9.92268E-01 -4.40543E-02
    9049.413     54.916   4.040  9.62185E-01  9.92485E-01 -3.03001E-02
    9050.650     56.153   4.080  9.77395E-01  9.92809E-01 -1.54142E-02
    9051.900     57.403   4.120  9.93449E-01  9.93220E-01  2.28220E-04
    9053.162     58.665   4.160  1.00973E+00  9.93737E-01  1.59966E-02
    9054.436     59.939   4.200  1.02537E+00  9.94313E-01  3.10535E-02
    9055.722     61.225   4.240  1.03939E+00  9.94967E-01  4.44192E-02
    9057.020     62.524   4.280  1.05112E+00  9.95700E-01  5.54238E-02
    9058.331     63.834   4.320  1.06032E+00  9.96507E-01  6.38129E-02
    9059.654     65.157   4.360  1.06710E+00  9.97364E-01  6.97384E-02
    9060.989     66.492   4.400  1.07197E+00  9.98271E-01  7.36957E-02
    9062.336     67.839   4.440  1.07558E+00  9.99246E-01  7.63365E-02
    9063.695     69.199   4.480  1.07853E+00  1.00027E+00  7.82587E-02
    9065.067     70.570   4.520  1.08121E+00  1.00135E+00  7.98591E-02
    9066.451     71.954   4.560  1.08370E+00  1.00245E+00  8.12464E-02
    9067.847     73.350   4.600  1.08571E+00  1.00359E+00  8.21170E-02
    9069.255     74.758   4.640  1.08673E+00  1.00474E+00  8.19900E-02
    9070.675     76.179   4.680  1.08639E+00  1.00591E+00  8.04709E-02
    9072.108     77.611   4.720  1.08444E+00  1.00710E+00  7.73425E-02
    9073.553     79.056   4.760  1.08086E+00  1.00831E+00  7.25474E-02
    9075.010     80.513   4.800  1.07579E+00  1.00952E+00  6.62679E-02
    9076.479     81.982   4.840  1.06958E+00  1.01071E+00  5.88658E-02
    9077.960     83.463   4.880  1.06286E+00  1.01192E+00  5.09462E-02
    9079.453     84.957   4.920  1.05632E+00  1.01309E+00  4.32256E-02
    9080.959     86.463   4.960  1.05048E+00  1.01423E+00  3.62457E-02
    9082.477     87.981   5.000  1.04558E+00  1.01536E+00  3.02111E-02
    9084.007     89.511   5.040  1.04144E+00  1.01646E+00  2.49804E-02
    9085.549     91.053   5.080  1.03775E+00  1.01754E+00  2.02177E-02
    9087.104     92.607   5.120  1.03418E+00  1.01855E+00  1.56328E-02
    9088.671     94.174   5.160  1.03060E+00  1.01952E+00  1.10855E-02
    9090.249     95.753   5.200  1.02702E+00  1.02044E+00  6.57787E-03
    9091.841     97.344   5.240  1.02338E+00  1.02132E+00  2.06255E-03
    9093.444     98.947   5.280  1.01947E+00  1.02213E+00 -2.65212E-03
    9095.059    100.563   5.320  1.01508E+00  1.02288E+00 -7.80138E-03
    9096.687    102.190   5.360  1.01010E+00  1.02359E+00 -1.34844E-02
    9098.327    103.830   5.400  1.00461E+00  1.02419E+00 -1.95811E-02
    9099.979    105.482   5.440  9.99023E-01  1.02474E+00 -2.57155E-02
    9101.643    107.146   5.480  9.93839E-01  1.02521E+00 -3.13712E-02
    9103.319    108.823   5.520  9.89466E-01  1.02562E+00 -3.61584E-02
    9105.008    110.511   5.560  9.85956E-01  1.02594E+00 -3.99810E-02
    9106.709    112.212   5.600  9.83279E-01  1.02619E+00 -4.29115E-02
    9108.422    113.925   5.640  9.81318E-01  1.02634E+00 -4.50218E-02
    9110.147    115.650   5.680  9.80179E-01  1.02643E+00 -4.62540E-02
    9111.884    117.387   5.720  9.79997E-01  1.02645E+00 -4.64496E-02
    9113.634    119.137   5.760  9.80886E-01  1.02638E+00 -4.54953E-02
    9115.395    120.899   5.800  9.82739E-01  1.02623E+00 -4.34961E-02
    9117.169    122.673   5.840  9.85325E-01  1.02601E+00 -4.06858E-02
    9118.955    124.459   5.880  9.88462E-01  1.02573E+00 -3.72726E-02
    9120.754    126.257   5.920  9.91983E-01  1.02536E+00 -3.33726E-02
    9122.564    128.068   5.960  9.95826E-01  1.02492E+00 -2.90887E-02
    9124.387    129.890   6.000  9.99835E-01  1.02434E+00 -2.45020E-02
