# # comment:                                                     FEFF 9.9.1  
# # Source:
# # Structure
# # Reduced
# # space
# # abc:
# # angles:
# # sites:
# # POT  SCF 100  7.0000   0, screened core-hole, AFOLP (folp(0)= 1.150)
# # Abs   Z=29 Rmt= 1.272 Rnm= 1.343 K  shell
# # Pot 1 Z=29 Rmt= 1.280 Rnm= 1.350
# # Pot 2 Z=32 Rmt= 1.132 Rnm= 1.310
# # Pot 3 Z=15 Rmt= 0.939 Rnm= 1.155
# # Pot 4 Z= 8 Rmt= 0.884 Rnm= 1.044
# # Gam_ch=1.729E+00 H-L exch Vi= 0.000E+00 Vr= 0.000E+00
# # Mu=-5.939E+00eV kf=2.457E+00 Vint=-1.701E+01eV Rs_int= 1.476
# FMS rfms= 9.0000
# # PATH  Rmax=-1.000,  Keep_limit= 0.00, Heap_limit 0.00  Pwcrit= 2.50%
#  S02=0.950  Temp=   0.00  Debye_temp=   0.00  Global_sig2= 0.00000
#  Energy zero shift, vr, vi    0.00000E+00   0.00000E+00
#  Curved wave amplitude ratio filter   4.000%
#     file         sig2 tot  cw amp ratio   deg  nlegs   reff  inp sig2
#     0/   0 paths used
#  xsedge+ 50, used to normalize mu           2.4798E-04
#  -----------------------------------------------------------------------
#  omega    e    k    mu    mu0     chi     @#
    8983.325     -9.748  -1.000  4.99993E-02  5.51670E-02 -5.16774E-03
    8983.624     -9.450  -0.960  5.35140E-02  5.92467E-02 -5.73273E-03
    8983.910     -9.163  -0.920  5.74253E-02  6.37883E-02 -6.36297E-03
    8984.185     -8.889  -0.880  6.17957E-02  6.88609E-02 -7.06519E-03
    8984.447     -8.627  -0.840  6.66982E-02  7.45447E-02 -7.84644E-03
    8984.697     -8.377  -0.800  7.22191E-02  8.09330E-02 -8.71393E-03
    8984.934     -8.139  -0.760  7.84582E-02  8.81330E-02 -9.67483E-03
    8985.160     -7.914  -0.720  8.55300E-02  9.62660E-02 -1.07359E-02
    8985.373     -7.700  -0.680  9.35624E-02  1.05466E-01 -1.19032E-02
    8985.574     -7.499  -0.640  1.02692E-01  1.15873E-01 -1.31810E-02
    8985.763     -7.310  -0.600  1.13057E-01  1.27628E-01 -1.45711E-02
    8985.940     -7.133  -0.560  1.24778E-01  1.40849E-01 -1.60715E-02
    8986.105     -6.969  -0.520  1.37934E-01  1.55608E-01 -1.76744E-02
    8986.257     -6.816  -0.480  1.52527E-01  1.71891E-01 -1.93640E-02
    8986.397     -6.676  -0.440  1.68439E-01  1.89554E-01 -2.11152E-02
    8986.525     -6.548  -0.400  1.85394E-01  2.08287E-01 -2.28934E-02
    8986.641     -6.432  -0.360  2.02943E-01  2.27601E-01 -2.46581E-02
    8986.745     -6.329  -0.320  2.20494E-01  2.46863E-01 -2.63686E-02
    8986.836     -6.237  -0.280  2.37377E-01  2.65368E-01 -2.79911E-02
    8986.916     -6.158  -0.240  2.52941E-01  2.82441E-01 -2.95000E-02
    8986.983     -6.091  -0.200  2.66645E-01  2.97519E-01 -3.08731E-02
    8987.037     -6.036  -0.160  2.78111E-01  3.10193E-01 -3.20816E-02
    8987.080     -5.993  -0.120  2.87121E-01  3.20204E-01 -3.30826E-02
    8987.111     -5.963  -0.080  2.93583E-01  3.27411E-01 -3.38284E-02
    8987.135     -5.939   0.000  2.98761E-01  3.33198E-01 -3.44375E-02
    8987.190     -5.884   0.120  3.09635E-01  3.46237E-01 -3.66021E-02
    8987.233     -5.841   0.160  3.18064E-01  3.56358E-01 -3.82938E-02
    8987.287     -5.786   0.200  3.28615E-01  3.69267E-01 -4.06521E-02
    8987.354     -5.719   0.240  3.40890E-01  3.84750E-01 -4.38597E-02
    8987.434     -5.640   0.280  3.54315E-01  4.02493E-01 -4.81787E-02
    8987.525     -5.548   0.320  3.68015E-01  4.21996E-01 -5.39814E-02
    8987.629     -5.445   0.360  3.80998E-01  4.42664E-01 -6.16663E-02
    8987.745     -5.329   0.400  3.92279E-01  4.63865E-01 -7.15864E-02
    8987.873     -5.201   0.440  4.01101E-01  4.85004E-01 -8.39033E-02
    8988.013     -5.061   0.480  4.07196E-01  5.05635E-01 -9.84399E-02
    8988.165     -4.908   0.520  4.10905E-01  5.25481E-01 -1.14577E-01
    8988.330     -4.744   0.560  4.13217E-01  5.44392E-01 -1.31175E-01
    8988.507     -4.567   0.600  4.15831E-01  5.62356E-01 -1.46525E-01
    8988.696     -4.378   0.640  4.21002E-01  5.79420E-01 -1.58417E-01
    8988.897     -4.177   0.680  4.31139E-01  5.95690E-01 -1.64551E-01
    8989.110     -3.963   0.720  4.48199E-01  6.11271E-01 -1.63073E-01
    8989.336     -3.738   0.760  4.73426E-01  6.26265E-01 -1.52839E-01
    8989.573     -3.500   0.800  5.07021E-01  6.40783E-01 -1.33762E-01
    8989.823     -3.250   0.840  5.46812E-01  6.54928E-01 -1.08115E-01
    8990.085     -2.988   0.880  5.85882E-01  6.68742E-01 -8.28597E-02
    8990.360     -2.714   0.920  6.13299E-01  6.82275E-01 -6.89758E-02
    8990.646     -2.427   0.960  6.20556E-01  6.95605E-01 -7.50495E-02
    8990.945     -2.129   1.000  6.06437E-01  7.08719E-01 -1.02282E-01
    8991.256     -1.818   1.040  5.76224E-01  7.21672E-01 -1.45448E-01
    8991.579     -1.495   1.080  5.40072E-01  7.34470E-01 -1.94399E-01
    8991.914     -1.159   1.120  5.09157E-01  7.47096E-01 -2.37939E-01
    8992.262     -0.812   1.160  4.90702E-01  7.59565E-01 -2.68863E-01
    8992.621     -0.452   1.200  4.87668E-01  7.71886E-01 -2.84217E-01
    8992.993     -0.080   1.240  5.01172E-01  7.84004E-01 -2.82832E-01
    8993.377      0.304   1.280  5.31774E-01  7.95966E-01 -2.64192E-01
    8993.773      0.700   1.320  5.79258E-01  8.07709E-01 -2.28451E-01
    8994.182      1.108   1.360  6.42702E-01  8.19232E-01 -1.76530E-01
    8994.603      1.529   1.400  7.22052E-01  8.30515E-01 -1.08463E-01
    8995.035      1.962   1.440  8.18415E-01  8.41552E-01 -2.31373E-02
    8995.480      2.407   1.480  9.28519E-01  8.52299E-01  7.62203E-02
    8995.938      2.864   1.520  1.03708E+00  8.62770E-01  1.74312E-01
    8996.407      3.333   1.560  1.11279E+00  8.72943E-01  2.39852E-01
    8996.889      3.815   1.600  1.13369E+00  8.82790E-01  2.50900E-01
    8997.382      4.309   1.640  1.11441E+00  8.92288E-01  2.22121E-01
    8997.888      4.815   1.680  1.08734E+00  9.01451E-01  1.85890E-01
    8998.406      5.333   1.720  1.06773E+00  9.10257E-01  1.57470E-01
    8998.937      5.863   1.760  1.05473E+00  9.18681E-01  1.36044E-01
    8999.479      6.406   1.800  1.04840E+00  9.26742E-01  1.21661E-01
    9000.034      6.961   1.840  1.05242E+00  9.34395E-01  1.18028E-01
    9000.601      7.528   1.880  1.07327E+00  9.41679E-01  1.31593E-01
    9001.180      8.107   1.920  1.11424E+00  9.48556E-01  1.65685E-01
    9001.771      8.698   1.960  1.17243E+00  9.55024E-01  2.17406E-01
    9002.375      9.301   2.000  1.22823E+00  9.61125E-01  2.67103E-01
    9002.991      9.917   2.040  1.24743E+00  9.66799E-01  2.80629E-01
    9003.618     10.545   2.080  1.22321E+00  9.72109E-01  2.51099E-01
    9004.259     11.185   2.120  1.18637E+00  9.77019E-01  2.09348E-01
    9004.911     11.837   2.160  1.16372E+00  9.81553E-01  1.82166E-01
    9005.575     12.502   2.200  1.16043E+00  9.85736E-01  1.74697E-01
    9006.252     13.178   2.240  1.17289E+00  9.89531E-01  1.83358E-01
    9006.941     13.867   2.280  1.19378E+00  9.92984E-01  2.00798E-01
    9007.642     14.568   2.320  1.21155E+00  9.96101E-01  2.15449E-01
    9008.355     15.282   2.360  1.21935E+00  9.98888E-01  2.20461E-01
    9009.080     16.007   2.400  1.22066E+00  1.00135E+00  2.19309E-01
    9009.818     16.745   2.440  1.21049E+00  1.00352E+00  2.06969E-01
    9010.568     17.494   2.480  1.17953E+00  1.00537E+00  1.74154E-01
    9011.330     18.256   2.520  1.13570E+00  1.00697E+00  1.28731E-01
    9012.104     19.031   2.560  1.09554E+00  1.00831E+00  8.72308E-02
    9012.890     19.817   2.600  1.06825E+00  1.00938E+00  5.88779E-02
    9013.689     20.616   2.640  1.05183E+00  1.01023E+00  4.16011E-02
    9014.500     21.426   2.680  1.04013E+00  1.01087E+00  2.92630E-02
    9015.323     22.249   2.720  1.02782E+00  1.01130E+00  1.65222E-02
    9016.158     23.084   2.760  1.00812E+00  1.01154E+00 -3.42083E-03
    9017.005     23.932   2.800  9.75798E-01  1.01158E+00 -3.57836E-02
    9017.865     24.791   2.840  9.35259E-01  1.01148E+00 -7.62249E-02
    9018.736     25.663   2.880  9.00605E-01  1.01125E+00 -1.10646E-01
    9019.620     26.547   2.920  8.76579E-01  1.01087E+00 -1.34288E-01
    9020.517     27.443   2.960  8.61144E-01  1.01036E+00 -1.49219E-01
    9021.425     28.351   3.000  8.52933E-01  1.00976E+00 -1.56830E-01
    9022.345     29.272   3.040  8.50319E-01  1.00905E+00 -1.58732E-01
    9023.278     30.205   3.080  8.51235E-01  1.00828E+00 -1.57041E-01
    9024.223     31.149   3.120  8.53780E-01  1.00740E+00 -1.53621E-01
    9025.180     32.106   3.160  8.56645E-01  1.00647E+00 -1.49829E-01
    9026.149     33.076   3.200  8.58995E-01  1.00550E+00 -1.46506E-01
    9027.131     34.057   3.240  8.60670E-01  1.00449E+00 -1.43816E-01
    9028.124     35.051   3.280  8.62152E-01  1.00343E+00 -1.41281E-01
    9029.130     36.057   3.320  8.63892E-01  1.00237E+00 -1.38476E-01
    9030.148     37.075   3.360  8.66841E-01  1.00127E+00 -1.34433E-01
    9031.178     38.105   3.400  8.72220E-01  1.00020E+00 -1.27976E-01
    9032.221     39.147   3.440  8.80800E-01  9.99096E-01 -1.18296E-01
    9033.275     40.202   3.480  8.92874E-01  9.97997E-01 -1.05123E-01
    9034.342     41.269   3.520  9.08233E-01  9.96925E-01 -8.86920E-02
    9035.421     42.348   3.560  9.26164E-01  9.95884E-01 -6.97197E-02
    9036.512     43.439   3.600  9.45291E-01  9.94854E-01 -4.95627E-02
    9037.616     44.542   3.640  9.64473E-01  9.93857E-01 -2.93839E-02
    9038.731     45.658   3.680  9.82750E-01  9.92896E-01 -1.01460E-02
    9039.859     46.786   3.720  9.99432E-01  9.91951E-01  7.48050E-03
    9040.999     47.926   3.760  1.01424E+00  9.91068E-01  2.31766E-02
    9042.151     49.078   3.800  1.02705E+00  9.90227E-01  3.68196E-02
    9043.315     50.242   3.840  1.03759E+00  9.89431E-01  4.81601E-02
    9044.492     51.419   3.880  1.04564E+00  9.88700E-01  5.69433E-02
    9045.681     52.607   3.920  1.05107E+00  9.88014E-01  6.30539E-02
    9046.882     53.808   3.960  1.05396E+00  9.87375E-01  6.65891E-02
    9048.095     55.021   4.000  1.05473E+00  9.86803E-01  6.79243E-02
    9049.320     56.247   4.040  1.05404E+00  9.86277E-01  6.77660E-02
    9050.557     57.484   4.080  1.05266E+00  9.85798E-01  6.68661E-02
    9051.807     58.734   4.120  1.05124E+00  9.85388E-01  6.58477E-02
    9053.069     59.996   4.160  1.05027E+00  9.85048E-01  6.52185E-02
    9054.343     61.270   4.200  1.05005E+00  9.84734E-01  6.53173E-02
    9055.629     62.556   4.240  1.05075E+00  9.84509E-01  6.62378E-02
    9056.928     63.854   4.280  1.05210E+00  9.84311E-01  6.77896E-02
    9058.238     65.165   4.320  1.05377E+00  9.84179E-01  6.95892E-02
    9059.561     66.488   4.360  1.05516E+00  9.84114E-01  7.10466E-02
    9060.896     67.823   4.400  1.05564E+00  9.84073E-01  7.15670E-02
    9062.243     69.170   4.440  1.05477E+00  9.84098E-01  7.06734E-02
    9063.603     70.529   4.480  1.05215E+00  9.84168E-01  6.79804E-02
    9064.974     71.901   4.520  1.04757E+00  9.84301E-01  6.32712E-02
    9066.358     73.285   4.560  1.04103E+00  9.84455E-01  5.65767E-02
    9067.754     74.681   4.600  1.03282E+00  9.84669E-01  4.81504E-02
    9069.162     76.089   4.640  1.02332E+00  9.84899E-01  3.84183E-02
    9070.583     77.509   4.680  1.01304E+00  9.85166E-01  2.78750E-02
    9072.015     78.942   4.720  1.00240E+00  9.85470E-01  1.69297E-02
    9073.460     80.387   4.760  9.91691E-01  9.85810E-01  5.88056E-03
    9074.917     81.844   4.800  9.81246E-01  9.86185E-01 -4.93894E-03
    9076.386     83.313   4.840  9.71461E-01  9.86569E-01 -1.51083E-02
    9077.867     84.794   4.880  9.62857E-01  9.86984E-01 -2.41266E-02
    9079.361     86.287   4.920  9.55841E-01  9.87404E-01 -3.15629E-02
    9080.867     87.793   4.960  9.50633E-01  9.87830E-01 -3.71963E-02
    9082.385     89.311   5.000  9.47257E-01  9.88279E-01 -4.10218E-02
    9083.915     90.841   5.040  9.45488E-01  9.88710E-01 -4.32214E-02
    9085.457     92.383   5.080  9.45100E-01  9.89163E-01 -4.40626E-02
    9087.011     93.938   5.120  9.45789E-01  9.89617E-01 -4.38279E-02
    9088.578     95.505   5.160  9.47249E-01  9.90069E-01 -4.28200E-02
    9090.157     97.083   5.200  9.49160E-01  9.90495E-01 -4.13349E-02
    9091.748     98.675   5.240  9.51288E-01  9.90938E-01 -3.96503E-02
    9093.351    100.278   5.280  9.53419E-01  9.91352E-01 -3.79329E-02
    9094.967    101.893   5.320  9.55551E-01  9.91734E-01 -3.61832E-02
    9096.594    103.521   5.360  9.57812E-01  9.92108E-01 -3.42960E-02
    9098.234    105.161   5.400  9.60258E-01  9.92473E-01 -3.22153E-02
    9099.886    106.813   5.440  9.62740E-01  9.92804E-01 -3.00643E-02
    9101.550    108.477   5.480  9.64989E-01  9.93100E-01 -2.81108E-02
    9103.227    110.153   5.520  9.66773E-01  9.93381E-01 -2.66074E-02
    9104.915    111.842   5.560  9.67971E-01  9.93603E-01 -2.56320E-02
    9106.616    113.543   5.600  9.68834E-01  9.93809E-01 -2.49750E-02
    9108.329    115.256   5.640  9.69801E-01  9.93978E-01 -2.41768E-02
    9110.054    116.981   5.680  9.71413E-01  9.94108E-01 -2.26955E-02
    9111.792    118.718   5.720  9.74062E-01  9.94200E-01 -2.01388E-02
    9113.541    120.468   5.760  9.77926E-01  9.94277E-01 -1.63513E-02
    9115.303    122.229   5.800  9.82882E-01  9.94291E-01 -1.14089E-02
    9117.077    124.003   5.840  9.88633E-01  9.94262E-01 -5.62880E-03
    9118.863    125.789   5.880  9.94561E-01  9.94193E-01  3.67620E-04
    9120.661    127.588   5.920  9.99811E-01  9.94083E-01  5.72750E-03
    9122.472    129.398   5.960  1.00358E+00  9.93930E-01  9.65378E-03
    9124.294    131.221   6.000  1.00536E+00  9.93680E-01  1.16835E-02
