# # comment:                                                     FEFF 9.9.1  
# # Source:
# # Structure
# # Reduced
# # space
# # abc:
# # angles:
# # sites:
# # POT  SCF 100  7.0000   0, screened core-hole, AFOLP (folp(0)= 1.150)
# # Abs   Z=29 Rmt= 1.242 Rnm= 1.303 K  shell
# # Pot 1 Z=25 Rmt= 1.257 Rnm= 1.364
# # Pot 2 Z=29 Rmt= 1.318 Rnm= 1.415
# # Pot 3 Z=15 Rmt= 0.930 Rnm= 1.148
# # Pot 4 Z= 8 Rmt= 0.874 Rnm= 1.040
# # Gam_ch=1.729E+00 H-L exch Vi= 0.000E+00 Vr= 0.000E+00
# # Mu=-8.829E+00eV kf=2.517E+00 Vint=-1.781E+01eV Rs_int= 1.441
# FMS rfms= 9.0000
# # PATH  Rmax=-1.000,  Keep_limit= 0.00, Heap_limit 0.00  Pwcrit= 2.50%
#  S02=0.950  Temp=   0.00  Debye_temp=   0.00  Global_sig2= 0.00000
#  Energy zero shift, vr, vi    0.00000E+00   0.00000E+00
#  Curved wave amplitude ratio filter   4.000%
#     file         sig2 tot  cw amp ratio   deg  nlegs   reff  inp sig2
#     0/   0 paths used
#  xsedge+ 50, used to normalize mu           2.5111E-04
#  -----------------------------------------------------------------------
#  omega    e    k    mu    mu0     chi     @#
    8983.300    -12.639  -1.000  2.57729E-02  4.48103E-02 -1.90374E-02
    8983.599    -12.340  -0.960  2.66938E-02  4.78749E-02 -2.11810E-02
    8983.886    -12.054  -0.920  2.76535E-02  5.12682E-02 -2.36147E-02
    8984.160    -11.779  -0.880  2.86548E-02  5.50381E-02 -2.63833E-02
    8984.422    -11.517  -0.840  2.97008E-02  5.92399E-02 -2.95391E-02
    8984.672    -11.267  -0.800  3.07956E-02  6.39380E-02 -3.31424E-02
    8984.910    -11.029  -0.760  3.19436E-02  6.92061E-02 -3.72625E-02
    8985.135    -10.804  -0.720  3.31496E-02  7.51272E-02 -4.19776E-02
    8985.349    -10.591  -0.680  3.44191E-02  8.17930E-02 -4.73739E-02
    8985.550    -10.389  -0.640  3.57578E-02  8.93000E-02 -5.35422E-02
    8985.739    -10.200  -0.600  3.71706E-02  9.77428E-02 -6.05722E-02
    8985.916    -10.024  -0.560  3.86610E-02  1.07202E-01 -6.85408E-02
    8986.080     -9.859  -0.520  4.02294E-02  1.17725E-01 -7.74952E-02
    8986.233     -9.707  -0.480  4.18703E-02  1.29299E-01 -8.74287E-02
    8986.373     -9.566  -0.440  4.35703E-02  1.41824E-01 -9.82534E-02
    8986.501     -9.438  -0.400  4.53057E-02  1.55083E-01 -1.09777E-01
    8986.617     -9.323  -0.360  4.70419E-02  1.68736E-01 -1.21694E-01
    8986.720     -9.219  -0.320  4.87360E-02  1.82344E-01 -1.33608E-01
    8986.812     -9.127  -0.280  5.03409E-02  1.95417E-01 -1.45076E-01
    8986.891     -9.048  -0.240  5.18120E-02  2.07484E-01 -1.55672E-01
    8986.958     -8.981  -0.200  5.31117E-02  2.18149E-01 -1.65038E-01
    8987.013     -8.926  -0.160  5.42113E-02  2.27124E-01 -1.72913E-01
    8987.056     -8.884  -0.120  5.50907E-02  2.34221E-01 -1.79130E-01
    8987.086     -8.853  -0.080  5.57361E-02  2.39335E-01 -1.83599E-01
    8987.110     -8.829   0.000  5.62770E-02  2.43446E-01 -1.87169E-01
    8987.165     -8.774   0.120  5.74756E-02  2.52711E-01 -1.95236E-01
    8987.208     -8.731   0.160  5.83989E-02  2.59931E-01 -2.01532E-01
    8987.263     -8.676   0.200  5.95440E-02  2.69136E-01 -2.09592E-01
    8987.330     -8.609   0.240  6.09237E-02  2.80229E-01 -2.19305E-01
    8987.409     -8.530   0.280  6.25245E-02  2.92995E-01 -2.30471E-01
    8987.501     -8.439   0.320  6.43470E-02  3.07121E-01 -2.42774E-01
    8987.604     -8.335   0.360  6.63451E-02  3.22178E-01 -2.55833E-01
    8987.720     -8.219   0.400  6.85562E-02  3.37813E-01 -2.69256E-01
    8987.848     -8.091   0.440  7.09367E-02  3.53585E-01 -2.82648E-01
    8987.988     -7.951   0.480  7.35476E-02  3.69243E-01 -2.95696E-01
    8988.141     -7.799   0.520  7.63997E-02  3.84565E-01 -3.08166E-01
    8988.305     -7.634   0.560  7.95371E-02  3.99486E-01 -3.19949E-01
    8988.482     -7.457   0.600  8.29964E-02  4.14002E-01 -3.31006E-01
    8988.671     -7.268   0.640  8.68291E-02  4.28142E-01 -3.41313E-01
    8988.872     -7.067   0.680  9.10618E-02  4.41979E-01 -3.50917E-01
    8989.086     -6.854   0.720  9.56302E-02  4.55574E-01 -3.59944E-01
    8989.311     -6.628   0.760  1.00427E-01  4.69011E-01 -3.68584E-01
    8989.549     -6.390   0.800  1.05266E-01  4.82387E-01 -3.77121E-01
    8989.799     -6.140   0.840  1.09946E-01  4.95708E-01 -3.85762E-01
    8990.061     -5.878   0.880  1.14669E-01  5.09069E-01 -3.94401E-01
    8990.335     -5.604   0.920  1.19918E-01  5.22478E-01 -4.02560E-01
    8990.622     -5.318   0.960  1.26222E-01  5.35951E-01 -4.09729E-01
    8990.920     -5.019   1.000  1.34022E-01  5.49537E-01 -4.15515E-01
    8991.231     -4.708   1.040  1.43713E-01  5.63238E-01 -4.19525E-01
    8991.554     -4.385   1.080  1.55799E-01  5.77029E-01 -4.21230E-01
    8991.890     -4.050   1.120  1.70883E-01  5.90941E-01 -4.20059E-01
    8992.237     -3.702   1.160  1.89411E-01  6.04962E-01 -4.15551E-01
    8992.597     -3.342   1.200  2.11491E-01  6.19052E-01 -4.07561E-01
    8992.969     -2.971   1.240  2.36712E-01  6.33212E-01 -3.96500E-01
    8993.353     -2.587   1.280  2.64698E-01  6.47438E-01 -3.82740E-01
    8993.749     -2.190   1.320  2.96553E-01  6.61684E-01 -3.65132E-01
    8994.157     -1.782   1.360  3.35041E-01  6.75944E-01 -3.40903E-01
    8994.578     -1.361   1.400  3.83276E-01  6.90168E-01 -3.06893E-01
    8995.011     -0.928   1.440  4.43594E-01  7.04366E-01 -2.60772E-01
    8995.456     -0.483   1.480  5.16326E-01  7.18487E-01 -2.02161E-01
    8995.913     -0.026   1.520  5.97174E-01  7.32500E-01 -1.35326E-01
    8996.382      0.443   1.560  6.80613E-01  7.46370E-01 -6.57575E-02
    8996.864      0.925   1.600  7.65065E-01  7.60088E-01  4.97759E-03
    8997.358      1.419   1.640  8.42381E-01  7.73620E-01  6.87614E-02
    8997.864      1.925   1.680  8.98802E-01  7.86951E-01  1.11851E-01
    8998.382      2.443   1.720  9.37199E-01  8.00009E-01  1.37190E-01
    8998.912      2.973   1.760  9.79473E-01  8.12803E-01  1.66670E-01
    8999.455      3.516   1.800  1.03550E+00  8.25302E-01  2.10196E-01
    9000.010      4.070   1.840  1.09304E+00  8.37471E-01  2.55565E-01
    9000.576      4.637   1.880  1.15034E+00  8.49302E-01  3.01039E-01
    9001.156      5.216   1.920  1.21864E+00  8.60743E-01  3.57902E-01
    9001.747      5.808   1.960  1.28842E+00  8.71826E-01  4.16596E-01
    9002.350      6.411   2.000  1.32476E+00  8.82484E-01  4.42281E-01
    9002.966      7.027   2.040  1.32036E+00  8.92729E-01  4.27630E-01
    9003.594      7.655   2.080  1.30302E+00  9.02554E-01  4.00469E-01
    9004.234      8.295   2.120  1.28558E+00  9.11913E-01  3.73668E-01
    9004.886      8.947   2.160  1.25726E+00  9.20844E-01  3.36420E-01
    9005.551      9.612   2.200  1.22037E+00  9.29281E-01  2.91092E-01
    9006.227     10.288   2.240  1.19850E+00  9.37284E-01  2.61212E-01
    9006.916     10.977   2.280  1.20153E+00  9.44811E-01  2.56720E-01
    9007.617     11.678   2.320  1.21573E+00  9.51859E-01  2.63876E-01
    9008.331     12.391   2.360  1.22188E+00  9.58431E-01  2.63446E-01
    9009.056     13.117   2.400  1.20741E+00  9.64549E-01  2.42863E-01
    9009.794     13.854   2.440  1.17398E+00  9.70197E-01  2.03783E-01
    9010.543     14.604   2.480  1.13475E+00  9.75418E-01  1.59330E-01
    9011.305     15.366   2.520  1.10170E+00  9.80174E-01  1.21528E-01
    9012.080     16.140   2.560  1.08077E+00  9.84490E-01  9.62811E-02
    9012.866     16.927   2.600  1.07239E+00  9.88393E-01  8.40015E-02
    9013.665     17.725   2.640  1.07277E+00  9.91869E-01  8.09029E-02
    9014.475     18.536   2.680  1.07809E+00  9.94967E-01  8.31252E-02
    9015.298     19.359   2.720  1.08459E+00  9.97671E-01  8.69213E-02
    9016.133     20.194   2.760  1.08287E+00  1.00001E+00  8.28605E-02
    9016.981     21.041   2.800  1.06276E+00  1.00199E+00  6.07687E-02
    9017.840     21.901   2.840  1.02032E+00  1.00365E+00  1.66720E-02
    9018.712     22.773   2.880  9.59453E-01  1.00498E+00 -4.55267E-02
    9019.596     23.657   2.920  9.06537E-01  1.00600E+00 -9.94649E-02
    9020.492     24.553   2.960  8.75904E-01  1.00676E+00 -1.30859E-01
    9021.400     25.461   3.000  8.58293E-01  1.00725E+00 -1.48956E-01
    9022.321     26.382   3.040  8.47235E-01  1.00747E+00 -1.60235E-01
    9023.254     27.314   3.080  8.38914E-01  1.00748E+00 -1.68562E-01
    9024.198     28.259   3.120  8.31446E-01  1.00727E+00 -1.75829E-01
    9025.155     29.216   3.160  8.24065E-01  1.00688E+00 -1.82810E-01
    9026.125     30.185   3.200  8.16896E-01  1.00629E+00 -1.89392E-01
    9027.106     31.167   3.240  8.10994E-01  1.00556E+00 -1.94564E-01
    9028.100     32.161   3.280  8.07768E-01  1.00468E+00 -1.96909E-01
    9029.106     33.166   3.320  8.07672E-01  1.00367E+00 -1.95997E-01
    9030.124     34.184   3.360  8.10956E-01  1.00254E+00 -1.91588E-01
    9031.154     35.215   3.400  8.17751E-01  1.00133E+00 -1.83577E-01
    9032.196     36.257   3.440  8.27939E-01  1.00001E+00 -1.72070E-01
    9033.251     37.312   3.480  8.41320E-01  9.98634E-01 -1.57314E-01
    9034.318     38.378   3.520  8.57582E-01  9.97189E-01 -1.39607E-01
    9035.397     39.457   3.560  8.76261E-01  9.95722E-01 -1.19461E-01
    9036.488     40.549   3.600  8.96486E-01  9.94197E-01 -9.77112E-02
    9037.591     41.652   3.640  9.17662E-01  9.92679E-01 -7.50176E-02
    9038.707     42.768   3.680  9.39063E-01  9.91115E-01 -5.20516E-02
    9039.835     43.895   3.720  9.60186E-01  9.89569E-01 -2.93833E-02
    9040.975     45.035   3.760  9.80615E-01  9.88027E-01 -7.41267E-03
    9042.127     46.187   3.800  9.99946E-01  9.86514E-01  1.34312E-02
    9043.291     47.352   3.840  1.01744E+00  9.85013E-01  3.24298E-02
    9044.468     48.528   3.880  1.03231E+00  9.83547E-01  4.87621E-02
    9045.656     49.717   3.920  1.04385E+00  9.82140E-01  6.17087E-02
    9046.857     50.918   3.960  1.05155E+00  9.80756E-01  7.07960E-02
    9048.070     52.131   4.000  1.05552E+00  9.79435E-01  7.60872E-02
    9049.296     53.356   4.040  1.05633E+00  9.78159E-01  7.81752E-02
    9050.533     54.594   4.080  1.05491E+00  9.76933E-01  7.79764E-02
    9051.783     55.843   4.120  1.05222E+00  9.75800E-01  7.64153E-02
    9053.045     57.105   4.160  1.04913E+00  9.74719E-01  7.44090E-02
    9054.319     58.379   4.200  1.04633E+00  9.73691E-01  7.26353E-02
    9055.605     59.666   4.240  1.04430E+00  9.72760E-01  7.15384E-02
    9056.903     60.964   4.280  1.04337E+00  9.71907E-01  7.14654E-02
    9058.214     62.275   4.320  1.04382E+00  9.71111E-01  7.27047E-02
    9059.537     63.597   4.360  1.04579E+00  9.70415E-01  7.53738E-02
    9060.872     64.933   4.400  1.04914E+00  9.69799E-01  7.93395E-02
    9062.219     66.280   4.440  1.05339E+00  9.69240E-01  8.41516E-02
    9063.578     67.639   4.480  1.05768E+00  9.68781E-01  8.88971E-02
    9064.950     69.011   4.520  1.06072E+00  9.68401E-01  9.23185E-02
    9066.334     70.394   4.560  1.06125E+00  9.68077E-01  9.31770E-02
    9067.730     71.790   4.600  1.05837E+00  9.67851E-01  9.05196E-02
    9069.138     73.199   4.640  1.05167E+00  9.67683E-01  8.39855E-02
    9070.558     74.619   4.680  1.04148E+00  9.67612E-01  7.38717E-02
    9071.991     76.052   4.720  1.02852E+00  9.67596E-01  6.09240E-02
    9073.436     77.496   4.760  1.01378E+00  9.67652E-01  4.61240E-02
    9074.893     78.953   4.800  9.98253E-01  9.67760E-01  3.04938E-02
    9076.362     80.422   4.840  9.82835E-01  9.67960E-01  1.48748E-02
    9077.843     81.904   4.880  9.68055E-01  9.68188E-01 -1.32390E-04
    9079.336     83.397   4.920  9.54326E-01  9.68484E-01 -1.41583E-02
    9080.842     84.903   4.960  9.41809E-01  9.68846E-01 -2.70372E-02
    9082.360     86.421   5.000  9.30571E-01  9.69231E-01 -3.86599E-02
    9083.890     87.951   5.040  9.20696E-01  9.69679E-01 -4.89826E-02
    9085.432     89.493   5.080  9.12297E-01  9.70167E-01 -5.78700E-02
    9086.987     91.048   5.120  9.05642E-01  9.70691E-01 -6.50492E-02
    9088.554     92.614   5.160  9.01070E-01  9.71230E-01 -7.01599E-02
    9090.132     94.193   5.200  8.98888E-01  9.71800E-01 -7.29123E-02
    9091.723     95.784   5.240  8.99068E-01  9.72402E-01 -7.33343E-02
    9093.327     97.387   5.280  9.01292E-01  9.73012E-01 -7.17201E-02
    9094.942     99.003   5.320  9.05060E-01  9.73626E-01 -6.85660E-02
    9096.570    100.631   5.360  9.09912E-01  9.74265E-01 -6.43529E-02
    9098.210    102.270   5.400  9.15455E-01  9.74905E-01 -5.94504E-02
    9099.862    103.922   5.440  9.21487E-01  9.75520E-01 -5.40330E-02
    9101.526    105.587   5.480  9.27879E-01  9.76133E-01 -4.82537E-02
    9103.202    107.263   5.520  9.34379E-01  9.76761E-01 -4.23820E-02
    9104.891    108.952   5.560  9.40528E-01  9.77337E-01 -3.68090E-02
    9106.592    110.652   5.600  9.46033E-01  9.77905E-01 -3.18723E-02
    9108.305    112.365   5.640  9.50718E-01  9.78463E-01 -2.77450E-02
    9110.030    114.090   5.680  9.54631E-01  9.78985E-01 -2.43540E-02
    9111.767    115.828   5.720  9.58044E-01  9.79471E-01 -2.14266E-02
    9113.517    117.577   5.760  9.61331E-01  9.79915E-01 -1.85844E-02
    9115.278    119.339   5.800  9.64786E-01  9.80320E-01 -1.55339E-02
    9117.052    121.113   5.840  9.68528E-01  9.80682E-01 -1.21546E-02
    9118.838    122.899   5.880  9.72446E-01  9.81000E-01 -8.55413E-03
    9120.637    124.697   5.920  9.76267E-01  9.81245E-01 -4.97875E-03
    9122.447    126.508   5.960  9.79773E-01  9.81436E-01 -1.66234E-03
    9124.270    128.331   6.000  9.82937E-01  9.81556E-01  1.38138E-03
