# # comment:                                                     FEFF 9.9.1  
# # Source:
# # Structure
# # Reduced
# # space
# # abc:
# # angles:
# # sites:
# # POT  SCF 100  7.0000   0, screened core-hole, AFOLP (folp(0)= 1.150)
# # Abs   Z=29 Rmt= 1.248 Rnm= 1.329 K  shell
# # Pot 1 Z=29 Rmt= 1.251 Rnm= 1.320
# # Pot 2 Z=15 Rmt= 0.940 Rnm= 1.152
# # Pot 3 Z= 8 Rmt= 0.857 Rnm= 1.030
# # Gam_ch=1.729E+00 H-L exch Vi= 0.000E+00 Vr= 0.000E+00
# # Mu=-6.007E+00eV kf=2.507E+00 Vint=-1.723E+01eV Rs_int= 1.447
# FMS rfms= 9.0000
# # PATH  Rmax=-1.000,  Keep_limit= 0.00, Heap_limit 0.00  Pwcrit= 2.50%
#  S02=0.950  Temp=   0.00  Debye_temp=   0.00  Global_sig2= 0.00000
#  Energy zero shift, vr, vi    0.00000E+00   0.00000E+00
#  Curved wave amplitude ratio filter   4.000%
#     file         sig2 tot  cw amp ratio   deg  nlegs   reff  inp sig2
#     0/   0 paths used
#  xsedge+ 50, used to normalize mu           2.4833E-04
#  -----------------------------------------------------------------------
#  omega    e    k    mu    mu0     chi     @#
    8983.363     -9.817  -1.000  4.33579E-02  5.43509E-02 -1.09930E-02
    8983.662     -9.519  -0.960  4.58752E-02  5.83548E-02 -1.24796E-02
    8983.948     -9.232  -0.920  4.86074E-02  6.28114E-02 -1.42040E-02
    8984.223     -8.958  -0.880  5.15795E-02  6.77879E-02 -1.62084E-02
    8984.485     -8.696  -0.840  5.48203E-02  7.33632E-02 -1.85429E-02
    8984.735     -8.446  -0.800  5.83615E-02  7.96285E-02 -2.12670E-02
    8984.972     -8.208  -0.760  6.22390E-02  8.66889E-02 -2.44498E-02
    8985.198     -7.982  -0.720  6.64918E-02  9.46629E-02 -2.81711E-02
    8985.411     -7.769  -0.680  7.11611E-02  1.03682E-01 -3.25204E-02
    8985.612     -7.568  -0.640  7.62891E-02  1.13883E-01 -3.75942E-02
    8985.801     -7.379  -0.600  8.19150E-02  1.25404E-01 -4.34892E-02
    8985.978     -7.202  -0.560  8.80704E-02  1.38361E-01 -5.02908E-02
    8986.143     -7.037  -0.520  9.47709E-02  1.52824E-01 -5.80532E-02
    8986.295     -6.885  -0.480  1.02006E-01  1.68779E-01 -6.67729E-02
    8986.435     -6.745  -0.440  1.09728E-01  1.86085E-01 -7.63577E-02
    8986.563     -6.617  -0.400  1.17837E-01  2.04439E-01 -8.66015E-02
    8986.679     -6.501  -0.360  1.26183E-01  2.23362E-01 -9.71787E-02
    8986.783     -6.397  -0.320  1.34559E-01  2.42232E-01 -1.07673E-01
    8986.874     -6.306  -0.280  1.42722E-01  2.60360E-01 -1.17639E-01
    8986.954     -6.227  -0.240  1.50413E-01  2.77086E-01 -1.26673E-01
    8987.021     -6.160  -0.200  1.57381E-01  2.91857E-01 -1.34476E-01
    8987.076     -6.105  -0.160  1.63400E-01  3.04273E-01 -1.40873E-01
    8987.118     -6.062  -0.120  1.68285E-01  3.14079E-01 -1.45794E-01
    8987.149     -6.032  -0.080  1.71896E-01  3.21139E-01 -1.49243E-01
    8987.173     -6.007   0.000  1.74905E-01  3.26807E-01 -1.51902E-01
    8987.228     -5.952   0.120  1.81631E-01  3.39589E-01 -1.57958E-01
    8987.271     -5.910   0.160  1.86944E-01  3.49506E-01 -1.62562E-01
    8987.325     -5.855   0.200  1.93896E-01  3.62140E-01 -1.68245E-01
    8987.393     -5.788   0.240  2.02611E-01  3.77323E-01 -1.74711E-01
    8987.472     -5.709   0.280  2.13091E-01  3.94706E-01 -1.81615E-01
    8987.563     -5.617   0.320  2.25292E-01  4.13799E-01 -1.88508E-01
    8987.667     -5.513   0.360  2.39020E-01  4.34058E-01 -1.95038E-01
    8987.783     -5.398   0.400  2.53751E-01  4.54824E-01 -2.01074E-01
    8987.911     -5.270   0.440  2.68645E-01  4.75536E-01 -2.06891E-01
    8988.051     -5.129   0.480  2.82657E-01  4.95778E-01 -2.13121E-01
    8988.203     -4.977   0.520  2.94888E-01  5.15216E-01 -2.20328E-01
    8988.368     -4.812   0.560  3.05407E-01  5.33764E-01 -2.28357E-01
    8988.545     -4.636   0.600  3.15507E-01  5.51391E-01 -2.35884E-01
    8988.734     -4.447   0.640  3.27328E-01  5.68123E-01 -2.40795E-01
    8988.935     -4.245   0.680  3.42920E-01  5.84106E-01 -2.41186E-01
    8989.148     -4.032   0.720  3.63123E-01  5.99400E-01 -2.36277E-01
    8989.374     -3.807   0.760  3.87154E-01  6.14147E-01 -2.26993E-01
    8989.611     -3.569   0.800  4.12668E-01  6.28459E-01 -2.15791E-01
    8989.861     -3.319   0.840  4.36883E-01  6.42372E-01 -2.05489E-01
    8990.124     -3.057   0.880  4.58003E-01  6.55990E-01 -1.97988E-01
    8990.398     -2.782   0.920  4.75304E-01  6.69365E-01 -1.94060E-01
    8990.684     -2.496   0.960  4.89220E-01  6.82551E-01 -1.93330E-01
    8990.983     -2.197   1.000  5.02194E-01  6.95554E-01 -1.93360E-01
    8991.294     -1.886   1.040  5.18172E-01  7.08411E-01 -1.90239E-01
    8991.617     -1.563   1.080  5.40156E-01  7.21128E-01 -1.80971E-01
    8991.952     -1.228   1.120  5.69044E-01  7.33706E-01 -1.64663E-01
    8992.300     -0.881   1.160  6.05026E-01  7.46142E-01 -1.41116E-01
    8992.659     -0.521   1.200  6.48882E-01  7.58464E-01 -1.09582E-01
    8993.031     -0.149   1.240  6.98943E-01  7.70619E-01 -7.16761E-02
    8993.415      0.235   1.280  7.47585E-01  7.82611E-01 -3.50258E-02
    8993.812      0.631   1.320  7.85636E-01  7.94440E-01 -8.80365E-03
    8994.220      1.040   1.360  8.12100E-01  8.06065E-01  6.03436E-03
    8994.641      1.460   1.400  8.37834E-01  8.17484E-01  2.03504E-02
    8995.073      1.893   1.440  8.73563E-01  8.28692E-01  4.48710E-02
    8995.518      2.338   1.480  9.13912E-01  8.39645E-01  7.42675E-02
    8995.976      2.795   1.520  9.51676E-01  8.50337E-01  1.01340E-01
    8996.445      3.265   1.560  9.88026E-01  8.60742E-01  1.27284E-01
    8996.927      3.746   1.600  1.01795E+00  8.70855E-01  1.47095E-01
    8997.420      4.240   1.640  1.04132E+00  8.80650E-01  1.60673E-01
    8997.926      4.746   1.680  1.07125E+00  8.90124E-01  1.81129E-01
    8998.445      5.264   1.720  1.11728E+00  8.99271E-01  2.18006E-01
    8998.975      5.795   1.760  1.17642E+00  9.08045E-01  2.68372E-01
    8999.517      6.337   1.800  1.24364E+00  9.16464E-01  3.27174E-01
    9000.072      6.892   1.840  1.30559E+00  9.24504E-01  3.81085E-01
    9000.639      7.459   1.880  1.33707E+00  9.32185E-01  4.04882E-01
    9001.218      8.038   1.920  1.32921E+00  9.39462E-01  3.89748E-01
    9001.809      8.629   1.960  1.29380E+00  9.46376E-01  3.47423E-01
    9002.413      9.233   2.000  1.23668E+00  9.52885E-01  2.83797E-01
    9003.029      9.848   2.040  1.17467E+00  9.58992E-01  2.15681E-01
    9003.657     10.476   2.080  1.13375E+00  9.64736E-01  1.69014E-01
    9004.297     11.116   2.120  1.12533E+00  9.70080E-01  1.55253E-01
    9004.949     11.769   2.160  1.14251E+00  9.75048E-01  1.67462E-01
    9005.613     12.433   2.200  1.16790E+00  9.79642E-01  1.88257E-01
    9006.290     13.110   2.240  1.18001E+00  9.83865E-01  1.96142E-01
    9006.979     13.799   2.280  1.16561E+00  9.87723E-01  1.77886E-01
    9007.680     14.500   2.320  1.13036E+00  9.91241E-01  1.39117E-01
    9008.393     15.213   2.360  1.08915E+00  9.94423E-01  9.47294E-02
    9009.119     15.938   2.400  1.05323E+00  9.97256E-01  5.59727E-02
    9009.856     16.676   2.440  1.02529E+00  9.99788E-01  2.55019E-02
    9010.606     17.426   2.480  1.00039E+00  1.00202E+00 -1.63450E-03
    9011.368     18.188   2.520  9.73557E-01  1.00395E+00 -3.03893E-02
    9012.142     18.962   2.560  9.48360E-01  1.00561E+00 -5.72487E-02
    9012.929     19.748   2.600  9.31276E-01  1.00700E+00 -7.57200E-02
    9013.727     20.547   2.640  9.23132E-01  1.00813E+00 -8.50019E-02
    9014.538     21.358   2.680  9.21709E-01  1.00905E+00 -8.73427E-02
    9015.361     22.181   2.720  9.24259E-01  1.00973E+00 -8.54751E-02
    9016.196     23.016   2.760  9.25901E-01  1.01021E+00 -8.43081E-02
    9017.043     23.863   2.800  9.22902E-01  1.01049E+00 -8.75837E-02
    9017.903     24.723   2.840  9.15920E-01  1.01059E+00 -9.46693E-02
    9018.775     25.594   2.880  9.07537E-01  1.01053E+00 -1.02991E-01
    9019.659     26.478   2.920  9.05578E-01  1.01031E+00 -1.04730E-01
    9020.555     27.374   2.960  9.10740E-01  1.00996E+00 -9.92150E-02
    9021.463     28.283   3.000  9.19809E-01  1.00946E+00 -8.96480E-02
    9022.383     29.203   3.040  9.29941E-01  1.00886E+00 -7.89204E-02
    9023.316     30.136   3.080  9.39952E-01  1.00818E+00 -6.82240E-02
    9024.261     31.081   3.120  9.49421E-01  1.00740E+00 -5.79827E-02
    9025.218     32.038   3.160  9.58008E-01  1.00653E+00 -4.85221E-02
    9026.187     33.007   3.200  9.65413E-01  1.00560E+00 -4.01890E-02
    9027.169     33.988   3.240  9.71384E-01  1.00463E+00 -3.32413E-02
    9028.162     34.982   3.280  9.75592E-01  1.00360E+00 -2.80120E-02
    9029.168     35.988   3.320  9.77900E-01  1.00252E+00 -2.46227E-02
    9030.186     37.006   3.360  9.78643E-01  1.00145E+00 -2.28028E-02
    9031.216     38.036   3.400  9.78306E-01  1.00032E+00 -2.20126E-02
    9032.259     39.079   3.440  9.77510E-01  9.99204E-01 -2.16941E-02
    9033.313     40.133   3.480  9.76598E-01  9.98068E-01 -2.14700E-02
    9034.380     41.200   3.520  9.76017E-01  9.96955E-01 -2.09372E-02
    9035.459     42.279   3.560  9.76136E-01  9.95845E-01 -1.97085E-02
    9036.550     43.370   3.600  9.77341E-01  9.94763E-01 -1.74226E-02
    9037.654     44.474   3.640  9.79744E-01  9.93690E-01 -1.39458E-02
    9038.769     45.589   3.680  9.83187E-01  9.92629E-01 -9.44134E-03
    9039.897     46.717   3.720  9.87321E-01  9.91625E-01 -4.30433E-03
    9041.037     47.857   3.760  9.91785E-01  9.90659E-01  1.12650E-03
    9042.189     49.009   3.800  9.96458E-01  9.89711E-01  6.74641E-03
    9043.354     50.173   3.840  1.00136E+00  9.88825E-01  1.25398E-02
    9044.530     51.350   3.880  1.00641E+00  9.87982E-01  1.84262E-02
    9045.719     52.539   3.920  1.01133E+00  9.87184E-01  2.41485E-02
    9046.920     53.739   3.960  1.01573E+00  9.86452E-01  2.92776E-02
    9048.133     54.953   4.000  1.01912E+00  9.85765E-01  3.33538E-02
    9049.358     56.178   4.040  1.02125E+00  9.85125E-01  3.61212E-02
    9050.596     57.415   4.080  1.02202E+00  9.84554E-01  3.74704E-02
    9051.845     58.665   4.120  1.02149E+00  9.84030E-01  3.74570E-02
    9053.107     59.927   4.160  1.01980E+00  9.83576E-01  3.62216E-02
    9054.381     61.201   4.200  1.01701E+00  9.83170E-01  3.38374E-02
    9055.667     62.487   4.240  1.01318E+00  9.82833E-01  3.03488E-02
    9056.966     63.786   4.280  1.00842E+00  9.82542E-01  2.58770E-02
    9058.277     65.096   4.320  1.00301E+00  9.82300E-01  2.07050E-02
    9059.599     66.419   4.360  9.97438E-01  9.82128E-01  1.53094E-02
    9060.934     67.754   4.400  9.92300E-01  9.82025E-01  1.02754E-02
    9062.282     69.101   4.440  9.88096E-01  9.81968E-01  6.12868E-03
    9063.641     70.461   4.480  9.85107E-01  9.81955E-01  3.15222E-03
    9065.013     71.832   4.520  9.83274E-01  9.81985E-01  1.28846E-03
    9066.396     73.216   4.560  9.82280E-01  9.82080E-01  2.00334E-04
    9067.792     74.612   4.600  9.81678E-01  9.82196E-01 -5.18058E-04
    9069.200     76.020   4.640  9.81202E-01  9.82376E-01 -1.17374E-03
    9070.621     77.441   4.680  9.80629E-01  9.82596E-01 -1.96747E-03
    9072.053     78.873   4.720  9.79809E-01  9.82857E-01 -3.04798E-03
    9073.498     80.318   4.760  9.78681E-01  9.83155E-01 -4.47363E-03
    9074.955     81.775   4.800  9.77372E-01  9.83489E-01 -6.11739E-03
    9076.424     83.244   4.840  9.76216E-01  9.83836E-01 -7.62041E-03
    9077.906     84.725   4.880  9.75623E-01  9.84214E-01 -8.59167E-03
    9079.399     86.219   4.920  9.75764E-01  9.84603E-01 -8.83870E-03
    9080.905     87.724   4.960  9.76621E-01  9.85045E-01 -8.42329E-03
    9082.423     89.242   5.000  9.77996E-01  9.85472E-01 -7.47617E-03
    9083.953     90.772   5.040  9.79901E-01  9.85926E-01 -6.02501E-03
    9085.495     92.315   5.080  9.82379E-01  9.86383E-01 -4.00415E-03
    9087.050     93.869   5.120  9.85450E-01  9.86844E-01 -1.39442E-03
    9088.616     95.436   5.160  9.88943E-01  9.87327E-01  1.61516E-03
    9090.195     97.015   5.200  9.92418E-01  9.87787E-01  4.63077E-03
    9091.786     98.606   5.240  9.95436E-01  9.88243E-01  7.19268E-03
    9093.389    100.209   5.280  9.97683E-01  9.88697E-01  8.98664E-03
    9095.005    101.824   5.320  9.99130E-01  9.89144E-01  9.98616E-03
    9096.632    103.452   5.360  9.99954E-01  9.89562E-01  1.03921E-02
    9098.272    105.092   5.400  1.00038E+00  9.89971E-01  1.04098E-02
    9099.924    106.744   5.440  1.00043E+00  9.90348E-01  1.00793E-02
    9101.588    108.408   5.480  9.99994E-01  9.90716E-01  9.27843E-03
    9103.265    110.085   5.520  9.98877E-01  9.91050E-01  7.82637E-03
    9104.953    111.773   5.560  9.96973E-01  9.91374E-01  5.59932E-03
    9106.654    113.474   5.600  9.94261E-01  9.91661E-01  2.59991E-03
    9108.367    115.187   5.640  9.90922E-01  9.91909E-01 -9.87056E-04
    9110.092    116.912   5.680  9.87294E-01  9.92119E-01 -4.82521E-03
    9111.830    118.649   5.720  9.83776E-01  9.92289E-01 -8.51277E-03
    9113.579    120.399   5.760  9.80732E-01  9.92418E-01 -1.16858E-02
    9115.341    122.161   5.800  9.78356E-01  9.92507E-01 -1.41516E-02
    9117.115    123.935   5.840  9.76572E-01  9.92557E-01 -1.59853E-02
    9118.901    125.721   5.880  9.75091E-01  9.92567E-01 -1.74757E-02
    9120.699    127.519   5.920  9.73670E-01  9.92536E-01 -1.88660E-02
    9122.510    129.330   5.960  9.72379E-01  9.92459E-01 -2.00799E-02
    9124.332    131.152   6.000  9.71723E-01  9.92316E-01 -2.05928E-02
