# # comment:                                                     FEFF 9.9.1  
# # Source:
# # Structure
# # Reduced
# # space
# # abc:
# # angles:
# # sites:
# # POT  SCF 100  7.0000   0, screened core-hole, AFOLP (folp(0)= 1.150)
# # Abs   Z=29 Rmt= 1.187 Rnm= 1.359 K  shell
# # Pot 1 Z=22 Rmt= 1.282 Rnm= 1.414
# # Pot 2 Z=29 Rmt= 1.187 Rnm= 1.359
# # Pot 3 Z= 8 Rmt= 1.016 Rnm= 1.105
# # Gam_ch=1.729E+00 H-L exch Vi= 0.000E+00 Vr= 0.000E+00
# # Mu=-8.455E+00eV kf=2.090E+00 Vint=-1.639E+01eV Rs_int= 1.735
# FMS rfms= 9.0000
# # PATH  Rmax=-1.000,  Keep_limit= 0.00, Heap_limit 0.00  Pwcrit= 2.50%
#  S02=0.950  Temp=   0.00  Debye_temp=   0.00  Global_sig2= 0.00000
#  Energy zero shift, vr, vi    0.00000E+00   0.00000E+00
#  Curved wave amplitude ratio filter   4.000%
#     file         sig2 tot  cw amp ratio   deg  nlegs   reff  inp sig2
#     0/   0 paths used
#  xsedge+ 50, used to normalize mu           2.4702E-04
#  -----------------------------------------------------------------------
#  omega    e    k    mu    mu0     chi     @#
    8983.842    -12.265  -1.000  4.78016E-02  5.27890E-02 -4.98738E-03
    8984.141    -11.966  -0.960  5.12080E-02  5.65596E-02 -5.35167E-03
    8984.427    -11.680  -0.920  5.50034E-02  6.07426E-02 -5.73919E-03
    8984.702    -11.406  -0.880  5.92476E-02  6.53980E-02 -6.15041E-03
    8984.964    -11.143  -0.840  6.40098E-02  7.05955E-02 -6.58570E-03
    8985.214    -10.893  -0.800  6.93703E-02  7.64157E-02 -7.04538E-03
    8985.451    -10.656  -0.760  7.54215E-02  8.29513E-02 -7.52978E-03
    8985.677    -10.430  -0.720  8.22673E-02  9.03066E-02 -8.03928E-03
    8985.890    -10.217  -0.680  9.00221E-02  9.85964E-02 -8.57426E-03
    8986.091    -10.016  -0.640  9.88068E-02  1.07942E-01 -9.13487E-03
    8986.280     -9.827  -0.600  1.08741E-01  1.18461E-01 -9.72039E-03
    8986.457     -9.650  -0.560  1.19928E-01  1.30256E-01 -1.03278E-02
    8986.622     -9.485  -0.520  1.32435E-01  1.43385E-01 -1.09496E-02
    8986.774     -9.333  -0.480  1.46263E-01  1.57834E-01 -1.15701E-02
    8986.914     -9.193  -0.440  1.61313E-01  1.73476E-01 -1.21630E-02
    8987.042     -9.065  -0.400  1.77351E-01  1.90041E-01 -1.26898E-02
    8987.158     -8.949  -0.360  1.94001E-01  2.07106E-01 -1.31053E-02
    8987.262     -8.845  -0.320  2.10751E-01  2.24119E-01 -1.33684E-02
    8987.353     -8.754  -0.280  2.27011E-01  2.40469E-01 -1.34573E-02
    8987.433     -8.675  -0.240  2.42185E-01  2.55565E-01 -1.33798E-02
    8987.500     -8.608  -0.200  2.55740E-01  2.68913E-01 -1.31727E-02
    8987.554     -8.553  -0.160  2.67257E-01  2.80147E-01 -1.28896E-02
    8987.597     -8.510  -0.120  2.76450E-01  2.89033E-01 -1.25825E-02
    8987.628     -8.479  -0.080  2.83143E-01  2.95437E-01 -1.22948E-02
    8987.652     -8.455   0.000  2.88620E-01  3.00586E-01 -1.19663E-02
    8987.707     -8.400   0.120  3.00367E-01  3.12211E-01 -1.18433E-02
    8987.750     -8.358   0.160  3.09570E-01  3.21250E-01 -1.16803E-02
    8987.804     -8.303   0.200  3.21364E-01  3.32796E-01 -1.14320E-02
    8987.871     -8.236   0.240  3.35618E-01  3.46705E-01 -1.10869E-02
    8987.951     -8.156   0.280  3.52064E-01  3.62716E-01 -1.06520E-02
    8988.042     -8.065   0.320  3.70289E-01  3.80443E-01 -1.01547E-02
    8988.146     -7.961   0.360  3.89769E-01  3.99406E-01 -9.63713E-03
    8988.262     -7.846   0.400  4.10009E-01  4.19072E-01 -9.06298E-03
    8988.390     -7.717   0.440  4.30706E-01  4.38950E-01 -8.24350E-03
    8988.530     -7.577   0.480  4.51923E-01  4.58697E-01 -6.77435E-03
    8988.682     -7.425   0.520  4.73769E-01  4.78042E-01 -4.27264E-03
    8988.847     -7.260   0.560  4.95836E-01  4.96897E-01 -1.06074E-03
    8989.024     -7.084   0.600  5.16013E-01  5.15231E-01  7.81966E-04
    8989.213     -6.895   0.640  5.29817E-01  5.33055E-01 -3.23810E-03
    8989.414     -6.693   0.680  5.31637E-01  5.50451E-01 -1.88142E-02
    8989.627     -6.480   0.720  5.18443E-01  5.67515E-01 -4.90722E-02
    8989.853     -6.254   0.760  4.93342E-01  5.84299E-01 -9.09563E-02
    8990.090     -6.017   0.800  4.64731E-01  6.00886E-01 -1.36156E-01
    8990.340     -5.767   0.840  4.41375E-01  6.17309E-01 -1.75934E-01
    8990.602     -5.505   0.880  4.28586E-01  6.33626E-01 -2.05039E-01
    8990.877     -5.230   0.920  4.27077E-01  6.49821E-01 -2.22744E-01
    8991.163     -4.944   0.960  4.33902E-01  6.65950E-01 -2.32048E-01
    8991.462     -4.645   1.000  4.44077E-01  6.81997E-01 -2.37920E-01
    8991.773     -4.334   1.040  4.52902E-01  6.97938E-01 -2.45035E-01
    8992.096     -4.011   1.080  4.57886E-01  7.13761E-01 -2.55875E-01
    8992.431     -3.676   1.120  4.59703E-01  7.29450E-01 -2.69748E-01
    8992.779     -3.328   1.160  4.61014E-01  7.44984E-01 -2.83970E-01
    8993.138     -2.969   1.200  4.63984E-01  7.60317E-01 -2.96333E-01
    8993.510     -2.597   1.240  4.70061E-01  7.75441E-01 -3.05379E-01
    8993.894     -2.213   1.280  4.81089E-01  7.90286E-01 -3.09197E-01
    8994.291     -1.817   1.320  4.99850E-01  8.04839E-01 -3.04989E-01
    8994.699     -1.408   1.360  5.30036E-01  8.19049E-01 -2.89013E-01
    8995.120     -0.988   1.400  5.75871E-01  8.32925E-01 -2.57055E-01
    8995.552     -0.555   1.440  6.40608E-01  8.46373E-01 -2.05764E-01
    8995.997     -0.110   1.480  7.23882E-01  8.59420E-01 -1.35538E-01
    8996.455      0.347   1.520  8.15649E-01  8.71997E-01 -5.63474E-02
    8996.924      0.817   1.560  8.95144E-01  8.84092E-01  1.10520E-02
    8997.406      1.298   1.600  9.47345E-01  8.95677E-01  5.16679E-02
    8997.899      1.792   1.640  9.76783E-01  9.06765E-01  7.00187E-02
    8998.405      2.298   1.680  9.93614E-01  9.17308E-01  7.63058E-02
    8998.923      2.816   1.720  1.00421E+00  9.27304E-01  7.69106E-02
    8999.454      3.347   1.760  1.01234E+00  9.36749E-01  7.55882E-02
    8999.996      3.889   1.800  1.01414E+00  9.45621E-01  6.85144E-02
    9000.551      4.444   1.840  1.00968E+00  9.53940E-01  5.57399E-02
    9001.118      5.011   1.880  1.01699E+00  9.61709E-01  5.52768E-02
    9001.697      5.590   1.920  1.04894E+00  9.68911E-01  8.00310E-02
    9002.288      6.181   1.960  1.10153E+00  9.75570E-01  1.25956E-01
    9002.892      6.785   2.000  1.17352E+00  9.81690E-01  1.91830E-01
    9003.508      7.401   2.040  1.25716E+00  9.87278E-01  2.69879E-01
    9004.135      8.028   2.080  1.31794E+00  9.92363E-01  3.25576E-01
    9004.776      8.668   2.120  1.32729E+00  9.96953E-01  3.30333E-01
    9005.428      9.321   2.160  1.29239E+00  1.00106E+00  2.91334E-01
    9006.092      9.985   2.200  1.23669E+00  1.00470E+00  2.31985E-01
    9006.769     10.662   2.240  1.16608E+00  1.00791E+00  1.58170E-01
    9007.458     11.351   2.280  1.08159E+00  1.01072E+00  7.08703E-02
    9008.159     12.052   2.320  1.00016E+00  1.01310E+00 -1.29372E-02
    9008.872     12.765   2.360  9.42040E-01  1.01513E+00 -7.30924E-02
    9009.597     13.490   2.400  9.13950E-01  1.01680E+00 -1.02853E-01
    9010.335     14.228   2.440  9.06666E-01  1.01814E+00 -1.11479E-01
    9011.085     14.978   2.480  9.12049E-01  1.01917E+00 -1.07117E-01
    9011.847     15.740   2.520  9.41387E-01  1.01990E+00 -7.85131E-02
    9012.621     16.514   2.560  9.81629E-01  1.02038E+00 -3.87500E-02
    9013.407     17.300   2.600  1.02204E+00  1.02061E+00  1.42549E-03
    9014.206     18.099   2.640  1.05674E+00  1.02063E+00  3.61084E-02
    9015.017     18.910   2.680  1.08452E+00  1.02045E+00  6.40665E-02
    9015.840     19.733   2.720  1.10530E+00  1.02007E+00  8.52321E-02
    9016.675     20.568   2.760  1.11993E+00  1.01953E+00  1.00399E-01
    9017.522     21.415   2.800  1.12997E+00  1.01885E+00  1.11128E-01
    9018.382     22.275   2.840  1.13691E+00  1.01804E+00  1.18871E-01
    9019.254     23.146   2.880  1.14140E+00  1.01709E+00  1.24306E-01
    9020.137     24.030   2.920  1.14178E+00  1.01608E+00  1.25701E-01
    9021.034     24.926   2.960  1.13467E+00  1.01498E+00  1.19689E-01
    9021.942     25.835   3.000  1.11712E+00  1.01381E+00  1.03314E-01
    9022.862     26.755   3.040  1.08914E+00  1.01256E+00  7.65828E-02
    9023.795     27.688   3.080  1.05381E+00  1.01129E+00  4.25210E-02
    9024.740     28.633   3.120  1.01615E+00  1.00999E+00  6.16043E-03
    9025.697     29.590   3.160  9.80624E-01  1.00865E+00 -2.80241E-02
    9026.666     30.559   3.200  9.49581E-01  1.00730E+00 -5.77218E-02
    9027.648     31.541   3.240  9.23794E-01  1.00596E+00 -8.21614E-02
    9028.641     32.534   3.280  9.03001E-01  1.00463E+00 -1.01630E-01
    9029.647     33.540   3.320  8.86731E-01  1.00329E+00 -1.16564E-01
    9030.665     34.558   3.360  8.74973E-01  1.00201E+00 -1.27035E-01
    9031.695     35.588   3.400  8.67718E-01  1.00074E+00 -1.33017E-01
    9032.738     36.631   3.440  8.64791E-01  9.99497E-01 -1.34706E-01
    9033.792     37.685   3.480  8.66046E-01  9.98298E-01 -1.32252E-01
    9034.859     38.752   3.520  8.71276E-01  9.97140E-01 -1.25865E-01
    9035.938     39.831   3.560  8.80000E-01  9.96027E-01 -1.16026E-01
    9037.029     40.922   3.600  8.91675E-01  9.94980E-01 -1.03305E-01
    9038.133     42.026   3.640  9.05709E-01  9.93981E-01 -8.82716E-02
    9039.248     43.141   3.680  9.21625E-01  9.93050E-01 -7.14256E-02
    9040.376     44.269   3.720  9.38782E-01  9.92169E-01 -5.33879E-02
    9041.516     45.409   3.760  9.56409E-01  9.91360E-01 -3.49510E-02
    9042.668     46.561   3.800  9.73295E-01  9.90601E-01 -1.73059E-02
    9043.832     47.725   3.840  9.88130E-01  9.89913E-01 -1.78315E-03
    9045.009     48.902   3.880  1.00003E+00  9.89278E-01  1.07487E-02
    9046.198     50.091   3.920  1.00880E+00  9.88737E-01  2.00666E-02
    9047.399     51.292   3.960  1.01464E+00  9.88247E-01  2.63959E-02
    9048.612     52.505   4.000  1.01795E+00  9.87809E-01  3.01395E-02
    9049.837     53.730   4.040  1.01917E+00  9.87443E-01  3.17266E-02
    9051.075     54.967   4.080  1.01872E+00  9.87150E-01  3.15701E-02
    9052.324     56.217   4.120  1.01697E+00  9.86906E-01  3.00626E-02
    9053.586     57.479   4.160  1.01443E+00  9.86733E-01  2.77015E-02
    9054.860     58.753   4.200  1.01160E+00  9.86609E-01  2.49876E-02
    9056.146     60.039   4.240  1.00884E+00  9.86555E-01  2.22874E-02
    9057.445     61.338   4.280  1.00625E+00  9.86550E-01  1.96985E-02
    9058.755     62.648   4.320  1.00368E+00  9.86612E-01  1.70644E-02
    9060.078     63.971   4.360  1.00088E+00  9.86718E-01  1.41665E-02
    9061.413     65.306   4.400  9.97825E-01  9.86867E-01  1.09580E-02
    9062.760     66.653   4.440  9.94868E-01  9.87056E-01  7.81215E-03
    9064.120     68.013   4.480  9.92688E-01  9.87285E-01  5.40242E-03
    9065.491     69.384   4.520  9.92109E-01  9.87554E-01  4.55565E-03
    9066.875     70.768   4.560  9.93802E-01  9.87860E-01  5.94188E-03
    9068.271     72.164   4.600  9.97974E-01  9.88202E-01  9.77240E-03
    9069.679     73.572   4.640  1.00420E+00  9.88557E-01  1.56447E-02
    9071.100     74.993   4.680  1.01163E+00  9.88944E-01  2.26827E-02
    9072.532     76.425   4.720  1.01915E+00  9.89364E-01  2.97901E-02
    9073.977     77.870   4.760  1.02575E+00  9.89793E-01  3.59525E-02
    9075.434     79.327   4.800  1.03072E+00  9.90250E-01  4.04650E-02
    9076.903     80.796   4.840  1.03376E+00  9.90713E-01  4.30524E-02
    9078.384     82.277   4.880  1.03501E+00  9.91178E-01  4.38321E-02
    9079.878     83.771   4.920  1.03468E+00  9.91645E-01  4.30329E-02
    9081.384     85.277   4.960  1.03279E+00  9.92134E-01  4.06534E-02
    9082.902     86.794   5.000  1.02908E+00  9.92600E-01  3.64762E-02
    9084.432     88.325   5.040  1.02358E+00  9.93063E-01  3.05169E-02
    9085.974     89.867   5.080  1.01697E+00  9.93522E-01  2.34460E-02
    9087.528     91.421   5.120  1.01052E+00  9.93975E-01  1.65466E-02
    9089.095     92.988   5.160  1.00564E+00  9.94399E-01  1.12419E-02
    9090.674     94.567   5.200  1.00338E+00  9.94816E-01  8.56771E-03
    9092.265     96.158   5.240  1.00406E+00  9.95224E-01  8.83279E-03
    9093.868     97.761   5.280  1.00687E+00  9.95600E-01  1.12742E-02
    9095.484     99.377   5.320  1.01000E+00  9.95941E-01  1.40609E-02
    9097.111    101.004   5.360  1.01121E+00  9.96269E-01  1.49376E-02
    9098.751    102.644   5.400  1.00880E+00  9.96563E-01  1.22337E-02
    9100.403    104.296   5.440  1.00231E+00  9.96819E-01  5.49087E-03
    9102.067    105.960   5.480  9.92620E-01  9.97060E-01 -4.44019E-03
    9103.744    107.637   5.520  9.81554E-01  9.97242E-01 -1.56879E-02
    9105.432    109.325   5.560  9.71331E-01  9.97408E-01 -2.60776E-02
    9107.133    111.026   5.600  9.63413E-01  9.97537E-01 -3.41240E-02
    9108.846    112.739   5.640  9.57860E-01  9.97625E-01 -3.97653E-02
    9110.571    114.464   5.680  9.53589E-01  9.97673E-01 -4.40840E-02
    9112.309    116.201   5.720  9.49450E-01  9.97682E-01 -4.82324E-02
    9114.058    117.951   5.760  9.45197E-01  9.97651E-01 -5.24541E-02
    9115.820    119.713   5.800  9.41556E-01  9.97584E-01 -5.60276E-02
    9117.594    121.487   5.840  9.39631E-01  9.97501E-01 -5.78700E-02
    9119.380    123.273   5.880  9.40136E-01  9.97355E-01 -5.72185E-02
    9121.178    125.071   5.920  9.43223E-01  9.97170E-01 -5.39471E-02
    9122.989    126.882   5.960  9.48604E-01  9.96945E-01 -4.83406E-02
    9124.811    128.704   6.000  9.56301E-01  9.96686E-01 -4.03843E-02
