# # comment:                                                     FEFF 9.9.1  
# # Source:
# # Structure
# # Reduced
# # space
# # abc:
# # angles:
# # sites:
# # POT  SCF 100  7.0000   0, screened core-hole, AFOLP (folp(0)= 1.150)
# # Abs   Z=29 Rmt= 1.174 Rnm= 1.293 K  shell
# # Pot 1 Z=29 Rmt= 1.228 Rnm= 1.326
# # Pot 2 Z= 5 Rmt= 0.750 Rnm= 0.989
# # Pot 3 Z= 8 Rmt= 1.004 Rnm= 1.111
# # Gam_ch=1.729E+00 H-L exch Vi= 0.000E+00 Vr= 0.000E+00
# # Mu=-7.213E+00eV kf=2.223E+00 Vint=-1.545E+01eV Rs_int= 1.632
# FMS rfms= 9.0000
# # PATH  Rmax=-1.000,  Keep_limit= 0.00, Heap_limit 0.00  Pwcrit= 2.50%
#  S02=0.950  Temp=   0.00  Debye_temp=   0.00  Global_sig2= 0.00000
#  Energy zero shift, vr, vi    0.00000E+00   0.00000E+00
#  Curved wave amplitude ratio filter   4.000%
#     file         sig2 tot  cw amp ratio   deg  nlegs   reff  inp sig2
#     0/   0 paths used
#  xsedge+ 50, used to normalize mu           2.4426E-04
#  -----------------------------------------------------------------------
#  omega    e    k    mu    mu0     chi     @#
    8983.513    -11.023  -1.000  3.56343E-02  5.62256E-02 -2.05914E-02
    8983.811    -10.724  -0.960  3.73124E-02  6.03260E-02 -2.30136E-02
    8984.098    -10.438  -0.920  3.90927E-02  6.48812E-02 -2.57886E-02
    8984.372    -10.163  -0.880  4.09829E-02  6.99580E-02 -2.89751E-02
    8984.634     -9.901  -0.840  4.29915E-02  7.56338E-02 -3.26422E-02
    8984.884     -9.651  -0.800  4.51279E-02  8.19984E-02 -3.68705E-02
    8985.122     -9.413  -0.760  4.74020E-02  8.91548E-02 -4.17528E-02
    8985.348     -9.188  -0.720  4.98247E-02  9.72193E-02 -4.73946E-02
    8985.561     -8.975  -0.680  5.24068E-02  1.06320E-01 -5.39129E-02
    8985.762     -8.773  -0.640  5.51591E-02  1.16591E-01 -6.14321E-02
    8985.951     -8.584  -0.600  5.80904E-02  1.28166E-01 -7.00756E-02
    8986.128     -8.408  -0.560  6.12053E-02  1.41157E-01 -7.99517E-02
    8986.293     -8.243  -0.520  6.45007E-02  1.55631E-01 -9.11304E-02
    8986.445     -8.091  -0.480  6.79608E-02  1.71573E-01 -1.03612E-01
    8986.585     -7.950  -0.440  7.15514E-02  1.88842E-01 -1.17291E-01
    8986.713     -7.822  -0.400  7.52155E-02  2.07140E-01 -1.31925E-01
    8986.829     -7.707  -0.360  7.88732E-02  2.25996E-01 -1.47123E-01
    8986.933     -7.603  -0.320  8.24266E-02  2.44798E-01 -1.62371E-01
    8987.024     -7.511  -0.280  8.57723E-02  2.62867E-01 -1.77094E-01
    8987.103     -7.432  -0.240  8.88146E-02  2.79549E-01 -1.90734E-01
    8987.170     -7.365  -0.200  9.14771E-02  2.94296E-01 -2.02819E-01
    8987.225     -7.310  -0.160  9.37062E-02  3.06705E-01 -2.12998E-01
    8987.268     -7.268  -0.120  9.54690E-02  3.16517E-01 -2.21048E-01
    8987.298     -7.237  -0.080  9.67474E-02  3.23587E-01 -2.26840E-01
    8987.323     -7.213   0.000  9.78020E-02  3.29268E-01 -2.31466E-01
    8987.378     -7.158   0.120  1.00220E-01  3.42083E-01 -2.41863E-01
    8987.420     -7.115   0.160  1.02021E-01  3.52054E-01 -2.50033E-01
    8987.475     -7.060   0.200  1.04280E-01  3.64775E-01 -2.60495E-01
    8987.542     -6.993   0.240  1.06974E-01  3.80101E-01 -2.73127E-01
    8987.621     -6.914   0.280  1.10054E-01  3.97735E-01 -2.87681E-01
    8987.713     -6.823   0.320  1.13488E-01  4.17202E-01 -3.03714E-01
    8987.817     -6.719   0.360  1.17265E-01  4.38002E-01 -3.20737E-01
    8987.932     -6.603   0.400  1.21400E-01  4.59494E-01 -3.38094E-01
    8988.060     -6.475   0.440  1.26048E-01  4.81171E-01 -3.55123E-01
    8988.201     -6.335   0.480  1.31462E-01  5.02624E-01 -3.71162E-01
    8988.353     -6.183   0.520  1.37949E-01  5.23550E-01 -3.85601E-01
    8988.518     -6.018   0.560  1.45979E-01  5.43828E-01 -3.97849E-01
    8988.694     -5.841   0.600  1.56163E-01  5.63443E-01 -4.07280E-01
    8988.883     -5.652   0.640  1.69170E-01  5.82390E-01 -4.13220E-01
    8989.084     -5.451   0.680  1.86065E-01  6.00802E-01 -4.14737E-01
    8989.298     -5.238   0.720  2.08114E-01  6.18702E-01 -4.10588E-01
    8989.523     -5.012   0.760  2.37291E-01  6.36214E-01 -3.98922E-01
    8989.761     -4.774   0.800  2.76463E-01  6.53411E-01 -3.76948E-01
    8990.011     -4.524   0.840  3.29515E-01  6.70332E-01 -3.40818E-01
    8990.273     -4.262   0.880  3.99946E-01  6.87003E-01 -2.87057E-01
    8990.547     -3.988   0.920  4.85098E-01  7.03494E-01 -2.18396E-01
    8990.834     -3.701   0.960  5.68364E-01  7.19785E-01 -1.51421E-01
    8991.133     -3.403   1.000  6.25334E-01  7.35862E-01 -1.10528E-01
    8991.444     -3.092   1.040  6.43541E-01  7.51765E-01 -1.08224E-01
    8991.767     -2.769   1.080  6.26247E-01  7.67444E-01 -1.41198E-01
    8992.102     -2.434   1.120  5.85589E-01  7.82886E-01 -1.97297E-01
    8992.449     -2.086   1.160  5.38650E-01  7.98049E-01 -2.59399E-01
    8992.809     -1.726   1.200  5.01685E-01  8.12930E-01 -3.11246E-01
    8993.181     -1.355   1.240  4.82717E-01  8.27483E-01 -3.44766E-01
    8993.565     -0.970   1.280  4.80596E-01  8.41679E-01 -3.61083E-01
    8993.961     -0.574   1.320  4.92691E-01  8.55489E-01 -3.62797E-01
    8994.370     -0.166   1.360  5.18650E-01  8.68862E-01 -3.50211E-01
    8994.790      0.255   1.400  5.52479E-01  8.81788E-01 -3.29309E-01
    8995.223      0.688   1.440  5.82216E-01  8.94218E-01 -3.12002E-01
    8995.668      1.133   1.480  6.07234E-01  9.06161E-01 -2.98928E-01
    8996.125      1.590   1.520  6.39932E-01  9.17571E-01 -2.77638E-01
    8996.595      2.059   1.560  6.87702E-01  9.28440E-01 -2.40737E-01
    8997.076      2.541   1.600  7.46161E-01  9.38720E-01 -1.92559E-01
    8997.570      3.035   1.640  8.07943E-01  9.48451E-01 -1.40508E-01
    8998.076      3.541   1.680  8.68388E-01  9.57589E-01 -8.92014E-02
    8998.594      4.059   1.720  9.25326E-01  9.66134E-01 -4.08077E-02
    8999.125      4.589   1.760  9.80615E-01  9.74106E-01  6.50873E-03
    8999.667      5.132   1.800  1.04279E+00  9.81488E-01  6.13038E-02
    9000.222      5.686   1.840  1.12029E+00  9.88283E-01  1.32009E-01
    9000.789      6.253   1.880  1.20746E+00  9.94496E-01  2.12962E-01
    9001.368      6.832   1.920  1.29295E+00  1.00015E+00  2.92795E-01
    9001.959      7.424   1.960  1.36255E+00  1.00527E+00  3.57284E-01
    9002.563      8.027   2.000  1.39168E+00  1.00986E+00  3.81816E-01
    9003.178      8.643   2.040  1.37677E+00  1.01393E+00  3.62840E-01
    9003.806      9.271   2.080  1.34419E+00  1.01752E+00  3.26675E-01
    9004.446      9.911   2.120  1.31368E+00  1.02062E+00  2.93056E-01
    9005.099     10.563   2.160  1.29793E+00  1.02329E+00  2.74634E-01
    9005.763     11.228   2.200  1.29797E+00  1.02552E+00  2.72452E-01
    9006.440     11.904   2.240  1.29083E+00  1.02736E+00  2.63477E-01
    9007.129     12.593   2.280  1.26889E+00  1.02880E+00  2.40092E-01
    9007.830     13.294   2.320  1.24942E+00  1.02991E+00  2.19509E-01
    9008.543     14.007   2.360  1.24306E+00  1.03068E+00  2.12388E-01
    9009.268     14.733   2.400  1.23970E+00  1.03114E+00  2.08560E-01
    9010.006     15.470   2.440  1.22070E+00  1.03132E+00  1.89386E-01
    9010.756     16.220   2.480  1.18970E+00  1.03124E+00  1.58459E-01
    9011.518     16.982   2.520  1.17084E+00  1.03092E+00  1.39918E-01
    9012.292     17.756   2.560  1.17462E+00  1.03041E+00  1.44214E-01
    9013.078     18.543   2.600  1.19903E+00  1.02968E+00  1.69352E-01
    9013.877     19.341   2.640  1.21116E+00  1.02880E+00  1.82359E-01
    9014.688     20.152   2.680  1.18918E+00  1.02776E+00  1.61427E-01
    9015.511     20.975   2.720  1.15142E+00  1.02659E+00  1.24828E-01
    9016.346     21.810   2.760  1.11425E+00  1.02530E+00  8.89522E-02
    9017.193     22.658   2.800  1.08078E+00  1.02392E+00  5.68591E-02
    9018.053     23.517   2.840  1.04915E+00  1.02246E+00  2.66926E-02
    9018.924     24.389   2.880  1.01731E+00  1.02095E+00 -3.63762E-03
    9019.808     25.273   2.920  9.84572E-01  1.01936E+00 -3.47908E-02
    9020.704     26.169   2.960  9.52294E-01  1.01776E+00 -6.54678E-02
    9021.613     27.077   3.000  9.22368E-01  1.01613E+00 -9.37598E-02
    9022.533     27.998   3.040  8.96252E-01  1.01449E+00 -1.18236E-01
    9023.466     28.930   3.080  8.75003E-01  1.01285E+00 -1.37845E-01
    9024.411     29.875   3.120  8.59331E-01  1.01123E+00 -1.51902E-01
    9025.368     30.832   3.160  8.49265E-01  1.00963E+00 -1.60363E-01
    9026.337     31.801   3.200  8.44098E-01  1.00806E+00 -1.63958E-01
    9027.318     32.783   3.240  8.42816E-01  1.00650E+00 -1.63686E-01
    9028.312     33.777   3.280  8.43955E-01  1.00501E+00 -1.61054E-01
    9029.318     34.782   3.320  8.46518E-01  1.00358E+00 -1.57066E-01
    9030.336     35.800   3.360  8.49985E-01  1.00219E+00 -1.52202E-01
    9031.366     36.831   3.400  8.54321E-01  1.00088E+00 -1.46560E-01
    9032.409     37.873   3.440  8.59579E-01  9.99607E-01 -1.40028E-01
    9033.463     38.928   3.480  8.66068E-01  9.98432E-01 -1.32364E-01
    9034.530     39.994   3.520  8.74136E-01  9.97335E-01 -1.23199E-01
    9035.609     41.073   3.560  8.83820E-01  9.96317E-01 -1.12497E-01
    9036.700     42.165   3.600  8.95083E-01  9.95359E-01 -1.00276E-01
    9037.803     43.268   3.640  9.07732E-01  9.94504E-01 -8.67716E-02
    9038.919     44.384   3.680  9.21244E-01  9.93732E-01 -7.24880E-02
    9040.047     45.511   3.720  9.34956E-01  9.93042E-01 -5.80859E-02
    9041.187     46.651   3.760  9.48306E-01  9.92436E-01 -4.41299E-02
    9042.339     47.803   3.800  9.60900E-01  9.91914E-01 -3.10137E-02
    9043.503     48.968   3.840  9.72596E-01  9.91497E-01 -1.89013E-02
    9044.680     50.144   3.880  9.83469E-01  9.91165E-01 -7.69632E-03
    9045.868     51.333   3.920  9.93674E-01  9.90893E-01  2.78045E-03
    9047.069     52.534   3.960  1.00326E+00  9.90726E-01  1.25388E-02
    9048.282     53.747   4.000  1.01220E+00  9.90641E-01  2.15566E-02
    9049.508     54.972   4.040  1.02052E+00  9.90638E-01  2.98785E-02
    9050.745     56.210   4.080  1.02840E+00  9.90717E-01  3.76801E-02
    9051.995     57.459   4.120  1.03608E+00  9.90875E-01  4.52071E-02
    9053.257     58.721   4.160  1.04376E+00  9.91112E-01  5.26439E-02
    9054.531     59.995   4.200  1.05138E+00  9.91424E-01  5.99536E-02
    9055.817     61.282   4.240  1.05857E+00  9.91790E-01  6.67788E-02
    9057.116     62.580   4.280  1.06482E+00  9.92230E-01  7.25881E-02
    9058.426     63.891   4.320  1.06943E+00  9.92719E-01  7.67113E-02
    9059.749     65.214   4.360  1.07178E+00  9.93279E-01  7.84963E-02
    9061.084     66.549   4.400  1.07144E+00  9.93909E-01  7.75294E-02
    9062.431     67.896   4.440  1.06842E+00  9.94563E-01  7.38604E-02
    9063.791     69.255   4.480  1.06335E+00  9.95281E-01  6.80710E-02
    9065.162     70.627   4.520  1.05721E+00  9.96038E-01  6.11733E-02
    9066.546     72.011   4.560  1.05121E+00  9.96813E-01  5.43945E-02
    9067.942     73.406   4.600  1.04640E+00  9.97647E-01  4.87502E-02
    9069.350     74.815   4.640  1.04331E+00  9.98494E-01  4.48134E-02
    9070.771     76.235   4.680  1.04194E+00  9.99374E-01  4.25709E-02
    9072.203     77.668   4.720  1.04171E+00  1.00026E+00  4.14439E-02
    9073.648     79.112   4.760  1.04158E+00  1.00118E+00  4.04069E-02
    9075.105     80.569   4.800  1.04043E+00  1.00210E+00  3.83347E-02
    9076.574     82.038   4.840  1.03736E+00  1.00302E+00  3.43371E-02
    9078.055     83.520   4.880  1.03193E+00  1.00394E+00  2.79845E-02
    9079.549     85.013   4.920  1.02417E+00  1.00486E+00  1.93122E-02
    9081.054     86.519   4.960  1.01449E+00  1.00577E+00  8.71707E-03
    9082.572     88.037   5.000  1.00374E+00  1.00666E+00 -2.91940E-03
    9084.102     89.567   5.040  9.93334E-01  1.00753E+00 -1.41970E-02
    9085.645     91.109   5.080  9.84900E-01  1.00837E+00 -2.34718E-02
    9087.199     92.664   5.120  9.79923E-01  1.00920E+00 -2.92766E-02
    9088.766     94.230   5.160  9.79210E-01  1.00999E+00 -3.07827E-02
    9090.345     95.809   5.200  9.82707E-01  1.01074E+00 -2.80378E-02
    9091.936     97.400   5.240  9.89406E-01  1.01146E+00 -2.20497E-02
    9093.539     99.003   5.280  9.97830E-01  1.01212E+00 -1.42945E-02
    9095.154    100.619   5.320  1.00656E+00  1.01275E+00 -6.18584E-03
    9096.782    102.247   5.360  1.01458E+00  1.01331E+00  1.27395E-03
    9098.422    103.886   5.400  1.02126E+00  1.01384E+00  7.41767E-03
    9100.074    105.538   5.440  1.02605E+00  1.01431E+00  1.17429E-02
    9101.738    107.203   5.480  1.02853E+00  1.01472E+00  1.38033E-02
    9103.414    108.879   5.520  1.02837E+00  1.01507E+00  1.33063E-02
    9105.103    110.568   5.560  1.02557E+00  1.01536E+00  1.02119E-02
    9106.804    112.268   5.600  1.02035E+00  1.01558E+00  4.76424E-03
    9108.517    113.981   5.640  1.01314E+00  1.01575E+00 -2.61050E-03
    9110.242    115.706   5.680  1.00445E+00  1.01585E+00 -1.14010E-02
    9111.979    117.444   5.720  9.94762E-01  1.01587E+00 -2.11059E-02
    9113.729    119.193   5.760  9.84616E-01  1.01584E+00 -3.12239E-02
    9115.491    120.955   5.800  9.74544E-01  1.01576E+00 -4.12176E-02
    9117.265    122.729   5.840  9.65121E-01  1.01559E+00 -5.04657E-02
    9119.051    124.515   5.880  9.56954E-01  1.01539E+00 -5.84327E-02
    9120.849    126.313   5.920  9.50254E-01  1.01509E+00 -6.48347E-02
    9122.659    128.124   5.960  9.45241E-01  1.01474E+00 -6.94948E-02
    9124.482    129.947   6.000  9.42426E-01  1.01429E+00 -7.18615E-02
