# # comment:                                                     FEFF 9.9.1  
# # Source:
# # Structure
# # Reduced
# # space
# # abc:
# # angles:
# # sites:
# # POT  SCF 100  7.0000   0, screened core-hole, AFOLP (folp(0)= 1.150)
# # Abs   Z=29 Rmt= 1.268 Rnm= 1.355 K  shell
# # Pot 1 Z=29 Rmt= 1.268 Rnm= 1.355
# # Pot 2 Z=33 Rmt= 1.083 Rnm= 1.291
# # Pot 3 Z= 1 Rmt= 0.620 Rnm= 0.764
# # Pot 4 Z= 8 Rmt= 0.935 Rnm= 1.081
# # Gam_ch=1.729E+00 H-L exch Vi= 0.000E+00 Vr= 0.000E+00
# # Mu=-5.308E+00eV kf=2.306E+00 Vint=-1.555E+01eV Rs_int= 1.573
# FMS rfms= 9.0000
# # PATH  Rmax=-1.000,  Keep_limit= 0.00, Heap_limit 0.00  Pwcrit= 2.50%
#  S02=0.950  Temp=   0.00  Debye_temp=   0.00  Global_sig2= 0.00000
#  Energy zero shift, vr, vi    0.00000E+00   0.00000E+00
#  Curved wave amplitude ratio filter   4.000%
#     file         sig2 tot  cw amp ratio   deg  nlegs   reff  inp sig2
#     0/   0 paths used
#  xsedge+ 50, used to normalize mu           2.4598E-04
#  -----------------------------------------------------------------------
#  omega    e    k    mu    mu0     chi     @#
    8983.284     -9.118  -1.000  4.84138E-02  5.74979E-02 -9.08411E-03
    8983.583     -8.819  -0.960  5.14931E-02  6.18024E-02 -1.03092E-02
    8983.869     -8.533  -0.920  5.48659E-02  6.65973E-02 -1.17313E-02
    8984.144     -8.259  -0.880  5.85700E-02  7.19558E-02 -1.33858E-02
    8984.406     -7.996  -0.840  6.26487E-02  7.79635E-02 -1.53148E-02
    8984.656     -7.746  -0.800  6.71513E-02  8.47194E-02 -1.75681E-02
    8984.894     -7.509  -0.760  7.21333E-02  9.23374E-02 -2.02041E-02
    8985.119     -7.283  -0.720  7.76563E-02  1.00946E-01 -2.32900E-02
    8985.332     -7.070  -0.680  8.37867E-02  1.10688E-01 -2.69016E-02
    8985.534     -6.869  -0.640  9.05929E-02  1.21714E-01 -3.11207E-02
    8985.723     -6.680  -0.600  9.81401E-02  1.34170E-01 -3.60300E-02
    8985.899     -6.503  -0.560  1.06481E-01  1.48184E-01 -4.17031E-02
    8986.064     -6.338  -0.520  1.15643E-01  1.63832E-01 -4.81891E-02
    8986.216     -6.186  -0.480  1.25609E-01  1.81100E-01 -5.54903E-02
    8986.357     -6.046  -0.440  1.36297E-01  1.99834E-01 -6.35369E-02
    8986.485     -5.918  -0.400  1.47540E-01  2.19705E-01 -7.21657E-02
    8986.600     -5.802  -0.360  1.59083E-01  2.40196E-01 -8.11137E-02
    8986.704     -5.698  -0.320  1.70594E-01  2.60633E-01 -9.00390E-02
    8986.795     -5.607  -0.280  1.81702E-01  2.80270E-01 -9.85679E-02
    8986.875     -5.528  -0.240  1.92033E-01  2.98388E-01 -1.06354E-01
    8986.942     -5.461  -0.200  2.01261E-01  3.14390E-01 -1.13130E-01
    8986.997     -5.406  -0.160  2.09120E-01  3.27842E-01 -1.18723E-01
    8987.039     -5.363  -0.120  2.15415E-01  3.38469E-01 -1.23054E-01
    8987.070     -5.332  -0.080  2.20012E-01  3.46119E-01 -1.26108E-01
    8987.094     -5.308   0.000  2.23772E-01  3.52262E-01 -1.28491E-01
    8987.149     -5.253   0.120  2.32139E-01  3.66106E-01 -1.33966E-01
    8987.192     -5.211   0.160  2.38751E-01  3.76859E-01 -1.38108E-01
    8987.247     -5.156   0.200  2.47323E-01  3.90547E-01 -1.43224E-01
    8987.314     -5.089   0.240  2.57953E-01  4.06988E-01 -1.49035E-01
    8987.393     -5.009   0.280  2.70657E-01  4.25829E-01 -1.55172E-01
    8987.484     -4.918   0.320  2.85425E-01  4.46541E-01 -1.61116E-01
    8987.588     -4.814   0.360  3.02182E-01  4.68494E-01 -1.66311E-01
    8987.704     -4.699   0.400  3.20824E-01  4.91018E-01 -1.70194E-01
    8987.832     -4.570   0.440  3.41104E-01  5.13486E-01 -1.72382E-01
    8987.972     -4.430   0.480  3.62611E-01  5.35404E-01 -1.72793E-01
    8988.124     -4.278   0.520  3.84773E-01  5.56475E-01 -1.71703E-01
    8988.289     -4.113   0.560  4.06862E-01  5.76540E-01 -1.69678E-01
    8988.466     -3.937   0.600  4.28213E-01  5.95604E-01 -1.67392E-01
    8988.655     -3.748   0.640  4.48300E-01  6.13674E-01 -1.65374E-01
    8988.856     -3.546   0.680  4.66858E-01  6.30881E-01 -1.64023E-01
    8989.069     -3.333   0.720  4.83459E-01  6.47311E-01 -1.63853E-01
    8989.295     -3.107   0.760  4.97503E-01  6.63091E-01 -1.65588E-01
    8989.533     -2.870   0.800  5.09084E-01  6.78316E-01 -1.69232E-01
    8989.782     -2.620   0.840  5.19939E-01  6.93070E-01 -1.73130E-01
    8990.045     -2.358   0.880  5.32544E-01  7.07394E-01 -1.74850E-01
    8990.319     -2.083   0.920  5.47857E-01  7.21383E-01 -1.73526E-01
    8990.605     -1.797   0.960  5.64492E-01  7.35074E-01 -1.70581E-01
    8990.904     -1.498   1.000  5.80925E-01  7.48449E-01 -1.67523E-01
    8991.215     -1.187   1.040  5.98176E-01  7.61567E-01 -1.63391E-01
    8991.538     -0.864   1.080  6.19924E-01  7.74413E-01 -1.54489E-01
    8991.873     -0.529   1.120  6.48572E-01  7.86986E-01 -1.38414E-01
    8992.221     -0.181   1.160  6.80701E-01  7.99303E-01 -1.18602E-01
    8992.581      0.178   1.200  7.09362E-01  8.11332E-01 -1.01970E-01
    8992.952      0.550   1.240  7.30583E-01  8.23098E-01 -9.25156E-02
    8993.336      0.934   1.280  7.45011E-01  8.34546E-01 -8.95350E-02
    8993.733      1.330   1.320  7.56804E-01  8.45676E-01 -8.88719E-02
    8994.141      1.739   1.360  7.73182E-01  8.56468E-01 -8.32866E-02
    8994.562      2.159   1.400  8.00169E-01  8.66941E-01 -6.67727E-02
    8994.995      2.592   1.440  8.41349E-01  8.77034E-01 -3.56848E-02
    8995.440      3.037   1.480  8.98122E-01  8.86763E-01  1.13585E-02
    8995.897      3.494   1.520  9.63527E-01  8.96107E-01  6.74202E-02
    8996.366      3.964   1.560  1.02677E+00  9.05065E-01  1.21707E-01
    8996.848      4.445   1.600  1.08442E+00  9.13593E-01  1.70830E-01
    8997.341      4.939   1.640  1.13786E+00  9.21732E-01  2.16124E-01
    8997.847      5.445   1.680  1.18478E+00  9.29462E-01  2.55316E-01
    8998.366      5.963   1.720  1.21960E+00  9.36762E-01  2.82840E-01
    8998.896      6.494   1.760  1.24039E+00  9.43636E-01  2.96756E-01
    8999.438      7.036   1.800  1.25255E+00  9.50104E-01  3.02451E-01
    8999.993      7.591   1.840  1.26544E+00  9.56170E-01  3.09272E-01
    9000.560      8.158   1.880  1.28257E+00  9.61816E-01  3.20754E-01
    9001.139      8.737   1.920  1.29518E+00  9.67047E-01  3.28137E-01
    9001.731      9.328   1.960  1.29066E+00  9.71889E-01  3.18774E-01
    9002.334      9.932   2.000  1.26497E+00  9.76347E-01  2.88622E-01
    9002.950     10.548   2.040  1.22480E+00  9.80446E-01  2.44358E-01
    9003.578     11.175   2.080  1.18202E+00  9.84154E-01  1.97868E-01
    9004.218     11.815   2.120  1.14547E+00  9.87540E-01  1.57928E-01
    9004.870     12.468   2.160  1.11615E+00  9.90566E-01  1.25583E-01
    9005.534     13.132   2.200  1.09310E+00  9.93284E-01  9.98124E-02
    9006.211     13.809   2.240  1.07837E+00  9.95682E-01  8.26917E-02
    9006.900     14.498   2.280  1.07411E+00  9.97807E-01  7.63079E-02
    9007.601     15.199   2.320  1.07760E+00  9.99626E-01  7.79764E-02
    9008.314     15.912   2.360  1.08489E+00  1.00121E+00  8.36823E-02
    9009.040     16.637   2.400  1.09330E+00  1.00255E+00  9.07494E-02
    9009.777     17.375   2.440  1.09968E+00  1.00364E+00  9.60303E-02
    9010.527     18.125   2.480  1.10141E+00  1.00455E+00  9.68526E-02
    9011.289     18.887   2.520  1.09650E+00  1.00524E+00  9.12638E-02
    9012.063     19.661   2.560  1.08281E+00  1.00577E+00  7.70469E-02
    9012.850     20.447   2.600  1.05865E+00  1.00611E+00  5.25366E-02
    9013.648     21.246   2.640  1.02418E+00  1.00632E+00  1.78694E-02
    9014.459     22.057   2.680  9.84137E-01  1.00639E+00 -2.22527E-02
    9015.282     22.880   2.720  9.52524E-01  1.00632E+00 -5.37933E-02
    9016.117     23.715   2.760  9.34059E-01  1.00617E+00 -7.21091E-02
    9016.964     24.562   2.800  9.23003E-01  1.00589E+00 -8.28838E-02
    9017.824     25.422   2.840  9.15963E-01  1.00554E+00 -8.95783E-02
    9018.696     26.293   2.880  9.11032E-01  1.00512E+00 -9.40845E-02
    9019.580     27.177   2.920  9.07308E-01  1.00464E+00 -9.73321E-02
    9020.476     28.073   2.960  9.04529E-01  1.00412E+00 -9.95880E-02
    9021.384     28.982   3.000  9.02562E-01  1.00353E+00 -1.00966E-01
    9022.305     29.902   3.040  9.01193E-01  1.00292E+00 -1.01729E-01
    9023.237     30.835   3.080  9.00061E-01  1.00228E+00 -1.02221E-01
    9024.182     31.780   3.120  8.98884E-01  1.00163E+00 -1.02748E-01
    9025.139     32.737   3.160  8.97349E-01  1.00098E+00 -1.03631E-01
    9026.108     33.706   3.200  8.95638E-01  1.00032E+00 -1.04686E-01
    9027.090     34.688   3.240  8.94184E-01  9.99670E-01 -1.05486E-01
    9028.083     35.681   3.280  8.93365E-01  9.99041E-01 -1.05676E-01
    9029.089     36.687   3.320  8.93435E-01  9.98398E-01 -1.04963E-01
    9030.107     37.705   3.360  8.94738E-01  9.97806E-01 -1.03068E-01
    9031.138     38.735   3.400  8.97493E-01  9.97225E-01 -9.97321E-02
    9032.180     39.778   3.440  9.01778E-01  9.96678E-01 -9.48996E-02
    9033.235     40.832   3.480  9.07757E-01  9.96166E-01 -8.84087E-02
    9034.301     41.899   3.520  9.15526E-01  9.95671E-01 -8.01450E-02
    9035.380     42.978   3.560  9.25125E-01  9.95235E-01 -7.01103E-02
    9036.472     44.069   3.600  9.36395E-01  9.94839E-01 -5.84440E-02
    9037.575     45.173   3.640  9.49030E-01  9.94462E-01 -4.54316E-02
    9038.690     46.288   3.680  9.62611E-01  9.94146E-01 -3.15352E-02
    9039.818     47.416   3.720  9.76501E-01  9.93873E-01 -1.73717E-02
    9040.958     48.556   3.760  9.90284E-01  9.93642E-01 -3.35761E-03
    9042.110     49.708   3.800  1.00366E+00  9.93476E-01  1.01852E-02
    9043.275     50.872   3.840  1.01634E+00  9.93331E-01  2.30110E-02
    9044.451     52.049   3.880  1.02821E+00  9.93249E-01  3.49601E-02
    9045.640     53.238   3.920  1.03908E+00  9.93208E-01  4.58681E-02
    9046.841     54.439   3.960  1.04865E+00  9.93207E-01  5.54459E-02
    9048.054     55.652   4.000  1.05674E+00  9.93227E-01  6.35117E-02
    9049.279     56.877   4.040  1.06334E+00  9.93308E-01  7.00309E-02
    9050.517     58.114   4.080  1.06850E+00  9.93451E-01  7.50487E-02
    9051.766     59.364   4.120  1.07224E+00  9.93612E-01  7.86297E-02
    9053.028     60.626   4.160  1.07473E+00  9.93787E-01  8.09393E-02
    9054.302     61.900   4.200  1.07611E+00  9.94021E-01  8.20934E-02
    9055.589     63.186   4.240  1.07647E+00  9.94292E-01  8.21796E-02
    9056.887     64.485   4.280  1.07587E+00  9.94576E-01  8.12916E-02
    9058.198     65.795   4.320  1.07438E+00  9.94894E-01  7.94890E-02
    9059.520     67.118   4.360  1.07202E+00  9.95244E-01  7.67755E-02
    9060.855     68.453   4.400  1.06874E+00  9.95604E-01  7.31377E-02
    9062.203     69.800   4.440  1.06461E+00  9.95995E-01  6.86170E-02
    9063.562     71.160   4.480  1.05959E+00  9.96394E-01  6.31946E-02
    9064.934     72.531   4.520  1.05371E+00  9.96820E-01  5.68882E-02
    9066.317     73.915   4.560  1.04702E+00  9.97250E-01  4.97735E-02
    9067.713     75.311   4.600  1.03966E+00  9.97682E-01  4.19776E-02
    9069.122     76.719   4.640  1.03180E+00  9.98114E-01  3.36828E-02
    9070.542     78.140   4.680  1.02364E+00  9.98545E-01  2.50916E-02
    9071.974     79.572   4.720  1.01531E+00  9.98976E-01  1.63322E-02
    9073.419     81.017   4.760  1.00687E+00  9.99405E-01  7.46499E-03
    9074.876     82.474   4.800  9.98347E-01  9.99830E-01 -1.48236E-03
    9076.345     83.943   4.840  9.89809E-01  1.00025E+00 -1.04405E-02
    9077.827     85.424   4.880  9.81436E-01  1.00064E+00 -1.92062E-02
    9079.320     86.918   4.920  9.73537E-01  1.00103E+00 -2.74896E-02
    9080.826     88.424   4.960  9.66417E-01  1.00140E+00 -3.49868E-02
    9082.344     89.941   5.000  9.60344E-01  1.00175E+00 -4.14067E-02
    9083.874     91.472   5.040  9.55590E-01  1.00209E+00 -4.64960E-02
    9085.416     93.014   5.080  9.52342E-01  1.00239E+00 -5.00464E-02
    9086.971     94.568   5.120  9.50766E-01  1.00268E+00 -5.19119E-02
    9088.537     96.135   5.160  9.50832E-01  1.00291E+00 -5.20789E-02
    9090.116     97.714   5.200  9.52500E-01  1.00315E+00 -5.06514E-02
    9091.707     99.305   5.240  9.55419E-01  1.00333E+00 -4.79147E-02
    9093.310    100.908   5.280  9.59176E-01  1.00350E+00 -4.43232E-02
    9094.926    102.524   5.320  9.63127E-01  1.00360E+00 -4.04774E-02
    9096.553    104.151   5.360  9.66738E-01  1.00369E+00 -3.69541E-02
    9098.193    105.791   5.400  9.69549E-01  1.00374E+00 -3.41940E-02
    9099.845    107.443   5.440  9.71350E-01  1.00376E+00 -3.24067E-02
    9101.509    109.107   5.480  9.72217E-01  1.00375E+00 -3.15373E-02
    9103.186    110.784   5.520  9.72452E-01  1.00369E+00 -3.12389E-02
    9104.874    112.472   5.560  9.72684E-01  1.00361E+00 -3.09258E-02
    9106.575    114.173   5.600  9.73529E-01  1.00347E+00 -2.99375E-02
    9108.288    115.886   5.640  9.75493E-01  1.00331E+00 -2.78144E-02
    9110.013    117.611   5.680  9.78631E-01  1.00311E+00 -2.44816E-02
    9111.751    119.348   5.720  9.82614E-01  1.00288E+00 -2.02638E-02
    9113.500    121.098   5.760  9.86946E-01  1.00261E+00 -1.56613E-02
    9115.262    122.860   5.800  9.91189E-01  1.00232E+00 -1.11344E-02
    9117.036    124.634   5.840  9.95018E-01  1.00198E+00 -6.96310E-03
    9118.822    126.420   5.880  9.98394E-01  1.00163E+00 -3.23372E-03
    9120.620    128.218   5.920  1.00134E+00  1.00124E+00  9.54618E-05
    9122.431    130.029   5.960  1.00390E+00  1.00083E+00  3.07167E-03
    9124.254    131.851   6.000  1.00615E+00  1.00039E+00  5.75823E-03
