# # comment:                                                     FEFF 9.9.1  
# # Source:
# # Structure
# # Reduced
# # space
# # abc:
# # angles:
# # sites:
# # POT  SCF 100  7.0000   0, screened core-hole, AFOLP (folp(0)= 1.150)
# # Abs   Z=29 Rmt= 1.211 Rnm= 1.278 K  shell
# # Pot 1 Z= 3 Rmt= 1.239 Rnm= 1.324
# # Pot 2 Z=25 Rmt= 1.211 Rnm= 1.351
# # Pot 3 Z=29 Rmt= 1.211 Rnm= 1.278
# # Pot 4 Z= 8 Rmt= 1.062 Rnm= 1.126
# # Gam_ch=1.729E+00 H-L exch Vi= 0.000E+00 Vr= 0.000E+00
# # Mu=-9.029E+00eV kf=2.115E+00 Vint=-1.550E+01eV Rs_int= 1.715
# FMS rfms= 9.0000
# # PATH  Rmax=-1.000,  Keep_limit= 0.00, Heap_limit 0.00  Pwcrit= 2.50%
#  S02=0.950  Temp=   0.00  Debye_temp=   0.00  Global_sig2= 0.00000
#  Energy zero shift, vr, vi    0.00000E+00   0.00000E+00
#  Curved wave amplitude ratio filter   4.000%
#     file         sig2 tot  cw amp ratio   deg  nlegs   reff  inp sig2
#     0/   0 paths used
#  xsedge+ 50, used to normalize mu           2.4278E-04
#  -----------------------------------------------------------------------
#  omega    e    k    mu    mu0     chi     @#
    8984.174    -12.839  -1.000  2.83740E-02  5.35039E-02 -2.51299E-02
    8984.473    -12.540  -0.960  2.94729E-02  5.72883E-02 -2.78154E-02
    8984.759    -12.254  -0.920  3.06358E-02  6.14798E-02 -3.08440E-02
    8985.034    -11.979  -0.880  3.18709E-02  6.61365E-02 -3.42656E-02
    8985.296    -11.717  -0.840  3.31881E-02  7.13261E-02 -3.81380E-02
    8985.546    -11.467  -0.800  3.45993E-02  7.71266E-02 -4.25273E-02
    8985.783    -11.229  -0.760  3.61187E-02  8.36273E-02 -4.75086E-02
    8986.009    -11.004  -0.720  3.77627E-02  9.09288E-02 -5.31661E-02
    8986.222    -10.791  -0.680  3.95502E-02  9.91413E-02 -5.95911E-02
    8986.423    -10.589  -0.640  4.15015E-02  1.08381E-01 -6.68795E-02
    8986.612    -10.400  -0.600  4.36371E-02  1.18761E-01 -7.51243E-02
    8986.789    -10.224  -0.560  4.59743E-02  1.30378E-01 -8.44039E-02
    8986.954    -10.059  -0.520  4.85230E-02  1.43288E-01 -9.47646E-02
    8987.106     -9.907  -0.480  5.12783E-02  1.57474E-01 -1.06195E-01
    8987.246     -9.766  -0.440  5.42134E-02  1.72813E-01 -1.18600E-01
    8987.374     -9.638  -0.400  5.72731E-02  1.89044E-01 -1.31770E-01
    8987.490     -9.523  -0.360  6.03729E-02  2.05755E-01 -1.45382E-01
    8987.594     -9.419  -0.320  6.34065E-02  2.22415E-01 -1.59009E-01
    8987.685     -9.327  -0.280  6.62612E-02  2.38430E-01 -1.72169E-01
    8987.765     -9.248  -0.240  6.88372E-02  2.53227E-01 -1.84389E-01
    8987.832     -9.181  -0.200  7.10613E-02  2.66320E-01 -1.95259E-01
    8987.886     -9.126  -0.160  7.28918E-02  2.77352E-01 -2.04460E-01
    8987.929     -9.084  -0.120  7.43136E-02  2.86086E-01 -2.11773E-01
    8987.960     -9.053  -0.080  7.53273E-02  2.92388E-01 -2.17061E-01
    8987.984     -9.029   0.000  7.61469E-02  2.97459E-01 -2.21312E-01
    8988.039     -8.974   0.120  7.80034E-02  3.08899E-01 -2.30896E-01
    8988.082     -8.931   0.160  7.93355E-02  3.17816E-01 -2.38481E-01
    8988.136     -8.876   0.200  8.09631E-02  3.29240E-01 -2.48276E-01
    8988.203     -8.809   0.240  8.27504E-02  3.43044E-01 -2.60294E-01
    8988.283     -8.730   0.280  8.45964E-02  3.58977E-01 -2.74381E-01
    8988.374     -8.639   0.320  8.63172E-02  3.76690E-01 -2.90373E-01
    8988.478     -8.535   0.360  8.77948E-02  3.95743E-01 -3.07948E-01
    8988.594     -8.419   0.400  8.89339E-02  4.15664E-01 -3.26730E-01
    8988.722     -8.291   0.440  8.97120E-02  4.35977E-01 -3.46265E-01
    8988.862     -8.151   0.480  9.03029E-02  4.56366E-01 -3.66063E-01
    8989.014     -7.999   0.520  9.09346E-02  4.76594E-01 -3.85659E-01
    8989.179     -7.834   0.560  9.18645E-02  4.96559E-01 -4.04695E-01
    8989.356     -7.657   0.600  9.32929E-02  5.16185E-01 -4.22892E-01
    8989.545     -7.468   0.640  9.54519E-02  5.35535E-01 -4.40083E-01
    8989.746     -7.267   0.680  9.84825E-02  5.54638E-01 -4.56155E-01
    8989.959     -7.054   0.720  1.02436E-01  5.73553E-01 -4.71116E-01
    8990.185     -6.828   0.760  1.07245E-01  5.92357E-01 -4.85112E-01
    8990.422     -6.590   0.800  1.12370E-01  6.11035E-01 -4.98665E-01
    8990.672     -6.340   0.840  1.17239E-01  6.29664E-01 -5.12425E-01
    8990.934     -6.078   0.880  1.21777E-01  6.48243E-01 -5.26465E-01
    8991.209     -5.804   0.920  1.26860E-01  6.66739E-01 -5.39879E-01
    8991.495     -5.517   0.960  1.33746E-01  6.85153E-01 -5.51407E-01
    8991.794     -5.219   1.000  1.43485E-01  7.03470E-01 -5.59985E-01
    8992.105     -4.908   1.040  1.56796E-01  7.21631E-01 -5.64836E-01
    8992.428     -4.585   1.080  1.74042E-01  7.39611E-01 -5.65569E-01
    8992.763     -4.250   1.120  1.95251E-01  7.57377E-01 -5.62126E-01
    8993.111     -3.902   1.160  2.20128E-01  7.74834E-01 -5.54706E-01
    8993.470     -3.542   1.200  2.46046E-01  7.91964E-01 -5.45918E-01
    8993.842     -3.171   1.240  2.66382E-01  8.08709E-01 -5.42327E-01
    8994.226     -2.786   1.280  2.79442E-01  8.25029E-01 -5.45587E-01
    8994.622     -2.390   1.320  2.96053E-01  8.40842E-01 -5.44789E-01
    8995.031     -1.982   1.360  3.27137E-01  8.56130E-01 -5.28993E-01
    8995.452     -1.561   1.400  3.69234E-01  8.70836E-01 -5.01601E-01
    8995.884     -1.128   1.440  4.09286E-01  8.84922E-01 -4.75636E-01
    8996.329     -0.683   1.480  4.47651E-01  8.98355E-01 -4.50704E-01
    8996.787     -0.226   1.520  4.97839E-01  9.11124E-01 -4.13285E-01
    8997.256      0.243   1.560  5.67228E-01  9.23200E-01 -3.55972E-01
    8997.738      0.725   1.600  6.52088E-01  9.34577E-01 -2.82489E-01
    8998.231      1.219   1.640  7.40158E-01  9.45210E-01 -2.05052E-01
    8998.737      1.725   1.680  8.22153E-01  9.55117E-01 -1.32964E-01
    8999.255      2.243   1.720  8.98128E-01  9.64301E-01 -6.61730E-02
    8999.786      2.773   1.760  9.86022E-01  9.72766E-01  1.32565E-02
    9000.328      3.316   1.800  1.09115E+00  9.80538E-01  1.10608E-01
    9000.883      3.870   1.840  1.19769E+00  9.87584E-01  2.10109E-01
    9001.450      4.437   1.880  1.32183E+00  9.93975E-01  3.27854E-01
    9002.029      5.016   1.920  1.48966E+00  9.99681E-01  4.89979E-01
    9002.620      5.608   1.960  1.68328E+00  1.00478E+00  6.78507E-01
    9003.224      6.211   2.000  1.86581E+00  1.00925E+00  8.56560E-01
    9003.840      6.827   2.040  2.01900E+00  1.01315E+00  1.00585E+00
    9004.467      7.455   2.080  2.10605E+00  1.01652E+00  1.08953E+00
    9005.108      8.095   2.120  2.06797E+00  1.01934E+00  1.04863E+00
    9005.760      8.747   2.160  1.89063E+00  1.02171E+00  8.68918E-01
    9006.424      9.412   2.200  1.63093E+00  1.02360E+00  6.07328E-01
    9007.101     10.088   2.240  1.38493E+00  1.02507E+00  3.59857E-01
    9007.790     10.777   2.280  1.21013E+00  1.02616E+00  1.83974E-01
    9008.491     11.478   2.320  1.10273E+00  1.02690E+00  7.58267E-02
    9009.204     12.191   2.360  1.03694E+00  1.02729E+00  9.64836E-03
    9009.929     12.917   2.400  9.96451E-01  1.02741E+00 -3.09592E-02
    9010.667     13.654   2.440  9.74128E-01  1.02725E+00 -5.31189E-02
    9011.417     14.404   2.480  9.60337E-01  1.02686E+00 -6.65240E-02
    9012.179     15.166   2.520  9.50444E-01  1.02624E+00 -7.57979E-02
    9012.953     15.940   2.560  9.60117E-01  1.02545E+00 -6.53290E-02
    9013.739     16.727   2.600  9.85451E-01  1.02448E+00 -3.90335E-02
    9014.538     17.525   2.640  1.01409E+00  1.02339E+00 -9.29446E-03
    9015.349     18.336   2.680  1.03697E+00  1.02217E+00  1.47931E-02
    9016.172     19.159   2.720  1.04982E+00  1.02087E+00  2.89519E-02
    9017.007     19.994   2.760  1.05060E+00  1.01948E+00  3.11222E-02
    9017.854     20.841   2.800  1.03877E+00  1.01802E+00  2.07494E-02
    9018.714     21.701   2.840  1.01684E+00  1.01653E+00  3.02996E-04
    9019.585     22.573   2.880  9.88436E-01  1.01502E+00 -2.65807E-02
    9020.469     23.457   2.920  9.57371E-01  1.01349E+00 -5.61212E-02
    9021.366     24.353   2.960  9.26806E-01  1.01197E+00 -8.51613E-02
    9022.274     25.261   3.000  8.98821E-01  1.01045E+00 -1.11627E-01
    9023.194     26.182   3.040  8.74746E-01  1.00896E+00 -1.34214E-01
    9024.127     27.114   3.080  8.54870E-01  1.00751E+00 -1.52640E-01
    9025.072     28.059   3.120  8.38161E-01  1.00610E+00 -1.67940E-01
    9026.029     29.016   3.160  8.23700E-01  1.00474E+00 -1.81039E-01
    9026.998     29.985   3.200  8.11325E-01  1.00345E+00 -1.92122E-01
    9027.980     30.967   3.240  8.01233E-01  1.00223E+00 -2.00996E-01
    9028.973     31.961   3.280  7.93690E-01  1.00107E+00 -2.07375E-01
    9029.979     32.966   3.320  7.89186E-01  9.99981E-01 -2.10795E-01
    9030.997     33.984   3.360  7.88565E-01  9.98978E-01 -2.10413E-01
    9032.027     35.015   3.400  7.92001E-01  9.98078E-01 -2.06077E-01
    9033.070     36.057   3.440  7.99499E-01  9.97242E-01 -1.97742E-01
    9034.124     37.112   3.480  8.10814E-01  9.96512E-01 -1.85698E-01
    9035.191     38.178   3.520  8.25252E-01  9.95867E-01 -1.70615E-01
    9036.270     39.257   3.560  8.42062E-01  9.95309E-01 -1.53246E-01
    9037.361     40.349   3.600  8.61039E-01  9.94836E-01 -1.33796E-01
    9038.465     41.452   3.640  8.82350E-01  9.94472E-01 -1.12122E-01
    9039.580     42.568   3.680  9.06124E-01  9.94195E-01 -8.80718E-02
    9040.708     43.695   3.720  9.32423E-01  9.94005E-01 -6.15822E-02
    9041.848     44.835   3.760  9.61017E-01  9.93925E-01 -3.29072E-02
    9043.000     45.987   3.800  9.91066E-01  9.93929E-01 -2.86301E-03
    9044.164     47.152   3.840  1.02135E+00  9.94016E-01  2.73341E-02
    9045.341     48.328   3.880  1.05045E+00  9.94186E-01  5.62658E-02
    9046.530     49.517   3.920  1.07689E+00  9.94437E-01  8.24565E-02
    9047.731     50.718   3.960  1.09956E+00  9.94768E-01  1.04792E-01
    9048.944     51.931   4.000  1.11816E+00  9.95178E-01  1.22986E-01
    9050.169     53.156   4.040  1.13313E+00  9.95645E-01  1.37481E-01
    9051.406     54.394   4.080  1.14530E+00  9.96207E-01  1.49097E-01
    9052.656     55.643   4.120  1.15550E+00  9.96822E-01  1.58682E-01
    9053.918     56.905   4.160  1.16391E+00  9.97485E-01  1.66424E-01
    9055.192     58.179   4.200  1.16964E+00  9.98217E-01  1.71426E-01
    9056.478     59.466   4.240  1.17083E+00  9.98994E-01  1.71834E-01
    9057.777     60.764   4.280  1.16557E+00  9.99815E-01  1.65753E-01
    9059.087     62.075   4.320  1.15299E+00  1.00067E+00  1.52312E-01
    9060.410     63.397   4.360  1.13409E+00  1.00157E+00  1.32518E-01
    9061.745     64.733   4.400  1.11152E+00  1.00251E+00  1.09015E-01
    9063.092     66.080   4.440  1.08843E+00  1.00348E+00  8.49465E-02
    9064.452     67.439   4.480  1.06733E+00  1.00446E+00  6.28756E-02
    9065.823     68.811   4.520  1.04972E+00  1.00544E+00  4.42764E-02
    9067.207     70.195   4.560  1.03583E+00  1.00645E+00  2.93865E-02
    9068.603     71.590   4.600  1.02496E+00  1.00744E+00  1.75273E-02
    9070.011     72.999   4.640  1.01611E+00  1.00844E+00  7.66709E-03
    9071.432     74.419   4.680  1.00842E+00  1.00942E+00 -1.00179E-03
    9072.864     75.852   4.720  1.00150E+00  1.01042E+00 -8.92258E-03
    9074.309     77.296   4.760  9.95177E-01  1.01137E+00 -1.61916E-02
    9075.766     78.753   4.800  9.89622E-01  1.01232E+00 -2.27027E-02
    9077.235     80.222   4.840  9.84983E-01  1.01322E+00 -2.82407E-02
    9078.716     81.704   4.880  9.81717E-01  1.01411E+00 -3.23904E-02
    9080.210     83.197   4.920  9.80356E-01  1.01495E+00 -3.45958E-02
    9081.716     84.703   4.960  9.81267E-01  1.01576E+00 -3.44884E-02
    9083.234     86.221   5.000  9.84097E-01  1.01652E+00 -3.24199E-02
    9084.764     87.751   5.040  9.87451E-01  1.01724E+00 -2.97846E-02
    9086.306     89.293   5.080  9.89513E-01  1.01791E+00 -2.83933E-02
    9087.860     90.848   5.120  9.89111E-01  1.01851E+00 -2.93966E-02
    9089.427     92.414   5.160  9.86448E-01  1.01906E+00 -3.26130E-02
    9091.006     93.993   5.200  9.82764E-01  1.01957E+00 -3.68020E-02
    9092.597     95.584   5.240  9.79730E-01  1.02000E+00 -4.02668E-02
    9094.200     97.187   5.280  9.78977E-01  1.02038E+00 -4.13988E-02
    9095.816     98.803   5.320  9.81177E-01  1.02068E+00 -3.95023E-02
    9097.443    100.431   5.360  9.85744E-01  1.02091E+00 -3.51648E-02
    9099.083    102.070   5.400  9.91127E-01  1.02109E+00 -2.99592E-02
    9100.735    103.722   5.440  9.95810E-01  1.02121E+00 -2.53995E-02
    9102.399    105.387   5.480  9.98913E-01  1.02124E+00 -2.23227E-02
    9104.076    107.063   5.520  1.00030E+00  1.02121E+00 -2.09059E-02
    9105.764    108.752   5.560  9.99903E-01  1.02113E+00 -2.12277E-02
    9107.465    110.452   5.600  9.97464E-01  1.02098E+00 -2.35145E-02
    9109.178    112.165   5.640  9.92846E-01  1.02075E+00 -2.79056E-02
    9110.903    113.890   5.680  9.86518E-01  1.02048E+00 -3.39580E-02
    9112.641    115.628   5.720  9.79474E-01  1.02015E+00 -4.06791E-02
    9114.390    117.377   5.760  9.72591E-01  1.01976E+00 -4.71670E-02
    9116.152    119.139   5.800  9.66153E-01  1.01929E+00 -5.31398E-02
    9117.926    120.913   5.840  9.60185E-01  1.01881E+00 -5.86237E-02
    9119.712    122.699   5.880  9.55011E-01  1.01826E+00 -6.32506E-02
    9121.510    124.497   5.920  9.51725E-01  1.01768E+00 -6.59508E-02
    9123.321    126.308   5.960  9.51611E-01  1.01705E+00 -6.54432E-02
    9125.143    128.131   6.000  9.55787E-01  1.01636E+00 -6.05712E-02
