# # comment:                                                     FEFF 9.9.1  
# # Source:
# # Structure
# # Reduced
# # space
# # abc:
# # angles:
# # sites:
# # POT  SCF 100  7.0000   0, screened core-hole, AFOLP (folp(0)= 1.150)
# # Abs   Z=29 Rmt= 1.249 Rnm= 1.340 K  shell
# # Pot 1 Z=56 Rmt= 2.035 Rnm= 2.108
# # Pot 2 Z=29 Rmt= 1.249 Rnm= 1.340
# # Pot 3 Z=34 Rmt= 1.103 Rnm= 1.327
# # Pot 4 Z= 8 Rmt= 0.969 Rnm= 1.075
# # Gam_ch=1.729E+00 H-L exch Vi= 0.000E+00 Vr= 0.000E+00
# # Mu=-6.085E+00eV kf=2.221E+00 Vint=-1.583E+01eV Rs_int= 1.633
# FMS rfms= 9.0000
# # PATH  Rmax=-1.000,  Keep_limit= 0.00, Heap_limit 0.00  Pwcrit= 2.50%
#  S02=0.950  Temp=   0.00  Debye_temp=   0.00  Global_sig2= 0.00000
#  Energy zero shift, vr, vi    0.00000E+00   0.00000E+00
#  Curved wave amplitude ratio filter   4.000%
#     file         sig2 tot  cw amp ratio   deg  nlegs   reff  inp sig2
#     0/   0 paths used
#  xsedge+ 50, used to normalize mu           2.4652E-04
#  -----------------------------------------------------------------------
#  omega    e    k    mu    mu0     chi     @#
    8983.428     -9.895  -1.000  4.19043E-02  5.42775E-02 -1.23732E-02
    8983.727     -9.596  -0.960  4.44619E-02  5.82554E-02 -1.37935E-02
    8984.014     -9.310  -0.920  4.72705E-02  6.26797E-02 -1.54091E-02
    8984.288     -9.035  -0.880  5.03656E-02  6.76167E-02 -1.72511E-02
    8984.550     -8.773  -0.840  5.37881E-02  7.31434E-02 -1.93553E-02
    8984.800     -8.523  -0.800  5.75857E-02  7.93492E-02 -2.17634E-02
    8985.038     -8.286  -0.760  6.18130E-02  8.63368E-02 -2.45237E-02
    8985.263     -8.060  -0.720  6.65314E-02  9.42222E-02 -2.76908E-02
    8985.477     -7.847  -0.680  7.18082E-02  1.03133E-01 -3.13251E-02
    8985.678     -7.646  -0.640  7.77147E-02  1.13205E-01 -3.54906E-02
    8985.867     -7.457  -0.600  8.43201E-02  1.24571E-01 -4.02508E-02
    8986.044     -7.280  -0.560  9.16836E-02  1.37344E-01 -4.56601E-02
    8986.208     -7.115  -0.520  9.98400E-02  1.51592E-01 -5.17515E-02
    8986.361     -6.963  -0.480  1.08781E-01  1.67300E-01 -5.85191E-02
    8986.501     -6.823  -0.440  1.18434E-01  1.84331E-01 -6.58976E-02
    8986.629     -6.695  -0.400  1.28641E-01  2.02387E-01 -7.37461E-02
    8986.745     -6.579  -0.360  1.39156E-01  2.21000E-01 -8.18434E-02
    8986.848     -6.475  -0.320  1.49655E-01  2.39560E-01 -8.99049E-02
    8986.940     -6.384  -0.280  1.59773E-01  2.57393E-01 -9.76196E-02
    8987.019     -6.304  -0.240  1.69153E-01  2.73850E-01 -1.04697E-01
    8987.086     -6.237  -0.200  1.77485E-01  2.88389E-01 -1.10903E-01
    8987.141     -6.182  -0.160  1.84533E-01  3.00614E-01 -1.16081E-01
    8987.184     -6.140  -0.120  1.90133E-01  3.10274E-01 -1.20141E-01
    8987.214     -6.109  -0.080  1.94186E-01  3.17231E-01 -1.23044E-01
    8987.238     -6.085   0.000  1.97457E-01  3.22818E-01 -1.25361E-01
    8987.293     -6.030   0.120  2.04849E-01  3.35416E-01 -1.30568E-01
    8987.336     -5.987   0.160  2.10605E-01  3.45195E-01 -1.34590E-01
    8987.391     -5.933   0.200  2.18014E-01  3.57690E-01 -1.39676E-01
    8987.458     -5.865   0.240  2.26962E-01  3.72679E-01 -1.45717E-01
    8987.537     -5.786   0.280  2.37341E-01  3.89895E-01 -1.52555E-01
    8987.629     -5.695   0.320  2.48872E-01  4.08847E-01 -1.59975E-01
    8987.732     -5.591   0.360  2.61209E-01  4.28974E-01 -1.67765E-01
    8987.848     -5.475   0.400  2.73959E-01  4.49682E-01 -1.75723E-01
    8987.976     -5.347   0.440  2.86740E-01  4.70428E-01 -1.83688E-01
    8988.116     -5.207   0.480  2.99236E-01  4.90793E-01 -1.91557E-01
    8988.269     -5.055   0.520  3.11205E-01  5.10472E-01 -1.99267E-01
    8988.433     -4.890   0.560  3.22541E-01  5.29343E-01 -2.06802E-01
    8988.610     -4.713   0.600  3.33126E-01  5.47392E-01 -2.14266E-01
    8988.799     -4.524   0.640  3.42838E-01  5.64660E-01 -2.21822E-01
    8989.000     -4.323   0.680  3.51598E-01  5.81229E-01 -2.29631E-01
    8989.213     -4.110   0.720  3.59452E-01  5.97209E-01 -2.37757E-01
    8989.439     -3.884   0.760  3.66632E-01  6.12714E-01 -2.46082E-01
    8989.677     -3.647   0.800  3.73429E-01  6.27787E-01 -2.54358E-01
    8989.927     -3.397   0.840  3.80521E-01  6.42538E-01 -2.62016E-01
    8990.189     -3.134   0.880  3.89014E-01  6.57002E-01 -2.67988E-01
    8990.463     -2.860   0.920  4.00408E-01  6.71242E-01 -2.70834E-01
    8990.750     -2.574   0.960  4.15539E-01  6.85287E-01 -2.69748E-01
    8991.048     -2.275   1.000  4.33269E-01  6.99156E-01 -2.65886E-01
    8991.359     -1.964   1.040  4.50462E-01  7.12838E-01 -2.62376E-01
    8991.682     -1.641   1.080  4.64477E-01  7.26377E-01 -2.61900E-01
    8992.018     -1.306   1.120  4.75811E-01  7.39725E-01 -2.63915E-01
    8992.365     -0.958   1.160  4.86304E-01  7.52915E-01 -2.66611E-01
    8992.725     -0.599   1.200  4.94845E-01  7.65889E-01 -2.71044E-01
    8993.097     -0.227   1.240  5.00231E-01  7.78672E-01 -2.78441E-01
    8993.481      0.157   1.280  5.07291E-01  7.91243E-01 -2.83952E-01
    8993.877      0.554   1.320  5.23575E-01  8.03539E-01 -2.79964E-01
    8994.285      0.962   1.360  5.52481E-01  8.15597E-01 -2.63116E-01
    8994.706      1.383   1.400  5.93143E-01  8.27351E-01 -2.34208E-01
    8995.139      1.815   1.440  6.43935E-01  8.38795E-01 -1.94859E-01
    8995.584      2.260   1.480  7.04797E-01  8.49924E-01 -1.45127E-01
    8996.041      2.718   1.520  7.72034E-01  8.60692E-01 -8.86576E-02
    8996.510      3.187   1.560  8.39830E-01  8.71113E-01 -3.12832E-02
    8996.992      3.669   1.600  9.13802E-01  8.81142E-01  3.26602E-02
    8997.486      4.162   1.640  9.96525E-01  8.90795E-01  1.05730E-01
    8997.992      4.668   1.680  1.07004E+00  9.00048E-01  1.69995E-01
    8998.510      5.187   1.720  1.11332E+00  9.08879E-01  2.04445E-01
    8999.040      5.717   1.760  1.12701E+00  9.17282E-01  2.09727E-01
    8999.583      6.259   1.800  1.13527E+00  9.25280E-01  2.09986E-01
    9000.137      6.814   1.840  1.15729E+00  9.32850E-01  2.24440E-01
    9000.704      7.381   1.880  1.19203E+00  9.39973E-01  2.52060E-01
    9001.283      7.960   1.920  1.23180E+00  9.46690E-01  2.85105E-01
    9001.875      8.551   1.960  1.26464E+00  9.52965E-01  3.11675E-01
    9002.478      9.155   2.000  1.28036E+00  9.58820E-01  3.21541E-01
    9003.094      9.771   2.040  1.28248E+00  9.64280E-01  3.18204E-01
    9003.722     10.399   2.080  1.28297E+00  9.69328E-01  3.13642E-01
    9004.362     11.039   2.120  1.28958E+00  9.73970E-01  3.15613E-01
    9005.014     11.691   2.160  1.29536E+00  9.78232E-01  3.17128E-01
    9005.679     12.355   2.200  1.28581E+00  9.82142E-01  3.03668E-01
    9006.355     13.032   2.240  1.25943E+00  9.85664E-01  2.73769E-01
    9007.044     13.721   2.280  1.22888E+00  9.88847E-01  2.40033E-01
    9007.745     14.422   2.320  1.20299E+00  9.91719E-01  2.11266E-01
    9008.458     15.135   2.360  1.17947E+00  9.94247E-01  1.85218E-01
    9009.184     15.861   2.400  1.15572E+00  9.96500E-01  1.59222E-01
    9009.921     16.598   2.440  1.13306E+00  9.98443E-01  1.34621E-01
    9010.671     17.348   2.480  1.11100E+00  1.00013E+00  1.10868E-01
    9011.433     18.110   2.520  1.08482E+00  1.00156E+00  8.32562E-02
    9012.207     18.884   2.560  1.05129E+00  1.00278E+00  4.85172E-02
    9012.994     19.671   2.600  1.01377E+00  1.00373E+00  1.00353E-02
    9013.792     20.469   2.640  9.83048E-01  1.00450E+00 -2.14558E-02
    9014.603     21.280   2.680  9.62155E-01  1.00510E+00 -4.29416E-02
    9015.426     22.103   2.720  9.45862E-01  1.00550E+00 -5.96370E-02
    9016.261     22.938   2.760  9.32366E-01  1.00574E+00 -7.33707E-02
    9017.109     23.785   2.800  9.21168E-01  1.00584E+00 -8.46720E-02
    9017.968     24.645   2.840  9.12141E-01  1.00582E+00 -9.36740E-02
    9018.840     25.517   2.880  9.05167E-01  1.00565E+00 -1.00481E-01
    9019.724     26.401   2.920  8.99908E-01  1.00541E+00 -1.05497E-01
    9020.620     27.297   2.960  8.95863E-01  1.00505E+00 -1.09190E-01
    9021.528     28.205   3.000  8.92745E-01  1.00462E+00 -1.11873E-01
    9022.449     29.125   3.040  8.90156E-01  1.00411E+00 -1.13949E-01
    9023.381     30.058   3.080  8.87988E-01  1.00354E+00 -1.15555E-01
    9024.326     31.003   3.120  8.86466E-01  1.00293E+00 -1.16468E-01
    9025.283     31.960   3.160  8.85656E-01  1.00228E+00 -1.16628E-01
    9026.253     32.929   3.200  8.85695E-01  1.00162E+00 -1.15922E-01
    9027.234     33.911   3.240  8.86732E-01  1.00090E+00 -1.14165E-01
    9028.228     34.904   3.280  8.88658E-01  1.00019E+00 -1.11531E-01
    9029.234     35.910   3.320  8.91129E-01  9.99457E-01 -1.08328E-01
    9030.252     36.928   3.360  8.94088E-01  9.98744E-01 -1.04656E-01
    9031.282     37.958   3.400  8.97684E-01  9.98012E-01 -1.00328E-01
    9032.324     39.001   3.440  9.02186E-01  9.97305E-01 -9.51190E-02
    9033.379     40.055   3.480  9.07905E-01  9.96628E-01 -8.87226E-02
    9034.446     41.122   3.520  9.15044E-01  9.95960E-01 -8.09167E-02
    9035.525     42.201   3.560  9.23562E-01  9.95324E-01 -7.17615E-02
    9036.616     43.292   3.600  9.33210E-01  9.94700E-01 -6.14898E-02
    9037.719     44.396   3.640  9.43795E-01  9.94112E-01 -5.03169E-02
    9038.835     45.511   3.680  9.55059E-01  9.93584E-01 -3.85249E-02
    9039.962     46.639   3.720  9.66589E-01  9.93074E-01 -2.64846E-02
    9041.102     47.779   3.760  9.78039E-01  9.92602E-01 -1.45631E-02
    9042.255     48.931   3.800  9.89063E-01  9.92193E-01 -3.13065E-03
    9043.419     50.096   3.840  9.99289E-01  9.91806E-01  7.48272E-03
    9044.595     51.272   3.880  1.00864E+00  9.91481E-01  1.71596E-02
    9045.784     52.461   3.920  1.01720E+00  9.91198E-01  2.60061E-02
    9046.985     53.662   3.960  1.02512E+00  9.90957E-01  3.41617E-02
    9048.198     54.875   4.000  1.03248E+00  9.90758E-01  4.17229E-02
    9049.423     56.100   4.040  1.03932E+00  9.90602E-01  4.87215E-02
    9050.661     57.338   4.080  1.04559E+00  9.90510E-01  5.50774E-02
    9051.911     58.587   4.120  1.05110E+00  9.90461E-01  6.06408E-02
    9053.172     59.849   4.160  1.05582E+00  9.90431E-01  6.53901E-02
    9054.446     61.123   4.200  1.05991E+00  9.90462E-01  6.94478E-02
    9055.733     62.409   4.240  1.06352E+00  9.90536E-01  7.29887E-02
    9057.031     63.708   4.280  1.06675E+00  9.90649E-01  7.60982E-02
    9058.342     65.018   4.320  1.06942E+00  9.90802E-01  7.86167E-02
    9059.665     66.341   4.360  1.07100E+00  9.90993E-01  8.00076E-02
    9061.000     67.676   4.400  1.07081E+00  9.91219E-01  7.95889E-02
    9062.347     69.024   4.440  1.06837E+00  9.91459E-01  7.69140E-02
    9063.706     70.383   4.480  1.06373E+00  9.91734E-01  7.20006E-02
    9065.078     71.755   4.520  1.05742E+00  9.92044E-01  6.53755E-02
    9066.462     73.138   4.560  1.05032E+00  9.92386E-01  5.79300E-02
    9067.858     74.534   4.600  1.04328E+00  9.92740E-01  5.05447E-02
    9069.266     75.942   4.640  1.03698E+00  9.93122E-01  4.38620E-02
    9070.686     77.363   4.680  1.03170E+00  9.93511E-01  3.81877E-02
    9072.119     78.795   4.720  1.02733E+00  9.93906E-01  3.34195E-02
    9073.563     80.240   4.760  1.02341E+00  9.94326E-01  2.90836E-02
    9075.020     81.697   4.800  1.01928E+00  9.94750E-01  2.45319E-02
    9076.490     83.166   4.840  1.01437E+00  9.95176E-01  1.91919E-02
    9077.971     84.648   4.880  1.00836E+00  9.95600E-01  1.27564E-02
    9079.464     86.141   4.920  1.00122E+00  9.96023E-01  5.19389E-03
    9080.970     87.647   4.960  9.93074E-01  9.96443E-01 -3.36899E-03
    9082.488     89.165   5.000  9.84172E-01  9.96837E-01 -1.26655E-02
    9084.018     90.695   5.040  9.74925E-01  9.97248E-01 -2.23228E-02
    9085.560     92.237   5.080  9.65779E-01  9.97633E-01 -3.18543E-02
    9087.115     93.791   5.120  9.57280E-01  9.98011E-01 -4.07312E-02
    9088.681     95.358   5.160  9.49888E-01  9.98382E-01 -4.84937E-02
    9090.260     96.937   5.200  9.43957E-01  9.98720E-01 -5.47628E-02
    9091.851     98.528   5.240  9.39793E-01  9.99024E-01 -5.92310E-02
    9093.455    100.131   5.280  9.37809E-01  9.99317E-01 -6.15074E-02
    9095.070    101.747   5.320  9.38307E-01  9.99576E-01 -6.12690E-02
    9096.698    103.374   5.360  9.41407E-01  9.99824E-01 -5.84168E-02
    9098.338    105.014   5.400  9.46778E-01  1.00004E+00 -5.32579E-02
    9099.990    106.666   5.440  9.53634E-01  1.00021E+00 -4.65777E-02
    9101.654    108.330   5.480  9.60942E-01  1.00037E+00 -3.94312E-02
    9103.330    110.007   5.520  9.67700E-01  1.00047E+00 -3.27746E-02
    9105.019    111.695   5.560  9.73400E-01  1.00056E+00 -2.71607E-02
    9106.719    113.396   5.600  9.77893E-01  1.00061E+00 -2.27139E-02
    9108.432    115.109   5.640  9.81328E-01  1.00062E+00 -1.92872E-02
    9110.158    116.834   5.680  9.83839E-01  1.00058E+00 -1.67447E-02
    9111.895    118.572   5.720  9.85562E-01  1.00051E+00 -1.49497E-02
    9113.644    120.321   5.760  9.86701E-01  1.00040E+00 -1.37011E-02
    9115.406    122.083   5.800  9.87510E-01  1.00025E+00 -1.27448E-02
    9117.180    123.857   5.840  9.88268E-01  1.00009E+00 -1.18263E-02
    9118.966    125.643   5.880  9.89101E-01  9.99874E-01 -1.07728E-02
    9120.765    127.441   5.920  9.90148E-01  9.99639E-01 -9.49185E-03
    9122.575    129.252   5.960  9.91406E-01  9.99343E-01 -7.93685E-03
    9124.398    131.074   6.000  9.92959E-01  9.99012E-01 -6.05334E-03
