# # comment:                                                     FEFF 9.9.1  
# # Source:
# # Structure
# # Reduced
# # space
# # abc:
# # angles:
# # sites:
# # POT  SCF 100  7.0000   0, screened core-hole, AFOLP (folp(0)= 1.150)
# # Abs   Z=29 Rmt= 1.312 Rnm= 1.368 K  shell
# # Pot 1 Z= 3 Rmt= 1.318 Rnm= 1.360
# # Pot 2 Z=29 Rmt= 1.312 Rnm= 1.368
# # Pot 3 Z=15 Rmt= 0.943 Rnm= 1.156
# # Pot 4 Z= 8 Rmt= 0.936 Rnm= 1.044
# # Gam_ch=1.729E+00 H-L exch Vi= 0.000E+00 Vr= 0.000E+00
# # Mu=-6.536E+00eV kf=2.425E+00 Vint=-1.789E+01eV Rs_int= 1.495
# FMS rfms= 9.0000
# # PATH  Rmax=-1.000,  Keep_limit= 0.00, Heap_limit 0.00  Pwcrit= 2.50%
#  S02=0.950  Temp=   0.00  Debye_temp=   0.00  Global_sig2= 0.00000
#  Energy zero shift, vr, vi    0.00000E+00   0.00000E+00
#  Curved wave amplitude ratio filter   4.000%
#     file         sig2 tot  cw amp ratio   deg  nlegs   reff  inp sig2
#     0/   0 paths used
#  xsedge+ 50, used to normalize mu           2.4733E-04
#  -----------------------------------------------------------------------
#  omega    e    k    mu    mu0     chi     @#
    8983.518    -10.346  -1.000  4.14073E-02  5.27712E-02 -1.13639E-02
    8983.817    -10.048  -0.960  4.35544E-02  5.65948E-02 -1.30404E-02
    8984.103     -9.761  -0.920  4.58533E-02  6.08456E-02 -1.49923E-02
    8984.378     -9.487  -0.880  4.83192E-02  6.55869E-02 -1.72676E-02
    8984.640     -9.225  -0.840  5.09701E-02  7.08925E-02 -1.99223E-02
    8984.890     -8.975  -0.800  5.38264E-02  7.68480E-02 -2.30216E-02
    8985.128     -8.737  -0.760  5.69112E-02  8.35519E-02 -2.66407E-02
    8985.353     -8.512  -0.720  6.02506E-02  9.11153E-02 -3.08647E-02
    8985.566     -8.298  -0.680  6.38730E-02  9.96609E-02 -3.57879E-02
    8985.768     -8.097  -0.640  6.78078E-02  1.09318E-01 -4.15104E-02
    8985.957     -7.908  -0.600  7.20832E-02  1.20215E-01 -4.81315E-02
    8986.133     -7.731  -0.560  7.67210E-02  1.32459E-01 -5.57385E-02
    8986.298     -7.567  -0.520  8.17295E-02  1.46118E-01 -6.43880E-02
    8986.450     -7.414  -0.480  8.70933E-02  1.61175E-01 -7.40819E-02
    8986.591     -7.274  -0.440  9.27617E-02  1.77500E-01 -8.47384E-02
    8986.719     -7.146  -0.400  9.86386E-02  1.94806E-01 -9.61675E-02
    8986.834     -7.030  -0.360  1.04581E-01  2.12644E-01 -1.08063E-01
    8986.938     -6.927  -0.320  1.10408E-01  2.30430E-01 -1.20023E-01
    8987.029     -6.835  -0.280  1.15923E-01  2.47517E-01 -1.31594E-01
    8987.109     -6.756  -0.240  1.20945E-01  2.63282E-01 -1.42337E-01
    8987.176     -6.689  -0.200  1.25327E-01  2.77207E-01 -1.51879E-01
    8987.231     -6.634  -0.160  1.28974E-01  2.88913E-01 -1.59940E-01
    8987.273     -6.591  -0.120  1.31830E-01  2.98162E-01 -1.66332E-01
    8987.304     -6.561  -0.080  1.33873E-01  3.04822E-01 -1.70949E-01
    8987.328     -6.536   0.000  1.35501E-01  3.10170E-01 -1.74669E-01
    8987.383     -6.482   0.120  1.39083E-01  3.22223E-01 -1.83140E-01
    8987.426     -6.439   0.160  1.41835E-01  3.31572E-01 -1.89737E-01
    8987.481     -6.384   0.200  1.45298E-01  3.43511E-01 -1.98213E-01
    8987.548     -6.317   0.240  1.49374E-01  3.57843E-01 -2.08470E-01
    8987.627     -6.238   0.280  1.53941E-01  3.74287E-01 -2.20346E-01
    8987.718     -6.146   0.320  1.58823E-01  3.92365E-01 -2.33541E-01
    8987.822     -6.043   0.360  1.63883E-01  4.11572E-01 -2.47689E-01
    8987.938     -5.927   0.400  1.69034E-01  4.31294E-01 -2.62260E-01
    8988.066     -5.799   0.440  1.74373E-01  4.51027E-01 -2.76655E-01
    8988.206     -5.659   0.480  1.80220E-01  4.70348E-01 -2.90129E-01
    8988.358     -5.506   0.520  1.87117E-01  4.89000E-01 -3.01883E-01
    8988.523     -5.342   0.560  1.95886E-01  5.06869E-01 -3.10983E-01
    8988.700     -5.165   0.600  2.07446E-01  5.23925E-01 -3.16479E-01
    8988.889     -4.976   0.640  2.22808E-01  5.40231E-01 -3.17423E-01
    8989.090     -4.775   0.680  2.42890E-01  5.55889E-01 -3.12999E-01
    8989.303     -4.561   0.720  2.68170E-01  5.70992E-01 -3.02822E-01
    8989.529     -4.336   0.760  2.98266E-01  5.85655E-01 -2.87389E-01
    8989.767     -4.098   0.800  3.31555E-01  5.99962E-01 -2.68408E-01
    8990.016     -3.848   0.840  3.65482E-01  6.14006E-01 -2.48524E-01
    8990.279     -3.586   0.880  3.98224E-01  6.27847E-01 -2.29623E-01
    8990.553     -3.312   0.920  4.30693E-01  6.41548E-01 -2.10855E-01
    8990.839     -3.025   0.960  4.65070E-01  6.55124E-01 -1.90054E-01
    8991.138     -2.727   1.000  5.00526E-01  6.68637E-01 -1.68111E-01
    8991.449     -2.416   1.040  5.32511E-01  6.82081E-01 -1.49570E-01
    8991.772     -2.093   1.080  5.58730E-01  6.95480E-01 -1.36751E-01
    8992.107     -1.757   1.120  5.83554E-01  7.08835E-01 -1.25280E-01
    8992.455     -1.410   1.160  6.14937E-01  7.22137E-01 -1.07200E-01
    8992.815     -1.050   1.200  6.61566E-01  7.35395E-01 -7.38292E-02
    8993.186     -0.678   1.240  7.32301E-01  7.48573E-01 -1.62721E-02
    8993.570     -0.294   1.280  8.29196E-01  7.61672E-01  6.75245E-02
    8993.967      0.102   1.320  9.41316E-01  7.74688E-01  1.66628E-01
    8994.375      0.510   1.360  1.05180E+00  7.87559E-01  2.64245E-01
    8994.796      0.931   1.400  1.14977E+00  8.00299E-01  3.49467E-01
    8995.229      1.364   1.440  1.23000E+00  8.12880E-01  4.17119E-01
    8995.674      1.809   1.480  1.28843E+00  8.25254E-01  4.63179E-01
    8996.131      2.266   1.520  1.31761E+00  8.37410E-01  4.80200E-01
    8996.600      2.735   1.560  1.30645E+00  8.49319E-01  4.57134E-01
    8997.082      3.217   1.600  1.26950E+00  8.60953E-01  4.08551E-01
    8997.576      3.711   1.640  1.23005E+00  8.72319E-01  3.57728E-01
    8998.081      4.217   1.680  1.20040E+00  8.83349E-01  3.17048E-01
    8998.600      4.735   1.720  1.19373E+00  8.94033E-01  2.99697E-01
    8999.130      5.265   1.760  1.20051E+00  9.04382E-01  2.96128E-01
    8999.673      5.808   1.800  1.20733E+00  9.14327E-01  2.93003E-01
    9000.227      6.363   1.840  1.21598E+00  9.23902E-01  2.92083E-01
    9000.794      6.930   1.880  1.22494E+00  9.33038E-01  2.91898E-01
    9001.373      7.509   1.920  1.22581E+00  9.41771E-01  2.84042E-01
    9001.965      8.100   1.960  1.21303E+00  9.50055E-01  2.62973E-01
    9002.568      8.703   2.000  1.19065E+00  9.57904E-01  2.32744E-01
    9003.184      9.319   2.040  1.16238E+00  9.65278E-01  1.97100E-01
    9003.812      9.947   2.080  1.13257E+00  9.72215E-01  1.60358E-01
    9004.452     10.587   2.120  1.11058E+00  9.78672E-01  1.31913E-01
    9005.104     11.239   2.160  1.09920E+00  9.84671E-01  1.14532E-01
    9005.768     11.904   2.200  1.09232E+00  9.90233E-01  1.02088E-01
    9006.445     12.580   2.240  1.08590E+00  9.95319E-01  9.05773E-02
    9007.134     13.269   2.280  1.07982E+00  9.99954E-01  7.98647E-02
    9007.835     13.970   2.320  1.06758E+00  1.00414E+00  6.34430E-02
    9008.548     14.684   2.360  1.03884E+00  1.00791E+00  3.09355E-02
    9009.274     15.409   2.400  9.97687E-01  1.01126E+00 -1.35695E-02
    9010.011     16.147   2.440  9.59004E-01  1.01420E+00 -5.51916E-02
    9010.761     16.896   2.480  9.32559E-01  1.01673E+00 -8.41745E-02
    9011.523     17.658   2.520  9.19436E-01  1.01889E+00 -9.94585E-02
    9012.297     18.433   2.560  9.14507E-01  1.02069E+00 -1.06183E-01
    9013.084     19.219   2.600  9.08964E-01  1.02215E+00 -1.13184E-01
    9013.882     20.018   2.640  8.96599E-01  1.02325E+00 -1.26656E-01
    9014.693     20.828   2.680  8.78658E-01  1.02406E+00 -1.45405E-01
    9015.516     21.651   2.720  8.63866E-01  1.02458E+00 -1.60714E-01
    9016.351     22.486   2.760  8.58509E-01  1.02482E+00 -1.66309E-01
    9017.198     23.334   2.800  8.58333E-01  1.02481E+00 -1.66473E-01
    9018.058     24.193   2.840  8.60046E-01  1.02455E+00 -1.64507E-01
    9018.930     25.065   2.880  8.58921E-01  1.02411E+00 -1.65189E-01
    9019.814     25.949   2.920  8.57454E-01  1.02345E+00 -1.65993E-01
    9020.710     26.845   2.960  8.58427E-01  1.02261E+00 -1.64183E-01
    9021.618     27.753   3.000  8.63696E-01  1.02161E+00 -1.57913E-01
    9022.539     28.674   3.040  8.73361E-01  1.02046E+00 -1.47095E-01
    9023.471     29.607   3.080  8.86659E-01  1.01920E+00 -1.32539E-01
    9024.416     30.551   3.120  9.02752E-01  1.01783E+00 -1.15074E-01
    9025.373     31.508   3.160  9.20650E-01  1.01637E+00 -9.57158E-02
    9026.342     32.478   3.200  9.38735E-01  1.01483E+00 -7.60919E-02
    9027.324     33.459   3.240  9.56208E-01  1.01323E+00 -5.70265E-02
    9028.318     34.453   3.280  9.72900E-01  1.01158E+00 -3.86788E-02
    9029.323     35.459   3.320  9.89025E-01  1.00991E+00 -2.08804E-02
    9030.341     36.477   3.360  1.00469E+00  1.00822E+00 -3.53709E-03
    9031.372     37.507   3.400  1.01948E+00  1.00651E+00  1.29647E-02
    9032.414     38.549   3.440  1.03271E+00  1.00480E+00  2.79033E-02
    9033.469     39.604   3.480  1.04374E+00  1.00312E+00  4.06155E-02
    9034.535     40.671   3.520  1.05239E+00  1.00148E+00  5.09166E-02
    9035.614     41.750   3.560  1.05884E+00  9.99843E-01  5.89916E-02
    9036.706     42.841   3.600  1.06373E+00  9.98273E-01  6.54542E-02
    9037.809     43.944   3.640  1.06790E+00  9.96746E-01  7.11587E-02
    9038.924     45.060   3.680  1.07213E+00  9.95267E-01  7.68581E-02
    9040.052     46.188   3.720  1.07668E+00  9.93860E-01  8.28156E-02
    9041.192     47.328   3.760  1.08141E+00  9.92527E-01  8.88839E-02
    9042.344     48.480   3.800  1.08568E+00  9.91252E-01  9.44289E-02
    9043.509     49.644   3.840  1.08853E+00  9.90077E-01  9.84498E-02
    9044.685     50.821   3.880  1.08897E+00  9.88985E-01  9.99867E-02
    9045.874     52.009   3.920  1.08643E+00  9.87975E-01  9.84525E-02
    9047.075     53.210   3.960  1.08085E+00  9.87052E-01  9.37984E-02
    9048.288     54.423   4.000  1.07270E+00  9.86234E-01  8.64687E-02
    9049.513     55.649   4.040  1.06270E+00  9.85503E-01  7.71945E-02
    9050.751     56.886   4.080  1.05132E+00  9.84858E-01  6.64667E-02
    9052.000     58.136   4.120  1.03892E+00  9.84321E-01  5.45964E-02
    9053.262     59.398   4.160  1.02588E+00  9.83871E-01  4.20080E-02
    9054.536     60.672   4.200  1.01286E+00  9.83506E-01  2.93519E-02
    9055.823     61.958   4.240  1.00061E+00  9.83250E-01  1.73603E-02
    9057.121     63.256   4.280  9.89758E-01  9.83079E-01  6.67938E-03
    9058.432     64.567   4.320  9.80665E-01  9.82993E-01 -2.32831E-03
    9059.754     65.890   4.360  9.73463E-01  9.83011E-01 -9.54817E-03
    9061.089     67.225   4.400  9.68089E-01  9.83091E-01 -1.50026E-02
    9062.437     68.572   4.440  9.64397E-01  9.83272E-01 -1.88752E-02
    9063.796     69.931   4.480  9.61938E-01  9.83511E-01 -2.15733E-02
    9065.168     71.303   4.520  9.60179E-01  9.83849E-01 -2.36709E-02
    9066.551     72.687   4.560  9.58468E-01  9.84242E-01 -2.57746E-02
    9067.947     74.083   4.600  9.56349E-01  9.84707E-01 -2.83579E-02
    9069.356     75.491   4.640  9.53604E-01  9.85221E-01 -3.16173E-02
    9070.776     76.911   4.680  9.50426E-01  9.85805E-01 -3.53787E-02
    9072.209     78.344   4.720  9.47178E-01  9.86434E-01 -3.92553E-02
    9073.653     79.789   4.760  9.44405E-01  9.87104E-01 -4.26986E-02
    9075.110     81.246   4.800  9.42644E-01  9.87813E-01 -4.51697E-02
    9076.579     82.715   4.840  9.42266E-01  9.88561E-01 -4.62955E-02
    9078.061     84.196   4.880  9.43433E-01  9.89344E-01 -4.59108E-02
    9079.554     85.690   4.920  9.46057E-01  9.90136E-01 -4.40795E-02
    9081.060     87.195   4.960  9.49884E-01  9.90957E-01 -4.10730E-02
    9082.578     88.713   5.000  9.54635E-01  9.91782E-01 -3.71463E-02
    9084.108     90.243   5.040  9.60168E-01  9.92607E-01 -3.24391E-02
    9085.650     91.785   5.080  9.66438E-01  9.93429E-01 -2.69905E-02
    9087.205     93.340   5.120  9.73233E-01  9.94225E-01 -2.09916E-02
    9088.771     94.907   5.160  9.80019E-01  9.95034E-01 -1.50154E-02
    9090.350     96.485   5.200  9.85865E-01  9.95790E-01 -9.92524E-03
    9091.941     98.077   5.240  9.90052E-01  9.96534E-01 -6.48220E-03
    9093.544     99.680   5.280  9.92417E-01  9.97266E-01 -4.84913E-03
    9095.160    101.295   5.320  9.93453E-01  9.97936E-01 -4.48336E-03
    9096.787    102.923   5.360  9.94097E-01  9.98586E-01 -4.48842E-03
    9098.427    104.563   5.400  9.95046E-01  9.99171E-01 -4.12472E-03
    9100.079    106.215   5.440  9.96578E-01  9.99711E-01 -3.13230E-03
    9101.744    107.879   5.480  9.98521E-01  1.00020E+00 -1.68220E-03
    9103.420    109.555   5.520  1.00054E+00  1.00062E+00 -8.67589E-05
    9105.108    111.244   5.560  1.00251E+00  1.00100E+00  1.50964E-03
    9106.809    112.945   5.600  1.00455E+00  1.00129E+00  3.25300E-03
    9108.522    114.658   5.640  1.00696E+00  1.00152E+00  5.44772E-03
    9110.247    116.383   5.680  1.00999E+00  1.00169E+00  8.30621E-03
    9111.985    118.120   5.720  1.01355E+00  1.00178E+00  1.17706E-02
    9113.734    119.870   5.760  1.01735E+00  1.00180E+00  1.55478E-02
    9115.496    121.631   5.800  1.02107E+00  1.00177E+00  1.93035E-02
    9117.270    123.405   5.840  1.02448E+00  1.00166E+00  2.28156E-02
    9119.056    125.191   5.880  1.02739E+00  1.00148E+00  2.59082E-02
    9120.854    126.990   5.920  1.02951E+00  1.00122E+00  2.82830E-02
    9122.665    128.800   5.960  1.03035E+00  1.00088E+00  2.94709E-02
    9124.488    130.623   6.000  1.02942E+00  1.00045E+00  2.89707E-02
