# # comment:                                                     FEFF 9.9.1  
# # Source:
# # Structure
# # Reduced
# # space
# # abc:
# # angles:
# # sites:
# # POT  SCF 100  7.0000   0, screened core-hole, AFOLP (folp(0)= 1.150)
# # Abs   Z=29 Rmt= 1.294 Rnm= 1.359 K  shell
# # Pot 1 Z=29 Rmt= 1.293 Rnm= 1.359
# # Pot 2 Z= 1 Rmt= 0.681 Rnm= 0.851
# # Pot 3 Z= 6 Rmt= 0.724 Rnm= 0.958
# # Pot 4 Z= 8 Rmt= 0.812 Rnm= 1.012
# # Gam_ch=1.729E+00 H-L exch Vi= 0.000E+00 Vr= 0.000E+00
# # Mu=-8.420E+00eV kf=2.463E+00 Vint=-1.596E+01eV Rs_int= 1.473
# FMS rfms= 9.0000
# # PATH  Rmax=-1.000,  Keep_limit= 0.00, Heap_limit 0.00  Pwcrit= 2.50%
#  S02=0.950  Temp=   0.00  Debye_temp=   0.00  Global_sig2= 0.00000
#  Energy zero shift, vr, vi    0.00000E+00   0.00000E+00
#  Curved wave amplitude ratio filter   4.000%
#     file         sig2 tot  cw amp ratio   deg  nlegs   reff  inp sig2
#     0/   0 paths used
#  xsedge+ 50, used to normalize mu           2.4834E-04
#  -----------------------------------------------------------------------
#  omega    e    k    mu    mu0     chi     @#
    8983.227    -12.230  -1.000  3.15466E-02  4.84144E-02 -1.68678E-02
    8983.526    -11.932  -0.960  3.28835E-02  5.17668E-02 -1.88834E-02
    8983.812    -11.645  -0.920  3.42901E-02  5.54782E-02 -2.11880E-02
    8984.087    -11.371  -0.880  3.57715E-02  5.96001E-02 -2.38286E-02
    8984.349    -11.109  -0.840  3.73330E-02  6.41925E-02 -2.68595E-02
    8984.599    -10.859  -0.800  3.89808E-02  6.93250E-02 -3.03442E-02
    8984.836    -10.621  -0.760  4.07215E-02  7.50769E-02 -3.43553E-02
    8985.062    -10.395  -0.720  4.25624E-02  8.15378E-02 -3.89754E-02
    8985.275    -10.182  -0.680  4.45109E-02  8.88062E-02 -4.42953E-02
    8985.476     -9.981  -0.640  4.65744E-02  9.69858E-02 -5.04114E-02
    8985.665     -9.792  -0.600  4.87591E-02  1.06178E-01 -5.74190E-02
    8985.842     -9.615  -0.560  5.10684E-02  1.16469E-01 -6.54006E-02
    8986.007     -9.451  -0.520  5.35006E-02  1.27909E-01 -7.44084E-02
    8986.159     -9.298  -0.480  5.60455E-02  1.40485E-01 -8.44390E-02
    8986.299     -9.158  -0.440  5.86805E-02  1.54086E-01 -9.54052E-02
    8986.427     -9.030  -0.400  6.13680E-02  1.68479E-01 -1.07111E-01
    8986.543     -8.914  -0.360  6.40543E-02  1.83299E-01 -1.19245E-01
    8986.647     -8.810  -0.320  6.66731E-02  1.98070E-01 -1.31397E-01
    8986.738     -8.719  -0.280  6.91527E-02  2.12264E-01 -1.43112E-01
    8986.818     -8.640  -0.240  7.14245E-02  2.25372E-01 -1.53948E-01
    8986.885     -8.573  -0.200  7.34306E-02  2.36964E-01 -1.63534E-01
    8986.939     -8.518  -0.160  7.51264E-02  2.46724E-01 -1.71598E-01
    8986.982     -8.475  -0.120  7.64801E-02  2.54447E-01 -1.77967E-01
    8987.013     -8.445  -0.080  7.74702E-02  2.60015E-01 -1.82545E-01
    8987.037     -8.420   0.000  7.82935E-02  2.64492E-01 -1.86198E-01
    8987.092     -8.365   0.120  8.01816E-02  2.74603E-01 -1.94422E-01
    8987.135     -8.323   0.160  8.15819E-02  2.82468E-01 -2.00886E-01
    8987.189     -8.268   0.200  8.33729E-02  2.92521E-01 -2.09148E-01
    8987.256     -8.201   0.240  8.55627E-02  3.04664E-01 -2.19102E-01
    8987.336     -8.122   0.280  8.81191E-02  3.18658E-01 -2.30539E-01
    8987.427     -8.030   0.320  9.10511E-02  3.34179E-01 -2.43128E-01
    8987.531     -7.927   0.360  9.43485E-02  3.50802E-01 -2.56453E-01
    8987.647     -7.811   0.400  9.80376E-02  3.68111E-01 -2.70074E-01
    8987.775     -7.683   0.440  1.02203E-01  3.85711E-01 -2.83508E-01
    8987.915     -7.542   0.480  1.06902E-01  4.03274E-01 -2.96372E-01
    8988.067     -7.390   0.520  1.12258E-01  4.20585E-01 -3.08327E-01
    8988.232     -7.225   0.560  1.18389E-01  4.37556E-01 -3.19167E-01
    8988.409     -7.049   0.600  1.25483E-01  4.54200E-01 -3.28717E-01
    8988.598     -6.860   0.640  1.33630E-01  4.70499E-01 -3.36869E-01
    8988.799     -6.659   0.680  1.43116E-01  4.86568E-01 -3.43452E-01
    8989.012     -6.445   0.720  1.54182E-01  5.02428E-01 -3.48246E-01
    8989.238     -6.220   0.760  1.67217E-01  5.18181E-01 -3.50964E-01
    8989.475     -5.982   0.800  1.82661E-01  5.33857E-01 -3.51196E-01
    8989.725     -5.732   0.840  2.00811E-01  5.49539E-01 -3.48728E-01
    8989.987     -5.470   0.880  2.21472E-01  5.65218E-01 -3.43746E-01
    8990.262     -5.196   0.920  2.44008E-01  5.80933E-01 -3.36925E-01
    8990.548     -4.909   0.960  2.67621E-01  5.96713E-01 -3.29092E-01
    8990.847     -4.610   1.000  2.91494E-01  6.12519E-01 -3.21025E-01
    8991.158     -4.299   1.040  3.15150E-01  6.28365E-01 -3.13215E-01
    8991.481     -3.976   1.080  3.38469E-01  6.44236E-01 -3.05767E-01
    8991.816     -3.641   1.120  3.61826E-01  6.60095E-01 -2.98268E-01
    8992.164     -3.294   1.160  3.86996E-01  6.75938E-01 -2.88942E-01
    8992.523     -2.934   1.200  4.16513E-01  6.91719E-01 -2.75206E-01
    8992.895     -2.562   1.240  4.52798E-01  7.07408E-01 -2.54610E-01
    8993.279     -2.178   1.280  4.99009E-01  7.22954E-01 -2.23944E-01
    8993.676     -1.782   1.320  5.58774E-01  7.38362E-01 -1.79588E-01
    8994.084     -1.373   1.360  6.33877E-01  7.53540E-01 -1.19663E-01
    8994.505     -0.953   1.400  7.18128E-01  7.68512E-01 -5.03846E-02
    8994.937     -0.520   1.440  7.95782E-01  7.83183E-01  1.25989E-02
    8995.382     -0.075   1.480  8.56379E-01  7.97558E-01  5.88211E-02
    8995.840      0.382   1.520  8.99454E-01  8.11581E-01  8.78731E-02
    8996.309      0.852   1.560  9.25417E-01  8.25219E-01  1.00198E-01
    8996.791      1.333   1.600  9.36022E-01  8.38459E-01  9.75635E-02
    8997.284      1.827   1.640  9.45362E-01  8.51269E-01  9.40934E-02
    8997.790      2.333   1.680  9.71942E-01  8.63616E-01  1.08326E-01
    8998.308      2.851   1.720  1.01785E+00  8.75471E-01  1.42378E-01
    8998.839      3.382   1.760  1.07007E+00  8.86827E-01  1.83243E-01
    8999.381      3.924   1.800  1.11190E+00  8.97697E-01  2.14207E-01
    8999.936      4.479   1.840  1.13633E+00  9.08017E-01  2.28316E-01
    9000.503      5.046   1.880  1.14933E+00  9.17801E-01  2.31525E-01
    9001.082      5.625   1.920  1.15537E+00  9.27067E-01  2.28307E-01
    9001.673      6.216   1.960  1.15044E+00  9.35776E-01  2.14667E-01
    9002.277      6.820   2.000  1.13279E+00  9.43947E-01  1.88838E-01
    9002.893      7.435   2.040  1.11490E+00  9.51584E-01  1.63316E-01
    9003.521      8.063   2.080  1.11129E+00  9.58668E-01  1.52624E-01
    9004.161      8.703   2.120  1.11920E+00  9.65244E-01  1.53957E-01
    9004.813      9.356   2.160  1.12897E+00  9.71318E-01  1.57656E-01
    9005.477     10.020   2.200  1.14121E+00  9.76877E-01  1.64334E-01
    9006.154     10.697   2.240  1.15858E+00  9.81947E-01  1.76634E-01
    9006.843     11.386   2.280  1.17806E+00  9.86536E-01  1.91524E-01
    9007.544     12.087   2.320  1.19428E+00  9.90694E-01  2.03589E-01
    9008.257     12.800   2.360  1.20573E+00  9.94389E-01  2.11340E-01
    9008.983     13.525   2.400  1.21450E+00  9.97691E-01  2.16811E-01
    9009.720     14.263   2.440  1.21601E+00  1.00057E+00  2.15437E-01
    9010.470     15.013   2.480  1.19787E+00  1.00310E+00  1.94771E-01
    9011.232     15.775   2.520  1.15368E+00  1.00524E+00  1.48435E-01
    9012.006     16.549   2.560  1.09380E+00  1.00705E+00  8.67501E-02
    9012.792     17.335   2.600  1.03513E+00  1.00856E+00  2.65620E-02
    9013.591     18.134   2.640  9.87209E-01  1.00976E+00 -2.25549E-02
    9014.402     18.945   2.680  9.51162E-01  1.01068E+00 -5.95201E-02
    9015.225     19.767   2.720  9.28584E-01  1.01135E+00 -8.27658E-02
    9016.060     20.603   2.760  9.24447E-01  1.01178E+00 -8.73290E-02
    9016.907     21.450   2.800  9.39734E-01  1.01199E+00 -7.22589E-02
    9017.767     22.310   2.840  9.64342E-01  1.01201E+00 -4.76675E-02
    9018.639     23.181   2.880  9.80383E-01  1.01185E+00 -3.14717E-02
    9019.522     24.065   2.920  9.83682E-01  1.01154E+00 -2.78546E-02
    9020.419     24.961   2.960  9.79266E-01  1.01106E+00 -3.17982E-02
    9021.327     25.870   3.000  9.70001E-01  1.01046E+00 -4.04638E-02
    9022.247     26.790   3.040  9.58036E-01  1.00977E+00 -5.17323E-02
    9023.180     27.723   3.080  9.44921E-01  1.00896E+00 -6.40391E-02
    9024.125     28.668   3.120  9.31598E-01  1.00805E+00 -7.64471E-02
    9025.082     29.625   3.160  9.18617E-01  1.00707E+00 -8.84568E-02
    9026.051     30.594   3.200  9.06338E-01  1.00605E+00 -9.97150E-02
    9027.033     31.575   3.240  8.95134E-01  1.00499E+00 -1.09853E-01
    9028.026     32.569   3.280  8.85697E-01  1.00386E+00 -1.18165E-01
    9029.032     33.575   3.320  8.78422E-01  1.00274E+00 -1.24322E-01
    9030.050     34.593   3.360  8.73757E-01  1.00157E+00 -1.27818E-01
    9031.080     35.623   3.400  8.72391E-01  1.00042E+00 -1.28031E-01
    9032.123     36.666   3.440  8.74774E-01  9.99269E-01 -1.24495E-01
    9033.177     37.720   3.480  8.81225E-01  9.98119E-01 -1.16894E-01
    9034.244     38.787   3.520  8.91971E-01  9.96975E-01 -1.05004E-01
    9035.323     39.866   3.560  9.06867E-01  9.95859E-01 -8.89912E-02
    9036.414     40.957   3.600  9.25012E-01  9.94756E-01 -6.97443E-02
    9037.518     42.060   3.640  9.45330E-01  9.93711E-01 -4.83813E-02
    9038.633     43.176   3.680  9.66320E-01  9.92684E-01 -2.63641E-02
    9039.761     44.304   3.720  9.86407E-01  9.91718E-01 -5.31184E-03
    9040.901     45.444   3.760  1.00417E+00  9.90795E-01  1.33726E-02
    9042.053     46.596   3.800  1.01852E+00  9.89915E-01  2.86048E-02
    9043.218     47.760   3.840  1.02874E+00  9.89080E-01  3.96554E-02
    9044.394     48.937   3.880  1.03475E+00  9.88311E-01  4.64412E-02
    9045.583     50.125   3.920  1.03699E+00  9.87588E-01  4.94018E-02
    9046.784     51.326   3.960  1.03624E+00  9.86912E-01  4.93277E-02
    9047.997     52.539   4.000  1.03356E+00  9.86306E-01  4.72558E-02
    9049.222     53.765   4.040  1.03002E+00  9.85769E-01  4.42488E-02
    9050.460     55.002   4.080  1.02645E+00  9.85260E-01  4.11906E-02
    9051.709     56.252   4.120  1.02353E+00  9.84841E-01  3.86915E-02
    9052.971     57.514   4.160  1.02162E+00  9.84471E-01  3.71484E-02
    9054.245     58.788   4.200  1.02080E+00  9.84150E-01  3.66502E-02
    9055.531     60.074   4.240  1.02097E+00  9.83896E-01  3.70754E-02
    9056.830     61.373   4.280  1.02190E+00  9.83690E-01  3.82067E-02
    9058.140     62.683   4.320  1.02338E+00  9.83553E-01  3.98251E-02
    9059.463     64.006   4.360  1.02516E+00  9.83461E-01  4.16977E-02
    9060.798     65.341   4.400  1.02700E+00  9.83414E-01  4.35824E-02
    9062.146     66.688   4.440  1.02871E+00  9.83431E-01  4.52758E-02
    9063.505     68.048   4.480  1.03011E+00  9.83470E-01  4.66449E-02
    9064.877     69.419   4.520  1.03124E+00  9.83572E-01  4.76699E-02
    9066.260     70.803   4.560  1.03213E+00  9.83716E-01  4.84136E-02
    9067.656     72.199   4.600  1.03274E+00  9.83899E-01  4.88387E-02
    9069.064     73.607   4.640  1.03283E+00  9.84118E-01  4.87112E-02
    9070.485     75.028   4.680  1.03202E+00  9.84353E-01  4.76624E-02
    9071.917     76.460   4.720  1.02992E+00  9.84646E-01  4.52706E-02
    9073.362     77.905   4.760  1.02613E+00  9.84951E-01  4.11803E-02
    9074.819     79.362   4.800  1.02051E+00  9.85287E-01  3.52265E-02
    9076.288     80.831   4.840  1.01309E+00  9.85633E-01  2.74553E-02
    9077.769     82.312   4.880  1.00414E+00  9.86007E-01  1.81304E-02
    9079.263     83.806   4.920  9.94101E-01  9.86386E-01  7.71474E-03
    9080.769     85.311   4.960  9.83507E-01  9.86769E-01 -3.26192E-03
    9082.287     86.829   5.000  9.72907E-01  9.87155E-01 -1.42479E-02
    9083.817     88.359   5.040  9.62814E-01  9.87565E-01 -2.47507E-02
    9085.359     89.902   5.080  9.53643E-01  9.87976E-01 -3.43321E-02
    9086.913     91.456   5.120  9.45779E-01  9.88364E-01 -4.25853E-02
    9088.480     93.023   5.160  9.39602E-01  9.88768E-01 -4.91661E-02
    9090.059     94.602   5.200  9.35341E-01  9.89147E-01 -5.38058E-02
    9091.650     96.193   5.240  9.33093E-01  9.89518E-01 -5.64246E-02
    9093.253     97.796   5.280  9.32751E-01  9.89859E-01 -5.71082E-02
    9094.869     99.411   5.320  9.34078E-01  9.90194E-01 -5.61161E-02
    9096.496    101.039   5.360  9.36697E-01  9.90521E-01 -5.38243E-02
    9098.136    102.679   5.400  9.40135E-01  9.90816E-01 -5.06811E-02
    9099.788    104.331   5.440  9.44043E-01  9.91099E-01 -4.70569E-02
    9101.452    105.995   5.480  9.48210E-01  9.91349E-01 -4.31396E-02
    9103.129    107.671   5.520  9.52663E-01  9.91561E-01 -3.88975E-02
    9104.817    109.360   5.560  9.57512E-01  9.91736E-01 -3.42237E-02
    9106.518    111.061   5.600  9.62818E-01  9.91896E-01 -2.90778E-02
    9108.231    112.774   5.640  9.68387E-01  9.91996E-01 -2.36093E-02
    9109.956    114.499   5.680  9.73961E-01  9.92080E-01 -1.81196E-02
    9111.694    116.236   5.720  9.79158E-01  9.92128E-01 -1.29699E-02
    9113.443    117.986   5.760  9.83666E-01  9.92137E-01 -8.47112E-03
    9115.205    119.748   5.800  9.87247E-01  9.92106E-01 -4.85964E-03
    9116.979    121.522   5.840  9.89773E-01  9.92037E-01 -2.26401E-03
    9118.765    123.308   5.880  9.91249E-01  9.91930E-01 -6.80790E-04
    9120.563    125.106   5.920  9.91836E-01  9.91786E-01  4.99709E-05
    9122.374    126.916   5.960  9.91865E-01  9.91628E-01  2.36228E-04
    9124.196    128.739   6.000  9.91731E-01  9.91385E-01  3.46140E-04
