# # comment:                                                     FEFF 9.9.1  
# # Source:
# # Structure
# # Reduced
# # space
# # abc:
# # angles:107.580080
# # sites:
# # POT  SCF 100  7.0000   0, screened core-hole, AFOLP (folp(0)= 1.150)
# # Abs   Z=29 Rmt= 1.122 Rnm= 1.259 K  shell
# # Pot 1 Z=56 Rmt= 1.912 Rnm= 1.979
# # Pot 2 Z=38 Rmt= 1.793 Rnm= 1.859
# # Pot 3 Z=29 Rmt= 1.121 Rnm= 1.259
# # Pot 4 Z= 8 Rmt= 1.084 Rnm= 1.140
# # Gam_ch=1.729E+00 H-L exch Vi= 0.000E+00 Vr= 0.000E+00
# # Mu=-9.576E+00eV kf=1.993E+00 Vint=-1.652E+01eV Rs_int= 1.819
# FMS rfms= 9.0000
# # PATH  Rmax=-1.000,  Keep_limit= 0.00, Heap_limit 0.00  Pwcrit= 2.50%
#  S02=0.950  Temp=   0.00  Debye_temp=   0.00  Global_sig2= 0.00000
#  Energy zero shift, vr, vi    0.00000E+00   0.00000E+00
#  Curved wave amplitude ratio filter   4.000%
#     file         sig2 tot  cw amp ratio   deg  nlegs   reff  inp sig2
#     0/   0 paths used
#  xsedge+ 50, used to normalize mu           2.4475E-04
#  -----------------------------------------------------------------------
#  omega    e    k    mu    mu0     chi     @#
    8984.571    -13.386  -1.000  2.86816E-02  5.17262E-02 -2.30446E-02
    8984.870    -13.087  -0.960  2.98609E-02  5.53515E-02 -2.54905E-02
    8985.156    -12.801  -0.920  3.11154E-02  5.93655E-02 -2.82501E-02
    8985.431    -12.526  -0.880  3.24543E-02  6.38241E-02 -3.13698E-02
    8985.693    -12.264  -0.840  3.38886E-02  6.87918E-02 -3.49032E-02
    8985.943    -12.014  -0.800  3.54317E-02  7.43435E-02 -3.89118E-02
    8986.181    -11.776  -0.760  3.70989E-02  8.05646E-02 -4.34657E-02
    8986.406    -11.551  -0.720  3.89084E-02  8.75516E-02 -4.86432E-02
    8986.620    -11.337  -0.680  4.08803E-02  9.54102E-02 -5.45300E-02
    8986.821    -11.136  -0.640  4.30364E-02  1.04252E-01 -6.12156E-02
    8987.010    -10.947  -0.600  4.53979E-02  1.14186E-01 -6.87876E-02
    8987.186    -10.771  -0.560  4.79822E-02  1.25303E-01 -7.73210E-02
    8987.351    -10.606  -0.520  5.07971E-02  1.37659E-01 -8.68618E-02
    8987.503    -10.454  -0.480  5.38328E-02  1.51237E-01 -9.74045E-02
    8987.644    -10.313  -0.440  5.70535E-02  1.65920E-01 -1.08867E-01
    8987.772    -10.185  -0.400  6.03902E-02  1.81457E-01 -1.21067E-01
    8987.887    -10.070  -0.360  6.37411E-02  1.97453E-01 -1.33712E-01
    8987.991     -9.966  -0.320  6.69827E-02  2.13398E-01 -1.46416E-01
    8988.083     -9.874  -0.280  6.99903E-02  2.28724E-01 -1.58734E-01
    8988.162     -9.795  -0.240  7.26605E-02  2.42880E-01 -1.70220E-01
    8988.229     -9.728  -0.200  7.49267E-02  2.55404E-01 -1.80477E-01
    8988.284     -9.673  -0.160  7.67579E-02  2.65953E-01 -1.89195E-01
    8988.326     -9.631  -0.120  7.81471E-02  2.74302E-01 -1.96155E-01
    8988.357     -9.600  -0.080  7.91019E-02  2.80325E-01 -2.01223E-01
    8988.381     -9.576   0.000  7.98105E-02  2.85169E-01 -2.05359E-01
    8988.436     -9.521   0.120  8.19990E-02  2.96111E-01 -2.14112E-01
    8988.479     -9.478   0.160  8.35251E-02  3.04620E-01 -2.21094E-01
    8988.534     -9.423   0.200  8.54131E-02  3.15534E-01 -2.30121E-01
    8988.601     -9.356   0.240  8.75280E-02  3.28691E-01 -2.41163E-01
    8988.680     -9.277   0.280  8.97844E-02  3.43882E-01 -2.54098E-01
    8988.771     -9.186   0.320  9.20730E-02  3.60747E-01 -2.68674E-01
    8988.875     -9.082   0.360  9.43850E-02  3.78879E-01 -2.84494E-01
    8988.991     -8.966   0.400  9.67247E-02  3.97777E-01 -3.01052E-01
    8989.119     -8.838   0.440  9.92387E-02  4.17063E-01 -3.17824E-01
    8989.259     -8.698   0.480  1.02038E-01  4.36349E-01 -3.34311E-01
    8989.411     -8.546   0.520  1.05220E-01  4.55448E-01 -3.50228E-01
    8989.576     -8.381   0.560  1.08751E-01  4.74264E-01 -3.65513E-01
    8989.753     -8.204   0.600  1.12379E-01  4.92724E-01 -3.80345E-01
    8989.942     -8.015   0.640  1.15824E-01  5.10914E-01 -3.95089E-01
    8990.143     -7.814   0.680  1.18876E-01  5.28844E-01 -4.09968E-01
    8990.356     -7.601   0.720  1.21748E-01  5.46619E-01 -4.24871E-01
    8990.582     -7.375   0.760  1.24971E-01  5.64277E-01 -4.39306E-01
    8990.820     -7.137   0.800  1.29331E-01  5.81847E-01 -4.52516E-01
    8991.070     -6.887   0.840  1.35691E-01  5.99410E-01 -4.63719E-01
    8991.332     -6.625   0.880  1.44715E-01  6.16951E-01 -4.72236E-01
    8991.606     -6.351   0.920  1.56954E-01  6.34505E-01 -4.77551E-01
    8991.893     -6.064   0.960  1.72542E-01  6.52033E-01 -4.79492E-01
    8992.191     -5.766   1.000  1.90854E-01  6.69552E-01 -4.78699E-01
    8992.502     -5.455   1.040  2.10274E-01  6.87006E-01 -4.76732E-01
    8992.825     -5.132   1.080  2.29338E-01  7.04416E-01 -4.75078E-01
    8993.160     -4.797   1.120  2.48427E-01  7.21694E-01 -4.73267E-01
    8993.508     -4.449   1.160  2.70235E-01  7.38810E-01 -4.68575E-01
    8993.868     -4.089   1.200  2.97615E-01  7.55751E-01 -4.58137E-01
    8994.239     -3.718   1.240  3.30816E-01  7.72421E-01 -4.41605E-01
    8994.624     -3.333   1.280  3.67032E-01  7.88823E-01 -4.21791E-01
    8995.020     -2.937   1.320  4.02651E-01  8.04877E-01 -4.02226E-01
    8995.428     -2.529   1.360  4.36994E-01  8.20544E-01 -3.83550E-01
    8995.849     -2.108   1.400  4.70489E-01  8.35786E-01 -3.65297E-01
    8996.282     -1.675   1.440  5.01492E-01  8.50547E-01 -3.49055E-01
    8996.727     -1.230   1.480  5.28111E-01  8.64809E-01 -3.36698E-01
    8997.184     -0.773   1.520  5.51687E-01  8.78537E-01 -3.26850E-01
    8997.653     -0.304   1.560  5.81618E-01  8.91698E-01 -3.10080E-01
    8998.135      0.178   1.600  6.29161E-01  9.04240E-01 -2.75079E-01
    8998.629      0.672   1.640  6.96378E-01  9.16173E-01 -2.19796E-01
    8999.135      1.178   1.680  7.78813E-01  9.27472E-01 -1.48660E-01
    8999.653      1.696   1.720  8.65206E-01  9.38131E-01 -7.29256E-02
    9000.183      2.226   1.760  9.36086E-01  9.48127E-01 -1.20414E-02
    9000.726      2.769   1.800  9.93250E-01  9.57458E-01  3.57922E-02
    9001.280      3.323   1.840  1.05881E+00  9.66146E-01  9.26631E-02
    9001.847      3.890   1.880  1.13625E+00  9.74175E-01  1.62077E-01
    9002.426      4.469   1.920  1.19955E+00  9.81549E-01  2.17997E-01
    9003.018      5.061   1.960  1.23087E+00  9.88316E-01  2.42553E-01
    9003.621      5.664   2.000  1.23624E+00  9.94441E-01  2.41795E-01
    9004.237      6.280   2.040  1.22465E+00  9.99976E-01  2.24675E-01
    9004.865      6.908   2.080  1.20440E+00  1.00493E+00  1.99468E-01
    9005.505      7.548   2.120  1.18573E+00  1.00932E+00  1.76411E-01
    9006.157      8.200   2.160  1.17979E+00  1.01319E+00  1.66606E-01
    9006.822      8.865   2.200  1.19243E+00  1.01653E+00  1.75897E-01
    9007.498      9.541   2.240  1.22177E+00  1.01939E+00  2.02383E-01
    9008.187     10.230   2.280  1.26157E+00  1.02181E+00  2.39760E-01
    9008.888     10.931   2.320  1.30151E+00  1.02378E+00  2.77728E-01
    9009.601     11.644   2.360  1.33262E+00  1.02535E+00  3.07266E-01
    9010.327     12.370   2.400  1.34974E+00  1.02657E+00  3.23167E-01
    9011.064     13.107   2.440  1.34397E+00  1.02743E+00  3.16539E-01
    9011.814     13.857   2.480  1.32353E+00  1.02796E+00  2.95567E-01
    9012.576     14.619   2.520  1.29451E+00  1.02820E+00  2.66316E-01
    9013.350     15.393   2.560  1.25921E+00  1.02816E+00  2.31051E-01
    9014.137     16.180   2.600  1.21943E+00  1.02789E+00  1.91537E-01
    9014.935     16.978   2.640  1.17800E+00  1.02739E+00  1.50613E-01
    9015.746     17.789   2.680  1.13869E+00  1.02671E+00  1.11982E-01
    9016.569     18.612   2.720  1.10482E+00  1.02585E+00  7.89684E-02
    9017.404     19.447   2.760  1.07734E+00  1.02482E+00  5.25227E-02
    9018.252     20.295   2.800  1.05572E+00  1.02368E+00  3.20469E-02
    9019.111     21.154   2.840  1.03898E+00  1.02242E+00  1.65580E-02
    9019.983     22.026   2.880  1.02613E+00  1.02107E+00  5.06450E-03
    9020.867     22.910   2.920  1.01611E+00  1.01961E+00 -3.50657E-03
    9021.763     23.806   2.960  1.00781E+00  1.01813E+00 -1.03167E-02
    9022.671     24.714   3.000  9.99990E-01  1.01658E+00 -1.65852E-02
    9023.592     25.635   3.040  9.91293E-01  1.01498E+00 -2.36914E-02
    9024.524     26.567   3.080  9.80945E-01  1.01338E+00 -3.24372E-02
    9025.469     27.512   3.120  9.68858E-01  1.01178E+00 -4.29182E-02
    9026.426     28.469   3.160  9.55418E-01  1.01017E+00 -5.47533E-02
    9027.395     29.438   3.200  9.41216E-01  1.00857E+00 -6.73552E-02
    9028.377     30.420   3.240  9.27018E-01  1.00700E+00 -7.99858E-02
    9029.371     31.414   3.280  9.13156E-01  1.00547E+00 -9.23172E-02
    9030.376     32.419   3.320  8.99898E-01  1.00398E+00 -1.04083E-01
    9031.394     33.437   3.360  8.87713E-01  1.00253E+00 -1.14822E-01
    9032.425     34.468   3.400  8.77010E-01  1.00115E+00 -1.24144E-01
    9033.467     35.510   3.440  8.67998E-01  9.99821E-01 -1.31824E-01
    9034.522     36.565   3.480  8.60842E-01  9.98541E-01 -1.37698E-01
    9035.588     37.631   3.520  8.55799E-01  9.97335E-01 -1.41537E-01
    9036.667     38.710   3.560  8.52931E-01  9.96229E-01 -1.43298E-01
    9037.759     39.802   3.600  8.52353E-01  9.95179E-01 -1.42826E-01
    9038.862     40.905   3.640  8.54358E-01  9.94208E-01 -1.39850E-01
    9039.978     42.021   3.680  8.59230E-01  9.93319E-01 -1.34089E-01
    9041.105     43.148   3.720  8.66983E-01  9.92512E-01 -1.25528E-01
    9042.245     44.288   3.760  8.77519E-01  9.91786E-01 -1.14267E-01
    9043.397     45.440   3.800  8.90431E-01  9.91166E-01 -1.00735E-01
    9044.562     46.605   3.840  9.04885E-01  9.90608E-01 -8.57227E-02
    9045.738     47.781   3.880  9.19930E-01  9.90155E-01 -7.02252E-02
    9046.927     48.970   3.920  9.34714E-01  9.89786E-01 -5.50716E-02
    9048.128     50.171   3.960  9.48701E-01  9.89499E-01 -4.07976E-02
    9049.341     51.384   4.000  9.61769E-01  9.89294E-01 -2.75246E-02
    9050.566     52.609   4.040  9.74194E-01  9.89169E-01 -1.49752E-02
    9051.804     53.847   4.080  9.86329E-01  9.89126E-01 -2.79735E-03
    9053.053     55.096   4.120  9.98318E-01  9.89163E-01  9.15494E-03
    9054.315     56.358   4.160  1.00995E+00  9.89280E-01  2.06724E-02
    9055.589     57.632   4.200  1.02068E+00  9.89474E-01  3.12089E-02
    9056.876     58.919   4.240  1.02974E+00  9.89745E-01  3.99954E-02
    9058.174     60.217   4.280  1.03654E+00  9.90069E-01  4.64707E-02
    9059.485     61.528   4.320  1.04100E+00  9.90465E-01  5.05339E-02
    9060.808     62.851   4.360  1.04343E+00  9.90913E-01  5.25131E-02
    9062.143     64.186   4.400  1.04438E+00  9.91431E-01  5.29525E-02
    9063.490     65.533   4.440  1.04443E+00  9.92019E-01  5.24149E-02
    9064.849     66.892   4.480  1.04403E+00  9.92629E-01  5.14046E-02
    9066.221     68.264   4.520  1.04367E+00  9.93303E-01  5.03640E-02
    9067.605     69.648   4.560  1.04381E+00  9.94018E-01  4.97880E-02
    9069.001     71.044   4.600  1.04477E+00  9.94750E-01  5.00181E-02
    9070.409     72.452   4.640  1.04674E+00  9.95539E-01  5.11957E-02
    9071.829     73.872   4.680  1.04961E+00  9.96343E-01  5.32698E-02
    9073.262     75.305   4.720  1.05325E+00  9.97177E-01  5.60690E-02
    9074.706     76.749   4.760  1.05741E+00  9.98018E-01  5.93907E-02
    9076.163     78.206   4.800  1.06190E+00  9.98866E-01  6.30379E-02
    9077.632     79.675   4.840  1.06636E+00  9.99739E-01  6.66245E-02
    9079.114     81.157   4.880  1.07006E+00  1.00062E+00  6.94464E-02
    9080.607     82.650   4.920  1.07215E+00  1.00149E+00  7.06576E-02
    9082.113     84.156   4.960  1.07199E+00  1.00236E+00  6.96223E-02
    9083.631     85.674   5.000  1.06934E+00  1.00321E+00  6.61308E-02
    9085.161     87.204   5.040  1.06446E+00  1.00407E+00  6.03944E-02
    9086.703     88.746   5.080  1.05774E+00  1.00488E+00  5.28575E-02
    9088.258     90.301   5.120  1.04992E+00  1.00570E+00  4.42286E-02
    9089.824     91.867   5.160  1.04180E+00  1.00646E+00  3.53384E-02
    9091.403     93.446   5.200  1.03404E+00  1.00720E+00  2.68350E-02
    9092.994     95.037   5.240  1.02681E+00  1.00791E+00  1.88941E-02
    9094.598     96.641   5.280  1.01980E+00  1.00858E+00  1.12240E-02
    9096.213     98.256   5.320  1.01255E+00  1.00920E+00  3.34548E-03
    9097.841     99.884   5.360  1.00473E+00  1.00979E+00 -5.05943E-03
    9099.480    101.523   5.400  9.96459E-01  1.01030E+00 -1.38425E-02
    9101.132    103.175   5.440  9.88423E-01  1.01079E+00 -2.23713E-02
    9102.797    104.840   5.480  9.81388E-01  1.01122E+00 -2.98304E-02
    9104.473    106.516   5.520  9.76037E-01  1.01159E+00 -3.55559E-02
    9106.162    108.205   5.560  9.72646E-01  1.01190E+00 -3.92522E-02
    9107.862    109.905   5.600  9.71110E-01  1.01215E+00 -4.10446E-02
    9109.575    111.618   5.640  9.70821E-01  1.01236E+00 -4.15408E-02
    9111.300    113.343   5.680  9.70672E-01  1.01250E+00 -4.18242E-02
    9113.038    115.081   5.720  9.69547E-01  1.01256E+00 -4.30098E-02
    9114.787    116.830   5.760  9.66941E-01  1.01257E+00 -4.56253E-02
    9116.549    118.592   5.800  9.63266E-01  1.01250E+00 -4.92388E-02
    9118.323    120.366   5.840  9.59753E-01  1.01239E+00 -5.26405E-02
    9120.109    122.152   5.880  9.57636E-01  1.01221E+00 -5.45761E-02
    9121.907    123.950   5.920  9.57616E-01  1.01198E+00 -5.43671E-02
    9123.718    125.761   5.960  9.59703E-01  1.01170E+00 -5.19999E-02
    9125.541    127.584   6.000  9.63880E-01  1.01130E+00 -4.74240E-02
