# # comment:                                                     FEFF 9.9.1  
# # Source:
# # Structure
# # Reduced
# # space
# # abc:
# # angles:
# # sites:
# # POT  SCF 100  7.0000   0, screened core-hole, AFOLP (folp(0)= 1.150)
# # Abs   Z=29 Rmt= 1.263 Rnm= 1.337 K  shell
# # Pot 1 Z=49 Rmt= 1.497 Rnm= 1.578
# # Pot 2 Z=31 Rmt= 1.254 Rnm= 1.386
# # Pot 3 Z=29 Rmt= 1.263 Rnm= 1.337
# # Pot 4 Z= 8 Rmt= 1.048 Rnm= 1.116
# # Gam_ch=1.729E+00 H-L exch Vi= 0.000E+00 Vr= 0.000E+00
# # Mu=-6.747E+00eV kf=2.108E+00 Vint=-1.533E+01eV Rs_int= 1.721
# FMS rfms= 9.0000
# # PATH  Rmax=-1.000,  Keep_limit= 0.00, Heap_limit 0.00  Pwcrit= 2.50%
#  S02=0.950  Temp=   0.00  Debye_temp=   0.00  Global_sig2= 0.00000
#  Energy zero shift, vr, vi    0.00000E+00   0.00000E+00
#  Curved wave amplitude ratio filter   4.000%
#     file         sig2 tot  cw amp ratio   deg  nlegs   reff  inp sig2
#     0/   0 paths used
#  xsedge+ 50, used to normalize mu           2.4565E-04
#  -----------------------------------------------------------------------
#  omega    e    k    mu    mu0     chi     @#
    8983.537    -10.557  -1.000  3.26976E-02  5.13366E-02 -1.86391E-02
    8983.836    -10.258  -0.960  3.41373E-02  5.50145E-02 -2.08772E-02
    8984.122     -9.971  -0.920  3.56600E-02  5.90978E-02 -2.34378E-02
    8984.397     -9.697  -0.880  3.72725E-02  6.36459E-02 -2.63734E-02
    8984.659     -9.435  -0.840  3.89825E-02  6.87281E-02 -2.97456E-02
    8984.909     -9.185  -0.800  4.07981E-02  7.44244E-02 -3.36263E-02
    8985.147     -8.947  -0.760  4.27284E-02  8.08266E-02 -3.80982E-02
    8985.372     -8.722  -0.720  4.47832E-02  8.80386E-02 -4.32554E-02
    8985.585     -8.508  -0.680  4.69724E-02  9.61745E-02 -4.92021E-02
    8985.787     -8.307  -0.640  4.93056E-02  1.05355E-01 -5.60492E-02
    8985.976     -8.118  -0.600  5.17910E-02  1.15698E-01 -6.39069E-02
    8986.152     -7.941  -0.560  5.44335E-02  1.27304E-01 -7.28710E-02
    8986.317     -7.777  -0.520  5.72318E-02  1.40234E-01 -8.30025E-02
    8986.469     -7.624  -0.480  6.01752E-02  1.54474E-01 -9.42983E-02
    8986.610     -7.484  -0.440  6.32391E-02  1.69897E-01 -1.06658E-01
    8986.738     -7.356  -0.400  6.63818E-02  1.86238E-01 -1.19856E-01
    8986.853     -7.240  -0.360  6.95434E-02  2.03075E-01 -1.33531E-01
    8986.957     -7.137  -0.320  7.26484E-02  2.19862E-01 -1.47214E-01
    8987.049     -7.045  -0.280  7.56128E-02  2.35993E-01 -1.60380E-01
    8987.128     -6.966  -0.240  7.83535E-02  2.50883E-01 -1.72529E-01
    8987.195     -6.899  -0.200  8.07953E-02  2.64044E-01 -1.83249E-01
    8987.250     -6.844  -0.160  8.28753E-02  2.75116E-01 -1.92241E-01
    8987.292     -6.801  -0.120  8.45435E-02  2.83871E-01 -1.99327E-01
    8987.323     -6.771  -0.080  8.57627E-02  2.90178E-01 -2.04416E-01
    8987.347     -6.747   0.000  8.67654E-02  2.95247E-01 -2.08481E-01
    8987.402     -6.692   0.120  8.92300E-02  3.06679E-01 -2.17449E-01
    8987.445     -6.649   0.160  9.10823E-02  3.15557E-01 -2.24475E-01
    8987.500     -6.594   0.200  9.34984E-02  3.26917E-01 -2.33418E-01
    8987.567     -6.527   0.240  9.64349E-02  3.40565E-01 -2.44131E-01
    8987.646     -6.448   0.280  9.99709E-02  3.56277E-01 -2.56306E-01
    8987.737     -6.356   0.320  1.04057E-01  3.73619E-01 -2.69562E-01
    8987.841     -6.253   0.360  1.08743E-01  3.92103E-01 -2.83360E-01
    8987.957     -6.137   0.400  1.14086E-01  4.11231E-01 -2.97145E-01
    8988.085     -6.009   0.440  1.20143E-01  4.30488E-01 -3.10345E-01
    8988.225     -5.869   0.480  1.27028E-01  4.49526E-01 -3.22499E-01
    8988.377     -5.716   0.520  1.34789E-01  4.68073E-01 -3.33285E-01
    8988.542     -5.552   0.560  1.43508E-01  4.86041E-01 -3.42533E-01
    8988.719     -5.375   0.600  1.53241E-01  5.03379E-01 -3.50138E-01
    8988.908     -5.186   0.640  1.64116E-01  5.20160E-01 -3.56044E-01
    8989.109     -4.985   0.680  1.76420E-01  5.36429E-01 -3.60010E-01
    8989.322     -4.771   0.720  1.90690E-01  5.52305E-01 -3.61615E-01
    8989.548     -4.546   0.760  2.07316E-01  5.67823E-01 -3.60507E-01
    8989.786     -4.308   0.800  2.26006E-01  5.83070E-01 -3.57064E-01
    8990.036     -4.058   0.840  2.45335E-01  5.98123E-01 -3.52789E-01
    8990.298     -3.796   0.880  2.62898E-01  6.13027E-01 -3.50129E-01
    8990.572     -3.522   0.920  2.76122E-01  6.27788E-01 -3.51666E-01
    8990.858     -3.235   0.960  2.83559E-01  6.42428E-01 -3.58869E-01
    8991.157     -2.937   1.000  2.85916E-01  6.56999E-01 -3.71083E-01
    8991.468     -2.626   1.040  2.85912E-01  6.71438E-01 -3.85526E-01
    8991.791     -2.303   1.080  2.87036E-01  6.85801E-01 -3.98765E-01
    8992.126     -1.967   1.120  2.91674E-01  7.00037E-01 -4.08363E-01
    8992.474     -1.620   1.160  3.01517E-01  7.14130E-01 -4.12613E-01
    8992.834     -1.260   1.200  3.18731E-01  7.28079E-01 -4.09348E-01
    8993.205     -0.888   1.240  3.45925E-01  7.41842E-01 -3.95917E-01
    8993.589     -0.504   1.280  3.84880E-01  7.55414E-01 -3.70534E-01
    8993.986     -0.108   1.320  4.36120E-01  7.68747E-01 -3.32627E-01
    8994.394      0.300   1.360  5.01012E-01  7.81833E-01 -2.80821E-01
    8994.815      0.721   1.400  5.81616E-01  7.94645E-01 -2.13029E-01
    8995.248      1.154   1.440  6.75151E-01  8.07134E-01 -1.31983E-01
    8995.693      1.599   1.480  7.73252E-01  8.19290E-01 -4.60378E-02
    8996.150      2.056   1.520  8.77083E-01  8.31103E-01  4.59794E-02
    8996.619      2.525   1.560  1.00804E+00  8.42548E-01  1.65487E-01
    8997.101      3.007   1.600  1.18927E+00  8.53597E-01  3.35676E-01
    8997.595      3.501   1.640  1.39851E+00  8.64222E-01  5.34285E-01
    8998.101      4.007   1.680  1.54308E+00  8.74439E-01  6.68638E-01
    8998.619      4.525   1.720  1.55743E+00  8.84223E-01  6.73203E-01
    8999.149      5.055   1.760  1.47868E+00  8.93550E-01  5.85130E-01
    8999.692      5.598   1.800  1.35820E+00  9.02440E-01  4.55762E-01
    9000.246      6.153   1.840  1.21958E+00  9.10870E-01  3.08712E-01
    9000.813      6.719   1.880  1.09608E+00  9.18860E-01  1.77225E-01
    9001.392      7.299   1.920  1.01370E+00  9.26373E-01  8.73299E-02
    9001.984      7.890   1.960  9.72933E-01  9.33450E-01  3.94833E-02
    9002.587      8.493   2.000  9.65435E-01  9.40073E-01  2.53622E-02
    9003.203      9.109   2.040  9.86315E-01  9.46268E-01  4.00470E-02
    9003.831      9.737   2.080  1.03153E+00  9.52019E-01  7.95106E-02
    9004.471     10.377   2.120  1.09614E+00  9.57352E-01  1.38787E-01
    9005.123     11.029   2.160  1.17539E+00  9.62293E-01  2.13100E-01
    9005.788     11.694   2.200  1.25808E+00  9.66828E-01  2.91252E-01
    9006.464     12.370   2.240  1.31260E+00  9.70966E-01  3.41634E-01
    9007.153     13.059   2.280  1.29753E+00  9.74755E-01  3.22775E-01
    9007.854     13.760   2.320  1.22508E+00  9.78202E-01  2.46874E-01
    9008.567     14.474   2.360  1.14931E+00  9.81296E-01  1.68014E-01
    9009.293     15.199   2.400  1.10297E+00  9.84086E-01  1.18888E-01
    9010.030     15.937   2.440  1.09587E+00  9.86560E-01  1.09309E-01
    9010.780     16.686   2.480  1.11604E+00  9.88767E-01  1.27268E-01
    9011.542     17.448   2.520  1.12248E+00  9.90696E-01  1.31783E-01
    9012.316     18.223   2.560  1.09213E+00  9.92376E-01  9.97573E-02
    9013.103     19.009   2.600  1.04577E+00  9.93838E-01  5.19305E-02
    9013.901     19.808   2.640  9.99694E-01  9.95066E-01  4.62879E-03
    9014.712     20.618   2.680  9.58261E-01  9.96110E-01 -3.78491E-02
    9015.535     21.441   2.720  9.21727E-01  9.96958E-01 -7.52316E-02
    9016.370     22.276   2.760  8.90174E-01  9.97639E-01 -1.07465E-01
    9017.217     23.124   2.800  8.64607E-01  9.98159E-01 -1.33552E-01
    9018.077     23.983   2.840  8.45820E-01  9.98547E-01 -1.52727E-01
    9018.949     24.855   2.880  8.32761E-01  9.98810E-01 -1.66049E-01
    9019.833     25.739   2.920  8.23847E-01  9.98954E-01 -1.75107E-01
    9020.729     26.635   2.960  8.17985E-01  9.99008E-01 -1.81023E-01
    9021.637     27.543   3.000  8.14450E-01  9.98976E-01 -1.84526E-01
    9022.558     28.464   3.040  8.13095E-01  9.98864E-01 -1.85769E-01
    9023.490     29.397   3.080  8.14348E-01  9.98700E-01 -1.84352E-01
    9024.435     30.341   3.120  8.18368E-01  9.98467E-01 -1.80099E-01
    9025.392     31.298   3.160  8.25608E-01  9.98210E-01 -1.72602E-01
    9026.361     32.268   3.200  8.36425E-01  9.97893E-01 -1.61468E-01
    9027.343     33.249   3.240  8.50786E-01  9.97560E-01 -1.46774E-01
    9028.337     34.243   3.280  8.67921E-01  9.97197E-01 -1.29276E-01
    9029.342     35.249   3.320  8.86768E-01  9.96848E-01 -1.10080E-01
    9030.360     36.267   3.360  9.06211E-01  9.96474E-01 -9.02632E-02
    9031.391     37.297   3.400  9.25330E-01  9.96099E-01 -7.07690E-02
    9032.433     38.339   3.440  9.43559E-01  9.95724E-01 -5.21650E-02
    9033.488     39.394   3.480  9.60453E-01  9.95376E-01 -3.49225E-02
    9034.554     40.461   3.520  9.75301E-01  9.95036E-01 -1.97351E-02
    9035.633     41.540   3.560  9.87357E-01  9.94725E-01 -7.36781E-03
    9036.725     42.631   3.600  9.96259E-01  9.94424E-01  1.83572E-03
    9037.828     43.734   3.640  1.00242E+00  9.94155E-01  8.26628E-03
    9038.944     44.850   3.680  1.00668E+00  9.93921E-01  1.27573E-02
    9040.071     45.978   3.720  1.00977E+00  9.93701E-01  1.60655E-02
    9041.211     47.118   3.760  1.01239E+00  9.93539E-01  1.88463E-02
    9042.363     48.270   3.800  1.01530E+00  9.93392E-01  2.19035E-02
    9043.528     49.434   3.840  1.01961E+00  9.93281E-01  2.63257E-02
    9044.704     50.611   3.880  1.02614E+00  9.93208E-01  3.29286E-02
    9045.893     51.799   3.920  1.03490E+00  9.93175E-01  4.17233E-02
    9047.094     53.000   3.960  1.04507E+00  9.93179E-01  5.18901E-02
    9048.307     54.213   4.000  1.05545E+00  9.93222E-01  6.22294E-02
    9049.532     55.439   4.040  1.06511E+00  9.93303E-01  7.18099E-02
    9050.770     56.676   4.080  1.07375E+00  9.93421E-01  8.03242E-02
    9052.019     57.926   4.120  1.08147E+00  9.93555E-01  8.79148E-02
    9053.281     59.188   4.160  1.08846E+00  9.93747E-01  9.47083E-02
    9054.555     60.462   4.200  1.09428E+00  9.93953E-01  1.00329E-01
    9055.842     61.748   4.240  1.09802E+00  9.94194E-01  1.03824E-01
    9057.140     63.046   4.280  1.09853E+00  9.94470E-01  1.04064E-01
    9058.451     64.357   4.320  1.09505E+00  9.94758E-01  1.00294E-01
    9059.773     65.680   4.360  1.08768E+00  9.95100E-01  9.25773E-02
    9061.109     67.015   4.400  1.07729E+00  9.95432E-01  8.18558E-02
    9062.456     68.362   4.440  1.06540E+00  9.95814E-01  6.95858E-02
    9063.815     69.721   4.480  1.05321E+00  9.96182E-01  5.70271E-02
    9065.187     71.093   4.520  1.04147E+00  9.96579E-01  4.48922E-02
    9066.571     72.477   4.560  1.03027E+00  9.97005E-01  3.32633E-02
    9067.966     73.873   4.600  1.01925E+00  9.97432E-01  2.18200E-02
    9069.375     75.281   4.640  1.00813E+00  9.97839E-01  1.02939E-02
    9070.795     76.701   4.680  9.96997E-01  9.98270E-01 -1.27381E-03
    9072.228     78.134   4.720  9.86099E-01  9.98705E-01 -1.26061E-02
    9073.672     79.579   4.760  9.75818E-01  9.99160E-01 -2.33419E-02
    9075.129     81.036   4.800  9.66422E-01  9.99591E-01 -3.31687E-02
    9076.598     82.505   4.840  9.58181E-01  1.00002E+00 -4.18366E-02
    9078.080     83.986   4.880  9.51416E-01  1.00042E+00 -4.90016E-02
    9079.573     85.479   4.920  9.46559E-01  1.00083E+00 -5.42736E-02
    9081.079     86.985   4.960  9.43945E-01  1.00122E+00 -5.72768E-02
    9082.597     88.503   5.000  9.43724E-01  1.00160E+00 -5.78773E-02
    9084.127     90.033   5.040  9.45585E-01  1.00195E+00 -5.63656E-02
    9085.669     91.575   5.080  9.48952E-01  1.00229E+00 -5.33409E-02
    9087.224     93.130   5.120  9.53313E-01  1.00262E+00 -4.93090E-02
    9088.790     94.697   5.160  9.58584E-01  1.00290E+00 -4.43128E-02
    9090.369     96.275   5.200  9.65202E-01  1.00318E+00 -3.79775E-02
    9091.960     97.866   5.240  9.73305E-01  1.00341E+00 -3.01027E-02
    9093.563     99.470   5.280  9.82517E-01  1.00362E+00 -2.11041E-02
    9095.179    101.085   5.320  9.91794E-01  1.00380E+00 -1.20042E-02
    9096.807    102.713   5.360  9.99997E-01  1.00396E+00 -3.96391E-03
    9098.446    104.353   5.400  1.00618E+00  1.00406E+00  2.11298E-03
    9100.098    106.005   5.440  1.00978E+00  1.00415E+00  5.63043E-03
    9101.763    107.669   5.480  1.01028E+00  1.00420E+00  6.07341E-03
    9103.439    109.345   5.520  1.00725E+00  1.00421E+00  3.04041E-03
    9105.128    111.034   5.560  1.00089E+00  1.00419E+00 -3.29763E-03
    9106.828    112.735   5.600  9.92162E-01  1.00415E+00 -1.19830E-02
    9108.541    114.448   5.640  9.82318E-01  1.00404E+00 -2.17250E-02
    9110.266    116.173   5.680  9.72471E-01  1.00392E+00 -3.14538E-02
    9112.004    117.910   5.720  9.63316E-01  1.00377E+00 -4.04540E-02
    9113.753    119.660   5.760  9.55507E-01  1.00358E+00 -4.80705E-02
    9115.515    121.421   5.800  9.49832E-01  1.00335E+00 -5.35147E-02
    9117.289    123.195   5.840  9.47079E-01  1.00308E+00 -5.60014E-02
    9119.075    124.981   5.880  9.47700E-01  1.00280E+00 -5.51045E-02
    9120.873    126.780   5.920  9.51566E-01  1.00250E+00 -5.09322E-02
    9122.684    128.590   5.960  9.58310E-01  1.00216E+00 -4.38494E-02
    9124.507    130.413   6.000  9.68211E-01  1.00176E+00 -3.35534E-02
