# # comment:                                                     FEFF 9.9.1  
# # Source:
# # Structure
# # Reduced
# # space
# # abc:
# # angles:
# # sites:
# # POT  SCF 100  7.0000   0, screened core-hole, AFOLP (folp(0)= 1.150)
# # Abs   Z=29 Rmt= 1.281 Rnm= 1.349 K  shell
# # Pot 1 Z= 3 Rmt= 1.305 Rnm= 1.361
# # Pot 2 Z=29 Rmt= 1.298 Rnm= 1.364
# # Pot 3 Z=51 Rmt= 1.320 Rnm= 1.454
# # Pot 4 Z= 8 Rmt= 1.042 Rnm= 1.099
# # Gam_ch=1.729E+00 H-L exch Vi= 0.000E+00 Vr= 0.000E+00
# # Mu=-6.710E+00eV kf=2.105E+00 Vint=-1.587E+01eV Rs_int= 1.723
# FMS rfms= 9.0000
# # PATH  Rmax=-1.000,  Keep_limit= 0.00, Heap_limit 0.00  Pwcrit= 2.50%
#  S02=0.950  Temp=   0.00  Debye_temp=   0.00  Global_sig2= 0.00000
#  Energy zero shift, vr, vi    0.00000E+00   0.00000E+00
#  Curved wave amplitude ratio filter   4.000%
#     file         sig2 tot  cw amp ratio   deg  nlegs   reff  inp sig2
#     0/   0 paths used
#  xsedge+ 50, used to normalize mu           2.4507E-04
#  -----------------------------------------------------------------------
#  omega    e    k    mu    mu0     chi     @#
    8983.823    -10.520  -1.000  4.19739E-02  5.61935E-02 -1.42196E-02
    8984.122    -10.222  -0.960  4.41727E-02  6.03506E-02 -1.61779E-02
    8984.408     -9.935  -0.920  4.65184E-02  6.49761E-02 -1.84577E-02
    8984.682     -9.661  -0.880  4.90221E-02  7.01396E-02 -2.11175E-02
    8984.945     -9.399  -0.840  5.16951E-02  7.59219E-02 -2.42269E-02
    8985.195     -9.149  -0.800  5.45492E-02  8.24169E-02 -2.78677E-02
    8985.432     -8.911  -0.760  5.75964E-02  8.97322E-02 -3.21358E-02
    8985.658     -8.686  -0.720  6.08483E-02  9.79897E-02 -3.71414E-02
    8985.871     -8.472  -0.680  6.43154E-02  1.07323E-01 -4.30080E-02
    8986.072     -8.271  -0.640  6.80062E-02  1.17875E-01 -4.98688E-02
    8986.261     -8.082  -0.600  7.19256E-02  1.29784E-01 -5.78582E-02
    8986.438     -7.905  -0.560  7.60728E-02  1.43169E-01 -6.70962E-02
    8986.603     -7.741  -0.520  8.04380E-02  1.58102E-01 -7.76636E-02
    8986.755     -7.588  -0.480  8.49990E-02  1.74567E-01 -8.95678E-02
    8986.895     -7.448  -0.440  8.97166E-02  1.92420E-01 -1.02703E-01
    8987.023     -7.320  -0.400  9.45317E-02  2.11348E-01 -1.16817E-01
    8987.139     -7.204  -0.360  9.93634E-02  2.30862E-01 -1.31499E-01
    8987.243     -7.101  -0.320  1.04112E-01  2.50323E-01 -1.46211E-01
    8987.334     -7.009  -0.280  1.08664E-01  2.69022E-01 -1.60358E-01
    8987.413     -6.930  -0.240  1.12903E-01  2.86281E-01 -1.73378E-01
    8987.481     -6.863  -0.200  1.16714E-01  3.01529E-01 -1.84815E-01
    8987.535     -6.808  -0.160  1.19994E-01  3.14353E-01 -1.94359E-01
    8987.578     -6.765  -0.120  1.22653E-01  3.24486E-01 -2.01834E-01
    8987.609     -6.735  -0.080  1.24617E-01  3.31785E-01 -2.07168E-01
    8987.633     -6.710   0.000  1.26250E-01  3.37646E-01 -2.11396E-01
    8987.688     -6.656   0.120  1.30074E-01  3.50863E-01 -2.20788E-01
    8987.730     -6.613   0.160  1.33079E-01  3.61131E-01 -2.28051E-01
    8987.785     -6.558   0.200  1.37010E-01  3.74223E-01 -2.37213E-01
    8987.852     -6.491   0.240  1.42007E-01  3.89977E-01 -2.47970E-01
    8987.932     -6.412   0.280  1.48160E-01  4.08047E-01 -2.59888E-01
    8988.023     -6.320   0.320  1.55640E-01  4.27944E-01 -2.72304E-01
    8988.127     -6.217   0.360  1.64680E-01  4.49105E-01 -2.84425E-01
    8988.243     -6.101   0.400  1.75572E-01  4.70887E-01 -2.95316E-01
    8988.371     -5.973   0.440  1.88709E-01  4.92706E-01 -3.03997E-01
    8988.511     -5.833   0.480  2.04611E-01  5.14121E-01 -3.09510E-01
    8988.663     -5.680   0.520  2.23862E-01  5.34835E-01 -3.10973E-01
    8988.828     -5.516   0.560  2.47134E-01  5.54716E-01 -3.07583E-01
    8989.005     -5.339   0.600  2.74814E-01  5.73731E-01 -2.98916E-01
    8989.194     -5.150   0.640  3.06634E-01  5.91919E-01 -2.85284E-01
    8989.395     -4.949   0.680  3.41150E-01  6.09382E-01 -2.68232E-01
    8989.608     -4.735   0.720  3.75944E-01  6.26193E-01 -2.50249E-01
    8989.834     -4.510   0.760  4.09024E-01  6.42449E-01 -2.33425E-01
    8990.071     -4.272   0.800  4.39765E-01  6.58252E-01 -2.18487E-01
    8990.321     -4.022   0.840  4.68307E-01  6.73652E-01 -2.05345E-01
    8990.583     -3.760   0.880  4.94833E-01  6.88725E-01 -1.93892E-01
    8990.858     -3.486   0.920  5.19774E-01  7.03513E-01 -1.83738E-01
    8991.144     -3.199   0.960  5.43746E-01  7.18023E-01 -1.74277E-01
    8991.443     -2.900   1.000  5.66918E-01  7.32274E-01 -1.65356E-01
    8991.754     -2.590   1.040  5.89828E-01  7.46273E-01 -1.56445E-01
    8992.077     -2.267   1.080  6.12707E-01  7.60020E-01 -1.47312E-01
    8992.412     -1.931   1.120  6.31353E-01  7.73508E-01 -1.42155E-01
    8992.760     -1.584   1.160  6.40059E-01  7.86749E-01 -1.46690E-01
    8993.119     -1.224   1.200  6.42750E-01  7.99683E-01 -1.56933E-01
    8993.491     -0.852   1.240  6.51668E-01  8.12314E-01 -1.60646E-01
    8993.875     -0.468   1.280  6.73076E-01  8.24619E-01 -1.51543E-01
    8994.271     -0.072   1.320  7.06790E-01  8.36576E-01 -1.29786E-01
    8994.680      0.336   1.360  7.52595E-01  8.48162E-01 -9.55672E-02
    8995.101      0.757   1.400  8.08902E-01  8.59375E-01 -5.04728E-02
    8995.533      1.190   1.440  8.73394E-01  8.70188E-01  3.20561E-03
    8995.978      1.635   1.480  9.42342E-01  8.80577E-01  6.17643E-02
    8996.436      2.092   1.520  1.00995E+00  8.90541E-01  1.19407E-01
    8996.905      2.561   1.560  1.07914E+00  9.00055E-01  1.79081E-01
    8997.386      3.043   1.600  1.17686E+00  9.09116E-01  2.67741E-01
    8997.880      3.537   1.640  1.32972E+00  9.17725E-01  4.11991E-01
    8998.386      4.043   1.680  1.50869E+00  9.25860E-01  5.82826E-01
    8998.904      4.561   1.720  1.62582E+00  9.33523E-01  6.92297E-01
    8999.435      5.091   1.760  1.63755E+00  9.40735E-01  6.96815E-01
    8999.977      5.634   1.800  1.56395E+00  9.47480E-01  6.16470E-01
    9000.532      6.189   1.840  1.45334E+00  9.53760E-01  4.99575E-01
    9001.099      6.756   1.880  1.35028E+00  9.59603E-01  3.90675E-01
    9001.678      7.335   1.920  1.27229E+00  9.65012E-01  3.07281E-01
    9002.269      7.926   1.960  1.20991E+00  9.69974E-01  2.39932E-01
    9002.873      8.529   2.000  1.14180E+00  9.74515E-01  1.67289E-01
    9003.489      9.145   2.040  1.06193E+00  9.78664E-01  8.32618E-02
    9004.116      9.773   2.080  9.83426E-01  9.82430E-01  9.96334E-04
    9004.757     10.413   2.120  9.20858E-01  9.85820E-01 -6.49625E-02
    9005.409     11.065   2.160  8.80171E-01  9.88844E-01 -1.08673E-01
    9006.073     11.730   2.200  8.59048E-01  9.91531E-01 -1.32483E-01
    9006.750     12.406   2.240  8.52456E-01  9.93910E-01 -1.41455E-01
    9007.439     13.095   2.280  8.57809E-01  9.95992E-01 -1.38183E-01
    9008.140     13.796   2.320  8.75913E-01  9.97765E-01 -1.21852E-01
    9008.853     14.510   2.360  9.10478E-01  9.99300E-01 -8.88222E-02
    9009.578     15.235   2.400  9.62930E-01  1.00056E+00 -3.76337E-02
    9010.316     15.973   2.440  1.02462E+00  1.00161E+00  2.30062E-02
    9011.066     16.722   2.480  1.07875E+00  1.00245E+00  7.62991E-02
    9011.828     17.484   2.520  1.11395E+00  1.00310E+00  1.10850E-01
    9012.602     18.259   2.560  1.12776E+00  1.00357E+00  1.24189E-01
    9013.388     19.045   2.600  1.12384E+00  1.00387E+00  1.19976E-01
    9014.187     19.844   2.640  1.10557E+00  1.00405E+00  1.01515E-01
    9014.998     20.654   2.680  1.07577E+00  1.00409E+00  7.16821E-02
    9015.821     21.477   2.720  1.03938E+00  1.00400E+00  3.53778E-02
    9016.656     22.312   2.760  1.00155E+00  1.00383E+00 -2.27694E-03
    9017.503     23.160   2.800  9.65438E-01  1.00357E+00 -3.81293E-02
    9018.363     24.019   2.840  9.33165E-01  1.00323E+00 -7.00615E-02
    9019.234     24.891   2.880  9.06607E-01  1.00283E+00 -9.62255E-02
    9020.118     25.775   2.920  8.86548E-01  1.00239E+00 -1.15844E-01
    9021.014     26.671   2.960  8.72745E-01  1.00189E+00 -1.29144E-01
    9021.923     27.579   3.000  8.64253E-01  1.00139E+00 -1.37138E-01
    9022.843     28.500   3.040  8.59678E-01  1.00084E+00 -1.41161E-01
    9023.776     29.433   3.080  8.57927E-01  1.00030E+00 -1.42372E-01
    9024.721     30.377   3.120  8.58777E-01  9.99736E-01 -1.40959E-01
    9025.678     31.334   3.160  8.61999E-01  9.99172E-01 -1.37173E-01
    9026.647     32.304   3.200  8.67670E-01  9.98632E-01 -1.30962E-01
    9027.629     33.285   3.240  8.75656E-01  9.98101E-01 -1.22445E-01
    9028.622     34.279   3.280  8.85477E-01  9.97600E-01 -1.12123E-01
    9029.628     35.285   3.320  8.96535E-01  9.97131E-01 -1.00595E-01
    9030.646     36.303   3.360  9.08526E-01  9.96674E-01 -8.81481E-02
    9031.676     37.333   3.400  9.21548E-01  9.96253E-01 -7.47059E-02
    9032.719     38.375   3.440  9.35401E-01  9.95871E-01 -6.04699E-02
    9033.773     39.430   3.480  9.49930E-01  9.95528E-01 -4.55973E-02
    9034.840     40.497   3.520  9.64880E-01  9.95225E-01 -3.03451E-02
    9035.919     41.576   3.560  9.79943E-01  9.94985E-01 -1.50425E-02
    9037.010     42.667   3.600  9.94713E-01  9.94767E-01 -5.40085E-05
    9038.114     43.770   3.640  1.00889E+00  9.94611E-01  1.42805E-02
    9039.229     44.886   3.680  1.02218E+00  9.94475E-01  2.77038E-02
    9040.357     46.014   3.720  1.03447E+00  9.94403E-01  4.00620E-02
    9041.497     47.154   3.760  1.04551E+00  9.94376E-01  5.11288E-02
    9042.649     48.306   3.800  1.05478E+00  9.94414E-01  6.03668E-02
    9043.813     49.470   3.840  1.06147E+00  9.94472E-01  6.69947E-02
    9044.990     50.647   3.880  1.06520E+00  9.94593E-01  7.06059E-02
    9046.179     51.835   3.920  1.06600E+00  9.94733E-01  7.12658E-02
    9047.380     53.036   3.960  1.06441E+00  9.94936E-01  6.94734E-02
    9048.593     54.249   4.000  1.06124E+00  9.95180E-01  6.60616E-02
    9049.818     55.475   4.040  1.05751E+00  9.95463E-01  6.20519E-02
    9051.055     56.712   4.080  1.05411E+00  9.95760E-01  5.83456E-02
    9052.305     57.962   4.120  1.05149E+00  9.96117E-01  5.53779E-02
    9053.567     59.224   4.160  1.04957E+00  9.96490E-01  5.30787E-02
    9054.841     60.498   4.200  1.04779E+00  9.96918E-01  5.08754E-02
    9056.127     61.784   4.240  1.04548E+00  9.97337E-01  4.81445E-02
    9057.426     63.082   4.280  1.04247E+00  9.97807E-01  4.46680E-02
    9058.736     64.393   4.320  1.03902E+00  9.98264E-01  4.07587E-02
    9060.059     65.716   4.360  1.03583E+00  9.98772E-01  3.70565E-02
    9061.394     67.051   4.400  1.03350E+00  9.99264E-01  3.42333E-02
    9062.741     68.398   4.440  1.03255E+00  9.99784E-01  3.27695E-02
    9064.101     69.757   4.480  1.03315E+00  1.00033E+00  3.28239E-02
    9065.472     71.129   4.520  1.03514E+00  1.00085E+00  3.42855E-02
    9066.856     72.513   4.560  1.03810E+00  1.00138E+00  3.67204E-02
    9068.252     73.909   4.600  1.04123E+00  1.00192E+00  3.93068E-02
    9069.660     75.317   4.640  1.04341E+00  1.00244E+00  4.09708E-02
    9071.081     76.737   4.680  1.04368E+00  1.00296E+00  4.07250E-02
    9072.513     78.170   4.720  1.04138E+00  1.00346E+00  3.79141E-02
    9073.958     79.615   4.760  1.03618E+00  1.00394E+00  3.22311E-02
    9075.415     81.072   4.800  1.02802E+00  1.00442E+00  2.36015E-02
    9076.884     82.541   4.840  1.01709E+00  1.00488E+00  1.22075E-02
    9078.365     84.022   4.880  1.00393E+00  1.00531E+00 -1.38051E-03
    9079.859     85.516   4.920  9.89432E-01  1.00573E+00 -1.62975E-02
    9081.365     87.021   4.960  9.74493E-01  1.00611E+00 -3.16211E-02
    9082.883     88.539   5.000  9.60016E-01  1.00646E+00 -4.64458E-02
    9084.413     90.069   5.040  9.46967E-01  1.00677E+00 -5.98040E-02
    9085.955     91.611   5.080  9.36398E-01  1.00707E+00 -7.06691E-02
    9087.509     93.166   5.120  9.29146E-01  1.00733E+00 -7.81804E-02
    9089.076     94.733   5.160  9.25581E-01  1.00755E+00 -8.19669E-02
    9090.655     96.311   5.200  9.25545E-01  1.00775E+00 -8.22073E-02
    9092.246     97.903   5.240  9.28295E-01  1.00789E+00 -7.95994E-02
    9093.849     99.506   5.280  9.32888E-01  1.00800E+00 -7.51075E-02
    9095.465    101.121   5.320  9.38284E-01  1.00808E+00 -6.97936E-02
    9097.092    102.749   5.360  9.43492E-01  1.00810E+00 -6.46059E-02
    9098.732    104.389   5.400  9.48009E-01  1.00810E+00 -6.00897E-02
    9100.384    106.041   5.440  9.51960E-01  1.00804E+00 -5.60769E-02
    9102.048    107.705   5.480  9.56296E-01  1.00796E+00 -5.16635E-02
    9103.725    109.381   5.520  9.62248E-01  1.00784E+00 -4.55923E-02
    9105.413    111.070   5.560  9.70786E-01  1.00766E+00 -3.68723E-02
    9107.114    112.771   5.600  9.82261E-01  1.00746E+00 -2.51987E-02
    9108.827    114.484   5.640  9.96099E-01  1.00722E+00 -1.11241E-02
    9110.552    116.209   5.680  1.01099E+00  1.00695E+00  4.04712E-03
    9112.290    117.946   5.720  1.02525E+00  1.00663E+00  1.86119E-02
    9114.039    119.696   5.760  1.03732E+00  1.00631E+00  3.10085E-02
    9115.801    121.457   5.800  1.04624E+00  1.00595E+00  4.02911E-02
    9117.575    123.231   5.840  1.05189E+00  1.00553E+00  4.63565E-02
    9119.361    125.017   5.880  1.05498E+00  1.00513E+00  4.98557E-02
    9121.159    126.816   5.920  1.05647E+00  1.00467E+00  5.18016E-02
    9122.970    128.626   5.960  1.05722E+00  1.00421E+00  5.30127E-02
    9124.792    130.449   6.000  1.05726E+00  1.00370E+00  5.35561E-02
