# # comment:                                                     FEFF 9.9.1  
# # Source:
# # Structure
# # Reduced
# # space
# # abc:
# # angles:
# # sites:
# # POT  SCF 100  7.0000   0, screened core-hole, AFOLP (folp(0)= 1.150)
# # Abs   Z=29 Rmt= 1.262 Rnm= 1.345 K  shell
# # Pot 1 Z=25 Rmt= 1.301 Rnm= 1.411
# # Pot 2 Z=29 Rmt= 1.259 Rnm= 1.318
# # Pot 3 Z= 8 Rmt= 1.023 Rnm= 1.102
# # Gam_ch=1.729E+00 H-L exch Vi= 0.000E+00 Vr= 0.000E+00
# # Mu=-1.002E+01eV kf=2.164E+00 Vint=-1.801E+01eV Rs_int= 1.676
# FMS rfms= 9.0000
# # PATH  Rmax=-1.000,  Keep_limit= 0.00, Heap_limit 0.00  Pwcrit= 2.50%
#  S02=0.950  Temp=   0.00  Debye_temp=   0.00  Global_sig2= 0.00000
#  Energy zero shift, vr, vi    0.00000E+00   0.00000E+00
#  Curved wave amplitude ratio filter   4.000%
#     file         sig2 tot  cw amp ratio   deg  nlegs   reff  inp sig2
#     0/   0 paths used
#  xsedge+ 50, used to normalize mu           2.5020E-04
#  -----------------------------------------------------------------------
#  omega    e    k    mu    mu0     chi     @#
    8984.000    -13.825  -1.000  3.22738E-02  4.59772E-02 -1.37034E-02
    8984.299    -13.526  -0.960  3.38478E-02  4.91071E-02 -1.52593E-02
    8984.585    -13.240  -0.920  3.55417E-02  5.25693E-02 -1.70276E-02
    8984.859    -12.966  -0.880  3.73703E-02  5.64116E-02 -1.90413E-02
    8985.121    -12.704  -0.840  3.93513E-02  6.06896E-02 -2.13383E-02
    8985.371    -12.454  -0.800  4.15049E-02  6.54673E-02 -2.39624E-02
    8985.609    -12.216  -0.760  4.38550E-02  7.08184E-02 -2.69635E-02
    8985.835    -11.990  -0.720  4.64283E-02  7.68259E-02 -3.03975E-02
    8986.048    -11.777  -0.680  4.92550E-02  8.35808E-02 -3.43258E-02
    8986.249    -11.576  -0.640  5.23665E-02  9.11792E-02 -3.88127E-02
    8986.438    -11.387  -0.600  5.57933E-02  9.97151E-02 -4.39218E-02
    8986.615    -11.210  -0.560  5.95600E-02  1.09268E-01 -4.97082E-02
    8986.780    -11.045  -0.520  6.36772E-02  1.19885E-01 -5.62079E-02
    8986.932    -10.893  -0.480  6.81306E-02  1.31553E-01 -6.34225E-02
    8987.072    -10.753  -0.440  7.28686E-02  1.44170E-01 -7.13017E-02
    8987.200    -10.625  -0.400  7.77935E-02  1.57520E-01 -7.97267E-02
    8987.316    -10.509  -0.360  8.27611E-02  1.71263E-01 -8.85023E-02
    8987.420    -10.405  -0.320  8.75960E-02  1.84959E-01 -9.73634E-02
    8987.511    -10.314  -0.280  9.21186E-02  1.98118E-01 -1.06000E-01
    8987.590    -10.235  -0.240  9.61758E-02  2.10269E-01 -1.14093E-01
    8987.657    -10.168  -0.200  9.96609E-02  2.21012E-01 -1.21351E-01
    8987.712    -10.113  -0.160  1.02517E-01  2.30057E-01 -1.27540E-01
    8987.755    -10.070  -0.120  1.04724E-01  2.37213E-01 -1.32489E-01
    8987.785    -10.040  -0.080  1.06283E-01  2.42372E-01 -1.36089E-01
    8987.810    -10.015   0.000  1.07502E-01  2.46520E-01 -1.39018E-01
    8987.865     -9.960   0.120  1.10344E-01  2.55887E-01 -1.45543E-01
    8987.907     -9.918   0.160  1.12502E-01  2.63172E-01 -1.50671E-01
    8987.962     -9.863   0.200  1.15192E-01  2.72476E-01 -1.57284E-01
    8988.029     -9.796   0.240  1.18423E-01  2.83725E-01 -1.65303E-01
    8988.109     -9.717   0.280  1.22084E-01  2.96676E-01 -1.74591E-01
    8988.200     -9.625   0.320  1.26180E-01  3.11025E-01 -1.84845E-01
    8988.304     -9.521   0.360  1.30770E-01  3.26392E-01 -1.95623E-01
    8988.419     -9.406   0.400  1.36008E-01  3.42393E-01 -2.06385E-01
    8988.547     -9.278   0.440  1.42104E-01  3.58640E-01 -2.16536E-01
    8988.688     -9.137   0.480  1.49241E-01  3.74847E-01 -2.25606E-01
    8988.840     -8.985   0.520  1.57486E-01  3.90813E-01 -2.33327E-01
    8989.005     -8.820   0.560  1.66604E-01  4.06477E-01 -2.39873E-01
    8989.181     -8.644   0.600  1.76051E-01  4.21816E-01 -2.45765E-01
    8989.370     -8.455   0.640  1.84943E-01  4.36854E-01 -2.51911E-01
    8989.572     -8.253   0.680  1.92294E-01  4.51682E-01 -2.59388E-01
    8989.785     -8.040   0.720  1.97248E-01  4.66359E-01 -2.69111E-01
    8990.010     -7.815   0.760  1.99822E-01  4.80966E-01 -2.81144E-01
    8990.248     -7.577   0.800  2.01692E-01  4.95533E-01 -2.93841E-01
    8990.498     -7.327   0.840  2.05928E-01  5.10143E-01 -3.04215E-01
    8990.760     -7.065   0.880  2.15661E-01  5.24826E-01 -3.09166E-01
    8991.035     -6.790   0.920  2.33448E-01  5.39606E-01 -3.06157E-01
    8991.321     -6.504   0.960  2.61656E-01  5.54493E-01 -2.92836E-01
    8991.620     -6.205   1.000  3.02070E-01  5.69512E-01 -2.67442E-01
    8991.931     -5.894   1.040  3.53783E-01  5.84661E-01 -2.30878E-01
    8992.254     -5.571   1.080  4.09734E-01  5.99927E-01 -1.90193E-01
    8992.589     -5.236   1.120  4.55313E-01  6.15298E-01 -1.59985E-01
    8992.937     -4.888   1.160  4.74431E-01  6.30756E-01 -1.56325E-01
    8993.296     -4.529   1.200  4.65371E-01  6.46275E-01 -1.80904E-01
    8993.668     -4.157   1.240  4.47878E-01  6.61832E-01 -2.13953E-01
    8994.052     -3.773   1.280  4.41325E-01  6.77417E-01 -2.36092E-01
    8994.448     -3.377   1.320  4.50011E-01  6.92959E-01 -2.42948E-01
    8994.857     -2.968   1.360  4.72455E-01  7.08464E-01 -2.36010E-01
    8995.277     -2.548   1.400  5.07722E-01  7.23862E-01 -2.16141E-01
    8995.710     -2.115   1.440  5.54506E-01  7.39158E-01 -1.84652E-01
    8996.155     -1.670   1.480  6.10156E-01  7.54294E-01 -1.44138E-01
    8996.612     -1.213   1.520  6.70063E-01  7.69216E-01 -9.91531E-02
    8997.082     -0.743   1.560  7.23334E-01  7.83907E-01 -6.05729E-02
    8997.563     -0.262   1.600  7.52134E-01  7.98352E-01 -4.62187E-02
    8998.057      0.232   1.640  7.52052E-01  8.12476E-01 -6.04242E-02
    8998.563      0.738   1.680  7.41056E-01  8.26282E-01 -8.52259E-02
    8999.081      1.256   1.720  7.39553E-01  8.39717E-01 -1.00164E-01
    8999.612      1.787   1.760  7.62970E-01  8.52747E-01 -8.97779E-02
    9000.154      2.329   1.800  8.26968E-01  8.65360E-01 -3.83919E-02
    9000.709      2.884   1.840  9.45908E-01  8.77544E-01  6.83645E-02
    9001.276      3.451   1.880  1.11595E+00  8.89249E-01  2.26700E-01
    9001.855      4.030   1.920  1.28682E+00  9.00467E-01  3.86351E-01
    9002.446      4.621   1.960  1.36645E+00  9.11189E-01  4.55261E-01
    9003.050      5.225   2.000  1.32721E+00  9.21407E-01  4.05805E-01
    9003.665      5.840   2.040  1.25595E+00  9.31079E-01  3.24867E-01
    9004.293      6.468   2.080  1.22186E+00  9.40219E-01  2.81638E-01
    9004.933      7.108   2.120  1.22066E+00  9.48825E-01  2.71839E-01
    9005.586      7.761   2.160  1.23885E+00  9.56877E-01  2.81972E-01
    9006.250      8.425   2.200  1.28042E+00  9.64396E-01  3.16021E-01
    9006.927      9.102   2.240  1.32714E+00  9.71380E-01  3.55757E-01
    9007.616      9.791   2.280  1.33315E+00  9.77815E-01  3.55338E-01
    9008.317     10.492   2.320  1.28999E+00  9.83725E-01  3.06270E-01
    9009.030     11.205   2.360  1.22205E+00  9.89132E-01  2.32916E-01
    9009.755     11.930   2.400  1.13495E+00  9.94025E-01  1.40921E-01
    9010.493     12.668   2.440  1.03861E+00  9.98428E-01  4.01772E-02
    9011.243     13.418   2.480  9.66880E-01  1.00233E+00 -3.54491E-02
    9012.005     14.180   2.520  9.39423E-01  1.00580E+00 -6.63752E-02
    9012.779     14.954   2.560  9.46705E-01  1.00880E+00 -6.20956E-02
    9013.565     15.740   2.600  9.65068E-01  1.01139E+00 -4.63204E-02
    9014.364     16.539   2.640  9.72848E-01  1.01355E+00 -4.07011E-02
    9015.175     17.350   2.680  9.73832E-01  1.01533E+00 -4.15023E-02
    9015.998     18.173   2.720  9.72308E-01  1.01675E+00 -4.44467E-02
    9016.833     19.008   2.760  9.69027E-01  1.01782E+00 -4.87912E-02
    9017.680     19.855   2.800  9.64904E-01  1.01856E+00 -5.36532E-02
    9018.540     20.715   2.840  9.61440E-01  1.01898E+00 -5.75419E-02
    9019.411     21.586   2.880  9.59130E-01  1.01914E+00 -6.00130E-02
    9020.295     22.470   2.920  9.57834E-01  1.01903E+00 -6.11985E-02
    9021.191     23.366   2.960  9.57098E-01  1.01868E+00 -6.15799E-02
    9022.100     24.275   3.000  9.55691E-01  1.01809E+00 -6.23991E-02
    9023.020     25.195   3.040  9.52010E-01  1.01730E+00 -6.52887E-02
    9023.953     26.128   3.080  9.45126E-01  1.01634E+00 -7.12107E-02
    9024.898     27.073   3.120  9.35565E-01  1.01521E+00 -7.96482E-02
    9025.855     28.030   3.160  9.25126E-01  1.01396E+00 -8.88288E-02
    9026.824     28.999   3.200  9.15562E-01  1.01255E+00 -9.69893E-02
    9027.805     29.980   3.240  9.07949E-01  1.01103E+00 -1.03080E-01
    9028.799     30.974   3.280  9.02631E-01  1.00942E+00 -1.06788E-01
    9029.805     31.980   3.320  8.99766E-01  1.00773E+00 -1.07962E-01
    9030.823     32.998   3.360  8.99503E-01  1.00598E+00 -1.06482E-01
    9031.853     34.028   3.400  9.01451E-01  1.00417E+00 -1.02724E-01
    9032.896     35.071   3.440  9.04917E-01  1.00235E+00 -9.74295E-02
    9033.950     36.125   3.480  9.09094E-01  1.00048E+00 -9.13909E-02
    9035.017     37.192   3.520  9.13429E-01  9.98594E-01 -8.51654E-02
    9036.096     38.271   3.560  9.17689E-01  9.96723E-01 -7.90344E-02
    9037.187     39.362   3.600  9.22122E-01  9.94857E-01 -7.27345E-02
    9038.291     40.466   3.640  9.27226E-01  9.93020E-01 -6.57940E-02
    9039.406     41.581   3.680  9.33499E-01  9.91194E-01 -5.76959E-02
    9040.534     42.709   3.720  9.41351E-01  9.89406E-01 -4.80543E-02
    9041.674     43.849   3.760  9.50845E-01  9.87658E-01 -3.68134E-02
    9042.826     45.001   3.800  9.61522E-01  9.85976E-01 -2.44539E-02
    9043.990     46.165   3.840  9.72712E-01  9.84342E-01 -1.16308E-02
    9045.167     47.342   3.880  9.84176E-01  9.82780E-01  1.39631E-03
    9046.356     48.531   3.920  9.96124E-01  9.81270E-01  1.48545E-02
    9047.556     49.731   3.960  1.00885E+00  9.79856E-01  2.89936E-02
    9048.770     50.945   4.000  1.02216E+00  9.78499E-01  4.36628E-02
    9049.995     52.170   4.040  1.03529E+00  9.77221E-01  5.80669E-02
    9051.232     53.407   4.080  1.04712E+00  9.76045E-01  7.10740E-02
    9052.482     54.657   4.120  1.05699E+00  9.74931E-01  8.20542E-02
    9053.744     55.919   4.160  1.06535E+00  9.73919E-01  9.14336E-02
    9055.018     57.193   4.200  1.07323E+00  9.72991E-01  1.00239E-01
    9056.304     58.479   4.240  1.08157E+00  9.72147E-01  1.09423E-01
    9057.603     59.778   4.280  1.09069E+00  9.71410E-01  1.19276E-01
    9058.913     61.088   4.320  1.09993E+00  9.70759E-01  1.29170E-01
    9060.236     62.411   4.360  1.10755E+00  9.70192E-01  1.37362E-01
    9061.571     63.746   4.400  1.11065E+00  9.69730E-01  1.40922E-01
    9062.918     65.093   4.440  1.10587E+00  9.69352E-01  1.36523E-01
    9064.278     66.453   4.480  1.09121E+00  9.69056E-01  1.22154E-01
    9065.649     67.824   4.520  1.06727E+00  9.68841E-01  9.84263E-02
    9067.033     69.208   4.560  1.03711E+00  9.68707E-01  6.84030E-02
    9068.429     70.604   4.600  1.00476E+00  9.68655E-01  3.61078E-02
    9069.837     72.012   4.640  9.73850E-01  9.68703E-01  5.14765E-03
    9071.258     73.433   4.680  9.46803E-01  9.68807E-01 -2.20042E-02
    9072.690     74.865   4.720  9.24967E-01  9.68987E-01 -4.40200E-02
    9074.135     76.310   4.760  9.08792E-01  9.69243E-01 -6.04503E-02
    9075.592     77.767   4.800  8.97975E-01  9.69550E-01 -7.15743E-02
    9077.061     79.236   4.840  8.91861E-01  9.69948E-01 -7.80876E-02
    9078.542     80.717   4.880  8.89740E-01  9.70375E-01 -8.06347E-02
    9080.036     82.211   4.920  8.91344E-01  9.70867E-01 -7.95232E-02
    9081.542     83.717   4.960  8.96811E-01  9.71402E-01 -7.45906E-02
    9083.059     85.234   5.000  9.06330E-01  9.71979E-01 -6.56490E-02
    9084.590     86.764   5.040  9.19515E-01  9.72597E-01 -5.30817E-02
    9086.132     88.307   5.080  9.35043E-01  9.73273E-01 -3.82294E-02
    9087.686     89.861   5.120  9.50743E-01  9.73941E-01 -2.31974E-02
    9089.253     91.428   5.160  9.64609E-01  9.74662E-01 -1.00535E-02
    9090.832     93.007   5.200  9.75407E-01  9.75393E-01  1.40365E-05
    9092.423     94.598   5.240  9.83129E-01  9.76130E-01  6.99937E-03
    9094.026     96.201   5.280  9.88533E-01  9.76890E-01  1.16426E-02
    9095.642     97.816   5.320  9.92240E-01  9.77630E-01  1.46101E-02
    9097.269     99.444   5.360  9.94329E-01  9.78390E-01  1.59386E-02
    9098.909    101.084   5.400  9.94207E-01  9.79126E-01  1.50805E-02
    9100.561    102.736   5.440  9.91412E-01  9.79856E-01  1.15559E-02
    9102.225    104.400   5.480  9.86054E-01  9.80578E-01  5.47601E-03
    9103.902    106.077   5.520  9.78799E-01  9.81270E-01 -2.47121E-03
    9105.590    107.765   5.560  9.70488E-01  9.81948E-01 -1.14602E-02
    9107.291    109.466   5.600  9.61761E-01  9.82568E-01 -2.08077E-02
    9109.004    111.179   5.640  9.53067E-01  9.83173E-01 -3.01054E-02
    9110.729    112.904   5.680  9.44586E-01  9.83739E-01 -3.91524E-02
    9112.466    114.641   5.720  9.36560E-01  9.84265E-01 -4.77045E-02
    9114.216    116.391   5.760  9.29421E-01  9.84749E-01 -5.53281E-02
    9115.978    118.153   5.800  9.23535E-01  9.85188E-01 -6.16531E-02
    9117.752    119.927   5.840  9.19069E-01  9.85559E-01 -6.64893E-02
    9119.538    121.713   5.880  9.16351E-01  9.85880E-01 -6.95284E-02
    9121.336    123.511   5.920  9.16191E-01  9.86126E-01 -6.99352E-02
    9123.147    125.322   5.960  9.19897E-01  9.86312E-01 -6.64151E-02
    9124.969    127.144   6.000  9.29168E-01  9.86419E-01 -5.72509E-02
