# # comment:                                                     FEFF 9.9.1  
# # Source:
# # Structure
# # Reduced
# # space
# # abc:
# # angles:105.386824
# # sites:
# # POT  SCF 100  7.0000   0, screened core-hole, AFOLP (folp(0)= 1.150)
# # Abs   Z=29 Rmt= 1.216 Rnm= 1.320 K  shell
# # Pot 1 Z=23 Rmt= 1.086 Rnm= 1.308
# # Pot 2 Z=29 Rmt= 1.227 Rnm= 1.325
# # Pot 3 Z=83 Rmt= 1.614 Rnm= 1.699
# # Pot 4 Z= 8 Rmt= 0.955 Rnm= 1.107
# # Gam_ch=1.729E+00 H-L exch Vi= 0.000E+00 Vr= 0.000E+00
# # Mu=-6.661E+00eV kf=2.161E+00 Vint=-1.585E+01eV Rs_int= 1.679
# FMS rfms= 9.0000
# # PATH  Rmax=-1.000,  Keep_limit= 0.00, Heap_limit 0.00  Pwcrit= 2.50%
#  S02=0.950  Temp=   0.00  Debye_temp=   0.00  Global_sig2= 0.00000
#  Energy zero shift, vr, vi    0.00000E+00   0.00000E+00
#  Curved wave amplitude ratio filter   4.000%
#     file         sig2 tot  cw amp ratio   deg  nlegs   reff  inp sig2
#     0/   0 paths used
#  xsedge+ 50, used to normalize mu           2.4521E-04
#  -----------------------------------------------------------------------
#  omega    e    k    mu    mu0     chi     @#
    8983.635    -10.471  -1.000  4.53441E-02  5.69354E-02 -1.15913E-02
    8983.934    -10.172  -0.960  4.82549E-02  6.11500E-02 -1.28951E-02
    8984.220     -9.886  -0.920  5.14638E-02  6.58393E-02 -1.43755E-02
    8984.495     -9.611  -0.880  5.50139E-02  7.10736E-02 -1.60597E-02
    8984.757     -9.349  -0.840  5.89558E-02  7.69348E-02 -1.79790E-02
    8985.007     -9.099  -0.800  6.33482E-02  8.35179E-02 -2.01698E-02
    8985.245     -8.862  -0.760  6.82585E-02  9.09320E-02 -2.26734E-02
    8985.470     -8.636  -0.720  7.37636E-02  9.93001E-02 -2.55365E-02
    8985.683     -8.423  -0.680  7.99481E-02  1.08758E-01 -2.88100E-02
    8985.885     -8.222  -0.640  8.69016E-02  1.19450E-01 -3.25480E-02
    8986.074     -8.033  -0.600  9.47120E-02  1.31515E-01 -3.68033E-02
    8986.250     -7.856  -0.560  1.03453E-01  1.45076E-01 -4.16223E-02
    8986.415     -7.691  -0.520  1.13168E-01  1.60203E-01 -4.70350E-02
    8986.567     -7.539  -0.480  1.23840E-01  1.76882E-01 -5.30421E-02
    8986.708     -7.399  -0.440  1.35366E-01  1.94966E-01 -5.96000E-02
    8986.836     -7.271  -0.400  1.47532E-01  2.14138E-01 -6.66065E-02
    8986.951     -7.155  -0.360  1.60009E-01  2.33903E-01 -7.38938E-02
    8987.055     -7.051  -0.320  1.72379E-01  2.53614E-01 -8.12344E-02
    8987.146     -6.960  -0.280  1.84190E-01  2.72554E-01 -8.83636E-02
    8987.226     -6.880  -0.240  1.95022E-01  2.90035E-01 -9.50123E-02
    8987.293     -6.813  -0.200  2.04539E-01  3.05480E-01 -1.00941E-01
    8987.348     -6.759  -0.160  2.12507E-01  3.18469E-01 -1.05962E-01
    8987.390     -6.716  -0.120  2.18789E-01  3.28734E-01 -1.09945E-01
    8987.421     -6.685  -0.080  2.23309E-01  3.36127E-01 -1.12818E-01
    8987.445     -6.661   0.000  2.26940E-01  3.42065E-01 -1.15124E-01
    8987.500     -6.606   0.120  2.34914E-01  3.55464E-01 -1.20551E-01
    8987.543     -6.563   0.160  2.41138E-01  3.65863E-01 -1.24726E-01
    8987.598     -6.509   0.200  2.49106E-01  3.79138E-01 -1.30032E-01
    8987.665     -6.442   0.240  2.58724E-01  3.95081E-01 -1.36357E-01
    8987.744     -6.362   0.280  2.69883E-01  4.13388E-01 -1.43505E-01
    8987.835     -6.271   0.320  2.82386E-01  4.33563E-01 -1.51176E-01
    8987.939     -6.167   0.360  2.95950E-01  4.55015E-01 -1.59064E-01
    8988.055     -6.051   0.400  3.10185E-01  4.77075E-01 -1.66890E-01
    8988.183     -5.923   0.440  3.24638E-01  4.99214E-01 -1.74576E-01
    8988.323     -5.783   0.480  3.38619E-01  5.20945E-01 -1.82326E-01
    8988.475     -5.631   0.520  3.51513E-01  5.41987E-01 -1.90474E-01
    8988.640     -5.466   0.560  3.62900E-01  5.62189E-01 -1.99289E-01
    8988.817     -5.289   0.600  3.72905E-01  5.81494E-01 -2.08589E-01
    8989.006     -5.100   0.640  3.82299E-01  6.00007E-01 -2.17708E-01
    8989.207     -4.899   0.680  3.92282E-01  6.17767E-01 -2.25484E-01
    8989.420     -4.686   0.720  4.04328E-01  6.34892E-01 -2.30563E-01
    8989.646     -4.460   0.760  4.19714E-01  6.51476E-01 -2.31763E-01
    8989.884     -4.223   0.800  4.39003E-01  6.67606E-01 -2.28602E-01
    8990.134     -3.973   0.840  4.61513E-01  6.83331E-01 -2.21819E-01
    8990.396     -3.711   0.880  4.85304E-01  6.98728E-01 -2.13425E-01
    8990.670     -3.436   0.920  5.07124E-01  7.13861E-01 -2.06737E-01
    8990.956     -3.150   0.960  5.22988E-01  7.28697E-01 -2.05709E-01
    8991.255     -2.851   1.000  5.32260E-01  7.43292E-01 -2.11032E-01
    8991.566     -2.540   1.040  5.39456E-01  7.57655E-01 -2.18199E-01
    8991.889     -2.217   1.080  5.48648E-01  7.71745E-01 -2.23097E-01
    8992.224     -1.882   1.120  5.58276E-01  7.85597E-01 -2.27321E-01
    8992.572     -1.534   1.160  5.63896E-01  7.99157E-01 -2.35261E-01
    8992.932     -1.175   1.200  5.65713E-01  8.12451E-01 -2.46737E-01
    8993.303     -0.803   1.240  5.67223E-01  8.25417E-01 -2.58194E-01
    8993.687     -0.419   1.280  5.70062E-01  8.38054E-01 -2.67992E-01
    8994.084     -0.023   1.320  5.73896E-01  8.50340E-01 -2.76444E-01
    8994.492      0.386   1.360  5.79840E-01  8.62249E-01 -2.82410E-01
    8994.913      0.807   1.400  5.91150E-01  8.73777E-01 -2.82627E-01
    8995.346      1.239   1.440  6.10387E-01  8.84877E-01 -2.74490E-01
    8995.791      1.684   1.480  6.41337E-01  8.95546E-01 -2.54209E-01
    8996.248      2.142   1.520  6.88270E-01  9.05757E-01 -2.17487E-01
    8996.717      2.611   1.560  7.51683E-01  9.15509E-01 -1.63826E-01
    8997.199      3.093   1.600  8.28944E-01  9.24777E-01 -9.58323E-02
    8997.693      3.586   1.640  9.17615E-01  9.33557E-01 -1.59423E-02
    8998.198      4.092   1.680  1.01534E+00  9.41873E-01  7.34661E-02
    8998.717      4.610   1.720  1.11120E+00  9.49663E-01  1.61539E-01
    8999.247      5.141   1.760  1.18481E+00  9.56989E-01  2.27820E-01
    8999.790      5.683   1.800  1.22811E+00  9.63811E-01  2.64300E-01
    9000.344      6.238   1.840  1.25386E+00  9.70134E-01  2.83731E-01
    9000.911      6.805   1.880  1.27884E+00  9.76003E-01  3.02833E-01
    9001.490      7.384   1.920  1.31039E+00  9.81382E-01  3.29007E-01
    9002.082      7.975   1.960  1.33928E+00  9.86299E-01  3.52981E-01
    9002.685      8.579   2.000  1.35235E+00  9.90780E-01  3.61570E-01
    9003.301      9.195   2.040  1.35001E+00  9.94812E-01  3.55200E-01
    9003.929      9.822   2.080  1.34262E+00  9.98447E-01  3.44171E-01
    9004.569     10.463   2.120  1.34259E+00  1.00165E+00  3.40942E-01
    9005.221     11.115   2.160  1.35456E+00  1.00449E+00  3.50070E-01
    9005.886     11.779   2.200  1.36665E+00  1.00696E+00  3.59683E-01
    9006.562     12.456   2.240  1.36444E+00  1.00909E+00  3.55345E-01
    9007.251     13.145   2.280  1.34124E+00  1.01087E+00  3.30366E-01
    9007.952     13.846   2.320  1.29446E+00  1.01237E+00  2.82089E-01
    9008.665     14.559   2.360  1.23137E+00  1.01356E+00  2.17814E-01
    9009.391     15.284   2.400  1.16494E+00  1.01448E+00  1.50461E-01
    9010.128     16.022   2.440  1.10591E+00  1.01516E+00  9.07528E-02
    9010.878     16.772   2.480  1.06034E+00  1.01562E+00  4.47278E-02
    9011.640     17.534   2.520  1.02870E+00  1.01586E+00  1.28349E-02
    9012.414     18.308   2.560  1.00751E+00  1.01591E+00 -8.40078E-03
    9013.201     19.094   2.600  9.94739E-01  1.01576E+00 -2.10244E-02
    9013.999     19.893   2.640  9.86654E-01  1.01547E+00 -2.88212E-02
    9014.810     20.704   2.680  9.80413E-01  1.01505E+00 -3.46402E-02
    9015.633     21.527   2.720  9.73824E-01  1.01451E+00 -4.06834E-02
    9016.468     22.362   2.760  9.65289E-01  1.01384E+00 -4.85545E-02
    9017.315     23.209   2.800  9.54832E-01  1.01309E+00 -5.82572E-02
    9018.175     24.069   2.840  9.43625E-01  1.01225E+00 -6.86281E-02
    9019.047     24.941   2.880  9.32608E-01  1.01136E+00 -7.87522E-02
    9019.931     25.824   2.920  9.21936E-01  1.01040E+00 -8.84635E-02
    9020.827     26.721   2.960  9.11774E-01  1.00939E+00 -9.76207E-02
    9021.735     27.629   3.000  9.02264E-01  1.00837E+00 -1.06109E-01
    9022.656     28.549   3.040  8.93740E-01  1.00732E+00 -1.13580E-01
    9023.588     29.482   3.080  8.86924E-01  1.00626E+00 -1.19335E-01
    9024.533     30.427   3.120  8.82635E-01  1.00520E+00 -1.22561E-01
    9025.490     31.384   3.160  8.81191E-01  1.00413E+00 -1.22943E-01
    9026.459     32.353   3.200  8.82571E-01  1.00310E+00 -1.20529E-01
    9027.441     33.335   3.240  8.86367E-01  1.00208E+00 -1.15708E-01
    9028.435     34.328   3.280  8.91629E-01  1.00108E+00 -1.09453E-01
    9029.440     35.334   3.320  8.97379E-01  1.00010E+00 -1.02724E-01
    9030.458     36.352   3.360  9.02986E-01  9.99184E-01 -9.61982E-02
    9031.489     37.382   3.400  9.07991E-01  9.98307E-01 -9.03160E-02
    9032.531     38.425   3.440  9.12143E-01  9.97473E-01 -8.53305E-02
    9033.586     39.479   3.480  9.15612E-01  9.96684E-01 -8.10716E-02
    9034.652     40.546   3.520  9.18841E-01  9.95962E-01 -7.71211E-02
    9035.731     41.625   3.560  9.22184E-01  9.95289E-01 -7.31044E-02
    9036.823     42.716   3.600  9.26023E-01  9.94685E-01 -6.86615E-02
    9037.926     43.820   3.640  9.30604E-01  9.94130E-01 -6.35259E-02
    9039.042     44.935   3.680  9.36169E-01  9.93648E-01 -5.74782E-02
    9040.169     46.063   3.720  9.42906E-01  9.93214E-01 -5.03082E-02
    9041.309     47.203   3.760  9.51112E-01  9.92853E-01 -4.17414E-02
    9042.461     48.355   3.800  9.60806E-01  9.92545E-01 -3.17384E-02
    9043.626     49.519   3.840  9.71836E-01  9.92329E-01 -2.04927E-02
    9044.802     50.696   3.880  9.83912E-01  9.92143E-01 -8.23039E-03
    9045.991     51.885   3.920  9.96839E-01  9.92050E-01  4.78906E-03
    9047.192     53.086   3.960  1.01016E+00  9.91985E-01  1.81776E-02
    9048.405     54.299   4.000  1.02353E+00  9.92011E-01  3.15165E-02
    9049.630     55.524   4.040  1.03654E+00  9.92064E-01  4.44730E-02
    9050.868     56.761   4.080  1.04894E+00  9.92186E-01  5.67570E-02
    9052.117     58.011   4.120  1.06040E+00  9.92378E-01  6.80253E-02
    9053.379     59.273   4.160  1.07057E+00  9.92615E-01  7.79526E-02
    9054.653     60.547   4.200  1.07895E+00  9.92895E-01  8.60552E-02
    9055.940     61.833   4.240  1.08503E+00  9.93216E-01  9.18123E-02
    9057.238     63.132   4.280  1.08840E+00  9.93580E-01  9.48239E-02
    9058.549     64.442   4.320  1.08902E+00  9.93984E-01  9.50323E-02
    9059.871     65.765   4.360  1.08721E+00  9.94448E-01  9.27649E-02
    9061.206     67.100   4.400  1.08356E+00  9.94927E-01  8.86314E-02
    9062.554     68.447   4.440  1.07880E+00  9.95420E-01  8.33851E-02
    9063.913     69.807   4.480  1.07345E+00  9.95968E-01  7.74811E-02
    9065.285     71.178   4.520  1.06751E+00  9.96528E-01  7.09771E-02
    9066.668     72.562   4.560  1.06083E+00  9.97118E-01  6.37084E-02
    9068.064     73.958   4.600  1.05326E+00  9.97714E-01  5.55470E-02
    9069.473     75.366   4.640  1.04493E+00  9.98314E-01  4.66196E-02
    9070.893     76.787   4.680  1.03627E+00  9.98939E-01  3.73291E-02
    9072.326     78.219   4.720  1.02768E+00  9.99544E-01  2.81308E-02
    9073.770     79.664   4.760  1.01951E+00  1.00017E+00  1.93374E-02
    9075.227     81.121   4.800  1.01191E+00  1.00077E+00  1.11368E-02
    9076.696     82.590   4.840  1.00507E+00  1.00139E+00  3.67501E-03
    9078.178     84.071   4.880  9.99150E-01  1.00199E+00 -2.83957E-03
    9079.671     85.565   4.920  9.94448E-01  1.00258E+00 -8.13025E-03
    9081.177     87.071   4.960  9.91120E-01  1.00316E+00 -1.20388E-02
    9082.695     88.589   5.000  9.88972E-01  1.00371E+00 -1.47345E-02
    9084.225     90.119   5.040  9.87399E-01  1.00422E+00 -1.68217E-02
    9085.767     91.661   5.080  9.85599E-01  1.00472E+00 -1.91223E-02
    9087.322     93.215   5.120  9.83008E-01  1.00519E+00 -2.21801E-02
    9088.888     94.782   5.160  9.79683E-01  1.00564E+00 -2.59577E-02
    9090.467     96.361   5.200  9.76215E-01  1.00603E+00 -2.98174E-02
    9092.058     97.952   5.240  9.73434E-01  1.00641E+00 -3.29716E-02
    9093.661     99.555   5.280  9.71788E-01  1.00674E+00 -3.49511E-02
    9095.277    101.171   5.320  9.71172E-01  1.00701E+00 -3.58390E-02
    9096.904    102.798   5.360  9.71152E-01  1.00726E+00 -3.61102E-02
    9098.544    104.438   5.400  9.71165E-01  1.00747E+00 -3.63092E-02
    9100.196    106.090   5.440  9.70837E-01  1.00764E+00 -3.68057E-02
    9101.861    107.754   5.480  9.69996E-01  1.00775E+00 -3.77501E-02
    9103.537    109.431   5.520  9.68675E-01  1.00783E+00 -3.91533E-02
    9105.226    111.119   5.560  9.66918E-01  1.00785E+00 -4.09289E-02
    9106.926    112.820   5.600  9.65070E-01  1.00784E+00 -4.27743E-02
    9108.639    114.533   5.640  9.63681E-01  1.00778E+00 -4.40946E-02
    9110.364    116.258   5.680  9.63455E-01  1.00766E+00 -4.42059E-02
    9112.102    117.996   5.720  9.64760E-01  1.00748E+00 -4.27215E-02
    9113.851    119.745   5.760  9.67515E-01  1.00728E+00 -3.97669E-02
    9115.613    121.507   5.800  9.71132E-01  1.00704E+00 -3.59127E-02
    9117.387    123.281   5.840  9.74885E-01  1.00674E+00 -3.18582E-02
    9119.173    125.067   5.880  9.78351E-01  1.00643E+00 -2.80746E-02
    9120.971    126.865   5.920  9.81448E-01  1.00605E+00 -2.46010E-02
    9122.782    128.676   5.960  9.84586E-01  1.00566E+00 -2.10738E-02
    9124.605    130.498   6.000  9.88408E-01  1.00521E+00 -1.67989E-02
