# # comment:                                                     FEFF 9.9.1  
# # Source:
# # Structure
# # Reduced
# # space
# # abc:
# # angles:
# # sites:
# # POT  SCF 100  7.0000   0, screened core-hole, AFOLP (folp(0)= 1.150)
# # Abs   Z=29 Rmt= 1.206 Rnm= 1.290 K  shell
# # Pot 1 Z=56 Rmt= 1.967 Rnm= 2.017
# # Pot 2 Z=39 Rmt= 1.626 Rnm= 1.696
# # Pot 3 Z=29 Rmt= 1.175 Rnm= 1.271
# # Pot 4 Z= 8 Rmt= 1.058 Rnm= 1.108
# # Gam_ch=1.729E+00 H-L exch Vi= 0.000E+00 Vr= 0.000E+00
# # Mu=-7.869E+00eV kf=2.040E+00 Vint=-1.756E+01eV Rs_int= 1.777
# FMS rfms= 9.0000
# # PATH  Rmax=-1.000,  Keep_limit= 0.00, Heap_limit 0.00  Pwcrit= 2.50%
#  S02=0.950  Temp=   0.00  Debye_temp=   0.00  Global_sig2= 0.00000
#  Energy zero shift, vr, vi    0.00000E+00   0.00000E+00
#  Curved wave amplitude ratio filter   4.000%
#     file         sig2 tot  cw amp ratio   deg  nlegs   reff  inp sig2
#     0/   0 paths used
#  xsedge+ 50, used to normalize mu           2.4394E-04
#  -----------------------------------------------------------------------
#  omega    e    k    mu    mu0     chi     @#
    8985.015    -11.679  -1.000  4.51805E-02  6.01866E-02 -1.50061E-02
    8985.314    -11.381  -0.960  4.79002E-02  6.47371E-02 -1.68368E-02
    8985.600    -11.094  -0.920  5.08739E-02  6.98081E-02 -1.89341E-02
    8985.874    -10.820  -0.880  5.41357E-02  7.54774E-02 -2.13417E-02
    8986.136    -10.558  -0.840  5.77250E-02  8.18356E-02 -2.41106E-02
    8986.386    -10.308  -0.800  6.16877E-02  8.89881E-02 -2.73005E-02
    8986.624    -10.070  -0.760  6.60758E-02  9.70556E-02 -3.09798E-02
    8986.850     -9.844  -0.720  7.09483E-02  1.06175E-01 -3.52267E-02
    8987.063     -9.631  -0.680  7.63696E-02  1.16497E-01 -4.01274E-02
    8987.264     -9.430  -0.640  8.24073E-02  1.28181E-01 -4.57736E-02
    8987.453     -9.241  -0.600  8.91271E-02  1.41384E-01 -5.22565E-02
    8987.630     -9.064  -0.560  9.65840E-02  1.56240E-01 -5.96557E-02
    8987.795     -8.899  -0.520  1.04808E-01  1.72830E-01 -6.80218E-02
    8987.947     -8.747  -0.480  1.13785E-01  1.91138E-01 -7.73534E-02
    8988.087     -8.607  -0.440  1.23434E-01  2.11003E-01 -8.75694E-02
    8988.215     -8.479  -0.400  1.33591E-01  2.32076E-01 -9.84858E-02
    8988.331     -8.363  -0.360  1.44000E-01  2.53808E-01 -1.09808E-01
    8988.435     -8.259  -0.320  1.54333E-01  2.75484E-01 -1.21152E-01
    8988.526     -8.168  -0.280  1.64227E-01  2.96312E-01 -1.32086E-01
    8988.605     -8.089  -0.240  1.73335E-01  3.15532E-01 -1.42197E-01
    8988.672     -8.022  -0.200  1.81369E-01  3.32509E-01 -1.51139E-01
    8988.727     -7.967  -0.160  1.88120E-01  3.46780E-01 -1.58660E-01
    8988.770     -7.924  -0.120  1.93454E-01  3.58055E-01 -1.64601E-01
    8988.800     -7.894  -0.080  1.97297E-01  3.66172E-01 -1.68875E-01
    8988.825     -7.869   0.000  2.00384E-01  3.72689E-01 -1.72306E-01
    8988.880     -7.814   0.120  2.07322E-01  3.87386E-01 -1.80064E-01
    8988.922     -7.772   0.160  2.12693E-01  3.98776E-01 -1.86083E-01
    8988.977     -7.717   0.200  2.19553E-01  4.13318E-01 -1.93766E-01
    8989.044     -7.650   0.240  2.27788E-01  4.30778E-01 -2.02990E-01
    8989.123     -7.571   0.280  2.37267E-01  4.50785E-01 -2.13517E-01
    8989.215     -7.479   0.320  2.47778E-01  4.72801E-01 -2.25023E-01
    8989.319     -7.375   0.360  2.59029E-01  4.96121E-01 -2.37092E-01
    8989.434     -7.260   0.400  2.70855E-01  5.20057E-01 -2.49202E-01
    8989.562     -7.132   0.440  2.83079E-01  5.43925E-01 -2.60846E-01
    8989.703     -6.991   0.480  2.95748E-01  5.67247E-01 -2.71498E-01
    8989.855     -6.839   0.520  3.08971E-01  5.89683E-01 -2.80712E-01
    8990.020     -6.674   0.560  3.22978E-01  6.11045E-01 -2.88067E-01
    8990.196     -6.498   0.600  3.38127E-01  6.31335E-01 -2.93208E-01
    8990.385     -6.309   0.640  3.54951E-01  6.50583E-01 -2.95632E-01
    8990.587     -6.107   0.680  3.74358E-01  6.68881E-01 -2.94524E-01
    8990.800     -5.894   0.720  3.97566E-01  6.86341E-01 -2.88775E-01
    8991.025     -5.669   0.760  4.25383E-01  7.03072E-01 -2.77689E-01
    8991.263     -5.431   0.800  4.56870E-01  7.19194E-01 -2.62324E-01
    8991.513     -5.181   0.840  4.87698E-01  7.34771E-01 -2.47072E-01
    8991.775     -4.919   0.880  5.10240E-01  7.49869E-01 -2.39629E-01
    8992.050     -4.644   0.920  5.17218E-01  7.64540E-01 -2.47323E-01
    8992.336     -4.358   0.960  5.07951E-01  7.78802E-01 -2.70850E-01
    8992.635     -4.059   1.000  4.90027E-01  7.92699E-01 -3.02671E-01
    8992.946     -3.748   1.040  4.73108E-01  8.06246E-01 -3.33138E-01
    8993.269     -3.425   1.080  4.62855E-01  8.19428E-01 -3.56573E-01
    8993.604     -3.090   1.120  4.61135E-01  8.32266E-01 -3.71130E-01
    8993.952     -2.743   1.160  4.68646E-01  8.44732E-01 -3.76086E-01
    8994.311     -2.383   1.200  4.85792E-01  8.56834E-01 -3.71042E-01
    8994.683     -2.011   1.240  5.11702E-01  8.68517E-01 -3.56815E-01
    8995.067     -1.627   1.280  5.43953E-01  8.79828E-01 -3.35875E-01
    8995.463     -1.231   1.320  5.81405E-01  8.90705E-01 -3.09299E-01
    8995.872     -0.822   1.360  6.27930E-01  9.01147E-01 -2.73217E-01
    8996.292     -0.402   1.400  6.89757E-01  9.11157E-01 -2.21399E-01
    8996.725      0.031   1.440  7.71022E-01  9.20693E-01 -1.49671E-01
    8997.170      0.476   1.480  8.77207E-01  9.29773E-01 -5.25666E-02
    8997.627      0.933   1.520  1.01528E+00  9.38380E-01  7.69051E-02
    8998.097      1.403   1.560  1.17087E+00  9.46492E-01  2.24382E-01
    8998.578      1.884   1.600  1.29093E+00  9.54131E-01  3.36803E-01
    8999.072      2.378   1.640  1.33483E+00  9.61279E-01  3.73548E-01
    8999.578      2.884   1.680  1.36239E+00  9.67940E-01  3.94452E-01
    9000.096      3.402   1.720  1.45456E+00  9.74117E-01  4.80446E-01
    9000.627      3.933   1.760  1.59165E+00  9.79815E-01  6.11838E-01
    9001.169      4.475   1.800  1.66790E+00  9.85061E-01  6.82841E-01
    9001.724      5.030   1.840  1.60578E+00  9.89840E-01  6.15939E-01
    9002.291      5.597   1.880  1.46764E+00  9.94180E-01  4.73459E-01
    9002.870      6.176   1.920  1.34776E+00  9.98088E-01  3.49667E-01
    9003.461      6.767   1.960  1.26234E+00  1.00157E+00  2.60769E-01
    9004.065      7.371   2.000  1.19837E+00  1.00467E+00  1.93700E-01
    9004.680      7.986   2.040  1.16016E+00  1.00738E+00  1.52785E-01
    9005.308      8.614   2.080  1.15388E+00  1.00971E+00  1.44171E-01
    9005.948      9.254   2.120  1.16052E+00  1.01171E+00  1.48817E-01
    9006.601      9.907   2.160  1.14407E+00  1.01339E+00  1.30682E-01
    9007.265     10.571   2.200  1.09294E+00  1.01474E+00  7.81953E-02
    9007.942     11.248   2.240  1.03253E+00  1.01583E+00  1.67034E-02
    9008.631     11.937   2.280  9.88577E-01  1.01663E+00 -2.80555E-02
    9009.332     12.638   2.320  9.69368E-01  1.01719E+00 -4.78180E-02
    9010.045     13.351   2.360  9.74322E-01  1.01754E+00 -4.32163E-02
    9010.770     14.076   2.400  1.00120E+00  1.01766E+00 -1.64578E-02
    9011.508     14.814   2.440  1.04708E+00  1.01760E+00  2.94738E-02
    9012.258     15.564   2.480  1.09300E+00  1.01735E+00  7.56443E-02
    9013.020     16.326   2.520  1.11766E+00  1.01698E+00  1.00672E-01
    9013.794     17.100   2.560  1.12574E+00  1.01644E+00  1.09304E-01
    9014.580     17.886   2.600  1.12138E+00  1.01581E+00  1.05565E-01
    9015.379     18.685   2.640  1.10815E+00  1.01505E+00  9.30981E-02
    9016.190     19.496   2.680  1.08864E+00  1.01422E+00  7.44189E-02
    9017.013     20.319   2.720  1.06506E+00  1.01331E+00  5.17453E-02
    9017.848     21.154   2.760  1.03915E+00  1.01235E+00  2.67992E-02
    9018.695     22.001   2.800  1.01265E+00  1.01132E+00  1.33512E-03
    9019.555     22.861   2.840  9.87227E-01  1.01027E+00 -2.30423E-02
    9020.426     23.732   2.880  9.63671E-01  1.00919E+00 -4.55138E-02
    9021.310     24.616   2.920  9.41442E-01  1.00809E+00 -6.66523E-02
    9022.206     25.512   2.960  9.20381E-01  1.00700E+00 -8.66186E-02
    9023.115     26.421   3.000  9.01480E-01  1.00593E+00 -1.04447E-01
    9024.035     27.341   3.040  8.86097E-01  1.00484E+00 -1.18742E-01
    9024.968     28.274   3.080  8.75211E-01  1.00380E+00 -1.28590E-01
    9025.913     29.219   3.120  8.69070E-01  1.00278E+00 -1.33706E-01
    9026.870     30.176   3.160  8.66734E-01  1.00177E+00 -1.35031E-01
    9027.839     31.145   3.200  8.66735E-01  1.00082E+00 -1.34082E-01
    9028.820     32.126   3.240  8.67613E-01  9.99932E-01 -1.32318E-01
    9029.814     33.120   3.280  8.68410E-01  9.99071E-01 -1.30661E-01
    9030.820     34.126   3.320  8.69282E-01  9.98277E-01 -1.28994E-01
    9031.838     35.144   3.360  8.71253E-01  9.97531E-01 -1.26278E-01
    9032.868     36.174   3.400  8.75761E-01  9.96858E-01 -1.21096E-01
    9033.911     37.217   3.440  8.83370E-01  9.96257E-01 -1.12886E-01
    9034.965     38.271   3.480  8.94049E-01  9.95708E-01 -1.01659E-01
    9036.032     39.338   3.520  9.07431E-01  9.95232E-01 -8.78018E-02
    9037.111     40.417   3.560  9.22898E-01  9.94810E-01 -7.19114E-02
    9038.202     41.508   3.600  9.39751E-01  9.94484E-01 -5.47334E-02
    9039.306     42.612   3.640  9.57017E-01  9.94213E-01 -3.71960E-02
    9040.421     43.727   3.680  9.73578E-01  9.93994E-01 -2.04158E-02
    9041.549     44.855   3.720  9.88261E-01  9.93872E-01 -5.61090E-03
    9042.689     45.995   3.760  1.00034E+00  9.93805E-01  6.53329E-03
    9043.841     47.147   3.800  1.00983E+00  9.93812E-01  1.60149E-02
    9045.005     48.311   3.840  1.01702E+00  9.93894E-01  2.31293E-02
    9046.182     49.488   3.880  1.02244E+00  9.94027E-01  2.84082E-02
    9047.371     50.677   3.920  1.02652E+00  9.94232E-01  3.22871E-02
    9048.571     51.877   3.960  1.02955E+00  9.94486E-01  3.50672E-02
    9049.785     53.091   4.000  1.03192E+00  9.94810E-01  3.71103E-02
    9051.010     54.316   4.040  1.03408E+00  9.95183E-01  3.88959E-02
    9052.247     55.553   4.080  1.03636E+00  9.95622E-01  4.07396E-02
    9053.497     56.803   4.120  1.03867E+00  9.96083E-01  4.25879E-02
    9054.759     58.065   4.160  1.04082E+00  9.96608E-01  4.42115E-02
    9056.033     59.339   4.200  1.04237E+00  9.97174E-01  4.51986E-02
    9057.319     60.625   4.240  1.04312E+00  9.97779E-01  4.53364E-02
    9058.618     61.924   4.280  1.04354E+00  9.98399E-01  4.51386E-02
    9059.928     63.234   4.320  1.04483E+00  9.99076E-01  4.57533E-02
    9061.251     64.557   4.360  1.04790E+00  9.99763E-01  4.81371E-02
    9062.586     65.892   4.400  1.05298E+00  1.00046E+00  5.25157E-02
    9063.933     67.239   4.440  1.05986E+00  1.00119E+00  5.86683E-02
    9065.293     68.599   4.480  1.06818E+00  1.00195E+00  6.62327E-02
    9066.664     69.970   4.520  1.07746E+00  1.00271E+00  7.47546E-02
    9068.048     71.354   4.560  1.08684E+00  1.00344E+00  8.33913E-02
    9069.444     72.750   4.600  1.09481E+00  1.00421E+00  9.06057E-02
    9070.852     74.158   4.640  1.09938E+00  1.00497E+00  9.44177E-02
    9072.273     75.579   4.680  1.09895E+00  1.00572E+00  9.32244E-02
    9073.705     77.011   4.720  1.09290E+00  1.00646E+00  8.64483E-02
    9075.150     78.456   4.760  1.08165E+00  1.00720E+00  7.44500E-02
    9076.607     79.913   4.800  1.06605E+00  1.00789E+00  5.81588E-02
    9078.076     81.382   4.840  1.04743E+00  1.00859E+00  3.88366E-02
    9079.557     82.863   4.880  1.02739E+00  1.00924E+00  1.81490E-02
    9081.051     84.357   4.920  1.00800E+00  1.00987E+00 -1.87210E-03
    9082.556     85.862   4.960  9.91127E-01  1.01046E+00 -1.93367E-02
    9084.074     87.380   5.000  9.78051E-01  1.01102E+00 -3.29683E-02
    9085.604     88.910   5.040  9.69231E-01  1.01156E+00 -4.23256E-02
    9087.147     90.453   5.080  9.64333E-01  1.01203E+00 -4.76970E-02
    9088.701     92.007   5.120  9.62551E-01  1.01246E+00 -4.99109E-02
    9090.268     93.574   5.160  9.62861E-01  1.01287E+00 -5.00116E-02
    9091.847     95.153   5.200  9.64351E-01  1.01322E+00 -4.88652E-02
    9093.438     96.744   5.240  9.66434E-01  1.01349E+00 -4.70567E-02
    9095.041     98.347   5.280  9.68838E-01  1.01374E+00 -4.49063E-02
    9096.656     99.962   5.320  9.70956E-01  1.01395E+00 -4.29955E-02
    9098.284    101.590   5.360  9.72095E-01  1.01409E+00 -4.19960E-02
    9099.924    103.230   5.400  9.71756E-01  1.01418E+00 -4.24248E-02
    9101.576    104.882   5.440  9.69883E-01  1.01420E+00 -4.43207E-02
    9103.240    106.546   5.480  9.67076E-01  1.01420E+00 -4.71263E-02
    9104.917    108.223   5.520  9.64215E-01  1.01413E+00 -4.99165E-02
    9106.605    109.911   5.560  9.62266E-01  1.01399E+00 -5.17252E-02
    9108.306    111.612   5.600  9.61924E-01  1.01383E+00 -5.19023E-02
    9110.019    113.325   5.640  9.63389E-01  1.01360E+00 -5.02074E-02
    9111.744    115.050   5.680  9.66464E-01  1.01332E+00 -4.68570E-02
    9113.481    116.787   5.720  9.70651E-01  1.01300E+00 -4.23522E-02
    9115.231    118.537   5.760  9.75468E-01  1.01265E+00 -3.71782E-02
    9116.993    120.299   5.800  9.80492E-01  1.01225E+00 -3.17542E-02
    9118.767    122.073   5.840  9.85353E-01  1.01178E+00 -2.64299E-02
    9120.553    123.859   5.880  9.89873E-01  1.01131E+00 -2.14344E-02
    9122.351    125.657   5.920  9.94005E-01  1.01080E+00 -1.67951E-02
    9124.162    127.468   5.960  9.97971E-01  1.01026E+00 -1.22884E-02
    9125.984    129.290   6.000  1.00228E+00  1.00965E+00 -7.37414E-03
