# # comment:                                                     FEFF 9.9.1  
# # Source:
# # Structure
# # Reduced
# # space
# # abc:
# # angles:
# # sites:
# # POT  SCF 100  7.0000   0, screened core-hole, AFOLP (folp(0)= 1.150)
# # Abs   Z=29 Rmt= 1.295 Rnm= 1.364 K  shell
# # Pot 1 Z= 3 Rmt= 1.323 Rnm= 1.396
# # Pot 2 Z=29 Rmt= 1.284 Rnm= 1.353
# # Pot 3 Z=15 Rmt= 0.939 Rnm= 1.154
# # Pot 4 Z= 8 Rmt= 0.873 Rnm= 1.038
# # Gam_ch=1.729E+00 H-L exch Vi= 0.000E+00 Vr= 0.000E+00
# # Mu=-5.771E+00eV kf=2.455E+00 Vint=-1.692E+01eV Rs_int= 1.477
# FMS rfms= 9.0000
# # PATH  Rmax=-1.000,  Keep_limit= 0.00, Heap_limit 0.00  Pwcrit= 2.50%
#  S02=0.950  Temp=   0.00  Debye_temp=   0.00  Global_sig2= 0.00000
#  Energy zero shift, vr, vi    0.00000E+00   0.00000E+00
#  Curved wave amplitude ratio filter   4.000%
#     file         sig2 tot  cw amp ratio   deg  nlegs   reff  inp sig2
#     0/   0 paths used
#  xsedge+ 50, used to normalize mu           2.4778E-04
#  -----------------------------------------------------------------------
#  omega    e    k    mu    mu0     chi     @#
    8983.371     -9.581  -1.000  4.69236E-02  5.60092E-02 -9.08559E-03
    8983.670     -9.283  -0.960  4.95914E-02  6.01727E-02 -1.05813E-02
    8983.956     -8.996  -0.920  5.24591E-02  6.48093E-02 -1.23501E-02
    8984.231     -8.722  -0.880  5.55452E-02  6.99896E-02 -1.44444E-02
    8984.493     -8.460  -0.840  5.88697E-02  7.57961E-02 -1.69265E-02
    8984.743     -8.210  -0.800  6.24546E-02  8.23246E-02 -1.98700E-02
    8984.981     -7.972  -0.760  6.63239E-02  8.96849E-02 -2.33610E-02
    8985.206     -7.747  -0.720  7.05028E-02  9.80015E-02 -2.74988E-02
    8985.419     -7.533  -0.680  7.50172E-02  1.07412E-01 -3.23945E-02
    8985.621     -7.332  -0.640  7.98922E-02  1.18061E-01 -3.81684E-02
    8985.810     -7.143  -0.600  8.51492E-02  1.30091E-01 -4.49418E-02
    8985.986     -6.966  -0.560  9.08011E-02  1.43625E-01 -5.28242E-02
    8986.151     -6.802  -0.520  9.68460E-02  1.58737E-01 -6.18912E-02
    8986.303     -6.649  -0.480  1.03257E-01  1.75412E-01 -7.21551E-02
    8986.444     -6.509  -0.440  1.09974E-01  1.93504E-01 -8.35296E-02
    8986.572     -6.381  -0.400  1.16892E-01  2.12693E-01 -9.58009E-02
    8986.687     -6.265  -0.360  1.23863E-01  2.32479E-01 -1.08616E-01
    8986.791     -6.162  -0.320  1.30702E-01  2.52212E-01 -1.21510E-01
    8986.883     -6.070  -0.280  1.37211E-01  2.71170E-01 -1.33959E-01
    8986.962     -5.991  -0.240  1.43196E-01  2.88660E-01 -1.45465E-01
    8987.029     -5.924  -0.200  1.48493E-01  3.04107E-01 -1.55613E-01
    8987.084     -5.869  -0.160  1.52975E-01  3.17089E-01 -1.64114E-01
    8987.126     -5.826  -0.120  1.56548E-01  3.27344E-01 -1.70796E-01
    8987.157     -5.796  -0.080  1.59149E-01  3.34726E-01 -1.75577E-01
    8987.181     -5.771   0.000  1.61272E-01  3.40654E-01 -1.79381E-01
    8987.236     -5.717   0.120  1.66068E-01  3.54005E-01 -1.87937E-01
    8987.279     -5.674   0.160  1.69812E-01  3.64367E-01 -1.94555E-01
    8987.334     -5.619   0.200  1.74666E-01  3.77582E-01 -2.02916E-01
    8987.401     -5.552   0.240  1.80652E-01  3.93430E-01 -2.12779E-01
    8987.480     -5.473   0.280  1.87863E-01  4.11588E-01 -2.23725E-01
    8987.571     -5.381   0.320  1.96335E-01  4.31539E-01 -2.35204E-01
    8987.675     -5.278   0.360  2.06252E-01  4.52693E-01 -2.46441E-01
    8987.791     -5.162   0.400  2.17804E-01  4.74338E-01 -2.56534E-01
    8987.919     -5.034   0.440  2.31351E-01  4.95925E-01 -2.64574E-01
    8988.059     -4.894   0.480  2.47357E-01  5.16977E-01 -2.69620E-01
    8988.211     -4.741   0.520  2.66362E-01  5.37203E-01 -2.70841E-01
    8988.376     -4.577   0.560  2.88987E-01  5.56430E-01 -2.67443E-01
    8988.553     -4.400   0.600  3.15983E-01  5.74690E-01 -2.58707E-01
    8988.742     -4.211   0.640  3.47993E-01  5.91988E-01 -2.43995E-01
    8988.943     -4.010   0.680  3.85415E-01  6.08434E-01 -2.23019E-01
    8989.156     -3.796   0.720  4.27676E-01  6.24176E-01 -1.96499E-01
    8989.382     -3.571   0.760  4.72668E-01  6.39278E-01 -1.66610E-01
    8989.620     -3.333   0.800  5.17754E-01  6.53898E-01 -1.36144E-01
    8989.870     -3.083   0.840  5.61570E-01  6.68076E-01 -1.06506E-01
    8990.132     -2.821   0.880  6.04753E-01  6.81900E-01 -7.71466E-02
    8990.406     -2.547   0.920  6.47643E-01  6.95421E-01 -4.77780E-02
    8990.693     -2.260   0.960  6.88005E-01  7.08720E-01 -2.07155E-02
    8990.991     -1.961   1.000  7.22301E-01  7.21762E-01  5.39373E-04
    8991.302     -1.651   1.040  7.50576E-01  7.34624E-01  1.59520E-02
    8991.625     -1.327   1.080  7.77974E-01  7.47297E-01  3.06768E-02
    8991.960     -0.992   1.120  8.11207E-01  7.59783E-01  5.14244E-02
    8992.308     -0.645   1.160  8.54100E-01  7.72094E-01  8.20060E-02
    8992.668     -0.285   1.200  9.05702E-01  7.84224E-01  1.21477E-01
    8993.039      0.087   1.240  9.58775E-01  7.96140E-01  1.62635E-01
    8993.424      0.471   1.280  9.99616E-01  8.07843E-01  1.91773E-01
    8993.820      0.867   1.320  1.01959E+00  8.19338E-01  2.00249E-01
    8994.228      1.276   1.360  1.02815E+00  8.30582E-01  1.97572E-01
    8994.649      1.696   1.400  1.04096E+00  8.41594E-01  1.99362E-01
    8995.082      2.129   1.440  1.06148E+00  8.52310E-01  2.09172E-01
    8995.527      2.574   1.480  1.08413E+00  8.62747E-01  2.21382E-01
    8995.984      3.031   1.520  1.10447E+00  8.72881E-01  2.31587E-01
    8996.453      3.501   1.560  1.12230E+00  8.82709E-01  2.39592E-01
    8996.935      3.982   1.600  1.13692E+00  8.92185E-01  2.44735E-01
    8997.429      4.476   1.640  1.15123E+00  9.01324E-01  2.49903E-01
    8997.935      4.982   1.680  1.16422E+00  9.10105E-01  2.54112E-01
    8998.453      5.500   1.720  1.16599E+00  9.18503E-01  2.47485E-01
    8998.983      6.030   1.760  1.15742E+00  9.26556E-01  2.30865E-01
    8999.526      6.573   1.800  1.15055E+00  9.34203E-01  2.16348E-01
    9000.080      7.128   1.840  1.15288E+00  9.41461E-01  2.11419E-01
    9000.647      7.695   1.880  1.16298E+00  9.48332E-01  2.14651E-01
    9001.226      8.274   1.920  1.17917E+00  9.54815E-01  2.24357E-01
    9001.818      8.865   1.960  1.20139E+00  9.60910E-01  2.40475E-01
    9002.421      9.469   2.000  1.21920E+00  9.66622E-01  2.52582E-01
    9003.037     10.084   2.040  1.21455E+00  9.71930E-01  2.42624E-01
    9003.665     10.712   2.080  1.18242E+00  9.76857E-01  2.05568E-01
    9004.305     11.352   2.120  1.13463E+00  9.81408E-01  1.53226E-01
    9004.957     12.004   2.160  1.08471E+00  9.85588E-01  9.91215E-02
    9005.622     12.669   2.200  1.04335E+00  9.89421E-01  5.39317E-02
    9006.298     13.346   2.240  1.01805E+00  9.92892E-01  2.51568E-02
    9006.987     14.034   2.280  1.00840E+00  9.96027E-01  1.23772E-02
    9007.688     14.735   2.320  1.00714E+00  9.98833E-01  8.30391E-03
    9008.401     15.449   2.360  1.00800E+00  1.00134E+00  6.66383E-03
    9009.127     16.174   2.400  1.01114E+00  1.00352E+00  7.61998E-03
    9009.864     16.912   2.440  1.01645E+00  1.00542E+00  1.10323E-02
    9010.614     17.662   2.480  1.01841E+00  1.00706E+00  1.13527E-02
    9011.376     18.424   2.520  1.01217E+00  1.00842E+00  3.75721E-03
    9012.150     19.198   2.560  9.97553E-01  1.00953E+00 -1.19759E-02
    9012.937     19.984   2.600  9.76787E-01  1.01042E+00 -3.36353E-02
    9013.735     20.783   2.640  9.52365E-01  1.01108E+00 -5.87183E-02
    9014.546     21.593   2.680  9.27432E-01  1.01156E+00 -8.41287E-02
    9015.369     22.416   2.720  9.06237E-01  1.01184E+00 -1.05603E-01
    9016.204     23.252   2.760  8.90055E-01  1.01195E+00 -1.21895E-01
    9017.052     24.099   2.800  8.76157E-01  1.01187E+00 -1.35717E-01
    9017.911     24.958   2.840  8.67050E-01  1.01168E+00 -1.44634E-01
    9018.783     25.830   2.880  8.66522E-01  1.01134E+00 -1.44822E-01
    9019.667     26.714   2.920  8.70039E-01  1.01088E+00 -1.40841E-01
    9020.563     27.610   2.960  8.75348E-01  1.01030E+00 -1.34952E-01
    9021.471     28.518   3.000  8.81746E-01  1.00965E+00 -1.27904E-01
    9022.392     29.439   3.040  8.89471E-01  1.00890E+00 -1.19424E-01
    9023.324     30.372   3.080  8.98474E-01  1.00806E+00 -1.09588E-01
    9024.269     31.316   3.120  9.08822E-01  1.00718E+00 -9.83544E-02
    9025.226     32.274   3.160  9.20495E-01  1.00624E+00 -8.57484E-02
    9026.195     33.243   3.200  9.33410E-01  1.00527E+00 -7.18577E-02
    9027.177     34.224   3.240  9.47516E-01  1.00425E+00 -5.67360E-02
    9028.171     35.218   3.280  9.62526E-01  1.00320E+00 -4.06771E-02
    9029.176     36.224   3.320  9.77826E-01  1.00214E+00 -2.43189E-02
    9030.194     37.242   3.360  9.92983E-01  1.00108E+00 -8.09834E-03
    9031.225     38.272   3.400  1.00755E+00  1.00002E+00  7.53323E-03
    9032.267     39.314   3.440  1.02106E+00  9.98977E-01  2.20868E-02
    9033.322     40.369   3.480  1.03303E+00  9.97919E-01  3.51135E-02
    9034.388     41.436   3.520  1.04297E+00  9.96890E-01  4.60854E-02
    9035.467     42.515   3.560  1.05030E+00  9.95890E-01  5.44146E-02
    9036.559     43.606   3.600  1.05469E+00  9.94902E-01  5.97887E-02
    9037.662     44.709   3.640  1.05627E+00  9.93948E-01  6.23220E-02
    9038.778     45.825   3.680  1.05547E+00  9.93033E-01  6.24328E-02
    9039.905     46.953   3.720  1.05283E+00  9.92157E-01  6.06746E-02
    9041.045     48.093   3.760  1.04898E+00  9.91322E-01  5.76633E-02
    9042.197     49.245   3.800  1.04447E+00  9.90549E-01  5.39226E-02
    9043.362     50.409   3.840  1.03963E+00  9.89800E-01  4.98289E-02
    9044.538     51.586   3.880  1.03474E+00  9.89116E-01  4.56193E-02
    9045.727     52.774   3.920  1.02979E+00  9.88498E-01  4.12884E-02
    9046.928     53.975   3.960  1.02457E+00  9.87905E-01  3.66671E-02
    9048.141     55.188   4.000  1.01895E+00  9.87377E-01  3.15699E-02
    9049.366     56.414   4.040  1.01284E+00  9.86896E-01  2.59430E-02
    9050.604     57.651   4.080  1.00630E+00  9.86483E-01  1.98158E-02
    9051.853     58.901   4.120  9.99441E-01  9.86116E-01  1.33250E-02
    9053.115     60.163   4.160  9.92537E-01  9.85795E-01  6.74246E-03
    9054.389     61.437   4.200  9.86023E-01  9.85542E-01  4.81427E-04
    9055.676     62.723   4.240  9.80355E-01  9.85336E-01 -4.98129E-03
    9056.974     64.021   4.280  9.76008E-01  9.85198E-01 -9.18979E-03
    9058.285     65.332   4.320  9.73257E-01  9.85105E-01 -1.18484E-02
    9059.607     66.655   4.360  9.72182E-01  9.85055E-01 -1.28730E-02
    9060.943     67.990   4.400  9.72676E-01  9.85049E-01 -1.23725E-02
    9062.290     69.337   4.440  9.74474E-01  9.85105E-01 -1.06315E-02
    9063.649     70.696   4.480  9.77137E-01  9.85183E-01 -8.04572E-03
    9065.021     72.068   4.520  9.80276E-01  9.85323E-01 -5.04712E-03
    9066.405     73.452   4.560  9.83465E-01  9.85502E-01 -2.03668E-03
    9067.800     74.848   4.600  9.86366E-01  9.85698E-01  6.67528E-04
    9069.209     76.256   4.640  9.88780E-01  9.85953E-01  2.82764E-03
    9070.629     77.676   4.680  9.90510E-01  9.86221E-01  4.28871E-03
    9072.062     79.109   4.720  9.91546E-01  9.86524E-01  5.02190E-03
    9073.506     80.554   4.760  9.92025E-01  9.86861E-01  5.16387E-03
    9074.963     82.011   4.800  9.92231E-01  9.87207E-01  5.02345E-03
    9076.432     83.480   4.840  9.92525E-01  9.87583E-01  4.94248E-03
    9077.914     84.961   4.880  9.93087E-01  9.87965E-01  5.12218E-03
    9079.407     86.455   4.920  9.93871E-01  9.88353E-01  5.51798E-03
    9080.913     87.960   4.960  9.94627E-01  9.88767E-01  5.85968E-03
    9082.431     89.478   5.000  9.94978E-01  9.89185E-01  5.79320E-03
    9083.961     91.008   5.040  9.94690E-01  9.89604E-01  5.08606E-03
    9085.503     92.551   5.080  9.93778E-01  9.90022E-01  3.75558E-03
    9087.058     94.105   5.120  9.92424E-01  9.90439E-01  1.98451E-03
    9088.624     95.672   5.160  9.90733E-01  9.90854E-01 -1.21695E-04
    9090.203     97.251   5.200  9.88593E-01  9.91265E-01 -2.67129E-03
    9091.794     98.842   5.240  9.85754E-01  9.91648E-01 -5.89404E-03
    9093.397    100.445   5.280  9.82170E-01  9.92046E-01 -9.87617E-03
    9095.013    102.060   5.320  9.77995E-01  9.92392E-01 -1.43968E-02
    9096.641    103.688   5.360  9.73749E-01  9.92727E-01 -1.89773E-02
    9098.280    105.328   5.400  9.69998E-01  9.93051E-01 -2.30529E-02
    9099.932    106.980   5.440  9.67212E-01  9.93343E-01 -2.61311E-02
    9101.597    108.644   5.480  9.65757E-01  9.93600E-01 -2.78433E-02
    9103.273    110.320   5.520  9.65883E-01  9.93845E-01 -2.79620E-02
    9104.962    112.009   5.560  9.67640E-01  9.94053E-01 -2.64134E-02
    9106.662    113.710   5.600  9.70928E-01  9.94224E-01 -2.32963E-02
    9108.375    115.423   5.640  9.75438E-01  9.94357E-01 -1.89193E-02
    9110.100    117.148   5.680  9.80659E-01  9.94474E-01 -1.38154E-02
    9111.838    118.885   5.720  9.85871E-01  9.94529E-01 -8.65827E-03
    9113.587    120.635   5.760  9.90504E-01  9.94544E-01 -4.04025E-03
    9115.349    122.396   5.800  9.94289E-01  9.94544E-01 -2.55096E-04
    9117.123    124.170   5.840  9.97228E-01  9.94483E-01  2.74538E-03
    9118.909    125.956   5.880  9.99605E-01  9.94407E-01  5.19762E-03
    9120.707    127.755   5.920  1.00161E+00  9.94293E-01  7.31645E-03
    9122.518    129.565   5.960  1.00326E+00  9.94112E-01  9.14442E-03
    9124.341    131.388   6.000  1.00449E+00  9.93893E-01  1.05928E-02
