# # comment:                                                     FEFF 9.9.1  
# # Source:
# # Structure
# # Reduced
# # space
# # abc:
# # angles:
# # sites:
# # POT  SCF 100  7.0000   0, screened core-hole, AFOLP (folp(0)= 1.150)
# # Abs   Z=29 Rmt= 1.126 Rnm= 1.254 K  shell
# # Pot 1 Z= 3 Rmt= 1.213 Rnm= 1.280
# # Pot 2 Z=29 Rmt= 1.142 Rnm= 1.264
# # Pot 3 Z= 8 Rmt= 1.027 Rnm= 1.119
# # Gam_ch=1.729E+00 H-L exch Vi= 0.000E+00 Vr= 0.000E+00
# # Mu=-8.190E+00eV kf=2.085E+00 Vint=-1.597E+01eV Rs_int= 1.740
# FMS rfms= 9.0000
# # PATH  Rmax=-1.000,  Keep_limit= 0.00, Heap_limit 0.00  Pwcrit= 2.50%
#  S02=0.950  Temp=   0.00  Debye_temp=   0.00  Global_sig2= 0.00000
#  Energy zero shift, vr, vi    0.00000E+00   0.00000E+00
#  Curved wave amplitude ratio filter   4.000%
#     file         sig2 tot  cw amp ratio   deg  nlegs   reff  inp sig2
#     0/   0 paths used
#  xsedge+ 50, used to normalize mu           2.4384E-04
#  -----------------------------------------------------------------------
#  omega    e    k    mu    mu0     chi     @#
    8984.174    -12.000  -1.000  3.54022E-02  5.51922E-02 -1.97901E-02
    8984.473    -11.701  -0.960  3.72955E-02  5.91772E-02 -2.18817E-02
    8984.759    -11.414  -0.920  3.93491E-02  6.36002E-02 -2.42511E-02
    8985.034    -11.140  -0.880  4.15822E-02  6.85251E-02 -2.69429E-02
    8985.296    -10.878  -0.840  4.40160E-02  7.40260E-02 -3.00100E-02
    8985.546    -10.628  -0.800  4.66743E-02  8.01888E-02 -3.35145E-02
    8985.783    -10.390  -0.760  4.95828E-02  8.71119E-02 -3.75291E-02
    8986.009    -10.165  -0.720  5.27691E-02  9.49063E-02 -4.21372E-02
    8986.222     -9.951  -0.680  5.62614E-02  1.03694E-01 -4.74325E-02
    8986.423     -9.750  -0.640  6.00877E-02  1.13604E-01 -5.35159E-02
    8986.612     -9.561  -0.600  6.42727E-02  1.24761E-01 -6.04887E-02
    8986.789     -9.385  -0.560  6.88348E-02  1.37275E-01 -6.84400E-02
    8986.954     -9.220  -0.520  7.37807E-02  1.51207E-01 -7.74261E-02
    8987.106     -9.068  -0.480  7.90998E-02  1.66542E-01 -8.74422E-02
    8987.246     -8.927  -0.440  8.47566E-02  1.83146E-01 -9.83899E-02
    8987.374     -8.799  -0.400  9.06843E-02  2.00733E-01 -1.10049E-01
    8987.490     -8.684  -0.360  9.67815E-02  2.18852E-01 -1.22070E-01
    8987.594     -8.580  -0.320  1.02913E-01  2.36917E-01 -1.34004E-01
    8987.685     -8.488  -0.280  1.08916E-01  2.54279E-01 -1.45363E-01
    8987.765     -8.409  -0.240  1.14614E-01  2.70312E-01 -1.55697E-01
    8987.832     -8.342  -0.200  1.19826E-01  2.84488E-01 -1.64662E-01
    8987.886     -8.287  -0.160  1.24378E-01  2.96420E-01 -1.72041E-01
    8987.929     -8.245  -0.120  1.28117E-01  3.05858E-01 -1.77741E-01
    8987.960     -8.214  -0.080  1.30914E-01  3.12662E-01 -1.81748E-01
    8987.984     -8.190   0.000  1.33283E-01  3.18131E-01 -1.84848E-01
    8988.039     -8.135   0.120  1.38644E-01  3.30454E-01 -1.91810E-01
    8988.082     -8.092   0.160  1.42916E-01  3.40056E-01 -1.97140E-01
    8988.136     -8.037   0.200  1.48635E-01  3.52341E-01 -2.03706E-01
    8988.203     -7.970   0.240  1.55942E-01  3.67114E-01 -2.11171E-01
    8988.283     -7.891   0.280  1.65134E-01  3.84140E-01 -2.19006E-01
    8988.374     -7.800   0.320  1.76498E-01  4.02971E-01 -2.26473E-01
    8988.478     -7.696   0.360  1.90426E-01  4.23117E-01 -2.32691E-01
    8988.594     -7.580   0.400  2.07247E-01  4.43992E-01 -2.36745E-01
    8988.722     -7.452   0.440  2.27313E-01  4.65119E-01 -2.37806E-01
    8988.862     -7.312   0.480  2.50601E-01  4.86111E-01 -2.35510E-01
    8989.014     -7.160   0.520  2.76208E-01  5.06660E-01 -2.30452E-01
    8989.179     -6.995   0.560  3.01836E-01  5.26692E-01 -2.24856E-01
    8989.356     -6.818   0.600  3.22936E-01  5.46132E-01 -2.23196E-01
    8989.545     -6.629   0.640  3.33792E-01  5.65052E-01 -2.31260E-01
    8989.746     -6.428   0.680  3.30919E-01  5.83498E-01 -2.52579E-01
    8989.959     -6.215   0.720  3.16311E-01  6.01548E-01 -2.85237E-01
    8990.185     -5.989   0.760  2.95932E-01  6.19276E-01 -3.23344E-01
    8990.422     -5.751   0.800  2.75408E-01  6.36770E-01 -3.61362E-01
    8990.672     -5.501   0.840  2.57936E-01  6.54041E-01 -3.96105E-01
    8990.934     -5.239   0.880  2.45216E-01  6.71149E-01 -4.25933E-01
    8991.209     -4.965   0.920  2.38382E-01  6.88098E-01 -4.49716E-01
    8991.495     -4.678   0.960  2.38046E-01  7.04903E-01 -4.66857E-01
    8991.794     -4.380   1.000  2.43249E-01  7.21566E-01 -4.78316E-01
    8992.105     -4.069   1.040  2.50846E-01  7.38061E-01 -4.87215E-01
    8992.428     -3.746   1.080  2.57768E-01  7.54355E-01 -4.96587E-01
    8992.763     -3.410   1.120  2.64651E-01  7.70450E-01 -5.05799E-01
    8993.111     -3.063   1.160  2.74947E-01  7.86302E-01 -5.11356E-01
    8993.470     -2.703   1.200  2.91321E-01  8.01842E-01 -5.10521E-01
    8993.842     -2.331   1.240  3.14671E-01  8.17082E-01 -5.02410E-01
    8994.226     -1.947   1.280  3.44992E-01  8.31970E-01 -4.86978E-01
    8994.622     -1.551   1.320  3.82820E-01  8.46453E-01 -4.63633E-01
    8995.031     -1.143   1.360  4.31236E-01  8.60519E-01 -4.29283E-01
    8995.452     -0.722   1.400  4.97572E-01  8.74095E-01 -3.76523E-01
    8995.884     -0.289   1.440  5.93237E-01  8.87188E-01 -2.93951E-01
    8996.329      0.156   1.480  7.25680E-01  8.99768E-01 -1.74088E-01
    8996.787      0.613   1.520  8.70127E-01  9.11784E-01 -4.16572E-02
    8997.256      1.082   1.560  9.44647E-01  9.23228E-01  2.14187E-02
    8997.738      1.564   1.600  9.02464E-01  9.34093E-01 -3.16286E-02
    8998.231      2.058   1.640  8.12779E-01  9.44354E-01 -1.31575E-01
    8998.737      2.564   1.680  7.52268E-01  9.53988E-01 -2.01719E-01
    8999.255      3.082   1.720  7.43542E-01  9.63013E-01 -2.19471E-01
    8999.786      3.612   1.760  7.87252E-01  9.71430E-01 -1.84179E-01
    9000.328      4.155   1.800  8.82817E-01  9.79221E-01 -9.64046E-02
    9000.883      4.709   1.840  1.01704E+00  9.86389E-01  3.06526E-02
    9001.450      5.276   1.880  1.14522E+00  9.92960E-01  1.52263E-01
    9002.029      5.855   1.920  1.22159E+00  9.98942E-01  2.22653E-01
    9002.620      6.447   1.960  1.25065E+00  1.00434E+00  2.46312E-01
    9003.224      7.050   2.000  1.26995E+00  1.00919E+00  2.60765E-01
    9003.840      7.666   2.040  1.29447E+00  1.01349E+00  2.80978E-01
    9004.467      8.294   2.080  1.31037E+00  1.01729E+00  2.93085E-01
    9005.108      8.934   2.120  1.30825E+00  1.02058E+00  2.87667E-01
    9005.760      9.586   2.160  1.30026E+00  1.02339E+00  2.76868E-01
    9006.424     10.251   2.200  1.29618E+00  1.02577E+00  2.70418E-01
    9007.101     10.927   2.240  1.29052E+00  1.02770E+00  2.62819E-01
    9007.790     11.616   2.280  1.28313E+00  1.02925E+00  2.53887E-01
    9008.491     12.317   2.320  1.29057E+00  1.03042E+00  2.60145E-01
    9009.204     13.030   2.360  1.32930E+00  1.03125E+00  2.98048E-01
    9009.929     13.756   2.400  1.39068E+00  1.03176E+00  3.58914E-01
    9010.667     14.493   2.440  1.43809E+00  1.03198E+00  4.06114E-01
    9011.417     15.243   2.480  1.43515E+00  1.03193E+00  4.03222E-01
    9012.179     16.005   2.520  1.36099E+00  1.03164E+00  3.29352E-01
    9012.953     16.779   2.560  1.27294E+00  1.03110E+00  2.41835E-01
    9013.739     17.566   2.600  1.19759E+00  1.03039E+00  1.67200E-01
    9014.538     18.364   2.640  1.14277E+00  1.02948E+00  1.13296E-01
    9015.349     19.175   2.680  1.10504E+00  1.02843E+00  7.66129E-02
    9016.172     19.998   2.720  1.07843E+00  1.02723E+00  5.12032E-02
    9017.007     20.833   2.760  1.05766E+00  1.02592E+00  3.17390E-02
    9017.854     21.681   2.800  1.03882E+00  1.02450E+00  1.43134E-02
    9018.714     22.540   2.840  1.01999E+00  1.02300E+00 -3.01131E-03
    9019.585     23.412   2.880  1.00070E+00  1.02145E+00 -2.07531E-02
    9020.469     24.296   2.920  9.80819E-01  1.01985E+00 -3.90261E-02
    9021.366     25.192   2.960  9.60949E-01  1.01820E+00 -5.72548E-02
    9022.274     26.100   3.000  9.42332E-01  1.01653E+00 -7.41962E-02
    9023.194     27.021   3.040  9.26362E-01  1.01485E+00 -8.84836E-02
    9024.127     27.953   3.080  9.14031E-01  1.01316E+00 -9.91323E-02
    9025.072     28.898   3.120  9.05874E-01  1.01151E+00 -1.05632E-01
    9026.029     29.855   3.160  9.01584E-01  1.00986E+00 -1.08277E-01
    9026.998     30.825   3.200  9.00403E-01  1.00825E+00 -1.07847E-01
    9027.980     31.806   3.240  9.01450E-01  1.00668E+00 -1.05229E-01
    9028.973     32.800   3.280  9.03668E-01  1.00517E+00 -1.01504E-01
    9029.979     33.805   3.320  9.06022E-01  1.00369E+00 -9.76663E-02
    9030.997     34.823   3.360  9.07718E-01  1.00228E+00 -9.45578E-02
    9032.027     35.854   3.400  9.08045E-01  1.00094E+00 -9.28917E-02
    9033.070     36.896   3.440  9.06337E-01  9.99651E-01 -9.33138E-02
    9034.124     37.951   3.480  9.02393E-01  9.98464E-01 -9.60711E-02
    9035.191     39.017   3.520  8.96566E-01  9.97337E-01 -1.00771E-01
    9036.270     40.096   3.560  8.89692E-01  9.96289E-01 -1.06597E-01
    9037.361     41.188   3.600  8.82903E-01  9.95345E-01 -1.12442E-01
    9038.465     42.291   3.640  8.77240E-01  9.94464E-01 -1.17224E-01
    9039.580     43.407   3.680  8.73659E-01  9.93688E-01 -1.20029E-01
    9040.708     44.534   3.720  8.72504E-01  9.92996E-01 -1.20491E-01
    9041.848     45.674   3.760  8.74040E-01  9.92389E-01 -1.18349E-01
    9043.000     46.826   3.800  8.78393E-01  9.91867E-01 -1.13474E-01
    9044.164     47.991   3.840  8.85551E-01  9.91453E-01 -1.05902E-01
    9045.341     49.167   3.880  8.95309E-01  9.91125E-01 -9.58155E-02
    9046.530     50.356   3.920  9.07430E-01  9.90879E-01 -8.34491E-02
    9047.731     51.557   3.960  9.21610E-01  9.90717E-01 -6.91076E-02
    9048.944     52.770   4.000  9.37565E-01  9.90639E-01 -5.30738E-02
    9050.169     53.995   4.040  9.55170E-01  9.90665E-01 -3.54948E-02
    9051.406     55.233   4.080  9.74126E-01  9.90751E-01 -1.66249E-02
    9052.656     56.482   4.120  9.93756E-01  9.90917E-01  2.83893E-03
    9053.918     57.744   4.160  1.01293E+00  9.91185E-01  2.17458E-02
    9055.192     59.018   4.200  1.03012E+00  9.91510E-01  3.86067E-02
    9056.478     60.305   4.240  1.04389E+00  9.91910E-01  5.19802E-02
    9057.777     61.603   4.280  1.05348E+00  9.92362E-01  6.11141E-02
    9059.087     62.914   4.320  1.05928E+00  9.92910E-01  6.63723E-02
    9060.410     64.237   4.360  1.06263E+00  9.93486E-01  6.91409E-02
    9061.745     65.572   4.400  1.06526E+00  9.94131E-01  7.11268E-02
    9063.092     66.919   4.440  1.06862E+00  9.94845E-01  7.37702E-02
    9064.452     68.278   4.480  1.07331E+00  9.95580E-01  7.77300E-02
    9065.823     69.650   4.520  1.07928E+00  9.96378E-01  8.29004E-02
    9067.207     71.034   4.560  1.08571E+00  9.97194E-01  8.85175E-02
    9068.603     72.430   4.600  1.09135E+00  9.98069E-01  9.32848E-02
    9070.011     73.838   4.640  1.09454E+00  9.98958E-01  9.55816E-02
    9071.432     75.258   4.680  1.09383E+00  9.99878E-01  9.39476E-02
    9072.864     76.691   4.720  1.08838E+00  1.00081E+00  8.75751E-02
    9074.309     78.135   4.760  1.07845E+00  1.00174E+00  7.67078E-02
    9075.766     79.592   4.800  1.06540E+00  1.00270E+00  6.27009E-02
    9077.235     81.061   4.840  1.05118E+00  1.00366E+00  4.75193E-02
    9078.716     82.543   4.880  1.03772E+00  1.00463E+00  3.30965E-02
    9080.210     84.036   4.920  1.02649E+00  1.00559E+00  2.09078E-02
    9081.716     85.542   4.960  1.01838E+00  1.00654E+00  1.18373E-02
    9083.234     87.060   5.000  1.01374E+00  1.00747E+00  6.26806E-03
    9084.764     88.590   5.040  1.01253E+00  1.00839E+00  4.14497E-03
    9086.306     90.132   5.080  1.01420E+00  1.00927E+00  4.93581E-03
    9087.860     91.687   5.120  1.01780E+00  1.01014E+00  7.66244E-03
    9089.427     93.253   5.160  1.02202E+00  1.01097E+00  1.10539E-02
    9091.006     94.832   5.200  1.02564E+00  1.01174E+00  1.39039E-02
    9092.597     96.423   5.240  1.02804E+00  1.01249E+00  1.55508E-02
    9094.200     98.027   5.280  1.02933E+00  1.01320E+00  1.61331E-02
    9095.816     99.642   5.320  1.03025E+00  1.01386E+00  1.63912E-02
    9097.443    101.270   5.360  1.03148E+00  1.01446E+00  1.70189E-02
    9099.083    102.909   5.400  1.03304E+00  1.01503E+00  1.80041E-02
    9100.735    104.561   5.440  1.03394E+00  1.01554E+00  1.84048E-02
    9102.399    106.226   5.480  1.03269E+00  1.01597E+00  1.67294E-02
    9104.076    107.902   5.520  1.02794E+00  1.01634E+00  1.15957E-02
    9105.764    109.591   5.560  1.01902E+00  1.01665E+00  2.37207E-03
    9107.465    111.291   5.600  1.00652E+00  1.01690E+00 -1.03849E-02
    9109.178    113.004   5.640  9.92197E-01  1.01709E+00 -2.48883E-02
    9110.903    114.729   5.680  9.78513E-01  1.01722E+00 -3.87033E-02
    9112.641    116.467   5.720  9.67504E-01  1.01727E+00 -4.97700E-02
    9114.390    118.216   5.760  9.60254E-01  1.01728E+00 -5.70269E-02
    9116.152    119.978   5.800  9.56731E-01  1.01721E+00 -6.04815E-02
    9117.926    121.752   5.840  9.56108E-01  1.01707E+00 -6.09628E-02
    9119.712    123.538   5.880  9.57178E-01  1.01688E+00 -5.97006E-02
    9121.510    125.336   5.920  9.58915E-01  1.01661E+00 -5.76965E-02
    9123.321    127.147   5.960  9.61042E-01  1.01626E+00 -5.52215E-02
    9125.143    128.970   6.000  9.63932E-01  1.01582E+00 -5.18840E-02
