# # comment:                                                     FEFF 9.9.1  
# # Source:
# # Structure
# # Reduced
# # space
# # abc:
# # angles:
# # sites:
# # POT  SCF 100  7.0000   0, screened core-hole, AFOLP (folp(0)= 1.150)
# # Abs   Z=29 Rmt= 1.256 Rnm= 1.326 K  shell
# # Pot 1 Z= 3 Rmt= 1.247 Rnm= 1.310
# # Pot 2 Z=29 Rmt= 1.256 Rnm= 1.326
# # Pot 3 Z=14 Rmt= 1.011 Rnm= 1.219
# # Pot 4 Z= 8 Rmt= 0.966 Rnm= 1.073
# # Gam_ch=1.729E+00 H-L exch Vi= 0.000E+00 Vr= 0.000E+00
# # Mu=-7.747E+00eV kf=2.249E+00 Vint=-1.725E+01eV Rs_int= 1.613
# FMS rfms= 9.0000
# # PATH  Rmax=-1.000,  Keep_limit= 0.00, Heap_limit 0.00  Pwcrit= 2.50%
#  S02=0.950  Temp=   0.00  Debye_temp=   0.00  Global_sig2= 0.00000
#  Energy zero shift, vr, vi    0.00000E+00   0.00000E+00
#  Curved wave amplitude ratio filter   4.000%
#     file         sig2 tot  cw amp ratio   deg  nlegs   reff  inp sig2
#     0/   0 paths used
#  xsedge+ 50, used to normalize mu           2.4654E-04
#  -----------------------------------------------------------------------
#  omega    e    k    mu    mu0     chi     @#
    8984.005    -11.557  -1.000  4.07592E-02  5.51501E-02 -1.43908E-02
    8984.304    -11.258  -0.960  4.30168E-02  5.92009E-02 -1.61840E-02
    8984.590    -10.972  -0.920  4.54587E-02  6.37063E-02 -1.82476E-02
    8984.865    -10.697  -0.880  4.81061E-02  6.87337E-02 -2.06276E-02
    8985.127    -10.435  -0.840  5.09833E-02  7.43615E-02 -2.33781E-02
    8985.377    -10.185  -0.800  5.41179E-02  8.06805E-02 -2.65626E-02
    8985.615     -9.947  -0.760  5.75406E-02  8.77952E-02 -3.02546E-02
    8985.840     -9.722  -0.720  6.12856E-02  9.58236E-02 -3.45380E-02
    8986.054     -9.509  -0.680  6.53893E-02  1.04896E-01 -3.95063E-02
    8986.255     -9.307  -0.640  6.98893E-02  1.15149E-01 -4.52594E-02
    8986.444     -9.118  -0.600  7.48205E-02  1.26718E-01 -5.18973E-02
    8986.620     -8.942  -0.560  8.02102E-02  1.39718E-01 -5.95079E-02
    8986.785     -8.777  -0.520  8.60697E-02  1.54219E-01 -6.81490E-02
    8986.937     -8.625  -0.480  9.23830E-02  1.70205E-01 -7.78219E-02
    8987.078     -8.484  -0.440  9.90938E-02  1.87536E-01 -8.84423E-02
    8987.206     -8.356  -0.400  1.06095E-01  2.05910E-01 -9.98143E-02
    8987.321     -8.241  -0.360  1.13227E-01  2.24849E-01 -1.11622E-01
    8987.425     -8.137  -0.320  1.20283E-01  2.43736E-01 -1.23453E-01
    8987.517     -8.046  -0.280  1.27038E-01  2.61883E-01 -1.34845E-01
    8987.596     -7.966  -0.240  1.33272E-01  2.78631E-01 -1.45359E-01
    8987.663     -7.899  -0.200  1.38797E-01  2.93428E-01 -1.54631E-01
    8987.718     -7.844  -0.160  1.43471E-01  3.05872E-01 -1.62401E-01
    8987.760     -7.802  -0.120  1.47193E-01  3.15705E-01 -1.68512E-01
    8987.791     -7.771  -0.080  1.49899E-01  3.22787E-01 -1.72888E-01
    8987.815     -7.747   0.000  1.52110E-01  3.28475E-01 -1.76366E-01
    8987.870     -7.692   0.120  1.56993E-01  3.41299E-01 -1.84306E-01
    8987.913     -7.649   0.160  1.60796E-01  3.51268E-01 -1.90471E-01
    8987.968     -7.594   0.200  1.65712E-01  3.63988E-01 -1.98276E-01
    8988.035     -7.527   0.240  1.71704E-01  3.79260E-01 -2.07556E-01
    8988.114     -7.448   0.280  1.78773E-01  3.96790E-01 -2.18016E-01
    8988.205     -7.357   0.320  1.86877E-01  4.16102E-01 -2.29224E-01
    8988.309     -7.253   0.360  1.96036E-01  4.36629E-01 -2.40593E-01
    8988.425     -7.137   0.400  2.06293E-01  4.57770E-01 -2.51477E-01
    8988.553     -7.009   0.440  2.17796E-01  4.78953E-01 -2.61157E-01
    8988.693     -6.869   0.480  2.30803E-01  4.99733E-01 -2.68930E-01
    8988.845     -6.717   0.520  2.45709E-01  5.19862E-01 -2.74153E-01
    8989.010     -6.552   0.560  2.62777E-01  5.39195E-01 -2.76417E-01
    8989.187     -6.375   0.600  2.82038E-01  5.57678E-01 -2.75640E-01
    8989.376     -6.186   0.640  3.03186E-01  5.75414E-01 -2.72227E-01
    8989.577     -5.985   0.680  3.25471E-01  5.92418E-01 -2.66947E-01
    8989.790     -5.772   0.720  3.48173E-01  6.08848E-01 -2.60675E-01
    8990.016     -5.546   0.760  3.70625E-01  6.24777E-01 -2.54152E-01
    8990.254     -5.308   0.800  3.92628E-01  6.40286E-01 -2.47658E-01
    8990.504     -5.059   0.840  4.14607E-01  6.55465E-01 -2.40858E-01
    8990.766     -4.796   0.880  4.36186E-01  6.70351E-01 -2.34166E-01
    8991.040     -4.522   0.920  4.53887E-01  6.84984E-01 -2.31097E-01
    8991.327     -4.236   0.960  4.62338E-01  6.99414E-01 -2.37076E-01
    8991.625     -3.937   1.000  4.60184E-01  7.13659E-01 -2.53475E-01
    8991.936     -3.626   1.040  4.53493E-01  7.27705E-01 -2.74213E-01
    8992.259     -3.303   1.080  4.52879E-01  7.41577E-01 -2.88698E-01
    8992.594     -2.968   1.120  4.67222E-01  7.55245E-01 -2.88023E-01
    8992.942     -2.620   1.160  4.98805E-01  7.68699E-01 -2.69894E-01
    8993.302     -2.260   1.200  5.40952E-01  7.81945E-01 -2.40992E-01
    8993.673     -1.889   1.240  5.78758E-01  7.94963E-01 -2.16204E-01
    8994.058     -1.505   1.280  6.00718E-01  8.07711E-01 -2.06993E-01
    8994.454     -1.108   1.320  6.12509E-01  8.20167E-01 -2.07658E-01
    8994.862     -0.700   1.360  6.31126E-01  8.32345E-01 -2.01219E-01
    8995.283     -0.279   1.400  6.71279E-01  8.44180E-01 -1.72901E-01
    8995.716      0.154   1.440  7.37019E-01  8.55687E-01 -1.18668E-01
    8996.161      0.599   1.480  8.21172E-01  8.66819E-01 -4.56472E-02
    8996.618      1.056   1.520  9.18455E-01  8.77549E-01  4.09053E-02
    8997.087      1.525   1.560  1.02759E+00  8.87894E-01  1.39694E-01
    8997.569      2.007   1.600  1.13731E+00  8.97827E-01  2.39483E-01
    8998.063      2.500   1.640  1.23302E+00  9.07345E-01  3.25674E-01
    8998.569      3.006   1.680  1.31217E+00  9.16404E-01  3.95767E-01
    8999.087      3.525   1.720  1.36685E+00  9.25022E-01  4.41831E-01
    8999.617      4.055   1.760  1.38915E+00  9.33177E-01  4.55973E-01
    9000.160      4.598   1.800  1.39181E+00  9.40890E-01  4.50921E-01
    9000.714      5.152   1.840  1.37920E+00  9.48140E-01  4.31060E-01
    9001.281      5.719   1.880  1.33582E+00  9.54931E-01  3.80887E-01
    9001.860      6.298   1.920  1.25943E+00  9.61284E-01  2.98145E-01
    9002.452      6.890   1.960  1.16956E+00  9.67183E-01  2.02376E-01
    9003.055      7.493   2.000  1.08899E+00  9.72651E-01  1.16341E-01
    9003.671      8.109   2.040  1.03363E+00  9.77674E-01  5.59517E-02
    9004.299      8.737   2.080  1.01135E+00  9.82279E-01  2.90675E-02
    9004.939      9.377   2.120  1.01930E+00  9.86471E-01  3.28316E-02
    9005.591     10.029   2.160  1.04677E+00  9.90278E-01  5.64962E-02
    9006.256     10.693   2.200  1.07783E+00  9.93708E-01  8.41267E-02
    9006.932     11.370   2.240  1.09661E+00  9.96769E-01  9.98392E-02
    9007.621     12.059   2.280  1.09573E+00  9.99489E-01  9.62453E-02
    9008.322     12.760   2.320  1.08269E+00  1.00186E+00  8.08304E-02
    9009.035     13.473   2.360  1.07392E+00  1.00392E+00  6.99951E-02
    9009.761     14.199   2.400  1.08117E+00  1.00569E+00  7.54783E-02
    9010.498     14.936   2.440  1.10309E+00  1.00718E+00  9.59124E-02
    9011.248     15.686   2.480  1.12772E+00  1.00840E+00  1.19320E-01
    9012.010     16.448   2.520  1.14154E+00  1.00938E+00  1.32155E-01
    9012.784     17.222   2.560  1.13958E+00  1.01013E+00  1.29453E-01
    9013.571     18.009   2.600  1.12412E+00  1.01066E+00  1.13462E-01
    9014.369     18.807   2.640  1.09963E+00  1.01099E+00  8.86441E-02
    9015.180     19.618   2.680  1.07139E+00  1.01114E+00  6.02445E-02
    9016.003     20.441   2.720  1.04632E+00  1.01116E+00  3.51622E-02
    9016.838     21.276   2.760  1.02288E+00  1.01099E+00  1.18848E-02
    9017.686     22.123   2.800  9.99391E-01  1.01072E+00 -1.13317E-02
    9018.545     22.983   2.840  9.73954E-01  1.01031E+00 -3.63532E-02
    9019.417     23.855   2.880  9.46878E-01  1.00980E+00 -6.29196E-02
    9020.301     24.739   2.920  9.21139E-01  1.00920E+00 -8.80619E-02
    9021.197     25.635   2.960  8.99753E-01  1.00852E+00 -1.08771E-01
    9022.105     26.543   3.000  8.84438E-01  1.00779E+00 -1.23354E-01
    9023.026     27.464   3.040  8.74426E-01  1.00699E+00 -1.32564E-01
    9023.958     28.396   3.080  8.68588E-01  1.00614E+00 -1.37556E-01
    9024.903     29.341   3.120  8.65877E-01  1.00528E+00 -1.39404E-01
    9025.860     30.298   3.160  8.65280E-01  1.00438E+00 -1.39103E-01
    9026.829     31.267   3.200  8.66015E-01  1.00345E+00 -1.37439E-01
    9027.811     32.249   3.240  8.67649E-01  1.00254E+00 -1.34892E-01
    9028.805     33.242   3.280  8.69975E-01  1.00161E+00 -1.31633E-01
    9029.810     34.248   3.320  8.72805E-01  1.00070E+00 -1.27890E-01
    9030.828     35.266   3.360  8.76278E-01  9.99788E-01 -1.23510E-01
    9031.859     36.297   3.400  8.80682E-01  9.98888E-01 -1.18206E-01
    9032.901     37.339   3.440  8.86197E-01  9.98019E-01 -1.11822E-01
    9033.956     38.394   3.480  8.92876E-01  9.97185E-01 -1.04309E-01
    9035.022     39.460   3.520  9.00680E-01  9.96389E-01 -9.57090E-02
    9036.101     40.539   3.560  9.09666E-01  9.95630E-01 -8.59644E-02
    9037.193     41.631   3.600  9.19938E-01  9.94911E-01 -7.49727E-02
    9038.296     42.734   3.640  9.31897E-01  9.94211E-01 -6.23145E-02
    9039.412     43.849   3.680  9.45943E-01  9.93596E-01 -4.76531E-02
    9040.539     44.977   3.720  9.62041E-01  9.93003E-01 -3.09611E-02
    9041.679     46.117   3.760  9.79969E-01  9.92453E-01 -1.24846E-02
    9042.831     47.269   3.800  9.99295E-01  9.91972E-01  7.32329E-03
    9043.996     48.434   3.840  1.01927E+00  9.91556E-01  2.77089E-02
    9045.172     49.610   3.880  1.03884E+00  9.91165E-01  4.76710E-02
    9046.361     50.799   3.920  1.05692E+00  9.90841E-01  6.60833E-02
    9047.562     52.000   3.960  1.07236E+00  9.90563E-01  8.17969E-02
    9048.775     53.213   4.000  1.08417E+00  9.90352E-01  9.38207E-02
    9050.000     54.438   4.040  1.09190E+00  9.90187E-01  1.01715E-01
    9051.238     55.676   4.080  1.09551E+00  9.90066E-01  1.05442E-01
    9052.487     56.925   4.120  1.09540E+00  9.89989E-01  1.05416E-01
    9053.749     58.187   4.160  1.09239E+00  9.89977E-01  1.02412E-01
    9055.023     59.461   4.200  1.08727E+00  9.90010E-01  9.72616E-02
    9056.310     60.748   4.240  1.08069E+00  9.90086E-01  9.06081E-02
    9057.608     62.046   4.280  1.07311E+00  9.90204E-01  8.29006E-02
    9058.919     63.357   4.320  1.06499E+00  9.90384E-01  7.46091E-02
    9060.242     64.679   4.360  1.05676E+00  9.90581E-01  6.61828E-02
    9061.577     66.014   4.400  1.04890E+00  9.90816E-01  5.80804E-02
    9062.924     67.362   4.440  1.04170E+00  9.91087E-01  5.06131E-02
    9064.283     68.721   4.480  1.03519E+00  9.91394E-01  4.37999E-02
    9065.655     70.093   4.520  1.02911E+00  9.91715E-01  3.73945E-02
    9067.039     71.476   4.560  1.02319E+00  9.92092E-01  3.10943E-02
    9068.435     72.872   4.600  1.01718E+00  9.92479E-01  2.47017E-02
    9069.843     74.281   4.640  1.01107E+00  9.92874E-01  1.81946E-02
    9071.263     75.701   4.680  1.00498E+00  9.93297E-01  1.16862E-02
    9072.696     77.134   4.720  9.99006E-01  9.93725E-01  5.28111E-03
    9074.140     78.578   4.760  9.93140E-01  9.94156E-01 -1.01649E-03
    9075.597     80.035   4.800  9.87368E-01  9.94614E-01 -7.24545E-03
    9077.066     81.504   4.840  9.81637E-01  9.95051E-01 -1.34146E-02
    9078.548     82.986   4.880  9.76164E-01  9.95510E-01 -1.93464E-02
    9080.041     84.479   4.920  9.71329E-01  9.95970E-01 -2.46410E-02
    9081.547     85.985   4.960  9.67588E-01  9.96426E-01 -2.88383E-02
    9083.065     87.503   5.000  9.65259E-01  9.96855E-01 -3.15960E-02
    9084.595     89.033   5.040  9.64437E-01  9.97277E-01 -3.28407E-02
    9086.137     90.575   5.080  9.64872E-01  9.97693E-01 -3.28209E-02
    9087.692     92.130   5.120  9.66075E-01  9.98079E-01 -3.20039E-02
    9089.258     93.696   5.160  9.67564E-01  9.98457E-01 -3.08930E-02
    9090.837     95.275   5.200  9.69049E-01  9.98826E-01 -2.97772E-02
    9092.428     96.866   5.240  9.70478E-01  9.99161E-01 -2.86823E-02
    9094.032     98.469   5.280  9.71958E-01  9.99459E-01 -2.75006E-02
    9095.647    100.085   5.320  9.73530E-01  9.99722E-01 -2.61924E-02
    9097.275    101.712   5.360  9.75051E-01  9.99972E-01 -2.49212E-02
    9098.914    103.352   5.400  9.76143E-01  1.00019E+00 -2.40450E-02
    9100.566    105.004   5.440  9.76390E-01  1.00039E+00 -2.39971E-02
    9102.231    106.668   5.480  9.75419E-01  1.00053E+00 -2.51079E-02
    9103.907    108.345   5.520  9.73249E-01  1.00065E+00 -2.74005E-02
    9105.596    110.033   5.560  9.70297E-01  1.00071E+00 -3.04129E-02
    9107.296    111.734   5.600  9.67521E-01  1.00075E+00 -3.32336E-02
    9109.009    113.447   5.640  9.65898E-01  1.00076E+00 -3.48611E-02
    9110.734    115.172   5.680  9.66106E-01  1.00072E+00 -3.46171E-02
    9112.472    116.910   5.720  9.68282E-01  1.00062E+00 -3.23418E-02
    9114.221    118.659   5.760  9.72183E-01  1.00051E+00 -2.83253E-02
    9115.983    120.421   5.800  9.77221E-01  1.00036E+00 -2.31356E-02
    9117.757    122.195   5.840  9.82753E-01  1.00017E+00 -1.74134E-02
    9119.543    123.981   5.880  9.88224E-01  9.99940E-01 -1.17165E-02
    9121.341    125.779   5.920  9.93252E-01  9.99703E-01 -6.45129E-03
    9123.152    127.590   5.960  9.97503E-01  9.99403E-01 -1.90053E-03
    9124.975    129.413   6.000  1.00089E+00  9.99038E-01  1.85684E-03
