# # comment:                                                     FEFF 9.9.1  
# # Source:
# # Structure
# # Reduced
# # space
# # abc:
# # angles:109.471221
# # sites:
# # POT  SCF 100  7.0000   0, screened core-hole, AFOLP (folp(0)= 1.150)
# # Abs   Z=29 Rmt= 1.250 Rnm= 1.316 K  shell
# # Pot 1 Z=56 Rmt= 1.924 Rnm= 1.973
# # Pot 2 Z=29 Rmt= 1.250 Rnm= 1.316
# # Pot 3 Z=34 Rmt= 1.132 Rnm= 1.292
# # Pot 4 Z= 8 Rmt= 1.099 Rnm= 1.145
# # Gam_ch=1.729E+00 H-L exch Vi= 0.000E+00 Vr= 0.000E+00
# # Mu=-1.053E+01eV kf=1.986E+00 Vint=-1.720E+01eV Rs_int= 1.826
# FMS rfms= 9.0000
# # PATH  Rmax=-1.000,  Keep_limit= 0.00, Heap_limit 0.00  Pwcrit= 2.50%
#  S02=0.950  Temp=   0.00  Debye_temp=   0.00  Global_sig2= 0.00000
#  Energy zero shift, vr, vi    0.00000E+00   0.00000E+00
#  Curved wave amplitude ratio filter   4.000%
#     file         sig2 tot  cw amp ratio   deg  nlegs   reff  inp sig2
#     0/   0 paths used
#  xsedge+ 50, used to normalize mu           2.4515E-04
#  -----------------------------------------------------------------------
#  omega    e    k    mu    mu0     chi     @#
    8985.099    -14.340  -1.000  3.07030E-02  4.95598E-02 -1.88568E-02
    8985.398    -14.042  -0.960  3.20726E-02  5.29988E-02 -2.09262E-02
    8985.684    -13.755  -0.920  3.35408E-02  5.68044E-02 -2.32636E-02
    8985.959    -13.481  -0.880  3.51210E-02  6.10289E-02 -2.59079E-02
    8986.221    -13.219  -0.840  3.68290E-02  6.57332E-02 -2.89042E-02
    8986.471    -12.969  -0.800  3.86836E-02  7.09875E-02 -3.23038E-02
    8986.709    -12.731  -0.760  4.07068E-02  7.68720E-02 -3.61652E-02
    8986.934    -12.505  -0.720  4.29237E-02  8.34772E-02 -4.05534E-02
    8987.147    -12.292  -0.680  4.53630E-02  9.09024E-02 -4.55394E-02
    8987.349    -12.091  -0.640  4.80550E-02  9.92522E-02 -5.11971E-02
    8987.538    -11.902  -0.600  5.10304E-02  1.08628E-01 -5.75981E-02
    8987.714    -11.725  -0.560  5.43154E-02  1.19118E-01 -6.48024E-02
    8987.879    -11.561  -0.520  5.79261E-02  1.30770E-01 -7.28441E-02
    8988.031    -11.408  -0.480  6.18593E-02  1.43571E-01 -8.17121E-02
    8988.172    -11.268  -0.440  6.60822E-02  1.57410E-01 -9.13278E-02
    8988.300    -11.140  -0.400  7.05238E-02  1.72050E-01 -1.01526E-01
    8988.415    -11.024  -0.360  7.50713E-02  1.87121E-01 -1.12049E-01
    8988.519    -10.921  -0.320  7.95784E-02  2.02143E-01 -1.22564E-01
    8988.610    -10.829  -0.280  8.38824E-02  2.16581E-01 -1.32699E-01
    8988.690    -10.750  -0.240  8.78288E-02  2.29919E-01 -1.42090E-01
    8988.757    -10.683  -0.200  9.12922E-02  2.41721E-01 -1.50428E-01
    8988.812    -10.628  -0.160  9.41860E-02  2.51662E-01 -1.57476E-01
    8988.854    -10.585  -0.120  9.64624E-02  2.59532E-01 -1.63070E-01
    8988.885    -10.555  -0.080  9.81017E-02  2.65209E-01 -1.67108E-01
    8988.909    -10.530   0.000  9.94397E-02  2.69775E-01 -1.70336E-01
    8988.964    -10.476   0.120  1.02415E-01  2.80099E-01 -1.77684E-01
    8989.007    -10.433   0.160  1.04615E-01  2.88120E-01 -1.83506E-01
    8989.062    -10.378   0.200  1.07348E-01  2.98405E-01 -1.91058E-01
    8989.129    -10.311   0.240  1.10532E-01  3.10841E-01 -2.00310E-01
    8989.208    -10.232   0.280  1.13990E-01  3.25176E-01 -2.11186E-01
    8989.299    -10.140   0.320  1.17561E-01  3.41132E-01 -2.23572E-01
    8989.403    -10.037   0.360  1.21023E-01  3.58273E-01 -2.37249E-01
    8989.519     -9.921   0.400  1.24197E-01  3.76190E-01 -2.51993E-01
    8989.647     -9.793   0.440  1.26909E-01  3.94471E-01 -2.67562E-01
    8989.787     -9.653   0.480  1.29044E-01  4.12813E-01 -2.83769E-01
    8989.939     -9.500   0.520  1.30504E-01  4.31000E-01 -3.00496E-01
    8990.104     -9.336   0.560  1.31309E-01  4.48944E-01 -3.17635E-01
    8990.281     -9.159   0.600  1.31794E-01  4.66613E-01 -3.34819E-01
    8990.470     -8.970   0.640  1.32693E-01  4.84028E-01 -3.51335E-01
    8990.671     -8.769   0.680  1.34956E-01  5.01257E-01 -3.66300E-01
    8990.884     -8.555   0.720  1.39239E-01  5.18354E-01 -3.79116E-01
    8991.110     -8.330   0.760  1.45405E-01  5.35374E-01 -3.89969E-01
    8991.348     -8.092   0.800  1.51870E-01  5.52342E-01 -4.00471E-01
    8991.597     -7.842   0.840  1.56193E-01  5.69311E-01 -4.13118E-01
    8991.860     -7.580   0.880  1.57496E-01  5.86303E-01 -4.28807E-01
    8992.134     -7.306   0.920  1.57924E-01  6.03310E-01 -4.45385E-01
    8992.420     -7.019   0.960  1.60740E-01  6.20312E-01 -4.59572E-01
    8992.719     -6.720   1.000  1.68278E-01  6.37322E-01 -4.69043E-01
    8993.030     -6.410   1.040  1.82178E-01  6.54303E-01 -4.72125E-01
    8993.353     -6.086   1.080  2.04336E-01  6.71235E-01 -4.66899E-01
    8993.688     -5.751   1.120  2.36966E-01  6.88050E-01 -4.51084E-01
    8994.036     -5.404   1.160  2.80894E-01  7.04738E-01 -4.23844E-01
    8994.396     -5.044   1.200  3.30606E-01  7.21267E-01 -3.90661E-01
    8994.767     -4.672   1.240  3.71994E-01  7.37561E-01 -3.65567E-01
    8995.151     -4.288   1.280  3.95441E-01  7.53581E-01 -3.58140E-01
    8995.548     -3.892   1.320  4.09313E-01  7.69312E-01 -3.59999E-01
    8995.956     -3.483   1.360  4.26836E-01  7.84676E-01 -3.57841E-01
    8996.377     -3.063   1.400  4.49725E-01  7.99634E-01 -3.49910E-01
    8996.810     -2.630   1.440  4.75069E-01  8.14171E-01 -3.39101E-01
    8997.255     -2.185   1.480  5.08166E-01  8.28250E-01 -3.20084E-01
    8997.712     -1.728   1.520  5.54746E-01  8.41818E-01 -2.87071E-01
    8998.181     -1.258   1.560  6.06790E-01  8.54843E-01 -2.48053E-01
    8998.663     -0.777   1.600  6.58626E-01  8.67334E-01 -2.08708E-01
    8999.156     -0.283   1.640  7.33566E-01  8.79262E-01 -1.45696E-01
    8999.662      0.223   1.680  8.58482E-01  8.90582E-01 -3.20993E-02
    9000.181      0.741   1.720  1.04001E+00  9.01308E-01  1.38702E-01
    9000.711      1.271   1.760  1.27542E+00  9.11439E-01  3.63981E-01
    9001.253      1.814   1.800  1.54978E+00  9.20973E-01  6.28812E-01
    9001.808      2.369   1.840  1.80956E+00  9.29872E-01  8.79688E-01
    9002.375      2.936   1.880  1.96857E+00  9.38199E-01  1.03037E+00
    9002.954      3.515   1.920  1.97808E+00  9.45920E-01  1.03216E+00
    9003.546      4.106   1.960  1.83267E+00  9.53058E-01  8.79612E-01
    9004.149      4.710   2.000  1.59596E+00  9.59644E-01  6.36317E-01
    9004.765      5.325   2.040  1.36088E+00  9.65666E-01  3.95209E-01
    9005.393      5.953   2.080  1.17605E+00  9.71151E-01  2.04896E-01
    9006.033      6.593   2.120  1.05545E+00  9.76132E-01  7.93178E-02
    9006.685      7.245   2.160  9.92885E-01  9.80620E-01  1.22644E-02
    9007.349      7.910   2.200  9.72914E-01  9.84649E-01 -1.17345E-02
    9008.026      8.587   2.240  9.79463E-01  9.88228E-01 -8.76478E-03
    9008.715      9.275   2.280  9.94977E-01  9.91391E-01  3.58601E-03
    9009.416      9.976   2.320  9.99655E-01  9.94171E-01  5.48438E-03
    9010.129     10.690   2.360  9.87011E-01  9.96559E-01 -9.54791E-03
    9010.855     11.415   2.400  9.77167E-01  9.98608E-01 -2.14412E-02
    9011.592     12.153   2.440  9.88882E-01  1.00033E+00 -1.14506E-02
    9012.342     12.903   2.480  1.01534E+00  1.00179E+00  1.35540E-02
    9013.104     13.665   2.520  1.04579E+00  1.00294E+00  4.28512E-02
    9013.878     14.439   2.560  1.06876E+00  1.00386E+00  6.49025E-02
    9014.665     15.225   2.600  1.07632E+00  1.00454E+00  7.17819E-02
    9015.463     16.024   2.640  1.06753E+00  1.00502E+00  6.25153E-02
    9016.274     16.834   2.680  1.04803E+00  1.00530E+00  4.27268E-02
    9017.097     17.657   2.720  1.02501E+00  1.00543E+00  1.95738E-02
    9017.932     18.493   2.760  1.00087E+00  1.00541E+00 -4.54511E-03
    9018.779     19.340   2.800  9.73506E-01  1.00527E+00 -3.17602E-02
    9019.639     20.199   2.840  9.42341E-01  1.00500E+00 -6.26604E-02
    9020.511     21.071   2.880  9.10730E-01  1.00467E+00 -9.39369E-02
    9021.395     21.955   2.920  8.82470E-01  1.00423E+00 -1.21760E-01
    9022.291     22.851   2.960  8.59781E-01  1.00372E+00 -1.43935E-01
    9023.199     23.759   3.000  8.42611E-01  1.00317E+00 -1.60563E-01
    9024.119     24.680   3.040  8.30148E-01  1.00257E+00 -1.72422E-01
    9025.052     25.613   3.080  8.22136E-01  1.00193E+00 -1.79793E-01
    9025.997     26.558   3.120  8.18728E-01  1.00130E+00 -1.82569E-01
    9026.954     27.515   3.160  8.19781E-01  1.00064E+00 -1.80858E-01
    9027.923     28.484   3.200  8.24647E-01  9.99979E-01 -1.75332E-01
    9028.905     29.465   3.240  8.32465E-01  9.99321E-01 -1.66856E-01
    9029.898     30.459   3.280  8.42047E-01  9.98668E-01 -1.56621E-01
    9030.904     31.465   3.320  8.52757E-01  9.98066E-01 -1.45309E-01
    9031.922     32.483   3.360  8.64343E-01  9.97455E-01 -1.33112E-01
    9032.953     33.513   3.400  8.77168E-01  9.96901E-01 -1.19733E-01
    9033.995     34.555   3.440  8.92014E-01  9.96385E-01 -1.04371E-01
    9035.050     35.610   3.480  9.09477E-01  9.95887E-01 -8.64100E-02
    9036.116     36.677   3.520  9.29310E-01  9.95451E-01 -6.61404E-02
    9037.195     37.756   3.560  9.50308E-01  9.95057E-01 -4.47482E-02
    9038.287     38.847   3.600  9.71848E-01  9.94705E-01 -2.28565E-02
    9039.390     39.950   3.640  9.94422E-01  9.94397E-01  2.55382E-05
    9040.505     41.066   3.680  1.01877E+00  9.94133E-01  2.46364E-02
    9041.633     42.194   3.720  1.04491E+00  9.93937E-01  5.09693E-02
    9042.773     43.334   3.760  1.07113E+00  9.93786E-01  7.73483E-02
    9043.925     44.486   3.800  1.09419E+00  9.93701E-01  1.00484E-01
    9045.090     45.650   3.840  1.11080E+00  9.93640E-01  1.17163E-01
    9046.266     46.827   3.880  1.11977E+00  9.93648E-01  1.26119E-01
    9047.455     48.015   3.920  1.12194E+00  9.93721E-01  1.28223E-01
    9048.656     49.216   3.960  1.11864E+00  9.93817E-01  1.24823E-01
    9049.869     50.429   4.000  1.11088E+00  9.93978E-01  1.16907E-01
    9051.094     51.655   4.040  1.09938E+00  9.94181E-01  1.05195E-01
    9052.332     52.892   4.080  1.08563E+00  9.94424E-01  9.12046E-02
    9053.581     54.142   4.120  1.07177E+00  9.94707E-01  7.70671E-02
    9054.843     55.404   4.160  1.05978E+00  9.95029E-01  6.47514E-02
    9056.117     56.678   4.200  1.05061E+00  9.95367E-01  5.52466E-02
    9057.404     57.964   4.240  1.04427E+00  9.95763E-01  4.85061E-02
    9058.702     59.262   4.280  1.03997E+00  9.96195E-01  4.37733E-02
    9060.013     60.573   4.320  1.03638E+00  9.96638E-01  3.97380E-02
    9061.335     61.896   4.360  1.03226E+00  9.97090E-01  3.51696E-02
    9062.670     63.231   4.400  1.02724E+00  9.97573E-01  2.96643E-02
    9064.018     64.578   4.440  1.02202E+00  9.98087E-01  2.39319E-02
    9065.377     65.938   4.480  1.01804E+00  9.98608E-01  1.94332E-02
    9066.749     67.309   4.520  1.01671E+00  9.99154E-01  1.75564E-02
    9068.132     68.693   4.560  1.01832E+00  9.99681E-01  1.86385E-02
    9069.528     70.089   4.600  1.02156E+00  1.00023E+00  2.13337E-02
    9070.937     71.497   4.640  1.02380E+00  1.00076E+00  2.30436E-02
    9072.357     72.917   4.680  1.02250E+00  1.00130E+00  2.12015E-02
    9073.789     74.350   4.720  1.01645E+00  1.00182E+00  1.46277E-02
    9075.234     75.795   4.760  1.00627E+00  1.00234E+00  3.93297E-03
    9076.691     77.252   4.800  9.93743E-01  1.00285E+00 -9.10380E-03
    9078.160     78.721   4.840  9.81100E-01  1.00335E+00 -2.22490E-02
    9079.642     80.202   4.880  9.70422E-01  1.00382E+00 -3.33975E-02
    9081.135     81.696   4.920  9.63107E-01  1.00426E+00 -4.11490E-02
    9082.641     83.201   4.960  9.59590E-01  1.00468E+00 -4.50939E-02
    9084.159     84.719   5.000  9.59334E-01  1.00510E+00 -4.57656E-02
    9085.689     86.249   5.040  9.60978E-01  1.00548E+00 -4.45023E-02
    9087.231     87.792   5.080  9.62804E-01  1.00582E+00 -4.30200E-02
    9088.786     89.346   5.120  9.63165E-01  1.00613E+00 -4.29622E-02
    9090.352     90.913   5.160  9.61292E-01  1.00639E+00 -4.51005E-02
    9091.931     92.492   5.200  9.57894E-01  1.00664E+00 -4.87470E-02
    9093.522     94.083   5.240  9.54690E-01  1.00683E+00 -5.21394E-02
    9095.125     95.686   5.280  9.53426E-01  1.00700E+00 -5.35730E-02
    9096.741     97.301   5.320  9.54595E-01  1.00713E+00 -5.25333E-02
    9098.368     98.929   5.360  9.57273E-01  1.00719E+00 -4.99208E-02
    9100.008    100.569   5.400  9.60029E-01  1.00724E+00 -4.72129E-02
    9101.660    102.221   5.440  9.62299E-01  1.00725E+00 -4.49516E-02
    9103.324    103.885   5.480  9.65067E-01  1.00722E+00 -4.21517E-02
    9105.001    105.561   5.520  9.69901E-01  1.00715E+00 -3.72455E-02
    9106.689    107.250   5.560  9.77448E-01  1.00703E+00 -2.95855E-02
    9108.390    108.951   5.600  9.86849E-01  1.00688E+00 -2.00292E-02
    9110.103    110.664   5.640  9.96222E-01  1.00668E+00 -1.04617E-02
    9111.828    112.389   5.680  1.00367E+00  1.00645E+00 -2.78285E-03
    9113.566    114.126   5.720  1.00848E+00  1.00618E+00  2.30467E-03
    9115.315    115.876   5.760  1.01149E+00  1.00587E+00  5.62145E-03
    9117.077    117.637   5.800  1.01425E+00  1.00555E+00  8.70099E-03
    9118.851    119.411   5.840  1.01838E+00  1.00519E+00  1.31955E-02
    9120.637    121.198   5.880  1.02477E+00  1.00477E+00  1.99975E-02
    9122.435    122.996   5.920  1.03273E+00  1.00438E+00  2.83559E-02
    9124.246    124.806   5.960  1.04003E+00  1.00393E+00  3.61044E-02
    9126.069    126.629   6.000  1.04478E+00  1.00345E+00  4.13310E-02
