# # comment:                                                     FEFF 9.9.1  
# # Source:
# # Structure
# # Reduced
# # space
# # abc:
# # angles:
# # sites:
# # POT  SCF 100  7.0000   0, screened core-hole, AFOLP (folp(0)= 1.150)
# # Abs   Z=29 Rmt= 1.228 Rnm= 1.307 K  shell
# # Pot 1 Z= 3 Rmt= 1.248 Rnm= 1.303
# # Pot 2 Z=26 Rmt= 1.287 Rnm= 1.394
# # Pot 3 Z=29 Rmt= 1.199 Rnm= 1.290
# # Pot 4 Z= 8 Rmt= 1.056 Rnm= 1.112
# # Gam_ch=1.729E+00 H-L exch Vi= 0.000E+00 Vr= 0.000E+00
# # Mu=-9.080E+00eV kf=2.106E+00 Vint=-1.677E+01eV Rs_int= 1.722
# FMS rfms= 9.0000
# # PATH  Rmax=-1.000,  Keep_limit= 0.00, Heap_limit 0.00  Pwcrit= 2.50%
#  S02=0.950  Temp=   0.00  Debye_temp=   0.00  Global_sig2= 0.00000
#  Energy zero shift, vr, vi    0.00000E+00   0.00000E+00
#  Curved wave amplitude ratio filter   4.000%
#     file         sig2 tot  cw amp ratio   deg  nlegs   reff  inp sig2
#     0/   0 paths used
#  xsedge+ 50, used to normalize mu           2.4490E-04
#  -----------------------------------------------------------------------
#  omega    e    k    mu    mu0     chi     @#
    8984.481    -12.890  -1.000  3.37805E-02  5.33469E-02 -1.95664E-02
    8984.780    -12.591  -0.960  3.52660E-02  5.71699E-02 -2.19039E-02
    8985.067    -12.305  -0.920  3.68365E-02  6.14115E-02 -2.45750E-02
    8985.341    -12.030  -0.880  3.84997E-02  6.61327E-02 -2.76330E-02
    8985.603    -11.768  -0.840  4.02643E-02  7.14042E-02 -3.11400E-02
    8985.853    -11.518  -0.800  4.21406E-02  7.73079E-02 -3.51674E-02
    8986.091    -11.281  -0.760  4.41404E-02  8.39378E-02 -3.97973E-02
    8986.316    -11.055  -0.720  4.62772E-02  9.13995E-02 -4.51223E-02
    8986.530    -10.842  -0.680  4.85658E-02  9.98098E-02 -5.12440E-02
    8986.731    -10.640  -0.640  5.10215E-02  1.09291E-01 -5.82696E-02
    8986.920    -10.451  -0.600  5.36594E-02  1.19964E-01 -6.63046E-02
    8987.097    -10.275  -0.560  5.64907E-02  1.31931E-01 -7.54399E-02
    8987.261    -10.110  -0.520  5.95197E-02  1.45251E-01 -8.57316E-02
    8987.414     -9.958  -0.480  6.27371E-02  1.59911E-01 -9.71739E-02
    8987.554     -9.818  -0.440  6.61142E-02  1.75782E-01 -1.09667E-01
    8987.682     -9.689  -0.400  6.95968E-02  1.92589E-01 -1.22992E-01
    8987.798     -9.574  -0.360  7.31040E-02  2.09904E-01 -1.36800E-01
    8987.901     -9.470  -0.320  7.65336E-02  2.27167E-01 -1.50633E-01
    8987.993     -9.379  -0.280  7.97747E-02  2.43757E-01 -1.63982E-01
    8988.072     -9.299  -0.240  8.27239E-02  2.59077E-01 -1.76353E-01
    8988.139     -9.232  -0.200  8.52986E-02  2.72622E-01 -1.87324E-01
    8988.194     -9.177  -0.160  8.74435E-02  2.84024E-01 -1.96581E-01
    8988.237     -9.135  -0.120  8.91277E-02  2.93043E-01 -2.03916E-01
    8988.267     -9.104  -0.080  9.03376E-02  2.99544E-01 -2.09207E-01
    8988.291     -9.080   0.000  9.13161E-02  3.04770E-01 -2.13454E-01
    8988.346     -9.025   0.120  9.35166E-02  3.16563E-01 -2.23046E-01
    8988.389     -8.982   0.160  9.51790E-02  3.25744E-01 -2.30565E-01
    8988.444     -8.927   0.200  9.72249E-02  3.37463E-01 -2.40238E-01
    8988.511     -8.860   0.240  9.96066E-02  3.51594E-01 -2.51987E-01
    8988.590     -8.781   0.280  1.02268E-01  3.67875E-01 -2.65607E-01
    8988.682     -8.690   0.320  1.05036E-01  3.85876E-01 -2.80840E-01
    8988.785     -8.586   0.360  1.07878E-01  4.05152E-01 -2.97274E-01
    8988.901     -8.470   0.400  1.10724E-01  4.25144E-01 -3.14420E-01
    8989.029     -8.342   0.440  1.13594E-01  4.45377E-01 -3.31783E-01
    8989.169     -8.202   0.480  1.16617E-01  4.65483E-01 -3.48865E-01
    8989.322     -8.050   0.520  1.19932E-01  4.85186E-01 -3.65253E-01
    8989.486     -7.885   0.560  1.23735E-01  5.04418E-01 -3.80684E-01
    8989.663     -7.708   0.600  1.28015E-01  5.23086E-01 -3.95071E-01
    8989.852     -7.519   0.640  1.32922E-01  5.41279E-01 -4.08357E-01
    8990.053     -7.318   0.680  1.38638E-01  5.59040E-01 -4.20401E-01
    8990.267     -7.105   0.720  1.45547E-01  5.76442E-01 -4.30895E-01
    8990.492     -6.879   0.760  1.54286E-01  5.93557E-01 -4.39271E-01
    8990.730     -6.642   0.800  1.65663E-01  6.10447E-01 -4.44784E-01
    8990.980     -6.392   0.840  1.80783E-01  6.27184E-01 -4.46401E-01
    8991.242     -6.129   0.880  2.00880E-01  6.43762E-01 -4.42883E-01
    8991.516     -5.855   0.920  2.27493E-01  6.60207E-01 -4.32713E-01
    8991.803     -5.569   0.960  2.62414E-01  6.76550E-01 -4.14137E-01
    8992.101     -5.270   1.000  3.07514E-01  6.92775E-01 -3.85260E-01
    8992.412     -4.959   1.040  3.64911E-01  7.08876E-01 -3.43965E-01
    8992.735     -4.636   1.080  4.35827E-01  7.24798E-01 -2.88970E-01
    8993.071     -4.301   1.120  5.14425E-01  7.40564E-01 -2.26140E-01
    8993.418     -3.953   1.160  5.82817E-01  7.56112E-01 -1.73295E-01
    8993.778     -3.594   1.200  6.28145E-01  7.71434E-01 -1.43289E-01
    8994.150     -3.222   1.240  6.59195E-01  7.86462E-01 -1.27267E-01
    8994.534     -2.838   1.280  6.87827E-01  8.01184E-01 -1.13357E-01
    8994.930     -2.441   1.320  7.10050E-01  8.15569E-01 -1.05519E-01
    8995.338     -2.033   1.360  7.14863E-01  8.29565E-01 -1.14702E-01
    8995.759     -1.612   1.400  7.05548E-01  8.43159E-01 -1.37611E-01
    8996.192     -1.180   1.440  7.00237E-01  8.56298E-01 -1.56061E-01
    8996.637     -0.735   1.480  7.08547E-01  8.68952E-01 -1.60406E-01
    8997.094     -0.277   1.520  7.32412E-01  8.81132E-01 -1.48720E-01
    8997.563      0.192   1.560  7.75307E-01  8.92767E-01 -1.17460E-01
    8998.045      0.674   1.600  8.35020E-01  9.03891E-01 -6.88712E-02
    8998.539      1.167   1.640  8.99879E-01  9.14439E-01 -1.45599E-02
    8999.045      1.673   1.680  9.63087E-01  9.24425E-01  3.86623E-02
    8999.563      2.192   1.720  1.03563E+00  9.33847E-01  1.01781E-01
    9000.093      2.722   1.760  1.12719E+00  9.42686E-01  1.84501E-01
    9000.636      3.264   1.800  1.23302E+00  9.50940E-01  2.82082E-01
    9001.191      3.819   1.840  1.33147E+00  9.58634E-01  3.72840E-01
    9001.757      4.386   1.880  1.41106E+00  9.65752E-01  4.45312E-01
    9002.337      4.965   1.920  1.48804E+00  9.72318E-01  5.15724E-01
    9002.928      5.557   1.960  1.56954E+00  9.78341E-01  5.91195E-01
    9003.531      6.160   2.000  1.62770E+00  9.83847E-01  6.43854E-01
    9004.147      6.776   2.040  1.62845E+00  9.88804E-01  6.39642E-01
    9004.775      7.404   2.080  1.55640E+00  9.93283E-01  5.63115E-01
    9005.415      8.044   2.120  1.42893E+00  9.97295E-01  4.31632E-01
    9006.067      8.696   2.160  1.28753E+00  1.00083E+00  2.86699E-01
    9006.732      9.360   2.200  1.16145E+00  1.00394E+00  1.57516E-01
    9007.408     10.037   2.240  1.06008E+00  1.00663E+00  5.34544E-02
    9008.097     10.726   2.280  9.81886E-01  1.00894E+00 -2.70563E-02
    9008.798     11.427   2.320  9.23778E-01  1.01088E+00 -8.71065E-02
    9009.512     12.140   2.360  8.83747E-01  1.01247E+00 -1.28720E-01
    9010.237     12.866   2.400  8.61163E-01  1.01375E+00 -1.52583E-01
    9010.975     13.603   2.440  8.53152E-01  1.01473E+00 -1.61579E-01
    9011.724     14.353   2.480  8.57264E-01  1.01543E+00 -1.58170E-01
    9012.486     15.115   2.520  8.80891E-01  1.01589E+00 -1.34996E-01
    9013.261     15.889   2.560  9.17402E-01  1.01612E+00 -9.87196E-02
    9014.047     16.676   2.600  9.53109E-01  1.01613E+00 -6.30198E-02
    9014.846     17.474   2.640  9.85204E-01  1.01598E+00 -3.07743E-02
    9015.656     18.285   2.680  1.01420E+00  1.01564E+00 -1.43869E-03
    9016.479     19.108   2.720  1.04033E+00  1.01515E+00  2.51853E-02
    9017.314     19.943   2.760  1.06276E+00  1.01454E+00  4.82134E-02
    9018.162     20.790   2.800  1.07982E+00  1.01382E+00  6.59980E-02
    9019.021     21.650   2.840  1.08975E+00  1.01299E+00  7.67606E-02
    9019.893     22.522   2.880  1.09134E+00  1.01209E+00  7.92446E-02
    9020.777     23.406   2.920  1.08308E+00  1.01112E+00  7.19511E-02
    9021.673     24.302   2.960  1.06382E+00  1.01011E+00  5.37117E-02
    9022.581     25.210   3.000  1.03410E+00  1.00905E+00  2.50584E-02
    9023.502     26.130   3.040  9.97487E-01  1.00795E+00 -1.04634E-02
    9024.434     27.063   3.080  9.59499E-01  1.00685E+00 -4.73475E-02
    9025.379     28.008   3.120  9.25240E-01  1.00574E+00 -8.04977E-02
    9026.336     28.965   3.160  8.97470E-01  1.00463E+00 -1.07160E-01
    9027.306     29.934   3.200  8.77087E-01  1.00355E+00 -1.26462E-01
    9028.287     30.916   3.240  8.63926E-01  1.00248E+00 -1.38550E-01
    9029.281     31.909   3.280  8.57023E-01  1.00141E+00 -1.44391E-01
    9030.287     32.915   3.320  8.55304E-01  1.00041E+00 -1.45106E-01
    9031.305     33.933   3.360  8.57844E-01  9.99424E-01 -1.41580E-01
    9032.335     34.964   3.400  8.63914E-01  9.98501E-01 -1.34587E-01
    9033.377     36.006   3.440  8.72900E-01  9.97623E-01 -1.24723E-01
    9034.432     37.061   3.480  8.84392E-01  9.96790E-01 -1.12398E-01
    9035.499     38.127   3.520  8.97821E-01  9.96025E-01 -9.82040E-02
    9036.578     39.206   3.560  9.12256E-01  9.95311E-01 -8.30546E-02
    9037.669     40.298   3.600  9.26808E-01  9.94667E-01 -6.78593E-02
    9038.772     41.401   3.640  9.40714E-01  9.94075E-01 -5.33617E-02
    9039.888     42.516   3.680  9.53564E-01  9.93557E-01 -3.99934E-02
    9041.016     43.644   3.720  9.65325E-01  9.93115E-01 -2.77893E-02
    9042.155     44.784   3.760  9.76312E-01  9.92746E-01 -1.64338E-02
    9043.308     45.936   3.800  9.86943E-01  9.92431E-01 -5.48803E-03
    9044.472     47.101   3.840  9.97720E-01  9.92188E-01  5.53134E-03
    9045.648     48.277   3.880  1.00896E+00  9.91997E-01  1.69670E-02
    9046.837     49.466   3.920  1.02055E+00  9.91880E-01  2.86735E-02
    9048.038     50.667   3.960  1.03168E+00  9.91836E-01  3.98427E-02
    9049.251     51.880   4.000  1.04125E+00  9.91844E-01  4.94012E-02
    9050.476     53.105   4.040  1.04870E+00  9.91924E-01  5.67713E-02
    9051.714     54.343   4.080  1.05422E+00  9.92077E-01  6.21426E-02
    9052.964     55.592   4.120  1.05836E+00  9.92277E-01  6.60796E-02
    9054.226     56.854   4.160  1.06164E+00  9.92523E-01  6.91178E-02
    9055.500     58.128   4.200  1.06433E+00  9.92835E-01  7.14927E-02
    9056.786     59.414   4.240  1.06632E+00  9.93170E-01  7.31530E-02
    9058.084     60.713   4.280  1.06733E+00  9.93570E-01  7.37559E-02
    9059.395     62.024   4.320  1.06670E+00  9.94012E-01  7.26886E-02
    9060.718     63.346   4.360  1.06390E+00  9.94515E-01  6.93811E-02
    9062.053     64.681   4.400  1.05875E+00  9.95013E-01  6.37388E-02
    9063.400     66.029   4.440  1.05192E+00  9.95570E-01  5.63500E-02
    9064.759     67.388   4.480  1.04418E+00  9.96161E-01  4.80216E-02
    9066.131     68.760   4.520  1.03619E+00  9.96761E-01  3.94337E-02
    9067.515     70.143   4.560  1.02849E+00  9.97370E-01  3.11246E-02
    9068.911     71.539   4.600  1.02169E+00  9.98008E-01  2.36793E-02
    9070.319     72.948   4.640  1.01652E+00  9.98674E-01  1.78426E-02
    9071.739     74.368   4.680  1.01374E+00  9.99322E-01  1.44165E-02
    9073.172     75.800   4.720  1.01391E+00  9.99992E-01  1.39205E-02
    9074.617     77.245   4.760  1.01692E+00  1.00066E+00  1.62581E-02
    9076.073     78.702   4.800  1.02181E+00  1.00131E+00  2.05039E-02
    9077.543     80.171   4.840  1.02704E+00  1.00197E+00  2.50712E-02
    9079.024     81.653   4.880  1.03100E+00  1.00261E+00  2.83917E-02
    9080.517     83.146   4.920  1.03276E+00  1.00324E+00  2.95174E-02
    9082.023     84.652   4.960  1.03205E+00  1.00384E+00  2.82124E-02
    9083.541     86.170   5.000  1.02915E+00  1.00443E+00  2.47224E-02
    9085.071     87.700   5.040  1.02449E+00  1.00500E+00  1.94864E-02
    9086.613     89.242   5.080  1.01852E+00  1.00555E+00  1.29746E-02
    9088.168     90.797   5.120  1.01163E+00  1.00603E+00  5.59928E-03
    9089.735     92.363   5.160  1.00414E+00  1.00652E+00 -2.37930E-03
    9091.313     93.942   5.200  9.96066E-01  1.00695E+00 -1.08810E-02
    9092.904     95.533   5.240  9.87389E-01  1.00733E+00 -1.99458E-02
    9094.508     97.136   5.280  9.78147E-01  1.00770E+00 -2.95570E-02
    9096.123     98.752   5.320  9.68502E-01  1.00801E+00 -3.95072E-02
    9097.751    100.379   5.360  9.58898E-01  1.00827E+00 -4.93741E-02
    9099.391    102.019   5.400  9.49829E-01  1.00852E+00 -5.86859E-02
    9101.043    103.671   5.440  9.41755E-01  1.00869E+00 -6.69377E-02
    9102.707    105.335   5.480  9.35187E-01  1.00882E+00 -7.36360E-02
    9104.383    107.012   5.520  9.30549E-01  1.00889E+00 -7.83395E-02
    9106.072    108.700   5.560  9.28090E-01  1.00893E+00 -8.08412E-02
    9107.773    110.401   5.600  9.27696E-01  1.00891E+00 -8.12133E-02
    9109.486    112.114   5.640  9.29101E-01  1.00887E+00 -7.97644E-02
    9111.211    113.839   5.680  9.32086E-01  1.00876E+00 -7.66701E-02
    9112.948    115.577   5.720  9.36870E-01  1.00860E+00 -7.17314E-02
    9114.698    117.326   5.760  9.43835E-01  1.00838E+00 -6.45454E-02
    9116.459    119.088   5.800  9.53100E-01  1.00814E+00 -5.50399E-02
    9118.233    120.862   5.840  9.64130E-01  1.00784E+00 -4.37082E-02
    9120.019    122.648   5.880  9.76181E-01  1.00752E+00 -3.13402E-02
    9121.818    124.446   5.920  9.88537E-01  1.00714E+00 -1.86060E-02
    9123.628    126.257   5.960  1.00087E+00  1.00675E+00 -5.88234E-03
    9125.451    128.080   6.000  1.01320E+00  1.00627E+00  6.93478E-03
