# # comment:                                                     FEFF 9.9.1  
# # Source:
# # Structure
# # Reduced
# # space
# # abc:
# # angles:140.405094
# # sites:
# # POT  SCF 100  7.0000   0, screened core-hole, AFOLP (folp(0)= 1.150)
# # Abs   Z=29 Rmt= 1.188 Rnm= 1.300 K  shell
# # Pot 1 Z=56 Rmt= 2.021 Rnm= 2.101
# # Pot 2 Z=29 Rmt= 1.225 Rnm= 1.321
# # Pot 3 Z=17 Rmt= 1.549 Rnm= 1.615
# # Pot 4 Z= 8 Rmt= 1.060 Rnm= 1.117
# # Gam_ch=1.729E+00 H-L exch Vi= 0.000E+00 Vr= 0.000E+00
# # Mu=-7.323E+00eV kf=1.820E+00 Vint=-1.468E+01eV Rs_int= 1.992
# FMS rfms= 9.0000
# # PATH  Rmax=-1.000,  Keep_limit= 0.00, Heap_limit 0.00  Pwcrit= 2.50%
#  S02=0.950  Temp=   0.00  Debye_temp=   0.00  Global_sig2= 0.00000
#  Energy zero shift, vr, vi    0.00000E+00   0.00000E+00
#  Curved wave amplitude ratio filter   4.000%
#     file         sig2 tot  cw amp ratio   deg  nlegs   reff  inp sig2
#     0/   0 paths used
#  xsedge+ 50, used to normalize mu           2.4365E-04
#  -----------------------------------------------------------------------
#  omega    e    k    mu    mu0     chi     @#
    8983.866    -11.133  -1.000  3.36182E-02  5.46111E-02 -2.09929E-02
    8984.165    -10.834  -0.960  3.51194E-02  5.85403E-02 -2.34210E-02
    8984.452    -10.548  -0.920  3.67057E-02  6.28999E-02 -2.61943E-02
    8984.726    -10.273  -0.880  3.83830E-02  6.77524E-02 -2.93693E-02
    8984.988    -10.011  -0.840  4.01580E-02  7.31702E-02 -3.30123E-02
    8985.238     -9.761  -0.800  4.20374E-02  7.92375E-02 -3.72001E-02
    8985.476     -9.524  -0.760  4.40289E-02  8.60504E-02 -4.20215E-02
    8985.701     -9.298  -0.720  4.61402E-02  9.37175E-02 -4.75772E-02
    8985.915     -9.085  -0.680  4.83792E-02  1.02358E-01 -5.39788E-02
    8986.116     -8.883  -0.640  5.07531E-02  1.12098E-01 -6.13444E-02
    8986.305     -8.695  -0.600  5.32677E-02  1.23059E-01 -6.97917E-02
    8986.482     -8.518  -0.560  5.59251E-02  1.35348E-01 -7.94232E-02
    8986.646     -8.353  -0.520  5.87214E-02  1.49026E-01 -9.03041E-02
    8986.799     -8.201  -0.480  6.16430E-02  1.64076E-01 -1.02433E-01
    8986.939     -8.061  -0.440  6.46622E-02  1.80368E-01 -1.15706E-01
    8987.067     -7.933  -0.400  6.77345E-02  1.97620E-01 -1.29886E-01
    8987.183     -7.817  -0.360  7.07977E-02  2.15393E-01 -1.44595E-01
    8987.286     -7.713  -0.320  7.37758E-02  2.33113E-01 -1.59337E-01
    8987.378     -7.622  -0.280  7.65874E-02  2.50144E-01 -1.73557E-01
    8987.457     -7.542  -0.240  7.91557E-02  2.65873E-01 -1.86718E-01
    8987.524     -7.475  -0.200  8.14161E-02  2.79783E-01 -1.98367E-01
    8987.579     -7.420  -0.160  8.33184E-02  2.91494E-01 -2.08176E-01
    8987.622     -7.378  -0.120  8.48246E-02  3.00759E-01 -2.15934E-01
    8987.652     -7.347  -0.080  8.59083E-02  3.07438E-01 -2.21530E-01
    8987.676     -7.323   0.000  8.67733E-02  3.12808E-01 -2.26035E-01
    8987.731     -7.268   0.120  8.90683E-02  3.24937E-01 -2.35868E-01
    8987.774     -7.225   0.160  9.07592E-02  3.34368E-01 -2.43609E-01
    8987.829     -7.171   0.200  9.29259E-02  3.46428E-01 -2.53502E-01
    8987.896     -7.103   0.240  9.55284E-02  3.60951E-01 -2.65422E-01
    8987.975     -7.024   0.280  9.85829E-02  3.77710E-01 -2.79127E-01
    8988.067     -6.933   0.320  1.02025E-01  3.96252E-01 -2.94227E-01
    8988.170     -6.829   0.360  1.05894E-01  4.16123E-01 -3.10229E-01
    8988.286     -6.713   0.400  1.10211E-01  4.36756E-01 -3.26545E-01
    8988.414     -6.585   0.440  1.15048E-01  4.57666E-01 -3.42619E-01
    8988.554     -6.445   0.480  1.20555E-01  4.78481E-01 -3.57925E-01
    8988.707     -6.293   0.520  1.26924E-01  4.98917E-01 -3.71993E-01
    8988.871     -6.128   0.560  1.34508E-01  5.18884E-01 -3.84376E-01
    8989.048     -5.951   0.600  1.43661E-01  5.38327E-01 -3.94666E-01
    8989.237     -5.762   0.640  1.54943E-01  5.57273E-01 -4.02330E-01
    8989.438     -5.561   0.680  1.69069E-01  5.75804E-01 -4.06735E-01
    8989.652     -5.348   0.720  1.87075E-01  5.93994E-01 -4.06920E-01
    8989.877     -5.122   0.760  2.10236E-01  6.11872E-01 -4.01636E-01
    8990.115     -4.885   0.800  2.40248E-01  6.29540E-01 -3.89291E-01
    8990.365     -4.635   0.840  2.78485E-01  6.47003E-01 -3.68519E-01
    8990.627     -4.372   0.880  3.24944E-01  6.64318E-01 -3.39375E-01
    8990.901     -4.098   0.920  3.76353E-01  6.81485E-01 -3.05133E-01
    8991.188     -3.812   0.960  4.24994E-01  6.98494E-01 -2.73500E-01
    8991.486     -3.513   1.000  4.61121E-01  7.15363E-01 -2.54243E-01
    8991.797     -3.202   1.040  4.79787E-01  7.32044E-01 -2.52257E-01
    8992.120     -2.879   1.080  4.85190E-01  7.48521E-01 -2.63331E-01
    8992.456     -2.544   1.120  4.85967E-01  7.64772E-01 -2.78805E-01
    8992.803     -2.196   1.160  4.88760E-01  7.80730E-01 -2.91970E-01
    8993.163     -1.837   1.200  4.96231E-01  7.96407E-01 -3.00177E-01
    8993.535     -1.465   1.240  5.07567E-01  8.11712E-01 -3.04145E-01
    8993.919     -1.081   1.280  5.19479E-01  8.26652E-01 -3.07173E-01
    8994.315     -0.684   1.320  5.27189E-01  8.41153E-01 -3.13964E-01
    8994.723     -0.276   1.360  5.28186E-01  8.55182E-01 -3.26995E-01
    8995.144      0.145   1.400  5.26086E-01  8.68726E-01 -3.42640E-01
    8995.577      0.577   1.440  5.32630E-01  8.81754E-01 -3.49123E-01
    8996.022      1.022   1.480  5.60769E-01  8.94214E-01 -3.33445E-01
    8996.479      1.480   1.520  6.06642E-01  9.06097E-01 -2.99455E-01
    8996.948      1.949   1.560  6.52740E-01  9.17397E-01 -2.64657E-01
    8997.430      2.431   1.600  6.95915E-01  9.28066E-01 -2.32151E-01
    8997.924      2.924   1.640  7.46456E-01  9.38124E-01 -1.91668E-01
    8998.430      3.430   1.680  8.04549E-01  9.47567E-01 -1.43018E-01
    8998.948      3.949   1.720  8.64743E-01  9.56355E-01 -9.16116E-02
    8999.478      4.479   1.760  9.30706E-01  9.64530E-01 -3.38233E-02
    9000.021      5.021   1.800  1.01225E+00  9.72076E-01  4.01726E-02
    9000.576      5.576   1.840  1.11457E+00  9.79001E-01  1.35569E-01
    9001.142      6.143   1.880  1.23937E+00  9.85351E-01  2.54020E-01
    9001.722      6.722   1.920  1.38891E+00  9.91093E-01  3.97815E-01
    9002.313      7.314   1.960  1.55430E+00  9.96278E-01  5.58021E-01
    9002.916      7.917   2.000  1.69146E+00  1.00092E+00  6.90541E-01
    9003.532      8.533   2.040  1.73424E+00  1.00502E+00  7.29220E-01
    9004.160      9.161   2.080  1.65628E+00  1.00862E+00  6.47656E-01
    9004.800      9.801   2.120  1.50281E+00  1.01175E+00  4.91059E-01
    9005.452     10.453   2.160  1.34854E+00  1.01443E+00  3.34108E-01
    9006.117     11.117   2.200  1.23550E+00  1.01668E+00  2.18820E-01
    9006.793     11.794   2.240  1.17143E+00  1.01853E+00  1.52903E-01
    9007.482     12.483   2.280  1.14042E+00  1.02000E+00  1.20417E-01
    9008.183     13.184   2.320  1.11968E+00  1.02113E+00  9.85445E-02
    9008.897     13.897   2.360  1.10488E+00  1.02194E+00  8.29405E-02
    9009.622     14.623   2.400  1.09772E+00  1.02247E+00  7.52534E-02
    9010.360     15.360   2.440  1.09751E+00  1.02270E+00  7.48128E-02
    9011.109     16.110   2.480  1.10058E+00  1.02272E+00  7.78570E-02
    9011.871     16.872   2.520  1.10150E+00  1.02249E+00  7.90094E-02
    9012.646     17.646   2.560  1.09625E+00  1.02208E+00  7.41743E-02
    9013.432     18.433   2.600  1.08413E+00  1.02149E+00  6.26399E-02
    9014.231     19.231   2.640  1.06803E+00  1.02077E+00  4.72619E-02
    9015.041     20.042   2.680  1.05119E+00  1.01989E+00  3.12989E-02
    9015.864     20.865   2.720  1.03634E+00  1.01890E+00  1.74383E-02
    9016.699     21.700   2.760  1.02395E+00  1.01783E+00  6.11886E-03
    9017.547     22.547   2.800  1.01285E+00  1.01667E+00 -3.81293E-03
    9018.406     23.407   2.840  1.00147E+00  1.01545E+00 -1.39736E-02
    9019.278     24.279   2.880  9.88492E-01  1.01418E+00 -2.56883E-02
    9020.162     25.163   2.920  9.73462E-01  1.01288E+00 -3.94139E-02
    9021.058     26.059   2.960  9.57246E-01  1.01156E+00 -5.43139E-02
    9021.966     26.967   3.000  9.41247E-01  1.01022E+00 -6.89705E-02
    9022.887     27.887   3.040  9.26754E-01  1.00890E+00 -8.21424E-02
    9023.820     28.820   3.080  9.14568E-01  1.00758E+00 -9.30119E-02
    9024.764     29.765   3.120  9.05234E-01  1.00627E+00 -1.01039E-01
    9025.721     30.722   3.160  8.98666E-01  1.00502E+00 -1.06355E-01
    9026.691     31.691   3.200  8.94260E-01  1.00379E+00 -1.09528E-01
    9027.672     32.673   3.240  8.91360E-01  1.00262E+00 -1.11257E-01
    9028.666     33.666   3.280  8.88931E-01  1.00147E+00 -1.12540E-01
    9029.672     34.672   3.320  8.86065E-01  1.00041E+00 -1.14349E-01
    9030.690     35.690   3.360  8.82059E-01  9.99388E-01 -1.17328E-01
    9031.720     36.720   3.400  8.76995E-01  9.98456E-01 -1.21461E-01
    9032.762     37.763   3.440  8.71308E-01  9.97578E-01 -1.26270E-01
    9033.817     38.818   3.480  8.66246E-01  9.96777E-01 -1.30531E-01
    9034.884     39.884   3.520  8.63222E-01  9.96054E-01 -1.32832E-01
    9035.963     40.963   3.560  8.63146E-01  9.95411E-01 -1.32265E-01
    9037.054     42.054   3.600  8.66215E-01  9.94848E-01 -1.28633E-01
    9038.157     43.158   3.640  8.72164E-01  9.94364E-01 -1.22200E-01
    9039.273     44.273   3.680  8.80442E-01  9.93938E-01 -1.13496E-01
    9040.401     45.401   3.720  8.90582E-01  9.93613E-01 -1.03031E-01
    9041.541     46.541   3.760  9.02439E-01  9.93369E-01 -9.09299E-02
    9042.693     47.693   3.800  9.16038E-01  9.93184E-01 -7.71465E-02
    9043.857     48.858   3.840  9.31338E-01  9.93099E-01 -6.17610E-02
    9045.033     50.034   3.880  9.48059E-01  9.93071E-01 -4.50126E-02
    9046.222     51.223   3.920  9.65876E-01  9.93143E-01 -2.72672E-02
    9047.423     52.424   3.960  9.84452E-01  9.93269E-01 -8.81744E-03
    9048.636     53.637   4.000  1.00371E+00  9.93449E-01  1.02653E-02
    9049.862     54.862   4.040  1.02383E+00  9.93724E-01  3.01056E-02
    9051.099     56.100   4.080  1.04476E+00  9.94052E-01  5.07130E-02
    9052.349     57.349   4.120  1.06607E+00  9.94427E-01  7.16412E-02
    9053.611     58.611   4.160  1.08694E+00  9.94874E-01  9.20644E-02
    9054.885     59.885   4.200  1.10610E+00  9.95390E-01  1.10711E-01
    9056.171     61.171   4.240  1.12182E+00  9.95928E-01  1.25896E-01
    9057.469     62.470   4.280  1.13232E+00  9.96529E-01  1.35793E-01
    9058.780     63.781   4.320  1.13615E+00  9.97148E-01  1.38997E-01
    9060.103     65.103   4.360  1.13299E+00  9.97828E-01  1.35165E-01
    9061.438     66.438   4.400  1.12381E+00  9.98525E-01  1.25288E-01
    9062.785     67.786   4.440  1.11081E+00  9.99278E-01  1.11530E-01
    9064.144     69.145   4.480  1.09618E+00  1.00002E+00  9.61588E-02
    9065.516     70.517   4.520  1.08170E+00  1.00081E+00  8.08871E-02
    9066.900     71.900   4.560  1.06837E+00  1.00159E+00  6.67825E-02
    9068.296     73.296   4.600  1.05694E+00  1.00240E+00  5.45469E-02
    9069.704     74.705   4.640  1.04802E+00  1.00320E+00  4.48149E-02
    9071.124     76.125   4.680  1.04216E+00  1.00401E+00  3.81535E-02
    9072.557     77.557   4.720  1.03960E+00  1.00481E+00  3.47908E-02
    9074.002     79.002   4.760  1.04002E+00  1.00561E+00  3.44050E-02
    9075.459     80.459   4.800  1.04248E+00  1.00641E+00  3.60721E-02
    9076.928     81.928   4.840  1.04544E+00  1.00717E+00  3.82635E-02
    9078.409     83.410   4.880  1.04692E+00  1.00793E+00  3.89916E-02
    9079.902     84.903   4.920  1.04493E+00  1.00865E+00  3.62805E-02
    9081.408     86.409   4.960  1.03812E+00  1.00933E+00  2.87882E-02
    9082.926     87.927   5.000  1.02634E+00  1.01000E+00  1.63428E-02
    9084.456     89.457   5.040  1.01068E+00  1.01063E+00  4.74289E-05
    9085.998     90.999   5.080  9.93126E-01  1.01123E+00 -1.81004E-02
    9087.553     92.554   5.120  9.76046E-01  1.01178E+00 -3.57315E-02
    9089.120     94.120   5.160  9.61523E-01  1.01229E+00 -5.07630E-02
    9090.698     95.699   5.200  9.50950E-01  1.01275E+00 -6.18019E-02
    9092.289     97.290   5.240  9.44827E-01  1.01317E+00 -6.83472E-02
    9093.893     98.893   5.280  9.42830E-01  1.01355E+00 -7.07215E-02
    9095.508    100.509   5.320  9.43907E-01  1.01386E+00 -6.99508E-02
    9097.136    102.136   5.360  9.46747E-01  1.01412E+00 -6.73710E-02
    9098.776    103.776   5.400  9.50323E-01  1.01433E+00 -6.40076E-02
    9100.428    105.428   5.440  9.54271E-01  1.01447E+00 -6.02017E-02
    9102.092    107.092   5.480  9.59241E-01  1.01457E+00 -5.53277E-02
    9103.768    108.769   5.520  9.66564E-01  1.01462E+00 -4.80543E-02
    9105.457    110.457   5.560  9.77483E-01  1.01462E+00 -3.71388E-02
    9107.158    112.158   5.600  9.92435E-01  1.01456E+00 -2.21199E-02
    9108.871    113.871   5.640  1.01088E+00  1.01444E+00 -3.55647E-03
    9110.596    115.596   5.680  1.03081E+00  1.01426E+00  1.65545E-02
    9112.333    117.334   5.720  1.04875E+00  1.01405E+00  3.46968E-02
    9114.083    119.083   5.760  1.05986E+00  1.01378E+00  4.60782E-02
    9115.844    120.845   5.800  1.06017E+00  1.01347E+00  4.66972E-02
    9117.618    122.619   5.840  1.04890E+00  1.01311E+00  3.57928E-02
    9119.404    124.405   5.880  1.02930E+00  1.01269E+00  1.66077E-02
    9121.203    126.203   5.920  1.00702E+00  1.01226E+00 -5.23613E-03
    9123.013    128.014   5.960  9.87534E-01  1.01176E+00 -2.42285E-02
    9124.836    129.837   6.000  9.74329E-01  1.01123E+00 -3.68992E-02
