# # comment:                                                     FEFF 9.9.1  
# # Source:
# # Structure
# # Reduced
# # space
# # abc:
# # angles:
# # sites:
# # POT  SCF 100  7.0000   0, screened core-hole, AFOLP (folp(0)= 1.150)
# # Abs   Z=29 Rmt= 1.281 Rnm= 1.354 K  shell
# # Pot 1 Z=29 Rmt= 1.245 Rnm= 1.324
# # Pot 2 Z= 5 Rmt= 0.834 Rnm= 1.013
# # Pot 3 Z= 8 Rmt= 0.938 Rnm= 1.062
# # Gam_ch=1.729E+00 H-L exch Vi= 0.000E+00 Vr= 0.000E+00
# # Mu=-6.875E+00eV kf=2.348E+00 Vint=-1.694E+01eV Rs_int= 1.544
# FMS rfms= 9.0000
# # PATH  Rmax=-1.000,  Keep_limit= 0.00, Heap_limit 0.00  Pwcrit= 2.50%
#  S02=0.950  Temp=   0.00  Debye_temp=   0.00  Global_sig2= 0.00000
#  Energy zero shift, vr, vi    0.00000E+00   0.00000E+00
#  Curved wave amplitude ratio filter   4.000%
#     file         sig2 tot  cw amp ratio   deg  nlegs   reff  inp sig2
#     0/   0 paths used
#  xsedge+ 50, used to normalize mu           2.4853E-04
#  -----------------------------------------------------------------------
#  omega    e    k    mu    mu0     chi     @#
    8983.371    -10.685  -1.000  4.19917E-02  5.15151E-02 -9.52331E-03
    8983.670    -10.386  -0.960  4.45843E-02  5.52255E-02 -1.06412E-02
    8983.956    -10.100  -0.920  4.74290E-02  5.93481E-02 -1.19191E-02
    8984.231     -9.825  -0.880  5.05599E-02  6.39439E-02 -1.33840E-02
    8984.493     -9.563  -0.840  5.40163E-02  6.90837E-02 -1.50675E-02
    8984.743     -9.313  -0.800  5.78425E-02  7.48498E-02 -1.70072E-02
    8984.981     -9.075  -0.760  6.20892E-02  8.13364E-02 -1.92472E-02
    8985.206     -8.850  -0.720  6.68121E-02  8.86503E-02 -2.18383E-02
    8985.419     -8.637  -0.680  7.20715E-02  9.69091E-02 -2.48376E-02
    8985.621     -8.435  -0.640  7.79300E-02  1.06237E-01 -2.83069E-02
    8985.810     -8.246  -0.600  8.44474E-02  1.16756E-01 -3.23083E-02
    8985.986     -8.070  -0.560  9.16734E-02  1.28570E-01 -3.68963E-02
    8986.151     -7.905  -0.520  9.96362E-02  1.41741E-01 -4.21049E-02
    8986.303     -7.753  -0.480  1.08327E-01  1.56256E-01 -4.79296E-02
    8986.444     -7.612  -0.440  1.17681E-01  1.71987E-01 -5.43068E-02
    8986.572     -7.484  -0.400  1.27564E-01  1.88660E-01 -6.10969E-02
    8986.687     -7.369  -0.360  1.37762E-01  2.05843E-01 -6.80811E-02
    8986.791     -7.265  -0.320  1.47994E-01  2.22976E-01 -7.49814E-02
    8986.883     -7.174  -0.280  1.57934E-01  2.39435E-01 -8.15018E-02
    8986.962     -7.094  -0.240  1.67245E-01  2.54625E-01 -8.73794E-02
    8987.029     -7.027  -0.200  1.75621E-01  2.68044E-01 -9.24230E-02
    8987.084     -6.972  -0.160  1.82801E-01  2.79328E-01 -9.65269E-02
    8987.126     -6.930  -0.120  1.88586E-01  2.88245E-01 -9.96587E-02
    8987.157     -6.899  -0.080  1.92833E-01  2.94667E-01 -1.01834E-01
    8987.181     -6.875   0.000  1.96336E-01  2.99825E-01 -1.03490E-01
    8987.236     -6.820   0.120  2.04139E-01  3.11467E-01 -1.07328E-01
    8987.279     -6.777   0.160  2.10306E-01  3.20504E-01 -1.10197E-01
    8987.334     -6.722   0.200  2.18344E-01  3.32027E-01 -1.13683E-01
    8987.401     -6.655   0.240  2.28332E-01  3.45876E-01 -1.17543E-01
    8987.480     -6.576   0.280  2.40324E-01  3.61784E-01 -1.21460E-01
    8987.571     -6.485   0.320  2.54285E-01  3.79297E-01 -1.25012E-01
    8987.675     -6.381   0.360  2.70130E-01  3.97921E-01 -1.27791E-01
    8987.791     -6.265   0.400  2.87634E-01  4.17111E-01 -1.29477E-01
    8987.919     -6.137   0.440  3.06343E-01  4.36350E-01 -1.30007E-01
    8988.059     -5.997   0.480  3.25596E-01  4.55253E-01 -1.29657E-01
    8988.211     -5.845   0.520  3.44555E-01  4.73558E-01 -1.29003E-01
    8988.376     -5.680   0.560  3.62437E-01  4.91173E-01 -1.28735E-01
    8988.553     -5.503   0.600  3.78657E-01  5.08051E-01 -1.29393E-01
    8988.742     -5.314   0.640  3.92769E-01  5.24268E-01 -1.31499E-01
    8988.943     -5.113   0.680  4.03778E-01  5.39878E-01 -1.36100E-01
    8989.156     -4.900   0.720  4.09601E-01  5.55010E-01 -1.45409E-01
    8989.382     -4.674   0.760  4.07801E-01  5.69748E-01 -1.61947E-01
    8989.620     -4.436   0.800  3.98154E-01  5.84169E-01 -1.86015E-01
    8989.870     -4.186   0.840  3.84416E-01  5.98359E-01 -2.13944E-01
    8990.132     -3.924   0.880  3.72129E-01  6.12350E-01 -2.40220E-01
    8990.406     -3.650   0.920  3.65112E-01  6.26221E-01 -2.61110E-01
    8990.693     -3.364   0.960  3.64577E-01  6.39961E-01 -2.75384E-01
    8990.991     -3.065   1.000  3.70610E-01  6.53647E-01 -2.83037E-01
    8991.302     -2.754   1.040  3.82829E-01  6.67269E-01 -2.84439E-01
    8991.625     -2.431   1.080  4.00839E-01  6.80805E-01 -2.79965E-01
    8991.960     -2.096   1.120  4.24791E-01  6.94293E-01 -2.69502E-01
    8992.308     -1.748   1.160  4.54902E-01  7.07704E-01 -2.52802E-01
    8992.668     -1.388   1.200  4.90116E-01  7.21041E-01 -2.30925E-01
    8993.039     -1.017   1.240  5.27452E-01  7.34268E-01 -2.06816E-01
    8993.424     -0.633   1.280  5.63494E-01  7.47383E-01 -1.83889E-01
    8993.820     -0.236   1.320  5.97731E-01  7.60383E-01 -1.62652E-01
    8994.228      0.172   1.360  6.34041E-01  7.73202E-01 -1.39161E-01
    8994.649      0.593   1.400  6.76205E-01  7.85835E-01 -1.09631E-01
    8995.082      1.026   1.440  7.23844E-01  7.98276E-01 -7.44317E-02
    8995.527      1.471   1.480  7.73970E-01  8.10495E-01 -3.65254E-02
    8995.984      1.928   1.520  8.24842E-01  8.22464E-01  2.37795E-03
    8996.453      2.397   1.560  8.77545E-01  8.34154E-01  4.33915E-02
    8996.935      2.879   1.600  9.31751E-01  8.45556E-01  8.61953E-02
    8997.429      3.373   1.640  9.84357E-01  8.56643E-01  1.27714E-01
    8997.935      3.878   1.680  1.03424E+00  8.67387E-01  1.66856E-01
    8998.453      4.397   1.720  1.08044E+00  8.77779E-01  2.02659E-01
    8998.983      4.927   1.760  1.11868E+00  8.87794E-01  2.30881E-01
    8999.526      5.470   1.800  1.14636E+00  8.97447E-01  2.48913E-01
    9000.080      6.024   1.840  1.16701E+00  9.06691E-01  2.60316E-01
    9000.647      6.591   1.880  1.18593E+00  9.15541E-01  2.70385E-01
    9001.226      7.170   1.920  1.18936E+00  9.23976E-01  2.65385E-01
    9001.818      7.762   1.960  1.15918E+00  9.31972E-01  2.27204E-01
    9002.421      8.365   2.000  1.11189E+00  9.39567E-01  1.72324E-01
    9003.037      8.981   2.040  1.07300E+00  9.46721E-01  1.26284E-01
    9003.665      9.609   2.080  1.04751E+00  9.53453E-01  9.40527E-02
    9004.305     10.249   2.120  1.03780E+00  9.59746E-01  7.80590E-02
    9004.957     10.901   2.160  1.05151E+00  9.65621E-01  8.58916E-02
    9005.622     11.566   2.200  1.09176E+00  9.71081E-01  1.20677E-01
    9006.298     12.242   2.240  1.15287E+00  9.76131E-01  1.76743E-01
    9006.987     12.931   2.280  1.22440E+00  9.80774E-01  2.43629E-01
    9007.688     13.632   2.320  1.28701E+00  9.85034E-01  3.01974E-01
    9008.401     14.345   2.360  1.31500E+00  9.88898E-01  3.26104E-01
    9009.127     15.071   2.400  1.30069E+00  9.92390E-01  3.08296E-01
    9009.864     15.808   2.440  1.25815E+00  9.95516E-01  2.62631E-01
    9010.614     16.558   2.480  1.20525E+00  9.98284E-01  2.06970E-01
    9011.376     17.320   2.520  1.15372E+00  1.00074E+00  1.52975E-01
    9012.150     18.094   2.560  1.10713E+00  1.00286E+00  1.04277E-01
    9012.937     18.881   2.600  1.06461E+00  1.00467E+00  5.99311E-02
    9013.735     19.679   2.640  1.02546E+00  1.00621E+00  1.92524E-02
    9014.546     20.490   2.680  9.87567E-01  1.00748E+00 -1.99137E-02
    9015.369     21.313   2.720  9.44337E-01  1.00848E+00 -6.41439E-02
    9016.204     22.148   2.760  9.04815E-01  1.00924E+00 -1.04423E-01
    9017.052     22.995   2.800  8.81481E-01  1.00976E+00 -1.28278E-01
    9017.911     23.855   2.840  8.71357E-01  1.01009E+00 -1.38735E-01
    9018.783     24.727   2.880  8.68884E-01  1.01023E+00 -1.41342E-01
    9019.667     25.611   2.920  8.69318E-01  1.01017E+00 -1.40849E-01
    9020.563     26.507   2.960  8.70124E-01  1.00994E+00 -1.39820E-01
    9021.471     27.415   3.000  8.70325E-01  1.00958E+00 -1.39259E-01
    9022.392     28.336   3.040  8.69783E-01  1.00908E+00 -1.39292E-01
    9023.324     29.268   3.080  8.68908E-01  1.00846E+00 -1.39556E-01
    9024.269     30.213   3.120  8.68386E-01  1.00772E+00 -1.39329E-01
    9025.226     31.170   3.160  8.68869E-01  1.00690E+00 -1.38029E-01
    9026.195     32.139   3.200  8.70680E-01  1.00598E+00 -1.35298E-01
    9027.177     33.121   3.240  8.74195E-01  1.00500E+00 -1.30806E-01
    9028.171     34.115   3.280  8.79598E-01  1.00395E+00 -1.24356E-01
    9029.176     35.120   3.320  8.86690E-01  1.00288E+00 -1.16190E-01
    9030.194     36.138   3.360  8.95240E-01  1.00175E+00 -1.06507E-01
    9031.225     37.169   3.400  9.05242E-01  1.00058E+00 -9.53357E-02
    9032.267     38.211   3.440  9.16438E-01  9.99419E-01 -8.29813E-02
    9033.322     39.266   3.480  9.28528E-01  9.98233E-01 -6.97055E-02
    9034.388     40.332   3.520  9.41267E-01  9.97044E-01 -5.57764E-02
    9035.467     41.411   3.560  9.54286E-01  9.95855E-01 -4.15695E-02
    9036.559     42.503   3.600  9.67201E-01  9.94673E-01 -2.74721E-02
    9037.662     43.606   3.640  9.79787E-01  9.93520E-01 -1.37329E-02
    9038.778     44.722   3.680  9.91823E-01  9.92399E-01 -5.76439E-04
    9039.905     45.849   3.720  1.00306E+00  9.91314E-01  1.17452E-02
    9041.045     46.989   3.760  1.01329E+00  9.90245E-01  2.30443E-02
    9042.197     48.141   3.800  1.02238E+00  9.89235E-01  3.31467E-02
    9043.362     49.306   3.840  1.03002E+00  9.88247E-01  4.17765E-02
    9044.538     50.482   3.880  1.03611E+00  9.87321E-01  4.87865E-02
    9045.727     51.671   3.920  1.04060E+00  9.86441E-01  5.41541E-02
    9046.928     52.872   3.960  1.04361E+00  9.85629E-01  5.79803E-02
    9048.141     54.085   4.000  1.04541E+00  9.84862E-01  6.05435E-02
    9049.366     55.310   4.040  1.04649E+00  9.84142E-01  6.23511E-02
    9050.604     56.548   4.080  1.04745E+00  9.83491E-01  6.39567E-02
    9051.853     57.797   4.120  1.04863E+00  9.82891E-01  6.57408E-02
    9053.115     59.059   4.160  1.05014E+00  9.82363E-01  6.77742E-02
    9054.389     60.333   4.200  1.05161E+00  9.81906E-01  6.97049E-02
    9055.676     61.620   4.240  1.05235E+00  9.81499E-01  7.08465E-02
    9056.974     62.918   4.280  1.05163E+00  9.81163E-01  7.04670E-02
    9058.285     64.229   4.320  1.04895E+00  9.80878E-01  6.80711E-02
    9059.607     65.551   4.360  1.04418E+00  9.80665E-01  6.35131E-02
    9060.943     66.886   4.400  1.03752E+00  9.80523E-01  5.69991E-02
    9062.290     68.234   4.440  1.02952E+00  9.80427E-01  4.90950E-02
    9063.649     69.593   4.480  1.02093E+00  9.80379E-01  4.05485E-02
    9065.021     70.965   4.520  1.01259E+00  9.80399E-01  3.21871E-02
    9066.405     72.348   4.560  1.00521E+00  9.80464E-01  2.47478E-02
    9067.800     73.744   4.600  9.99217E-01  9.80575E-01  1.86428E-02
    9069.209     75.153   4.640  9.94595E-01  9.80749E-01  1.38456E-02
    9070.629     76.573   4.680  9.90879E-01  9.80967E-01  9.91286E-03
    9072.062     78.006   4.720  9.87344E-01  9.81203E-01  6.14064E-03
    9073.506     79.450   4.760  9.83347E-01  9.81501E-01  1.84602E-03
    9074.963     80.907   4.800  9.78516E-01  9.81837E-01 -3.32133E-03
    9076.432     82.376   4.840  9.72988E-01  9.82211E-01 -9.22307E-03
    9077.914     83.858   4.880  9.67329E-01  9.82599E-01 -1.52702E-02
    9079.407     85.351   4.920  9.62365E-01  9.83019E-01 -2.06536E-02
    9080.913     86.857   4.960  9.58797E-01  9.83472E-01 -2.46749E-02
    9082.431     88.375   5.000  9.56973E-01  9.83934E-01 -2.69605E-02
    9083.961     89.905   5.040  9.56869E-01  9.84425E-01 -2.75553E-02
    9085.503     91.447   5.080  9.58116E-01  9.84920E-01 -2.68043E-02
    9087.058     93.002   5.120  9.60268E-01  9.85418E-01 -2.51502E-02
    9088.624     94.568   5.160  9.62863E-01  9.85916E-01 -2.30533E-02
    9090.203     96.147   5.200  9.65549E-01  9.86414E-01 -2.08652E-02
    9091.794     97.738   5.240  9.68042E-01  9.86913E-01 -1.88709E-02
    9093.397     99.341   5.280  9.70096E-01  9.87430E-01 -1.73341E-02
    9095.013    100.957   5.320  9.71339E-01  9.87899E-01 -1.65598E-02
    9096.641    102.585   5.360  9.71540E-01  9.88383E-01 -1.68429E-02
    9098.280    104.224   5.400  9.70433E-01  9.88839E-01 -1.84058E-02
    9099.932    105.876   5.440  9.67893E-01  9.89284E-01 -2.13915E-02
    9101.597    107.541   5.480  9.63854E-01  9.89695E-01 -2.58406E-02
    9103.273    109.217   5.520  9.58503E-01  9.90071E-01 -3.15687E-02
    9104.962    110.906   5.560  9.52368E-01  9.90433E-01 -3.80659E-02
    9106.662    112.606   5.600  9.46205E-01  9.90737E-01 -4.45317E-02
    9108.375    114.319   5.640  9.41016E-01  9.91024E-01 -5.00076E-02
    9110.100    116.044   5.680  9.37693E-01  9.91276E-01 -5.35835E-02
    9111.838    117.782   5.720  9.36934E-01  9.91512E-01 -5.45780E-02
    9113.587    119.531   5.760  9.39104E-01  9.91685E-01 -5.25810E-02
    9115.349    121.293   5.800  9.44330E-01  9.91815E-01 -4.74845E-02
    9117.123    123.067   5.840  9.52292E-01  9.91904E-01 -3.96117E-02
    9118.909    124.853   5.880  9.62142E-01  9.91950E-01 -2.98080E-02
    9120.707    126.651   5.920  9.72693E-01  9.91930E-01 -1.92369E-02
    9122.518    128.462   5.960  9.82936E-01  9.91885E-01 -8.94960E-03
    9124.341    130.285   6.000  9.92455E-01  9.91745E-01  7.09296E-04
