# # comment:                                                     FEFF 9.9.1  
# # Source:
# # Structure
# # Reduced
# # space
# # abc:
# # angles:
# # sites:
# # POT  SCF 100  7.0000   0, screened core-hole, AFOLP (folp(0)= 1.150)
# # Abs   Z=29 Rmt= 1.388 Rnm= 1.451 K  shell
# # Pot 1 Z=29 Rmt= 1.388 Rnm= 1.451
# # Pot 2 Z=15 Rmt= 0.945 Rnm= 1.159
# # Pot 3 Z= 8 Rmt= 0.887 Rnm= 1.035
# # Gam_ch=1.729E+00 H-L exch Vi= 0.000E+00 Vr= 0.000E+00
# # Mu=-6.188E+00eV kf=2.493E+00 Vint=-1.751E+01eV Rs_int= 1.455
# FMS rfms= 9.0000
# # PATH  Rmax=-1.000,  Keep_limit= 0.00, Heap_limit 0.00  Pwcrit= 2.50%
#  S02=0.950  Temp=   0.00  Debye_temp=   0.00  Global_sig2= 0.00000
#  Energy zero shift, vr, vi    0.00000E+00   0.00000E+00
#  Curved wave amplitude ratio filter   4.000%
#     file         sig2 tot  cw amp ratio   deg  nlegs   reff  inp sig2
#     0/   0 paths used
#  xsedge+ 50, used to normalize mu           2.4386E-04
#  -----------------------------------------------------------------------
#  omega    e    k    mu    mu0     chi     @#
    8983.295     -9.998  -1.000  5.08038E-02  5.37933E-02 -2.98949E-03
    8983.594     -9.699  -0.960  5.40845E-02  5.76398E-02 -3.55536E-03
    8983.880     -9.413  -0.920  5.76810E-02  6.19101E-02 -4.22905E-03
    8984.155     -9.139  -0.880  6.16347E-02  6.66663E-02 -5.03163E-03
    8984.417     -8.876  -0.840  6.59927E-02  7.19810E-02 -5.98829E-03
    8984.667     -8.627  -0.800  7.08092E-02  7.79381E-02 -7.12895E-03
    8984.904     -8.389  -0.760  7.61454E-02  8.46342E-02 -8.48887E-03
    8985.130     -8.163  -0.720  8.20695E-02  9.21784E-02 -1.01089E-02
    8985.343     -7.950  -0.680  8.86555E-02  1.00691E-01 -1.20350E-02
    8985.544     -7.749  -0.640  9.59801E-02  1.10298E-01 -1.43175E-02
    8985.733     -7.560  -0.600  1.04117E-01  1.21124E-01 -1.70070E-02
    8985.910     -7.383  -0.560  1.13127E-01  1.33276E-01 -2.01495E-02
    8986.075     -7.218  -0.520  1.23041E-01  1.46817E-01 -2.37762E-02
    8986.227     -7.066  -0.480  1.33842E-01  1.61733E-01 -2.78905E-02
    8986.367     -6.926  -0.440  1.45439E-01  1.77892E-01 -3.24528E-02
    8986.495     -6.798  -0.400  1.57645E-01  1.95012E-01 -3.73677E-02
    8986.611     -6.682  -0.360  1.70173E-01  2.12653E-01 -4.24802E-02
    8986.715     -6.578  -0.320  1.82650E-01  2.30239E-01 -4.75888E-02
    8986.806     -6.487  -0.280  1.94659E-01  2.47133E-01 -5.24736E-02
    8986.886     -6.408  -0.240  2.05790E-01  2.62722E-01 -5.69324E-02
    8986.953     -6.341  -0.200  2.15686E-01  2.76496E-01 -6.08092E-02
    8987.008     -6.286  -0.160  2.24071E-01  2.88078E-01 -6.40070E-02
    8987.050     -6.243  -0.120  2.30749E-01  2.97232E-01 -6.64828E-02
    8987.081     -6.213  -0.080  2.35593E-01  3.03825E-01 -6.82318E-02
    8987.105     -6.188   0.000  2.39512E-01  3.09121E-01 -6.96094E-02
    8987.160     -6.133   0.120  2.48352E-01  3.21056E-01 -7.27040E-02
    8987.203     -6.091   0.160  2.55295E-01  3.30336E-01 -7.50405E-02
    8987.257     -6.036   0.200  2.64268E-01  3.42170E-01 -7.79017E-02
    8987.324     -5.969   0.240  2.75270E-01  3.56412E-01 -8.11415E-02
    8987.404     -5.889   0.280  2.88225E-01  3.72750E-01 -8.45245E-02
    8987.495     -5.798   0.320  3.03007E-01  3.90760E-01 -8.77533E-02
    8987.599     -5.694   0.360  3.19457E-01  4.09938E-01 -9.04804E-02
    8987.715     -5.579   0.400  3.37342E-01  4.29686E-01 -9.23434E-02
    8987.843     -5.451   0.440  3.56480E-01  4.49538E-01 -9.30580E-02
    8987.983     -5.310   0.480  3.76586E-01  4.69063E-01 -9.24770E-02
    8988.135     -5.158   0.520  3.97380E-01  4.88034E-01 -9.06538E-02
    8988.300     -4.993   0.560  4.18444E-01  5.06321E-01 -8.78773E-02
    8988.477     -4.817   0.600  4.39361E-01  5.23940E-01 -8.45788E-02
    8988.666     -4.628   0.640  4.59797E-01  5.40910E-01 -8.11136E-02
    8988.867     -4.426   0.680  4.79900E-01  5.57375E-01 -7.74748E-02
    8989.080     -4.213   0.720  5.00140E-01  5.73383E-01 -7.32428E-02
    8989.306     -3.988   0.760  5.20987E-01  5.89089E-01 -6.81020E-02
    8989.543     -3.750   0.800  5.42114E-01  6.04556E-01 -6.24414E-02
    8989.793     -3.500   0.840  5.62652E-01  6.19873E-01 -5.72208E-02
    8990.055     -3.238   0.880  5.82210E-01  6.35098E-01 -5.28878E-02
    8990.330     -2.963   0.920  6.01716E-01  6.50295E-01 -4.85785E-02
    8990.616     -2.677   0.960  6.22659E-01  6.65515E-01 -4.28557E-02
    8990.915     -2.378   1.000  6.45633E-01  6.80778E-01 -3.51453E-02
    8991.226     -2.067   1.040  6.70288E-01  6.96074E-01 -2.57864E-02
    8991.549     -1.744   1.080  6.96759E-01  7.11427E-01 -1.46680E-02
    8991.884     -1.409   1.120  7.25602E-01  7.26850E-01 -1.24885E-03
    8992.232     -1.061   1.160  7.56527E-01  7.42314E-01  1.42126E-02
    8992.591     -0.702   1.200  7.89299E-01  7.57800E-01  3.14993E-02
    8992.963     -0.330   1.240  8.23568E-01  7.73308E-01  5.02601E-02
    8993.347      0.054   1.280  8.55380E-01  7.88791E-01  6.65891E-02
    8993.744      0.450   1.320  8.79608E-01  8.04223E-01  7.53856E-02
    8994.152      0.859   1.360  8.96996E-01  8.19591E-01  7.74045E-02
    8994.573      1.279   1.400  9.15704E-01  8.34821E-01  8.08838E-02
    8995.005      1.712   1.440  9.44867E-01  8.49894E-01  9.49729E-02
    8995.450      2.157   1.480  9.82425E-01  8.64756E-01  1.17669E-01
    8995.908      2.614   1.520  1.01508E+00  8.79387E-01  1.35690E-01
    8996.377      3.084   1.560  1.03873E+00  8.93706E-01  1.45019E-01
    8996.859      3.565   1.600  1.06406E+00  9.07714E-01  1.56343E-01
    8997.352      4.059   1.640  1.09943E+00  9.21330E-01  1.78099E-01
    8997.858      4.565   1.680  1.14820E+00  9.34514E-01  2.13690E-01
    8998.376      5.083   1.720  1.20843E+00  9.47246E-01  2.61183E-01
    8998.907      5.614   1.760  1.26872E+00  9.59469E-01  3.09247E-01
    8999.449      6.156   1.800  1.30980E+00  9.71164E-01  3.38637E-01
    9000.004      6.711   1.840  1.32337E+00  9.82274E-01  3.41092E-01
    9000.571      7.278   1.880  1.31833E+00  9.92784E-01  3.25543E-01
    9001.150      7.857   1.920  1.29818E+00  1.00266E+00  2.95517E-01
    9001.741      8.448   1.960  1.26196E+00  1.01190E+00  2.50060E-01
    9002.345      9.052   2.000  1.21382E+00  1.02044E+00  1.93380E-01
    9002.961      9.667   2.040  1.16063E+00  1.02831E+00  1.32321E-01
    9003.589     10.295   2.080  1.11307E+00  1.03547E+00  7.75969E-02
    9004.229     10.935   2.120  1.07954E+00  1.04195E+00  3.75874E-02
    9004.881     11.588   2.160  1.05827E+00  1.04773E+00  1.05385E-02
    9005.545     12.252   2.200  1.04228E+00  1.05278E+00 -1.05063E-02
    9006.222     12.929   2.240  1.02765E+00  1.05718E+00 -2.95298E-02
    9006.911     13.618   2.280  1.01697E+00  1.06089E+00 -4.39119E-02
    9007.612     14.319   2.320  1.01374E+00  1.06393E+00 -5.01980E-02
    9008.325     15.032   2.360  1.01707E+00  1.06637E+00 -4.93028E-02
    9009.051     15.757   2.400  1.02195E+00  1.06817E+00 -4.62190E-02
    9009.788     16.495   2.440  1.02182E+00  1.06939E+00 -4.75666E-02
    9010.538     17.245   2.480  1.01251E+00  1.07006E+00 -5.75525E-02
    9011.300     18.007   2.520  9.96584E-01  1.07019E+00 -7.36106E-02
    9012.074     18.781   2.560  9.81065E-01  1.06983E+00 -8.87701E-02
    9012.861     19.567   2.600  9.70688E-01  1.06902E+00 -9.83310E-02
    9013.659     20.366   2.640  9.65738E-01  1.06778E+00 -1.02047E-01
    9014.470     21.177   2.680  9.62931E-01  1.06617E+00 -1.03240E-01
    9015.293     22.000   2.720  9.57694E-01  1.06419E+00 -1.06500E-01
    9016.128     22.835   2.760  9.48407E-01  1.06192E+00 -1.13509E-01
    9016.975     23.682   2.800  9.39092E-01  1.05935E+00 -1.20261E-01
    9017.835     24.542   2.840  9.35832E-01  1.05654E+00 -1.20713E-01
    9018.707     25.413   2.880  9.41285E-01  1.05355E+00 -1.12263E-01
    9019.590     26.297   2.920  9.51754E-01  1.05036E+00 -9.86058E-02
    9020.487     27.193   2.960  9.63670E-01  1.04704E+00 -8.33660E-02
    9021.395     28.102   3.000  9.75709E-01  1.04359E+00 -6.78858E-02
    9022.315     29.022   3.040  9.86674E-01  1.04007E+00 -5.33936E-02
    9023.248     29.955   3.080  9.95618E-01  1.03649E+00 -4.08737E-02
    9024.193     30.900   3.120  1.00231E+00  1.03288E+00 -3.05653E-02
    9025.150     31.857   3.160  1.00700E+00  1.02927E+00 -2.22664E-02
    9026.119     32.826   3.200  1.01024E+00  1.02568E+00 -1.54396E-02
    9027.101     33.808   3.240  1.01269E+00  1.02213E+00 -9.44479E-03
    9028.094     34.801   3.280  1.01482E+00  1.01866E+00 -3.84318E-03
    9029.100     35.807   3.320  1.01674E+00  1.01525E+00  1.48776E-03
    9030.118     36.825   3.360  1.01847E+00  1.01196E+00  6.51054E-03
    9031.148     37.855   3.400  1.01990E+00  1.00878E+00  1.11181E-02
    9032.191     38.898   3.440  1.02093E+00  1.00572E+00  1.52128E-02
    9033.245     39.952   3.480  1.02173E+00  1.00281E+00  1.89247E-02
    9034.312     41.019   3.520  1.02265E+00  1.00003E+00  2.26139E-02
    9035.391     42.098   3.560  1.02408E+00  9.97422E-01  2.66620E-02
    9036.482     43.189   3.600  1.02636E+00  9.95003E-01  3.13582E-02
    9037.586     44.293   3.640  1.02954E+00  9.92754E-01  3.67898E-02
    9038.701     45.408   3.680  1.03345E+00  9.90675E-01  4.27735E-02
    9039.829     46.536   3.720  1.03766E+00  9.88792E-01  4.88635E-02
    9040.969     47.676   3.760  1.04164E+00  9.87107E-01  5.45328E-02
    9042.121     48.828   3.800  1.04484E+00  9.85600E-01  5.92382E-02
    9043.286     49.992   3.840  1.04678E+00  9.84292E-01  6.24867E-02
    9044.462     51.169   3.880  1.04721E+00  9.83185E-01  6.40260E-02
    9045.651     52.358   3.920  1.04611E+00  9.82279E-01  6.38284E-02
    9046.852     53.558   3.960  1.04358E+00  9.81572E-01  6.20051E-02
    9048.065     54.772   4.000  1.03975E+00  9.81043E-01  5.87106E-02
    9049.290     55.997   4.040  1.03488E+00  9.80712E-01  5.41641E-02
    9050.528     57.234   4.080  1.02910E+00  9.80576E-01  4.85275E-02
    9051.777     58.484   4.120  1.02262E+00  9.80612E-01  4.20105E-02
    9053.039     59.746   4.160  1.01575E+00  9.80815E-01  3.49341E-02
    9054.313     61.020   4.200  1.00883E+00  9.81184E-01  2.76438E-02
    9055.599     62.306   4.240  1.00211E+00  9.81739E-01  2.03664E-02
    9056.898     63.605   4.280  9.95606E-01  9.82433E-01  1.31735E-02
    9058.208     64.915   4.320  9.89257E-01  9.83282E-01  5.97480E-03
    9059.531     66.238   4.360  9.82841E-01  9.84261E-01 -1.42059E-03
    9060.866     67.573   4.400  9.76245E-01  9.85388E-01 -9.14277E-03
    9062.214     68.920   4.440  9.69453E-01  9.86613E-01 -1.71599E-02
    9063.573     70.280   4.480  9.62748E-01  9.87954E-01 -2.52053E-02
    9064.945     71.651   4.520  9.56639E-01  9.89384E-01 -3.27449E-02
    9066.328     73.035   4.560  9.51846E-01  9.90920E-01 -3.90738E-02
    9067.724     74.431   4.600  9.48893E-01  9.92513E-01 -4.36195E-02
    9069.132     75.839   4.640  9.48042E-01  9.94178E-01 -4.61353E-02
    9070.553     77.260   4.680  9.49048E-01  9.95888E-01 -4.68403E-02
    9071.985     78.692   4.720  9.51246E-01  9.97639E-01 -4.63934E-02
    9073.430     80.137   4.760  9.53854E-01  9.99423E-01 -4.55693E-02
    9074.887     81.594   4.800  9.56316E-01  1.00121E+00 -4.48967E-02
    9076.356     83.063   4.840  9.58536E-01  1.00300E+00 -4.44686E-02
    9077.838     84.544   4.880  9.60947E-01  1.00479E+00 -4.38421E-02
    9079.331     86.038   4.920  9.64264E-01  1.00654E+00 -4.22767E-02
    9080.837     87.544   4.960  9.69229E-01  1.00828E+00 -3.90485E-02
    9082.355     89.061   5.000  9.76226E-01  1.00995E+00 -3.37210E-02
    9083.885     90.592   5.040  9.85212E-01  1.01157E+00 -2.63538E-02
    9085.427     92.134   5.080  9.95603E-01  1.01311E+00 -1.75047E-02
    9086.981     93.688   5.120  1.00654E+00  1.01457E+00 -8.02633E-03
    9088.548     95.255   5.160  1.01715E+00  1.01594E+00  1.20835E-03
    9090.127     96.834   5.200  1.02674E+00  1.01723E+00  9.50829E-03
    9091.718     98.425   5.240  1.03480E+00  1.01840E+00  1.63947E-02
    9093.321    100.028   5.280  1.04102E+00  1.01945E+00  2.15651E-02
    9094.937    101.644   5.320  1.04528E+00  1.02041E+00  2.48733E-02
    9096.564    103.271   5.360  1.04756E+00  1.02121E+00  2.63506E-02
    9098.204    104.911   5.400  1.04813E+00  1.02189E+00  2.62395E-02
    9099.856    106.563   5.440  1.04740E+00  1.02244E+00  2.49567E-02
    9101.520    108.227   5.480  1.04584E+00  1.02287E+00  2.29693E-02
    9103.197    109.904   5.520  1.04379E+00  1.02314E+00  2.06527E-02
    9104.885    111.592   5.560  1.04149E+00  1.02328E+00  1.82015E-02
    9106.586    113.293   5.600  1.03893E+00  1.02330E+00  1.56299E-02
    9108.299    115.006   5.640  1.03604E+00  1.02317E+00  1.28763E-02
    9110.024    116.731   5.680  1.03289E+00  1.02293E+00  9.96167E-03
    9111.762    118.468   5.720  1.02964E+00  1.02255E+00  7.08998E-03
    9113.511    120.218   5.760  1.02666E+00  1.02204E+00  4.62040E-03
    9115.273    121.980   5.800  1.02433E+00  1.02142E+00  2.90839E-03
    9117.047    123.754   5.840  1.02287E+00  1.02071E+00  2.15646E-03
    9118.833    125.540   5.880  1.02228E+00  1.01989E+00  2.39179E-03
    9120.631    127.338   5.920  1.02249E+00  1.01896E+00  3.53010E-03
    9122.442    129.149   5.960  1.02326E+00  1.01795E+00  5.30580E-03
    9124.264    130.971   6.000  1.02398E+00  1.01683E+00  7.14948E-03
