# # comment:                                                     FEFF 9.9.1  
# # Source:
# # Structure
# # Reduced
# # space
# # abc:
# # angles:
# # sites:
# # POT  SCF 100  7.0000   0, screened core-hole, AFOLP (folp(0)= 1.150)
# # Abs   Z=29 Rmt= 1.293 Rnm= 1.342 K  shell
# # Pot 1 Z=29 Rmt= 1.293 Rnm= 1.342
# # Pot 2 Z=28 Rmt= 1.340 Rnm= 1.407
# # Pot 3 Z= 8 Rmt= 1.043 Rnm= 1.092
# # Gam_ch=1.729E+00 H-L exch Vi= 0.000E+00 Vr= 0.000E+00
# # Mu=-1.078E+01eV kf=2.137E+00 Vint=-1.888E+01eV Rs_int= 1.697
# FMS rfms= 9.0000
# # PATH  Rmax=-1.000,  Keep_limit= 0.00, Heap_limit 0.00  Pwcrit= 2.50%
#  S02=0.950  Temp=   0.00  Debye_temp=   0.00  Global_sig2= 0.00000
#  Energy zero shift, vr, vi    0.00000E+00   0.00000E+00
#  Curved wave amplitude ratio filter   4.000%
#     file         sig2 tot  cw amp ratio   deg  nlegs   reff  inp sig2
#     0/   0 paths used
#  xsedge+ 50, used to normalize mu           2.4869E-04
#  -----------------------------------------------------------------------
#  omega    e    k    mu    mu0     chi     @#
    8984.598    -14.587  -1.000  3.48979E-02  5.02452E-02 -1.53473E-02
    8984.897    -14.289  -0.960  3.65859E-02  5.37760E-02 -1.71901E-02
    8985.184    -14.002  -0.920  3.84058E-02  5.76893E-02 -1.92835E-02
    8985.458    -13.728  -0.880  4.03770E-02  6.20405E-02 -2.16635E-02
    8985.720    -13.466  -0.840  4.25229E-02  6.68942E-02 -2.43713E-02
    8985.970    -13.216  -0.800  4.48719E-02  7.23249E-02 -2.74530E-02
    8986.208    -12.978  -0.760  4.74579E-02  7.84181E-02 -3.09602E-02
    8986.433    -12.752  -0.720  5.03208E-02  8.52703E-02 -3.49495E-02
    8986.647    -12.539  -0.680  5.35064E-02  9.29876E-02 -3.94812E-02
    8986.848    -12.338  -0.640  5.70648E-02  1.01682E-01 -4.46171E-02
    8987.037    -12.149  -0.600  6.10469E-02  1.11462E-01 -5.04155E-02
    8987.214    -11.972  -0.560  6.54978E-02  1.22423E-01 -5.69249E-02
    8987.378    -11.808  -0.520  7.04448E-02  1.34617E-01 -6.41724E-02
    8987.531    -11.655  -0.480  7.58823E-02  1.48032E-01 -7.21499E-02
    8987.671    -11.515  -0.440  8.17522E-02  1.62550E-01 -8.07979E-02
    8987.799    -11.387  -0.400  8.79297E-02  1.77921E-01 -8.99911E-02
    8987.915    -11.271  -0.360  9.42198E-02  1.93751E-01 -9.95317E-02
    8988.018    -11.167  -0.320  1.00376E-01  2.09532E-01 -1.09157E-01
    8988.110    -11.076  -0.280  1.06136E-01  2.24696E-01 -1.18559E-01
    8988.189    -10.997  -0.240  1.11276E-01  2.38696E-01 -1.27421E-01
    8988.256    -10.930  -0.200  1.15636E-01  2.51075E-01 -1.35439E-01
    8988.311    -10.875  -0.160  1.19145E-01  2.61494E-01 -1.42350E-01
    8988.354    -10.832  -0.120  1.21798E-01  2.69736E-01 -1.47938E-01
    8988.384    -10.802  -0.080  1.23636E-01  2.75677E-01 -1.52042E-01
    8988.408    -10.777   0.000  1.25049E-01  2.80454E-01 -1.55405E-01
    8988.463    -10.722   0.120  1.27955E-01  2.91215E-01 -1.63259E-01
    8988.506    -10.680   0.160  1.30102E-01  2.99609E-01 -1.69507E-01
    8988.561    -10.625   0.200  1.32582E-01  3.10331E-01 -1.77749E-01
    8988.628    -10.558   0.240  1.35141E-01  3.23229E-01 -1.88089E-01
    8988.707    -10.479   0.280  1.37475E-01  3.38104E-01 -2.00629E-01
    8988.799    -10.387   0.320  1.39176E-01  3.54557E-01 -2.15381E-01
    8988.902    -10.284   0.360  1.39928E-01  3.72164E-01 -2.32236E-01
    8989.018    -10.168   0.400  1.39549E-01  3.90431E-01 -2.50882E-01
    8989.146    -10.040   0.440  1.38117E-01  4.08925E-01 -2.70808E-01
    8989.286     -9.900   0.480  1.36038E-01  4.27311E-01 -2.91273E-01
    8989.439     -9.747   0.520  1.33854E-01  4.45356E-01 -3.11502E-01
    8989.603     -9.583   0.560  1.32200E-01  4.62963E-01 -3.30762E-01
    8989.780     -9.406   0.600  1.31560E-01  4.80103E-01 -3.48543E-01
    8989.969     -9.217   0.640  1.32330E-01  4.96825E-01 -3.64495E-01
    8990.170     -9.016   0.680  1.34822E-01  5.13210E-01 -3.78388E-01
    8990.384     -8.802   0.720  1.39226E-01  5.29307E-01 -3.90081E-01
    8990.609     -8.577   0.760  1.45821E-01  5.45205E-01 -3.99383E-01
    8990.847     -8.339   0.800  1.54869E-01  5.60964E-01 -4.06095E-01
    8991.097     -8.089   0.840  1.66618E-01  5.76654E-01 -4.10036E-01
    8991.359     -7.827   0.880  1.81295E-01  5.92291E-01 -4.10996E-01
    8991.633     -7.553   0.920  1.99383E-01  6.07901E-01 -4.08518E-01
    8991.920     -7.266   0.960  2.22236E-01  6.23518E-01 -4.01282E-01
    8992.218     -6.967   1.000  2.52345E-01  6.39147E-01 -3.86802E-01
    8992.529     -6.656   1.040  2.92786E-01  6.54765E-01 -3.61979E-01
    8992.852     -6.333   1.080  3.44937E-01  6.70383E-01 -3.25446E-01
    8993.188     -5.998   1.120  4.03629E-01  6.85946E-01 -2.82317E-01
    8993.535     -5.651   1.160  4.54670E-01  7.01472E-01 -2.46803E-01
    8993.895     -5.291   1.200  4.86969E-01  7.16919E-01 -2.29949E-01
    8994.267     -4.919   1.240  5.08593E-01  7.32238E-01 -2.23645E-01
    8994.651     -4.535   1.280  5.34857E-01  7.47421E-01 -2.12563E-01
    8995.047     -4.139   1.320  5.65188E-01  7.62436E-01 -1.97247E-01
    8995.455     -3.730   1.360  5.89743E-01  7.77229E-01 -1.87487E-01
    8995.876     -3.310   1.400  6.14954E-01  7.91768E-01 -1.76814E-01
    8996.309     -2.877   1.440  6.59605E-01  8.06019E-01 -1.46414E-01
    8996.754     -2.432   1.480  7.42997E-01  8.19969E-01 -7.69719E-02
    8997.211     -1.975   1.520  8.83342E-01  8.33543E-01  4.97989E-02
    8997.680     -1.505   1.560  1.06349E+00  8.46748E-01  2.16747E-01
    8998.162     -1.024   1.600  1.20034E+00  8.59552E-01  3.40791E-01
    8998.656     -0.530   1.640  1.24836E+00  8.71925E-01  3.76436E-01
    8999.162     -0.024   1.680  1.23998E+00  8.83834E-01  3.56143E-01
    8999.680      0.494   1.720  1.22886E+00  8.95252E-01  3.33603E-01
    9000.210      1.024   1.760  1.27792E+00  9.06170E-01  3.71751E-01
    9000.753      1.567   1.800  1.42997E+00  9.16601E-01  5.13373E-01
    9001.308      2.122   1.840  1.69519E+00  9.26480E-01  7.68706E-01
    9001.874      2.689   1.880  2.00414E+00  9.35846E-01  1.06830E+00
    9002.454      3.268   1.920  2.10667E+00  9.44655E-01  1.16201E+00
    9003.045      3.859   1.960  1.88952E+00  9.52947E-01  9.36577E-01
    9003.648      4.463   2.000  1.60761E+00  9.60681E-01  6.46924E-01
    9004.264      5.078   2.040  1.38248E+00  9.67881E-01  4.14599E-01
    9004.892      5.706   2.080  1.19420E+00  9.74569E-01  2.19631E-01
    9005.532      6.346   2.120  1.04894E+00  9.80711E-01  6.82303E-02
    9006.184      6.999   2.160  9.53776E-01  9.86351E-01 -3.25745E-02
    9006.849      7.663   2.200  8.96918E-01  9.91474E-01 -9.45564E-02
    9007.525      8.340   2.240  8.60260E-01  9.96129E-01 -1.35870E-01
    9008.214      9.028   2.280  8.30883E-01  1.00030E+00 -1.69420E-01
    9008.915      9.730   2.320  8.09145E-01  1.00403E+00 -1.94881E-01
    9009.629     10.443   2.360  7.99024E-01  1.00731E+00 -2.08282E-01
    9010.354     11.168   2.400  7.95275E-01  1.01017E+00 -2.14896E-01
    9011.092     11.906   2.440  7.93130E-01  1.01263E+00 -2.19504E-01
    9011.841     12.656   2.480  7.97574E-01  1.01470E+00 -2.17128E-01
    9012.603     13.418   2.520  8.21559E-01  1.01643E+00 -1.94869E-01
    9013.378     14.192   2.560  8.79250E-01  1.01780E+00 -1.38551E-01
    9014.164     14.978   2.600  9.47356E-01  1.01887E+00 -7.15157E-02
    9014.963     15.777   2.640  1.00434E+00  1.01963E+00 -1.52980E-02
    9015.773     16.587   2.680  1.03471E+00  1.02013E+00  1.45749E-02
    9016.596     17.410   2.720  1.03257E+00  1.02036E+00  1.22022E-02
    9017.431     18.246   2.760  1.00305E+00  1.02037E+00 -1.73230E-02
    9018.279     19.093   2.800  9.58531E-01  1.02015E+00 -6.16220E-02
    9019.138     19.952   2.840  9.14083E-01  1.01973E+00 -1.05648E-01
    9020.010     20.824   2.880  8.79693E-01  1.01914E+00 -1.39448E-01
    9020.894     21.708   2.920  8.58231E-01  1.01841E+00 -1.60177E-01
    9021.790     22.604   2.960  8.48001E-01  1.01750E+00 -1.69500E-01
    9022.698     23.513   3.000  8.45373E-01  1.01649E+00 -1.71116E-01
    9023.619     24.433   3.040  8.46751E-01  1.01536E+00 -1.68610E-01
    9024.551     25.366   3.080  8.49585E-01  1.01412E+00 -1.64537E-01
    9025.496     26.311   3.120  8.52126E-01  1.01282E+00 -1.60695E-01
    9026.453     27.268   3.160  8.55113E-01  1.01145E+00 -1.56332E-01
    9027.423     28.237   3.200  8.60705E-01  1.01000E+00 -1.49295E-01
    9028.404     29.218   3.240  8.70835E-01  1.00853E+00 -1.37699E-01
    9029.398     30.212   3.280  8.86013E-01  1.00703E+00 -1.21019E-01
    9030.404     31.218   3.320  9.05106E-01  1.00552E+00 -1.00415E-01
    9031.422     32.236   3.360  9.25691E-01  1.00398E+00 -7.82897E-02
    9032.452     33.266   3.400  9.45025E-01  1.00244E+00 -5.74161E-02
    9033.494     34.308   3.440  9.61789E-01  1.00092E+00 -3.91353E-02
    9034.549     35.363   3.480  9.76473E-01  9.99416E-01 -2.29432E-02
    9035.616     36.430   3.520  9.91484E-01  9.97940E-01 -6.45605E-03
    9036.695     37.509   3.560  1.01031E+00  9.96499E-01  1.38144E-02
    9037.786     38.600   3.600  1.03591E+00  9.95074E-01  4.08403E-02
    9038.889     39.703   3.640  1.06925E+00  9.93710E-01  7.55395E-02
    9040.005     40.819   3.680  1.10805E+00  9.92389E-01  1.15660E-01
    9041.133     41.947   3.720  1.14681E+00  9.91112E-01  1.55698E-01
    9042.272     43.087   3.760  1.17824E+00  9.89883E-01  1.88361E-01
    9043.425     44.239   3.800  1.19666E+00  9.88745E-01  2.07912E-01
    9044.589     45.403   3.840  1.20150E+00  9.87636E-01  2.13867E-01
    9045.765     46.580   3.880  1.19641E+00  9.86620E-01  2.09788E-01
    9046.954     47.768   3.920  1.18579E+00  9.85659E-01  2.00133E-01
    9048.155     48.969   3.960  1.17257E+00  9.84772E-01  1.87800E-01
    9049.368     50.182   4.000  1.15790E+00  9.83959E-01  1.73945E-01
    9050.593     51.408   4.040  1.14194E+00  9.83198E-01  1.58739E-01
    9051.831     52.645   4.080  1.12404E+00  9.82514E-01  1.41531E-01
    9053.081     53.895   4.120  1.10295E+00  9.81906E-01  1.21046E-01
    9054.343     55.157   4.160  1.07756E+00  9.81376E-01  9.61874E-02
    9055.617     56.431   4.200  1.04799E+00  9.80922E-01  6.70681E-02
    9056.903     57.717   4.240  1.01586E+00  9.80542E-01  3.53163E-02
    9058.201     59.015   4.280  9.83832E-01  9.80217E-01  3.61533E-03
    9059.512     60.326   4.320  9.54697E-01  9.79965E-01 -2.52682E-02
    9060.835     61.649   4.360  9.30225E-01  9.79784E-01 -4.95585E-02
    9062.170     62.984   4.400  9.10384E-01  9.79655E-01 -6.92702E-02
    9063.517     64.331   4.440  8.93650E-01  9.79597E-01 -8.59474E-02
    9064.876     65.691   4.480  8.78352E-01  9.79588E-01 -1.01236E-01
    9066.248     67.062   4.520  8.64100E-01  9.79646E-01 -1.15547E-01
    9067.632     68.446   4.560  8.51996E-01  9.79752E-01 -1.27756E-01
    9069.028     69.842   4.600  8.44050E-01  9.79903E-01 -1.35854E-01
    9070.436     71.250   4.640  8.42342E-01  9.80120E-01 -1.37778E-01
    9071.856     72.670   4.680  8.47735E-01  9.80380E-01 -1.32645E-01
    9073.289     74.103   4.720  8.59602E-01  9.80680E-01 -1.21078E-01
    9074.734     75.548   4.760  8.75925E-01  9.81019E-01 -1.05094E-01
    9076.190     77.005   4.800  8.93972E-01  9.81394E-01 -8.74220E-02
    9077.660     78.474   4.840  9.11168E-01  9.81782E-01 -7.06141E-02
    9079.141     79.955   4.880  9.26063E-01  9.82204E-01 -5.61410E-02
    9080.634     81.449   4.920  9.38519E-01  9.82658E-01 -4.41393E-02
    9082.140     82.954   4.960  9.49090E-01  9.83121E-01 -3.40312E-02
    9083.658     84.472   5.000  9.58315E-01  9.83613E-01 -2.52982E-02
    9085.188     86.002   5.040  9.66933E-01  9.84110E-01 -1.71769E-02
    9086.730     87.545   5.080  9.76628E-01  9.84612E-01 -7.98410E-03
    9088.285     89.099   5.120  9.89487E-01  9.85136E-01  4.35035E-03
    9089.852     90.666   5.160  1.00636E+00  9.85638E-01  2.07261E-02
    9091.430     92.245   5.200  1.02575E+00  9.86138E-01  3.96095E-02
    9093.021     93.836   5.240  1.04426E+00  9.86656E-01  5.76041E-02
    9094.625     95.439   5.280  1.05860E+00  9.87126E-01  7.14783E-02
    9096.240     97.054   5.320  1.06708E+00  9.87610E-01  7.94730E-02
    9097.868     98.682   5.360  1.06893E+00  9.88065E-01  8.08614E-02
    9099.508    100.322   5.400  1.06444E+00  9.88510E-01  7.59283E-02
    9101.160    101.974   5.440  1.05564E+00  9.88920E-01  6.67198E-02
    9102.824    103.638   5.480  1.04496E+00  9.89294E-01  5.56632E-02
    9104.500    105.314   5.520  1.03276E+00  9.89632E-01  4.31307E-02
    9106.189    107.003   5.560  1.01798E+00  9.89958E-01  2.80222E-02
    9107.890    108.704   5.600  1.00022E+00  9.90246E-01  9.97169E-03
    9109.603    110.417   5.640  9.80168E-01  9.90495E-01 -1.03269E-02
    9111.328    112.142   5.680  9.58481E-01  9.90705E-01 -3.22241E-02
    9113.065    113.879   5.720  9.36065E-01  9.90874E-01 -5.48089E-02
    9114.815    115.629   5.760  9.15705E-01  9.91003E-01 -7.52984E-02
    9116.576    117.391   5.800  9.02477E-01  9.91092E-01 -8.86149E-02
    9118.350    119.164   5.840  9.01687E-01  9.91140E-01 -8.94529E-02
    9120.136    120.951   5.880  9.15786E-01  9.91145E-01 -7.53590E-02
    9121.935    122.749   5.920  9.42439E-01  9.91085E-01 -4.86470E-02
    9123.745    124.559   5.960  9.74904E-01  9.91004E-01 -1.60997E-02
    9125.568    126.382   6.000  1.00500E+00  9.90828E-01  1.41678E-02
