# # comment:                                                     FEFF 9.9.1  
# # Source:
# # Structure
# # Reduced
# # space
# # abc:
# # angles:
# # sites:
# # POT  SCF 100  7.0000   0, screened core-hole, AFOLP (folp(0)= 1.150)
# # Abs   Z=29 Rmt= 1.252 Rnm= 1.320 K  shell
# # Pot 1 Z=38 Rmt= 1.801 Rnm= 1.864
# # Pot 2 Z=29 Rmt= 1.252 Rnm= 1.320
# # Pot 3 Z= 5 Rmt= 0.774 Rnm= 0.988
# # Pot 4 Z= 8 Rmt= 0.952 Rnm= 1.054
# # Gam_ch=1.729E+00 H-L exch Vi= 0.000E+00 Vr= 0.000E+00
# # Mu=-7.365E+00eV kf=2.264E+00 Vint=-1.855E+01eV Rs_int= 1.602
# FMS rfms= 9.0000
# # PATH  Rmax=-1.000,  Keep_limit= 0.00, Heap_limit 0.00  Pwcrit= 2.50%
#  S02=0.950  Temp=   0.00  Debye_temp=   0.00  Global_sig2= 0.00000
#  Energy zero shift, vr, vi    0.00000E+00   0.00000E+00
#  Curved wave amplitude ratio filter   4.000%
#     file         sig2 tot  cw amp ratio   deg  nlegs   reff  inp sig2
#     0/   0 paths used
#  xsedge+ 50, used to normalize mu           2.4893E-04
#  -----------------------------------------------------------------------
#  omega    e    k    mu    mu0     chi     @#
    8984.027    -11.175  -1.000  3.74135E-02  5.28379E-02 -1.54244E-02
    8984.326    -10.876  -0.960  3.94019E-02  5.66939E-02 -1.72920E-02
    8984.612    -10.590  -0.920  4.15572E-02  6.09832E-02 -1.94260E-02
    8984.887    -10.315  -0.880  4.39006E-02  6.57703E-02 -2.18697E-02
    8985.149    -10.053  -0.840  4.64566E-02  7.11302E-02 -2.46735E-02
    8985.399     -9.803  -0.800  4.92534E-02  7.71501E-02 -2.78967E-02
    8985.636     -9.566  -0.760  5.23228E-02  8.39302E-02 -3.16073E-02
    8985.862     -9.340  -0.720  5.57005E-02  9.15837E-02 -3.58832E-02
    8986.075     -9.127  -0.680  5.94251E-02  1.00236E-01 -4.08105E-02
    8986.276     -8.926  -0.640  6.35366E-02  1.10018E-01 -4.64813E-02
    8986.465     -8.737  -0.600  6.80736E-02  1.21061E-01 -5.29870E-02
    8986.642     -8.560  -0.560  7.30673E-02  1.33475E-01 -6.04074E-02
    8986.807     -8.395  -0.520  7.85340E-02  1.47327E-01 -6.87928E-02
    8986.959     -8.243  -0.480  8.44640E-02  1.62603E-01 -7.81394E-02
    8987.099     -8.103  -0.440  9.08086E-02  1.79170E-01 -8.83613E-02
    8987.227     -7.975  -0.400  9.74697E-02  1.96736E-01 -9.92662E-02
    8987.343     -7.859  -0.360  1.04296E-01  2.14844E-01 -1.10548E-01
    8987.447     -7.755  -0.320  1.11091E-01  2.32901E-01 -1.21810E-01
    8987.538     -7.664  -0.280  1.17634E-01  2.50248E-01 -1.32614E-01
    8987.618     -7.584  -0.240  1.23708E-01  2.66252E-01 -1.42544E-01
    8987.685     -7.517  -0.200  1.29121E-01  2.80387E-01 -1.51266E-01
    8987.739     -7.462  -0.160  1.33715E-01  2.92269E-01 -1.58555E-01
    8987.782     -7.420  -0.120  1.37367E-01  3.01655E-01 -1.64288E-01
    8987.813     -7.389  -0.080  1.40001E-01  3.08412E-01 -1.68411E-01
    8987.837     -7.365   0.000  1.42131E-01  3.13837E-01 -1.71706E-01
    8987.892     -7.310   0.120  1.47897E-01  3.26070E-01 -1.78173E-01
    8987.935     -7.267   0.160  1.52160E-01  3.35559E-01 -1.83399E-01
    8987.989     -7.213   0.200  1.57635E-01  3.47675E-01 -1.90040E-01
    8988.056     -7.145   0.240  1.64266E-01  3.62218E-01 -1.97952E-01
    8988.136     -7.066   0.280  1.71996E-01  3.78858E-01 -2.06862E-01
    8988.227     -6.975   0.320  1.80819E-01  3.97188E-01 -2.16369E-01
    8988.331     -6.871   0.360  1.90627E-01  4.16611E-01 -2.25984E-01
    8988.447     -6.755   0.400  2.01339E-01  4.36559E-01 -2.35220E-01
    8988.575     -6.627   0.440  2.12788E-01  4.56479E-01 -2.43691E-01
    8988.715     -6.487   0.480  2.24687E-01  4.75955E-01 -2.51268E-01
    8988.867     -6.335   0.520  2.36443E-01  4.94706E-01 -2.58263E-01
    8989.032     -6.170   0.560  2.47174E-01  5.12635E-01 -2.65461E-01
    8989.209     -5.993   0.600  2.55685E-01  5.29711E-01 -2.74026E-01
    8989.398     -5.804   0.640  2.60983E-01  5.45978E-01 -2.84995E-01
    8989.599     -5.603   0.680  2.62918E-01  5.61537E-01 -2.98620E-01
    8989.812     -5.390   0.720  2.62485E-01  5.76505E-01 -3.14019E-01
    8990.038     -5.164   0.760  2.61453E-01  5.90956E-01 -3.29503E-01
    8990.275     -4.927   0.800  2.61626E-01  6.05018E-01 -3.43392E-01
    8990.525     -4.677   0.840  2.64087E-01  6.18764E-01 -3.54677E-01
    8990.787     -4.415   0.880  2.69140E-01  6.32275E-01 -3.63135E-01
    8991.062     -4.140   0.920  2.76240E-01  6.45578E-01 -3.69337E-01
    8991.348     -3.854   0.960  2.84571E-01  6.58705E-01 -3.74135E-01
    8991.647     -3.555   1.000  2.94353E-01  6.71743E-01 -3.77390E-01
    8991.958     -3.244   1.040  3.07352E-01  6.84645E-01 -3.77293E-01
    8992.281     -2.921   1.080  3.26125E-01  6.97476E-01 -3.71351E-01
    8992.616     -2.586   1.120  3.52689E-01  7.10195E-01 -3.57506E-01
    8992.964     -2.238   1.160  3.88715E-01  7.22860E-01 -3.34146E-01
    8993.323     -1.879   1.200  4.35531E-01  7.35399E-01 -2.99868E-01
    8993.695     -1.507   1.240  4.93178E-01  7.47856E-01 -2.54678E-01
    8994.079     -1.123   1.280  5.60012E-01  7.60174E-01 -2.00162E-01
    8994.476     -0.726   1.320  6.34066E-01  7.72374E-01 -1.38308E-01
    8994.884     -0.318   1.360  7.11045E-01  7.84415E-01 -7.33703E-02
    8995.305      0.103   1.400  7.82189E-01  7.96290E-01 -1.41011E-02
    8995.737      0.535   1.440  8.38709E-01  8.07976E-01  3.07328E-02
    8996.182      0.980   1.480  8.79320E-01  8.19469E-01  5.98503E-02
    8996.640      1.438   1.520  9.08740E-01  8.30720E-01  7.80203E-02
    8997.109      1.907   1.560  9.32254E-01  8.41743E-01  9.05119E-02
    8997.591      2.389   1.600  9.54891E-01  8.52471E-01  1.02420E-01
    8998.084      2.882   1.640  9.80900E-01  8.62937E-01  1.17964E-01
    8998.590      3.388   1.680  1.01200E+00  8.73094E-01  1.38907E-01
    8999.108      3.907   1.720  1.04516E+00  8.82937E-01  1.62220E-01
    8999.639      4.437   1.760  1.07958E+00  8.92437E-01  1.87139E-01
    9000.181      4.979   1.800  1.11736E+00  9.01590E-01  2.15773E-01
    9000.736      5.534   1.840  1.15267E+00  9.10392E-01  2.42277E-01
    9001.303      6.101   1.880  1.18004E+00  9.18819E-01  2.61222E-01
    9001.882      6.680   1.920  1.20442E+00  9.26868E-01  2.77547E-01
    9002.473      7.271   1.960  1.23468E+00  9.34534E-01  3.00147E-01
    9003.077      7.875   2.000  1.26300E+00  9.41816E-01  3.21187E-01
    9003.693      8.491   2.040  1.26619E+00  9.48692E-01  3.17494E-01
    9004.321      9.119   2.080  1.23893E+00  9.55163E-01  2.83769E-01
    9004.961      9.759   2.120  1.20157E+00  9.61249E-01  2.40321E-01
    9005.613     10.411   2.160  1.17094E+00  9.66953E-01  2.03983E-01
    9006.277     11.075   2.200  1.15222E+00  9.72254E-01  1.79962E-01
    9006.954     11.752   2.240  1.14207E+00  9.77156E-01  1.64917E-01
    9007.643     12.441   2.280  1.13213E+00  9.81681E-01  1.50453E-01
    9008.344     13.142   2.320  1.11753E+00  9.85834E-01  1.31693E-01
    9009.057     13.855   2.360  1.10544E+00  9.89641E-01  1.15800E-01
    9009.783     14.581   2.400  1.10441E+00  9.93064E-01  1.11348E-01
    9010.520     15.318   2.440  1.11091E+00  9.96149E-01  1.14760E-01
    9011.270     16.068   2.480  1.11634E+00  9.98903E-01  1.17434E-01
    9012.032     16.830   2.520  1.11524E+00  1.00131E+00  1.13928E-01
    9012.806     17.604   2.560  1.10365E+00  1.00344E+00  1.00204E-01
    9013.593     18.391   2.600  1.07889E+00  1.00526E+00  7.36314E-02
    9014.391     19.189   2.640  1.04134E+00  1.00679E+00  3.45467E-02
    9015.202     20.000   2.680  1.00003E+00  1.00805E+00 -8.01591E-03
    9016.025     20.823   2.720  9.69903E-01  1.00905E+00 -3.91481E-02
    9016.860     21.658   2.760  9.50400E-01  1.00983E+00 -5.94340E-02
    9017.707     22.505   2.800  9.38577E-01  1.01036E+00 -7.17832E-02
    9018.567     23.365   2.840  9.32099E-01  1.01070E+00 -7.86001E-02
    9019.439     24.237   2.880  9.29294E-01  1.01084E+00 -8.15439E-02
    9020.322     25.120   2.920  9.28210E-01  1.01078E+00 -8.25723E-02
    9021.219     26.017   2.960  9.26914E-01  1.01058E+00 -8.36678E-02
    9022.127     26.925   3.000  9.23879E-01  1.01020E+00 -8.63224E-02
    9023.047     27.845   3.040  9.18431E-01  1.00969E+00 -9.12583E-02
    9023.980     28.778   3.080  9.10804E-01  1.00905E+00 -9.82499E-02
    9024.925     29.723   3.120  9.01957E-01  1.00832E+00 -1.06363E-01
    9025.882     30.680   3.160  8.92960E-01  1.00747E+00 -1.14514E-01
    9026.851     31.649   3.200  8.84465E-01  1.00652E+00 -1.22057E-01
    9027.833     32.631   3.240  8.76931E-01  1.00551E+00 -1.28580E-01
    9028.826     33.624   3.280  8.70802E-01  1.00445E+00 -1.33643E-01
    9029.832     34.630   3.320  8.66663E-01  1.00331E+00 -1.36649E-01
    9030.850     35.648   3.360  8.65118E-01  1.00214E+00 -1.37017E-01
    9031.880     36.678   3.400  8.66709E-01  1.00092E+00 -1.34211E-01
    9032.923     37.721   3.440  8.71552E-01  9.99692E-01 -1.28140E-01
    9033.977     38.775   3.480  8.79326E-01  9.98436E-01 -1.19110E-01
    9035.044     39.842   3.520  8.89810E-01  9.97195E-01 -1.07385E-01
    9036.123     40.921   3.560  9.02644E-01  9.95935E-01 -9.32908E-02
    9037.214     42.012   3.600  9.17422E-01  9.94697E-01 -7.72749E-02
    9038.318     43.116   3.640  9.33741E-01  9.93464E-01 -5.97238E-02
    9039.433     44.231   3.680  9.51126E-01  9.92243E-01 -4.11164E-02
    9040.561     45.359   3.720  9.68978E-01  9.91075E-01 -2.20967E-02
    9041.701     46.499   3.760  9.86546E-01  9.89923E-01 -3.37712E-03
    9042.853     47.651   3.800  1.00317E+00  9.88809E-01  1.43609E-02
    9044.018     48.816   3.840  1.01820E+00  9.87756E-01  3.04406E-02
    9045.194     49.992   3.880  1.03117E+00  9.86724E-01  4.44486E-02
    9046.383     51.181   3.920  1.04208E+00  9.85758E-01  5.63199E-02
    9047.584     52.382   3.960  1.05102E+00  9.84840E-01  6.61835E-02
    9048.797     53.595   4.000  1.05813E+00  9.83988E-01  7.41380E-02
    9050.022     54.820   4.040  1.06341E+00  9.83185E-01  8.02219E-02
    9051.260     56.058   4.080  1.06679E+00  9.82452E-01  8.43395E-02
    9052.509     57.307   4.120  1.06819E+00  9.81770E-01  8.64212E-02
    9053.771     58.569   4.160  1.06778E+00  9.81160E-01  8.66188E-02
    9055.045     59.843   4.200  1.06595E+00  9.80622E-01  8.53331E-02
    9056.331     61.129   4.240  1.06307E+00  9.80134E-01  8.29395E-02
    9057.630     62.428   4.280  1.05932E+00  9.79719E-01  7.96049E-02
    9058.940     63.738   4.320  1.05471E+00  9.79354E-01  7.53558E-02
    9060.263     65.061   4.360  1.04917E+00  9.79061E-01  7.01140E-02
    9061.598     66.396   4.400  1.04264E+00  9.78841E-01  6.38019E-02
    9062.946     67.744   4.440  1.03512E+00  9.78670E-01  5.64523E-02
    9064.305     69.103   4.480  1.02678E+00  9.78570E-01  4.82129E-02
    9065.677     70.475   4.520  1.01797E+00  9.78520E-01  3.94512E-02
    9067.060     71.858   4.560  1.00940E+00  9.78539E-01  3.08623E-02
    9068.456     73.254   4.600  1.00191E+00  9.78606E-01  2.33061E-02
    9069.864     74.662   4.640  9.96241E-01  9.78740E-01  1.75011E-02
    9071.285     76.083   4.680  9.92754E-01  9.78919E-01  1.38343E-02
    9072.717     77.515   4.720  9.91331E-01  9.79141E-01  1.21899E-02
    9074.162     78.960   4.760  9.91416E-01  9.79404E-01  1.20127E-02
    9075.619     80.417   4.800  9.92208E-01  9.79709E-01  1.24993E-02
    9077.088     81.886   4.840  9.92832E-01  9.80074E-01  1.27575E-02
    9078.570     83.368   4.880  9.92424E-01  9.80455E-01  1.19694E-02
    9080.063     84.861   4.920  9.90431E-01  9.80870E-01  9.56102E-03
    9081.569     86.367   4.960  9.86543E-01  9.81299E-01  5.24353E-03
    9083.087     87.885   5.000  9.80821E-01  9.81781E-01 -9.60130E-04
    9084.617     89.415   5.040  9.73455E-01  9.82252E-01 -8.79676E-03
    9086.159     90.957   5.080  9.64901E-01  9.82773E-01 -1.78714E-02
    9087.713     92.511   5.120  9.55682E-01  9.83278E-01 -2.75962E-02
    9089.280     94.078   5.160  9.46598E-01  9.83807E-01 -3.72089E-02
    9090.859     95.657   5.200  9.38577E-01  9.84340E-01 -4.57625E-02
    9092.450     97.248   5.240  9.32562E-01  9.84873E-01 -5.23108E-02
    9094.053     98.851   5.280  9.29204E-01  9.85403E-01 -5.61985E-02
    9095.669    100.467   5.320  9.28579E-01  9.85908E-01 -5.73282E-02
    9097.296    102.094   5.360  9.30202E-01  9.86429E-01 -5.62272E-02
    9098.936    103.734   5.400  9.33160E-01  9.86924E-01 -5.37633E-02
    9100.588    105.386   5.440  9.36687E-01  9.87410E-01 -5.07233E-02
    9102.252    107.050   5.480  9.40347E-01  9.87864E-01 -4.75174E-02
    9103.929    108.727   5.520  9.44088E-01  9.88306E-01 -4.42180E-02
    9105.617    110.415   5.560  9.47925E-01  9.88692E-01 -4.07662E-02
    9107.318    112.116   5.600  9.51940E-01  9.89085E-01 -3.71452E-02
    9109.031    113.829   5.640  9.56030E-01  9.89419E-01 -3.33891E-02
    9110.756    115.554   5.680  9.60218E-01  9.89715E-01 -2.94972E-02
    9112.494    117.292   5.720  9.64595E-01  9.89993E-01 -2.53978E-02
    9114.243    119.041   5.760  9.69197E-01  9.90210E-01 -2.10131E-02
    9116.005    120.803   5.800  9.74100E-01  9.90409E-01 -1.63086E-02
    9117.779    122.577   5.840  9.79217E-01  9.90542E-01 -1.13258E-02
    9119.565    124.363   5.880  9.84429E-01  9.90632E-01 -6.20268E-03
    9121.363    126.161   5.920  9.89532E-01  9.90677E-01 -1.14578E-03
    9123.174    127.972   5.960  9.94082E-01  9.90674E-01  3.40851E-03
    9124.996    129.794   6.000  9.97864E-01  9.90569E-01  7.29448E-03
