# # comment:                                                     FEFF 9.9.1  
# # Source:
# # Structure
# # Reduced
# # space
# # abc:
# # angles:
# # sites:
# # POT  SCF 100  7.0000   0, screened core-hole, AFOLP (folp(0)= 1.150)
# # Abs   Z=29 Rmt= 1.237 Rnm= 1.309 K  shell
# # Pot 1 Z=56 Rmt= 1.967 Rnm= 2.018
# # Pot 2 Z=57 Rmt= 1.746 Rnm= 1.819
# # Pot 3 Z=29 Rmt= 1.237 Rnm= 1.309
# # Pot 4 Z= 8 Rmt= 1.062 Rnm= 1.112
# # Gam_ch=1.729E+00 H-L exch Vi= 0.000E+00 Vr= 0.000E+00
# # Mu=-8.484E+00eV kf=1.984E+00 Vint=-1.768E+01eV Rs_int= 1.828
# FMS rfms= 9.0000
# # PATH  Rmax=-1.000,  Keep_limit= 0.00, Heap_limit 0.00  Pwcrit= 2.50%
#  S02=0.950  Temp=   0.00  Debye_temp=   0.00  Global_sig2= 0.00000
#  Energy zero shift, vr, vi    0.00000E+00   0.00000E+00
#  Curved wave amplitude ratio filter   4.000%
#     file         sig2 tot  cw amp ratio   deg  nlegs   reff  inp sig2
#     0/   0 paths used
#  xsedge+ 50, used to normalize mu           2.4417E-04
#  -----------------------------------------------------------------------
#  omega    e    k    mu    mu0     chi     @#
    8985.249    -12.294  -1.000  4.19329E-02  5.74936E-02 -1.55607E-02
    8985.548    -11.995  -0.960  4.42978E-02  6.17679E-02 -1.74701E-02
    8985.834    -11.709  -0.920  4.68731E-02  6.65250E-02 -1.96519E-02
    8986.108    -11.434  -0.880  4.96886E-02  7.18368E-02 -2.21481E-02
    8986.370    -11.172  -0.840  5.27793E-02  7.77865E-02 -2.50073E-02
    8986.620    -10.922  -0.800  5.61864E-02  8.44712E-02 -2.82848E-02
    8986.858    -10.685  -0.760  5.99584E-02  9.20018E-02 -3.20434E-02
    8987.084    -10.459  -0.720  6.41510E-02  1.00504E-01 -3.63531E-02
    8987.297    -10.246  -0.680  6.88268E-02  1.10116E-01 -4.12895E-02
    8987.498    -10.045  -0.640  7.40533E-02  1.20985E-01 -4.69317E-02
    8987.687     -9.856  -0.600  7.98970E-02  1.33254E-01 -5.33568E-02
    8987.864     -9.679  -0.560  8.64146E-02  1.47046E-01 -6.06310E-02
    8988.029     -9.514  -0.520  9.36371E-02  1.62434E-01 -6.87969E-02
    8988.181     -9.362  -0.480  1.01548E-01  1.79404E-01 -7.78555E-02
    8988.321     -9.222  -0.440  1.10060E-01  1.97806E-01 -8.77454E-02
    8988.449     -9.094  -0.400  1.18994E-01  2.17318E-01 -9.83241E-02
    8988.565     -8.978  -0.360  1.28076E-01  2.37434E-01 -1.09358E-01
    8988.669     -8.874  -0.320  1.36967E-01  2.57496E-01 -1.20528E-01
    8988.760     -8.783  -0.280  1.45313E-01  2.76773E-01 -1.31460E-01
    8988.839     -8.703  -0.240  1.52805E-01  2.94566E-01 -1.41760E-01
    8988.906     -8.636  -0.200  1.59226E-01  3.10285E-01 -1.51059E-01
    8988.961     -8.582  -0.160  1.64459E-01  3.23504E-01 -1.59045E-01
    8989.004     -8.539  -0.120  1.68474E-01  3.33951E-01 -1.65476E-01
    8989.034     -8.508  -0.080  1.71288E-01  3.41474E-01 -1.70186E-01
    8989.059     -8.484   0.000  1.73466E-01  3.47517E-01 -1.74051E-01
    8989.114     -8.429   0.120  1.78295E-01  3.61132E-01 -1.82837E-01
    8989.156     -8.386   0.160  1.81946E-01  3.71713E-01 -1.89767E-01
    8989.211     -8.332   0.200  1.86436E-01  3.85219E-01 -1.98783E-01
    8989.278     -8.265   0.240  1.91554E-01  4.01438E-01 -2.09884E-01
    8989.358     -8.185   0.280  1.97044E-01  4.20058E-01 -2.23014E-01
    8989.449     -8.094   0.320  2.02639E-01  4.40572E-01 -2.37933E-01
    8989.553     -7.990   0.360  2.08083E-01  4.62357E-01 -2.54274E-01
    8989.668     -7.874   0.400  2.13286E-01  4.84771E-01 -2.71484E-01
    8989.796     -7.746   0.440  2.18274E-01  5.07229E-01 -2.88955E-01
    8989.937     -7.606   0.480  2.23245E-01  5.29258E-01 -3.06013E-01
    8990.089     -7.454   0.520  2.28505E-01  5.50569E-01 -3.22064E-01
    8990.254     -7.289   0.560  2.34369E-01  5.70988E-01 -3.36618E-01
    8990.430     -7.112   0.600  2.41351E-01  5.90518E-01 -3.49168E-01
    8990.619     -6.923   0.640  2.49876E-01  6.09163E-01 -3.59287E-01
    8990.821     -6.722   0.680  2.60595E-01  6.27046E-01 -3.66451E-01
    8991.034     -6.509   0.720  2.74277E-01  6.44243E-01 -3.69966E-01
    8991.259     -6.283   0.760  2.92118E-01  6.60875E-01 -3.68757E-01
    8991.497     -6.046   0.800  3.15346E-01  6.77008E-01 -3.61661E-01
    8991.747     -5.796   0.840  3.44846E-01  6.92733E-01 -3.47887E-01
    8992.009     -5.534   0.880  3.80133E-01  7.08090E-01 -3.27957E-01
    8992.284     -5.259   0.920  4.18199E-01  7.23121E-01 -3.04922E-01
    8992.570     -4.973   0.960  4.52973E-01  7.37855E-01 -2.84882E-01
    8992.869     -4.674   1.000  4.77940E-01  7.52312E-01 -2.74371E-01
    8993.180     -4.363   1.040  4.90979E-01  7.66498E-01 -2.75519E-01
    8993.503     -4.040   1.080  4.95780E-01  7.80416E-01 -2.84636E-01
    8993.838     -3.705   1.120  4.99177E-01  7.94039E-01 -2.94862E-01
    8994.186     -3.357   1.160  5.07629E-01  8.07353E-01 -2.99724E-01
    8994.545     -2.998   1.200  5.25319E-01  8.20366E-01 -2.95048E-01
    8994.917     -2.626   1.240  5.54892E-01  8.33040E-01 -2.78148E-01
    8995.301     -2.242   1.280  5.97810E-01  8.45371E-01 -2.47562E-01
    8995.697     -1.845   1.320  6.53823E-01  8.57318E-01 -2.03495E-01
    8996.106     -1.437   1.360  7.22457E-01  8.68876E-01 -1.46420E-01
    8996.526     -1.016   1.400  8.04688E-01  8.80023E-01 -7.53350E-02
    8996.959     -0.584   1.440  9.03544E-01  8.90734E-01  1.28103E-02
    8997.404     -0.139   1.480  1.01258E+00  9.00983E-01  1.11596E-01
    8997.861      0.319   1.520  1.10342E+00  9.10791E-01  1.92631E-01
    8998.331      0.788   1.560  1.15187E+00  9.20134E-01  2.31737E-01
    8998.812      1.270   1.600  1.16883E+00  9.28966E-01  2.39865E-01
    8999.306      1.763   1.640  1.19451E+00  9.37331E-01  2.57177E-01
    8999.812      2.269   1.680  1.27490E+00  9.45208E-01  3.29695E-01
    9000.330      2.787   1.720  1.43246E+00  9.52578E-01  4.79880E-01
    9000.861      3.318   1.760  1.61477E+00  9.59464E-01  6.55302E-01
    9001.403      3.860   1.800  1.68930E+00  9.65870E-01  7.23431E-01
    9001.958      4.415   1.840  1.59802E+00  9.71799E-01  6.26221E-01
    9002.525      4.982   1.880  1.43569E+00  9.77256E-01  4.58434E-01
    9003.104      5.561   1.920  1.29703E+00  9.82249E-01  3.14777E-01
    9003.695      6.152   1.960  1.20211E+00  9.86786E-01  2.15323E-01
    9004.299      6.756   2.000  1.14218E+00  9.90914E-01  1.51264E-01
    9004.914      7.372   2.040  1.11219E+00  9.94601E-01  1.17593E-01
    9005.542      8.000   2.080  1.10624E+00  9.97895E-01  1.08341E-01
    9006.182      8.640   2.120  1.10301E+00  1.00081E+00  1.02204E-01
    9006.835      9.292   2.160  1.07113E+00  1.00335E+00  6.77847E-02
    9007.499      9.956   2.200  1.01555E+00  1.00555E+00  1.00060E-02
    9008.176     10.633   2.240  9.70453E-01  1.00741E+00 -3.69578E-02
    9008.865     11.322   2.280  9.52808E-01  1.00897E+00 -5.61674E-02
    9009.566     12.023   2.320  9.60245E-01  1.01025E+00 -5.00025E-02
    9010.279     12.736   2.360  9.81698E-01  1.01124E+00 -2.95411E-02
    9011.004     13.462   2.400  1.01236E+00  1.01200E+00  3.57668E-04
    9011.742     14.199   2.440  1.04514E+00  1.01252E+00  3.26151E-02
    9012.492     14.949   2.480  1.07033E+00  1.01286E+00  5.74723E-02
    9013.254     15.711   2.520  1.08554E+00  1.01297E+00  7.25730E-02
    9014.028     16.485   2.560  1.09010E+00  1.01293E+00  7.71685E-02
    9014.814     17.272   2.600  1.08479E+00  1.01273E+00  7.20627E-02
    9015.613     18.070   2.640  1.07178E+00  1.01240E+00  5.93804E-02
    9016.424     18.881   2.680  1.05376E+00  1.01194E+00  4.18151E-02
    9017.247     19.704   2.720  1.03318E+00  1.01139E+00  2.17945E-02
    9018.082     20.539   2.760  1.01124E+00  1.01073E+00  5.12067E-04
    9018.929     21.386   2.800  9.87665E-01  1.00998E+00 -2.23167E-02
    9019.789     22.246   2.840  9.62107E-01  1.00921E+00 -4.70977E-02
    9020.660     23.118   2.880  9.35254E-01  1.00834E+00 -7.30842E-02
    9021.544     24.001   2.920  9.09024E-01  1.00745E+00 -9.84261E-02
    9022.440     24.898   2.960  8.85902E-01  1.00655E+00 -1.20647E-01
    9023.349     25.806   3.000  8.67928E-01  1.00562E+00 -1.37689E-01
    9024.269     26.726   3.040  8.56049E-01  1.00468E+00 -1.48628E-01
    9025.202     27.659   3.080  8.50192E-01  1.00374E+00 -1.53545E-01
    9026.147     28.604   3.120  8.49823E-01  1.00280E+00 -1.52977E-01
    9027.104     29.561   3.160  8.53498E-01  1.00189E+00 -1.48392E-01
    9028.073     30.530   3.200  8.59832E-01  1.00099E+00 -1.41158E-01
    9029.055     31.512   3.240  8.67692E-01  1.00012E+00 -1.32432E-01
    9030.048     32.505   3.280  8.76318E-01  9.99298E-01 -1.22980E-01
    9031.054     33.511   3.320  8.85654E-01  9.98510E-01 -1.12856E-01
    9032.072     34.529   3.360  8.96301E-01  9.97786E-01 -1.01485E-01
    9033.102     35.559   3.400  9.09012E-01  9.97087E-01 -8.80747E-02
    9034.145     36.602   3.440  9.23935E-01  9.96454E-01 -7.25190E-02
    9035.199     37.656   3.480  9.40780E-01  9.95889E-01 -5.51093E-02
    9036.266     38.723   3.520  9.58704E-01  9.95353E-01 -3.66492E-02
    9037.345     39.802   3.560  9.76726E-01  9.94908E-01 -1.81817E-02
    9038.436     40.893   3.600  9.93907E-01  9.94512E-01 -6.04393E-04
    9039.540     41.997   3.640  1.00963E+00  9.94167E-01  1.54624E-02
    9040.655     43.112   3.680  1.02346E+00  9.93895E-01  2.95695E-02
    9041.783     44.240   3.720  1.03482E+00  9.93696E-01  4.11244E-02
    9042.923     45.380   3.760  1.04310E+00  9.93548E-01  4.95545E-02
    9044.075     46.532   3.800  1.04793E+00  9.93473E-01  5.44604E-02
    9045.239     47.697   3.840  1.04929E+00  9.93471E-01  5.58229E-02
    9046.416     48.873   3.880  1.04789E+00  9.93519E-01  5.43746E-02
    9047.605     50.062   3.920  1.04486E+00  9.93615E-01  5.12462E-02
    9048.805     51.263   3.960  1.04134E+00  9.93783E-01  4.75551E-02
    9050.019     52.476   4.000  1.03807E+00  9.94021E-01  4.40541E-02
    9051.244     53.701   4.040  1.03531E+00  9.94305E-01  4.10059E-02
    9052.481     54.939   4.080  1.03288E+00  9.94634E-01  3.82443E-02
    9053.731     56.188   4.120  1.03046E+00  9.95008E-01  3.54477E-02
    9054.993     57.450   4.160  1.02819E+00  9.95446E-01  3.27480E-02
    9056.267     58.724   4.200  1.02670E+00  9.95905E-01  3.07945E-02
    9057.553     60.010   4.240  1.02685E+00  9.96425E-01  3.04235E-02
    9058.852     61.309   4.280  1.02908E+00  9.96983E-01  3.21004E-02
    9060.162     62.619   4.320  1.03325E+00  9.97557E-01  3.56922E-02
    9061.485     63.942   4.360  1.03873E+00  9.98166E-01  4.05621E-02
    9062.820     65.277   4.400  1.04479E+00  9.98809E-01  4.59851E-02
    9064.167     66.625   4.440  1.05101E+00  9.99483E-01  5.15241E-02
    9065.527     67.984   4.480  1.05699E+00  1.00014E+00  5.68505E-02
    9066.898     69.356   4.520  1.06230E+00  1.00085E+00  6.14473E-02
    9068.282     70.739   4.560  1.06603E+00  1.00155E+00  6.44856E-02
    9069.678     72.135   4.600  1.06722E+00  1.00227E+00  6.49520E-02
    9071.086     73.543   4.640  1.06508E+00  1.00299E+00  6.20963E-02
    9072.507     74.964   4.680  1.05951E+00  1.00370E+00  5.58071E-02
    9073.939     76.396   4.720  1.05100E+00  1.00442E+00  4.65767E-02
    9075.384     77.841   4.760  1.04025E+00  1.00511E+00  3.51473E-02
    9076.841     79.298   4.800  1.02810E+00  1.00579E+00  2.23084E-02
    9078.310     80.767   4.840  1.01531E+00  1.00646E+00  8.84977E-03
    9079.791     82.249   4.880  1.00275E+00  1.00713E+00 -4.37169E-03
    9081.285     83.742   4.920  9.91218E-01  1.00773E+00 -1.65163E-02
    9082.791     85.248   4.960  9.81432E-01  1.00835E+00 -2.69203E-02
    9084.308     86.766   5.000  9.73819E-01  1.00891E+00 -3.50938E-02
    9085.839     88.296   5.040  9.68714E-01  1.00946E+00 -4.07436E-02
    9087.381     89.838   5.080  9.66130E-01  1.00996E+00 -4.38340E-02
    9088.935     91.392   5.120  9.65701E-01  1.01043E+00 -4.47287E-02
    9090.502     92.959   5.160  9.66528E-01  1.01085E+00 -4.43272E-02
    9092.081     94.538   5.200  9.67525E-01  1.01124E+00 -4.37117E-02
    9093.672     96.129   5.240  9.67985E-01  1.01158E+00 -4.35905E-02
    9095.275     97.732   5.280  9.67956E-01  1.01185E+00 -4.38923E-02
    9096.891     99.348   5.320  9.68192E-01  1.01210E+00 -4.39084E-02
    9098.518    100.975   5.360  9.69251E-01  1.01231E+00 -4.30573E-02
    9100.158    102.615   5.400  9.71276E-01  1.01245E+00 -4.11727E-02
    9101.810    104.267   5.440  9.74006E-01  1.01254E+00 -3.85374E-02
    9103.474    105.931   5.480  9.76818E-01  1.01259E+00 -3.57733E-02
    9105.151    107.608   5.520  9.78918E-01  1.01257E+00 -3.36541E-02
    9106.839    109.296   5.560  9.79733E-01  1.01253E+00 -3.27978E-02
    9108.540    110.997   5.600  9.79127E-01  1.01242E+00 -3.32947E-02
    9110.253    112.710   5.640  9.77703E-01  1.01227E+00 -3.45647E-02
    9111.978    114.435   5.680  9.76449E-01  1.01207E+00 -3.56218E-02
    9113.715    116.173   5.720  9.76216E-01  1.01181E+00 -3.55911E-02
    9115.465    117.922   5.760  9.77727E-01  1.01152E+00 -3.37961E-02
    9117.227    119.684   5.800  9.81263E-01  1.01118E+00 -2.99144E-02
    9119.001    121.458   5.840  9.86679E-01  1.01081E+00 -2.41343E-02
    9120.787    123.244   5.880  9.93263E-01  1.01039E+00 -1.71267E-02
    9122.585    125.042   5.920  1.00025E+00  1.00993E+00 -9.68104E-03
    9124.396    126.853   5.960  1.00722E+00  1.00946E+00 -2.23704E-03
    9126.218    128.675   6.000  1.01425E+00  1.00890E+00  5.35421E-03
