# # comment:                                                     FEFF 9.9.1  
# # Source:
# # Structure
# # Reduced
# # space
# # abc:
# # angles:
# # sites:
# # POT  SCF 100  7.0000   0, screened core-hole, AFOLP (folp(0)= 1.150)
# # Abs   Z=29 Rmt= 1.181 Rnm= 1.277 K  shell
# # Pot 1 Z=39 Rmt= 1.678 Rnm= 1.723
# # Pot 2 Z=25 Rmt= 1.275 Rnm= 1.385
# # Pot 3 Z=29 Rmt= 1.249 Rnm= 1.321
# # Pot 4 Z= 8 Rmt= 1.029 Rnm= 1.096
# # Gam_ch=1.729E+00 H-L exch Vi= 0.000E+00 Vr= 0.000E+00
# # Mu=-1.009E+01eV kf=2.182E+00 Vint=-1.806E+01eV Rs_int= 1.662
# FMS rfms= 9.0000
# # PATH  Rmax=-1.000,  Keep_limit= 0.00, Heap_limit 0.00  Pwcrit= 2.50%
#  S02=0.950  Temp=   0.00  Debye_temp=   0.00  Global_sig2= 0.00000
#  Energy zero shift, vr, vi    0.00000E+00   0.00000E+00
#  Curved wave amplitude ratio filter   4.000%
#     file         sig2 tot  cw amp ratio   deg  nlegs   reff  inp sig2
#     0/   0 paths used
#  xsedge+ 50, used to normalize mu           2.4766E-04
#  -----------------------------------------------------------------------
#  omega    e    k    mu    mu0     chi     @#
    8984.525    -13.904  -1.000  3.44750E-02  5.14526E-02 -1.69776E-02
    8984.824    -13.605  -0.960  3.61490E-02  5.50988E-02 -1.89498E-02
    8985.110    -13.319  -0.920  3.79354E-02  5.91419E-02 -2.12065E-02
    8985.385    -13.045  -0.880  3.98446E-02  6.36396E-02 -2.37950E-02
    8985.647    -12.782  -0.840  4.18882E-02  6.86589E-02 -2.67706E-02
    8985.897    -12.533  -0.800  4.40794E-02  7.42772E-02 -3.01978E-02
    8986.134    -12.295  -0.760  4.64326E-02  8.05835E-02 -3.41509E-02
    8986.360    -12.069  -0.720  4.89636E-02  8.76779E-02 -3.87144E-02
    8986.573    -11.856  -0.680  5.16891E-02  9.56709E-02 -4.39818E-02
    8986.774    -11.655  -0.640  5.46258E-02  1.04679E-01 -5.00528E-02
    8986.963    -11.466  -0.600  5.77885E-02  1.14815E-01 -5.70262E-02
    8987.140    -11.289  -0.560  6.11875E-02  1.26176E-01 -6.49888E-02
    8987.305    -11.124  -0.520  6.48233E-02  1.38820E-01 -7.39969E-02
    8987.457    -10.972  -0.480  6.86809E-02  1.52732E-01 -8.40514E-02
    8987.597    -10.832  -0.440  7.27224E-02  1.67791E-01 -9.50684E-02
    8987.725    -10.704  -0.400  7.68813E-02  1.83736E-01 -1.06854E-01
    8987.841    -10.588  -0.360  8.10621E-02  2.00160E-01 -1.19098E-01
    8987.945    -10.484  -0.320  8.51468E-02  2.16533E-01 -1.31386E-01
    8988.036    -10.393  -0.280  8.90101E-02  2.32267E-01 -1.43257E-01
    8988.116    -10.314  -0.240  9.25358E-02  2.46795E-01 -1.54259E-01
    8988.183    -10.247  -0.200  9.56303E-02  2.59640E-01 -1.64010E-01
    8988.237    -10.192  -0.160  9.82268E-02  2.70452E-01 -1.72225E-01
    8988.280    -10.149  -0.120  1.00282E-01  2.79004E-01 -1.78722E-01
    8988.311    -10.119  -0.080  1.01768E-01  2.85168E-01 -1.83400E-01
    8988.335    -10.094   0.000  1.02976E-01  2.90123E-01 -1.87147E-01
    8988.390    -10.039   0.120  1.05784E-01  3.01303E-01 -1.95519E-01
    8988.433     -9.997   0.160  1.07928E-01  3.10003E-01 -2.02075E-01
    8988.487     -9.942   0.200  1.10666E-01  3.21128E-01 -2.10462E-01
    8988.554     -9.875   0.240  1.13987E-01  3.34520E-01 -2.20532E-01
    8988.634     -9.795   0.280  1.17924E-01  3.49947E-01 -2.32023E-01
    8988.725     -9.704   0.320  1.22509E-01  3.67021E-01 -2.44512E-01
    8988.829     -9.600   0.360  1.27799E-01  3.85280E-01 -2.57481E-01
    8988.945     -9.485   0.400  1.33984E-01  4.04231E-01 -2.70247E-01
    8989.073     -9.357   0.440  1.41247E-01  4.23404E-01 -2.82158E-01
    8989.213     -9.216   0.480  1.49788E-01  4.42451E-01 -2.92664E-01
    8989.365     -9.064   0.520  1.59718E-01  4.61150E-01 -3.01432E-01
    8989.530     -8.899   0.560  1.70863E-01  4.79379E-01 -3.08516E-01
    8989.707     -8.723   0.600  1.82816E-01  4.97128E-01 -3.14313E-01
    8989.896     -8.534   0.640  1.95060E-01  5.14406E-01 -3.19346E-01
    8990.097     -8.332   0.680  2.07407E-01  5.31314E-01 -3.23907E-01
    8990.310     -8.119   0.720  2.19887E-01  5.47905E-01 -3.28018E-01
    8990.536     -7.893   0.760  2.32833E-01  5.64247E-01 -3.31414E-01
    8990.773     -7.656   0.800  2.47006E-01  5.80443E-01 -3.33437E-01
    8991.023     -7.406   0.840  2.64243E-01  5.96503E-01 -3.32260E-01
    8991.285     -7.144   0.880  2.88419E-01  6.12483E-01 -3.24064E-01
    8991.560     -6.869   0.920  3.24912E-01  6.28409E-01 -3.03497E-01
    8991.846     -6.583   0.960  3.77120E-01  6.44273E-01 -2.67153E-01
    8992.145     -6.284   1.000  4.40130E-01  6.60102E-01 -2.19972E-01
    8992.456     -5.973   1.040  4.99983E-01  6.75890E-01 -1.75907E-01
    8992.779     -5.650   1.080  5.52723E-01  6.91587E-01 -1.38864E-01
    8993.114     -5.315   1.120  6.17874E-01  7.07217E-01 -8.93433E-02
    8993.462     -4.967   1.160  7.08275E-01  7.22718E-01 -1.44432E-02
    8993.821     -4.608   1.200  7.88120E-01  7.38064E-01  5.00557E-02
    8994.193     -4.236   1.240  7.88506E-01  7.53249E-01  3.52569E-02
    8994.577     -3.852   1.280  7.00206E-01  7.68223E-01 -6.80169E-02
    8994.974     -3.456   1.320  5.86106E-01  7.82934E-01 -1.96828E-01
    8995.382     -3.047   1.360  4.99588E-01  7.97390E-01 -2.97802E-01
    8995.803     -2.627   1.400  4.58649E-01  8.11516E-01 -3.52867E-01
    8996.235     -2.194   1.440  4.60749E-01  8.25302E-01 -3.64553E-01
    8996.680     -1.749   1.480  4.95258E-01  8.38713E-01 -3.43456E-01
    8997.138     -1.292   1.520  5.47750E-01  8.51699E-01 -3.03949E-01
    8997.607     -0.822   1.560  6.02687E-01  8.64266E-01 -2.61579E-01
    8998.089     -0.341   1.600  6.57689E-01  8.76364E-01 -2.18675E-01
    8998.582      0.153   1.640  7.14885E-01  8.87965E-01 -1.73080E-01
    8999.088      0.659   1.680  7.54492E-01  8.99082E-01 -1.44590E-01
    8999.606      1.177   1.720  7.72291E-01  9.09687E-01 -1.37396E-01
    9000.137      1.708   1.760  7.99598E-01  9.19757E-01 -1.20158E-01
    9000.679      2.250   1.800  8.51391E-01  9.29308E-01 -7.79170E-02
    9001.234      2.805   1.840  9.06382E-01  9.38296E-01 -3.19142E-02
    9001.801      3.372   1.880  9.29674E-01  9.46743E-01 -1.70693E-02
    9002.380      3.951   1.920  9.39440E-01  9.54649E-01 -1.52086E-02
    9002.971      4.542   1.960  9.88675E-01  9.62017E-01  2.66584E-02
    9003.575      5.146   2.000  1.08677E+00  9.68850E-01  1.17920E-01
    9004.191      5.761   2.040  1.18812E+00  9.75173E-01  2.12944E-01
    9004.819      6.389   2.080  1.24729E+00  9.80971E-01  2.66318E-01
    9005.459      7.029   2.120  1.27960E+00  9.86252E-01  2.93348E-01
    9006.111      7.682   2.160  1.31842E+00  9.91062E-01  3.27355E-01
    9006.775      8.346   2.200  1.38369E+00  9.95390E-01  3.88303E-01
    9007.452      9.023   2.240  1.46355E+00  9.99267E-01  4.64283E-01
    9008.141      9.712   2.280  1.50235E+00  1.00272E+00  4.99628E-01
    9008.842     10.413   2.320  1.47811E+00  1.00574E+00  4.72368E-01
    9009.555     11.126   2.360  1.43064E+00  1.00838E+00  4.22257E-01
    9010.281     11.851   2.400  1.38621E+00  1.01065E+00  3.75561E-01
    9011.018     12.589   2.440  1.33762E+00  1.01255E+00  3.25065E-01
    9011.768     13.339   2.480  1.27833E+00  1.01410E+00  2.64225E-01
    9012.530     14.101   2.520  1.21797E+00  1.01536E+00  2.02617E-01
    9013.304     14.875   2.560  1.16329E+00  1.01632E+00  1.46971E-01
    9014.090     15.661   2.600  1.11463E+00  1.01703E+00  9.76066E-02
    9014.889     16.460   2.640  1.06900E+00  1.01747E+00  5.15319E-02
    9015.700     17.271   2.680  1.02466E+00  1.01768E+00  6.97306E-03
    9016.523     18.094   2.720  9.88834E-01  1.01767E+00 -2.88399E-02
    9017.358     18.929   2.760  9.64887E-01  1.01748E+00 -5.25970E-02
    9018.205     19.776   2.800  9.52240E-01  1.01711E+00 -6.48652E-02
    9019.065     20.636   2.840  9.48209E-01  1.01659E+00 -6.83783E-02
    9019.937     21.507   2.880  9.47850E-01  1.01592E+00 -6.80678E-02
    9020.820     22.391   2.920  9.46410E-01  1.01514E+00 -6.87347E-02
    9021.717     23.287   2.960  9.40820E-01  1.01426E+00 -7.34362E-02
    9022.625     24.196   3.000  9.30327E-01  1.01326E+00 -8.29296E-02
    9023.545     25.116   3.040  9.16409E-01  1.01220E+00 -9.57879E-02
    9024.478     26.049   3.080  9.01774E-01  1.01106E+00 -1.09289E-01
    9025.423     26.994   3.120  8.89164E-01  1.00986E+00 -1.20694E-01
    9026.380     27.951   3.160  8.80067E-01  1.00863E+00 -1.28566E-01
    9027.349     28.920   3.200  8.74810E-01  1.00737E+00 -1.32562E-01
    9028.331     29.902   3.240  8.72987E-01  1.00610E+00 -1.33112E-01
    9029.324     30.895   3.280  8.73396E-01  1.00480E+00 -1.31402E-01
    9030.330     31.901   3.320  8.75042E-01  1.00350E+00 -1.28453E-01
    9031.348     32.919   3.360  8.77388E-01  1.00221E+00 -1.24827E-01
    9032.378     33.949   3.400  8.80001E-01  1.00094E+00 -1.20939E-01
    9033.421     34.992   3.440  8.82502E-01  9.99673E-01 -1.17171E-01
    9034.475     36.046   3.480  8.84890E-01  9.98439E-01 -1.13549E-01
    9035.542     37.113   3.520  8.87563E-01  9.97240E-01 -1.09677E-01
    9036.621     38.192   3.560  8.91282E-01  9.96080E-01 -1.04798E-01
    9037.712     39.283   3.600  8.97057E-01  9.94960E-01 -9.79031E-02
    9038.816     40.387   3.640  9.05729E-01  9.93881E-01 -8.81517E-02
    9039.931     41.502   3.680  9.17876E-01  9.92845E-01 -7.49688E-02
    9041.059     42.630   3.720  9.33624E-01  9.91876E-01 -5.82519E-02
    9042.199     43.770   3.760  9.52429E-01  9.90954E-01 -3.85252E-02
    9043.351     44.922   3.800  9.72540E-01  9.90079E-01 -1.75390E-02
    9044.515     46.086   3.840  9.91173E-01  9.89274E-01  1.89863E-03
    9045.692     47.263   3.880  1.00552E+00  9.88540E-01  1.69785E-02
    9046.881     48.452   3.920  1.01381E+00  9.87856E-01  2.59528E-02
    9048.082     49.653   3.960  1.01580E+00  9.87244E-01  2.85573E-02
    9049.295     50.866   4.000  1.01253E+00  9.86681E-01  2.58471E-02
    9050.520     52.091   4.040  1.00600E+00  9.86189E-01  1.98132E-02
    9051.758     53.328   4.080  9.98734E-01  9.85746E-01  1.29880E-02
    9053.007     54.578   4.120  9.93322E-01  9.85373E-01  7.94932E-03
    9054.269     55.840   4.160  9.91800E-01  9.85052E-01  6.74877E-03
    9055.543     57.114   4.200  9.94969E-01  9.84802E-01  1.01675E-02
    9056.829     58.400   4.240  1.00203E+00  9.84622E-01  1.74038E-02
    9058.128     59.699   4.280  1.01108E+00  9.84489E-01  2.65919E-02
    9059.438     61.009   4.320  1.02029E+00  9.84403E-01  3.58879E-02
    9060.761     62.332   4.360  1.02869E+00  9.84384E-01  4.43081E-02
    9062.096     63.667   4.400  1.03603E+00  9.84410E-01  5.16246E-02
    9063.443     65.014   4.440  1.04221E+00  9.84478E-01  5.77285E-02
    9064.803     66.374   4.480  1.04665E+00  9.84588E-01  6.20585E-02
    9066.174     67.745   4.520  1.04874E+00  9.84741E-01  6.40028E-02
    9067.558     69.129   4.560  1.04863E+00  9.84955E-01  6.36727E-02
    9068.954     70.525   4.600  1.04734E+00  9.85189E-01  6.21496E-02
    9070.362     71.933   4.640  1.04641E+00  9.85480E-01  6.09258E-02
    9071.783     73.354   4.680  1.04697E+00  9.85786E-01  6.11815E-02
    9073.215     74.786   4.720  1.04948E+00  9.86126E-01  6.33495E-02
    9074.660     76.231   4.760  1.05362E+00  9.86477E-01  6.71426E-02
    9076.117     77.688   4.800  1.05852E+00  9.86858E-01  7.16607E-02
    9077.586     79.157   4.840  1.06289E+00  9.87269E-01  7.56242E-02
    9079.067     80.638   4.880  1.06542E+00  9.87667E-01  7.77566E-02
    9080.561     82.132   4.920  1.06512E+00  9.88112E-01  7.70064E-02
    9082.067     83.638   4.960  1.06122E+00  9.88542E-01  7.26741E-02
    9083.585     85.155   5.000  1.05365E+00  9.88994E-01  6.46554E-02
    9085.115     86.686   5.040  1.04301E+00  9.89447E-01  5.35617E-02
    9086.657     88.228   5.080  1.03038E+00  9.89877E-01  4.05016E-02
    9088.211     89.782   5.120  1.01680E+00  9.90325E-01  2.64783E-02
    9089.778     91.349   5.160  1.00267E+00  9.90751E-01  1.19194E-02
    9091.357     92.928   5.200  9.87824E-01  9.91194E-01 -3.36972E-03
    9092.948     94.519   5.240  9.71767E-01  9.91607E-01 -1.98399E-02
    9094.551     96.122   5.280  9.54466E-01  9.91990E-01 -3.75247E-02
    9096.167     97.738   5.320  9.36733E-01  9.92366E-01 -5.56330E-02
    9097.794     99.365   5.360  9.19967E-01  9.92733E-01 -7.27657E-02
    9099.434    101.005   5.400  9.05487E-01  9.93067E-01 -8.75804E-02
    9101.086    102.657   5.440  8.94213E-01  9.93389E-01 -9.91761E-02
    9102.750    104.321   5.480  8.86686E-01  9.93653E-01 -1.06967E-01
    9104.427    105.998   5.520  8.83430E-01  9.93904E-01 -1.10473E-01
    9106.115    107.686   5.560  8.84873E-01  9.94142E-01 -1.09270E-01
    9107.816    109.387   5.600  8.91354E-01  9.94322E-01 -1.02968E-01
    9109.529    111.100   5.640  9.03100E-01  9.94486E-01 -9.13863E-02
    9111.254    112.825   5.680  9.19873E-01  9.94612E-01 -7.47391E-02
    9112.992    114.562   5.720  9.40974E-01  9.94700E-01 -5.37251E-02
    9114.741    116.312   5.760  9.65326E-01  9.94748E-01 -2.94217E-02
    9116.503    118.074   5.800  9.91395E-01  9.94758E-01 -3.36217E-03
    9118.277    119.848   5.840  1.01706E+00  9.94728E-01  2.23322E-02
    9120.063    121.634   5.880  1.03950E+00  9.94662E-01  4.48383E-02
    9121.861    123.432   5.920  1.05545E+00  9.94580E-01  6.08666E-02
    9123.672    125.243   5.960  1.06200E+00  9.94433E-01  6.75664E-02
    9125.494    127.065   6.000  1.05764E+00  9.94222E-01  6.34161E-02
