# # comment:                                                     FEFF 9.9.1  
# # Source:
# # Structure
# # Reduced
# # space
# # abc:
# # angles:114.077447
# # sites:
# # POT  SCF 100  7.0000   0, screened core-hole, AFOLP (folp(0)= 1.150)
# # Abs   Z=29 Rmt= 1.216 Rnm= 1.298 K  shell
# # Pot 1 Z=56 Rmt= 1.960 Rnm= 2.016
# # Pot 2 Z=39 Rmt= 1.634 Rnm= 1.703
# # Pot 3 Z=29 Rmt= 1.215 Rnm= 1.296
# # Pot 4 Z= 8 Rmt= 1.053 Rnm= 1.107
# # Gam_ch=1.729E+00 H-L exch Vi= 0.000E+00 Vr= 0.000E+00
# # Mu=-7.846E+00eV kf=2.001E+00 Vint=-1.728E+01eV Rs_int= 1.813
# FMS rfms= 9.0000
# # PATH  Rmax=-1.000,  Keep_limit= 0.00, Heap_limit 0.00  Pwcrit= 2.50%
#  S02=0.950  Temp=   0.00  Debye_temp=   0.00  Global_sig2= 0.00000
#  Energy zero shift, vr, vi    0.00000E+00   0.00000E+00
#  Curved wave amplitude ratio filter   4.000%
#     file         sig2 tot  cw amp ratio   deg  nlegs   reff  inp sig2
#     0/   0 paths used
#  xsedge+ 50, used to normalize mu           2.4380E-04
#  -----------------------------------------------------------------------
#  omega    e    k    mu    mu0     chi     @#
    8984.947    -11.656  -1.000  4.46461E-02  5.90872E-02 -1.44411E-02
    8985.245    -11.358  -0.960  4.73357E-02  6.35236E-02 -1.61879E-02
    8985.532    -11.071  -0.920  5.02793E-02  6.84647E-02 -1.81854E-02
    8985.806    -10.797  -0.880  5.35117E-02  7.39858E-02 -2.04741E-02
    8986.068    -10.535  -0.840  5.70738E-02  8.01746E-02 -2.31007E-02
    8986.318    -10.285  -0.800  6.10129E-02  8.71326E-02 -2.61197E-02
    8986.556    -10.047  -0.760  6.53832E-02  9.49767E-02 -2.95935E-02
    8986.782     -9.821  -0.720  7.02463E-02  1.03839E-01 -3.35925E-02
    8986.995     -9.608  -0.680  7.56701E-02  1.13865E-01 -3.81945E-02
    8987.196     -9.407  -0.640  8.17262E-02  1.25208E-01 -4.34816E-02
    8987.385     -9.218  -0.600  8.84848E-02  1.38020E-01 -4.95349E-02
    8987.562     -9.041  -0.560  9.60052E-02  1.52430E-01 -5.64248E-02
    8987.727     -8.877  -0.520  1.04321E-01  1.68516E-01 -6.41953E-02
    8987.879     -8.724  -0.480  1.13419E-01  1.86263E-01 -7.28439E-02
    8988.019     -8.584  -0.440  1.23216E-01  2.05513E-01 -8.22970E-02
    8988.147     -8.456  -0.400  1.33541E-01  2.25930E-01 -9.23895E-02
    8988.263     -8.340  -0.360  1.44125E-01  2.46983E-01 -1.02858E-01
    8988.367     -8.237  -0.320  1.54623E-01  2.67980E-01 -1.13358E-01
    8988.458     -8.145  -0.280  1.64655E-01  2.88157E-01 -1.23502E-01
    8988.537     -8.066  -0.240  1.73864E-01  3.06777E-01 -1.32914E-01
    8988.604     -7.999  -0.200  1.81955E-01  3.23227E-01 -1.41272E-01
    8988.659     -7.944  -0.160  1.88724E-01  3.37058E-01 -1.48334E-01
    8988.702     -7.901  -0.120  1.94049E-01  3.47986E-01 -1.53937E-01
    8988.732     -7.871  -0.080  1.97872E-01  3.55856E-01 -1.57984E-01
    8988.757     -7.846   0.000  2.00932E-01  3.62177E-01 -1.61244E-01
    8988.812     -7.792   0.120  2.07714E-01  3.76425E-01 -1.68711E-01
    8988.854     -7.749   0.160  2.12938E-01  3.87474E-01 -1.74537E-01
    8988.909     -7.694   0.200  2.19557E-01  4.01577E-01 -1.82020E-01
    8988.976     -7.627   0.240  2.27438E-01  4.18532E-01 -1.91093E-01
    8989.055     -7.548   0.280  2.36374E-01  4.37963E-01 -2.01588E-01
    8989.147     -7.456   0.320  2.46054E-01  4.59335E-01 -2.13281E-01
    8989.251     -7.353   0.360  2.56236E-01  4.82030E-01 -2.25794E-01
    8989.366     -7.237   0.400  2.66647E-01  5.05350E-01 -2.38704E-01
    8989.494     -7.109   0.440  2.77195E-01  5.28656E-01 -2.51460E-01
    8989.635     -6.969   0.480  2.87969E-01  5.51468E-01 -2.63498E-01
    8989.787     -6.816   0.520  2.99214E-01  5.73460E-01 -2.74246E-01
    8989.952     -6.652   0.560  3.11333E-01  5.94469E-01 -2.83135E-01
    8990.128     -6.475   0.600  3.24833E-01  6.14459E-01 -2.89626E-01
    8990.317     -6.286   0.640  3.40452E-01  6.33495E-01 -2.93043E-01
    8990.519     -6.085   0.680  3.59263E-01  6.51668E-01 -2.92404E-01
    8990.732     -5.871   0.720  3.82539E-01  6.69080E-01 -2.86541E-01
    8990.957     -5.646   0.760  4.10883E-01  6.85817E-01 -2.74934E-01
    8991.195     -5.408   0.800  4.42632E-01  7.02013E-01 -2.59381E-01
    8991.445     -5.158   0.840  4.72246E-01  7.17685E-01 -2.45439E-01
    8991.707     -4.896   0.880  4.91373E-01  7.32958E-01 -2.41586E-01
    8991.982     -4.622   0.920  4.93919E-01  7.47839E-01 -2.53920E-01
    8992.268     -4.335   0.960  4.82346E-01  7.62359E-01 -2.80013E-01
    8992.567     -4.036   1.000  4.66072E-01  7.76543E-01 -3.10471E-01
    8992.878     -3.725   1.040  4.53703E-01  7.90402E-01 -3.36699E-01
    8993.201     -3.402   1.080  4.49272E-01  8.03937E-01 -3.54665E-01
    8993.536     -3.067   1.120  4.54080E-01  8.17146E-01 -3.63066E-01
    8993.883     -2.720   1.160  4.68437E-01  8.30000E-01 -3.61564E-01
    8994.243     -2.360   1.200  4.91204E-01  8.42527E-01 -3.51323E-01
    8994.615     -1.988   1.240  5.19437E-01  8.54649E-01 -3.35211E-01
    8994.999     -1.604   1.280  5.50742E-01  8.66407E-01 -3.15665E-01
    8995.395     -1.208   1.320  5.87372E-01  8.77760E-01 -2.90388E-01
    8995.804     -0.799   1.360  6.36375E-01  8.88669E-01 -2.52293E-01
    8996.224     -0.379   1.400  7.04648E-01  8.99170E-01 -1.94523E-01
    8996.657      0.054   1.440  7.93245E-01  9.09201E-01 -1.15956E-01
    8997.102      0.499   1.480  9.01218E-01  9.18761E-01 -1.75429E-02
    8997.559      0.956   1.520  1.03170E+00  9.27847E-01  1.03854E-01
    8998.029      1.426   1.560  1.16867E+00  9.36460E-01  2.32212E-01
    8998.510      1.907   1.600  1.25702E+00  9.44580E-01  3.12437E-01
    8999.004      2.401   1.640  1.28053E+00  9.52208E-01  3.28320E-01
    8999.510      2.907   1.680  1.32517E+00  9.59346E-01  3.65822E-01
    9000.028      3.425   1.720  1.44590E+00  9.65996E-01  4.79899E-01
    9000.559      3.955   1.760  1.57904E+00  9.72164E-01  6.06880E-01
    9001.101      4.498   1.800  1.61441E+00  9.77854E-01  6.36556E-01
    9001.656      5.053   1.840  1.53490E+00  9.83070E-01  5.51827E-01
    9002.223      5.620   1.880  1.42047E+00  9.87822E-01  4.32651E-01
    9002.802      6.199   1.920  1.32967E+00  9.92136E-01  3.37535E-01
    9003.393      6.790   1.960  1.26001E+00  9.96020E-01  2.63986E-01
    9003.997      7.394   2.000  1.20065E+00  9.99483E-01  2.01171E-01
    9004.612      8.009   2.040  1.16144E+00  1.00255E+00  1.58890E-01
    9005.240      8.637   2.080  1.14945E+00  1.00524E+00  1.44205E-01
    9005.880      9.277   2.120  1.14532E+00  1.00756E+00  1.37759E-01
    9006.533      9.929   2.160  1.12073E+00  1.00954E+00  1.11192E-01
    9007.197     10.594   2.200  1.07062E+00  1.01121E+00  5.94107E-02
    9007.874     11.271   2.240  1.01710E+00  1.01255E+00  4.54292E-03
    9008.563     11.959   2.280  9.80457E-01  1.01363E+00 -3.31759E-02
    9009.264     12.660   2.320  9.70122E-01  1.01445E+00 -4.43306E-02
    9009.977     13.374   2.360  9.86595E-01  1.01503E+00 -2.84302E-02
    9010.702     14.099   2.400  1.02658E+00  1.01536E+00  1.12217E-02
    9011.440     14.837   2.440  1.07773E+00  1.01551E+00  6.22245E-02
    9012.190     15.587   2.480  1.11101E+00  1.01548E+00  9.55381E-02
    9012.952     16.349   2.520  1.12641E+00  1.01526E+00  1.11158E-01
    9013.726     17.123   2.560  1.12664E+00  1.01490E+00  1.11738E-01
    9014.512     17.909   2.600  1.11483E+00  1.01441E+00  1.00418E-01
    9015.311     18.708   2.640  1.09508E+00  1.01382E+00  8.12537E-02
    9016.122     19.518   2.680  1.07106E+00  1.01312E+00  5.79403E-02
    9016.945     20.341   2.720  1.04558E+00  1.01233E+00  3.32412E-02
    9017.780     21.177   2.760  1.02016E+00  1.01147E+00  8.69274E-03
    9018.627     22.024   2.800  9.95730E-01  1.01055E+00 -1.48198E-02
    9019.487     22.883   2.840  9.72808E-01  1.00959E+00 -3.67802E-02
    9020.358     23.755   2.880  9.51438E-01  1.00861E+00 -5.71711E-02
    9021.242     24.639   2.920  9.30848E-01  1.00760E+00 -7.67479E-02
    9022.138     25.535   2.960  9.11058E-01  1.00655E+00 -9.54966E-02
    9023.047     26.443   3.000  8.93241E-01  1.00553E+00 -1.12291E-01
    9023.967     27.364   3.040  8.78861E-01  1.00451E+00 -1.25650E-01
    9024.900     28.297   3.080  8.68802E-01  1.00350E+00 -1.34695E-01
    9025.845     29.242   3.120  8.63419E-01  1.00253E+00 -1.39116E-01
    9026.802     30.199   3.160  8.61821E-01  1.00157E+00 -1.39744E-01
    9027.771     31.168   3.200  8.62790E-01  1.00065E+00 -1.37863E-01
    9028.752     32.149   3.240  8.65081E-01  9.99783E-01 -1.34702E-01
    9029.746     33.143   3.280  8.67829E-01  9.98956E-01 -1.31127E-01
    9030.752     34.149   3.320  8.71066E-01  9.98194E-01 -1.27128E-01
    9031.770     35.167   3.360  8.75497E-01  9.97459E-01 -1.21961E-01
    9032.800     36.197   3.400  8.82191E-01  9.96814E-01 -1.14623E-01
    9033.843     37.239   3.440  8.91376E-01  9.96219E-01 -1.04843E-01
    9034.897     38.294   3.480  9.03052E-01  9.95675E-01 -9.26229E-02
    9035.964     39.361   3.520  9.17040E-01  9.95203E-01 -7.81623E-02
    9037.043     40.440   3.560  9.32988E-01  9.94805E-01 -6.18164E-02
    9038.134     41.531   3.600  9.50345E-01  9.94459E-01 -4.41144E-02
    9039.238     42.634   3.640  9.68264E-01  9.94189E-01 -2.59251E-02
    9040.353     43.750   3.680  9.85665E-01  9.93995E-01 -8.32984E-03
    9041.481     44.878   3.720  1.00124E+00  9.93876E-01  7.36734E-03
    9042.621     46.018   3.760  1.01398E+00  9.93811E-01  2.01678E-02
    9043.773     47.170   3.800  1.02338E+00  9.93819E-01  2.95598E-02
    9044.937     48.334   3.840  1.02936E+00  9.93902E-01  3.54601E-02
    9046.114     49.511   3.880  1.03245E+00  9.94035E-01  3.84117E-02
    9047.303     50.699   3.920  1.03347E+00  9.94239E-01  3.92310E-02
    9048.503     51.900   3.960  1.03329E+00  9.94493E-01  3.87925E-02
    9049.717     53.113   4.000  1.03277E+00  9.94817E-01  3.79501E-02
    9050.942     54.339   4.040  1.03266E+00  9.95188E-01  3.74698E-02
    9052.179     55.576   4.080  1.03339E+00  9.95603E-01  3.77915E-02
    9053.429     56.826   4.120  1.03497E+00  9.96085E-01  3.88902E-02
    9054.691     58.088   4.160  1.03698E+00  9.96587E-01  4.03967E-02
    9055.965     59.362   4.200  1.03882E+00  9.97153E-01  4.16645E-02
    9057.251     60.648   4.240  1.04010E+00  9.97759E-01  4.23433E-02
    9058.550     61.946   4.280  1.04124E+00  9.98403E-01  4.28420E-02
    9059.860     63.257   4.320  1.04310E+00  9.99059E-01  4.40390E-02
    9061.183     64.580   4.360  1.04633E+00  9.99751E-01  4.65784E-02
    9062.518     65.915   4.400  1.05114E+00  1.00047E+00  5.06673E-02
    9063.865     67.262   4.440  1.05767E+00  1.00121E+00  5.64592E-02
    9065.225     68.622   4.480  1.06604E+00  1.00197E+00  6.40680E-02
    9066.596     69.993   4.520  1.07597E+00  1.00273E+00  7.32382E-02
    9067.980     71.377   4.560  1.08640E+00  1.00350E+00  8.29011E-02
    9069.376     72.773   4.600  1.09531E+00  1.00427E+00  9.10358E-02
    9070.784     74.181   4.640  1.10030E+00  1.00506E+00  9.52371E-02
    9072.205     75.601   4.680  1.09955E+00  1.00583E+00  9.37224E-02
    9073.637     77.034   4.720  1.09256E+00  1.00659E+00  8.59668E-02
    9075.082     78.479   4.760  1.07983E+00  1.00732E+00  7.25086E-02
    9076.539     79.936   4.800  1.06256E+00  1.00804E+00  5.45204E-02
    9078.008     81.405   4.840  1.04233E+00  1.00875E+00  3.35771E-02
    9079.489     82.886   4.880  1.02111E+00  1.00943E+00  1.16804E-02
    9080.983     84.380   4.920  1.00110E+00  1.01007E+00 -8.96610E-03
    9082.488     85.885   4.960  9.84207E-01  1.01069E+00 -2.64873E-02
    9084.006     87.403   5.000  9.71565E-01  1.01128E+00 -3.97167E-02
    9085.536     88.933   5.040  9.63459E-01  1.01181E+00 -4.83462E-02
    9087.079     90.476   5.080  9.59466E-01  1.01231E+00 -5.28451E-02
    9088.633     92.030   5.120  9.58456E-01  1.01278E+00 -5.43204E-02
    9090.200     93.597   5.160  9.59079E-01  1.01320E+00 -5.41200E-02
    9091.779     95.176   5.200  9.60297E-01  1.01358E+00 -5.32790E-02
    9093.370     96.767   5.240  9.61582E-01  1.01389E+00 -5.23034E-02
    9094.973     98.370   5.280  9.62879E-01  1.01415E+00 -5.12695E-02
    9096.588     99.985   5.320  9.64246E-01  1.01437E+00 -5.01211E-02
    9098.216    101.613   5.360  9.65461E-01  1.01454E+00 -4.90789E-02
    9099.856    103.253   5.400  9.66375E-01  1.01467E+00 -4.82924E-02
    9101.508    104.905   5.440  9.66893E-01  1.01473E+00 -4.78325E-02
    9103.172    106.569   5.480  9.67147E-01  1.01474E+00 -4.75890E-02
    9104.849    108.245   5.520  9.67468E-01  1.01470E+00 -4.72316E-02
    9106.537    109.934   5.560  9.68355E-01  1.01459E+00 -4.62387E-02
    9108.238    111.635   5.600  9.70342E-01  1.01444E+00 -4.40992E-02
    9109.951    113.348   5.640  9.73676E-01  1.01424E+00 -4.05668E-02
    9111.676    115.073   5.680  9.78070E-01  1.01398E+00 -3.59077E-02
    9113.413    116.810   5.720  9.82868E-01  1.01369E+00 -3.08235E-02
    9115.163    118.560   5.760  9.87250E-01  1.01334E+00 -2.60898E-02
    9116.925    120.321   5.800  9.90667E-01  1.01295E+00 -2.22786E-02
    9118.699    122.095   5.840  9.93002E-01  1.01251E+00 -1.95109E-02
    9120.485    123.882   5.880  9.94668E-01  1.01205E+00 -1.73768E-02
    9122.283    125.680   5.920  9.96460E-01  1.01157E+00 -1.51081E-02
    9124.093    127.490   5.960  9.99175E-01  1.01103E+00 -1.18571E-02
    9125.916    129.313   6.000  1.00355E+00  1.01043E+00 -6.87740E-03
