# # comment:                                                     FEFF 9.9.1  
# # Source:
# # Structure
# # Reduced
# # space
# # abc:
# # angles:
# # sites:
# # POT  SCF 100  7.0000   0, screened core-hole, AFOLP (folp(0)= 1.150)
# # Abs   Z=29 Rmt= 1.222 Rnm= 1.294 K  shell
# # Pot 1 Z=30 Rmt= 1.327 Rnm= 1.431
# # Pot 2 Z=29 Rmt= 1.245 Rnm= 1.314
# # Pot 3 Z=52 Rmt= 1.289 Rnm= 1.442
# # Pot 4 Z= 8 Rmt= 0.963 Rnm= 1.095
# # Gam_ch=1.729E+00 H-L exch Vi= 0.000E+00 Vr= 0.000E+00
# # Mu=-6.153E+00eV kf=2.226E+00 Vint=-1.461E+01eV Rs_int= 1.629
# FMS rfms= 9.0000
# # PATH  Rmax=-1.000,  Keep_limit= 0.00, Heap_limit 0.00  Pwcrit= 2.50%
#  S02=0.950  Temp=   0.00  Debye_temp=   0.00  Global_sig2= 0.00000
#  Energy zero shift, vr, vi    0.00000E+00   0.00000E+00
#  Curved wave amplitude ratio filter   4.000%
#     file         sig2 tot  cw amp ratio   deg  nlegs   reff  inp sig2
#     0/   0 paths used
#  xsedge+ 50, used to normalize mu           2.4307E-04
#  -----------------------------------------------------------------------
#  omega    e    k    mu    mu0     chi     @#
    8983.434     -9.963  -1.000  3.20680E-02  5.57898E-02 -2.37218E-02
    8983.733     -9.664  -0.960  3.34102E-02  5.98850E-02 -2.64749E-02
    8984.019     -9.377  -0.920  3.48269E-02  6.44381E-02 -2.96112E-02
    8984.293     -9.103  -0.880  3.63251E-02  6.95165E-02 -3.31914E-02
    8984.555     -8.841  -0.840  3.79126E-02  7.51986E-02 -3.72860E-02
    8984.805     -8.591  -0.800  3.95986E-02  8.15755E-02 -4.19769E-02
    8985.043     -8.353  -0.760  4.13934E-02  8.87516E-02 -4.73581E-02
    8985.269     -8.128  -0.720  4.33086E-02  9.68447E-02 -5.35361E-02
    8985.482     -7.914  -0.680  4.53568E-02  1.05985E-01 -6.06279E-02
    8985.683     -7.713  -0.640  4.75508E-02  1.16309E-01 -6.87579E-02
    8985.872     -7.524  -0.600  4.99028E-02  1.27951E-01 -7.80485E-02
    8986.049     -7.347  -0.560  5.24214E-02  1.41027E-01 -8.86057E-02
    8986.214     -7.183  -0.520  5.51092E-02  1.55605E-01 -1.00496E-01
    8986.366     -7.030  -0.480  5.79572E-02  1.71669E-01 -1.13712E-01
    8986.506     -6.890  -0.440  6.09403E-02  1.89079E-01 -1.28139E-01
    8986.634     -6.762  -0.400  6.40125E-02  2.07531E-01 -1.43519E-01
    8986.750     -6.646  -0.360  6.71066E-02  2.26550E-01 -1.59443E-01
    8986.854     -6.543  -0.320  7.01383E-02  2.45516E-01 -1.75378E-01
    8986.945     -6.451  -0.280  7.30166E-02  2.63742E-01 -1.90725E-01
    8987.024     -6.372  -0.240  7.56558E-02  2.80567E-01 -2.04911E-01
    8987.091     -6.305  -0.200  7.79843E-02  2.95437E-01 -2.17452E-01
    8987.146     -6.250  -0.160  7.99492E-02  3.07945E-01 -2.27996E-01
    8987.189     -6.207  -0.120  8.15136E-02  3.17834E-01 -2.36320E-01
    8987.219     -6.177  -0.080  8.26534E-02  3.24957E-01 -2.42304E-01
    8987.244     -6.153   0.000  8.35921E-02  3.30680E-01 -2.47088E-01
    8987.299     -6.098   0.120  8.57528E-02  3.43603E-01 -2.57850E-01
    8987.341     -6.055   0.160  8.73700E-02  3.53636E-01 -2.66266E-01
    8987.396     -6.000   0.200  8.94378E-02  3.66431E-01 -2.76993E-01
    8987.463     -5.933   0.240  9.19425E-02  3.81841E-01 -2.89899E-01
    8987.543     -5.854   0.280  9.48943E-02  3.99559E-01 -3.04665E-01
    8987.634     -5.762   0.320  9.82376E-02  4.19097E-01 -3.20859E-01
    8987.738     -5.659   0.360  1.01952E-01  4.39898E-01 -3.37946E-01
    8987.853     -5.543   0.400  1.06054E-01  4.61389E-01 -3.55336E-01
    8987.981     -5.415   0.440  1.10498E-01  4.83011E-01 -3.72514E-01
    8988.122     -5.275   0.480  1.15232E-01  5.04303E-01 -3.89071E-01
    8988.274     -5.122   0.520  1.20204E-01  5.24996E-01 -4.04792E-01
    8988.439     -4.958   0.560  1.25397E-01  5.44986E-01 -4.19589E-01
    8988.615     -4.781   0.600  1.30870E-01  5.64197E-01 -4.33327E-01
    8988.804     -4.592   0.640  1.36856E-01  5.82686E-01 -4.45831E-01
    8989.006     -4.391   0.680  1.43755E-01  6.00547E-01 -4.56792E-01
    8989.219     -4.178   0.720  1.51839E-01  6.17826E-01 -4.65987E-01
    8989.444     -3.952   0.760  1.61285E-01  6.34651E-01 -4.73366E-01
    8989.682     -3.714   0.800  1.71989E-01  6.51078E-01 -4.79089E-01
    8989.932     -3.464   0.840  1.83936E-01  6.67170E-01 -4.83234E-01
    8990.194     -3.202   0.880  1.97426E-01  6.82976E-01 -4.85550E-01
    8990.469     -2.928   0.920  2.12833E-01  6.98527E-01 -4.85694E-01
    8990.755     -2.641   0.960  2.30023E-01  7.13828E-01 -4.83805E-01
    8991.054     -2.343   1.000  2.47535E-01  7.28890E-01 -4.81356E-01
    8991.365     -2.032   1.040  2.62642E-01  7.43715E-01 -4.81073E-01
    8991.688     -1.709   1.080  2.73648E-01  7.58297E-01 -4.84649E-01
    8992.023     -1.373   1.120  2.82084E-01  7.72625E-01 -4.90541E-01
    8992.371     -1.026   1.160  2.91462E-01  7.86663E-01 -4.95201E-01
    8992.730     -0.666   1.200  3.04849E-01  8.00390E-01 -4.95542E-01
    8993.102     -0.294   1.240  3.24270E-01  8.13786E-01 -4.89516E-01
    8993.486      0.090   1.280  3.50494E-01  8.26843E-01 -4.76349E-01
    8993.882      0.486   1.320  3.83595E-01  8.39497E-01 -4.55902E-01
    8994.291      0.894   1.360  4.26285E-01  8.51762E-01 -4.25477E-01
    8994.711      1.315   1.400  4.84426E-01  8.63591E-01 -3.79165E-01
    8995.144      1.748   1.440  5.65034E-01  8.74978E-01 -3.09944E-01
    8995.589      2.193   1.480  6.74525E-01  8.85874E-01 -2.11349E-01
    8996.046      2.650   1.520  8.19019E-01  8.96318E-01 -7.72991E-02
    8996.516      3.119   1.560  9.92228E-01  9.06245E-01  8.59830E-02
    8996.997      3.601   1.600  1.15184E+00  9.15672E-01  2.36170E-01
    8997.491      4.095   1.640  1.24728E+00  9.24577E-01  3.22708E-01
    8997.997      4.601   1.680  1.28331E+00  9.32958E-01  3.50356E-01
    8998.515      5.119   1.720  1.30861E+00  9.40819E-01  3.67794E-01
    8999.046      5.649   1.760  1.36086E+00  9.48162E-01  4.12700E-01
    8999.588      6.192   1.800  1.43488E+00  9.55010E-01  4.79872E-01
    9000.143      6.746   1.840  1.48706E+00  9.61328E-01  5.25735E-01
    9000.710      7.313   1.880  1.49338E+00  9.67163E-01  5.26215E-01
    9001.289      7.893   1.920  1.48541E+00  9.72520E-01  5.12886E-01
    9001.880      8.484   1.960  1.49601E+00  9.77388E-01  5.18624E-01
    9002.484      9.087   2.000  1.51436E+00  9.81815E-01  5.32548E-01
    9003.099      9.703   2.040  1.50307E+00  9.85790E-01  5.17279E-01
    9003.727     10.331   2.080  1.45961E+00  9.89343E-01  4.70271E-01
    9004.367     10.971   2.120  1.40303E+00  9.92507E-01  4.10523E-01
    9005.020     11.623   2.160  1.33589E+00  9.95290E-01  3.40595E-01
    9005.684     12.288   2.200  1.26321E+00  9.97705E-01  2.65510E-01
    9006.361     12.964   2.240  1.19657E+00  9.99803E-01  1.96766E-01
    9007.050     13.653   2.280  1.14306E+00  1.00157E+00  1.41485E-01
    9007.751     14.354   2.320  1.10503E+00  1.00303E+00  1.01997E-01
    9008.464     15.067   2.360  1.08277E+00  1.00424E+00  7.85292E-02
    9009.189     15.793   2.400  1.07503E+00  1.00518E+00  6.98509E-02
    9009.927     16.531   2.440  1.07231E+00  1.00589E+00  6.64145E-02
    9010.677     17.280   2.480  1.06146E+00  1.00637E+00  5.50853E-02
    9011.439     18.042   2.520  1.04250E+00  1.00670E+00  3.58074E-02
    9012.213     18.816   2.560  1.02983E+00  1.00683E+00  2.30010E-02
    9012.999     19.603   2.600  1.03653E+00  1.00680E+00  2.97370E-02
    9013.798     20.401   2.640  1.05355E+00  1.00663E+00  4.69153E-02
    9014.609     21.212   2.680  1.05145E+00  1.00637E+00  4.50846E-02
    9015.432     22.035   2.720  1.02690E+00  1.00599E+00  2.09127E-02
    9016.267     22.870   2.760  9.91994E-01  1.00552E+00 -1.35261E-02
    9017.114     23.718   2.800  9.56751E-01  1.00497E+00 -4.82210E-02
    9017.974     24.577   2.840  9.25307E-01  1.00437E+00 -7.90663E-02
    9018.845     25.449   2.880  8.97937E-01  1.00373E+00 -1.05791E-01
    9019.729     26.333   2.920  8.73739E-01  1.00304E+00 -1.29304E-01
    9020.625     27.229   2.960  8.53044E-01  1.00233E+00 -1.49281E-01
    9021.534     28.137   3.000  8.36168E-01  1.00162E+00 -1.65452E-01
    9022.454     29.058   3.040  8.23126E-01  1.00089E+00 -1.77767E-01
    9023.387     29.990   3.080  8.14264E-01  1.00019E+00 -1.85922E-01
    9024.332     30.935   3.120  8.09544E-01  9.99464E-01 -1.89920E-01
    9025.289     31.892   3.160  8.08790E-01  9.98794E-01 -1.90004E-01
    9026.258     32.862   3.200  8.11561E-01  9.98139E-01 -1.86578E-01
    9027.240     33.843   3.240  8.17563E-01  9.97542E-01 -1.79979E-01
    9028.233     34.837   3.280  8.26374E-01  9.96963E-01 -1.70589E-01
    9029.239     35.843   3.320  8.37866E-01  9.96426E-01 -1.58560E-01
    9030.257     36.861   3.360  8.51923E-01  9.95954E-01 -1.44031E-01
    9031.287     37.891   3.400  8.67889E-01  9.95530E-01 -1.27641E-01
    9032.330     38.933   3.440  8.85000E-01  9.95152E-01 -1.10152E-01
    9033.384     39.988   3.480  9.02674E-01  9.94846E-01 -9.21721E-02
    9034.451     41.055   3.520  9.20492E-01  9.94611E-01 -7.41198E-02
    9035.530     42.134   3.560  9.38251E-01  9.94429E-01 -5.61782E-02
    9036.621     43.225   3.600  9.56117E-01  9.94319E-01 -3.82014E-02
    9037.725     44.328   3.640  9.74278E-01  9.94260E-01 -1.99819E-02
    9038.840     45.444   3.680  9.92834E-01  9.94274E-01 -1.44045E-03
    9039.968     46.571   3.720  1.01159E+00  9.94363E-01  1.72307E-02
    9041.108     47.711   3.760  1.03005E+00  9.94503E-01  3.55501E-02
    9042.260     48.864   3.800  1.04727E+00  9.94715E-01  5.25589E-02
    9043.424     50.028   3.840  1.06202E+00  9.94978E-01  6.70442E-02
    9044.601     51.204   3.880  1.07330E+00  9.95311E-01  7.79939E-02
    9045.790     52.393   3.920  1.08059E+00  9.95693E-01  8.48952E-02
    9046.990     53.594   3.960  1.08404E+00  9.96145E-01  8.78934E-02
    9048.204     54.807   4.000  1.08460E+00  9.96644E-01  8.79543E-02
    9049.429     56.032   4.040  1.08345E+00  9.97189E-01  8.62621E-02
    9050.666     57.270   4.080  1.08150E+00  9.97799E-01  8.37003E-02
    9051.916     58.520   4.120  1.07913E+00  9.98451E-01  8.06766E-02
    9053.178     59.781   4.160  1.07644E+00  9.99123E-01  7.73145E-02
    9054.452     61.056   4.200  1.07338E+00  9.99856E-01  7.35266E-02
    9055.738     62.342   4.240  1.06978E+00  1.00063E+00  6.91581E-02
    9057.037     63.640   4.280  1.06541E+00  1.00141E+00  6.40015E-02
    9058.347     64.951   4.320  1.06004E+00  1.00223E+00  5.78158E-02
    9059.670     66.274   4.360  1.05361E+00  1.00308E+00  5.05347E-02
    9061.005     67.609   4.400  1.04645E+00  1.00393E+00  4.25189E-02
    9062.352     68.956   4.440  1.03927E+00  1.00480E+00  3.44713E-02
    9063.712     70.315   4.480  1.03271E+00  1.00568E+00  2.70240E-02
    9065.083     71.687   4.520  1.02706E+00  1.00655E+00  2.05089E-02
    9066.467     73.071   4.560  1.02236E+00  1.00744E+00  1.49226E-02
    9067.863     74.467   4.600  1.01844E+00  1.00832E+00  1.01188E-02
    9069.271     75.875   4.640  1.01521E+00  1.00918E+00  6.02945E-03
    9070.692     77.295   4.680  1.01272E+00  1.01003E+00  2.69381E-03
    9072.124     78.728   4.720  1.01109E+00  1.01087E+00  2.20949E-04
    9073.569     80.172   4.760  1.01044E+00  1.01169E+00 -1.24547E-03
    9075.026     81.629   4.800  1.01083E+00  1.01248E+00 -1.65889E-03
    9076.495     83.099   4.840  1.01203E+00  1.01325E+00 -1.21809E-03
    9077.976     84.580   4.880  1.01360E+00  1.01398E+00 -3.71761E-04
    9079.470     86.073   4.920  1.01497E+00  1.01468E+00  2.82839E-04
    9080.976     87.579   4.960  1.01556E+00  1.01533E+00  2.33732E-04
    9082.493     89.097   5.000  1.01514E+00  1.01593E+00 -7.95343E-04
    9084.024     90.627   5.040  1.01366E+00  1.01651E+00 -2.85823E-03
    9085.566     92.169   5.080  1.01113E+00  1.01703E+00 -5.89956E-03
    9087.120     93.724   5.120  1.00763E+00  1.01750E+00 -9.86922E-03
    9088.687     95.290   5.160  1.00313E+00  1.01789E+00 -1.47647E-02
    9090.266     96.869   5.200  9.97729E-01  1.01827E+00 -2.05399E-02
    9091.857     98.460   5.240  9.91619E-01  1.01857E+00 -2.69526E-02
    9093.460    100.064   5.280  9.85362E-01  1.01880E+00 -3.34390E-02
    9095.076    101.679   5.320  9.79760E-01  1.01898E+00 -3.92226E-02
    9096.703    103.307   5.360  9.75571E-01  1.01912E+00 -4.35459E-02
    9098.343    104.947   5.400  9.73224E-01  1.01920E+00 -4.59788E-02
    9099.995    106.599   5.440  9.72637E-01  1.01922E+00 -4.65789E-02
    9101.659    108.263   5.480  9.73279E-01  1.01915E+00 -4.58757E-02
    9103.336    109.939   5.520  9.74450E-01  1.01904E+00 -4.45939E-02
    9105.024    111.628   5.560  9.75558E-01  1.01889E+00 -4.33280E-02
    9106.725    113.328   5.600  9.76387E-01  1.01866E+00 -4.22709E-02
    9108.438    115.041   5.640  9.77236E-01  1.01838E+00 -4.11466E-02
    9110.163    116.767   5.680  9.78735E-01  1.01806E+00 -3.93279E-02
    9111.900    118.504   5.720  9.81571E-01  1.01770E+00 -3.61286E-02
    9113.650    120.254   5.760  9.86254E-01  1.01727E+00 -3.10141E-02
    9115.412    122.015   5.800  9.93023E-01  1.01679E+00 -2.37693E-02
    9117.186    123.789   5.840  1.00167E+00  1.01628E+00 -1.46088E-02
    9118.972    125.575   5.880  1.01148E+00  1.01573E+00 -4.24768E-03
    9120.770    127.374   5.920  1.02140E+00  1.01514E+00  6.26404E-03
    9122.581    129.184   5.960  1.03038E+00  1.01452E+00  1.58577E-02
    9124.403    131.007   6.000  1.03769E+00  1.01384E+00  2.38492E-02
