# # comment:                                                     FEFF 9.9.1  
# # Source:
# # Structure
# # Reduced
# # space
# # abc:
# # angles:
# # sites:
# # POT  SCF 100  7.0000   0, screened core-hole, AFOLP (folp(0)= 1.150)
# # Abs   Z=29 Rmt= 1.292 Rnm= 1.361 K  shell
# # Pot 1 Z=81 Rmt= 1.980 Rnm= 2.028
# # Pot 2 Z=29 Rmt= 1.278 Rnm= 1.351
# # Pot 3 Z=15 Rmt= 0.939 Rnm= 1.159
# # Pot 4 Z= 8 Rmt= 0.899 Rnm= 1.051
# # Gam_ch=1.729E+00 H-L exch Vi= 0.000E+00 Vr= 0.000E+00
# # Mu=-6.668E+00eV kf=2.390E+00 Vint=-1.606E+01eV Rs_int= 1.517
# FMS rfms= 9.0000
# # PATH  Rmax=-1.000,  Keep_limit= 0.00, Heap_limit 0.00  Pwcrit= 2.50%
#  S02=0.950  Temp=   0.00  Debye_temp=   0.00  Global_sig2= 0.00000
#  Energy zero shift, vr, vi    0.00000E+00   0.00000E+00
#  Curved wave amplitude ratio filter   4.000%
#     file         sig2 tot  cw amp ratio   deg  nlegs   reff  inp sig2
#     0/   0 paths used
#  xsedge+ 50, used to normalize mu           2.4759E-04
#  -----------------------------------------------------------------------
#  omega    e    k    mu    mu0     chi     @#
    8983.268    -10.477  -1.000  3.75818E-02  5.18377E-02 -1.42558E-02
    8983.567    -10.179  -0.960  3.94886E-02  5.55701E-02 -1.60814E-02
    8983.853     -9.892  -0.920  4.15289E-02  5.97162E-02 -1.81873E-02
    8984.127     -9.618  -0.880  4.37153E-02  6.43371E-02 -2.06218E-02
    8984.389     -9.356  -0.840  4.60619E-02  6.95035E-02 -2.34416E-02
    8984.639     -9.106  -0.800  4.85841E-02  7.52978E-02 -2.67136E-02
    8984.877     -8.868  -0.760  5.12990E-02  8.18142E-02 -3.05152E-02
    8985.103     -8.643  -0.720  5.42244E-02  8.91594E-02 -3.49349E-02
    8985.316     -8.429  -0.680  5.73791E-02  9.74508E-02 -4.00717E-02
    8985.517     -8.228  -0.640  6.07812E-02  1.06812E-01 -4.60313E-02
    8985.706     -8.039  -0.600  6.44466E-02  1.17366E-01 -5.29195E-02
    8985.883     -7.862  -0.560  6.83859E-02  1.29216E-01 -6.08297E-02
    8986.048     -7.698  -0.520  7.26005E-02  1.42423E-01 -6.98224E-02
    8986.200     -7.545  -0.480  7.70767E-02  1.56974E-01 -7.98975E-02
    8986.340     -7.405  -0.440  8.17793E-02  1.72742E-01 -9.09623E-02
    8986.468     -7.277  -0.400  8.66462E-02  1.89451E-01 -1.02804E-01
    8986.584     -7.161  -0.360  9.15859E-02  2.06670E-01 -1.15084E-01
    8986.688     -7.058  -0.320  9.64807E-02  2.23838E-01 -1.27358E-01
    8986.779     -6.966  -0.280  1.01196E-01  2.40334E-01 -1.39138E-01
    8986.858     -6.887  -0.240  1.05593E-01  2.55558E-01 -1.49965E-01
    8986.925     -6.820  -0.200  1.09542E-01  2.69011E-01 -1.59469E-01
    8986.980     -6.765  -0.160  1.12931E-01  2.80326E-01 -1.67395E-01
    8987.023     -6.722  -0.120  1.15668E-01  2.89269E-01 -1.73601E-01
    8987.053     -6.692  -0.080  1.17685E-01  2.95711E-01 -1.78026E-01
    8987.078     -6.668   0.000  1.19363E-01  3.00886E-01 -1.81523E-01
    8987.133     -6.613   0.120  1.23151E-01  3.12560E-01 -1.89410E-01
    8987.175     -6.570   0.160  1.26116E-01  3.21625E-01 -1.95509E-01
    8987.230     -6.515   0.200  1.29977E-01  3.33192E-01 -2.03214E-01
    8987.297     -6.448   0.240  1.34817E-01  3.47121E-01 -2.12303E-01
    8987.377     -6.369   0.280  1.40639E-01  3.63090E-01 -2.22451E-01
    8987.468     -6.277   0.320  1.47550E-01  3.80713E-01 -2.33163E-01
    8987.572     -6.174   0.360  1.55602E-01  3.99481E-01 -2.43879E-01
    8987.687     -6.058   0.400  1.64854E-01  4.18831E-01 -2.53976E-01
    8987.815     -5.930   0.440  1.75381E-01  4.38270E-01 -2.62889E-01
    8987.956     -5.790   0.480  1.87256E-01  4.57419E-01 -2.70163E-01
    8988.108     -5.637   0.520  2.00471E-01  4.76014E-01 -2.75543E-01
    8988.273     -5.473   0.560  2.14958E-01  4.93946E-01 -2.78988E-01
    8988.449     -5.296   0.600  2.30529E-01  5.11183E-01 -2.80654E-01
    8988.638     -5.107   0.640  2.46869E-01  5.27763E-01 -2.80894E-01
    8988.840     -4.906   0.680  2.63562E-01  5.43798E-01 -2.80236E-01
    8989.053     -4.692   0.720  2.79990E-01  5.59371E-01 -2.79380E-01
    8989.278     -4.467   0.760  2.95494E-01  5.74544E-01 -2.79050E-01
    8989.516     -4.229   0.800  3.09564E-01  5.89433E-01 -2.79869E-01
    8989.766     -3.979   0.840  3.22170E-01  6.04079E-01 -2.81909E-01
    8990.028     -3.717   0.880  3.34383E-01  6.18552E-01 -2.84169E-01
    8990.303     -3.443   0.920  3.48321E-01  6.32887E-01 -2.84566E-01
    8990.589     -3.156   0.960  3.66217E-01  6.47110E-01 -2.80893E-01
    8990.888     -2.858   1.000  3.89474E-01  6.61235E-01 -2.71761E-01
    8991.199     -2.547   1.040  4.18455E-01  6.75268E-01 -2.56812E-01
    8991.522     -2.224   1.080  4.52772E-01  6.89207E-01 -2.36434E-01
    8991.857     -1.888   1.120  4.91258E-01  7.03065E-01 -2.11807E-01
    8992.205     -1.541   1.160  5.31955E-01  7.16830E-01 -1.84876E-01
    8992.564     -1.181   1.200  5.73282E-01  7.30445E-01 -1.57164E-01
    8992.936     -0.809   1.240  6.15326E-01  7.43951E-01 -1.28625E-01
    8993.320     -0.425   1.280  6.59219E-01  7.57283E-01 -9.80635E-02
    8993.716     -0.029   1.320  7.07027E-01  7.70436E-01 -6.34096E-02
    8994.125      0.379   1.360  7.59951E-01  7.83366E-01 -2.34145E-02
    8994.545      0.800   1.400  8.15124E-01  7.96084E-01  1.90401E-02
    8994.978      1.233   1.440  8.66623E-01  8.08522E-01  5.81013E-02
    8995.423      1.678   1.480  9.13748E-01  8.20711E-01  9.30371E-02
    8995.880      2.135   1.520  9.62457E-01  8.32565E-01  1.29892E-01
    8996.350      2.604   1.560  1.01490E+00  8.44114E-01  1.70787E-01
    8996.831      3.086   1.600  1.05985E+00  8.55309E-01  2.04539E-01
    8997.325      3.580   1.640  1.08516E+00  8.66144E-01  2.19015E-01
    8997.831      4.086   1.680  1.09554E+00  8.76591E-01  2.18947E-01
    8998.349      4.604   1.720  1.09767E+00  8.86645E-01  2.11029E-01
    8998.880      5.134   1.760  1.09683E+00  8.96301E-01  2.00529E-01
    8999.422      5.677   1.800  1.10056E+00  9.05514E-01  1.95042E-01
    8999.977      6.232   1.840  1.10965E+00  9.14320E-01  1.95335E-01
    9000.544      6.798   1.880  1.11881E+00  9.22678E-01  1.96127E-01
    9001.123      7.378   1.920  1.12510E+00  9.30585E-01  1.94510E-01
    9001.714      7.969   1.960  1.13226E+00  9.38063E-01  1.94196E-01
    9002.318      8.572   2.000  1.14223E+00  9.45091E-01  1.97139E-01
    9002.933      9.188   2.040  1.15373E+00  9.51692E-01  2.02034E-01
    9003.561      9.816   2.080  1.16687E+00  9.57849E-01  2.09024E-01
    9004.201     10.456   2.120  1.17865E+00  9.63585E-01  2.15064E-01
    9004.854     11.108   2.160  1.18266E+00  9.68904E-01  2.13758E-01
    9005.518     11.773   2.200  1.17593E+00  9.73810E-01  2.02117E-01
    9006.195     12.449   2.240  1.16221E+00  9.78307E-01  1.83900E-01
    9006.884     13.138   2.280  1.14951E+00  9.82405E-01  1.67106E-01
    9007.585     13.839   2.320  1.14364E+00  9.86128E-01  1.57512E-01
    9008.298     14.553   2.360  1.14424E+00  9.89505E-01  1.54739E-01
    9009.023     15.278   2.400  1.14575E+00  9.92521E-01  1.53231E-01
    9009.761     16.016   2.440  1.14306E+00  9.95185E-01  1.47873E-01
    9010.511     16.765   2.480  1.13403E+00  9.97546E-01  1.36484E-01
    9011.273     17.527   2.520  1.11707E+00  9.99612E-01  1.17457E-01
    9012.047     18.302   2.560  1.08990E+00  1.00139E+00  8.85130E-02
    9012.833     19.088   2.600  1.05162E+00  1.00289E+00  4.87346E-02
    9013.632     19.887   2.640  1.00661E+00  1.00411E+00  2.49458E-03
    9014.443     20.697   2.680  9.64611E-01  1.00512E+00 -4.05075E-02
    9015.266     21.520   2.720  9.32810E-01  1.00591E+00 -7.30989E-02
    9016.101     22.355   2.760  9.11128E-01  1.00647E+00 -9.53447E-02
    9016.948     23.203   2.800  9.01938E-01  1.00686E+00 -1.04922E-01
    9017.808     24.062   2.840  8.97663E-01  1.00708E+00 -1.09415E-01
    9018.679     24.934   2.880  8.91760E-01  1.00713E+00 -1.15371E-01
    9019.563     25.818   2.920  8.84146E-01  1.00703E+00 -1.22884E-01
    9020.459     26.714   2.960  8.77310E-01  1.00680E+00 -1.29491E-01
    9021.368     27.622   3.000  8.73347E-01  1.00645E+00 -1.33102E-01
    9022.288     28.543   3.040  8.72499E-01  1.00600E+00 -1.33504E-01
    9023.221     29.476   3.080  8.73764E-01  1.00545E+00 -1.31686E-01
    9024.166     30.420   3.120  8.76213E-01  1.00483E+00 -1.28622E-01
    9025.123     31.377   3.160  8.79060E-01  1.00412E+00 -1.25062E-01
    9026.092     32.347   3.200  8.81862E-01  1.00338E+00 -1.21519E-01
    9027.074     33.328   3.240  8.84538E-01  1.00258E+00 -1.18037E-01
    9028.067     34.322   3.280  8.87631E-01  1.00175E+00 -1.14118E-01
    9029.073     35.328   3.320  8.91556E-01  1.00089E+00 -1.09331E-01
    9030.091     36.346   3.360  8.96947E-01  9.99993E-01 -1.03045E-01
    9031.121     37.376   3.400  9.04343E-01  9.99091E-01 -9.47485E-02
    9032.164     38.418   3.440  9.13958E-01  9.98186E-01 -8.42279E-02
    9033.218     39.473   3.480  9.25801E-01  9.97282E-01 -7.14807E-02
    9034.285     40.540   3.520  9.39732E-01  9.96403E-01 -5.66711E-02
    9035.364     41.619   3.560  9.55326E-01  9.95529E-01 -4.02030E-02
    9036.455     42.710   3.600  9.71896E-01  9.94665E-01 -2.27682E-02
    9037.559     43.813   3.640  9.88860E-01  9.93831E-01 -4.97060E-03
    9038.674     44.929   3.680  1.00558E+00  9.93031E-01  1.25448E-02
    9039.802     46.057   3.720  1.02133E+00  9.92247E-01  2.90798E-02
    9040.942     47.197   3.760  1.03546E+00  9.91522E-01  4.39420E-02
    9042.094     48.349   3.800  1.04738E+00  9.90838E-01  5.65459E-02
    9043.258     49.513   3.840  1.05659E+00  9.90193E-01  6.63958E-02
    9044.435     50.690   3.880  1.06287E+00  9.89571E-01  7.32969E-02
    9045.624     51.878   3.920  1.06643E+00  9.89032E-01  7.73951E-02
    9046.824     53.079   3.960  1.06763E+00  9.88516E-01  7.91110E-02
    9048.038     54.292   4.000  1.06699E+00  9.88063E-01  7.89260E-02
    9049.263     55.518   4.040  1.06493E+00  9.87635E-01  7.72938E-02
    9050.500     56.755   4.080  1.06173E+00  9.87294E-01  7.44316E-02
    9051.750     58.005   4.120  1.05733E+00  9.86978E-01  7.03514E-02
    9053.012     59.267   4.160  1.05175E+00  9.86726E-01  6.50207E-02
    9054.286     60.541   4.200  1.04497E+00  9.86519E-01  5.84517E-02
    9055.572     61.827   4.240  1.03705E+00  9.86357E-01  5.06945E-02
    9056.871     63.125   4.280  1.02822E+00  9.86262E-01  4.19632E-02
    9058.181     64.436   4.320  1.01895E+00  9.86209E-01  3.27453E-02
    9059.504     65.759   4.360  1.00994E+00  9.86199E-01  2.37384E-02
    9060.839     67.094   4.400  1.00201E+00  9.86229E-01  1.57817E-02
    9062.186     68.441   4.440  9.95911E-01  9.86300E-01  9.61050E-03
    9063.546     69.800   4.480  9.92017E-01  9.86414E-01  5.60226E-03
    9064.917     71.172   4.520  9.90307E-01  9.86588E-01  3.71922E-03
    9066.301     72.556   4.560  9.90357E-01  9.86778E-01  3.57939E-03
    9067.697     73.952   4.600  9.91614E-01  9.87005E-01  4.60989E-03
    9069.105     75.360   4.640  9.93471E-01  9.87266E-01  6.20494E-03
    9070.526     76.780   4.680  9.95371E-01  9.87540E-01  7.83046E-03
    9071.958     78.213   4.720  9.96881E-01  9.87847E-01  9.03356E-03
    9073.403     79.658   4.760  9.97619E-01  9.88188E-01  9.43082E-03
    9074.860     81.115   4.800  9.97319E-01  9.88559E-01  8.75948E-03
    9076.329     82.584   4.840  9.95803E-01  9.88917E-01  6.88557E-03
    9077.810     84.065   4.880  9.93137E-01  9.89324E-01  3.81299E-03
    9079.304     85.558   4.920  9.89402E-01  9.89713E-01 -3.11122E-04
    9080.810     87.064   4.960  9.84931E-01  9.90125E-01 -5.19407E-03
    9082.327     88.582   5.000  9.80115E-01  9.90517E-01 -1.04027E-02
    9083.858     90.112   5.040  9.75482E-01  9.90933E-01 -1.54504E-02
    9085.400     91.654   5.080  9.71437E-01  9.91348E-01 -1.99110E-02
    9086.954     93.209   5.120  9.68232E-01  9.91759E-01 -2.35269E-02
    9088.521     94.776   5.160  9.65854E-01  9.92144E-01 -2.62899E-02
    9090.100     96.354   5.200  9.64119E-01  9.92523E-01 -2.84043E-02
    9091.691     97.946   5.240  9.62674E-01  9.92898E-01 -3.02239E-02
    9093.294     99.549   5.280  9.61130E-01  9.93264E-01 -3.21343E-02
    9094.910    101.164   5.320  9.59047E-01  9.93599E-01 -3.45522E-02
    9096.537    102.792   5.360  9.56626E-01  9.93901E-01 -3.72752E-02
    9098.177    104.432   5.400  9.54266E-01  9.94193E-01 -3.99269E-02
    9099.829    106.084   5.440  9.52540E-01  9.94473E-01 -4.19326E-02
    9101.493    107.748   5.480  9.52021E-01  9.94696E-01 -4.26742E-02
    9103.170    109.424   5.520  9.53287E-01  9.94905E-01 -4.16177E-02
    9104.858    111.113   5.560  9.56637E-01  9.95078E-01 -3.84407E-02
    9106.559    112.814   5.600  9.62281E-01  9.95236E-01 -3.29552E-02
    9108.272    114.527   5.640  9.69316E-01  9.95335E-01 -2.60192E-02
    9109.997    116.252   5.680  9.77114E-01  9.95416E-01 -1.83016E-02
    9111.734    117.989   5.720  9.84799E-01  9.95435E-01 -1.06357E-02
    9113.484    119.739   5.760  9.91746E-01  9.95439E-01 -3.69310E-03
    9115.246    121.500   5.800  9.97599E-01  9.95406E-01  2.19265E-03
    9117.020    123.274   5.840  1.00233E+00  9.95332E-01  6.99618E-03
    9118.806    125.060   5.880  1.00602E+00  9.95196E-01  1.08191E-02
    9120.604    126.859   5.920  1.00878E+00  9.95045E-01  1.37400E-02
    9122.415    128.669   5.960  1.01054E+00  9.94855E-01  1.56814E-02
    9124.237    130.492   6.000  1.01108E+00  9.94605E-01  1.64761E-02
