# # comment:                                                     FEFF 9.9.1  
# # Source:
# # Structure
# # Reduced
# # space
# # abc:
# # angles:105.090801
# # sites:
# # POT  SCF 100  7.0000   0, screened core-hole, AFOLP (folp(0)= 1.150)
# # Abs   Z=29 Rmt= 1.201 Rnm= 1.280 K  shell
# # Pot 1 Z= 3 Rmt= 1.224 Rnm= 1.276
# # Pot 2 Z=29 Rmt= 1.201 Rnm= 1.280
# # Pot 3 Z=28 Rmt= 1.174 Rnm= 1.286
# # Pot 4 Z= 8 Rmt= 1.038 Rnm= 1.095
# # Gam_ch=1.729E+00 H-L exch Vi= 0.000E+00 Vr= 0.000E+00
# # Mu=-1.017E+01eV kf=2.154E+00 Vint=-1.847E+01eV Rs_int= 1.684
# FMS rfms= 9.0000
# # PATH  Rmax=-1.000,  Keep_limit= 0.00, Heap_limit 0.00  Pwcrit= 2.50%
#  S02=0.950  Temp=   0.00  Debye_temp=   0.00  Global_sig2= 0.00000
#  Energy zero shift, vr, vi    0.00000E+00   0.00000E+00
#  Curved wave amplitude ratio filter   4.000%
#     file         sig2 tot  cw amp ratio   deg  nlegs   reff  inp sig2
#     0/   0 paths used
#  xsedge+ 50, used to normalize mu           2.4800E-04
#  -----------------------------------------------------------------------
#  omega    e    k    mu    mu0     chi     @#
    8984.683    -13.980  -1.000  3.04844E-02  4.98042E-02 -1.93198E-02
    8984.982    -13.681  -0.960  3.17720E-02  5.33158E-02 -2.15438E-02
    8985.268    -13.394  -0.920  3.31363E-02  5.72096E-02 -2.40732E-02
    8985.542    -13.120  -0.880  3.45862E-02  6.15412E-02 -2.69550E-02
    8985.804    -12.858  -0.840  3.61320E-02  6.63754E-02 -3.02434E-02
    8986.054    -12.608  -0.800  3.77864E-02  7.17870E-02 -3.40005E-02
    8986.292    -12.370  -0.760  3.95643E-02  7.78617E-02 -3.82975E-02
    8986.518    -12.145  -0.720  4.14830E-02  8.46966E-02 -4.32136E-02
    8986.731    -11.931  -0.680  4.35626E-02  9.23982E-02 -4.88355E-02
    8986.932    -11.730  -0.640  4.58246E-02  1.01079E-01 -5.52542E-02
    8987.121    -11.541  -0.600  4.82904E-02  1.10849E-01 -6.25582E-02
    8987.298    -11.364  -0.560  5.09781E-02  1.21801E-01 -7.08232E-02
    8987.463    -11.200  -0.520  5.38971E-02  1.33992E-01 -8.00952E-02
    8987.615    -11.047  -0.480  5.70401E-02  1.47408E-01 -9.03677E-02
    8987.755    -10.907  -0.440  6.03747E-02  1.61930E-01 -1.01556E-01
    8987.883    -10.779  -0.400  6.38363E-02  1.77309E-01 -1.13473E-01
    8987.999    -10.663  -0.360  6.73272E-02  1.93150E-01 -1.25823E-01
    8988.103    -10.560  -0.320  7.07253E-02  2.08942E-01 -1.38217E-01
    8988.194    -10.468  -0.280  7.39030E-02  2.24116E-01 -1.50213E-01
    8988.273    -10.389  -0.240  7.67491E-02  2.38125E-01 -1.61376E-01
    8988.340    -10.322  -0.200  7.91853E-02  2.50509E-01 -1.71324E-01
    8988.395    -10.267  -0.160  8.11719E-02  2.60932E-01 -1.79760E-01
    8988.438    -10.225  -0.120  8.27012E-02  2.69175E-01 -1.86473E-01
    8988.468    -10.194  -0.080  8.37837E-02  2.75116E-01 -1.91332E-01
    8988.493    -10.170   0.000  8.46519E-02  2.79892E-01 -1.95240E-01
    8988.548    -10.115   0.120  8.64765E-02  2.90667E-01 -2.04191E-01
    8988.590    -10.072   0.160  8.78152E-02  2.99042E-01 -2.11227E-01
    8988.645    -10.017   0.200  8.93873E-02  3.09734E-01 -2.20347E-01
    8988.712     -9.950   0.240  9.11363E-02  3.22629E-01 -2.31493E-01
    8988.792     -9.871   0.280  9.29197E-02  3.37481E-01 -2.44561E-01
    8988.883     -9.780   0.320  9.45394E-02  3.53891E-01 -2.59351E-01
    8988.987     -9.676   0.360  9.59101E-02  3.71427E-01 -2.75517E-01
    8989.102     -9.560   0.400  9.69325E-02  3.89610E-01 -2.92677E-01
    8989.230     -9.432   0.440  9.76458E-02  4.07963E-01 -3.10317E-01
    8989.371     -9.292   0.480  9.82148E-02  4.26186E-01 -3.27972E-01
    8989.523     -9.139   0.520  9.88794E-02  4.44045E-01 -3.45165E-01
    8989.688     -8.975   0.560  9.98432E-02  4.61400E-01 -3.61557E-01
    8989.864     -8.798   0.600  1.01405E-01  4.78264E-01 -3.76858E-01
    8990.053     -8.609   0.640  1.03726E-01  4.94686E-01 -3.90961E-01
    8990.255     -8.408   0.680  1.06944E-01  5.10687E-01 -4.03743E-01
    8990.468     -8.195   0.720  1.11247E-01  5.26396E-01 -4.15149E-01
    8990.693     -7.969   0.760  1.16829E-01  5.41865E-01 -4.25035E-01
    8990.931     -7.731   0.800  1.23966E-01  5.57154E-01 -4.33188E-01
    8991.181     -7.481   0.840  1.33132E-01  5.72335E-01 -4.39203E-01
    8991.443     -7.219   0.880  1.44990E-01  5.87445E-01 -4.42455E-01
    8991.718     -6.945   0.920  1.60591E-01  6.02510E-01 -4.41919E-01
    8992.004     -6.658   0.960  1.81553E-01  6.17527E-01 -4.35974E-01
    8992.303     -6.360   1.000  2.10311E-01  6.32543E-01 -4.22232E-01
    8992.614     -6.049   1.040  2.50090E-01  6.47535E-01 -3.97445E-01
    8992.937     -5.726   1.080  3.04208E-01  6.62476E-01 -3.58268E-01
    8993.272     -5.390   1.120  3.73233E-01  6.77394E-01 -3.04161E-01
    8993.620     -5.043   1.160  4.48036E-01  6.92228E-01 -2.44191E-01
    8993.979     -4.683   1.200  5.09438E-01  7.06976E-01 -1.97539E-01
    8994.351     -4.311   1.240  5.49275E-01  7.21613E-01 -1.72338E-01
    8994.735     -3.927   1.280  5.78391E-01  7.36092E-01 -1.57701E-01
    8995.131     -3.531   1.320  6.08353E-01  7.50405E-01 -1.42052E-01
    8995.540     -3.123   1.360  6.40850E-01  7.64521E-01 -1.23671E-01
    8995.960     -2.702   1.400  6.64704E-01  7.78387E-01 -1.13683E-01
    8996.393     -2.269   1.440  6.66151E-01  7.91971E-01 -1.25820E-01
    8996.838     -1.824   1.480  6.51474E-01  8.05283E-01 -1.53809E-01
    8997.295     -1.367   1.520  6.43725E-01  8.18251E-01 -1.74525E-01
    8997.765     -0.898   1.560  6.55157E-01  8.30884E-01 -1.75728E-01
    8998.246     -0.416   1.600  6.82758E-01  8.43133E-01 -1.60375E-01
    8998.740      0.078   1.640  7.25393E-01  8.54965E-01 -1.29572E-01
    8999.246      0.584   1.680  7.84518E-01  8.66392E-01 -8.18737E-02
    8999.764      1.102   1.720  8.56630E-01  8.77388E-01 -2.07578E-02
    9000.295      1.632   1.760  9.41863E-01  8.87928E-01  5.39350E-02
    9000.837      2.175   1.800  1.04754E+00  8.97982E-01  1.49553E-01
    9001.392      2.729   1.840  1.17126E+00  9.07590E-01  2.63667E-01
    9001.959      3.296   1.880  1.29701E+00  9.16708E-01  3.80301E-01
    9002.538      3.875   1.920  1.40451E+00  9.25333E-01  4.79181E-01
    9003.129      4.467   1.960  1.48037E+00  9.33466E-01  5.46908E-01
    9003.733      5.070   2.000  1.52298E+00  9.41108E-01  5.81868E-01
    9004.348      5.686   2.040  1.53744E+00  9.48281E-01  5.89155E-01
    9004.976      6.314   2.080  1.53227E+00  9.54966E-01  5.77303E-01
    9005.616      6.954   2.120  1.50984E+00  9.61169E-01  5.48674E-01
    9006.269      7.606   2.160  1.45855E+00  9.66915E-01  4.91632E-01
    9006.933      8.271   2.200  1.36771E+00  9.72210E-01  3.95498E-01
    9007.610      8.947   2.240  1.24701E+00  9.77079E-01  2.69928E-01
    9008.299      9.636   2.280  1.12439E+00  9.81510E-01  1.42876E-01
    9009.000     10.337   2.320  1.02310E+00  9.85509E-01  3.75921E-02
    9009.713     11.050   2.360  9.48318E-01  9.89146E-01 -4.08278E-02
    9010.438     11.776   2.400  8.93867E-01  9.92367E-01 -9.85004E-02
    9011.176     12.513   2.440  8.54460E-01  9.95244E-01 -1.40783E-01
    9011.926     13.263   2.480  8.28348E-01  9.97784E-01 -1.69437E-01
    9012.688     14.025   2.520  8.17236E-01  9.99977E-01 -1.82741E-01
    9013.462     14.799   2.560  8.28427E-01  1.00187E+00 -1.73444E-01
    9014.248     15.586   2.600  8.61992E-01  1.00348E+00 -1.41484E-01
    9015.047     16.384   2.640  9.01717E-01  1.00480E+00 -1.03082E-01
    9015.858     17.195   2.680  9.41163E-01  1.00585E+00 -6.46882E-02
    9016.681     18.018   2.720  9.75792E-01  1.00668E+00 -3.08907E-02
    9017.516     18.853   2.760  1.00390E+00  1.00730E+00 -3.39604E-03
    9018.363     19.701   2.800  1.02538E+00  1.00770E+00  1.76842E-02
    9019.223     20.560   2.840  1.04065E+00  1.00791E+00  3.27319E-02
    9020.094     21.432   2.880  1.05095E+00  1.00796E+00  4.29863E-02
    9020.978     22.316   2.920  1.05720E+00  1.00785E+00  4.93454E-02
    9021.874     23.212   2.960  1.05919E+00  1.00761E+00  5.15792E-02
    9022.783     24.120   3.000  1.05603E+00  1.00723E+00  4.88042E-02
    9023.703     25.041   3.040  1.04677E+00  1.00674E+00  4.00245E-02
    9024.636     25.973   3.080  1.03067E+00  1.00615E+00  2.45248E-02
    9025.581     26.918   3.120  1.00833E+00  1.00549E+00  2.84193E-03
    9026.538     27.875   3.160  9.81302E-01  1.00473E+00 -2.34318E-02
    9027.507     28.845   3.200  9.52189E-01  1.00395E+00 -5.17573E-02
    9028.489     29.826   3.240  9.24327E-01  1.00309E+00 -7.87638E-02
    9029.482     30.820   3.280  9.00632E-01  1.00219E+00 -1.01560E-01
    9030.488     31.825   3.320  8.82905E-01  1.00126E+00 -1.18350E-01
    9031.506     32.844   3.360  8.71900E-01  1.00029E+00 -1.28386E-01
    9032.536     33.874   3.400  8.67609E-01  9.99329E-01 -1.31720E-01
    9033.579     34.916   3.440  8.68678E-01  9.98347E-01 -1.29669E-01
    9034.633     35.971   3.480  8.73649E-01  9.97366E-01 -1.23716E-01
    9035.700     37.038   3.520  8.81107E-01  9.96407E-01 -1.15300E-01
    9036.779     38.117   3.560  8.89938E-01  9.95454E-01 -1.05516E-01
    9037.870     39.208   3.600  8.99549E-01  9.94508E-01 -9.49596E-02
    9038.974     40.311   3.640  9.09715E-01  9.93595E-01 -8.38797E-02
    9040.089     41.427   3.680  9.20273E-01  9.92716E-01 -7.24425E-02
    9041.217     42.554   3.720  9.31050E-01  9.91872E-01 -6.08211E-02
    9042.357     43.694   3.760  9.41974E-01  9.91044E-01 -4.90700E-02
    9043.509     44.846   3.800  9.53053E-01  9.90275E-01 -3.72218E-02
    9044.673     46.011   3.840  9.64164E-01  9.89526E-01 -2.53625E-02
    9045.850     47.187   3.880  9.75393E-01  9.88840E-01 -1.34474E-02
    9047.039     48.376   3.920  9.86926E-01  9.88197E-01 -1.27078E-03
    9048.239     49.577   3.960  9.98961E-01  9.87598E-01  1.13629E-02
    9049.453     50.790   4.000  1.01155E+00  9.87064E-01  2.44895E-02
    9050.678     52.015   4.040  1.02446E+00  9.86575E-01  3.78830E-02
    9051.915     53.253   4.080  1.03708E+00  9.86129E-01  5.09486E-02
    9053.165     54.503   4.120  1.04843E+00  9.85726E-01  6.27078E-02
    9054.427     55.764   4.160  1.05743E+00  9.85366E-01  7.20650E-02
    9055.701     57.038   4.200  1.06309E+00  9.85075E-01  7.80104E-02
    9056.987     58.325   4.240  1.06475E+00  9.84829E-01  7.99201E-02
    9058.286     59.623   4.280  1.06255E+00  9.84648E-01  7.78974E-02
    9059.596     60.934   4.320  1.05735E+00  9.84511E-01  7.28429E-02
    9060.919     62.257   4.360  1.05041E+00  9.84394E-01  6.60159E-02
    9062.254     63.592   4.400  1.04281E+00  9.84341E-01  5.84685E-02
    9063.601     64.939   4.440  1.03523E+00  9.84331E-01  5.08950E-02
    9064.961     66.298   4.480  1.02798E+00  9.84383E-01  4.35920E-02
    9066.332     67.670   4.520  1.02117E+00  9.84453E-01  3.67211E-02
    9067.716     69.054   4.560  1.01501E+00  9.84561E-01  3.04458E-02
    9069.112     70.450   4.600  1.00962E+00  9.84707E-01  2.49136E-02
    9070.520     71.858   4.640  1.00511E+00  9.84890E-01  2.02195E-02
    9071.941     73.278   4.680  1.00150E+00  9.85109E-01  1.63959E-02
    9073.373     74.711   4.720  9.98812E-01  9.85342E-01  1.34706E-02
    9074.818     76.155   4.760  9.97149E-01  9.85629E-01  1.15202E-02
    9076.275     77.612   4.800  9.96615E-01  9.85905E-01  1.07100E-02
    9077.744     79.081   4.840  9.97458E-01  9.86231E-01  1.12262E-02
    9079.225     80.563   4.880  9.99684E-01  9.86546E-01  1.31382E-02
    9080.719     82.056   4.920  1.00318E+00  9.86909E-01  1.62682E-02
    9082.225     83.562   4.960  1.00740E+00  9.87256E-01  2.01394E-02
    9083.742     85.080   5.000  1.01176E+00  9.87626E-01  2.41295E-02
    9085.273     86.610   5.040  1.01560E+00  9.87977E-01  2.76230E-02
    9086.815     88.152   5.080  1.01837E+00  9.88351E-01  3.00230E-02
    9088.369     89.707   5.120  1.01950E+00  9.88726E-01  3.07756E-02
    9089.936     91.273   5.160  1.01855E+00  9.89101E-01  2.94478E-02
    9091.515     92.852   5.200  1.01544E+00  9.89474E-01  2.59704E-02
    9093.106     94.443   5.240  1.01053E+00  9.89841E-01  2.06850E-02
    9094.709     96.047   5.280  1.00421E+00  9.90182E-01  1.40260E-02
    9096.325     97.662   5.320  9.96695E-01  9.90515E-01  6.18011E-03
    9097.952     99.290   5.360  9.87946E-01  9.90842E-01 -2.89539E-03
    9099.592    100.929   5.400  9.77963E-01  9.91138E-01 -1.31744E-02
    9101.244    102.581   5.440  9.67121E-01  9.91423E-01 -2.43020E-02
    9102.908    104.246   5.480  9.56044E-01  9.91675E-01 -3.56308E-02
    9104.585    105.922   5.520  9.45494E-01  9.91894E-01 -4.64003E-02
    9106.273    107.611   5.560  9.36150E-01  9.92102E-01 -5.59528E-02
    9107.974    109.311   5.600  9.28494E-01  9.92300E-01 -6.38062E-02
    9109.687    111.024   5.640  9.22838E-01  9.92439E-01 -6.96017E-02
    9111.412    112.750   5.680  9.19564E-01  9.92565E-01 -7.30009E-02
    9113.149    114.487   5.720  9.18871E-01  9.92655E-01 -7.37839E-02
    9114.899    116.236   5.760  9.20744E-01  9.92732E-01 -7.19881E-02
    9116.661    117.998   5.800  9.24773E-01  9.92749E-01 -6.79766E-02
    9118.435    119.772   5.840  9.30384E-01  9.92754E-01 -6.23699E-02
    9120.221    121.558   5.880  9.36800E-01  9.92722E-01 -5.59222E-02
    9122.019    123.357   5.920  9.43235E-01  9.92651E-01 -4.94156E-02
    9123.830    125.167   5.960  9.49102E-01  9.92541E-01 -4.34382E-02
    9125.652    126.990   6.000  9.54537E-01  9.92372E-01 -3.78352E-02
