# # comment:                                                     FEFF 9.9.1  
# # Source:
# # Structure
# # Reduced
# # space
# # abc:
# # angles:102.097937
# # sites:
# # POT  SCF 100  7.0000   0, screened core-hole, AFOLP (folp(0)= 1.150)
# # Abs   Z=29 Rmt= 1.259 Rnm= 1.352 K  shell
# # Pot 1 Z=29 Rmt= 1.259 Rnm= 1.352
# # Pot 2 Z=15 Rmt= 0.914 Rnm= 1.156
# # Pot 3 Z= 1 Rmt= 0.646 Rnm= 0.790
# # Pot 4 Z= 8 Rmt= 1.010 Rnm= 1.108
# # Gam_ch=1.729E+00 H-L exch Vi= 0.000E+00 Vr= 0.000E+00
# # Mu=-6.897E+00eV kf=2.279E+00 Vint=-1.569E+01eV Rs_int= 1.592
# FMS rfms= 9.0000
# # PATH  Rmax=-1.000,  Keep_limit= 0.00, Heap_limit 0.00  Pwcrit= 2.50%
#  S02=0.950  Temp=   0.00  Debye_temp=   0.00  Global_sig2= 0.00000
#  Energy zero shift, vr, vi    0.00000E+00   0.00000E+00
#  Curved wave amplitude ratio filter   4.000%
#     file         sig2 tot  cw amp ratio   deg  nlegs   reff  inp sig2
#     0/   0 paths used
#  xsedge+ 50, used to normalize mu           2.4680E-04
#  -----------------------------------------------------------------------
#  omega    e    k    mu    mu0     chi     @#
    8983.347    -10.707  -1.000  3.64630E-02  5.21481E-02 -1.56850E-02
    8983.645    -10.408  -0.960  3.82301E-02  5.58956E-02 -1.76655E-02
    8983.932    -10.122  -0.920  4.01085E-02  6.00570E-02 -1.99484E-02
    8984.206     -9.847  -0.880  4.21072E-02  6.46929E-02 -2.25856E-02
    8984.468     -9.585  -0.840  4.42360E-02  6.98739E-02 -2.56379E-02
    8984.718     -9.335  -0.800  4.65056E-02  7.56821E-02 -2.91764E-02
    8984.956     -9.097  -0.760  4.89277E-02  8.22111E-02 -3.32834E-02
    8985.182     -8.872  -0.720  5.15147E-02  8.95671E-02 -3.80524E-02
    8985.395     -8.659  -0.680  5.42795E-02  9.78668E-02 -4.35874E-02
    8985.596     -8.457  -0.640  5.72342E-02  1.07233E-01 -4.99992E-02
    8985.785     -8.268  -0.600  6.03894E-02  1.17788E-01 -5.73986E-02
    8985.962     -8.092  -0.560  6.37508E-02  1.29633E-01 -6.58827E-02
    8986.127     -7.927  -0.520  6.73156E-02  1.42831E-01 -7.55154E-02
    8986.279     -7.775  -0.480  7.10677E-02  1.57367E-01 -8.62990E-02
    8986.419     -7.634  -0.440  7.49708E-02  1.73113E-01 -9.81419E-02
    8986.547     -7.506  -0.400  7.89650E-02  1.89796E-01 -1.10831E-01
    8986.663     -7.391  -0.360  8.29652E-02  2.06986E-01 -1.24021E-01
    8986.767     -7.287  -0.320  8.68672E-02  2.24126E-01 -1.37259E-01
    8986.858     -7.196  -0.280  9.05597E-02  2.40595E-01 -1.50036E-01
    8986.937     -7.116  -0.240  9.39377E-02  2.55797E-01 -1.61860E-01
    8987.004     -7.049  -0.200  9.69140E-02  2.69233E-01 -1.72319E-01
    8987.059     -6.994  -0.160  9.94226E-02  2.80536E-01 -1.81113E-01
    8987.102     -6.952  -0.120  1.01417E-01  2.89472E-01 -1.88054E-01
    8987.132     -6.921  -0.080  1.02867E-01  2.95909E-01 -1.93042E-01
    8987.157     -6.897   0.000  1.04052E-01  3.01082E-01 -1.97030E-01
    8987.212     -6.842   0.120  1.06791E-01  3.12760E-01 -2.05970E-01
    8987.254     -6.799   0.160  1.08865E-01  3.21813E-01 -2.12948E-01
    8987.309     -6.744   0.200  1.11560E-01  3.33393E-01 -2.21833E-01
    8987.376     -6.677   0.240  1.14867E-01  3.47345E-01 -2.32478E-01
    8987.455     -6.598   0.280  1.18748E-01  3.63355E-01 -2.44606E-01
    8987.547     -6.507   0.320  1.23262E-01  3.81041E-01 -2.57779E-01
    8987.651     -6.403   0.360  1.28404E-01  3.99883E-01 -2.71479E-01
    8987.766     -6.287   0.400  1.34269E-01  4.19368E-01 -2.85100E-01
    8987.894     -6.159   0.440  1.40906E-01  4.38970E-01 -2.98063E-01
    8988.035     -6.019   0.480  1.48544E-01  4.58334E-01 -3.09790E-01
    8988.187     -5.867   0.520  1.57362E-01  4.77199E-01 -3.19837E-01
    8988.352     -5.702   0.560  1.67683E-01  4.95458E-01 -3.27775E-01
    8988.528     -5.525   0.600  1.79744E-01  5.13057E-01 -3.33313E-01
    8988.717     -5.336   0.640  1.93842E-01  5.30073E-01 -3.36231E-01
    8988.918     -5.135   0.680  2.10307E-01  5.46554E-01 -3.36247E-01
    8989.132     -4.922   0.720  2.29765E-01  5.62620E-01 -3.32855E-01
    8989.357     -4.696   0.760  2.53239E-01  5.78330E-01 -3.25091E-01
    8989.595     -4.458   0.800  2.82206E-01  5.93755E-01 -3.11549E-01
    8989.845     -4.208   0.840  3.18352E-01  6.08973E-01 -2.90621E-01
    8990.107     -3.946   0.880  3.62992E-01  6.24010E-01 -2.61018E-01
    8990.382     -3.672   0.920  4.16378E-01  6.38939E-01 -2.22560E-01
    8990.668     -3.386   0.960  4.75662E-01  6.53739E-01 -1.78076E-01
    8990.967     -3.087   1.000  5.32241E-01  6.68443E-01 -1.36202E-01
    8991.278     -2.776   1.040  5.73315E-01  6.83054E-01 -1.09739E-01
    8991.601     -2.453   1.080  5.93440E-01  6.97546E-01 -1.04106E-01
    8991.936     -2.118   1.120  6.01479E-01  7.11949E-01 -1.10470E-01
    8992.283     -1.770   1.160  6.09517E-01  7.26207E-01 -1.16690E-01
    8992.643     -1.410   1.200  6.20743E-01  7.40300E-01 -1.19557E-01
    8993.015     -1.039   1.240  6.32707E-01  7.54226E-01 -1.21519E-01
    8993.399     -0.655   1.280  6.45933E-01  7.67961E-01 -1.22028E-01
    8993.795     -0.258   1.320  6.60752E-01  7.81457E-01 -1.20705E-01
    8994.204      0.150   1.360  6.73957E-01  7.94706E-01 -1.20748E-01
    8994.624      0.571   1.400  6.86839E-01  8.07658E-01 -1.20819E-01
    8995.057      1.004   1.440  7.03256E-01  8.20325E-01 -1.17069E-01
    8995.502      1.449   1.480  7.22734E-01  8.32638E-01 -1.09904E-01
    8995.959      1.906   1.520  7.44947E-01  8.44608E-01 -9.96606E-02
    8996.429      2.375   1.560  7.71749E-01  8.56185E-01 -8.44353E-02
    8996.910      2.857   1.600  8.06959E-01  8.67361E-01 -6.04030E-02
    8997.404      3.351   1.640  8.55850E-01  8.78132E-01 -2.22826E-02
    8997.910      3.856   1.680  9.20499E-01  8.88469E-01  3.20298E-02
    8998.428      4.375   1.720  9.97720E-01  8.98347E-01  9.93729E-02
    8998.959      4.905   1.760  1.07991E+00  9.07783E-01  1.72124E-01
    8999.501      5.448   1.800  1.15076E+00  9.16754E-01  2.34010E-01
    9000.056      6.002   1.840  1.19853E+00  9.25236E-01  2.73294E-01
    9000.623      6.569   1.880  1.22999E+00  9.33273E-01  2.96719E-01
    9001.202      7.148   1.920  1.25877E+00  9.40822E-01  3.17947E-01
    9001.793      7.740   1.960  1.28635E+00  9.47885E-01  3.38465E-01
    9002.397      8.343   2.000  1.30510E+00  9.54507E-01  3.50590E-01
    9003.012      8.959   2.040  1.31246E+00  9.60648E-01  3.51810E-01
    9003.640      9.587   2.080  1.30919E+00  9.66357E-01  3.42831E-01
    9004.280     10.227   2.120  1.29268E+00  9.71617E-01  3.21066E-01
    9004.933     10.879   2.160  1.26062E+00  9.76433E-01  2.84187E-01
    9005.597     11.544   2.200  1.21869E+00  9.80854E-01  2.37833E-01
    9006.274     12.220   2.240  1.17968E+00  9.84846E-01  1.94833E-01
    9006.963     12.909   2.280  1.14999E+00  9.88458E-01  1.61535E-01
    9007.664     13.610   2.320  1.12815E+00  9.91697E-01  1.36455E-01
    9008.377     14.323   2.360  1.11179E+00  9.94593E-01  1.17200E-01
    9009.102     15.049   2.400  1.09708E+00  9.97133E-01  9.99437E-02
    9009.840     15.786   2.440  1.08045E+00  9.99347E-01  8.11057E-02
    9010.590     16.536   2.480  1.06063E+00  1.00127E+00  5.93641E-02
    9011.352     17.298   2.520  1.04105E+00  1.00290E+00  3.81504E-02
    9012.126     18.072   2.560  1.02368E+00  1.00427E+00  1.94104E-02
    9012.912     18.859   2.600  1.00505E+00  1.00537E+00 -3.22353E-04
    9013.711     19.657   2.640  9.84174E-01  1.00625E+00 -2.20800E-02
    9014.522     20.468   2.680  9.66372E-01  1.00690E+00 -4.05325E-02
    9015.345     21.291   2.720  9.53587E-01  1.00737E+00 -5.37865E-02
    9016.180     22.126   2.760  9.42228E-01  1.00765E+00 -6.54197E-02
    9017.027     22.973   2.800  9.31384E-01  1.00778E+00 -7.63935E-02
    9017.887     23.833   2.840  9.21416E-01  1.00773E+00 -8.63114E-02
    9018.758     24.705   2.880  9.12602E-01  1.00755E+00 -9.49448E-02
    9019.642     25.589   2.920  9.05035E-01  1.00726E+00 -1.02230E-01
    9020.538     26.485   2.960  8.98957E-01  1.00687E+00 -1.07911E-01
    9021.447     27.393   3.000  8.94256E-01  1.00636E+00 -1.12103E-01
    9022.367     28.314   3.040  8.90971E-01  1.00579E+00 -1.14819E-01
    9023.300     29.246   3.080  8.89150E-01  1.00514E+00 -1.15994E-01
    9024.245     30.191   3.120  8.88692E-01  1.00445E+00 -1.15756E-01
    9025.202     31.148   3.160  8.89360E-01  1.00369E+00 -1.14325E-01
    9026.171     32.117   3.200  8.91127E-01  1.00290E+00 -1.11776E-01
    9027.152     33.099   3.240  8.93990E-01  1.00209E+00 -1.08096E-01
    9028.146     34.093   3.280  8.97674E-01  1.00124E+00 -1.03562E-01
    9029.152     35.098   3.320  9.02147E-01  1.00040E+00 -9.82544E-02
    9030.170     36.116   3.360  9.07294E-01  9.99545E-01 -9.22515E-02
    9031.200     37.147   3.400  9.13226E-01  9.98708E-01 -8.54825E-02
    9032.243     38.189   3.440  9.20078E-01  9.97855E-01 -7.77773E-02
    9033.297     39.244   3.480  9.28117E-01  9.97050E-01 -6.89321E-02
    9034.364     40.310   3.520  9.37366E-01  9.96234E-01 -5.88673E-02
    9035.443     41.389   3.560  9.47703E-01  9.95471E-01 -4.77683E-02
    9036.534     42.481   3.600  9.58945E-01  9.94723E-01 -3.57772E-02
    9037.638     43.584   3.640  9.70932E-01  9.94012E-01 -2.30797E-02
    9038.753     44.700   3.680  9.83469E-01  9.93361E-01 -9.89202E-03
    9039.881     45.827   3.720  9.96242E-01  9.92727E-01  3.51423E-03
    9041.021     46.967   3.760  1.00886E+00  9.92135E-01  1.67259E-02
    9042.173     48.119   3.800  1.02068E+00  9.91606E-01  2.90768E-02
    9043.337     49.284   3.840  1.03087E+00  9.91099E-01  3.97690E-02
    9044.514     50.460   3.880  1.03888E+00  9.90658E-01  4.82211E-02
    9045.702     51.649   3.920  1.04449E+00  9.90282E-01  5.42088E-02
    9046.903     52.850   3.960  1.04779E+00  9.89929E-01  5.78563E-02
    9048.116     54.063   4.000  1.04929E+00  9.89642E-01  5.96477E-02
    9049.342     55.288   4.040  1.04951E+00  9.89400E-01  6.01055E-02
    9050.579     56.526   4.080  1.04887E+00  9.89202E-01  5.96653E-02
    9051.829     57.775   4.120  1.04773E+00  9.89069E-01  5.86566E-02
    9053.091     59.037   4.160  1.04625E+00  9.88981E-01  5.72641E-02
    9054.365     60.311   4.200  1.04444E+00  9.88936E-01  5.55030E-02
    9055.651     61.598   4.240  1.04216E+00  9.88932E-01  5.32250E-02
    9056.950     62.896   4.280  1.03929E+00  9.88971E-01  5.03183E-02
    9058.260     64.207   4.320  1.03588E+00  9.89073E-01  4.68041E-02
    9059.583     65.529   4.360  1.03216E+00  9.89194E-01  4.29695E-02
    9060.918     66.864   4.400  1.02871E+00  9.89376E-01  3.93376E-02
    9062.265     68.212   4.440  1.02604E+00  9.89573E-01  3.64646E-02
    9063.625     69.571   4.480  1.02445E+00  9.89809E-01  3.46400E-02
    9064.996     70.943   4.520  1.02386E+00  9.90102E-01  3.37572E-02
    9066.380     72.326   4.560  1.02380E+00  9.90387E-01  3.34178E-02
    9067.776     73.722   4.600  1.02375E+00  9.90726E-01  3.30222E-02
    9069.184     75.131   4.640  1.02306E+00  9.91077E-01  3.19841E-02
    9070.605     76.551   4.680  1.02133E+00  9.91459E-01  2.98656E-02
    9072.037     77.984   4.720  1.01830E+00  9.91848E-01  2.64496E-02
    9073.482     79.428   4.760  1.01404E+00  9.92243E-01  2.17970E-02
    9074.939     80.885   4.800  1.00884E+00  9.92665E-01  1.61758E-02
    9076.408     82.354   4.840  1.00299E+00  9.93092E-01  9.90026E-03
    9077.889     83.836   4.880  9.96786E-01  9.93542E-01  3.24336E-03
    9079.383     85.329   4.920  9.90403E-01  9.93971E-01 -3.56841E-03
    9080.888     86.835   4.960  9.84084E-01  9.94401E-01 -1.03165E-02
    9082.406     88.353   5.000  9.78076E-01  9.94850E-01 -1.67742E-02
    9083.936     89.883   5.040  9.72486E-01  9.95274E-01 -2.27879E-02
    9085.479     91.425   5.080  9.67526E-01  9.95690E-01 -2.81644E-02
    9087.033     92.980   5.120  9.63482E-01  9.96078E-01 -3.25960E-02
    9088.600     94.546   5.160  9.60724E-01  9.96460E-01 -3.57355E-02
    9090.179     96.125   5.200  9.59408E-01  9.96835E-01 -3.74269E-02
    9091.770     97.716   5.240  9.59301E-01  9.97199E-01 -3.78986E-02
    9093.373     99.319   5.280  9.59867E-01  9.97511E-01 -3.76439E-02
    9094.988    100.935   5.320  9.60572E-01  9.97832E-01 -3.72595E-02
    9096.616    102.563   5.360  9.60873E-01  9.98096E-01 -3.72236E-02
    9098.256    104.202   5.400  9.60582E-01  9.98347E-01 -3.77645E-02
    9099.908    105.854   5.440  9.59815E-01  9.98562E-01 -3.87471E-02
    9101.572    107.519   5.480  9.58998E-01  9.98763E-01 -3.97651E-02
    9103.248    109.195   5.520  9.58629E-01  9.98905E-01 -4.02768E-02
    9104.937    110.884   5.560  9.59276E-01  9.99032E-01 -3.97553E-02
    9106.638    112.584   5.600  9.61350E-01  9.99120E-01 -3.77695E-02
    9108.351    114.297   5.640  9.65061E-01  9.99168E-01 -3.41071E-02
    9110.076    116.022   5.680  9.70307E-01  9.99177E-01 -2.88703E-02
    9111.813    117.760   5.720  9.76640E-01  9.99147E-01 -2.25069E-02
    9113.563    119.509   5.760  9.83366E-01  9.99077E-01 -1.57113E-02
    9115.325    121.271   5.800  9.89723E-01  9.98970E-01 -9.24624E-03
    9117.099    123.045   5.840  9.95087E-01  9.98848E-01 -3.76053E-03
    9118.885    124.831   5.880  9.98999E-01  9.98665E-01  3.33851E-04
    9120.683    126.629   5.920  1.00138E+00  9.98445E-01  2.93587E-03
    9122.493    128.440   5.960  1.00245E+00  9.98212E-01  4.23315E-03
    9124.316    130.263   6.000  1.00258E+00  9.97922E-01  4.65812E-03
