# # comment:                                                     FEFF 9.9.1  
# # Source:
# # Structure
# # Reduced
# # space
# # abc:
# # angles:150.247551
# # sites:
# # POT  SCF 100  7.0000   0, screened core-hole, AFOLP (folp(0)= 1.150)
# # Abs   Z=29 Rmt= 1.273 Rnm= 1.410 K  shell
# # Pot 1 Z=29 Rmt= 1.273 Rnm= 1.410
# # Pot 2 Z=82 Rmt= 1.628 Rnm= 1.731
# # Pot 3 Z= 8 Rmt= 1.076 Rnm= 1.144
# # Pot 4 Z= 9 Rmt= 1.049 Rnm= 1.162
# # Gam_ch=1.729E+00 H-L exch Vi= 0.000E+00 Vr= 0.000E+00
# # Mu=-5.607E+00eV kf=1.862E+00 Vint=-1.213E+01eV Rs_int= 1.948
# FMS rfms= 9.0000
# # PATH  Rmax=-1.000,  Keep_limit= 0.00, Heap_limit 0.00  Pwcrit= 2.50%
#  S02=0.950  Temp=   0.00  Debye_temp=   0.00  Global_sig2= 0.00000
#  Energy zero shift, vr, vi    0.00000E+00   0.00000E+00
#  Curved wave amplitude ratio filter   4.000%
#     file         sig2 tot  cw amp ratio   deg  nlegs   reff  inp sig2
#     0/   0 paths used
#  xsedge+ 50, used to normalize mu           2.4123E-04
#  -----------------------------------------------------------------------
#  omega    e    k    mu    mu0     chi     @#
    8983.224     -9.417  -1.000  5.30222E-02  6.37911E-02 -1.07689E-02
    8983.523     -9.118  -0.960  5.67031E-02  6.86201E-02 -1.19170E-02
    8983.810     -8.831  -0.920  6.08105E-02  7.39939E-02 -1.31834E-02
    8984.084     -8.557  -0.880  6.54176E-02  7.99925E-02 -1.45749E-02
    8984.346     -8.295  -0.840  7.06121E-02  8.67087E-02 -1.60966E-02
    8984.596     -8.045  -0.800  7.64990E-02  9.42500E-02 -1.77511E-02
    8984.834     -7.807  -0.760  8.32027E-02  1.02740E-01 -1.95370E-02
    8985.059     -7.582  -0.720  9.08686E-02  1.12317E-01 -2.14480E-02
    8985.273     -7.368  -0.680  9.96619E-02  1.23133E-01 -2.34716E-02
    8985.474     -7.167  -0.640  1.09763E-01  1.35351E-01 -2.55886E-02
    8985.663     -6.978  -0.600  1.21355E-01  1.49128E-01 -2.77739E-02
    8985.839     -6.802  -0.560  1.34600E-01  1.64599E-01 -2.99993E-02
    8986.004     -6.637  -0.520  1.49603E-01  1.81842E-01 -3.22398E-02
    8986.156     -6.485  -0.480  1.66358E-01  2.00841E-01 -3.44833E-02
    8986.297     -6.344  -0.440  1.84687E-01  2.21428E-01 -3.67418E-02
    8986.425     -6.216  -0.400  2.04190E-01  2.43249E-01 -3.90589E-02
    8986.541     -6.100  -0.360  2.24236E-01  2.65742E-01 -4.15060E-02
    8986.644     -5.997  -0.320  2.44022E-01  2.88181E-01 -4.41598E-02
    8986.736     -5.905  -0.280  2.62692E-01  3.09757E-01 -4.70654E-02
    8986.815     -5.826  -0.240  2.79490E-01  3.29688E-01 -5.01977E-02
    8986.882     -5.759  -0.200  2.93877E-01  3.47318E-01 -5.34410E-02
    8986.937     -5.704  -0.160  3.05566E-01  3.62161E-01 -5.65955E-02
    8986.979     -5.662  -0.120  3.14494E-01  3.73905E-01 -5.94115E-02
    8987.010     -5.631  -0.080  3.20728E-01  3.82372E-01 -6.16437E-02
    8987.034     -5.607   0.000  3.25552E-01  3.89177E-01 -6.36254E-02
    8987.089     -5.552   0.120  3.35459E-01  4.04529E-01 -6.90701E-02
    8987.132     -5.509   0.160  3.42978E-01  4.16488E-01 -7.35106E-02
    8987.187     -5.454   0.200  3.52003E-01  4.31776E-01 -7.97726E-02
    8987.254     -5.387   0.240  3.61886E-01  4.50189E-01 -8.83036E-02
    8987.333     -5.308   0.280  3.71753E-01  4.71415E-01 -9.96618E-02
    8987.424     -5.217   0.320  3.80502E-01  4.94913E-01 -1.14411E-01
    8987.528     -5.113   0.360  3.87009E-01  5.20039E-01 -1.33030E-01
    8987.644     -4.997   0.400  3.90393E-01  5.46119E-01 -1.55726E-01
    8987.772     -4.869   0.440  3.90217E-01  5.72496E-01 -1.82279E-01
    8987.912     -4.729   0.480  3.86771E-01  5.98686E-01 -2.11914E-01
    8988.065     -4.577   0.520  3.80961E-01  6.24291E-01 -2.43330E-01
    8988.229     -4.412   0.560  3.74268E-01  6.49177E-01 -2.74909E-01
    8988.406     -4.235   0.600  3.68201E-01  6.73249E-01 -3.05048E-01
    8988.595     -4.046   0.640  3.64024E-01  6.96509E-01 -3.32485E-01
    8988.796     -3.845   0.680  3.62509E-01  7.18983E-01 -3.56474E-01
    8989.009     -3.632   0.720  3.63914E-01  7.40770E-01 -3.76856E-01
    8989.235     -3.406   0.760  3.67896E-01  7.61904E-01 -3.94008E-01
    8989.473     -3.168   0.800  3.73687E-01  7.82386E-01 -4.08699E-01
    8989.723     -2.918   0.840  3.80490E-01  8.02287E-01 -4.21797E-01
    8989.985     -2.656   0.880  3.87842E-01  8.21576E-01 -4.33734E-01
    8990.259     -2.382   0.920  3.96121E-01  8.40251E-01 -4.44131E-01
    8990.546     -2.095   0.960  4.06859E-01  8.58277E-01 -4.51417E-01
    8990.844     -1.797   1.000  4.22996E-01  8.75647E-01 -4.52652E-01
    8991.155     -1.486   1.040  4.48270E-01  8.92310E-01 -4.44040E-01
    8991.478     -1.163   1.080  4.86664E-01  9.08226E-01 -4.21562E-01
    8991.814     -0.827   1.120  5.41213E-01  9.23374E-01 -3.82161E-01
    8992.161     -0.480   1.160  6.11688E-01  9.37690E-01 -3.26001E-01
    8992.521     -0.120   1.200  6.92804E-01  9.51169E-01 -2.58365E-01
    8992.893      0.252   1.240  7.76632E-01  9.63771E-01 -1.87139E-01
    8993.277      0.636   1.280  8.61644E-01  9.75472E-01 -1.13828E-01
    8993.673      1.032   1.320  9.59882E-01  9.86254E-01 -2.63715E-02
    8994.081      1.440   1.360  1.09098E+00  9.96142E-01  9.48335E-02
    8994.502      1.861   1.400  1.26159E+00  1.00512E+00  2.56469E-01
    8994.935      2.294   1.440  1.44121E+00  1.01318E+00  4.28033E-01
    8995.380      2.739   1.480  1.56627E+00  1.02037E+00  5.45902E-01
    8995.837      3.196   1.520  1.58860E+00  1.02667E+00  5.61933E-01
    8996.306      3.665   1.560  1.52312E+00  1.03215E+00  4.90965E-01
    8996.788      4.147   1.600  1.42667E+00  1.03682E+00  3.89847E-01
    8997.282      4.641   1.640  1.33374E+00  1.04074E+00  2.93007E-01
    8997.788      5.147   1.680  1.24925E+00  1.04392E+00  2.05325E-01
    8998.306      5.665   1.720  1.18014E+00  1.04642E+00  1.33720E-01
    8998.836      6.195   1.760  1.13757E+00  1.04830E+00  8.92711E-02
    8999.379      6.738   1.800  1.12126E+00  1.04958E+00  7.16771E-02
    8999.933      7.292   1.840  1.12250E+00  1.05032E+00  7.21857E-02
    9000.500      7.859   1.880  1.13219E+00  1.05054E+00  8.16463E-02
    9001.079      8.438   1.920  1.15398E+00  1.05035E+00  1.03636E-01
    9001.671      9.030   1.960  1.20923E+00  1.04972E+00  1.59514E-01
    9002.274      9.633   2.000  1.32052E+00  1.04875E+00  2.71764E-01
    9002.890     10.249   2.040  1.48473E+00  1.04746E+00  4.37272E-01
    9003.518     10.877   2.080  1.63489E+00  1.04590E+00  5.88994E-01
    9004.158     11.517   2.120  1.66088E+00  1.04409E+00  6.16789E-01
    9004.810     12.169   2.160  1.52006E+00  1.04207E+00  4.77988E-01
    9005.475     12.834   2.200  1.30800E+00  1.03991E+00  2.68094E-01
    9006.151     13.510   2.240  1.12273E+00  1.03761E+00  8.51194E-02
    9006.840     14.199   2.280  1.00103E+00  1.03519E+00 -3.41639E-02
    9007.541     14.900   2.320  9.36233E-01  1.03272E+00 -9.64828E-02
    9008.254     15.613   2.360  9.00614E-01  1.03019E+00 -1.29577E-01
    9008.980     16.339   2.400  8.79398E-01  1.02763E+00 -1.48232E-01
    9009.717     17.076   2.440  8.67802E-01  1.02506E+00 -1.57262E-01
    9010.467     17.826   2.480  8.64377E-01  1.02253E+00 -1.58149E-01
    9011.229     18.588   2.520  8.68814E-01  1.02002E+00 -1.51210E-01
    9012.003     19.362   2.560  8.81198E-01  1.01757E+00 -1.36368E-01
    9012.790     20.149   2.600  9.01273E-01  1.01518E+00 -1.13907E-01
    9013.588     20.947   2.640  9.26061E-01  1.01285E+00 -8.67914E-02
    9014.399     21.758   2.680  9.52322E-01  1.01063E+00 -5.83096E-02
    9015.222     22.581   2.720  9.76627E-01  1.00852E+00 -3.18946E-02
    9016.057     23.416   2.760  9.95153E-01  1.00651E+00 -1.13532E-02
    9016.905     24.264   2.800  1.00495E+00  1.00461E+00  3.34006E-04
    9017.764     25.123   2.840  1.00440E+00  1.00286E+00  1.53874E-03
    9018.636     25.995   2.880  9.92948E-01  1.00122E+00 -8.26933E-03
    9019.520     26.879   2.920  9.71447E-01  9.99720E-01 -2.82731E-02
    9020.416     27.775   2.960  9.43478E-01  9.98352E-01 -5.48738E-02
    9021.324     28.683   3.000  9.13531E-01  9.97116E-01 -8.35845E-02
    9022.245     29.604   3.040  8.85225E-01  9.96032E-01 -1.10808E-01
    9023.177     30.536   3.080  8.61012E-01  9.95103E-01 -1.34091E-01
    9024.122     31.481   3.120  8.42565E-01  9.94307E-01 -1.51742E-01
    9025.079     32.438   3.160  8.30770E-01  9.93643E-01 -1.62872E-01
    9026.049     33.408   3.200  8.25817E-01  9.93133E-01 -1.67316E-01
    9027.030     34.389   3.240  8.27372E-01  9.92778E-01 -1.65406E-01
    9028.024     35.383   3.280  8.34719E-01  9.92553E-01 -1.57834E-01
    9029.029     36.388   3.320  8.46911E-01  9.92456E-01 -1.45544E-01
    9030.047     37.406   3.360  8.62691E-01  9.92488E-01 -1.29797E-01
    9031.078     38.437   3.400  8.81100E-01  9.92668E-01 -1.11568E-01
    9032.120     39.479   3.440  9.01215E-01  9.92972E-01 -9.17570E-02
    9033.175     40.534   3.480  9.22344E-01  9.93376E-01 -7.10327E-02
    9034.242     41.601   3.520  9.44214E-01  9.93923E-01 -4.97085E-02
    9035.320     42.679   3.560  9.66910E-01  9.94565E-01 -2.76553E-02
    9036.412     43.771   3.600  9.90650E-01  9.95323E-01 -4.67328E-03
    9037.515     44.874   3.640  1.01496E+00  9.96172E-01  1.87860E-02
    9038.631     45.990   3.680  1.03846E+00  9.97129E-01  4.13324E-02
    9039.758     47.117   3.720  1.05926E+00  9.98171E-01  6.10938E-02
    9040.898     48.257   3.760  1.07585E+00  9.99272E-01  7.65806E-02
    9042.050     49.409   3.800  1.08793E+00  1.00047E+00  8.74598E-02
    9043.215     50.574   3.840  1.09636E+00  1.00172E+00  9.46362E-02
    9044.391     51.750   3.880  1.10293E+00  1.00302E+00  9.99081E-02
    9045.580     52.939   3.920  1.10933E+00  1.00439E+00  1.04936E-01
    9046.781     54.140   3.960  1.11628E+00  1.00580E+00  1.10472E-01
    9047.994     55.353   4.000  1.12336E+00  1.00725E+00  1.16108E-01
    9049.219     56.578   4.040  1.12946E+00  1.00872E+00  1.20741E-01
    9050.457     57.816   4.080  1.13310E+00  1.01023E+00  1.22869E-01
    9051.706     59.065   4.120  1.13253E+00  1.01173E+00  1.20792E-01
    9052.968     60.327   4.160  1.12611E+00  1.01323E+00  1.12875E-01
    9054.242     61.601   4.200  1.11330E+00  1.01475E+00  9.85522E-02
    9055.529     62.888   4.240  1.09577E+00  1.01625E+00  7.95257E-02
    9056.827     64.186   4.280  1.07689E+00  1.01773E+00  5.91580E-02
    9058.138     65.497   4.320  1.05986E+00  1.01918E+00  4.06797E-02
    9059.461     66.820   4.360  1.04637E+00  1.02059E+00  2.57881E-02
    9060.796     68.155   4.400  1.03668E+00  1.02198E+00  1.47034E-02
    9062.143     69.502   4.440  1.02995E+00  1.02330E+00  6.64385E-03
    9063.502     70.861   4.480  1.02498E+00  1.02460E+00  3.74140E-04
    9064.874     72.233   4.520  1.02050E+00  1.02581E+00 -5.31060E-03
    9066.258     73.617   4.560  1.01584E+00  1.02699E+00 -1.11432E-02
    9067.654     75.013   4.600  1.01107E+00  1.02806E+00 -1.69953E-02
    9069.062     76.421   4.640  1.00748E+00  1.02908E+00 -2.15974E-02
    9070.482     77.841   4.680  1.00694E+00  1.03002E+00 -2.30770E-02
    9071.915     79.274   4.720  1.01054E+00  1.03087E+00 -2.03311E-02
    9073.359     80.718   4.760  1.01740E+00  1.03165E+00 -1.42422E-02
    9074.816     82.175   4.800  1.02490E+00  1.03233E+00 -7.43576E-03
    9076.285     83.644   4.840  1.03022E+00  1.03293E+00 -2.70338E-03
    9077.767     85.126   4.880  1.03210E+00  1.03341E+00 -1.31705E-03
    9079.260     86.619   4.920  1.03085E+00  1.03381E+00 -2.96140E-03
    9080.766     88.125   4.960  1.02727E+00  1.03412E+00 -6.85482E-03
    9082.284     89.643   5.000  1.02153E+00  1.03434E+00 -1.28136E-02
    9083.814     91.173   5.040  1.01325E+00  1.03448E+00 -2.12279E-02
    9085.356     92.715   5.080  1.00226E+00  1.03450E+00 -3.22405E-02
    9086.911     94.270   5.120  9.89449E-01  1.03443E+00 -4.49849E-02
    9088.477     95.836   5.160  9.76630E-01  1.03428E+00 -5.76527E-02
    9090.056     97.415   5.200  9.65754E-01  1.03405E+00 -6.82923E-02
    9091.647     99.006   5.240  9.58185E-01  1.03373E+00 -7.55409E-02
    9093.251    100.610   5.280  9.54551E-01  1.03332E+00 -7.87725E-02
    9094.866    102.225   5.320  9.54827E-01  1.03284E+00 -7.80090E-02
    9096.494    103.853   5.360  9.58226E-01  1.03227E+00 -7.40434E-02
    9098.133    105.492   5.400  9.63346E-01  1.03163E+00 -6.82794E-02
    9099.785    107.144   5.440  9.68776E-01  1.03093E+00 -6.21538E-02
    9101.450    108.809   5.480  9.73828E-01  1.03018E+00 -5.63565E-02
    9103.126    110.485   5.520  9.78787E-01  1.02937E+00 -5.05808E-02
    9104.815    112.174   5.560  9.84569E-01  1.02851E+00 -4.39376E-02
    9106.515    113.874   5.600  9.92003E-01  1.02760E+00 -3.55958E-02
    9108.228    115.587   5.640  1.00145E+00  1.02663E+00 -2.51774E-02
    9109.954    117.313   5.680  1.01280E+00  1.02564E+00 -1.28462E-02
    9111.691    119.050   5.720  1.02540E+00  1.02465E+00  7.51748E-04
    9113.440    120.799   5.760  1.03835E+00  1.02359E+00  1.47551E-02
    9115.202    122.561   5.800  1.05125E+00  1.02253E+00  2.87158E-02
    9116.976    124.335   5.840  1.06459E+00  1.02148E+00  4.31103E-02
    9118.762    126.121   5.880  1.07912E+00  1.02042E+00  5.86911E-02
    9120.561    127.920   5.920  1.09412E+00  1.01936E+00  7.47626E-02
    9122.371    129.730   5.960  1.10624E+00  1.01835E+00  8.78909E-02
    9124.194    131.553   6.000  1.11003E+00  1.01734E+00  9.26910E-02
