# # comment:                                                     FEFF 9.9.1  
# # Source:
# # Structure
# # Reduced
# # space
# # abc:
# # angles:115.000593
# # sites:
# # POT  SCF 100  7.0000   0, screened core-hole, AFOLP (folp(0)= 1.150)
# # Abs   Z=29 Rmt= 1.209 Rnm= 1.294 K  shell
# # Pot 1 Z=38 Rmt= 1.724 Rnm= 1.780
# # Pot 2 Z=20 Rmt= 1.713 Rnm= 1.766
# # Pot 3 Z=29 Rmt= 1.209 Rnm= 1.294
# # Pot 4 Z= 8 Rmt= 1.066 Rnm= 1.114
# # Gam_ch=1.729E+00 H-L exch Vi= 0.000E+00 Vr= 0.000E+00
# # Mu=-9.463E+00eV kf=2.018E+00 Vint=-1.839E+01eV Rs_int= 1.797
# FMS rfms= 9.0000
# # PATH  Rmax=-1.000,  Keep_limit= 0.00, Heap_limit 0.00  Pwcrit= 2.50%
#  S02=0.950  Temp=   0.00  Debye_temp=   0.00  Global_sig2= 0.00000
#  Energy zero shift, vr, vi    0.00000E+00   0.00000E+00
#  Curved wave amplitude ratio filter   4.000%
#     file         sig2 tot  cw amp ratio   deg  nlegs   reff  inp sig2
#     0/   0 paths used
#  xsedge+ 50, used to normalize mu           2.4491E-04
#  -----------------------------------------------------------------------
#  omega    e    k    mu    mu0     chi     @#
    8985.545    -13.273  -1.000  4.22803E-02  5.70485E-02 -1.47682E-02
    8985.844    -12.975  -0.960  4.49068E-02  6.12674E-02 -1.63606E-02
    8986.131    -12.688  -0.920  4.78104E-02  6.59607E-02 -1.81503E-02
    8986.405    -12.414  -0.880  5.10345E-02  7.11984E-02 -2.01639E-02
    8986.667    -12.152  -0.840  5.46301E-02  7.70624E-02 -2.24323E-02
    8986.917    -11.902  -0.800  5.86569E-02  8.36473E-02 -2.49904E-02
    8987.155    -11.664  -0.760  6.31842E-02  9.10619E-02 -2.78777E-02
    8987.380    -11.439  -0.720  6.82907E-02  9.94289E-02 -3.11382E-02
    8987.594    -11.225  -0.680  7.40643E-02  1.08884E-01 -3.48194E-02
    8987.795    -11.024  -0.640  8.05984E-02  1.19569E-01 -3.89708E-02
    8987.984    -10.835  -0.600  8.79863E-02  1.31626E-01 -4.36396E-02
    8988.161    -10.658  -0.560  9.63100E-02  1.45174E-01 -4.88637E-02
    8988.325    -10.494  -0.520  1.05623E-01  1.60284E-01 -5.46611E-02
    8988.478    -10.341  -0.480  1.15927E-01  1.76942E-01 -6.10148E-02
    8988.618    -10.201  -0.440  1.27145E-01  1.95001E-01 -6.78559E-02
    8988.746    -10.073  -0.400  1.39095E-01  2.14145E-01 -7.50497E-02
    8988.862     -9.957  -0.360  1.51486E-01  2.33880E-01 -8.23936E-02
    8988.965     -9.854  -0.320  1.63928E-01  2.53561E-01 -8.96328E-02
    8989.057     -9.762  -0.280  1.75977E-01  2.72473E-01 -9.64954E-02
    8989.136     -9.683  -0.240  1.87196E-01  2.89929E-01 -1.02733E-01
    8989.203     -9.616  -0.200  1.97198E-01  3.05354E-01 -1.08156E-01
    8989.258     -9.561  -0.160  2.05687E-01  3.18327E-01 -1.12640E-01
    8989.301     -9.518  -0.120  2.12453E-01  3.28582E-01 -1.16129E-01
    8989.331     -9.488  -0.080  2.17362E-01  3.35968E-01 -1.18606E-01
    8989.355     -9.463   0.000  2.21332E-01  3.41902E-01 -1.20570E-01
    8989.410     -9.409   0.120  2.30229E-01  3.55284E-01 -1.25055E-01
    8989.453     -9.366   0.160  2.37223E-01  3.65680E-01 -1.28457E-01
    8989.508     -9.311   0.200  2.46219E-01  3.78940E-01 -1.32721E-01
    8989.575     -9.244   0.240  2.57140E-01  3.94882E-01 -1.37742E-01
    8989.654     -9.165   0.280  2.69831E-01  4.13204E-01 -1.43373E-01
    8989.746     -9.073   0.320  2.83872E-01  4.33394E-01 -1.49521E-01
    8989.849     -8.970   0.360  2.98682E-01  4.54866E-01 -1.56184E-01
    8989.965     -8.854   0.400  3.13304E-01  4.76978E-01 -1.63674E-01
    8990.093     -8.726   0.440  3.26478E-01  4.99201E-01 -1.72723E-01
    8990.233     -8.586   0.480  3.36409E-01  5.21014E-01 -1.84605E-01
    8990.386     -8.433   0.520  3.41303E-01  5.42177E-01 -2.00874E-01
    8990.550     -8.269   0.560  3.39748E-01  5.62519E-01 -2.22771E-01
    8990.727     -8.092   0.600  3.31668E-01  5.82024E-01 -2.50357E-01
    8990.916     -7.903   0.640  3.18527E-01  6.00713E-01 -2.82186E-01
    8991.117     -7.702   0.680  3.02898E-01  6.18706E-01 -3.15808E-01
    8991.331     -7.488   0.720  2.87427E-01  6.36057E-01 -3.48630E-01
    8991.556     -7.263   0.760  2.74330E-01  6.52900E-01 -3.78570E-01
    8991.794     -7.025   0.800  2.65075E-01  6.69278E-01 -4.04203E-01
    8992.044     -6.775   0.840  2.60527E-01  6.85300E-01 -4.24774E-01
    8992.306     -6.513   0.880  2.60962E-01  7.00980E-01 -4.40018E-01
    8992.580     -6.239   0.920  2.66497E-01  7.16357E-01 -4.49861E-01
    8992.867     -5.952   0.960  2.76940E-01  7.31479E-01 -4.54539E-01
    8993.165     -5.653   1.000  2.91331E-01  7.46362E-01 -4.55031E-01
    8993.476     -5.343   1.040  3.07758E-01  7.60970E-01 -4.53212E-01
    8993.799     -5.019   1.080  3.25166E-01  7.75322E-01 -4.50156E-01
    8994.135     -4.684   1.120  3.45382E-01  7.89410E-01 -4.44028E-01
    8994.482     -4.337   1.160  3.71781E-01  8.03201E-01 -4.31420E-01
    8994.842     -3.977   1.200  4.06511E-01  8.16696E-01 -4.10185E-01
    8995.214     -3.605   1.240  4.49466E-01  8.29855E-01 -3.80389E-01
    8995.598     -3.221   1.280  4.98084E-01  8.42676E-01 -3.44592E-01
    8995.994     -2.825   1.320  5.52041E-01  8.55093E-01 -3.03052E-01
    8996.402     -2.417   1.360  6.17899E-01  8.67121E-01 -2.49222E-01
    8996.823     -1.996   1.400  6.99368E-01  8.78737E-01 -1.79370E-01
    8997.256     -1.563   1.440  7.88488E-01  8.89914E-01 -1.01426E-01
    8997.701     -1.118   1.480  8.78904E-01  9.00627E-01 -2.17234E-02
    8998.158     -0.661   1.520  9.61167E-01  9.10870E-01  5.02966E-02
    8998.627     -0.191   1.560  1.01038E+00  9.20600E-01  8.97768E-02
    8999.109      0.290   1.600  1.03338E+00  9.29856E-01  1.03520E-01
    8999.603      0.784   1.640  1.05782E+00  9.38594E-01  1.19223E-01
    9000.109      1.290   1.680  1.10993E+00  9.46836E-01  1.63091E-01
    9000.627      1.808   1.720  1.22839E+00  9.54540E-01  2.73854E-01
    9001.157      2.338   1.760  1.42271E+00  9.61749E-01  4.60962E-01
    9001.700      2.881   1.800  1.60292E+00  9.68446E-01  6.34474E-01
    9002.255      3.436   1.840  1.63654E+00  9.74637E-01  6.61904E-01
    9002.821      4.003   1.880  1.54316E+00  9.80326E-01  5.62832E-01
    9003.401      4.582   1.920  1.42374E+00  9.85539E-01  4.38199E-01
    9003.992      5.173   1.960  1.31790E+00  9.90284E-01  3.27614E-01
    9004.595      5.776   2.000  1.24095E+00  9.94570E-01  2.46376E-01
    9005.211      6.392   2.040  1.19071E+00  9.98425E-01  1.92287E-01
    9005.839      7.020   2.080  1.14771E+00  1.00184E+00  1.45869E-01
    9006.479      7.660   2.120  1.10284E+00  1.00486E+00  9.79875E-02
    9007.131      8.312   2.160  1.06412E+00  1.00750E+00  5.66286E-02
    9007.796      8.977   2.200  1.03702E+00  1.00976E+00  2.72624E-02
    9008.472      9.654   2.240  1.02093E+00  1.01167E+00  9.25902E-03
    9009.161     10.342   2.280  1.01943E+00  1.01326E+00  6.16713E-03
    9009.862     11.043   2.320  1.04162E+00  1.01456E+00  2.70624E-02
    9010.576     11.757   2.360  1.09178E+00  1.01557E+00  7.62134E-02
    9011.301     12.482   2.400  1.16265E+00  1.01630E+00  1.46357E-01
    9012.039     13.220   2.440  1.22367E+00  1.01680E+00  2.06865E-01
    9012.788     13.969   2.480  1.23978E+00  1.01707E+00  2.22708E-01
    9013.550     14.731   2.520  1.21873E+00  1.01715E+00  2.01578E-01
    9014.325     15.506   2.560  1.18223E+00  1.01703E+00  1.65201E-01
    9015.111     16.292   2.600  1.14631E+00  1.01675E+00  1.29563E-01
    9015.909     17.091   2.640  1.11487E+00  1.01633E+00  9.85441E-02
    9016.720     17.901   2.680  1.08464E+00  1.01576E+00  6.88813E-02
    9017.543     18.724   2.720  1.05168E+00  1.01508E+00  3.65982E-02
    9018.378     19.559   2.760  1.01483E+00  1.01430E+00  5.31655E-04
    9019.226     20.407   2.800  9.75347E-01  1.01345E+00 -3.81058E-02
    9020.085     21.266   2.840  9.35692E-01  1.01253E+00 -7.68348E-02
    9020.957     22.138   2.880  8.98297E-01  1.01153E+00 -1.13232E-01
    9021.841     23.022   2.920  8.65355E-01  1.01051E+00 -1.45153E-01
    9022.737     23.918   2.960  8.38818E-01  1.00943E+00 -1.70610E-01
    9023.645     24.826   3.000  8.19775E-01  1.00836E+00 -1.88581E-01
    9024.566     25.747   3.040  8.08198E-01  1.00726E+00 -1.99058E-01
    9025.498     26.680   3.080  8.03672E-01  1.00615E+00 -2.02481E-01
    9026.443     27.624   3.120  8.05465E-01  1.00505E+00 -1.99585E-01
    9027.400     28.582   3.160  8.12394E-01  1.00395E+00 -1.91561E-01
    9028.370     29.551   3.200  8.23340E-01  1.00291E+00 -1.79570E-01
    9029.351     30.532   3.240  8.37114E-01  1.00188E+00 -1.64764E-01
    9030.345     31.526   3.280  8.52223E-01  1.00086E+00 -1.48638E-01
    9031.351     32.532   3.320  8.67550E-01  9.99905E-01 -1.32355E-01
    9032.369     33.550   3.360  8.82833E-01  9.98991E-01 -1.16158E-01
    9033.399     34.580   3.400  8.98749E-01  9.98143E-01 -9.93939E-02
    9034.441     35.622   3.440  9.15973E-01  9.97318E-01 -8.13450E-02
    9035.496     36.677   3.480  9.34800E-01  9.96563E-01 -6.17628E-02
    9036.563     37.744   3.520  9.54762E-01  9.95877E-01 -4.11148E-02
    9037.642     38.823   3.560  9.74693E-01  9.95241E-01 -2.05477E-02
    9038.733     39.914   3.600  9.93300E-01  9.94656E-01 -1.35599E-03
    9039.836     41.017   3.640  1.00967E+00  9.94164E-01  1.55058E-02
    9040.952     42.133   3.680  1.02333E+00  9.93723E-01  2.96038E-02
    9042.080     43.261   3.720  1.03421E+00  9.93334E-01  4.08741E-02
    9043.219     44.401   3.760  1.04244E+00  9.93018E-01  4.94195E-02
    9044.372     45.553   3.800  1.04785E+00  9.92778E-01  5.50759E-02
    9045.536     46.717   3.840  1.04998E+00  9.92610E-01  5.73660E-02
    9046.712     47.894   3.880  1.04835E+00  9.92492E-01  5.58619E-02
    9047.901     49.082   3.920  1.04299E+00  9.92423E-01  5.05704E-02
    9049.102     50.283   3.960  1.03459E+00  9.92427E-01  4.21603E-02
    9050.315     51.496   4.000  1.02462E+00  9.92502E-01  3.21151E-02
    9051.540     52.722   4.040  1.01483E+00  9.92627E-01  2.21987E-02
    9052.778     53.959   4.080  1.00657E+00  9.92822E-01  1.37434E-02
    9054.028     55.209   4.120  1.00033E+00  9.93062E-01  7.26946E-03
    9055.289     56.471   4.160  9.96055E-01  9.93345E-01  2.70958E-03
    9056.564     57.745   4.200  9.93586E-01  9.93672E-01 -8.59305E-05
    9057.850     59.031   4.240  9.93103E-01  9.94061E-01 -9.58752E-04
    9059.148     60.329   4.280  9.94921E-01  9.94471E-01  4.50221E-04
    9060.459     61.640   4.320  9.99315E-01  9.94919E-01  4.39670E-03
    9061.782     62.963   4.360  1.00637E+00  9.95426E-01  1.09479E-02
    9063.117     64.298   4.400  1.01613E+00  9.95949E-01  2.01801E-02
    9064.464     65.645   4.440  1.02888E+00  9.96504E-01  3.23790E-02
    9065.823     67.004   4.480  1.04483E+00  9.97070E-01  4.77595E-02
    9067.195     68.376   4.520  1.06353E+00  9.97666E-01  6.58661E-02
    9068.579     69.760   4.560  1.08334E+00  9.98269E-01  8.50714E-02
    9069.975     71.156   4.600  1.10166E+00  9.98900E-01  1.02759E-01
    9071.383     72.564   4.640  1.11554E+00  9.99534E-01  1.16007E-01
    9072.803     73.984   4.680  1.12247E+00  1.00017E+00  1.22305E-01
    9074.236     75.417   4.720  1.12099E+00  1.00080E+00  1.20182E-01
    9075.681     76.862   4.760  1.11124E+00  1.00144E+00  1.09807E-01
    9077.137     78.319   4.800  1.09481E+00  1.00204E+00  9.27679E-02
    9078.607     79.788   4.840  1.07372E+00  1.00266E+00  7.10503E-02
    9080.088     81.269   4.880  1.05013E+00  1.00326E+00  4.68716E-02
    9081.581     82.763   4.920  1.02670E+00  1.00385E+00  2.28557E-02
    9083.087     84.268   4.960  1.00573E+00  1.00440E+00  1.32667E-03
    9084.605     85.786   5.000  9.88205E-01  1.00494E+00 -1.67375E-02
    9086.135     87.316   5.040  9.73542E-01  1.00545E+00 -3.19104E-02
    9087.677     88.859   5.080  9.60841E-01  1.00595E+00 -4.51059E-02
    9089.232     90.413   5.120  9.49806E-01  1.00638E+00 -5.65754E-02
    9090.799     91.980   5.160  9.40832E-01  1.00680E+00 -6.59680E-02
    9092.377     93.559   5.200  9.34187E-01  1.00718E+00 -7.29925E-02
    9093.968     95.150   5.240  9.29847E-01  1.00752E+00 -7.76723E-02
    9095.572     96.753   5.280  9.28014E-01  1.00782E+00 -7.98032E-02
    9097.187     98.368   5.320  9.29204E-01  1.00807E+00 -7.88694E-02
    9098.815     99.996   5.360  9.33536E-01  1.00829E+00 -7.47523E-02
    9100.455    101.636   5.400  9.40216E-01  1.00846E+00 -6.82432E-02
    9102.107    103.288   5.440  9.48040E-01  1.00856E+00 -6.05232E-02
    9103.771    104.952   5.480  9.56065E-01  1.00865E+00 -5.25805E-02
    9105.447    106.628   5.520  9.63305E-01  1.00866E+00 -4.53597E-02
    9107.136    108.317   5.560  9.68727E-01  1.00866E+00 -3.99356E-02
    9108.837    110.018   5.600  9.71622E-01  1.00860E+00 -3.69730E-02
    9110.549    111.731   5.640  9.72177E-01  1.00848E+00 -3.63075E-02
    9112.275    113.456   5.680  9.71175E-01  1.00833E+00 -3.71545E-02
    9114.012    115.193   5.720  9.69736E-01  1.00813E+00 -3.83949E-02
    9115.762    116.943   5.760  9.69462E-01  1.00787E+00 -3.84062E-02
    9117.523    118.704   5.800  9.72499E-01  1.00759E+00 -3.50904E-02
    9119.297    120.478   5.840  9.80642E-01  1.00727E+00 -2.66302E-02
    9121.083    122.264   5.880  9.93964E-01  1.00689E+00 -1.29286E-02
    9122.882    124.063   5.920  1.01004E+00  1.00650E+00  3.53511E-03
    9124.692    125.873   5.960  1.02478E+00  1.00608E+00  1.87063E-02
    9126.515    127.696   6.000  1.03486E+00  1.00556E+00  2.93019E-02
