# # comment:                                                     FEFF 9.9.1  
# # Source:
# # Structure
# # Reduced
# # space
# # abc:
# # angles:
# # sites:
# # POT  SCF 100  7.0000   0, screened core-hole, AFOLP (folp(0)= 1.150)
# # Abs   Z=29 Rmt= 1.171 Rnm= 1.285 K  shell
# # Pot 1 Z=56 Rmt= 1.940 Rnm= 1.995
# # Pot 2 Z=59 Rmt= 1.722 Rnm= 1.802
# # Pot 3 Z=29 Rmt= 1.171 Rnm= 1.285
# # Pot 4 Z= 8 Rmt= 1.084 Rnm= 1.133
# # Gam_ch=1.729E+00 H-L exch Vi= 0.000E+00 Vr= 0.000E+00
# # Mu=-9.134E+00eV kf=1.988E+00 Vint=-1.768E+01eV Rs_int= 1.824
# FMS rfms= 9.0000
# # PATH  Rmax=-1.000,  Keep_limit= 0.00, Heap_limit 0.00  Pwcrit= 2.50%
#  S02=0.950  Temp=   0.00  Debye_temp=   0.00  Global_sig2= 0.00000
#  Energy zero shift, vr, vi    0.00000E+00   0.00000E+00
#  Curved wave amplitude ratio filter   4.000%
#     file         sig2 tot  cw amp ratio   deg  nlegs   reff  inp sig2
#     0/   0 paths used
#  xsedge+ 50, used to normalize mu           2.4478E-04
#  -----------------------------------------------------------------------
#  omega    e    k    mu    mu0     chi     @#
    8985.124    -12.944  -1.000  3.81192E-02  5.64809E-02 -1.83616E-02
    8985.422    -12.646  -0.960  4.02449E-02  6.06170E-02 -2.03721E-02
    8985.709    -12.359  -0.920  4.25745E-02  6.52139E-02 -2.26394E-02
    8985.983    -12.085  -0.880  4.51399E-02  7.03394E-02 -2.51994E-02
    8986.245    -11.823  -0.840  4.79794E-02  7.60722E-02 -2.80928E-02
    8986.495    -11.573  -0.800  5.11383E-02  8.25038E-02 -3.13654E-02
    8986.733    -11.335  -0.760  5.46703E-02  8.97388E-02 -3.50685E-02
    8986.959    -11.110  -0.720  5.86374E-02  9.78956E-02 -3.92582E-02
    8987.172    -10.896  -0.680  6.31100E-02  1.07104E-01 -4.39945E-02
    8987.373    -10.695  -0.640  6.81645E-02  1.17503E-01 -4.93385E-02
    8987.562    -10.506  -0.600  7.38782E-02  1.29226E-01 -5.53476E-02
    8987.739    -10.329  -0.560  8.03203E-02  1.42388E-01 -6.20681E-02
    8987.903    -10.165  -0.520  8.75364E-02  1.57059E-01 -6.95225E-02
    8988.056    -10.012  -0.480  9.55277E-02  1.73222E-01 -7.76942E-02
    8988.196     -9.872  -0.440  1.04226E-01  1.90736E-01 -8.65095E-02
    8988.324     -9.744  -0.400  1.13473E-01  2.09296E-01 -9.58227E-02
    8988.440     -9.628  -0.360  1.23011E-01  2.28423E-01 -1.05412E-01
    8988.543     -9.525  -0.320  1.32503E-01  2.47497E-01 -1.14995E-01
    8988.635     -9.433  -0.280  1.41574E-01  2.65827E-01 -1.24254E-01
    8988.714     -9.354  -0.240  1.49869E-01  2.82748E-01 -1.32879E-01
    8988.781     -9.287  -0.200  1.57108E-01  2.97704E-01 -1.40596E-01
    8988.836     -9.232  -0.160  1.63103E-01  3.10287E-01 -1.47183E-01
    8988.879     -9.189  -0.120  1.67763E-01  3.20234E-01 -1.52471E-01
    8988.909     -9.159  -0.080  1.71063E-01  3.27402E-01 -1.56339E-01
    8988.934     -9.134   0.000  1.73651E-01  3.33161E-01 -1.59510E-01
    8988.989     -9.080   0.120  1.79372E-01  3.46138E-01 -1.66767E-01
    8989.031     -9.037   0.160  1.83720E-01  3.56239E-01 -1.72519E-01
    8989.086     -8.982   0.200  1.89038E-01  3.69132E-01 -1.80095E-01
    8989.153     -8.915   0.240  1.95006E-01  3.84647E-01 -1.89641E-01
    8989.232     -8.836   0.280  2.01133E-01  4.02479E-01 -2.01346E-01
    8989.324     -8.744   0.320  2.06759E-01  4.22160E-01 -2.15401E-01
    8989.427     -8.641   0.360  2.11119E-01  4.43154E-01 -2.32036E-01
    8989.543     -8.525   0.400  2.13426E-01  4.64828E-01 -2.51403E-01
    8989.671     -8.397   0.440  2.13281E-01  4.86641E-01 -2.73360E-01
    8989.811     -8.257   0.480  2.10767E-01  5.08172E-01 -2.97405E-01
    8989.964     -8.104   0.520  2.06591E-01  5.29134E-01 -3.22543E-01
    8990.128     -7.940   0.560  2.01866E-01  5.49403E-01 -3.47537E-01
    8990.305     -7.763   0.600  1.97696E-01  5.68924E-01 -3.71227E-01
    8990.494     -7.574   0.640  1.95007E-01  5.87754E-01 -3.92746E-01
    8990.695     -7.373   0.680  1.94371E-01  6.05968E-01 -4.11597E-01
    8990.909     -7.159   0.720  1.96117E-01  6.23676E-01 -4.27559E-01
    8991.134     -6.934   0.760  2.00455E-01  6.40923E-01 -4.40468E-01
    8991.372     -6.696   0.800  2.07662E-01  6.57806E-01 -4.50144E-01
    8991.622     -6.446   0.840  2.18177E-01  6.74410E-01 -4.56232E-01
    8991.884     -6.184   0.880  2.32734E-01  6.90741E-01 -4.58007E-01
    8992.158     -5.910   0.920  2.52542E-01  7.06835E-01 -4.54293E-01
    8992.445     -5.623   0.960  2.79159E-01  7.22734E-01 -4.43575E-01
    8992.744     -5.325   1.000  3.13901E-01  7.38429E-01 -4.24528E-01
    8993.055     -5.014   1.040  3.56950E-01  7.53900E-01 -3.96951E-01
    8993.378     -4.691   1.080  4.07151E-01  7.69163E-01 -3.62012E-01
    8993.713     -4.355   1.120  4.63027E-01  7.84184E-01 -3.21157E-01
    8994.060     -4.008   1.160  5.22684E-01  7.98946E-01 -2.76262E-01
    8994.420     -3.648   1.200  5.79131E-01  8.13428E-01 -2.34297E-01
    8994.792     -3.276   1.240  6.19096E-01  8.27584E-01 -2.08488E-01
    8995.176     -2.892   1.280  6.35955E-01  8.41389E-01 -2.05434E-01
    8995.572     -2.496   1.320  6.37433E-01  8.54835E-01 -2.17403E-01
    8995.981     -2.088   1.360  6.34060E-01  8.67872E-01 -2.33812E-01
    8996.401     -1.667   1.400  6.36936E-01  8.80473E-01 -2.43537E-01
    8996.834     -1.234   1.440  6.58182E-01  8.92607E-01 -2.34424E-01
    8997.279     -0.789   1.480  7.02135E-01  9.04267E-01 -2.02132E-01
    8997.736     -0.332   1.520  7.54467E-01  9.15427E-01 -1.60959E-01
    8998.206      0.137   1.560  7.77900E-01  9.26057E-01 -1.48157E-01
    8998.687      0.619   1.600  7.61701E-01  9.36155E-01 -1.74454E-01
    8999.181      1.113   1.640  7.54039E-01  9.45716E-01 -1.91677E-01
    8999.687      1.619   1.680  8.01303E-01  9.54718E-01 -1.53415E-01
    9000.205      2.137   1.720  9.21857E-01  9.63140E-01 -4.12830E-02
    9000.735      2.667   1.760  1.10624E+00  9.71023E-01  1.35219E-01
    9001.278      3.210   1.800  1.31124E+00  9.78329E-01  3.32915E-01
    9001.833      3.765   1.840  1.46119E+00  9.85080E-01  4.76108E-01
    9002.400      4.332   1.880  1.53822E+00  9.91281E-01  5.46936E-01
    9002.979      4.911   1.920  1.55680E+00  9.96960E-01  5.59842E-01
    9003.570      5.502   1.960  1.49748E+00  1.00208E+00  4.95395E-01
    9004.174      6.105   2.000  1.38741E+00  1.00672E+00  3.80692E-01
    9004.789      6.721   2.040  1.28795E+00  1.01085E+00  2.77099E-01
    9005.417      7.349   2.080  1.23684E+00  1.01450E+00  2.22342E-01
    9006.057      7.989   2.120  1.22627E+00  1.01770E+00  2.08569E-01
    9006.710      8.641   2.160  1.21989E+00  1.02046E+00  1.99432E-01
    9007.374      9.306   2.200  1.20068E+00  1.02280E+00  1.77872E-01
    9008.051      9.982   2.240  1.17401E+00  1.02474E+00  1.49266E-01
    9008.739     10.671   2.280  1.14698E+00  1.02632E+00  1.20658E-01
    9009.440     11.372   2.320  1.12487E+00  1.02754E+00  9.73276E-02
    9010.154     12.086   2.360  1.11445E+00  1.02843E+00  8.60223E-02
    9010.879     12.811   2.400  1.12056E+00  1.02905E+00  9.15117E-02
    9011.617     13.549   2.440  1.13973E+00  1.02935E+00  1.10373E-01
    9012.367     14.298   2.480  1.16440E+00  1.02941E+00  1.34997E-01
    9013.129     15.060   2.520  1.18379E+00  1.02924E+00  1.54551E-01
    9013.903     15.835   2.560  1.18477E+00  1.02884E+00  1.55937E-01
    9014.689     16.621   2.600  1.16449E+00  1.02825E+00  1.36234E-01
    9015.488     17.420   2.640  1.12966E+00  1.02750E+00  1.02162E-01
    9016.298     18.230   2.680  1.09011E+00  1.02658E+00  6.35262E-02
    9017.121     19.053   2.720  1.05359E+00  1.02552E+00  2.80776E-02
    9017.957     19.888   2.760  1.02360E+00  1.02435E+00 -7.50751E-04
    9018.804     20.736   2.800  1.00019E+00  1.02309E+00 -2.28948E-02
    9019.663     21.595   2.840  9.82499E-01  1.02172E+00 -3.92205E-02
    9020.535     22.467   2.880  9.69272E-01  1.02030E+00 -5.10238E-02
    9021.419     23.351   2.920  9.58988E-01  1.01882E+00 -5.98348E-02
    9022.315     24.247   2.960  9.50509E-01  1.01729E+00 -6.67775E-02
    9023.223     25.155   3.000  9.43102E-01  1.01574E+00 -7.26335E-02
    9024.144     26.076   3.040  9.36352E-01  1.01417E+00 -7.78221E-02
    9025.077     27.009   3.080  9.29952E-01  1.01261E+00 -8.26566E-02
    9026.022     27.953   3.120  9.23714E-01  1.01102E+00 -8.73103E-02
    9026.979     28.910   3.160  9.17355E-01  1.00949E+00 -9.21309E-02
    9027.948     29.880   3.200  9.10278E-01  1.00794E+00 -9.76587E-02
    9028.929     30.861   3.240  9.02144E-01  1.00644E+00 -1.04299E-01
    9029.923     31.855   3.280  8.92808E-01  1.00497E+00 -1.12159E-01
    9030.929     32.861   3.320  8.82933E-01  1.00355E+00 -1.20620E-01
    9031.947     33.879   3.360  8.73693E-01  1.00218E+00 -1.28491E-01
    9032.977     34.909   3.400  8.66470E-01  1.00086E+00 -1.34393E-01
    9034.019     35.951   3.440  8.62259E-01  9.99613E-01 -1.37354E-01
    9035.074     37.006   3.480  8.61744E-01  9.98436E-01 -1.36691E-01
    9036.141     38.073   3.520  8.65285E-01  9.97312E-01 -1.32027E-01
    9037.220     39.152   3.560  8.72852E-01  9.96265E-01 -1.23413E-01
    9038.311     40.243   3.600  8.84197E-01  9.95297E-01 -1.11100E-01
    9039.414     41.346   3.640  8.99110E-01  9.94407E-01 -9.52973E-02
    9040.530     42.462   3.680  9.17208E-01  9.93599E-01 -7.63909E-02
    9041.658     43.590   3.720  9.37556E-01  9.92870E-01 -5.53140E-02
    9042.798     44.730   3.760  9.58549E-01  9.92225E-01 -3.36759E-02
    9043.950     45.882   3.800  9.77978E-01  9.91683E-01 -1.37048E-02
    9045.114     47.046   3.840  9.93692E-01  9.91200E-01  2.49231E-03
    9046.291     48.223   3.880  1.00471E+00  9.90796E-01  1.39117E-02
    9047.479     49.411   3.920  1.01145E+00  9.90473E-01  2.09777E-02
    9048.680     50.612   3.960  1.01525E+00  9.90232E-01  2.50165E-02
    9049.893     51.825   4.000  1.01787E+00  9.90093E-01  2.77781E-02
    9051.119     53.051   4.040  1.02100E+00  9.90013E-01  3.09832E-02
    9052.356     54.288   4.080  1.02585E+00  9.90010E-01  3.58433E-02
    9053.606     55.538   4.120  1.03274E+00  9.90086E-01  4.26581E-02
    9054.868     56.800   4.160  1.04101E+00  9.90236E-01  5.07728E-02
    9056.142     58.074   4.200  1.04908E+00  9.90441E-01  5.86380E-02
    9057.428     59.360   4.240  1.05504E+00  9.90721E-01  6.43205E-02
    9058.726     60.658   4.280  1.05746E+00  9.91073E-01  6.63821E-02
    9060.037     61.969   4.320  1.05592E+00  9.91477E-01  6.44385E-02
    9061.360     63.292   4.360  1.05112E+00  9.91950E-01  5.91724E-02
    9062.695     64.627   4.400  1.04452E+00  9.92469E-01  5.20525E-02
    9064.042     65.974   4.440  1.03784E+00  9.93033E-01  4.48088E-02
    9065.402     67.333   4.480  1.03259E+00  9.93661E-01  3.89333E-02
    9066.773     68.705   4.520  1.02975E+00  9.94309E-01  3.54430E-02
    9068.157     70.089   4.560  1.02993E+00  9.95017E-01  3.49121E-02
    9069.553     71.485   4.600  1.03316E+00  9.95740E-01  3.74201E-02
    9070.961     72.893   4.640  1.03906E+00  9.96496E-01  4.25625E-02
    9072.381     74.313   4.680  1.04675E+00  9.97263E-01  4.94851E-02
    9073.814     75.746   4.720  1.05505E+00  9.98060E-01  5.69946E-02
    9075.259     77.191   4.760  1.06257E+00  9.98887E-01  6.36840E-02
    9076.716     78.648   4.800  1.06772E+00  9.99697E-01  6.80235E-02
    9078.185     80.117   4.840  1.06903E+00  1.00053E+00  6.85048E-02
    9079.666     81.598   4.880  1.06536E+00  1.00136E+00  6.39988E-02
    9081.160     83.091   4.920  1.05657E+00  1.00220E+00  5.43700E-02
    9082.665     84.597   4.960  1.04379E+00  1.00303E+00  4.07584E-02
    9084.183     86.115   5.000  1.02900E+00  1.00383E+00  2.51689E-02
    9085.713     87.645   5.040  1.01441E+00  1.00462E+00  9.78969E-03
    9087.256     89.187   5.080  1.00188E+00  1.00541E+00 -3.52482E-03
    9088.810     90.742   5.120  9.92513E-01  1.00616E+00 -1.36443E-02
    9090.377     92.309   5.160  9.86376E-01  1.00687E+00 -2.04963E-02
    9091.956     93.887   5.200  9.82507E-01  1.00757E+00 -2.50633E-02
    9093.547     95.479   5.240  9.79246E-01  1.00821E+00 -2.89631E-02
    9095.150     97.082   5.280  9.75282E-01  1.00883E+00 -3.35482E-02
    9096.765     98.697   5.320  9.70238E-01  1.00941E+00 -3.91707E-02
    9098.393    100.325   5.360  9.64691E-01  1.00992E+00 -4.52314E-02
    9100.033    101.965   5.400  9.59624E-01  1.01041E+00 -5.07905E-02
    9101.685    103.617   5.440  9.55885E-01  1.01084E+00 -5.49547E-02
    9103.349    105.281   5.480  9.54206E-01  1.01122E+00 -5.70130E-02
    9105.025    106.957   5.520  9.55077E-01  1.01155E+00 -5.64729E-02
    9106.714    108.646   5.560  9.58685E-01  1.01181E+00 -5.31270E-02
    9108.415    110.347   5.600  9.64868E-01  1.01202E+00 -4.71547E-02
    9110.128    112.060   5.640  9.72972E-01  1.01216E+00 -3.91905E-02
    9111.853    113.785   5.680  9.82068E-01  1.01225E+00 -3.01854E-02
    9113.590    115.522   5.720  9.90595E-01  1.01227E+00 -2.16798E-02
    9115.340    117.272   5.760  9.96824E-01  1.01227E+00 -1.54467E-02
    9117.102    119.033   5.800  9.99265E-01  1.01217E+00 -1.29072E-02
    9118.875    120.807   5.840  9.97803E-01  1.01202E+00 -1.42221E-02
    9120.662    122.593   5.880  9.93956E-01  1.01183E+00 -1.78752E-02
    9122.460    124.392   5.920  9.90197E-01  1.01157E+00 -2.13713E-02
    9124.270    126.202   5.960  9.88541E-01  1.01125E+00 -2.27112E-02
    9126.093    128.025   6.000  9.89014E-01  1.01082E+00 -2.18031E-02
