# # comment:                                                     FEFF 9.9.1  
# # Source:
# # Structure
# # Reduced
# # space
# # abc:
# # angles:
# # sites:
# # POT  SCF 100  7.0000   0, screened core-hole, AFOLP (folp(0)= 1.150)
# # Abs   Z=29 Rmt= 1.359 Rnm= 1.418 K  shell
# # Pot 1 Z= 3 Rmt= 1.270 Rnm= 1.330
# # Pot 2 Z=29 Rmt= 1.345 Rnm= 1.415
# # Pot 3 Z=15 Rmt= 0.948 Rnm= 1.158
# # Pot 4 Z= 8 Rmt= 0.937 Rnm= 1.035
# # Gam_ch=1.729E+00 H-L exch Vi= 0.000E+00 Vr= 0.000E+00
# # Mu=-5.916E+00eV kf=2.372E+00 Vint=-1.695E+01eV Rs_int= 1.529
# FMS rfms= 9.0000
# # PATH  Rmax=-1.000,  Keep_limit= 0.00, Heap_limit 0.00  Pwcrit= 2.50%
#  S02=0.950  Temp=   0.00  Debye_temp=   0.00  Global_sig2= 0.00000
#  Energy zero shift, vr, vi    0.00000E+00   0.00000E+00
#  Curved wave amplitude ratio filter   4.000%
#     file         sig2 tot  cw amp ratio   deg  nlegs   reff  inp sig2
#     0/   0 paths used
#  xsedge+ 50, used to normalize mu           2.4677E-04
#  -----------------------------------------------------------------------
#  omega    e    k    mu    mu0     chi     @#
    8983.442     -9.726  -1.000  5.03397E-02  5.50780E-02 -4.73821E-03
    8983.741     -9.427  -0.960  5.35957E-02  5.91182E-02 -5.52247E-03
    8984.027     -9.141  -0.920  5.71701E-02  6.36127E-02 -6.44259E-03
    8984.302     -8.867  -0.880  6.11063E-02  6.86290E-02 -7.52273E-03
    8984.564     -8.604  -0.840  6.54544E-02  7.42458E-02 -8.79134E-03
    8984.814     -8.355  -0.800  7.02726E-02  8.05543E-02 -1.02816E-02
    8985.051     -8.117  -0.760  7.56272E-02  8.76593E-02 -1.20321E-02
    8985.277     -7.891  -0.720  8.15928E-02  9.56795E-02 -1.40866E-02
    8985.490     -7.678  -0.680  8.82516E-02  1.04745E-01 -1.64938E-02
    8985.691     -7.477  -0.640  9.56895E-02  1.14995E-01 -1.93058E-02
    8985.880     -7.288  -0.600  1.03991E-01  1.26565E-01 -2.25746E-02
    8986.057     -7.111  -0.560  1.13225E-01  1.39571E-01 -2.63459E-02
    8986.222     -6.946  -0.520  1.23433E-01  1.54083E-01 -3.06499E-02
    8986.374     -6.794  -0.480  1.34598E-01  1.70086E-01 -3.54875E-02
    8986.514     -6.654  -0.440  1.46623E-01  1.87439E-01 -4.08157E-02
    8986.642     -6.526  -0.400  1.59305E-01  2.05839E-01 -4.65338E-02
    8986.758     -6.410  -0.360  1.72326E-01  2.24806E-01 -5.24799E-02
    8986.862     -6.306  -0.320  1.85279E-01  2.43720E-01 -5.84415E-02
    8986.953     -6.215  -0.280  1.97708E-01  2.61891E-01 -6.41830E-02
    8987.033     -6.136  -0.240  2.09178E-01  2.78657E-01 -6.94797E-02
    8987.100     -6.069  -0.200  2.19319E-01  2.93466E-01 -7.41470E-02
    8987.154     -6.014  -0.160  2.27861E-01  3.05916E-01 -7.80549E-02
    8987.197     -5.971  -0.120  2.34624E-01  3.15751E-01 -8.11270E-02
    8987.228     -5.941  -0.080  2.39503E-01  3.22833E-01 -8.33298E-02
    8987.252     -5.916   0.000  2.43418E-01  3.28521E-01 -8.51027E-02
    8987.307     -5.861   0.120  2.52176E-01  3.41340E-01 -8.91641E-02
    8987.350     -5.819   0.160  2.59044E-01  3.51302E-01 -9.22580E-02
    8987.404     -5.764   0.200  2.67841E-01  3.63979E-01 -9.61386E-02
    8987.471     -5.697   0.240  2.78529E-01  3.79226E-01 -1.00697E-01
    8987.551     -5.617   0.280  2.90938E-01  3.96701E-01 -1.05762E-01
    8987.642     -5.526   0.320  3.04819E-01  4.15914E-01 -1.11095E-01
    8987.746     -5.422   0.360  3.19920E-01  4.36308E-01 -1.16388E-01
    8987.862     -5.307   0.400  3.35901E-01  4.57271E-01 -1.21370E-01
    8987.990     -5.179   0.440  3.52379E-01  4.78201E-01 -1.25823E-01
    8988.130     -5.038   0.480  3.68994E-01  4.98711E-01 -1.29716E-01
    8988.282     -4.886   0.520  3.85187E-01  5.18465E-01 -1.33277E-01
    8988.447     -4.721   0.560  4.00363E-01  5.37379E-01 -1.37016E-01
    8988.624     -4.545   0.600  4.13934E-01  5.55403E-01 -1.41469E-01
    8988.813     -4.356   0.640  4.25756E-01  5.72604E-01 -1.46848E-01
    8989.014     -4.154   0.680  4.36470E-01  5.89064E-01 -1.52594E-01
    8989.227     -3.941   0.720  4.47516E-01  6.04925E-01 -1.57409E-01
    8989.453     -3.716   0.760  4.60638E-01  6.20265E-01 -1.59628E-01
    8989.690     -3.478   0.800  4.77625E-01  6.35196E-01 -1.57571E-01
    8989.940     -3.228   0.840  5.00212E-01  6.49793E-01 -1.49581E-01
    8990.202     -2.966   0.880  5.29741E-01  6.64139E-01 -1.34398E-01
    8990.477     -2.691   0.920  5.66000E-01  6.78262E-01 -1.12262E-01
    8990.763     -2.405   0.960  6.06136E-01  6.92237E-01 -8.61009E-02
    8991.062     -2.106   1.000  6.44134E-01  7.06046E-01 -6.19120E-02
    8991.373     -1.795   1.040  6.73169E-01  7.19743E-01 -4.65745E-02
    8991.696     -1.472   1.080  6.91900E-01  7.33316E-01 -4.14158E-02
    8992.031     -1.137   1.120  7.07843E-01  7.46781E-01 -3.89379E-02
    8992.379     -0.789   1.160  7.30244E-01  7.60131E-01 -2.98876E-02
    8992.738     -0.430   1.200  7.62485E-01  7.73334E-01 -1.08482E-02
    8993.110     -0.058   1.240  8.02987E-01  7.86413E-01  1.65740E-02
    8993.494      0.326   1.280  8.49280E-01  7.99309E-01  4.99713E-02
    8993.890      0.722   1.320  8.99449E-01  8.12040E-01  8.74092E-02
    8994.299      1.131   1.360  9.50651E-01  8.24561E-01  1.26090E-01
    8994.720      1.551   1.400  1.00077E+00  8.36847E-01  1.63926E-01
    8995.152      1.984   1.440  1.05084E+00  8.48911E-01  2.01925E-01
    8995.597      2.429   1.480  1.10274E+00  8.60684E-01  2.42052E-01
    8996.055      2.886   1.520  1.15648E+00  8.72159E-01  2.84325E-01
    8996.524      3.356   1.560  1.21133E+00  8.83307E-01  3.28019E-01
    8997.006      3.837   1.600  1.26434E+00  8.94120E-01  3.70221E-01
    8997.499      4.331   1.640  1.31046E+00  9.04571E-01  4.05890E-01
    8998.005      4.837   1.680  1.34540E+00  9.14649E-01  4.30755E-01
    8998.523      5.355   1.720  1.36015E+00  9.24310E-01  4.35836E-01
    8999.054      5.886   1.760  1.34183E+00  9.33568E-01  4.08260E-01
    8999.596      6.428   1.800  1.28306E+00  9.42396E-01  3.40661E-01
    9000.151      6.983   1.840  1.19387E+00  9.50790E-01  2.43081E-01
    9000.718      7.550   1.880  1.10271E+00  9.58727E-01  1.43988E-01
    9001.297      8.129   1.920  1.03670E+00  9.66223E-01  7.04776E-02
    9001.888      8.720   1.960  1.00633E+00  9.73238E-01  3.30951E-02
    9002.492      9.324   2.000  1.00623E+00  9.79812E-01  2.64174E-02
    9003.108      9.939   2.040  1.02059E+00  9.85903E-01  3.46889E-02
    9003.735     10.567   2.080  1.03381E+00  9.91555E-01  4.22581E-02
    9004.376     11.207   2.120  1.03858E+00  9.96729E-01  4.18545E-02
    9005.028     11.860   2.160  1.03506E+00  1.00147E+00  3.35914E-02
    9005.692     12.524   2.200  1.02638E+00  1.00576E+00  2.06136E-02
    9006.369     13.201   2.240  1.01822E+00  1.00961E+00  8.61209E-03
    9007.058     13.890   2.280  1.01537E+00  1.01306E+00  2.31187E-03
    9007.759     14.591   2.320  1.01919E+00  1.01608E+00  3.11074E-03
    9008.472     15.304   2.360  1.02611E+00  1.01872E+00  7.39599E-03
    9009.197     16.029   2.400  1.02890E+00  1.02098E+00  7.92319E-03
    9009.935     16.767   2.440  1.02323E+00  1.02287E+00  3.60621E-04
    9010.685     17.517   2.480  1.01045E+00  1.02440E+00 -1.39508E-02
    9011.447     18.279   2.520  9.94146E-01  1.02563E+00 -3.14834E-02
    9012.221     19.053   2.560  9.75878E-01  1.02653E+00 -5.06568E-02
    9013.007     19.839   2.600  9.56656E-01  1.02715E+00 -7.04945E-02
    9013.806     20.638   2.640  9.37284E-01  1.02751E+00 -9.02223E-02
    9014.617     21.449   2.680  9.17883E-01  1.02759E+00 -1.09706E-01
    9015.440     22.272   2.720  8.99747E-01  1.02743E+00 -1.27683E-01
    9016.275     23.107   2.760  8.86964E-01  1.02708E+00 -1.40117E-01
    9017.122     23.954   2.800  8.84374E-01  1.02651E+00 -1.42136E-01
    9017.982     24.814   2.840  8.88563E-01  1.02579E+00 -1.37224E-01
    9018.854     25.685   2.880  8.96956E-01  1.02488E+00 -1.27923E-01
    9019.737     26.569   2.920  9.07253E-01  1.02384E+00 -1.16584E-01
    9020.634     27.465   2.960  9.17664E-01  1.02267E+00 -1.05005E-01
    9021.542     28.374   3.000  9.27797E-01  1.02138E+00 -9.35858E-02
    9022.462     29.294   3.040  9.37784E-01  1.02001E+00 -8.22236E-02
    9023.395     30.227   3.080  9.47667E-01  1.01855E+00 -7.08841E-02
    9024.340     31.172   3.120  9.57333E-01  1.01704E+00 -5.97089E-02
    9025.297     32.129   3.160  9.66366E-01  1.01546E+00 -4.90981E-02
    9026.266     33.098   3.200  9.74403E-01  1.01384E+00 -3.94416E-02
    9027.248     34.080   3.240  9.81461E-01  1.01221E+00 -3.07525E-02
    9028.241     35.073   3.280  9.87608E-01  1.01058E+00 -2.29683E-02
    9029.247     36.079   3.320  9.92904E-01  1.00894E+00 -1.60335E-02
    9030.265     37.097   3.360  9.97584E-01  1.00730E+00 -9.71889E-03
    9031.295     38.127   3.400  1.00195E+00  1.00570E+00 -3.74333E-03
    9032.338     39.170   3.440  1.00627E+00  1.00410E+00  2.16965E-03
    9033.392     40.224   3.480  1.01089E+00  1.00255E+00  8.34482E-03
    9034.459     41.291   3.520  1.01613E+00  1.00105E+00  1.50746E-02
    9035.538     42.370   3.560  1.02220E+00  9.99605E-01  2.25972E-02
    9036.629     43.461   3.600  1.02940E+00  9.98204E-01  3.11989E-02
    9037.733     44.565   3.640  1.03800E+00  9.96874E-01  4.11289E-02
    9038.848     45.680   3.680  1.04796E+00  9.95596E-01  5.23676E-02
    9039.976     46.808   3.720  1.05875E+00  9.94416E-01  6.43305E-02
    9041.116     47.948   3.760  1.06926E+00  9.93294E-01  7.59628E-02
    9042.268     49.100   3.800  1.07826E+00  9.92252E-01  8.60053E-02
    9043.432     50.264   3.840  1.08467E+00  9.91311E-01  9.33568E-02
    9044.609     51.441   3.880  1.08791E+00  9.90431E-01  9.74736E-02
    9045.798     52.630   3.920  1.08799E+00  9.89657E-01  9.83377E-02
    9046.999     53.830   3.960  1.08520E+00  9.88967E-01  9.62346E-02
    9048.212     55.044   4.000  1.07986E+00  9.88361E-01  9.15028E-02
    9049.437     56.269   4.040  1.07240E+00  9.87860E-01  8.45409E-02
    9050.674     57.506   4.080  1.06300E+00  9.87422E-01  7.55826E-02
    9051.924     58.756   4.120  1.05181E+00  9.87088E-01  6.47226E-02
    9053.186     60.018   4.160  1.03887E+00  9.86838E-01  5.20311E-02
    9054.460     61.292   4.200  1.02441E+00  9.86672E-01  3.77341E-02
    9055.746     62.578   4.240  1.00884E+00  9.86610E-01  2.22251E-02
    9057.045     63.877   4.280  9.92755E-01  9.86605E-01  6.14972E-03
    9058.355     65.187   4.320  9.76998E-01  9.86679E-01 -9.68144E-03
    9059.678     66.510   4.360  9.62364E-01  9.86831E-01 -2.44672E-02
    9061.013     67.845   4.400  9.49562E-01  9.87061E-01 -3.74981E-02
    9062.360     69.192   4.440  9.39107E-01  9.87365E-01 -4.82580E-02
    9063.720     70.552   4.480  9.31242E-01  9.87721E-01 -5.64788E-02
    9065.091     71.923   4.520  9.26109E-01  9.88148E-01 -6.20386E-02
    9066.475     73.307   4.560  9.23735E-01  9.88622E-01 -6.48874E-02
    9067.871     74.703   4.600  9.24136E-01  9.89162E-01 -6.50255E-02
    9069.279     76.111   4.640  9.27197E-01  9.89723E-01 -6.25260E-02
    9070.700     77.532   4.680  9.32834E-01  9.90345E-01 -5.75113E-02
    9072.132     78.964   4.720  9.40647E-01  9.90986E-01 -5.03391E-02
    9073.577     80.409   4.760  9.50112E-01  9.91683E-01 -4.15711E-02
    9075.034     81.866   4.800  9.60419E-01  9.92391E-01 -3.19716E-02
    9076.503     83.335   4.840  9.70681E-01  9.93107E-01 -2.24259E-02
    9077.984     84.816   4.880  9.80101E-01  9.93852E-01 -1.37513E-02
    9079.478     86.310   4.920  9.88039E-01  9.94600E-01 -6.56137E-03
    9080.984     87.816   4.960  9.94184E-01  9.95349E-01 -1.16480E-03
    9082.502     89.333   5.000  9.98629E-01  9.96097E-01  2.53232E-03
    9084.032     90.864   5.040  1.00172E+00  9.96842E-01  4.87863E-03
    9085.574     92.406   5.080  1.00387E+00  9.97581E-01  6.28903E-03
    9087.128     93.960   5.120  1.00536E+00  9.98289E-01  7.06698E-03
    9088.695     95.527   5.160  1.00629E+00  9.98983E-01  7.30350E-03
    9090.274     97.106   5.200  1.00647E+00  9.99620E-01  6.85320E-03
    9091.865     98.697   5.240  1.00568E+00  1.00024E+00  5.44371E-03
    9093.468    100.300   5.280  1.00362E+00  1.00082E+00  2.80087E-03
    9095.084    101.916   5.320  1.00020E+00  1.00139E+00 -1.19033E-03
    9096.711    103.543   5.360  9.95460E-01  1.00186E+00 -6.40348E-03
    9098.351    105.183   5.400  9.89885E-01  1.00232E+00 -1.24312E-02
    9100.003    106.835   5.440  9.84126E-01  1.00272E+00 -1.85976E-02
    9101.667    108.499   5.480  9.79043E-01  1.00306E+00 -2.40184E-02
    9103.344    110.176   5.520  9.75555E-01  1.00333E+00 -2.77714E-02
    9105.032    111.864   5.560  9.74389E-01  1.00354E+00 -2.91521E-02
    9106.733    113.565   5.600  9.75871E-01  1.00371E+00 -2.78375E-02
    9108.446    115.278   5.640  9.79813E-01  1.00380E+00 -2.39881E-02
    9110.171    117.003   5.680  9.85600E-01  1.00382E+00 -1.82194E-02
    9111.909    118.740   5.720  9.92414E-01  1.00379E+00 -1.13730E-02
    9113.658    120.490   5.760  9.99554E-01  1.00368E+00 -4.12670E-03
    9115.420    122.252   5.800  1.00680E+00  1.00350E+00  3.29499E-03
    9117.194    124.026   5.840  1.01433E+00  1.00327E+00  1.10594E-02
    9118.980    125.812   5.880  1.02238E+00  1.00300E+00  1.93844E-02
    9120.778    127.610   5.920  1.03086E+00  1.00263E+00  2.82247E-02
    9122.589    129.421   5.960  1.03925E+00  1.00224E+00  3.70108E-02
    9124.411    131.243   6.000  1.04639E+00  1.00170E+00  4.46868E-02
