# # comment:                                                     FEFF 9.9.1  
# # Source:
# # Structure
# # Reduced
# # space
# # abc:
# # angles:
# # sites:
# # POT  SCF 100  7.0000   0, screened core-hole, AFOLP (folp(0)= 1.150)
# # Abs   Z=29 Rmt= 1.237 Rnm= 1.312 K  shell
# # Pot 1 Z= 3 Rmt= 1.215 Rnm= 1.274
# # Pot 2 Z=29 Rmt= 1.237 Rnm= 1.312
# # Pot 3 Z= 8 Rmt= 1.065 Rnm= 1.122
# # Gam_ch=1.729E+00 H-L exch Vi= 0.000E+00 Vr= 0.000E+00
# # Mu=-9.016E+00eV kf=2.004E+00 Vint=-1.715E+01eV Rs_int= 1.810
# FMS rfms= 9.0000
# # PATH  Rmax=-1.000,  Keep_limit= 0.00, Heap_limit 0.00  Pwcrit= 2.50%
#  S02=0.950  Temp=   0.00  Debye_temp=   0.00  Global_sig2= 0.00000
#  Energy zero shift, vr, vi    0.00000E+00   0.00000E+00
#  Curved wave amplitude ratio filter   4.000%
#     file         sig2 tot  cw amp ratio   deg  nlegs   reff  inp sig2
#     0/   0 paths used
#  xsedge+ 50, used to normalize mu           2.4494E-04
#  -----------------------------------------------------------------------
#  omega    e    k    mu    mu0     chi     @#
    8984.803    -12.826  -1.000  3.89759E-02  5.28718E-02 -1.38959E-02
    8985.101    -12.527  -0.960  4.11172E-02  5.66689E-02 -1.55518E-02
    8985.388    -12.241  -0.920  4.34241E-02  6.08838E-02 -1.74597E-02
    8985.662    -11.966  -0.880  4.59122E-02  6.55774E-02 -1.96652E-02
    8985.924    -11.704  -0.840  4.85978E-02  7.08207E-02 -2.22229E-02
    8986.174    -11.454  -0.800  5.14981E-02  7.66959E-02 -2.51978E-02
    8986.412    -11.216  -0.760  5.46308E-02  8.32971E-02 -2.86663E-02
    8986.637    -10.991  -0.720  5.80136E-02  9.07306E-02 -3.27171E-02
    8986.851    -10.778  -0.680  6.16630E-02  9.91136E-02 -3.74506E-02
    8987.052    -10.576  -0.640  6.55933E-02  1.08569E-01 -4.29761E-02
    8987.241    -10.387  -0.600  6.98145E-02  1.19219E-01 -4.94044E-02
    8987.418    -10.211  -0.560  7.43296E-02  1.31165E-01 -5.68358E-02
    8987.582    -10.046  -0.520  7.91311E-02  1.44470E-01 -6.53385E-02
    8987.735     -9.894  -0.480  8.41967E-02  1.59117E-01 -7.49202E-02
    8987.875     -9.753  -0.440  8.94847E-02  1.74979E-01 -8.54947E-02
    8988.003     -9.625  -0.400  9.49296E-02  1.91782E-01 -9.68523E-02
    8988.119     -9.510  -0.360  1.00441E-01  2.09094E-01 -1.08653E-01
    8988.222     -9.406  -0.320  1.05905E-01  2.26354E-01 -1.20450E-01
    8988.314     -9.315  -0.280  1.11188E-01  2.42941E-01 -1.31753E-01
    8988.393     -9.235  -0.240  1.16151E-01  2.58255E-01 -1.42105E-01
    8988.460     -9.168  -0.200  1.20651E-01  2.71794E-01 -1.51143E-01
    8988.515     -9.113  -0.160  1.24554E-01  2.83187E-01 -1.58633E-01
    8988.558     -9.071  -0.120  1.27741E-01  2.92196E-01 -1.64456E-01
    8988.588     -9.040  -0.080  1.30112E-01  2.98690E-01 -1.68578E-01
    8988.613     -9.016   0.000  1.32103E-01  3.03909E-01 -1.71806E-01
    8988.667     -8.961   0.120  1.36692E-01  3.15670E-01 -1.78978E-01
    8988.710     -8.918   0.160  1.40324E-01  3.24834E-01 -1.84510E-01
    8988.765     -8.863   0.200  1.45161E-01  3.36528E-01 -1.91367E-01
    8988.832     -8.796   0.240  1.51358E-01  3.50621E-01 -1.99264E-01
    8988.911     -8.717   0.280  1.59121E-01  3.66824E-01 -2.07703E-01
    8989.003     -8.626   0.320  1.68748E-01  3.84722E-01 -2.15974E-01
    8989.106     -8.522   0.360  1.80689E-01  4.03860E-01 -2.23171E-01
    8989.222     -8.406   0.400  1.95463E-01  4.23669E-01 -2.28206E-01
    8989.350     -8.278   0.440  2.13844E-01  4.43669E-01 -2.29825E-01
    8989.490     -8.138   0.480  2.36755E-01  4.63487E-01 -2.26733E-01
    8989.643     -7.986   0.520  2.65241E-01  4.82845E-01 -2.17605E-01
    8989.807     -7.821   0.560  3.00171E-01  5.01653E-01 -2.01482E-01
    8989.984     -7.644   0.600  3.41492E-01  5.19878E-01 -1.78387E-01
    8990.173     -7.455   0.640  3.87009E-01  5.37552E-01 -1.50544E-01
    8990.374     -7.254   0.680  4.31230E-01  5.54740E-01 -1.23511E-01
    8990.588     -7.041   0.720  4.65823E-01  5.71540E-01 -1.05717E-01
    8990.813     -6.815   0.760  4.83322E-01  5.88007E-01 -1.04685E-01
    8991.051     -6.577   0.800  4.82663E-01  6.04248E-01 -1.21585E-01
    8991.301     -6.327   0.840  4.70082E-01  6.20255E-01 -1.50172E-01
    8991.563     -6.065   0.880  4.54346E-01  6.36130E-01 -1.81784E-01
    8991.837     -5.791   0.920  4.40509E-01  6.51860E-01 -2.11351E-01
    8992.124     -5.505   0.960  4.28563E-01  6.67464E-01 -2.38901E-01
    8992.423     -5.206   1.000  4.17618E-01  6.82946E-01 -2.65328E-01
    8992.733     -4.895   1.040  4.09697E-01  6.98326E-01 -2.88629E-01
    8993.057     -4.572   1.080  4.07899E-01  7.13554E-01 -3.05654E-01
    8993.392     -4.237   1.120  4.13377E-01  7.28634E-01 -3.15257E-01
    8993.739     -3.889   1.160  4.24474E-01  7.43527E-01 -3.19053E-01
    8994.099     -3.529   1.200  4.38625E-01  7.58232E-01 -3.19606E-01
    8994.471     -3.158   1.240  4.54859E-01  7.72679E-01 -3.17820E-01
    8994.855     -2.774   1.280  4.73917E-01  7.86864E-01 -3.12947E-01
    8995.251     -2.377   1.320  4.97332E-01  8.00775E-01 -3.03443E-01
    8995.659     -1.969   1.360  5.28798E-01  8.14342E-01 -2.85543E-01
    8996.080     -1.548   1.400  5.72643E-01  8.27534E-01 -2.54891E-01
    8996.513     -1.115   1.440  6.29676E-01  8.40362E-01 -2.10686E-01
    8996.958     -0.670   1.480  6.91255E-01  8.52774E-01 -1.61519E-01
    8997.415     -0.213   1.520  7.35180E-01  8.64743E-01 -1.29563E-01
    8997.885      0.256   1.560  7.45504E-01  8.76258E-01 -1.30754E-01
    8998.366      0.738   1.600  7.40943E-01  8.87294E-01 -1.46351E-01
    8998.860      1.232   1.640  7.48772E-01  8.97844E-01 -1.49071E-01
    8999.366      1.737   1.680  7.78556E-01  9.07882E-01 -1.29326E-01
    8999.884      2.256   1.720  8.42442E-01  9.17406E-01 -7.49637E-02
    9000.414      2.786   1.760  9.54976E-01  9.26412E-01  2.85638E-02
    9000.957      3.329   1.800  1.10060E+00  9.34882E-01  1.65718E-01
    9001.512      3.883   1.840  1.22981E+00  9.42836E-01  2.86976E-01
    9002.079      4.450   1.880  1.32049E+00  9.50276E-01  3.70210E-01
    9002.658      5.029   1.920  1.37691E+00  9.57184E-01  4.19726E-01
    9003.249      5.621   1.960  1.40104E+00  9.63587E-01  4.37457E-01
    9003.852      6.224   2.000  1.41275E+00  9.69510E-01  4.43245E-01
    9004.468      6.840   2.040  1.43038E+00  9.74919E-01  4.55464E-01
    9005.096      7.468   2.080  1.44963E+00  9.79861E-01  4.69768E-01
    9005.736      8.108   2.120  1.45040E+00  9.84367E-01  4.66034E-01
    9006.388      8.760   2.160  1.42078E+00  9.88403E-01  4.32373E-01
    9007.053      9.424   2.200  1.36735E+00  9.92040E-01  3.75313E-01
    9007.730     10.101   2.240  1.30954E+00  9.95268E-01  3.14271E-01
    9008.418     10.790   2.280  1.26197E+00  9.98095E-01  2.63876E-01
    9009.119     11.491   2.320  1.22107E+00  1.00058E+00  2.20492E-01
    9009.833     12.204   2.360  1.17415E+00  1.00272E+00  1.71430E-01
    9010.558     12.930   2.400  1.11733E+00  1.00453E+00  1.12794E-01
    9011.296     13.667   2.440  1.06420E+00  1.00603E+00  5.81702E-02
    9012.045     14.417   2.480  1.02682E+00  1.00726E+00  1.95584E-02
    9012.807     15.179   2.520  9.98672E-01  1.00824E+00 -9.57049E-03
    9013.582     15.953   2.560  9.75352E-01  1.00898E+00 -3.36243E-02
    9014.368     16.740   2.600  9.55335E-01  1.00948E+00 -5.41404E-02
    9015.167     17.538   2.640  9.38368E-01  1.00979E+00 -7.14215E-02
    9015.977     18.349   2.680  9.24593E-01  1.00991E+00 -8.53145E-02
    9016.800     19.172   2.720  9.14039E-01  1.00988E+00 -9.58427E-02
    9017.635     20.007   2.760  9.06109E-01  1.00968E+00 -1.03569E-01
    9018.483     20.854   2.800  9.00206E-01  1.00937E+00 -1.09160E-01
    9019.342     21.714   2.840  8.95803E-01  1.00893E+00 -1.13130E-01
    9020.214     22.586   2.880  8.92212E-01  1.00841E+00 -1.16197E-01
    9021.098     23.470   2.920  8.88805E-01  1.00778E+00 -1.18975E-01
    9021.994     24.366   2.960  8.85242E-01  1.00709E+00 -1.21851E-01
    9022.902     25.274   3.000  8.81473E-01  1.00635E+00 -1.24881E-01
    9023.823     26.195   3.040  8.77924E-01  1.00555E+00 -1.27625E-01
    9024.756     27.127   3.080  8.75301E-01  1.00473E+00 -1.29425E-01
    9025.700     28.072   3.120  8.74294E-01  1.00387E+00 -1.29575E-01
    9026.658     29.029   3.160  8.74984E-01  1.00298E+00 -1.27997E-01
    9027.627     29.998   3.200  8.77319E-01  1.00211E+00 -1.24791E-01
    9028.608     30.980   3.240  8.81169E-01  1.00124E+00 -1.20071E-01
    9029.602     31.974   3.280  8.86370E-01  1.00037E+00 -1.14004E-01
    9030.608     32.979   3.320  8.92761E-01  9.99512E-01 -1.06751E-01
    9031.626     33.997   3.360  9.00188E-01  9.98683E-01 -9.84954E-02
    9032.656     35.028   3.400  9.08488E-01  9.97890E-01 -8.94020E-02
    9033.698     36.070   3.440  9.17211E-01  9.97134E-01 -7.99226E-02
    9034.753     37.125   3.480  9.26258E-01  9.96417E-01 -7.01592E-02
    9035.820     38.191   3.520  9.35660E-01  9.95742E-01 -6.00815E-02
    9036.899     39.270   3.560  9.45378E-01  9.95108E-01 -4.97304E-02
    9037.990     40.362   3.600  9.55225E-01  9.94518E-01 -3.92928E-02
    9039.093     41.465   3.640  9.64912E-01  9.93995E-01 -2.90829E-02
    9040.209     42.581   3.680  9.74092E-01  9.93518E-01 -1.94266E-02
    9041.337     43.708   3.720  9.82705E-01  9.93089E-01 -1.03839E-02
    9042.477     44.848   3.760  9.91161E-01  9.92730E-01 -1.56950E-03
    9043.629     46.000   3.800  1.00009E+00  9.92440E-01  7.65053E-03
    9044.793     47.165   3.840  1.00995E+00  9.92179E-01  1.77717E-02
    9045.970     48.341   3.880  1.02094E+00  9.92011E-01  2.89306E-02
    9047.158     49.530   3.920  1.03246E+00  9.91890E-01  4.05687E-02
    9048.359     50.731   3.960  1.04342E+00  9.91817E-01  5.16072E-02
    9049.572     51.944   4.000  1.05292E+00  9.91813E-01  6.11114E-02
    9050.798     53.169   4.040  1.06070E+00  9.91856E-01  6.88399E-02
    9052.035     54.407   4.080  1.06710E+00  9.91946E-01  7.51560E-02
    9053.285     55.656   4.120  1.07255E+00  9.92104E-01  8.04445E-02
    9054.547     56.918   4.160  1.07707E+00  9.92307E-01  8.47578E-02
    9055.821     58.192   4.200  1.08035E+00  9.92576E-01  8.77718E-02
    9057.107     59.479   4.240  1.08199E+00  9.92867E-01  8.91282E-02
    9058.405     60.777   4.280  1.08185E+00  9.93219E-01  8.86316E-02
    9059.716     62.088   4.320  1.07986E+00  9.93590E-01  8.62655E-02
    9061.039     63.410   4.360  1.07616E+00  9.94022E-01  8.21344E-02
    9062.374     64.745   4.400  1.07101E+00  9.94472E-01  7.65405E-02
    9063.721     66.093   4.440  1.06503E+00  9.94978E-01  7.00544E-02
    9065.080     67.452   4.480  1.05872E+00  9.95497E-01  6.32180E-02
    9066.452     68.824   4.520  1.05236E+00  9.96027E-01  5.63290E-02
    9067.836     70.207   4.560  1.04592E+00  9.96610E-01  4.93111E-02
    9069.232     71.603   4.600  1.03899E+00  9.97180E-01  4.18062E-02
    9070.640     73.012   4.640  1.03120E+00  9.97777E-01  3.34192E-02
    9072.060     74.432   4.680  1.02238E+00  9.98401E-01  2.39792E-02
    9073.493     75.865   4.720  1.01264E+00  9.99007E-01  1.36319E-02
    9074.938     77.309   4.760  1.00249E+00  9.99633E-01  2.85668E-03
    9076.395     78.766   4.800  9.92652E-01  1.00024E+00 -7.58621E-03
    9077.864     80.235   4.840  9.83989E-01  1.00086E+00 -1.68739E-02
    9079.345     81.717   4.880  9.77114E-01  1.00146E+00 -2.43487E-02
    9080.839     83.210   4.920  9.72365E-01  1.00208E+00 -2.97132E-02
    9082.344     84.716   4.960  9.69494E-01  1.00264E+00 -3.31507E-02
    9083.862     86.234   5.000  9.68001E-01  1.00322E+00 -3.52223E-02
    9085.392     87.764   5.040  9.67154E-01  1.00377E+00 -3.66167E-02
    9086.935     89.306   5.080  9.66444E-01  1.00428E+00 -3.78393E-02
    9088.489     90.861   5.120  9.65865E-01  1.00478E+00 -3.89194E-02
    9090.056     92.427   5.160  9.65798E-01  1.00525E+00 -3.94509E-02
    9091.635     94.006   5.200  9.66820E-01  1.00568E+00 -3.88565E-02
    9093.226     95.597   5.240  9.69186E-01  1.00609E+00 -3.69022E-02
    9094.829     97.200   5.280  9.72547E-01  1.00644E+00 -3.38938E-02
    9096.444     98.816   5.320  9.76160E-01  1.00678E+00 -3.06158E-02
    9098.072    100.443   5.360  9.79090E-01  1.00707E+00 -2.79802E-02
    9099.712    102.083   5.400  9.80655E-01  1.00733E+00 -2.66710E-02
    9101.364    103.735   5.440  9.80622E-01  1.00754E+00 -2.69144E-02
    9103.028    105.400   5.480  9.79251E-01  1.00768E+00 -2.84319E-02
    9104.704    107.076   5.520  9.77259E-01  1.00781E+00 -3.05520E-02
    9106.393    108.764   5.560  9.75432E-01  1.00790E+00 -3.24641E-02
    9108.094    110.465   5.600  9.74539E-01  1.00792E+00 -3.33782E-02
    9109.807    112.178   5.640  9.75265E-01  1.00792E+00 -3.26506E-02
    9111.532    113.903   5.680  9.77863E-01  1.00785E+00 -2.99858E-02
    9113.269    115.641   5.720  9.82063E-01  1.00774E+00 -2.56759E-02
    9115.019    117.390   5.760  9.87053E-01  1.00759E+00 -2.05344E-02
    9116.780    119.152   5.800  9.91881E-01  1.00740E+00 -1.55152E-02
    9118.554    120.926   5.840  9.95835E-01  1.00717E+00 -1.13301E-02
    9120.340    122.712   5.880  9.98555E-01  1.00690E+00 -8.34035E-03
    9122.139    124.510   5.920  1.00003E+00  1.00659E+00 -6.56219E-03
    9123.949    126.321   5.960  1.00056E+00  1.00624E+00 -5.68237E-03
    9125.772    128.144   6.000  1.00069E+00  1.00583E+00 -5.14321E-03
