# # comment:                                                     FEFF 9.9.1  
# # Source:
# # Structure
# # Reduced
# # space
# # abc:
# # angles:
# # sites:
# # POT  SCF 100  7.0000   0, screened core-hole, AFOLP (folp(0)= 1.150)
# # Abs   Z=29 Rmt= 1.167 Rnm= 1.284 K  shell
# # Pot 1 Z=57 Rmt= 1.726 Rnm= 1.811
# # Pot 2 Z=29 Rmt= 1.167 Rnm= 1.285
# # Pot 3 Z= 8 Rmt= 1.071 Rnm= 1.128
# # Gam_ch=1.729E+00 H-L exch Vi= 0.000E+00 Vr= 0.000E+00
# # Mu=-8.525E+00eV kf=2.058E+00 Vint=-1.693E+01eV Rs_int= 1.762
# FMS rfms= 9.0000
# # PATH  Rmax=-1.000,  Keep_limit= 0.00, Heap_limit 0.00  Pwcrit= 2.50%
#  S02=0.950  Temp=   0.00  Debye_temp=   0.00  Global_sig2= 0.00000
#  Energy zero shift, vr, vi    0.00000E+00   0.00000E+00
#  Curved wave amplitude ratio filter   4.000%
#     file         sig2 tot  cw amp ratio   deg  nlegs   reff  inp sig2
#     0/   0 paths used
#  xsedge+ 50, used to normalize mu           2.4586E-04
#  -----------------------------------------------------------------------
#  omega    e    k    mu    mu0     chi     @#
    8984.345    -12.335  -1.000  3.87343E-02  5.33006E-02 -1.45663E-02
    8984.644    -12.037  -0.960  4.10735E-02  5.71340E-02 -1.60605E-02
    8984.931    -11.750  -0.920  4.36526E-02  6.13897E-02 -1.77371E-02
    8985.205    -11.476  -0.880  4.65080E-02  6.61293E-02 -1.96213E-02
    8985.467    -11.214  -0.840  4.96829E-02  7.14247E-02 -2.17418E-02
    8985.717    -10.964  -0.800  5.32274E-02  7.73590E-02 -2.41316E-02
    8985.955    -10.726  -0.760  5.72002E-02  8.40277E-02 -2.68275E-02
    8986.180    -10.501  -0.720  6.16678E-02  9.15383E-02 -2.98705E-02
    8986.394    -10.287  -0.680  6.67045E-02  1.00009E-01 -3.33049E-02
    8986.595    -10.086  -0.640  7.23896E-02  1.09566E-01 -3.71763E-02
    8986.784     -9.897  -0.600  7.88024E-02  1.20330E-01 -4.15281E-02
    8986.961     -9.720  -0.560  8.60127E-02  1.32408E-01 -4.63948E-02
    8987.125     -9.556  -0.520  9.40660E-02  1.45859E-01 -5.17929E-02
    8987.278     -9.403  -0.480  1.02963E-01  1.60670E-01 -5.77067E-02
    8987.418     -9.263  -0.440  1.12637E-01  1.76711E-01 -6.40742E-02
    8987.546     -9.135  -0.400  1.22929E-01  1.93704E-01 -7.07747E-02
    8987.662     -9.019  -0.360  1.33584E-01  2.11212E-01 -7.76272E-02
    8987.765     -8.916  -0.320  1.44263E-01  2.28668E-01 -8.44050E-02
    8987.857     -8.824  -0.280  1.54577E-01  2.45442E-01 -9.08653E-02
    8987.936     -8.745  -0.240  1.64144E-01  2.60928E-01 -9.67841E-02
    8988.003     -8.678  -0.200  1.72635E-01  2.74617E-01 -1.01982E-01
    8988.058     -8.623  -0.160  1.79801E-01  2.86135E-01 -1.06334E-01
    8988.101     -8.580  -0.120  1.85485E-01  2.95243E-01 -1.09758E-01
    8988.131     -8.550  -0.080  1.89595E-01  3.01806E-01 -1.12211E-01
    8988.155     -8.525   0.000  1.92921E-01  3.07080E-01 -1.14160E-01
    8988.210     -8.471   0.120  2.00063E-01  3.18981E-01 -1.18919E-01
    8988.253     -8.428   0.160  2.05634E-01  3.28234E-01 -1.22599E-01
    8988.308     -8.373   0.200  2.12692E-01  3.40064E-01 -1.27373E-01
    8988.375     -8.306   0.240  2.21028E-01  3.54279E-01 -1.33251E-01
    8988.454     -8.227   0.280  2.30334E-01  3.70645E-01 -1.40310E-01
    8988.546     -8.135   0.320  2.40046E-01  3.88737E-01 -1.48690E-01
    8988.649     -8.032   0.360  2.49358E-01  4.08033E-01 -1.58675E-01
    8988.765     -7.916   0.400  2.57386E-01  4.28017E-01 -1.70631E-01
    8988.893     -7.788   0.440  2.63259E-01  4.48159E-01 -1.84901E-01
    8989.033     -7.648   0.480  2.66620E-01  4.68122E-01 -2.01502E-01
    8989.186     -7.495   0.520  2.67753E-01  4.87603E-01 -2.19850E-01
    8989.350     -7.331   0.560  2.67776E-01  5.06490E-01 -2.38714E-01
    8989.527     -7.154   0.600  2.68232E-01  5.24773E-01 -2.56541E-01
    8989.716     -6.965   0.640  2.70597E-01  5.42505E-01 -2.71908E-01
    8989.917     -6.764   0.680  2.75716E-01  5.59733E-01 -2.84017E-01
    8990.130     -6.550   0.720  2.83629E-01  5.76537E-01 -2.92908E-01
    8990.356     -6.325   0.760  2.93864E-01  5.93015E-01 -2.99151E-01
    8990.594     -6.087   0.800  3.06187E-01  6.09237E-01 -3.03050E-01
    8990.844     -5.837   0.840  3.20866E-01  6.25279E-01 -3.04413E-01
    8991.106     -5.575   0.880  3.38202E-01  6.41123E-01 -3.02921E-01
    8991.380     -5.301   0.920  3.58145E-01  6.56860E-01 -2.98714E-01
    8991.667     -5.014   0.960  3.79500E-01  6.72489E-01 -2.92989E-01
    8991.965     -4.715   1.000  3.99526E-01  6.87997E-01 -2.88471E-01
    8992.276     -4.405   1.040  4.14928E-01  7.03384E-01 -2.88455E-01
    8992.599     -4.082   1.080  4.23278E-01  7.18663E-01 -2.95385E-01
    8992.935     -3.746   1.120  4.23729E-01  7.33801E-01 -3.10072E-01
    8993.282     -3.399   1.160  4.17255E-01  7.48757E-01 -3.31502E-01
    8993.642     -3.039   1.200  4.07511E-01  7.63530E-01 -3.56019E-01
    8994.014     -2.667   1.240  4.01369E-01  7.78095E-01 -3.76726E-01
    8994.398     -2.283   1.280  4.04776E-01  7.92403E-01 -3.87627E-01
    8994.794     -1.887   1.320  4.17257E-01  8.06446E-01 -3.89188E-01
    8995.202     -1.479   1.360  4.35900E-01  8.20152E-01 -3.84252E-01
    8995.623     -1.058   1.400  4.63070E-01  8.33531E-01 -3.70462E-01
    8996.056     -0.625   1.440  5.00297E-01  8.46534E-01 -3.46237E-01
    8996.501     -0.180   1.480  5.42032E-01  8.59127E-01 -3.17095E-01
    8996.958      0.277   1.520  5.80357E-01  8.71322E-01 -2.90965E-01
    8997.427      0.747   1.560  6.12101E-01  8.83049E-01 -2.70948E-01
    8997.909      1.228   1.600  6.42977E-01  8.94301E-01 -2.51323E-01
    8998.403      1.722   1.640  6.82634E-01  9.05068E-01 -2.22434E-01
    8998.909      2.228   1.680  7.38367E-01  9.15347E-01 -1.76980E-01
    8999.427      2.746   1.720  8.15889E-01  9.25091E-01 -1.09202E-01
    8999.957      3.276   1.760  9.19357E-01  9.34320E-01 -1.49630E-02
    9000.500      3.819   1.800  1.04713E+00  9.43031E-01  1.04100E-01
    9001.054      4.374   1.840  1.18482E+00  9.51202E-01  2.33621E-01
    9001.621      4.941   1.880  1.30512E+00  9.58856E-01  3.46268E-01
    9002.201      5.520   1.920  1.38387E+00  9.65955E-01  4.17911E-01
    9002.792      6.111   1.960  1.41796E+00  9.72562E-01  4.45402E-01
    9003.395      6.714   2.000  1.43433E+00  9.78642E-01  4.55692E-01
    9004.011      7.330   2.040  1.46536E+00  9.84221E-01  4.81142E-01
    9004.639      7.958   2.080  1.50907E+00  9.89304E-01  5.19765E-01
    9005.279      8.598   2.120  1.52406E+00  9.93921E-01  5.30141E-01
    9005.931      9.250   2.160  1.48153E+00  9.98058E-01  4.83474E-01
    9006.596      9.915   2.200  1.38929E+00  1.00177E+00  3.87526E-01
    9007.272     10.592   2.240  1.28818E+00  1.00503E+00  2.83144E-01
    9007.961     11.280   2.280  1.21095E+00  1.00791E+00  2.03038E-01
    9008.662     11.981   2.320  1.16032E+00  1.01039E+00  1.49935E-01
    9009.375     12.695   2.360  1.12682E+00  1.01252E+00  1.14304E-01
    9010.101     13.420   2.400  1.10267E+00  1.01429E+00  8.83817E-02
    9010.839     14.158   2.440  1.08461E+00  1.01573E+00  6.88874E-02
    9011.588     14.907   2.480  1.07302E+00  1.01687E+00  5.61540E-02
    9012.350     15.669   2.520  1.06381E+00  1.01773E+00  4.60850E-02
    9013.125     16.444   2.560  1.05624E+00  1.01830E+00  3.79397E-02
    9013.911     17.230   2.600  1.05120E+00  1.01866E+00  3.25470E-02
    9014.709     18.029   2.640  1.04707E+00  1.01877E+00  2.82946E-02
    9015.520     18.839   2.680  1.04136E+00  1.01869E+00  2.26755E-02
    9016.343     19.662   2.720  1.03280E+00  1.01842E+00  1.43806E-02
    9017.178     20.497   2.760  1.02180E+00  1.01799E+00  3.80463E-03
    9018.026     21.345   2.800  1.00945E+00  1.01741E+00 -7.95828E-03
    9018.885     22.204   2.840  9.97097E-01  1.01669E+00 -1.95924E-02
    9019.757     23.076   2.880  9.85933E-01  1.01587E+00 -2.99406E-02
    9020.641     23.960   2.920  9.76492E-01  1.01495E+00 -3.84531E-02
    9021.537     24.856   2.960  9.68871E-01  1.01391E+00 -4.50395E-02
    9022.445     25.764   3.000  9.62589E-01  1.01284E+00 -5.02484E-02
    9023.366     26.685   3.040  9.56517E-01  1.01167E+00 -5.51551E-02
    9024.298     27.618   3.080  9.49667E-01  1.01048E+00 -6.08169E-02
    9025.243     28.562   3.120  9.41291E-01  1.00925E+00 -6.79638E-02
    9026.200     29.520   3.160  9.31104E-01  1.00799E+00 -7.68882E-02
    9027.170     30.489   3.200  9.19403E-01  1.00672E+00 -8.73185E-02
    9028.151     31.470   3.240  9.07239E-01  1.00545E+00 -9.82092E-02
    9029.145     32.464   3.280  8.95762E-01  1.00417E+00 -1.08412E-01
    9030.151     33.470   3.320  8.86107E-01  1.00291E+00 -1.16799E-01
    9031.169     34.488   3.360  8.79240E-01  1.00167E+00 -1.22428E-01
    9032.199     35.518   3.400  8.75679E-01  1.00046E+00 -1.24786E-01
    9033.241     36.560   3.440  8.75323E-01  9.99296E-01 -1.23974E-01
    9034.296     37.615   3.480  8.77822E-01  9.98146E-01 -1.20324E-01
    9035.363     38.682   3.520  8.82732E-01  9.97059E-01 -1.14327E-01
    9036.442     39.761   3.560  8.89344E-01  9.96016E-01 -1.06672E-01
    9037.533     40.852   3.600  8.97055E-01  9.95018E-01 -9.79633E-02
    9038.636     41.955   3.640  9.05472E-01  9.94089E-01 -8.86175E-02
    9039.752     43.071   3.680  9.14233E-01  9.93210E-01 -7.89777E-02
    9040.879     44.199   3.720  9.22915E-01  9.92403E-01 -6.94882E-02
    9042.019     45.339   3.760  9.31390E-01  9.91669E-01 -6.02794E-02
    9043.172     46.491   3.800  9.39733E-01  9.90988E-01 -5.12554E-02
    9044.336     47.655   3.840  9.48175E-01  9.90381E-01 -4.22054E-02
    9045.512     48.832   3.880  9.56951E-01  9.89848E-01 -3.28966E-02
    9046.701     50.020   3.920  9.66247E-01  9.89368E-01 -2.31213E-02
    9047.902     51.221   3.960  9.76102E-01  9.88962E-01 -1.28597E-02
    9049.115     52.434   4.000  9.86420E-01  9.88632E-01 -2.21255E-03
    9050.340     53.660   4.040  9.97016E-01  9.88356E-01  8.65957E-03
    9051.578     54.897   4.080  1.00763E+00  9.88176E-01  1.94502E-02
    9052.828     56.147   4.120  1.01780E+00  9.88050E-01  2.97482E-02
    9054.089     57.409   4.160  1.02719E+00  9.87976E-01  3.92122E-02
    9055.364     58.683   4.200  1.03561E+00  9.87997E-01  4.76180E-02
    9056.650     59.969   4.240  1.04293E+00  9.88067E-01  5.48640E-02
    9057.948     61.267   4.280  1.04914E+00  9.88187E-01  6.09549E-02
    9059.259     62.578   4.320  1.05437E+00  9.88377E-01  6.59971E-02
    9060.582     63.901   4.360  1.05873E+00  9.88614E-01  7.01184E-02
    9061.917     65.236   4.400  1.06239E+00  9.88919E-01  7.34678E-02
    9063.264     66.583   4.440  1.06546E+00  9.89246E-01  7.62132E-02
    9064.623     67.942   4.480  1.06808E+00  9.89638E-01  7.84467E-02
    9065.995     69.314   4.520  1.07025E+00  9.90096E-01  8.01550E-02
    9067.379     70.698   4.560  1.07187E+00  9.90572E-01  8.12960E-02
    9068.775     72.094   4.600  1.07279E+00  9.91086E-01  8.17005E-02
    9070.183     73.502   4.640  1.07265E+00  9.91635E-01  8.10152E-02
    9071.603     74.922   4.680  1.07096E+00  9.92198E-01  7.87619E-02
    9073.036     76.355   4.720  1.06726E+00  9.92818E-01  7.44394E-02
    9074.480     77.800   4.760  1.06118E+00  9.93448E-01  6.77275E-02
    9075.937     79.257   4.800  1.05273E+00  9.94086E-01  5.86458E-02
    9077.407     80.726   4.840  1.04227E+00  9.94750E-01  4.75174E-02
    9078.888     82.207   4.880  1.03032E+00  9.95419E-01  3.49013E-02
    9080.381     83.701   4.920  1.01764E+00  9.96091E-01  2.15517E-02
    9081.887     85.206   4.960  1.00510E+00  9.96764E-01  8.33426E-03
    9083.405     86.724   5.000  9.93654E-01  9.97459E-01 -3.80521E-03
    9084.935     88.254   5.040  9.84149E-01  9.98129E-01 -1.39800E-02
    9086.477     89.796   5.080  9.77288E-01  9.98793E-01 -2.15046E-02
    9088.032     91.351   5.120  9.73373E-01  9.99429E-01 -2.60562E-02
    9089.599     92.918   5.160  9.72245E-01  1.00008E+00 -2.78339E-02
    9091.177     94.496   5.200  9.73107E-01  1.00068E+00 -2.75686E-02
    9092.768     96.088   5.240  9.74893E-01  1.00128E+00 -2.63913E-02
    9094.372     97.691   5.280  9.76395E-01  1.00184E+00 -2.54406E-02
    9095.987     99.306   5.320  9.76877E-01  1.00237E+00 -2.54953E-02
    9097.615    100.934   5.360  9.76101E-01  1.00287E+00 -2.67698E-02
    9099.255    102.574   5.400  9.74420E-01  1.00333E+00 -2.89111E-02
    9100.907    104.226   5.440  9.72588E-01  1.00375E+00 -3.11639E-02
    9102.571    105.890   5.480  9.71397E-01  1.00413E+00 -3.27349E-02
    9104.247    107.566   5.520  9.71382E-01  1.00449E+00 -3.31128E-02
    9105.936    109.255   5.560  9.72648E-01  1.00479E+00 -3.21444E-02
    9107.636    110.956   5.600  9.75166E-01  1.00504E+00 -2.98783E-02
    9109.349    112.669   5.640  9.78742E-01  1.00523E+00 -2.64875E-02
    9111.075    114.394   5.680  9.83131E-01  1.00539E+00 -2.22612E-02
    9112.812    116.131   5.720  9.87733E-01  1.00549E+00 -1.77561E-02
    9114.562    117.881   5.760  9.91685E-01  1.00554E+00 -1.38565E-02
    9116.323    119.642   5.800  9.93950E-01  1.00555E+00 -1.16006E-02
    9118.097    121.416   5.840  9.93794E-01  1.00552E+00 -1.17222E-02
    9119.883    123.202   5.880  9.91124E-01  1.00541E+00 -1.42885E-02
    9121.682    125.001   5.920  9.86527E-01  1.00526E+00 -1.87373E-02
    9123.492    126.811   5.960  9.80886E-01  1.00507E+00 -2.41814E-02
    9125.315    128.634   6.000  9.75042E-01  1.00476E+00 -2.97185E-02
