# # comment:                                                     FEFF 9.9.1  
# # Source:
# # Structure
# # Reduced
# # space
# # abc:
# # angles:113.848858
# # sites:
# # POT  SCF 100  7.0000   0, screened core-hole, AFOLP (folp(0)= 1.150)
# # Abs   Z=29 Rmt= 1.296 Rnm= 1.383 K  shell
# # Pot 1 Z=65 Rmt= 1.645 Rnm= 1.726
# # Pot 2 Z=29 Rmt= 1.296 Rnm= 1.383
# # Pot 3 Z=74 Rmt= 1.259 Rnm= 1.423
# # Pot 4 Z= 8 Rmt= 0.957 Rnm= 1.075
# # Gam_ch=1.729E+00 H-L exch Vi= 0.000E+00 Vr= 0.000E+00
# # Mu=-5.827E+00eV kf=2.258E+00 Vint=-1.637E+01eV Rs_int= 1.606
# FMS rfms= 9.0000
# # PATH  Rmax=-1.000,  Keep_limit= 0.00, Heap_limit 0.00  Pwcrit= 2.50%
#  S02=0.950  Temp=   0.00  Debye_temp=   0.00  Global_sig2= 0.00000
#  Energy zero shift, vr, vi    0.00000E+00   0.00000E+00
#  Curved wave amplitude ratio filter   4.000%
#     file         sig2 tot  cw amp ratio   deg  nlegs   reff  inp sig2
#     0/   0 paths used
#  xsedge+ 50, used to normalize mu           2.4712E-04
#  -----------------------------------------------------------------------
#  omega    e    k    mu    mu0     chi     @#
    8983.537     -9.637  -1.000  5.16980E-02  5.63660E-02 -4.66792E-03
    8983.836     -9.338  -0.960  5.52777E-02  6.05561E-02 -5.27842E-03
    8984.122     -9.052  -0.920  5.92414E-02  6.52217E-02 -5.98026E-03
    8984.397     -8.777  -0.880  6.36451E-02  7.04336E-02 -6.78848E-03
    8984.659     -8.515  -0.840  6.85538E-02  7.62744E-02 -7.72068E-03
    8984.909     -8.265  -0.800  7.40429E-02  8.28403E-02 -8.79740E-03
    8985.147     -8.027  -0.760  8.01989E-02  9.02412E-02 -1.00423E-02
    8985.372     -7.802  -0.720  8.71197E-02  9.86021E-02 -1.14824E-02
    8985.585     -7.589  -0.680  9.49129E-02  1.08060E-01 -1.31474E-02
    8985.787     -7.387  -0.640  1.03692E-01  1.18761E-01 -1.50691E-02
    8985.976     -7.198  -0.600  1.13568E-01  1.30848E-01 -1.72793E-02
    8986.152     -7.022  -0.560  1.24637E-01  1.44443E-01 -1.98058E-02
    8986.317     -6.857  -0.520  1.36953E-01  1.59619E-01 -2.26665E-02
    8986.469     -6.705  -0.480  1.50502E-01  1.76363E-01 -2.58620E-02
    8986.610     -6.564  -0.440  1.65162E-01  1.94527E-01 -2.93654E-02
    8986.738     -6.436  -0.400  1.80676E-01  2.13791E-01 -3.31151E-02
    8986.853     -6.321  -0.360  1.96643E-01  2.33654E-01 -3.70116E-02
    8986.957     -6.217  -0.320  2.12540E-01  2.53464E-01 -4.09240E-02
    8987.049     -6.125  -0.280  2.27791E-01  2.72496E-01 -4.47055E-02
    8987.128     -6.046  -0.240  2.41844E-01  2.90057E-01 -4.82136E-02
    8987.195     -5.979  -0.200  2.54240E-01  3.05567E-01 -5.13278E-02
    8987.250     -5.924  -0.160  2.64647E-01  3.18605E-01 -5.39583E-02
    8987.292     -5.882  -0.120  2.72858E-01  3.28904E-01 -5.60461E-02
    8987.323     -5.851  -0.080  2.78762E-01  3.36319E-01 -5.75568E-02
    8987.347     -5.827   0.000  2.83492E-01  3.42273E-01 -5.87805E-02
    8987.402     -5.772   0.120  2.94119E-01  3.55690E-01 -6.15711E-02
    8987.445     -5.729   0.160  3.02363E-01  3.66106E-01 -6.37429E-02
    8987.500     -5.674   0.200  3.12858E-01  3.79376E-01 -6.65170E-02
    8987.567     -5.607   0.240  3.25465E-01  3.95321E-01 -6.98562E-02
    8987.646     -5.528   0.280  3.39901E-01  4.13583E-01 -7.36820E-02
    8987.737     -5.437   0.320  3.55848E-01  4.33689E-01 -7.78408E-02
    8987.841     -5.333   0.360  3.72880E-01  4.54968E-01 -8.20873E-02
    8987.957     -5.217   0.400  3.90766E-01  4.76811E-01 -8.60452E-02
    8988.085     -5.089   0.440  4.09467E-01  4.98632E-01 -8.91652E-02
    8988.225     -4.949   0.480  4.29143E-01  5.19916E-01 -9.07722E-02
    8988.377     -4.797   0.520  4.50097E-01  5.40411E-01 -9.03137E-02
    8988.542     -4.632   0.560  4.72191E-01  5.59944E-01 -8.77534E-02
    8988.719     -4.455   0.600  4.94500E-01  5.78504E-01 -8.40044E-02
    8988.908     -4.266   0.640  5.15290E-01  5.96137E-01 -8.08472E-02
    8989.109     -4.065   0.680  5.32710E-01  6.12952E-01 -8.02422E-02
    8989.322     -3.852   0.720  5.45685E-01  6.29052E-01 -8.33666E-02
    8989.548     -3.626   0.760  5.54377E-01  6.44561E-01 -9.01841E-02
    8989.786     -3.388   0.800  5.59801E-01  6.59554E-01 -9.97531E-02
    8990.036     -3.138   0.840  5.63430E-01  6.74110E-01 -1.10680E-01
    8990.298     -2.876   0.880  5.67128E-01  6.88333E-01 -1.21205E-01
    8990.572     -2.602   0.920  5.72880E-01  7.02232E-01 -1.29352E-01
    8990.858     -2.315   0.960  5.82748E-01  7.15884E-01 -1.33136E-01
    8991.157     -2.017   1.000  5.98035E-01  7.29296E-01 -1.31261E-01
    8991.468     -1.706   1.040  6.17692E-01  7.42481E-01 -1.24790E-01
    8991.791     -1.383   1.080  6.38302E-01  7.55467E-01 -1.17165E-01
    8992.126     -1.048   1.120  6.57520E-01  7.68254E-01 -1.10734E-01
    8992.474     -0.700   1.160  6.77110E-01  7.80814E-01 -1.03705E-01
    8992.834     -0.340   1.200  7.01356E-01  7.93157E-01 -9.18013E-02
    8993.205      0.031   1.240  7.30907E-01  8.05268E-01 -7.43608E-02
    8993.589      0.415   1.280  7.58846E-01  8.17150E-01 -5.83040E-02
    8993.986      0.812   1.320  7.77864E-01  8.28745E-01 -5.08807E-02
    8994.394      1.220   1.360  7.87313E-01  8.40069E-01 -5.27561E-02
    8994.815      1.641   1.400  7.91353E-01  8.51102E-01 -5.97485E-02
    8995.248      2.074   1.440  7.98186E-01  8.61817E-01 -6.36313E-02
    8995.693      2.519   1.480  8.13302E-01  8.72214E-01 -5.89117E-02
    8996.150      2.976   1.520  8.35810E-01  8.82246E-01 -4.64357E-02
    8996.619      3.445   1.560  8.65266E-01  8.91930E-01 -2.66642E-02
    8997.101      3.927   1.600  9.02476E-01  9.01244E-01  1.23197E-03
    8997.595      4.421   1.640  9.45635E-01  9.10185E-01  3.54498E-02
    8998.101      4.927   1.680  9.95554E-01  9.18727E-01  7.68271E-02
    8998.619      5.445   1.720  1.05421E+00  9.26850E-01  1.27355E-01
    8999.149      5.975   1.760  1.11491E+00  9.34594E-01  1.80319E-01
    8999.692      6.518   1.800  1.17063E+00  9.41896E-01  2.28735E-01
    9000.246      7.072   1.840  1.22403E+00  9.48817E-01  2.75214E-01
    9000.813      7.639   1.880  1.27790E+00  9.55299E-01  3.22601E-01
    9001.392      8.218   1.920  1.32851E+00  9.61384E-01  3.67130E-01
    9001.984      8.810   1.960  1.37077E+00  9.67074E-01  4.03698E-01
    9002.587      9.413   2.000  1.39819E+00  9.72331E-01  4.25855E-01
    9003.203     10.029   2.040  1.39940E+00  9.77222E-01  4.22178E-01
    9003.831     10.657   2.080  1.36870E+00  9.81710E-01  3.86989E-01
    9004.471     11.297   2.120  1.31623E+00  9.85820E-01  3.30405E-01
    9005.123     11.949   2.160  1.24980E+00  9.89559E-01  2.60236E-01
    9005.788     12.614   2.200  1.17211E+00  9.92952E-01  1.79154E-01
    9006.464     13.290   2.240  1.09385E+00  9.95987E-01  9.78633E-02
    9007.153     13.979   2.280  1.02504E+00  9.98711E-01  2.63260E-02
    9007.854     14.680   2.320  9.71108E-01  1.00111E+00 -3.00040E-02
    9008.567     15.393   2.360  9.35074E-01  1.00322E+00 -6.81437E-02
    9009.293     16.119   2.400  9.18877E-01  1.00503E+00 -8.61569E-02
    9010.030     16.856   2.440  9.20508E-01  1.00657E+00 -8.60606E-02
    9010.780     17.606   2.480  9.30350E-01  1.00785E+00 -7.75026E-02
    9011.542     18.368   2.520  9.37155E-01  1.00891E+00 -7.17575E-02
    9012.316     19.142   2.560  9.35216E-01  1.00974E+00 -7.45190E-02
    9013.103     19.929   2.600  9.25143E-01  1.01035E+00 -8.52062E-02
    9013.901     20.727   2.640  9.10930E-01  1.01076E+00 -9.98312E-02
    9014.712     21.538   2.680  9.04105E-01  1.01100E+00 -1.06895E-01
    9015.535     22.361   2.720  9.04724E-01  1.01107E+00 -1.06350E-01
    9016.370     23.196   2.760  9.09397E-01  1.01099E+00 -1.01592E-01
    9017.217     24.043   2.800  9.16020E-01  1.01077E+00 -9.47539E-02
    9018.077     24.903   2.840  9.23752E-01  1.01043E+00 -8.66817E-02
    9018.949     25.775   2.880  9.32096E-01  1.01000E+00 -7.79025E-02
    9019.833     26.659   2.920  9.40864E-01  1.00945E+00 -6.85873E-02
    9020.729     27.555   2.960  9.49984E-01  1.00882E+00 -5.88356E-02
    9021.637     28.463   3.000  9.59258E-01  1.00813E+00 -4.88698E-02
    9022.558     29.384   3.040  9.68357E-01  1.00734E+00 -3.89860E-02
    9023.490     30.316   3.080  9.76888E-01  1.00653E+00 -2.96430E-02
    9024.435     31.261   3.120  9.84065E-01  1.00568E+00 -2.16102E-02
    9025.392     32.218   3.160  9.88943E-01  1.00478E+00 -1.58392E-02
    9026.361     33.187   3.200  9.90849E-01  1.00385E+00 -1.30060E-02
    9027.343     34.169   3.240  9.89700E-01  1.00292E+00 -1.32183E-02
    9028.337     35.163   3.280  9.86036E-01  1.00198E+00 -1.59406E-02
    9029.342     36.168   3.320  9.80826E-01  1.00103E+00 -2.02084E-02
    9030.360     37.186   3.360  9.75222E-01  1.00012E+00 -2.48936E-02
    9031.391     38.217   3.400  9.70203E-01  9.99179E-01 -2.89756E-02
    9032.433     39.259   3.440  9.66415E-01  9.98270E-01 -3.18556E-02
    9033.488     40.314   3.480  9.64037E-01  9.97393E-01 -3.33562E-02
    9034.554     41.380   3.520  9.62918E-01  9.96527E-01 -3.36091E-02
    9035.633     42.459   3.560  9.62811E-01  9.95694E-01 -3.28833E-02
    9036.725     43.551   3.600  9.63466E-01  9.94900E-01 -3.14340E-02
    9037.828     44.654   3.640  9.64698E-01  9.94143E-01 -2.94456E-02
    9038.944     45.770   3.680  9.66440E-01  9.93427E-01 -2.69864E-02
    9040.071     46.897   3.720  9.68794E-01  9.92752E-01 -2.39582E-02
    9041.211     48.037   3.760  9.72026E-01  9.92142E-01 -2.01156E-02
    9042.363     49.189   3.800  9.76351E-01  9.91552E-01 -1.52008E-02
    9043.528     50.354   3.840  9.81986E-01  9.91026E-01 -9.03999E-03
    9044.704     51.530   3.880  9.88955E-01  9.90545E-01 -1.59020E-03
    9045.893     52.719   3.920  9.97199E-01  9.90110E-01  7.08965E-03
    9047.094     53.920   3.960  1.00649E+00  9.89740E-01  1.67483E-02
    9048.307     55.133   4.000  1.01634E+00  9.89418E-01  2.69247E-02
    9049.532     56.358   4.040  1.02619E+00  9.89161E-01  3.70315E-02
    9050.770     57.596   4.080  1.03537E+00  9.88926E-01  4.64479E-02
    9052.019     58.845   4.120  1.04335E+00  9.88758E-01  5.45930E-02
    9053.281     60.107   4.160  1.04966E+00  9.88635E-01  6.10225E-02
    9054.555     61.381   4.200  1.05393E+00  9.88575E-01  6.53507E-02
    9055.842     62.668   4.240  1.05590E+00  9.88538E-01  6.73598E-02
    9057.140     63.966   4.280  1.05566E+00  9.88565E-01  6.70949E-02
    9058.451     65.277   4.320  1.05346E+00  9.88632E-01  6.48275E-02
    9059.773     66.599   4.360  1.04970E+00  9.88739E-01  6.09582E-02
    9061.109     67.935   4.400  1.04478E+00  9.88862E-01  5.59127E-02
    9062.456     69.282   4.440  1.03915E+00  9.89047E-01  5.00999E-02
    9063.815     70.641   4.480  1.03299E+00  9.89270E-01  4.37202E-02
    9065.187     72.013   4.520  1.02634E+00  9.89508E-01  3.68352E-02
    9066.571     73.397   4.560  1.01932E+00  9.89801E-01  2.95169E-02
    9067.966     74.792   4.600  1.01209E+00  9.90107E-01  2.19811E-02
    9069.375     76.201   4.640  1.00503E+00  9.90422E-01  1.46044E-02
    9070.795     77.621   4.680  9.98548E-01  9.90768E-01  7.77970E-03
    9072.228     79.054   4.720  9.92822E-01  9.91146E-01  1.67620E-03
    9073.672     80.498   4.760  9.87702E-01  9.91528E-01 -3.82670E-03
    9075.129     81.955   4.800  9.82880E-01  9.91915E-01 -9.03509E-03
    9076.598     83.424   4.840  9.78064E-01  9.92305E-01 -1.42415E-02
    9078.080     84.906   4.880  9.73194E-01  9.92719E-01 -1.95254E-02
    9079.573     86.399   4.920  9.68451E-01  9.93135E-01 -2.46846E-02
    9081.079     87.905   4.960  9.64252E-01  9.93529E-01 -2.92776E-02
    9082.597     89.423   5.000  9.61163E-01  9.93942E-01 -3.27793E-02
    9084.127     90.953   5.040  9.59494E-01  9.94354E-01 -3.48598E-02
    9085.669     92.495   5.080  9.59172E-01  9.94739E-01 -3.55671E-02
    9087.224     94.050   5.120  9.59823E-01  9.95116E-01 -3.52931E-02
    9088.790     95.616   5.160  9.60870E-01  9.95487E-01 -3.46172E-02
    9090.369     97.195   5.200  9.61779E-01  9.95828E-01 -3.40493E-02
    9091.960     98.786   5.240  9.62306E-01  9.96159E-01 -3.38530E-02
    9093.563    100.389   5.280  9.62535E-01  9.96458E-01 -3.39236E-02
    9095.179    102.005   5.320  9.62914E-01  9.96746E-01 -3.38314E-02
    9096.807    103.633   5.360  9.63996E-01  9.96998E-01 -3.30017E-02
    9098.446    105.272   5.400  9.66260E-01  9.97213E-01 -3.09527E-02
    9100.098    106.924   5.440  9.69939E-01  9.97392E-01 -2.74528E-02
    9101.763    108.589   5.480  9.74957E-01  9.97559E-01 -2.26019E-02
    9103.439    110.265   5.520  9.80860E-01  9.97691E-01 -1.68302E-02
    9105.128    111.954   5.560  9.86979E-01  9.97807E-01 -1.08288E-02
    9106.828    113.654   5.600  9.92498E-01  9.97862E-01 -5.36443E-03
    9108.541    115.367   5.640  9.96824E-01  9.97878E-01 -1.05339E-03
    9110.266    117.092   5.680  9.99656E-01  9.97879E-01  1.77798E-03
    9112.004    118.830   5.720  1.00095E+00  9.97841E-01  3.10876E-03
    9113.753    120.579   5.760  1.00095E+00  9.97740E-01  3.20991E-03
    9115.515    122.341   5.800  1.00020E+00  9.97624E-01  2.58054E-03
    9117.289    124.115   5.840  9.99312E-01  9.97472E-01  1.84000E-03
    9119.075    125.901   5.880  9.98868E-01  9.97283E-01  1.58516E-03
    9120.873    127.699   5.920  9.99287E-01  9.97055E-01  2.23186E-03
    9122.684    129.510   5.960  1.00067E+00  9.96790E-01  3.88157E-03
    9124.507    131.333   6.000  1.00283E+00  9.96463E-01  6.37177E-03
