# # comment:                                                     FEFF 9.9.1  
# # Source:
# # Structure
# # Reduced
# # space
# # abc:
# # angles:
# # sites:
# # POT  SCF 100  7.0000   0, screened core-hole, AFOLP (folp(0)= 1.150)
# # Abs   Z=29 Rmt= 1.206 Rnm= 1.300 K  shell
# # Pot 1 Z= 3 Rmt= 1.287 Rnm= 1.337
# # Pot 2 Z=41 Rmt= 1.308 Rnm= 1.436
# # Pot 3 Z=29 Rmt= 1.206 Rnm= 1.300
# # Pot 4 Z= 8 Rmt= 1.061 Rnm= 1.119
# # Gam_ch=1.729E+00 H-L exch Vi= 0.000E+00 Vr= 0.000E+00
# # Mu=-8.047E+00eV kf=2.101E+00 Vint=-1.623E+01eV Rs_int= 1.726
# FMS rfms= 9.0000
# # PATH  Rmax=-1.000,  Keep_limit= 0.00, Heap_limit 0.00  Pwcrit= 2.50%
#  S02=0.950  Temp=   0.00  Debye_temp=   0.00  Global_sig2= 0.00000
#  Energy zero shift, vr, vi    0.00000E+00   0.00000E+00
#  Curved wave amplitude ratio filter   4.000%
#     file         sig2 tot  cw amp ratio   deg  nlegs   reff  inp sig2
#     0/   0 paths used
#  xsedge+ 50, used to normalize mu           2.4438E-04
#  -----------------------------------------------------------------------
#  omega    e    k    mu    mu0     chi     @#
    8984.239    -11.857  -1.000  3.41401E-02  5.42067E-02 -2.00666E-02
    8984.538    -11.558  -0.960  3.56401E-02  5.81342E-02 -2.24941E-02
    8984.825    -11.272  -0.920  3.72181E-02  6.24962E-02 -2.52781E-02
    8985.099    -10.997  -0.880  3.88788E-02  6.73565E-02 -2.84777E-02
    8985.361    -10.735  -0.840  4.06270E-02  7.27892E-02 -3.21622E-02
    8985.611    -10.485  -0.800  4.24676E-02  7.88798E-02 -3.64122E-02
    8985.849    -10.248  -0.760  4.44061E-02  8.57269E-02 -4.13208E-02
    8986.074    -10.022  -0.720  4.64478E-02  9.34413E-02 -4.69936E-02
    8986.288     -9.809  -0.680  4.85979E-02  1.02145E-01 -5.35475E-02
    8986.489     -9.607  -0.640  5.08611E-02  1.11968E-01 -6.11070E-02
    8986.678     -9.419  -0.600  5.32405E-02  1.23036E-01 -6.97952E-02
    8986.854     -9.242  -0.560  5.57362E-02  1.35456E-01 -7.97199E-02
    8987.019     -9.077  -0.520  5.83436E-02  1.49293E-01 -9.09495E-02
    8987.171     -8.925  -0.480  6.10504E-02  1.64532E-01 -1.03481E-01
    8987.312     -8.785  -0.440  6.38336E-02  1.81039E-01 -1.17205E-01
    8987.440     -8.657  -0.400  6.66570E-02  1.98528E-01 -1.31871E-01
    8987.555     -8.541  -0.360  6.94707E-02  2.16549E-01 -1.47078E-01
    8987.659     -8.437  -0.320  7.22131E-02  2.34518E-01 -1.62305E-01
    8987.751     -8.346  -0.280  7.48168E-02  2.51786E-01 -1.76969E-01
    8987.830     -8.266  -0.240  7.72152E-02  2.67729E-01 -1.90513E-01
    8987.897     -8.199  -0.200  7.93482E-02  2.81821E-01 -2.02473E-01
    8987.952     -8.144  -0.160  8.11663E-02  2.93679E-01 -2.12513E-01
    8987.994     -8.102  -0.120  8.26302E-02  3.03056E-01 -2.20426E-01
    8988.025     -8.071  -0.080  8.37104E-02  3.09813E-01 -2.26102E-01
    8988.049     -8.047   0.000  8.46206E-02  3.15242E-01 -2.30621E-01
    8988.104     -7.992   0.120  8.66763E-02  3.27487E-01 -2.40811E-01
    8988.147     -7.949   0.160  8.82411E-02  3.37017E-01 -2.48776E-01
    8988.202     -7.895   0.200  9.02622E-02  3.49190E-01 -2.58928E-01
    8988.269     -7.827   0.240  9.27174E-02  3.63829E-01 -2.71111E-01
    8988.348     -7.748   0.280  9.56689E-02  3.80670E-01 -2.85001E-01
    8988.439     -7.657   0.320  9.90826E-02  3.99280E-01 -3.00198E-01
    8988.543     -7.553   0.360  1.03014E-01  4.19141E-01 -3.16126E-01
    8988.659     -7.437   0.400  1.07468E-01  4.39697E-01 -3.32229E-01
    8988.787     -7.309   0.440  1.12419E-01  4.60426E-01 -3.48008E-01
    8988.927     -7.169   0.480  1.17857E-01  4.80917E-01 -3.63059E-01
    8989.079     -7.017   0.520  1.23675E-01  5.00918E-01 -3.77243E-01
    8989.244     -6.852   0.560  1.29836E-01  5.20315E-01 -3.90478E-01
    8989.421     -6.675   0.600  1.36418E-01  5.39053E-01 -4.02635E-01
    8989.610     -6.486   0.640  1.43883E-01  5.57206E-01 -4.13323E-01
    8989.811     -6.285   0.680  1.52941E-01  5.74803E-01 -4.21862E-01
    8990.024     -6.072   0.720  1.64643E-01  5.91943E-01 -4.27300E-01
    8990.250     -5.846   0.760  1.80195E-01  6.08726E-01 -4.28531E-01
    8990.488     -5.609   0.800  2.01135E-01  6.25202E-01 -4.24066E-01
    8990.738     -5.359   0.840  2.29392E-01  6.41427E-01 -4.12035E-01
    8991.000     -5.096   0.880  2.67059E-01  6.57444E-01 -3.90386E-01
    8991.274     -4.822   0.920  3.15367E-01  6.73264E-01 -3.57897E-01
    8991.561     -4.536   0.960  3.73597E-01  6.88945E-01 -3.15348E-01
    8991.859     -4.237   1.000  4.38797E-01  7.04433E-01 -2.65636E-01
    8992.170     -3.926   1.040  5.03981E-01  7.19767E-01 -2.15786E-01
    8992.493     -3.603   1.080  5.56526E-01  7.34920E-01 -1.78394E-01
    8992.829     -3.268   1.120  5.87836E-01  7.49857E-01 -1.62022E-01
    8993.176     -2.920   1.160  6.01536E-01  7.64580E-01 -1.63043E-01
    8993.536     -2.561   1.200  6.06302E-01  7.79044E-01 -1.72741E-01
    8993.908     -2.189   1.240  6.07679E-01  7.93203E-01 -1.85525E-01
    8994.292     -1.805   1.280  6.07069E-01  8.07074E-01 -2.00005E-01
    8994.688     -1.408   1.320  6.04516E-01  8.20607E-01 -2.16092E-01
    8995.096     -1.000   1.360  6.04260E-01  8.33751E-01 -2.29491E-01
    8995.517     -0.579   1.400  6.12053E-01  8.46518E-01 -2.34465E-01
    8995.950     -0.147   1.440  6.31030E-01  8.58838E-01 -2.27808E-01
    8996.395      0.298   1.480  6.62238E-01  8.70723E-01 -2.08486E-01
    8996.852      0.756   1.520  7.02746E-01  8.82125E-01 -1.79379E-01
    8997.321      1.225   1.560  7.52680E-01  8.93056E-01 -1.40376E-01
    8997.803      1.707   1.600  8.19570E-01  9.03471E-01 -8.39015E-02
    8998.297      2.200   1.640  9.08194E-01  9.13367E-01 -5.17291E-03
    8998.803      2.706   1.680  9.99661E-01  9.22740E-01  7.69209E-02
    8999.321      3.225   1.720  1.06898E+00  9.31569E-01  1.37415E-01
    8999.851      3.755   1.760  1.13107E+00  9.39874E-01  1.91200E-01
    9000.394      4.297   1.800  1.21368E+00  9.47657E-01  2.66025E-01
    9000.948      4.852   1.840  1.30599E+00  9.54900E-01  3.51095E-01
    9001.515      5.419   1.880  1.38963E+00  9.61628E-01  4.27998E-01
    9002.094      5.998   1.920  1.46245E+00  9.67824E-01  4.94630E-01
    9002.686      6.590   1.960  1.52840E+00  9.73538E-01  5.54860E-01
    9003.289      7.193   2.000  1.56789E+00  9.78754E-01  5.89138E-01
    9003.905      7.809   2.040  1.54012E+00  9.83502E-01  5.56622E-01
    9004.533      8.437   2.080  1.44513E+00  9.87770E-01  4.57356E-01
    9005.173      9.077   2.120  1.32764E+00  9.91609E-01  3.36034E-01
    9005.825      9.729   2.160  1.22101E+00  9.95028E-01  2.25981E-01
    9006.490     10.393   2.200  1.13114E+00  9.98058E-01  1.33080E-01
    9007.166     11.070   2.240  1.05113E+00  1.00069E+00  5.04380E-02
    9007.855     11.759   2.280  9.77819E-01  1.00297E+00 -2.51563E-02
    9008.556     12.460   2.320  9.16387E-01  1.00490E+00 -8.85152E-02
    9009.269     13.173   2.360  8.74494E-01  1.00655E+00 -1.32053E-01
    9009.995     13.899   2.400  8.60395E-01  1.00786E+00 -1.47461E-01
    9010.732     14.636   2.440  8.80008E-01  1.00892E+00 -1.28915E-01
    9011.482     15.386   2.480  9.30778E-01  1.00972E+00 -7.89415E-02
    9012.244     16.148   2.520  9.97442E-01  1.01029E+00 -1.28523E-02
    9013.018     16.922   2.560  1.04848E+00  1.01066E+00  3.78220E-02
    9013.805     17.709   2.600  1.08128E+00  1.01082E+00  7.04621E-02
    9014.603     18.507   2.640  1.10398E+00  1.01082E+00  9.31677E-02
    9015.414     19.318   2.680  1.11911E+00  1.01065E+00  1.08466E-01
    9016.237     20.141   2.720  1.12566E+00  1.01035E+00  1.15315E-01
    9017.072     20.976   2.760  1.12212E+00  1.00992E+00  1.12193E-01
    9017.920     21.823   2.800  1.10831E+00  1.00940E+00  9.89015E-02
    9018.779     22.683   2.840  1.08607E+00  1.00880E+00  7.72697E-02
    9019.651     23.555   2.880  1.05864E+00  1.00809E+00  5.05517E-02
    9020.535     24.439   2.920  1.02876E+00  1.00735E+00  2.14051E-02
    9021.431     25.335   2.960  9.98686E-01  1.00655E+00 -7.86177E-03
    9022.339     26.243   3.000  9.69951E-01  1.00570E+00 -3.57511E-02
    9023.260     27.163   3.040  9.43701E-01  1.00484E+00 -6.11411E-02
    9024.192     28.096   3.080  9.20585E-01  1.00397E+00 -8.33897E-02
    9025.137     29.041   3.120  9.01117E-01  1.00308E+00 -1.01964E-01
    9026.094     29.998   3.160  8.85376E-01  1.00221E+00 -1.16831E-01
    9027.064     30.967   3.200  8.73446E-01  1.00132E+00 -1.27872E-01
    9028.045     31.949   3.240  8.65662E-01  1.00048E+00 -1.34816E-01
    9029.039     32.942   3.280  8.61909E-01  9.99651E-01 -1.37742E-01
    9030.044     33.948   3.320  8.61819E-01  9.98856E-01 -1.37037E-01
    9031.062     34.966   3.360  8.64725E-01  9.98079E-01 -1.33354E-01
    9032.093     35.997   3.400  8.69846E-01  9.97364E-01 -1.27518E-01
    9033.135     37.039   3.440  8.76136E-01  9.96692E-01 -1.20556E-01
    9034.190     38.094   3.480  8.83121E-01  9.96085E-01 -1.12964E-01
    9035.256     39.160   3.520  8.90628E-01  9.95503E-01 -1.04875E-01
    9036.335     40.239   3.560  8.98666E-01  9.94990E-01 -9.63240E-02
    9037.427     41.330   3.600  9.07288E-01  9.94547E-01 -8.72587E-02
    9038.530     42.434   3.640  9.16583E-01  9.94151E-01 -7.75689E-02
    9039.646     43.549   3.680  9.26639E-01  9.93806E-01 -6.71668E-02
    9040.773     44.677   3.720  9.37563E-01  9.93532E-01 -5.59686E-02
    9041.913     45.817   3.760  9.49550E-01  9.93329E-01 -4.37785E-02
    9043.065     46.969   3.800  9.62723E-01  9.93178E-01 -3.04545E-02
    9044.230     48.134   3.840  9.76944E-01  9.93099E-01 -1.61551E-02
    9045.406     49.310   3.880  9.91677E-01  9.93069E-01 -1.39210E-03
    9046.595     50.499   3.920  1.00621E+00  9.93109E-01  1.31053E-02
    9047.796     51.700   3.960  1.01967E+00  9.93200E-01  2.64748E-02
    9049.009     52.913   4.000  1.03124E+00  9.93360E-01  3.78844E-02
    9050.234     54.138   4.040  1.04030E+00  9.93566E-01  4.67314E-02
    9051.472     55.376   4.080  1.04658E+00  9.93818E-01  5.27594E-02
    9052.721     56.625   4.120  1.05028E+00  9.94137E-01  5.61386E-02
    9053.983     57.887   4.160  1.05208E+00  9.94501E-01  5.75771E-02
    9055.257     59.161   4.200  1.05289E+00  9.94907E-01  5.79803E-02
    9056.544     60.447   4.240  1.05353E+00  9.95354E-01  5.81803E-02
    9057.842     61.746   4.280  1.05452E+00  9.95840E-01  5.86809E-02
    9059.153     63.057   4.320  1.05587E+00  9.96365E-01  5.95057E-02
    9060.476     64.379   4.360  1.05727E+00  9.96929E-01  6.03395E-02
    9061.811     65.714   4.400  1.05837E+00  9.97526E-01  6.08471E-02
    9063.158     67.062   4.440  1.05922E+00  9.98135E-01  6.10899E-02
    9064.517     68.421   4.480  1.06015E+00  9.98775E-01  6.13768E-02
    9065.889     69.793   4.520  1.06150E+00  9.99422E-01  6.20796E-02
    9067.273     71.176   4.560  1.06355E+00  1.00010E+00  6.34554E-02
    9068.669     72.572   4.600  1.06628E+00  1.00078E+00  6.54983E-02
    9070.077     73.981   4.640  1.06924E+00  1.00146E+00  6.77822E-02
    9071.497     75.401   4.680  1.07168E+00  1.00214E+00  6.95388E-02
    9072.930     76.833   4.720  1.07261E+00  1.00282E+00  6.97940E-02
    9074.374     78.278   4.760  1.07100E+00  1.00350E+00  6.75066E-02
    9075.831     79.735   4.800  1.06602E+00  1.00417E+00  6.18444E-02
    9077.300     81.204   4.840  1.05737E+00  1.00482E+00  5.25518E-02
    9078.782     82.686   4.880  1.04572E+00  1.00547E+00  4.02469E-02
    9080.275     84.179   4.920  1.03239E+00  1.00608E+00  2.63155E-02
    9081.781     85.685   4.960  1.01901E+00  1.00667E+00  1.23397E-02
    9083.299     87.203   5.000  1.00688E+00  1.00726E+00 -3.72470E-04
    9084.829     88.733   5.040  9.96710E-01  1.00780E+00 -1.10937E-02
    9086.371     90.275   5.080  9.88486E-01  1.00831E+00 -1.98260E-02
    9087.926     91.830   5.120  9.81585E-01  1.00878E+00 -2.71963E-02
    9089.492     93.396   5.160  9.75065E-01  1.00921E+00 -3.41468E-02
    9091.071     94.975   5.200  9.68261E-01  1.00962E+00 -4.13624E-02
    9092.662     96.566   5.240  9.61148E-01  1.00997E+00 -4.88239E-02
    9094.266     98.169   5.280  9.54578E-01  1.01028E+00 -5.57005E-02
    9095.881     99.785   5.320  9.49825E-01  1.01056E+00 -6.07395E-02
    9097.509    101.412   5.360  9.47902E-01  1.01079E+00 -6.28829E-02
    9099.148    103.052   5.400  9.49094E-01  1.01096E+00 -6.18658E-02
    9100.800    104.704   5.440  9.52739E-01  1.01109E+00 -5.83520E-02
    9102.465    106.368   5.480  9.57540E-01  1.01115E+00 -5.36151E-02
    9104.141    108.045   5.520  9.62221E-01  1.01120E+00 -4.89754E-02
    9105.830    109.733   5.560  9.65747E-01  1.01117E+00 -4.54242E-02
    9107.530    111.434   5.600  9.67765E-01  1.01110E+00 -4.33352E-02
    9109.243    113.147   5.640  9.68659E-01  1.01099E+00 -4.23279E-02
    9110.969    114.872   5.680  9.69393E-01  1.01083E+00 -4.14359E-02
    9112.706    116.610   5.720  9.70871E-01  1.01061E+00 -3.97357E-02
    9114.455    118.359   5.760  9.73537E-01  1.01036E+00 -3.68264E-02
    9116.217    120.121   5.800  9.77177E-01  1.01006E+00 -3.28816E-02
    9117.991    121.895   5.840  9.81447E-01  1.00974E+00 -2.82900E-02
    9119.777    123.681   5.880  9.85970E-01  1.00935E+00 -2.33822E-02
    9121.575    125.479   5.920  9.90491E-01  1.00893E+00 -1.84409E-02
    9123.386    127.290   5.960  9.94764E-01  1.00850E+00 -1.37387E-02
    9125.209    129.113   6.000  9.98688E-01  1.00798E+00 -9.29363E-03
