# # comment:                                                     FEFF 9.9.1  
# # Source:
# # Structure
# # Reduced
# # space
# # abc:
# # angles:106.437378
# # sites:
# # POT  SCF 100  7.0000   0, screened core-hole, AFOLP (folp(0)= 1.150)
# # Abs   Z=29 Rmt= 1.200 Rnm= 1.328 K  shell
# # Pot 1 Z=38 Rmt= 1.747 Rnm= 1.818
# # Pot 2 Z=29 Rmt= 1.231 Rnm= 1.314
# # Pot 3 Z= 8 Rmt= 1.079 Rnm= 1.133
# # Gam_ch=1.729E+00 H-L exch Vi= 0.000E+00 Vr= 0.000E+00
# # Mu=-8.712E+00eV kf=1.914E+00 Vint=-1.717E+01eV Rs_int= 1.895
# FMS rfms= 9.0000
# # PATH  Rmax=-1.000,  Keep_limit= 0.00, Heap_limit 0.00  Pwcrit= 2.50%
#  S02=0.950  Temp=   0.00  Debye_temp=   0.00  Global_sig2= 0.00000
#  Energy zero shift, vr, vi    0.00000E+00   0.00000E+00
#  Curved wave amplitude ratio filter   4.000%
#     file         sig2 tot  cw amp ratio   deg  nlegs   reff  inp sig2
#     0/   0 paths used
#  xsedge+ 50, used to normalize mu           2.4421E-04
#  -----------------------------------------------------------------------
#  omega    e    k    mu    mu0     chi     @#
    8984.988    -12.522  -1.000  4.56751E-02  5.89474E-02 -1.32723E-02
    8985.286    -12.224  -0.960  4.86053E-02  6.33331E-02 -1.47278E-02
    8985.573    -11.937  -0.920  5.18542E-02  6.82124E-02 -1.63582E-02
    8985.847    -11.663  -0.880  5.54744E-02  7.36583E-02 -1.81840E-02
    8986.109    -11.401  -0.840  5.95287E-02  7.97558E-02 -2.02271E-02
    8986.359    -11.151  -0.800  6.40924E-02  8.66033E-02 -2.25109E-02
    8986.597    -10.913  -0.760  6.92542E-02  9.43135E-02 -2.50593E-02
    8986.822    -10.688  -0.720  7.51175E-02  1.03014E-01 -2.78965E-02
    8987.036    -10.474  -0.680  8.17997E-02  1.12845E-01 -3.10458E-02
    8987.237    -10.273  -0.640  8.94282E-02  1.23956E-01 -3.45279E-02
    8987.426    -10.084  -0.600  9.81316E-02  1.36491E-01 -3.83598E-02
    8987.603     -9.907  -0.560  1.08023E-01  1.50576E-01 -4.25531E-02
    8987.767     -9.743  -0.520  1.19171E-01  1.66284E-01 -4.71125E-02
    8987.920     -9.590  -0.480  1.31564E-01  1.83599E-01 -5.20346E-02
    8988.060     -9.450  -0.440  1.45063E-01  2.02369E-01 -5.73063E-02
    8988.188     -9.322  -0.400  1.59366E-01  2.22268E-01 -6.29015E-02
    8988.304     -9.206  -0.360  1.74006E-01  2.42780E-01 -6.87736E-02
    8988.407     -9.103  -0.320  1.88394E-01  2.63238E-01 -7.48436E-02
    8988.499     -9.011  -0.280  2.01911E-01  2.82898E-01 -8.09868E-02
    8988.578     -8.932  -0.240  2.14021E-01  3.01047E-01 -8.70260E-02
    8988.645     -8.865  -0.200  2.24349E-01  3.17086E-01 -9.27373E-02
    8988.700     -8.810  -0.160  2.32707E-01  3.30579E-01 -9.78721E-02
    8988.743     -8.767  -0.120  2.39056E-01  3.41245E-01 -1.02189E-01
    8988.773     -8.737  -0.080  2.43449E-01  3.48929E-01 -1.05479E-01
    8988.798     -8.712   0.000  2.46769E-01  3.55102E-01 -1.08332E-01
    8988.852     -8.658   0.120  2.54356E-01  3.69017E-01 -1.14661E-01
    8988.895     -8.615   0.160  2.60041E-01  3.79843E-01 -1.19802E-01
    8988.950     -8.560   0.200  2.66891E-01  3.93643E-01 -1.26752E-01
    8989.017     -8.493   0.240  2.74501E-01  4.10272E-01 -1.35771E-01
    8989.096     -8.414   0.280  2.82245E-01  4.29337E-01 -1.47092E-01
    8989.188     -8.322   0.320  2.89509E-01  4.50396E-01 -1.60887E-01
    8989.291     -8.219   0.360  2.95651E-01  4.72804E-01 -1.77153E-01
    8989.407     -8.103   0.400  3.00242E-01  4.95919E-01 -1.95677E-01
    8989.535     -7.975   0.440  3.03154E-01  5.19156E-01 -2.16002E-01
    8989.675     -7.835   0.480  3.04521E-01  5.42018E-01 -2.37496E-01
    8989.828     -7.682   0.520  3.04754E-01  5.64214E-01 -2.59460E-01
    8989.992     -7.518   0.560  3.04437E-01  5.85608E-01 -2.81170E-01
    8990.169     -7.341   0.600  3.04128E-01  6.06121E-01 -3.01993E-01
    8990.358     -7.152   0.640  3.04460E-01  6.25833E-01 -3.21373E-01
    8990.559     -6.951   0.680  3.05831E-01  6.44805E-01 -3.38973E-01
    8990.773     -6.737   0.720  3.08501E-01  6.63130E-01 -3.54630E-01
    8990.998     -6.512   0.760  3.12666E-01  6.80924E-01 -3.68258E-01
    8991.236     -6.274   0.800  3.18527E-01  6.98207E-01 -3.79680E-01
    8991.486     -6.024   0.840  3.26600E-01  7.15088E-01 -3.88488E-01
    8991.748     -5.762   0.880  3.37739E-01  7.31620E-01 -3.93882E-01
    8992.022     -5.488   0.920  3.52975E-01  7.47800E-01 -3.94826E-01
    8992.309     -5.201   0.960  3.73313E-01  7.63653E-01 -3.90339E-01
    8992.608     -4.902   1.000  3.99245E-01  7.79190E-01 -3.79944E-01
    8992.918     -4.592   1.040  4.30241E-01  7.94416E-01 -3.64175E-01
    8993.242     -4.268   1.080  4.65438E-01  8.09285E-01 -3.43847E-01
    8993.577     -3.933   1.120  5.06457E-01  8.23828E-01 -3.17371E-01
    8993.924     -3.586   1.160  5.58009E-01  8.37987E-01 -2.79977E-01
    8994.284     -3.226   1.200  6.22784E-01  8.51764E-01 -2.28980E-01
    8994.656     -2.854   1.240  6.95323E-01  8.65096E-01 -1.69772E-01
    8995.040     -2.470   1.280  7.64072E-01  8.77999E-01 -1.13927E-01
    8995.436     -2.074   1.320  8.18771E-01  8.90408E-01 -7.16369E-02
    8995.845     -1.665   1.360  8.56563E-01  9.02338E-01 -4.57752E-02
    8996.265     -1.245   1.400  8.86928E-01  9.13744E-01 -2.68162E-02
    8996.698     -0.812   1.440  9.31661E-01  9.24620E-01  7.04055E-03
    8997.143     -0.367   1.480  1.00410E+00  9.34922E-01  6.91735E-02
    8997.600      0.090   1.520  1.08609E+00  9.44690E-01  1.41403E-01
    8998.070      0.560   1.560  1.13798E+00  9.53860E-01  1.84115E-01
    8998.551      1.041   1.600  1.14198E+00  9.62452E-01  1.79528E-01
    8999.045      1.535   1.640  1.11822E+00  9.70467E-01  1.47754E-01
    8999.551      2.041   1.680  1.09512E+00  9.77908E-01  1.17207E-01
    9000.069      2.559   1.720  1.09093E+00  9.84759E-01  1.06169E-01
    9000.599      3.089   1.760  1.11749E+00  9.91046E-01  1.26446E-01
    9001.142      3.632   1.800  1.17730E+00  9.96755E-01  1.80549E-01
    9001.697      4.187   1.840  1.23816E+00  1.00195E+00  2.36211E-01
    9002.264      4.754   1.880  1.24489E+00  1.00659E+00  2.38298E-01
    9002.843      5.333   1.920  1.20731E+00  1.01074E+00  1.96570E-01
    9003.434      5.924   1.960  1.17266E+00  1.01439E+00  1.58274E-01
    9004.038      6.528   2.000  1.16477E+00  1.01755E+00  1.47225E-01
    9004.653      7.143   2.040  1.17157E+00  1.02029E+00  1.51279E-01
    9005.281      7.771   2.080  1.17089E+00  1.02259E+00  1.48300E-01
    9005.921      8.411   2.120  1.15930E+00  1.02448E+00  1.34821E-01
    9006.573      9.063   2.160  1.14647E+00  1.02601E+00  1.20456E-01
    9007.238      9.728   2.200  1.13971E+00  1.02718E+00  1.12533E-01
    9007.915     10.405   2.240  1.14088E+00  1.02801E+00  1.12874E-01
    9008.603     11.093   2.280  1.14910E+00  1.02854E+00  1.20559E-01
    9009.304     11.794   2.320  1.16329E+00  1.02879E+00  1.34506E-01
    9010.018     12.508   2.360  1.17458E+00  1.02880E+00  1.45776E-01
    9010.743     13.233   2.400  1.17298E+00  1.02857E+00  1.44401E-01
    9011.481     13.971   2.440  1.15909E+00  1.02814E+00  1.30958E-01
    9012.231     14.720   2.480  1.13958E+00  1.02750E+00  1.12084E-01
    9012.993     15.482   2.520  1.11848E+00  1.02671E+00  9.17697E-02
    9013.767     16.257   2.560  1.09560E+00  1.02577E+00  6.98252E-02
    9014.553     17.043   2.600  1.06985E+00  1.02470E+00  4.51439E-02
    9015.352     17.842   2.640  1.04008E+00  1.02351E+00  1.65654E-02
    9016.162     18.652   2.680  1.00720E+00  1.02226E+00 -1.50575E-02
    9016.985     19.475   2.720  9.73956E-01  1.02090E+00 -4.69478E-02
    9017.821     20.311   2.760  9.43161E-01  1.01952E+00 -7.63570E-02
    9018.668     21.158   2.800  9.16586E-01  1.01807E+00 -1.01481E-01
    9019.527     22.017   2.840  8.95413E-01  1.01660E+00 -1.21184E-01
    9020.399     22.889   2.880  8.79952E-01  1.01510E+00 -1.35145E-01
    9021.283     23.773   2.920  8.70493E-01  1.01359E+00 -1.43098E-01
    9022.179     24.669   2.960  8.67156E-01  1.01211E+00 -1.44953E-01
    9023.087     25.577   3.000  8.69186E-01  1.01061E+00 -1.41425E-01
    9024.008     26.498   3.040  8.75823E-01  1.00917E+00 -1.33343E-01
    9024.941     27.431   3.080  8.86389E-01  1.00774E+00 -1.21346E-01
    9025.885     28.375   3.120  9.00306E-01  1.00637E+00 -1.06060E-01
    9026.843     29.333   3.160  9.16680E-01  1.00502E+00 -8.83358E-02
    9027.812     30.302   3.200  9.34586E-01  1.00373E+00 -6.91471E-02
    9028.793     31.283   3.240  9.52826E-01  1.00250E+00 -4.96728E-02
    9029.787     32.277   3.280  9.70186E-01  1.00134E+00 -3.11519E-02
    9030.793     33.283   3.320  9.85744E-01  1.00025E+00 -1.45080E-02
    9031.811     34.301   3.360  9.98873E-01  9.99242E-01 -3.69670E-04
    9032.841     35.331   3.400  1.00920E+00  9.98288E-01  1.09142E-02
    9033.883     36.373   3.440  1.01653E+00  9.97411E-01  1.91241E-02
    9034.938     37.428   3.480  1.02064E+00  9.96636E-01  2.40082E-02
    9036.005     38.495   3.520  1.02165E+00  9.95919E-01  2.57335E-02
    9037.084     39.574   3.560  1.01988E+00  9.95282E-01  2.46017E-02
    9038.175     40.665   3.600  1.01578E+00  9.94729E-01  2.10517E-02
    9039.278     41.768   3.640  1.00991E+00  9.94277E-01  1.56323E-02
    9040.394     42.884   3.680  1.00267E+00  9.93885E-01  8.78325E-03
    9041.522     44.012   3.720  9.94297E-01  9.93594E-01  7.02393E-04
    9042.662     45.152   3.760  9.84872E-01  9.93364E-01 -8.49262E-03
    9043.814     46.304   3.800  9.74653E-01  9.93213E-01 -1.85609E-02
    9044.978     47.468   3.840  9.64467E-01  9.93162E-01 -2.86947E-02
    9046.155     48.645   3.880  9.55751E-01  9.93168E-01 -3.74169E-02
    9047.343     49.833   3.920  9.50192E-01  9.93250E-01 -4.30582E-02
    9048.544     51.034   3.960  9.49159E-01  9.93386E-01 -4.42270E-02
    9049.757     52.247   4.000  9.53281E-01  9.93618E-01 -4.03370E-02
    9050.983     53.473   4.040  9.61899E-01  9.93902E-01 -3.20024E-02
    9052.220     54.710   4.080  9.73551E-01  9.94234E-01 -2.06832E-02
    9053.470     55.960   4.120  9.86496E-01  9.94636E-01 -8.14046E-03
    9054.732     57.222   4.160  9.99187E-01  9.95086E-01  4.10176E-03
    9056.006     58.496   4.200  1.01055E+00  9.95600E-01  1.49532E-02
    9057.292     59.782   4.240  1.02010E+00  9.96137E-01  2.39665E-02
    9058.590     61.080   4.280  1.02806E+00  9.96735E-01  3.13285E-02
    9059.901     62.391   4.320  1.03509E+00  9.97351E-01  3.77437E-02
    9061.224     63.714   4.360  1.04212E+00  9.98026E-01  4.40956E-02
    9062.559     65.049   4.400  1.04959E+00  9.98713E-01  5.08788E-02
    9063.906     66.396   4.440  1.05707E+00  9.99432E-01  5.76423E-02
    9065.265     67.755   4.480  1.06313E+00  1.00016E+00  6.29715E-02
    9066.637     69.127   4.520  1.06613E+00  1.00092E+00  6.52156E-02
    9068.021     70.511   4.560  1.06507E+00  1.00165E+00  6.34150E-02
    9069.417     71.907   4.600  1.06026E+00  1.00241E+00  5.78433E-02
    9070.825     73.315   4.640  1.05285E+00  1.00317E+00  4.96729E-02
    9072.245     74.735   4.680  1.04434E+00  1.00393E+00  4.04097E-02
    9073.678     76.168   4.720  1.03599E+00  1.00469E+00  3.12986E-02
    9075.123     77.613   4.760  1.02842E+00  1.00544E+00  2.29763E-02
    9076.580     79.070   4.800  1.02163E+00  1.00617E+00  1.54662E-02
    9078.049     80.539   4.840  1.01535E+00  1.00688E+00  8.47606E-03
    9079.530     82.020   4.880  1.00928E+00  1.00755E+00  1.72366E-03
    9081.024     83.514   4.920  1.00337E+00  1.00819E+00 -4.82367E-03
    9082.529     85.019   4.960  9.97933E-01  1.00882E+00 -1.08866E-02
    9084.047     86.537   5.000  9.93480E-01  1.00941E+00 -1.59286E-02
    9085.577     88.067   5.040  9.90660E-01  1.00996E+00 -1.92978E-02
    9087.120     89.610   5.080  9.90028E-01  1.01047E+00 -2.04375E-02
    9088.674     91.164   5.120  9.91836E-01  1.01093E+00 -1.90938E-02
    9090.241     92.731   5.160  9.95774E-01  1.01135E+00 -1.55756E-02
    9091.820     94.310   5.200  1.00073E+00  1.01170E+00 -1.09697E-02
    9093.411     95.901   5.240  1.00523E+00  1.01203E+00 -6.80970E-03
    9095.014     97.504   5.280  1.00795E+00  1.01230E+00 -4.34866E-03
    9096.629     99.119   5.320  1.00859E+00  1.01252E+00 -3.92737E-03
    9098.257    100.747   5.360  1.00754E+00  1.01269E+00 -5.15128E-03
    9099.897    102.387   5.400  1.00533E+00  1.01282E+00 -7.49004E-03
    9101.549    104.039   5.440  1.00225E+00  1.01287E+00 -1.06197E-02
    9103.213    105.703   5.480  9.98597E-01  1.01288E+00 -1.42801E-02
    9104.889    107.379   5.520  9.94843E-01  1.01281E+00 -1.79708E-02
    9106.578    109.068   5.560  9.91828E-01  1.01270E+00 -2.08753E-02
    9108.279    110.769   5.600  9.90447E-01  1.01255E+00 -2.21010E-02
    9109.992    112.482   5.640  9.91169E-01  1.01235E+00 -2.11777E-02
    9111.717    114.207   5.680  9.93814E-01  1.01208E+00 -1.82635E-02
    9113.454    115.944   5.720  9.97788E-01  1.01176E+00 -1.39752E-02
    9115.204    117.694   5.760  1.00221E+00  1.01141E+00 -9.19289E-03
    9116.965    119.455   5.800  1.00594E+00  1.01101E+00 -5.07172E-03
    9118.739    121.229   5.840  1.00783E+00  1.01058E+00 -2.74777E-03
    9120.525    123.015   5.880  1.00741E+00  1.01010E+00 -2.68632E-03
    9122.324    124.814   5.920  1.00524E+00  1.00957E+00 -4.32578E-03
    9124.134    126.624   5.960  1.00240E+00  1.00902E+00 -6.62392E-03
    9125.957    128.447   6.000  9.99390E-01  1.00842E+00 -9.02606E-03
