# # comment:                                                     FEFF 9.9.1  
# # Source:
# # Structure
# # Reduced
# # space
# # abc:
# # angles:
# # sites:
# # POT  SCF 100  7.0000   0, screened core-hole, AFOLP (folp(0)= 1.150)
# # Abs   Z=29 Rmt= 1.185 Rnm= 1.276 K  shell
# # Pot 1 Z=38 Rmt= 1.697 Rnm= 1.760
# # Pot 2 Z=20 Rmt= 1.642 Rnm= 1.707
# # Pot 3 Z=29 Rmt= 1.197 Rnm= 1.283
# # Pot 4 Z= 8 Rmt= 1.076 Rnm= 1.125
# # Gam_ch=1.729E+00 H-L exch Vi= 0.000E+00 Vr= 0.000E+00
# # Mu=-1.066E+01eV kf=1.962E+00 Vint=-1.948E+01eV Rs_int= 1.848
# FMS rfms= 9.0000
# # PATH  Rmax=-1.000,  Keep_limit= 0.00, Heap_limit 0.00  Pwcrit= 2.50%
#  S02=0.950  Temp=   0.00  Debye_temp=   0.00  Global_sig2= 0.00000
#  Energy zero shift, vr, vi    0.00000E+00   0.00000E+00
#  Curved wave amplitude ratio filter   4.000%
#     file         sig2 tot  cw amp ratio   deg  nlegs   reff  inp sig2
#     0/   0 paths used
#  xsedge+ 50, used to normalize mu           2.4536E-04
#  -----------------------------------------------------------------------
#  omega    e    k    mu    mu0     chi     @#
    8986.280    -14.465  -1.000  3.93445E-02  5.60018E-02 -1.66574E-02
    8986.579    -14.166  -0.960  4.16321E-02  6.01164E-02 -1.84843E-02
    8986.865    -13.880  -0.920  4.41439E-02  6.46914E-02 -2.05476E-02
    8987.140    -13.606  -0.880  4.69131E-02  6.97949E-02 -2.28819E-02
    8987.402    -13.343  -0.840  4.99787E-02  7.55060E-02 -2.55273E-02
    8987.652    -13.093  -0.800  5.33863E-02  8.19164E-02 -2.85301E-02
    8987.889    -12.856  -0.760  5.71882E-02  8.91313E-02 -3.19431E-02
    8988.115    -12.630  -0.720  6.14439E-02  9.72695E-02 -3.58256E-02
    8988.328    -12.417  -0.680  6.62191E-02  1.06462E-01 -4.02429E-02
    8988.530    -12.216  -0.640  7.15836E-02  1.16847E-01 -4.52635E-02
    8988.719    -12.027  -0.600  7.76064E-02  1.28561E-01 -5.09542E-02
    8988.895    -11.850  -0.560  8.43476E-02  1.41718E-01 -5.73707E-02
    8989.060    -11.685  -0.520  9.18454E-02  1.56389E-01 -6.45440E-02
    8989.212    -11.533  -0.480  1.00099E-01  1.72559E-01 -7.24595E-02
    8989.353    -11.393  -0.440  1.09048E-01  1.90084E-01 -8.10359E-02
    8989.481    -11.265  -0.400  1.18555E-01  2.08660E-01 -9.01054E-02
    8989.596    -11.149  -0.360  1.28396E-01  2.27807E-01 -9.94107E-02
    8989.700    -11.045  -0.320  1.38276E-01  2.46901E-01 -1.08625E-01
    8989.791    -10.954  -0.280  1.47853E-01  2.65249E-01 -1.17396E-01
    8989.871    -10.875  -0.240  1.56785E-01  2.82184E-01 -1.25399E-01
    8989.938    -10.807  -0.200  1.64771E-01  2.97150E-01 -1.32379E-01
    8989.993    -10.753  -0.160  1.71566E-01  3.09739E-01 -1.38173E-01
    8990.035    -10.710  -0.120  1.76993E-01  3.19689E-01 -1.42696E-01
    8990.066    -10.679  -0.080  1.80933E-01  3.26857E-01 -1.45924E-01
    8990.090    -10.655   0.000  1.84109E-01  3.32615E-01 -1.48506E-01
    8990.145    -10.600   0.120  1.91454E-01  3.45610E-01 -1.54156E-01
    8990.188    -10.558   0.160  1.97198E-01  3.55686E-01 -1.58488E-01
    8990.243    -10.503   0.200  2.04632E-01  3.68568E-01 -1.63936E-01
    8990.310    -10.436   0.240  2.13721E-01  3.84079E-01 -1.70358E-01
    8990.389    -10.356   0.280  2.24294E-01  4.01869E-01 -1.77574E-01
    8990.480    -10.265   0.320  2.36080E-01  4.21483E-01 -1.85402E-01
    8990.584    -10.161   0.360  2.48622E-01  4.42378E-01 -1.93756E-01
    8990.700    -10.045   0.400  2.61136E-01  4.63912E-01 -2.02776E-01
    8990.828     -9.917   0.440  2.72536E-01  4.85558E-01 -2.13022E-01
    8990.968     -9.777   0.480  2.81442E-01  5.06871E-01 -2.25429E-01
    8991.120     -9.625   0.520  2.86558E-01  5.27560E-01 -2.41001E-01
    8991.285     -9.460   0.560  2.87314E-01  5.47499E-01 -2.60184E-01
    8991.462     -9.283   0.600  2.84267E-01  5.66633E-01 -2.82366E-01
    8991.651     -9.095   0.640  2.78839E-01  5.85022E-01 -3.06183E-01
    8991.852     -8.893   0.680  2.72587E-01  6.02763E-01 -3.30176E-01
    8992.065     -8.680   0.720  2.66650E-01  6.19925E-01 -3.53275E-01
    8992.291     -8.454   0.760  2.61938E-01  6.36600E-01 -3.74662E-01
    8992.529     -8.217   0.800  2.59202E-01  6.52886E-01 -3.93684E-01
    8992.778     -7.967   0.840  2.58893E-01  6.68829E-01 -4.09936E-01
    8993.041     -7.705   0.880  2.61008E-01  6.84502E-01 -4.23494E-01
    8993.315     -7.430   0.920  2.65503E-01  6.99921E-01 -4.34418E-01
    8993.601     -7.144   0.960  2.72652E-01  7.15091E-01 -4.42438E-01
    8993.900     -6.845   1.000  2.82866E-01  7.30046E-01 -4.47180E-01
    8994.211     -6.534   1.040  2.96143E-01  7.44791E-01 -4.48648E-01
    8994.534     -6.211   1.080  3.12006E-01  7.59323E-01 -4.47317E-01
    8994.869     -5.876   1.120  3.30845E-01  7.73610E-01 -4.42764E-01
    8995.217     -5.528   1.160  3.54968E-01  7.87640E-01 -4.32672E-01
    8995.577     -5.169   1.200  3.87136E-01  8.01374E-01 -4.14239E-01
    8995.948     -4.797   1.240  4.29064E-01  8.14831E-01 -3.85767E-01
    8996.332     -4.413   1.280  4.78366E-01  8.27965E-01 -3.49599E-01
    8996.729     -4.017   1.320  5.24094E-01  8.40732E-01 -3.16637E-01
    8997.137     -3.608   1.360  5.60586E-01  8.53146E-01 -2.92560E-01
    8997.558     -3.188   1.400  6.02587E-01  8.65139E-01 -2.62552E-01
    8997.991     -2.755   1.440  6.69166E-01  8.76726E-01 -2.07560E-01
    8998.436     -2.310   1.480  7.66674E-01  8.87881E-01 -1.21208E-01
    8998.893     -1.852   1.520  8.85727E-01  8.98578E-01 -1.28504E-02
    8999.362     -1.383   1.560  9.93454E-01  9.08789E-01  8.46644E-02
    8999.844     -0.902   1.600  1.04567E+00  9.18513E-01  1.27155E-01
    9000.337     -0.408   1.640  1.03743E+00  9.27746E-01  1.09688E-01
    9000.843      0.098   1.680  1.01795E+00  9.36465E-01  8.14810E-02
    9001.362      0.616   1.720  1.03955E+00  9.44671E-01  9.48832E-02
    9001.892      1.147   1.760  1.13472E+00  9.52387E-01  1.82331E-01
    9002.434      1.689   1.800  1.31462E+00  9.59591E-01  3.55032E-01
    9002.989      2.244   1.840  1.53428E+00  9.66267E-01  5.68012E-01
    9003.556      2.811   1.880  1.66462E+00  9.72461E-01  6.92157E-01
    9004.135      3.390   1.920  1.62297E+00  9.78178E-01  6.44788E-01
    9004.727      3.981   1.960  1.48020E+00  9.83403E-01  4.96796E-01
    9005.330      4.585   2.000  1.34470E+00  9.88165E-01  3.56530E-01
    9005.946      5.201   2.040  1.24347E+00  9.92470E-01  2.51000E-01
    9006.574      5.828   2.080  1.16557E+00  9.96347E-01  1.69220E-01
    9007.214      6.469   2.120  1.10300E+00  9.99805E-01  1.03193E-01
    9007.866      7.121   2.160  1.05452E+00  1.00285E+00  5.16680E-02
    9008.530      7.785   2.200  1.02017E+00  1.00552E+00  1.46420E-02
    9009.207      8.462   2.240  1.00230E+00  1.00782E+00 -5.52794E-03
    9009.896      9.151   2.280  1.00828E+00  1.00979E+00 -1.51140E-03
    9010.597      9.852   2.320  1.04280E+00  1.01145E+00  3.13501E-02
    9011.310     10.565   2.360  1.10233E+00  1.01278E+00  8.95478E-02
    9012.036     11.290   2.400  1.16826E+00  1.01386E+00  1.54406E-01
    9012.773     12.028   2.440  1.21422E+00  1.01465E+00  1.99563E-01
    9013.523     12.778   2.480  1.23707E+00  1.01520E+00  2.21869E-01
    9014.285     13.540   2.520  1.23883E+00  1.01554E+00  2.23295E-01
    9015.059     14.314   2.560  1.22392E+00  1.01567E+00  2.08249E-01
    9015.846     15.100   2.600  1.19810E+00  1.01562E+00  1.82478E-01
    9016.644     15.899   2.640  1.16468E+00  1.01541E+00  1.49272E-01
    9017.455     16.710   2.680  1.12563E+00  1.01504E+00  1.10599E-01
    9018.278     17.533   2.720  1.08368E+00  1.01454E+00  6.91435E-02
    9019.113     18.368   2.760  1.04168E+00  1.01394E+00  2.77424E-02
    9019.960     19.215   2.800  1.00143E+00  1.01322E+00 -1.17946E-02
    9020.820     20.075   2.840  9.63649E-01  1.01242E+00 -4.87734E-02
    9021.692     20.946   2.880  9.28553E-01  1.01154E+00 -8.29905E-02
    9022.576     21.830   2.920  8.96328E-01  1.01061E+00 -1.14283E-01
    9023.472     22.726   2.960  8.68041E-01  1.00961E+00 -1.41574E-01
    9024.380     23.635   3.000  8.44518E-01  1.00860E+00 -1.64080E-01
    9025.300     24.555   3.040  8.26048E-01  1.00757E+00 -1.81521E-01
    9026.233     25.488   3.080  8.12565E-01  1.00651E+00 -1.93946E-01
    9027.178     26.433   3.120  8.03790E-01  1.00545E+00 -2.01657E-01
    9028.135     27.390   3.160  7.99295E-01  1.00438E+00 -2.05089E-01
    9029.104     28.359   3.200  7.98820E-01  1.00332E+00 -2.04504E-01
    9030.086     29.341   3.240  8.02398E-01  1.00229E+00 -1.99895E-01
    9031.079     30.334   3.280  8.09644E-01  1.00129E+00 -1.91650E-01
    9032.085     31.340   3.320  8.20153E-01  1.00031E+00 -1.80156E-01
    9033.103     32.358   3.360  8.33732E-01  9.99361E-01 -1.65630E-01
    9034.134     33.388   3.400  8.50246E-01  9.98474E-01 -1.48228E-01
    9035.176     34.431   3.440  8.69237E-01  9.97609E-01 -1.28372E-01
    9036.231     35.485   3.480  8.90014E-01  9.96807E-01 -1.06793E-01
    9037.297     36.552   3.520  9.11510E-01  9.96050E-01 -8.45402E-02
    9038.376     37.631   3.560  9.32913E-01  9.95341E-01 -6.24281E-02
    9039.468     38.722   3.600  9.54176E-01  9.94702E-01 -4.05265E-02
    9040.571     39.826   3.640  9.75758E-01  9.94133E-01 -1.83756E-02
    9041.686     40.941   3.680  9.97952E-01  9.93612E-01  4.33944E-03
    9042.814     42.069   3.720  1.02034E+00  9.93140E-01  2.71950E-02
    9043.954     43.209   3.760  1.04183E+00  9.92739E-01  4.90861E-02
    9045.106     44.361   3.800  1.06080E+00  9.92389E-01  6.84138E-02
    9046.271     45.525   3.840  1.07561E+00  9.92131E-01  8.34760E-02
    9047.447     46.702   3.880  1.08482E+00  9.91903E-01  9.29162E-02
    9048.636     47.891   3.920  1.08779E+00  9.91745E-01  9.60482E-02
    9049.837     49.092   3.960  1.08469E+00  9.91658E-01  9.30270E-02
    9051.050     50.305   4.000  1.07658E+00  9.91622E-01  8.49597E-02
    9052.275     51.530   4.040  1.06517E+00  9.91653E-01  7.35123E-02
    9053.513     52.767   4.080  1.05214E+00  9.91732E-01  6.04054E-02
    9054.762     54.017   4.120  1.03905E+00  9.91857E-01  4.71886E-02
    9056.024     55.279   4.160  1.02713E+00  9.92046E-01  3.50877E-02
    9057.298     56.553   4.200  1.01699E+00  9.92257E-01  2.47319E-02
    9058.584     57.839   4.240  1.00838E+00  9.92532E-01  1.58448E-02
    9059.883     59.138   4.280  1.00044E+00  9.92849E-01  7.59428E-03
    9061.194     60.448   4.320  9.92506E-01  9.93207E-01 -7.00952E-04
    9062.516     61.771   4.360  9.84580E-01  9.93603E-01 -9.02325E-03
    9063.851     63.106   4.400  9.77426E-01  9.94035E-01 -1.66088E-02
    9065.199     64.453   4.440  9.72382E-01  9.94481E-01 -2.21000E-02
    9066.558     65.813   4.480  9.71265E-01  9.94982E-01 -2.37175E-02
    9067.930     67.184   4.520  9.75995E-01  9.95472E-01 -1.94774E-02
    9069.313     68.568   4.560  9.88252E-01  9.96012E-01 -7.75962E-03
    9070.709     69.964   4.600  1.00833E+00  9.96538E-01  1.17943E-02
    9072.118     71.372   4.640  1.03459E+00  9.97090E-01  3.74976E-02
    9073.538     72.793   4.680  1.06312E+00  9.97647E-01  6.54776E-02
    9074.970     74.225   4.720  1.08869E+00  9.98227E-01  9.04614E-02
    9076.415     75.670   4.760  1.10645E+00  9.98786E-01  1.07660E-01
    9077.872     77.127   4.800  1.11419E+00  9.99343E-01  1.14847E-01
    9079.341     78.596   4.840  1.11292E+00  9.99919E-01  1.13002E-01
    9080.823     80.077   4.880  1.10535E+00  1.00047E+00  1.04887E-01
    9082.316     81.571   4.920  1.09395E+00  1.00099E+00  9.29586E-02
    9083.822     83.077   4.960  1.07992E+00  1.00152E+00  7.83911E-02
    9085.340     84.595   5.000  1.06356E+00  1.00203E+00  6.15345E-02
    9086.870     86.125   5.040  1.04502E+00  1.00250E+00  4.25142E-02
    9088.412     87.667   5.080  1.02488E+00  1.00296E+00  2.19182E-02
    9089.967     89.221   5.120  1.00440E+00  1.00339E+00  1.01001E-03
    9091.533     90.788   5.160  9.85091E-01  1.00380E+00 -1.87079E-02
    9093.112     92.367   5.200  9.68204E-01  1.00417E+00 -3.59705E-02
    9094.703     93.958   5.240  9.54468E-01  1.00449E+00 -5.00199E-02
    9096.306     95.561   5.280  9.44381E-01  1.00479E+00 -6.04047E-02
    9097.922     97.177   5.320  9.37931E-01  1.00507E+00 -6.71362E-02
    9099.549     98.804   5.360  9.34557E-01  1.00529E+00 -7.07290E-02
    9101.189    100.444   5.400  9.33528E-01  1.00546E+00 -7.19353E-02
    9102.841    102.096   5.440  9.34178E-01  1.00560E+00 -7.14208E-02
    9104.505    103.760   5.480  9.35738E-01  1.00569E+00 -6.99569E-02
    9106.182    105.437   5.520  9.37072E-01  1.00577E+00 -6.86999E-02
    9107.870    107.125   5.560  9.36979E-01  1.00578E+00 -6.88053E-02
    9109.571    108.826   5.600  9.35228E-01  1.00575E+00 -7.05262E-02
    9111.284    110.539   5.640  9.32813E-01  1.00568E+00 -7.28694E-02
    9113.009    112.264   5.680  9.31271E-01  1.00557E+00 -7.42972E-02
    9114.747    114.001   5.720  9.31559E-01  1.00541E+00 -7.38523E-02
    9116.496    115.751   5.760  9.33737E-01  1.00519E+00 -7.14527E-02
    9118.258    117.513   5.800  9.37629E-01  1.00495E+00 -6.73247E-02
    9120.032    119.287   5.840  9.43407E-01  1.00468E+00 -6.12736E-02
    9121.818    121.073   5.880  9.51804E-01  1.00437E+00 -5.25664E-02
    9123.616    122.871   5.920  9.63378E-01  1.00402E+00 -4.06461E-02
    9125.427    124.682   5.960  9.77641E-01  1.00364E+00 -2.60007E-02
    9127.250    126.504   6.000  9.93621E-01  1.00320E+00 -9.57706E-03
