# # comment:                                                     FEFF 9.9.1  
# # Source:
# # Structure
# # Reduced
# # space
# # abc:
# # angles:
# # sites:
# # POT  SCF 100  7.0000   0, screened core-hole, AFOLP (folp(0)= 1.150)
# # Abs   Z=29 Rmt= 1.106 Rnm= 1.250 K  shell
# # Pot 1 Z=92 Rmt= 1.286 Rnm= 1.515
# # Pot 2 Z=29 Rmt= 1.106 Rnm= 1.250
# # Pot 3 Z= 8 Rmt= 1.025 Rnm= 1.129
# # Gam_ch=1.729E+00 H-L exch Vi= 0.000E+00 Vr= 0.000E+00
# # Mu=-9.648E+00eV kf=2.192E+00 Vint=-1.542E+01eV Rs_int= 1.654
# FMS rfms= 9.0000
# # PATH  Rmax=-1.000,  Keep_limit= 0.00, Heap_limit 0.00  Pwcrit= 2.50%
#  S02=0.950  Temp=   0.00  Debye_temp=   0.00  Global_sig2= 0.00000
#  Energy zero shift, vr, vi    0.00000E+00   0.00000E+00
#  Curved wave amplitude ratio filter   4.000%
#     file         sig2 tot  cw amp ratio   deg  nlegs   reff  inp sig2
#     0/   0 paths used
#  xsedge+ 50, used to normalize mu           2.4588E-04
#  -----------------------------------------------------------------------
#  omega    e    k    mu    mu0     chi     @#
    8983.733    -13.458  -1.000  2.83520E-02  4.88182E-02 -2.04662E-02
    8984.032    -13.159  -0.960  2.95622E-02  5.20881E-02 -2.25259E-02
    8984.318    -12.872  -0.920  3.08580E-02  5.56936E-02 -2.48356E-02
    8984.593    -12.598  -0.880  3.22509E-02  5.96813E-02 -2.74304E-02
    8984.855    -12.336  -0.840  3.37548E-02  6.41053E-02 -3.03505E-02
    8985.105    -12.086  -0.800  3.53862E-02  6.90278E-02 -3.36416E-02
    8985.342    -11.848  -0.760  3.71646E-02  7.45198E-02 -3.73551E-02
    8985.568    -11.623  -0.720  3.91127E-02  8.06611E-02 -4.15484E-02
    8985.781    -11.409  -0.680  4.12558E-02  8.75390E-02 -4.62832E-02
    8985.983    -11.208  -0.640  4.36216E-02  9.52451E-02 -5.16235E-02
    8986.172    -11.019  -0.600  4.62376E-02  1.03868E-01 -5.76308E-02
    8986.348    -10.843  -0.560  4.91276E-02  1.13484E-01 -6.43564E-02
    8986.513    -10.678  -0.520  5.23051E-02  1.24134E-01 -7.18291E-02
    8986.665    -10.526  -0.480  5.57654E-02  1.35804E-01 -8.00388E-02
    8986.806    -10.385  -0.440  5.94749E-02  1.48393E-01 -8.89179E-02
    8986.934    -10.257  -0.400  6.33638E-02  1.61689E-01 -9.83251E-02
    8987.049    -10.142  -0.360  6.73241E-02  1.75362E-01 -1.08038E-01
    8987.153    -10.038  -0.320  7.12190E-02  1.88985E-01 -1.17766E-01
    8987.244     -9.946  -0.280  7.49029E-02  2.02079E-01 -1.27176E-01
    8987.324     -9.867  -0.240  7.82445E-02  2.14181E-01 -1.35937E-01
    8987.391     -9.800  -0.200  8.11450E-02  2.24899E-01 -1.43754E-01
    8987.446     -9.745  -0.160  8.35440E-02  2.33937E-01 -1.50393E-01
    8987.488     -9.703  -0.120  8.54150E-02  2.41101E-01 -1.55686E-01
    8987.519     -9.672  -0.080  8.67570E-02  2.46274E-01 -1.59517E-01
    8987.543     -9.648   0.000  8.78729E-02  2.50441E-01 -1.62568E-01
    8987.598     -9.593   0.120  9.05923E-02  2.59854E-01 -1.69262E-01
    8987.641     -9.550   0.160  9.24939E-02  2.67202E-01 -1.74708E-01
    8987.696     -9.495   0.200  9.47708E-02  2.76630E-01 -1.81860E-01
    8987.763     -9.428   0.240  9.72905E-02  2.88050E-01 -1.90759E-01
    8987.842     -9.349   0.280  9.98832E-02  3.01292E-01 -2.01409E-01
    8987.933     -9.258   0.320  1.02319E-01  3.16086E-01 -2.13768E-01
    8988.037     -9.154   0.360  1.04402E-01  3.32126E-01 -2.27724E-01
    8988.153     -9.038   0.400  1.05871E-01  3.49013E-01 -2.43142E-01
    8988.281     -8.910   0.440  1.06672E-01  3.66438E-01 -2.59766E-01
    8988.421     -8.770   0.480  1.06877E-01  3.84148E-01 -2.77270E-01
    8988.573     -8.618   0.520  1.06744E-01  4.01980E-01 -2.95236E-01
    8988.738     -8.453   0.560  1.06647E-01  4.19822E-01 -3.13175E-01
    8988.915     -8.276   0.600  1.06994E-01  4.37666E-01 -3.30672E-01
    8989.104     -8.087   0.640  1.08178E-01  4.55570E-01 -3.47391E-01
    8989.305     -7.886   0.680  1.10412E-01  4.73551E-01 -3.63139E-01
    8989.518     -7.673   0.720  1.13924E-01  4.91675E-01 -3.77751E-01
    8989.744     -7.447   0.760  1.18905E-01  5.09982E-01 -3.91077E-01
    8989.982     -7.209   0.800  1.25482E-01  5.28484E-01 -4.03002E-01
    8990.231     -6.959   0.840  1.33596E-01  5.47226E-01 -4.13630E-01
    8990.494     -6.697   0.880  1.43006E-01  5.66198E-01 -4.23192E-01
    8990.768     -6.423   0.920  1.53975E-01  5.85421E-01 -4.31446E-01
    8991.054     -6.136   0.960  1.67263E-01  6.04847E-01 -4.37584E-01
    8991.353     -5.838   1.000  1.83722E-01  6.24457E-01 -4.40735E-01
    8991.664     -5.527   1.040  2.04554E-01  6.44227E-01 -4.39672E-01
    8991.987     -5.204   1.080  2.31138E-01  6.64104E-01 -4.32966E-01
    8992.322     -4.868   1.120  2.63609E-01  6.84032E-01 -4.20422E-01
    8992.670     -4.521   1.160  2.99698E-01  7.03929E-01 -4.04231E-01
    8993.030     -4.161   1.200  3.36252E-01  7.23791E-01 -3.87539E-01
    8993.401     -3.789   1.240  3.72361E-01  7.43490E-01 -3.71130E-01
    8993.785     -3.405   1.280  4.11407E-01  7.62999E-01 -3.51592E-01
    8994.182     -3.009   1.320  4.58718E-01  7.82246E-01 -3.23529E-01
    8994.590     -2.601   1.360  5.07466E-01  8.01162E-01 -2.93696E-01
    8995.011     -2.180   1.400  5.43172E-01  8.19677E-01 -2.76506E-01
    8995.444     -1.747   1.440  5.68255E-01  8.37721E-01 -2.69467E-01
    8995.889     -1.302   1.480  5.88674E-01  8.55248E-01 -2.66573E-01
    8996.346     -0.845   1.520  5.95455E-01  8.72210E-01 -2.76755E-01
    8996.815     -0.376   1.560  5.87706E-01  8.88565E-01 -3.00859E-01
    8997.297      0.106   1.600  5.82091E-01  9.04232E-01 -3.22141E-01
    8997.790      0.600   1.640  5.91111E-01  9.19191E-01 -3.28079E-01
    8998.296      1.106   1.680  6.11056E-01  9.33426E-01 -3.22370E-01
    8998.815      1.624   1.720  6.28656E-01  9.46885E-01 -3.18229E-01
    8999.345      2.154   1.760  6.38180E-01  9.59558E-01 -3.21378E-01
    8999.887      2.697   1.800  6.46430E-01  9.71438E-01 -3.25008E-01
    9000.442      3.251   1.840  6.66050E-01  9.82501E-01 -3.16451E-01
    9001.009      3.818   1.880  7.04142E-01  9.92747E-01 -2.88605E-01
    9001.588      4.397   1.920  7.59754E-01  1.00220E+00 -2.42442E-01
    9002.180      4.989   1.960  8.26955E-01  1.01083E+00 -1.83879E-01
    9002.783      5.592   2.000  9.04699E-01  1.01868E+00 -1.13985E-01
    9003.399      6.208   2.040  1.00078E+00  1.02574E+00 -2.49584E-02
    9004.027      6.836   2.080  1.11823E+00  1.03207E+00  8.61623E-02
    9004.667      7.476   2.120  1.24941E+00  1.03766E+00  2.11747E-01
    9005.319      8.128   2.160  1.37894E+00  1.04253E+00  3.36413E-01
    9005.983      8.793   2.200  1.48459E+00  1.04674E+00  4.37857E-01
    9006.660      9.469   2.240  1.54431E+00  1.05031E+00  4.93999E-01
    9007.349     10.158   2.280  1.55211E+00  1.05325E+00  4.98856E-01
    9008.050     10.859   2.320  1.52266E+00  1.05562E+00  4.67043E-01
    9008.763     11.572   2.360  1.47331E+00  1.05744E+00  4.15866E-01
    9009.489     12.298   2.400  1.41542E+00  1.05874E+00  3.56683E-01
    9010.226     13.035   2.440  1.36255E+00  1.05958E+00  3.02973E-01
    9010.976     13.785   2.480  1.32594E+00  1.05994E+00  2.65995E-01
    9011.738     14.547   2.520  1.30123E+00  1.05992E+00  2.41307E-01
    9012.512     15.321   2.560  1.27152E+00  1.05952E+00  2.11997E-01
    9013.299     16.108   2.600  1.23905E+00  1.05877E+00  1.80281E-01
    9014.097     16.906   2.640  1.21654E+00  1.05769E+00  1.58848E-01
    9014.908     17.717   2.680  1.20044E+00  1.05633E+00  1.44117E-01
    9015.731     18.540   2.720  1.18341E+00  1.05473E+00  1.28673E-01
    9016.566     19.375   2.760  1.16357E+00  1.05290E+00  1.10663E-01
    9017.413     20.223   2.800  1.14228E+00  1.05087E+00  9.14092E-02
    9018.273     21.082   2.840  1.12180E+00  1.04865E+00  7.31494E-02
    9019.145     21.954   2.880  1.10335E+00  1.04629E+00  5.70621E-02
    9020.029     22.838   2.920  1.08744E+00  1.04380E+00  4.36366E-02
    9020.925     23.734   2.960  1.07392E+00  1.04122E+00  3.26943E-02
    9021.833     24.642   3.000  1.06222E+00  1.03854E+00  2.36856E-02
    9022.753     25.563   3.040  1.05167E+00  1.03580E+00  1.58666E-02
    9023.686     26.495   3.080  1.04135E+00  1.03302E+00  8.33660E-03
    9024.631     27.440   3.120  1.03021E+00  1.03019E+00  2.00466E-05
    9025.588     28.397   3.160  1.01736E+00  1.02736E+00 -1.00014E-02
    9026.557     29.367   3.200  1.00249E+00  1.02451E+00 -2.20156E-02
    9027.539     30.348   3.240  9.85983E-01  1.02168E+00 -3.56979E-02
    9028.532     31.342   3.280  9.68564E-01  1.01889E+00 -5.03270E-02
    9029.538     32.347   3.320  9.51082E-01  1.01611E+00 -6.50323E-02
    9030.556     33.365   3.360  9.34476E-01  1.01339E+00 -7.89148E-02
    9031.587     34.396   3.400  9.19303E-01  1.01072E+00 -9.14200E-02
    9032.629     35.438   3.440  9.05824E-01  1.00813E+00 -1.02308E-01
    9033.684     36.493   3.480  8.94183E-01  1.00561E+00 -1.11429E-01
    9034.750     37.559   3.520  8.84410E-01  1.00315E+00 -1.18743E-01
    9035.829     38.638   3.560  8.76376E-01  1.00079E+00 -1.24416E-01
    9036.921     39.730   3.600  8.69862E-01  9.98519E-01 -1.28657E-01
    9038.024     40.833   3.640  8.64724E-01  9.96337E-01 -1.31612E-01
    9039.139     41.949   3.680  8.60744E-01  9.94262E-01 -1.33518E-01
    9040.267     43.076   3.720  8.57864E-01  9.92296E-01 -1.34432E-01
    9041.407     44.216   3.760  8.56309E-01  9.90432E-01 -1.34123E-01
    9042.559     45.368   3.800  8.56577E-01  9.88684E-01 -1.32106E-01
    9043.724     46.533   3.840  8.58977E-01  9.87026E-01 -1.28049E-01
    9044.900     47.709   3.880  8.63866E-01  9.85508E-01 -1.21642E-01
    9046.089     48.898   3.920  8.71331E-01  9.84088E-01 -1.12757E-01
    9047.290     50.099   3.960  8.81331E-01  9.82809E-01 -1.01478E-01
    9048.503     51.312   4.000  8.93556E-01  9.81628E-01 -8.80717E-02
    9049.728     52.537   4.040  9.07716E-01  9.80564E-01 -7.28485E-02
    9050.966     53.775   4.080  9.23340E-01  9.79619E-01 -5.62789E-02
    9052.215     55.024   4.120  9.39754E-01  9.78792E-01 -3.90382E-02
    9053.477     56.286   4.160  9.56216E-01  9.78062E-01 -2.18461E-02
    9054.751     57.560   4.200  9.72070E-01  9.77470E-01 -5.40036E-03
    9056.038     58.847   4.240  9.86666E-01  9.76974E-01  9.69139E-03
    9057.336     60.145   4.280  9.99654E-01  9.76595E-01  2.30588E-02
    9058.647     61.456   4.320  1.01095E+00  9.76331E-01  3.46219E-02
    9059.969     62.779   4.360  1.02063E+00  9.76158E-01  4.44759E-02
    9061.304     64.114   4.400  1.02894E+00  9.76097E-01  5.28400E-02
    9062.652     65.461   4.440  1.03602E+00  9.76126E-01  5.98903E-02
    9064.011     66.820   4.480  1.04186E+00  9.76264E-01  6.55915E-02
    9065.383     68.192   4.520  1.04621E+00  9.76488E-01  6.97262E-02
    9066.766     69.576   4.560  1.04884E+00  9.76795E-01  7.20434E-02
    9068.162     70.972   4.600  1.04961E+00  9.77185E-01  7.24284E-02
    9069.571     72.380   4.640  1.04866E+00  9.77654E-01  7.10090E-02
    9070.991     73.800   4.680  1.04649E+00  9.78201E-01  6.82851E-02
    9072.423     75.233   4.720  1.04370E+00  9.78826E-01  6.48718E-02
    9073.868     76.677   4.760  1.04090E+00  9.79503E-01  6.13974E-02
    9075.325     78.134   4.800  1.03866E+00  9.80253E-01  5.84063E-02
    9076.794     79.603   4.840  1.03732E+00  9.81075E-01  5.62444E-02
    9078.276     81.085   4.880  1.03690E+00  9.81942E-01  5.49552E-02
    9079.769     82.578   4.920  1.03715E+00  9.82851E-01  5.43036E-02
    9081.275     84.084   4.960  1.03760E+00  9.83800E-01  5.38009E-02
    9082.793     85.602   5.000  1.03774E+00  9.84765E-01  5.29705E-02
    9084.323     87.132   5.040  1.03736E+00  9.85785E-01  5.15742E-02
    9085.865     88.674   5.080  1.03644E+00  9.86819E-01  4.96171E-02
    9087.420     90.229   5.120  1.03513E+00  9.87884E-01  4.72505E-02
    9088.986     91.795   5.160  1.03350E+00  9.88956E-01  4.45453E-02
    9090.565     93.374   5.200  1.03147E+00  9.90030E-01  4.14386E-02
    9092.156     94.965   5.240  1.02893E+00  9.91128E-01  3.78004E-02
    9093.759     96.569   5.280  1.02569E+00  9.92203E-01  3.34824E-02
    9095.375     98.184   5.320  1.02162E+00  9.93273E-01  2.83459E-02
    9097.002     99.812   5.360  1.01661E+00  9.94338E-01  2.22716E-02
    9098.642    101.451   5.400  1.01070E+00  9.95396E-01  1.53008E-02
    9100.294    103.103   5.440  1.00400E+00  9.96397E-01  7.60230E-03
    9101.958    104.768   5.480  9.96838E-01  9.97407E-01 -5.68846E-04
    9103.635    106.444   5.520  9.89479E-01  9.98357E-01 -8.87761E-03
    9105.323    108.133   5.560  9.82363E-01  9.99266E-01 -1.69034E-02
    9107.024    109.833   5.600  9.75920E-01  1.00016E+00 -2.42373E-02
    9108.737    111.546   5.640  9.70416E-01  1.00098E+00 -3.05678E-02
    9110.462    113.272   5.680  9.66086E-01  1.00176E+00 -3.56781E-02
    9112.200    115.009   5.720  9.63031E-01  1.00250E+00 -3.94655E-02
    9113.949    116.758   5.760  9.61248E-01  1.00316E+00 -4.19109E-02
    9115.711    118.520   5.800  9.60697E-01  1.00377E+00 -4.30730E-02
    9117.485    120.294   5.840  9.61256E-01  1.00431E+00 -4.30507E-02
    9119.271    122.080   5.880  9.62760E-01  1.00479E+00 -4.20300E-02
    9121.069    123.878   5.920  9.64868E-01  1.00519E+00 -4.03242E-02
    9122.880    125.689   5.960  9.67166E-01  1.00552E+00 -3.83582E-02
    9124.703    127.512   6.000  9.69151E-01  1.00570E+00 -3.65522E-02
