# # comment:                                                     FEFF 9.9.1  
# # Source:
# # Structure
# # Reduced
# # space
# # abc:
# # angles:
# # sites:
# # POT  SCF 100  7.0000   0, screened core-hole, AFOLP (folp(0)= 1.150)
# # Abs   Z=29 Rmt= 1.280 Rnm= 1.346 K  shell
# # Pot 1 Z=62 Rmt= 1.782 Rnm= 1.838
# # Pot 2 Z=29 Rmt= 1.274 Rnm= 1.341
# # Pot 3 Z=15 Rmt= 1.432 Rnm= 1.501
# # Pot 4 Z= 8 Rmt= 1.024 Rnm= 1.121
# # Gam_ch=1.729E+00 H-L exch Vi= 0.000E+00 Vr= 0.000E+00
# # Mu=-7.771E+00eV kf=1.932E+00 Vint=-1.672E+01eV Rs_int= 1.877
# FMS rfms= 9.0000
# # PATH  Rmax=-1.000,  Keep_limit= 0.00, Heap_limit 0.00  Pwcrit= 2.50%
#  S02=0.950  Temp=   0.00  Debye_temp=   0.00  Global_sig2= 0.00000
#  Energy zero shift, vr, vi    0.00000E+00   0.00000E+00
#  Curved wave amplitude ratio filter   4.000%
#     file         sig2 tot  cw amp ratio   deg  nlegs   reff  inp sig2
#     0/   0 paths used
#  xsedge+ 50, used to normalize mu           2.4378E-04
#  -----------------------------------------------------------------------
#  omega    e    k    mu    mu0     chi     @#
    8984.569    -11.581  -1.000  4.66418E-02  6.10345E-02 -1.43928E-02
    8984.867    -11.282  -0.960  4.94374E-02  6.56807E-02 -1.62433E-02
    8985.154    -10.996  -0.920  5.24752E-02  7.08602E-02 -1.83850E-02
    8985.428    -10.721  -0.880  5.57835E-02  7.66527E-02 -2.08692E-02
    8985.690    -10.459  -0.840  5.93944E-02  8.31513E-02 -2.37568E-02
    8985.940    -10.209  -0.800  6.33443E-02  9.04636E-02 -2.71193E-02
    8986.178     -9.972  -0.760  6.76740E-02  9.87137E-02 -3.10397E-02
    8986.403     -9.746  -0.720  7.24283E-02  1.08041E-01 -3.56132E-02
    8986.617     -9.533  -0.680  7.76555E-02  1.18602E-01 -4.09460E-02
    8986.818     -9.331  -0.640  8.34050E-02  1.30557E-01 -4.71521E-02
    8987.007     -9.142  -0.600  8.97228E-02  1.44069E-01 -5.43460E-02
    8987.184     -8.966  -0.560  9.66452E-02  1.59274E-01 -6.26293E-02
    8987.348     -8.801  -0.520  1.04187E-01  1.76256E-01 -7.20696E-02
    8987.501     -8.649  -0.480  1.12327E-01  1.94999E-01 -8.26718E-02
    8987.641     -8.509  -0.440  1.20993E-01  2.15337E-01 -9.43443E-02
    8987.769     -8.380  -0.400  1.30044E-01  2.36914E-01 -1.06870E-01
    8987.885     -8.265  -0.360  1.39269E-01  2.59166E-01 -1.19897E-01
    8987.988     -8.161  -0.320  1.48402E-01  2.81364E-01 -1.32962E-01
    8988.080     -8.070  -0.280  1.57145E-01  3.02695E-01 -1.45549E-01
    8988.159     -7.990  -0.240  1.65215E-01  3.22381E-01 -1.57166E-01
    8988.226     -7.923  -0.200  1.72367E-01  3.39772E-01 -1.67405E-01
    8988.281     -7.868  -0.160  1.78416E-01  3.54394E-01 -1.75979E-01
    8988.324     -7.826  -0.120  1.83233E-01  3.65947E-01 -1.82715E-01
    8988.354     -7.795  -0.080  1.86735E-01  3.74266E-01 -1.87531E-01
    8988.379     -7.771   0.000  1.89605E-01  3.80947E-01 -1.91343E-01
    8988.433     -7.716   0.120  1.96083E-01  3.95986E-01 -1.99904E-01
    8988.476     -7.673   0.160  2.01118E-01  4.07689E-01 -2.06571E-01
    8988.531     -7.619   0.200  2.07562E-01  4.22597E-01 -2.15036E-01
    8988.598     -7.551   0.240  2.15424E-01  4.40497E-01 -2.25073E-01
    8988.677     -7.472   0.280  2.24675E-01  4.61011E-01 -2.36336E-01
    8988.769     -7.381   0.320  2.35272E-01  4.83595E-01 -2.48323E-01
    8988.872     -7.277   0.360  2.47160E-01  5.07529E-01 -2.60368E-01
    8988.988     -7.161   0.400  2.60379E-01  5.32114E-01 -2.71735E-01
    8989.116     -7.033   0.440  2.74991E-01  5.56652E-01 -2.81662E-01
    8989.256     -6.893   0.480  2.91201E-01  5.80633E-01 -2.89432E-01
    8989.409     -6.741   0.520  3.09265E-01  6.03689E-01 -2.94424E-01
    8989.573     -6.576   0.560  3.29562E-01  6.25687E-01 -2.96125E-01
    8989.750     -6.399   0.600  3.52380E-01  6.46545E-01 -2.94165E-01
    8989.939     -6.210   0.640  3.77938E-01  6.66330E-01 -2.88392E-01
    8990.140     -6.009   0.680  4.06046E-01  6.85133E-01 -2.79087E-01
    8990.354     -5.796   0.720  4.36026E-01  7.03043E-01 -2.67017E-01
    8990.579     -5.570   0.760  4.66824E-01  7.20169E-01 -2.53345E-01
    8990.817     -5.333   0.800  4.97467E-01  7.36607E-01 -2.39140E-01
    8991.067     -5.083   0.840  5.27249E-01  7.52439E-01 -2.25190E-01
    8991.329     -4.820   0.880  5.55283E-01  7.67689E-01 -2.12406E-01
    8991.603     -4.546   0.920  5.80261E-01  7.82447E-01 -2.02186E-01
    8991.890     -4.260   0.960  6.01071E-01  7.96729E-01 -1.95657E-01
    8992.189     -3.961   1.000  6.18286E-01  8.10535E-01 -1.92249E-01
    8992.499     -3.650   1.040  6.34849E-01  8.23902E-01 -1.89053E-01
    8992.822     -3.327   1.080  6.55214E-01  8.36792E-01 -1.81578E-01
    8993.158     -2.992   1.120  6.82866E-01  8.49224E-01 -1.66358E-01
    8993.505     -2.644   1.160  7.17645E-01  8.61212E-01 -1.43567E-01
    8993.865     -2.285   1.200  7.57110E-01  8.72703E-01 -1.15593E-01
    8994.237     -1.913   1.240  8.01099E-01  8.83706E-01 -8.26073E-02
    8994.621     -1.529   1.280  8.52724E-01  8.94206E-01 -4.14828E-02
    8995.017     -1.132   1.320  9.14793E-01  9.04207E-01  1.05864E-02
    8995.425     -0.724   1.360  9.84741E-01  9.13690E-01  7.10506E-02
    8995.846     -0.303   1.400  1.05009E+00  9.22660E-01  1.27433E-01
    8996.279      0.129   1.440  1.09238E+00  9.31081E-01  1.61303E-01
    8996.724      0.574   1.480  1.10182E+00  9.38996E-01  1.62828E-01
    8997.181      1.032   1.520  1.08295E+00  9.46370E-01  1.36584E-01
    8997.651      1.501   1.560  1.04921E+00  9.53229E-01  9.59802E-02
    8998.132      1.983   1.600  1.01835E+00  9.59559E-01  5.87892E-02
    8998.626      2.476   1.640  1.00580E+00  9.65386E-01  4.04089E-02
    8999.132      2.982   1.680  1.01771E+00  9.70721E-01  4.69876E-02
    8999.650      3.501   1.720  1.04846E+00  9.75571E-01  7.28853E-02
    9000.180      4.031   1.760  1.08431E+00  9.79947E-01  1.04367E-01
    9000.723      4.573   1.800  1.11158E+00  9.83880E-01  1.27703E-01
    9001.278      5.128   1.840  1.12137E+00  9.87400E-01  1.33973E-01
    9001.845      5.695   1.880  1.11190E+00  9.90478E-01  1.21421E-01
    9002.424      6.274   1.920  1.09026E+00  9.93189E-01  9.70703E-02
    9003.015      6.866   1.960  1.06758E+00  9.95520E-01  7.20554E-02
    9003.618      7.469   2.000  1.05055E+00  9.97530E-01  5.30224E-02
    9004.234      8.085   2.040  1.03957E+00  9.99207E-01  4.03638E-02
    9004.862      8.713   2.080  1.03140E+00  1.00056E+00  3.08350E-02
    9005.502      9.353   2.120  1.02410E+00  1.00167E+00  2.24289E-02
    9006.154     10.005   2.160  1.01512E+00  1.00253E+00  1.25894E-02
    9006.819     10.669   2.200  1.00494E+00  1.00314E+00  1.80312E-03
    9007.496     11.346   2.240  9.98821E-01  1.00354E+00 -4.71905E-03
    9008.184     12.035   2.280  1.00328E+00  1.00378E+00 -4.97020E-04
    9008.885     12.736   2.320  1.02111E+00  1.00383E+00  1.72730E-02
    9009.599     13.449   2.360  1.04986E+00  1.00374E+00  4.61138E-02
    9010.324     14.175   2.400  1.07978E+00  1.00353E+00  7.62560E-02
    9011.062     14.912   2.440  1.10479E+00  1.00319E+00  1.01608E-01
    9011.811     15.662   2.480  1.12320E+00  1.00276E+00  1.20438E-01
    9012.573     16.424   2.520  1.13367E+00  1.00227E+00  1.31401E-01
    9013.348     17.198   2.560  1.13445E+00  1.00170E+00  1.32753E-01
    9014.134     17.985   2.600  1.12500E+00  1.00109E+00  1.23909E-01
    9014.933     18.783   2.640  1.10701E+00  1.00044E+00  1.06577E-01
    9015.743     19.594   2.680  1.08337E+00  9.99772E-01  8.35950E-02
    9016.566     20.417   2.720  1.05639E+00  9.99100E-01  5.72910E-02
    9017.401     21.252   2.760  1.02833E+00  9.98427E-01  2.99024E-02
    9018.249     22.099   2.800  1.00087E+00  9.97758E-01  3.10922E-03
    9019.108     22.959   2.840  9.75433E-01  9.97115E-01 -2.16824E-02
    9019.980     23.831   2.880  9.53019E-01  9.96506E-01 -4.34868E-02
    9020.864     24.715   2.920  9.34039E-01  9.95912E-01 -6.18725E-02
    9021.760     25.611   2.960  9.18408E-01  9.95355E-01 -7.69477E-02
    9022.668     26.519   3.000  9.06172E-01  9.94862E-01 -8.86898E-02
    9023.589     27.439   3.040  8.97594E-01  9.94414E-01 -9.68201E-02
    9024.522     28.372   3.080  8.92883E-01  9.94013E-01 -1.01130E-01
    9025.466     29.317   3.120  8.92158E-01  9.93682E-01 -1.01524E-01
    9026.424     30.274   3.160  8.95219E-01  9.93423E-01 -9.82036E-02
    9027.393     31.243   3.200  9.01490E-01  9.93214E-01 -9.17246E-02
    9028.374     32.225   3.240  9.10259E-01  9.93078E-01 -8.28189E-02
    9029.368     33.218   3.280  9.20731E-01  9.92995E-01 -7.22642E-02
    9030.374     34.224   3.320  9.31855E-01  9.92986E-01 -6.11308E-02
    9031.392     35.242   3.360  9.42676E-01  9.93051E-01 -5.03752E-02
    9032.422     36.273   3.400  9.52322E-01  9.93192E-01 -4.08698E-02
    9033.464     37.315   3.440  9.60229E-01  9.93385E-01 -3.31556E-02
    9034.519     38.370   3.480  9.66265E-01  9.93649E-01 -2.73839E-02
    9035.586     39.436   3.520  9.70828E-01  9.93965E-01 -2.31368E-02
    9036.665     40.515   3.560  9.74495E-01  9.94355E-01 -1.98604E-02
    9037.756     41.606   3.600  9.77765E-01  9.94815E-01 -1.70502E-02
    9038.859     42.710   3.640  9.80960E-01  9.95325E-01 -1.43652E-02
    9039.975     43.825   3.680  9.84391E-01  9.95903E-01 -1.15124E-02
    9041.103     44.953   3.720  9.88482E-01  9.96505E-01 -8.02299E-03
    9042.243     46.093   3.760  9.93860E-01  9.97173E-01 -3.31303E-03
    9043.395     47.245   3.800  1.00106E+00  9.97905E-01  3.15259E-03
    9044.559     48.410   3.840  1.01027E+00  9.98657E-01  1.16097E-02
    9045.736     49.586   3.880  1.02132E+00  9.99446E-01  2.18771E-02
    9046.924     50.775   3.920  1.03362E+00  1.00027E+00  3.33521E-02
    9048.125     51.976   3.960  1.04629E+00  1.00113E+00  4.51636E-02
    9049.338     53.189   4.000  1.05839E+00  1.00200E+00  5.63875E-02
    9050.564     54.414   4.040  1.06903E+00  1.00290E+00  6.61280E-02
    9051.801     55.652   4.080  1.07735E+00  1.00381E+00  7.35413E-02
    9053.051     56.901   4.120  1.08253E+00  1.00474E+00  7.77866E-02
    9054.313     58.163   4.160  1.08396E+00  1.00565E+00  7.83053E-02
    9055.587     59.437   4.200  1.08169E+00  1.00659E+00  7.51010E-02
    9056.873     60.723   4.240  1.07631E+00  1.00752E+00  6.87879E-02
    9058.171     62.022   4.280  1.06884E+00  1.00843E+00  6.04187E-02
    9059.482     63.333   4.320  1.06049E+00  1.00932E+00  5.11672E-02
    9060.805     64.655   4.360  1.05217E+00  1.01021E+00  4.19575E-02
    9062.140     65.990   4.400  1.04419E+00  1.01107E+00  3.31235E-02
    9063.487     67.338   4.440  1.03647E+00  1.01191E+00  2.45580E-02
    9064.846     68.697   4.480  1.02864E+00  1.01272E+00  1.59143E-02
    9066.218     70.069   4.520  1.02055E+00  1.01349E+00  7.06149E-03
    9067.602     71.452   4.560  1.01252E+00  1.01422E+00 -1.69551E-03
    9068.998     72.848   4.600  1.00520E+00  1.01490E+00 -9.70412E-03
    9070.406     74.257   4.640  9.99197E-01  1.01554E+00 -1.63452E-02
    9071.826     75.677   4.680  9.94723E-01  1.01614E+00 -2.14179E-02
    9073.259     77.109   4.720  9.91333E-01  1.01669E+00 -2.53598E-02
    9074.704     78.554   4.760  9.88153E-01  1.01718E+00 -2.90239E-02
    9076.161     80.011   4.800  9.84472E-01  1.01763E+00 -3.31606E-02
    9077.630     81.480   4.840  9.79936E-01  1.01800E+00 -3.80617E-02
    9079.111     82.962   4.880  9.74782E-01  1.01833E+00 -4.35524E-02
    9080.605     84.455   4.920  9.69357E-01  1.01860E+00 -4.92396E-02
    9082.110     85.961   4.960  9.63968E-01  1.01879E+00 -5.48180E-02
    9083.628     87.479   5.000  9.58732E-01  1.01892E+00 -6.01900E-02
    9085.158     89.009   5.040  9.53532E-01  1.01899E+00 -6.54552E-02
    9086.701     90.551   5.080  9.48323E-01  1.01900E+00 -7.06800E-02
    9088.255     92.106   5.120  9.43420E-01  1.01897E+00 -7.55479E-02
    9089.822     93.672   5.160  9.39804E-01  1.01886E+00 -7.90584E-02
    9091.400     95.251   5.200  9.39151E-01  1.01871E+00 -7.95552E-02
    9092.992     96.842   5.240  9.43301E-01  1.01848E+00 -7.51765E-02
    9094.595     98.445   5.280  9.53670E-01  1.01820E+00 -6.45318E-02
    9096.210    100.061   5.320  9.70587E-01  1.01788E+00 -4.72906E-02
    9097.838    101.688   5.360  9.93036E-01  1.01748E+00 -2.44467E-02
    9099.478    103.328   5.400  1.01898E+00  1.01704E+00  1.93883E-03
    9101.130    104.980   5.440  1.04588E+00  1.01656E+00  2.93237E-02
    9102.794    106.644   5.480  1.07126E+00  1.01604E+00  5.52239E-02
    9104.470    108.321   5.520  1.09298E+00  1.01547E+00  7.75050E-02
    9106.159    110.009   5.560  1.10934E+00  1.01487E+00  9.44713E-02
    9107.860    111.710   5.600  1.11916E+00  1.01425E+00  1.04913E-01
    9109.573    113.423   5.640  1.12198E+00  1.01357E+00  1.08409E-01
    9111.298    115.148   5.680  1.11852E+00  1.01287E+00  1.05646E-01
    9113.035    116.886   5.720  1.11029E+00  1.01215E+00  9.81431E-02
    9114.785    118.635   5.760  1.09890E+00  1.01139E+00  8.75176E-02
    9116.546    120.397   5.800  1.08556E+00  1.01062E+00  7.49352E-02
    9118.320    122.171   5.840  1.07070E+00  1.00985E+00  6.08477E-02
    9120.106    123.957   5.880  1.05412E+00  1.00906E+00  4.50593E-02
    9121.905    125.755   5.920  1.03569E+00  1.00831E+00  2.73764E-02
    9123.715    127.566   5.960  1.01622E+00  1.00754E+00  8.67162E-03
    9125.538    129.389   6.000  9.97669E-01  1.00677E+00 -9.10447E-03
