# # comment:                                                     FEFF 9.9.1  
# # Source:
# # Structure
# # Reduced
# # space
# # abc:
# # angles:
# # sites:
# # POT  SCF 100  7.0000   0, screened core-hole, AFOLP (folp(0)= 1.150)
# # Abs   Z=29 Rmt= 1.296 Rnm= 1.357 K  shell
# # Pot 1 Z=24 Rmt= 1.056 Rnm= 1.271
# # Pot 2 Z=29 Rmt= 1.297 Rnm= 1.358
# # Pot 3 Z= 8 Rmt= 0.918 Rnm= 1.085
# # Gam_ch=1.729E+00 H-L exch Vi= 0.000E+00 Vr= 0.000E+00
# # Mu=-9.369E+00eV kf=2.322E+00 Vint=-1.760E+01eV Rs_int= 1.562
# FMS rfms= 9.0000
# # PATH  Rmax=-1.000,  Keep_limit= 0.00, Heap_limit 0.00  Pwcrit= 2.50%
#  S02=0.950  Temp=   0.00  Debye_temp=   0.00  Global_sig2= 0.00000
#  Energy zero shift, vr, vi    0.00000E+00   0.00000E+00
#  Curved wave amplitude ratio filter   4.000%
#     file         sig2 tot  cw amp ratio   deg  nlegs   reff  inp sig2
#     0/   0 paths used
#  xsedge+ 50, used to normalize mu           2.5027E-04
#  -----------------------------------------------------------------------
#  omega    e    k    mu    mu0     chi     @#
    8983.834    -13.179  -1.000  3.34664E-02  4.66183E-02 -1.31518E-02
    8984.133    -12.881  -0.960  3.51944E-02  4.98189E-02 -1.46245E-02
    8984.419    -12.594  -0.920  3.70757E-02  5.33618E-02 -1.62861E-02
    8984.693    -12.320  -0.880  3.91333E-02  5.72963E-02 -1.81630E-02
    8984.955    -12.058  -0.840  4.13948E-02  6.16800E-02 -2.02852E-02
    8985.205    -11.808  -0.800  4.38928E-02  6.65793E-02 -2.26864E-02
    8985.443    -11.570  -0.760  4.66656E-02  7.20702E-02 -2.54046E-02
    8985.669    -11.345  -0.720  4.97575E-02  7.82388E-02 -2.84813E-02
    8985.882    -11.131  -0.680  5.32183E-02  8.51795E-02 -3.19612E-02
    8986.083    -10.930  -0.640  5.71018E-02  9.29919E-02 -3.58901E-02
    8986.272    -10.741  -0.600  6.14615E-02  1.01773E-01 -4.03118E-02
    8986.449    -10.564  -0.560  6.63440E-02  1.11607E-01 -4.52626E-02
    8986.614    -10.400  -0.520  7.17767E-02  1.22540E-01 -5.07637E-02
    8986.766    -10.247  -0.480  7.77518E-02  1.34562E-01 -5.68101E-02
    8986.906    -10.107  -0.440  8.42076E-02  1.47566E-01 -6.33584E-02
    8987.034     -9.979  -0.400  9.10134E-02  1.61329E-01 -7.03154E-02
    8987.150     -9.863  -0.360  9.79666E-02  1.75500E-01 -7.75331E-02
    8987.254     -9.760  -0.320  1.04811E-01  1.89623E-01 -8.48125E-02
    8987.345     -9.668  -0.280  1.11273E-01  2.03193E-01 -9.19202E-02
    8987.424     -9.589  -0.240  1.17109E-01  2.15721E-01 -9.86118E-02
    8987.491     -9.522  -0.200  1.22142E-01  2.26798E-01 -1.04656E-01
    8987.546     -9.467  -0.160  1.26268E-01  2.36121E-01 -1.09853E-01
    8987.589     -9.424  -0.120  1.29453E-01  2.43496E-01 -1.14043E-01
    8987.619     -9.394  -0.080  1.31701E-01  2.48813E-01 -1.17112E-01
    8987.644     -9.369   0.000  1.33462E-01  2.53087E-01 -1.19625E-01
    8987.699     -9.315   0.120  1.37201E-01  2.62724E-01 -1.25523E-01
    8987.741     -9.272   0.160  1.40077E-01  2.70233E-01 -1.30156E-01
    8987.796     -9.217   0.200  1.43610E-01  2.79821E-01 -1.36211E-01
    8987.863     -9.150   0.240  1.47666E-01  2.91388E-01 -1.43722E-01
    8987.943     -9.071   0.280  1.52023E-01  3.04701E-01 -1.52678E-01
    8988.034     -8.979   0.320  1.56467E-01  3.19441E-01 -1.62975E-01
    8988.138     -8.876   0.360  1.60830E-01  3.35234E-01 -1.74404E-01
    8988.253     -8.760   0.400  1.64983E-01  3.51617E-01 -1.86634E-01
    8988.381     -8.632   0.440  1.69097E-01  3.68246E-01 -1.99149E-01
    8988.522     -8.492   0.480  1.73402E-01  3.84782E-01 -2.11380E-01
    8988.674     -8.339   0.520  1.78316E-01  4.01038E-01 -2.22722E-01
    8988.839     -8.175   0.560  1.84113E-01  4.16950E-01 -2.32836E-01
    8989.015     -7.998   0.600  1.90737E-01  4.32471E-01 -2.41734E-01
    8989.204     -7.809   0.640  1.97782E-01  4.47669E-01 -2.49887E-01
    8989.406     -7.608   0.680  2.04587E-01  4.62596E-01 -2.58009E-01
    8989.619     -7.394   0.720  2.10365E-01  4.77315E-01 -2.66949E-01
    8989.844     -7.169   0.760  2.14261E-01  4.91929E-01 -2.77668E-01
    8990.082     -6.931   0.800  2.15223E-01  5.06473E-01 -2.91250E-01
    8990.332     -6.681   0.840  2.12610E-01  5.21010E-01 -3.08399E-01
    8990.594     -6.419   0.880  2.07333E-01  5.35575E-01 -3.28242E-01
    8990.869     -6.145   0.920  2.02266E-01  5.50212E-01 -3.47946E-01
    8991.155     -5.858   0.960  2.00222E-01  5.64934E-01 -3.64712E-01
    8991.454     -5.560   1.000  2.02483E-01  5.79746E-01 -3.77263E-01
    8991.765     -5.249   1.040  2.09325E-01  5.94667E-01 -3.85342E-01
    8992.088     -4.926   1.080  2.20894E-01  6.09648E-01 -3.88754E-01
    8992.423     -4.590   1.120  2.37407E-01  6.24737E-01 -3.87330E-01
    8992.771     -4.243   1.160  2.58639E-01  6.39875E-01 -3.81236E-01
    8993.130     -3.883   1.200  2.84086E-01  6.55040E-01 -3.70954E-01
    8993.502     -3.511   1.240  3.13697E-01  6.70227E-01 -3.56530E-01
    8993.886     -3.127   1.280  3.48706E-01  6.85409E-01 -3.36703E-01
    8994.282     -2.731   1.320  3.90277E-01  7.00557E-01 -3.10280E-01
    8994.691     -2.323   1.360  4.38001E-01  7.15618E-01 -2.77617E-01
    8995.111     -1.902   1.400  4.90754E-01  7.30580E-01 -2.39826E-01
    8995.544     -1.469   1.440  5.48498E-01  7.45410E-01 -1.96912E-01
    8995.989     -1.024   1.480  6.15939E-01  7.60053E-01 -1.44114E-01
    8996.446     -0.567   1.520  7.00906E-01  7.74494E-01 -7.35886E-02
    8996.916     -0.098   1.560  8.03466E-01  7.88680E-01  1.47859E-02
    8997.397      0.384   1.600  9.13465E-01  8.02616E-01  1.10850E-01
    8997.891      0.878   1.640  1.02275E+00  8.16227E-01  2.06527E-01
    8998.397      1.384   1.680  1.13529E+00  8.29500E-01  3.05793E-01
    8998.915      1.902   1.720  1.25797E+00  8.42423E-01  4.15546E-01
    8999.446      2.432   1.760  1.38045E+00  8.54961E-01  5.25485E-01
    8999.988      2.975   1.800  1.47207E+00  8.67087E-01  6.04981E-01
    9000.543      3.530   1.840  1.50240E+00  8.78767E-01  6.23636E-01
    9001.110      4.097   1.880  1.47262E+00  8.89993E-01  5.82631E-01
    9001.689      4.676   1.920  1.42084E+00  9.00738E-01  5.20098E-01
    9002.280      5.267   1.960  1.37818E+00  9.11016E-01  4.67166E-01
    9002.884      5.870   2.000  1.34184E+00  9.20779E-01  4.21064E-01
    9003.499      6.486   2.040  1.29672E+00  9.30047E-01  3.66672E-01
    9004.127      7.114   2.080  1.24164E+00  9.38814E-01  3.02823E-01
    9004.767      7.754   2.120  1.18411E+00  9.47039E-01  2.37071E-01
    9005.420      8.406   2.160  1.12601E+00  9.54761E-01  1.71252E-01
    9006.084      9.071   2.200  1.07146E+00  9.61963E-01  1.09494E-01
    9006.761      9.747   2.240  1.03315E+00  9.68665E-01  6.44810E-02
    9007.450     10.436   2.280  1.01968E+00  9.74831E-01  4.48507E-02
    9008.151     11.137   2.320  1.02765E+00  9.80525E-01  4.71266E-02
    9008.864     11.851   2.360  1.04772E+00  9.85713E-01  6.20070E-02
    9009.589     12.576   2.400  1.07094E+00  9.90440E-01  8.04985E-02
    9010.327     13.314   2.440  1.09132E+00  9.94692E-01  9.66262E-02
    9011.077     14.063   2.480  1.10144E+00  9.98495E-01  1.02943E-01
    9011.839     14.825   2.520  1.09241E+00  1.00186E+00  9.05517E-02
    9012.613     15.600   2.560  1.06255E+00  1.00481E+00  5.77378E-02
    9013.399     16.386   2.600  1.02111E+00  1.00734E+00  1.37704E-02
    9014.198     17.185   2.640  9.76226E-01  1.00950E+00 -3.32699E-02
    9015.009     17.995   2.680  9.31559E-01  1.01131E+00 -7.97503E-02
    9015.832     18.818   2.720  8.93187E-01  1.01275E+00 -1.19561E-01
    9016.667     19.653   2.760  8.62813E-01  1.01388E+00 -1.51070E-01
    9017.514     20.501   2.800  8.37699E-01  1.01470E+00 -1.77004E-01
    9018.374     21.360   2.840  8.20074E-01  1.01524E+00 -1.95164E-01
    9019.245     22.232   2.880  8.10493E-01  1.01550E+00 -2.05004E-01
    9020.129     23.116   2.920  8.07403E-01  1.01551E+00 -2.08109E-01
    9021.025     24.012   2.960  8.09130E-01  1.01531E+00 -2.06181E-01
    9021.934     24.920   3.000  8.14186E-01  1.01489E+00 -2.00700E-01
    9022.854     25.841   3.040  8.21885E-01  1.01428E+00 -1.92397E-01
    9023.787     26.774   3.080  8.32438E-01  1.01349E+00 -1.81054E-01
    9024.732     27.718   3.120  8.45595E-01  1.01256E+00 -1.66969E-01
    9025.689     28.675   3.160  8.61401E-01  1.01148E+00 -1.50083E-01
    9026.658     29.645   3.200  8.79634E-01  1.01028E+00 -1.30647E-01
    9027.640     30.626   3.240  8.99560E-01  1.00899E+00 -1.09426E-01
    9028.633     31.620   3.280  9.19956E-01  1.00758E+00 -8.76272E-02
    9029.639     32.626   3.320  9.39813E-01  1.00612E+00 -6.63096E-02
    9030.657     33.644   3.360  9.58209E-01  1.00459E+00 -4.63790E-02
    9031.687     34.674   3.400  9.74288E-01  1.00299E+00 -2.86986E-02
    9032.730     35.716   3.440  9.87792E-01  1.00137E+00 -1.35755E-02
    9033.784     36.771   3.480  9.98566E-01  9.99734E-01 -1.16803E-03
    9034.851     37.838   3.520  1.00665E+00  9.98071E-01  8.58205E-03
    9035.930     38.917   3.560  1.01252E+00  9.96384E-01  1.61354E-02
    9037.021     40.008   3.600  1.01705E+00  9.94720E-01  2.23285E-02
    9038.125     41.111   3.640  1.02121E+00  9.93084E-01  2.81312E-02
    9039.240     42.227   3.680  1.02587E+00  9.91456E-01  3.44108E-02
    9040.368     43.355   3.720  1.03149E+00  9.89864E-01  4.16278E-02
    9041.508     44.495   3.760  1.03788E+00  9.88310E-01  4.95702E-02
    9042.660     45.647   3.800  1.04431E+00  9.86795E-01  5.75178E-02
    9043.824     46.811   3.840  1.05014E+00  9.85323E-01  6.48168E-02
    9045.001     47.988   3.880  1.05499E+00  9.83897E-01  7.10958E-02
    9046.190     49.176   3.920  1.05897E+00  9.82562E-01  7.64110E-02
    9047.390     50.377   3.960  1.06234E+00  9.81258E-01  8.10786E-02
    9048.604     51.590   4.000  1.06536E+00  9.80046E-01  8.53124E-02
    9049.829     52.816   4.040  1.06778E+00  9.78888E-01  8.88963E-02
    9051.066     54.053   4.080  1.06899E+00  9.77806E-01  9.11870E-02
    9052.316     55.303   4.120  1.06839E+00  9.76802E-01  9.15888E-02
    9053.578     56.565   4.160  1.06581E+00  9.75876E-01  8.99337E-02
    9054.852     57.839   4.200  1.06166E+00  9.75028E-01  8.66283E-02
    9056.138     59.125   4.240  1.05666E+00  9.74259E-01  8.23990E-02
    9057.437     60.423   4.280  1.05138E+00  9.73571E-01  7.78105E-02
    9058.747     61.734   4.320  1.04577E+00  9.72964E-01  7.28055E-02
    9060.070     63.057   4.360  1.03929E+00  9.72457E-01  6.68297E-02
    9061.405     64.392   4.400  1.03127E+00  9.72008E-01  5.92622E-02
    9062.752     65.739   4.440  1.02135E+00  9.71635E-01  4.97186E-02
    9064.112     67.098   4.480  1.00955E+00  9.71341E-01  3.82063E-02
    9065.483     68.470   4.520  9.96157E-01  9.71124E-01  2.50326E-02
    9066.867     69.854   4.560  9.81608E-01  9.70982E-01  1.06255E-02
    9068.263     71.250   4.600  9.66380E-01  9.70896E-01 -4.51581E-03
    9069.671     72.658   4.640  9.51135E-01  9.70904E-01 -1.97688E-02
    9071.092     74.078   4.680  9.36381E-01  9.70964E-01 -3.45831E-02
    9072.524     75.511   4.720  9.22618E-01  9.71073E-01 -4.84556E-02
    9073.969     76.956   4.760  9.10329E-01  9.71253E-01 -6.09248E-02
    9075.426     78.413   4.800  8.99984E-01  9.71504E-01 -7.15199E-02
    9076.895     79.882   4.840  8.92101E-01  9.71801E-01 -7.96999E-02
    9078.376     81.363   4.880  8.87228E-01  9.72142E-01 -8.49143E-02
    9079.870     82.857   4.920  8.85703E-01  9.72546E-01 -8.68423E-02
    9081.376     84.362   4.960  8.87534E-01  9.72968E-01 -8.54345E-02
    9082.893     85.880   5.000  8.92435E-01  9.73429E-01 -8.09933E-02
    9084.424     87.410   5.040  8.99877E-01  9.73948E-01 -7.40713E-02
    9085.966     88.952   5.080  9.09167E-01  9.74481E-01 -6.53134E-02
    9087.520     90.507   5.120  9.19609E-01  9.75022E-01 -5.54125E-02
    9089.087     92.074   5.160  9.30598E-01  9.75593E-01 -4.49954E-02
    9090.666     93.652   5.200  9.41584E-01  9.76193E-01 -3.46084E-02
    9092.257     95.244   5.240  9.52070E-01  9.76776E-01 -2.47053E-02
    9093.860     96.847   5.280  9.61708E-01  9.77383E-01 -1.56749E-02
    9095.476     98.462   5.320  9.70136E-01  9.77992E-01 -7.85602E-03
    9097.103    100.090   5.360  9.77104E-01  9.78599E-01 -1.49531E-03
    9098.743    101.730   5.400  9.82445E-01  9.79203E-01  3.24167E-03
    9100.395    103.382   5.440  9.86098E-01  9.79779E-01  6.31906E-03
    9102.059    105.046   5.480  9.88224E-01  9.80347E-01  7.87664E-03
    9103.736    106.722   5.520  9.89139E-01  9.80908E-01  8.23049E-03
    9105.424    108.411   5.560  9.89287E-01  9.81436E-01  7.85089E-03
    9107.125    110.112   5.600  9.89208E-01  9.81928E-01  7.27948E-03
    9108.838    111.825   5.640  9.89376E-01  9.82406E-01  6.97045E-03
    9110.563    113.550   5.680  9.89996E-01  9.82825E-01  7.17114E-03
    9112.300    115.287   5.720  9.91234E-01  9.83227E-01  8.00721E-03
    9114.050    117.037   5.760  9.93257E-01  9.83590E-01  9.66725E-03
    9115.812    118.798   5.800  9.96307E-01  9.83911E-01  1.23952E-02
    9117.586    120.572   5.840  1.00039E+00  9.84168E-01  1.62240E-02
    9119.372    122.358   5.880  1.00518E+00  9.84403E-01  2.07762E-02
    9121.170    124.157   5.920  1.00987E+00  9.84570E-01  2.53051E-02
    9122.981    125.967   5.960  1.01359E+00  9.84682E-01  2.89115E-02
    9124.803    127.790   6.000  1.01559E+00  9.84695E-01  3.08954E-02
