# # comment:                                                     FEFF 9.9.1  
# # Source:
# # Structure
# # Reduced
# # space
# # abc:
# # angles:107.586138
# # sites:
# # POT  SCF 100  7.0000   0, screened core-hole, AFOLP (folp(0)= 1.150)
# # Abs   Z=29 Rmt= 1.241 Rnm= 1.322 K  shell
# # Pot 1 Z=56 Rmt= 1.921 Rnm= 1.986
# # Pot 2 Z=38 Rmt= 1.832 Rnm= 1.902
# # Pot 3 Z=29 Rmt= 1.240 Rnm= 1.321
# # Pot 4 Z= 8 Rmt= 1.087 Rnm= 1.135
# # Gam_ch=1.729E+00 H-L exch Vi= 0.000E+00 Vr= 0.000E+00
# # Mu=-1.050E+01eV kf=1.892E+00 Vint=-1.741E+01eV Rs_int= 1.917
# FMS rfms= 9.0000
# # PATH  Rmax=-1.000,  Keep_limit= 0.00, Heap_limit 0.00  Pwcrit= 2.50%
#  S02=0.950  Temp=   0.00  Debye_temp=   0.00  Global_sig2= 0.00000
#  Energy zero shift, vr, vi    0.00000E+00   0.00000E+00
#  Curved wave amplitude ratio filter   4.000%
#     file         sig2 tot  cw amp ratio   deg  nlegs   reff  inp sig2
#     0/   0 paths used
#  xsedge+ 50, used to normalize mu           2.4497E-04
#  -----------------------------------------------------------------------
#  omega    e    k    mu    mu0     chi     @#
    8985.344    -14.309  -1.000  3.34271E-02  5.12907E-02 -1.78636E-02
    8985.643    -14.010  -0.960  3.49741E-02  5.48993E-02 -1.99252E-02
    8985.929    -13.723  -0.920  3.66270E-02  5.88967E-02 -2.22698E-02
    8986.204    -13.449  -0.880  3.83979E-02  6.33388E-02 -2.49408E-02
    8986.466    -13.187  -0.840  4.03015E-02  6.82903E-02 -2.79888E-02
    8986.716    -12.937  -0.800  4.23543E-02  7.38262E-02 -3.14719E-02
    8986.953    -12.699  -0.760  4.45759E-02  8.00325E-02 -3.54566E-02
    8987.179    -12.474  -0.720  4.69882E-02  8.70058E-02 -4.00176E-02
    8987.392    -12.260  -0.680  4.96155E-02  9.48523E-02 -4.52368E-02
    8987.593    -12.059  -0.640  5.24838E-02  1.03684E-01 -5.12002E-02
    8987.782    -11.870  -0.600  5.56181E-02  1.13610E-01 -5.79919E-02
    8987.959    -11.694  -0.560  5.90398E-02  1.24723E-01 -6.56834E-02
    8988.124    -11.529  -0.520  6.27611E-02  1.37078E-01 -7.43167E-02
    8988.276    -11.377  -0.480  6.67776E-02  1.50659E-01 -8.38813E-02
    8988.416    -11.236  -0.440  7.10597E-02  1.65348E-01 -9.42884E-02
    8988.544    -11.108  -0.400  7.55456E-02  1.80894E-01 -1.05348E-01
    8988.660    -10.992  -0.360  8.01374E-02  1.96902E-01 -1.16764E-01
    8988.764    -10.889  -0.320  8.47062E-02  2.12859E-01 -1.28153E-01
    8988.855    -10.797  -0.280  8.91051E-02  2.28197E-01 -1.39092E-01
    8988.935    -10.718  -0.240  9.31870E-02  2.42364E-01 -1.49177E-01
    8989.002    -10.651  -0.200  9.68222E-02  2.54898E-01 -1.58075E-01
    8989.057    -10.596  -0.160  9.99082E-02  2.65453E-01 -1.65545E-01
    8989.099    -10.554  -0.120  1.02373E-01  2.73808E-01 -1.71435E-01
    8989.130    -10.523  -0.080  1.04170E-01  2.79833E-01 -1.75663E-01
    8989.154    -10.499   0.000  1.05651E-01  2.84679E-01 -1.79029E-01
    8989.209    -10.444   0.120  1.08987E-01  2.95622E-01 -1.86635E-01
    8989.252    -10.401   0.160  1.11539E-01  3.04147E-01 -1.92608E-01
    8989.306    -10.346   0.200  1.14765E-01  3.15041E-01 -2.00276E-01
    8989.374    -10.279   0.240  1.18632E-01  3.28199E-01 -2.09567E-01
    8989.453    -10.200   0.280  1.23026E-01  3.43391E-01 -2.20365E-01
    8989.544    -10.109   0.320  1.27753E-01  3.60235E-01 -2.32482E-01
    8989.648    -10.005   0.360  1.32555E-01  3.78339E-01 -2.45784E-01
    8989.764     -9.889   0.400  1.37044E-01  3.97201E-01 -2.60158E-01
    8989.892     -9.761   0.440  1.40848E-01  4.16398E-01 -2.75550E-01
    8990.032     -9.621   0.480  1.43659E-01  4.35602E-01 -2.91943E-01
    8990.184     -9.468   0.520  1.45437E-01  4.54581E-01 -3.09144E-01
    8990.349     -9.304   0.560  1.46469E-01  4.73239E-01 -3.26770E-01
    8990.526     -9.127   0.600  1.47230E-01  4.91542E-01 -3.44312E-01
    8990.715     -8.938   0.640  1.48135E-01  5.09494E-01 -3.61359E-01
    8990.916     -8.737   0.680  1.49531E-01  5.27188E-01 -3.77656E-01
    8991.129     -8.524   0.720  1.51706E-01  5.44663E-01 -3.92957E-01
    8991.355     -8.298   0.760  1.55286E-01  5.62000E-01 -4.06714E-01
    8991.592     -8.060   0.800  1.61109E-01  5.79208E-01 -4.18099E-01
    8991.842     -7.810   0.840  1.70245E-01  5.96366E-01 -4.26121E-01
    8992.105     -7.548   0.880  1.83768E-01  6.13460E-01 -4.29691E-01
    8992.379     -7.274   0.920  2.02967E-01  6.30503E-01 -4.27537E-01
    8992.665     -6.987   0.960  2.29308E-01  6.47521E-01 -4.18213E-01
    8992.964     -6.689   1.000  2.63880E-01  6.64445E-01 -4.00566E-01
    8993.275     -6.378   1.040  3.06504E-01  6.81305E-01 -3.74801E-01
    8993.598     -6.055   1.080  3.54763E-01  6.98060E-01 -3.43297E-01
    8993.933     -5.719   1.120  4.04945E-01  7.14644E-01 -3.09699E-01
    8994.281     -5.372   1.160  4.54621E-01  7.31051E-01 -2.76430E-01
    8994.640     -5.012   1.200  5.01564E-01  7.47225E-01 -2.45660E-01
    8995.012     -4.640   1.240  5.39439E-01  7.63134E-01 -2.23695E-01
    8995.396     -4.256   1.280  5.62522E-01  7.78724E-01 -2.16201E-01
    8995.793     -3.860   1.320  5.75649E-01  7.93977E-01 -2.18328E-01
    8996.201     -3.452   1.360  5.90625E-01  8.08817E-01 -2.18191E-01
    8996.622     -3.031   1.400  6.18687E-01  8.23209E-01 -2.04521E-01
    8997.054     -2.598   1.440  6.69743E-01  8.37139E-01 -1.67396E-01
    8997.499     -2.153   1.480  7.43457E-01  8.50573E-01 -1.07116E-01
    8997.957     -1.696   1.520  8.14540E-01  8.63478E-01 -4.89380E-02
    8998.426     -1.227   1.560  8.60937E-01  8.75826E-01 -1.48887E-02
    8998.908     -0.745   1.600  9.11655E-01  8.87608E-01  2.40473E-02
    8999.401     -0.251   1.640  1.00704E+00  8.98796E-01  1.08242E-01
    8999.907      0.255   1.680  1.13168E+00  9.09387E-01  2.22289E-01
    9000.426      0.773   1.720  1.20892E+00  9.19358E-01  2.89561E-01
    9000.956      1.303   1.760  1.21320E+00  9.28709E-01  2.84493E-01
    9001.498      1.846   1.800  1.23322E+00  9.37480E-01  2.95744E-01
    9002.053      2.400   1.840  1.32293E+00  9.45616E-01  3.77315E-01
    9002.620      2.967   1.880  1.46391E+00  9.53182E-01  5.10726E-01
    9003.199      3.546   1.920  1.58505E+00  9.60143E-01  6.24908E-01
    9003.790      4.138   1.960  1.58503E+00  9.66547E-01  6.18480E-01
    9004.394      4.741   2.000  1.45624E+00  9.72384E-01  4.83860E-01
    9005.010      5.357   2.040  1.29248E+00  9.77704E-01  3.14774E-01
    9005.638      5.985   2.080  1.15765E+00  9.82497E-01  1.75154E-01
    9006.278      6.625   2.120  1.06363E+00  9.86794E-01  7.68410E-02
    9006.930      7.277   2.160  1.00399E+00  9.90606E-01  1.33854E-02
    9007.594      7.942   2.200  9.75534E-01  9.93988E-01 -1.84546E-02
    9008.271      8.618   2.240  9.69283E-01  9.96954E-01 -2.76707E-02
    9008.960      9.307   2.280  9.60265E-01  9.99536E-01 -3.92710E-02
    9009.661     10.008   2.320  9.45944E-01  1.00173E+00 -5.57820E-02
    9010.374     10.721   2.360  9.41692E-01  1.00358E+00 -6.18848E-02
    9011.100     11.447   2.400  9.47080E-01  1.00510E+00 -5.80219E-02
    9011.837     12.184   2.440  9.58978E-01  1.00633E+00 -4.73562E-02
    9012.587     12.934   2.480  9.76940E-01  1.00731E+00 -3.03675E-02
    9013.349     13.696   2.520  9.99866E-01  1.00803E+00 -8.16672E-03
    9014.123     14.470   2.560  1.02467E+00  1.00852E+00  1.61521E-02
    9014.910     15.257   2.600  1.04712E+00  1.00880E+00  3.83212E-02
    9015.708     16.055   2.640  1.06327E+00  1.00891E+00  5.43620E-02
    9016.519     16.866   2.680  1.07072E+00  1.00885E+00  6.18689E-02
    9017.342     17.689   2.720  1.06923E+00  1.00866E+00  6.05681E-02
    9018.177     18.524   2.760  1.06041E+00  1.00834E+00  5.20614E-02
    9019.024     19.372   2.800  1.04599E+00  1.00791E+00  3.80756E-02
    9019.884     20.231   2.840  1.02771E+00  1.00737E+00  2.03424E-02
    9020.756     21.103   2.880  1.00704E+00  1.00677E+00  2.72558E-04
    9021.640     21.987   2.920  9.85022E-01  1.00611E+00 -2.10887E-02
    9022.536     22.883   2.960  9.62753E-01  1.00541E+00 -4.26576E-02
    9023.444     23.791   3.000  9.41303E-01  1.00465E+00 -6.33471E-02
    9024.364     24.712   3.040  9.21708E-01  1.00387E+00 -8.21672E-02
    9025.297     25.644   3.080  9.04911E-01  1.00309E+00 -9.81812E-02
    9026.242     26.589   3.120  8.91516E-01  1.00231E+00 -1.10790E-01
    9027.199     27.546   3.160  8.81704E-01  1.00150E+00 -1.19796E-01
    9028.168     28.516   3.200  8.75548E-01  1.00074E+00 -1.25191E-01
    9029.150     29.497   3.240  8.72948E-01  9.99967E-01 -1.27020E-01
    9030.143     30.491   3.280  8.73509E-01  9.99248E-01 -1.25739E-01
    9031.149     31.496   3.320  8.76806E-01  9.98543E-01 -1.21737E-01
    9032.167     32.515   3.360  8.82630E-01  9.97875E-01 -1.15245E-01
    9033.197     33.545   3.400  8.90885E-01  9.97246E-01 -1.06361E-01
    9034.240     34.587   3.440  9.01344E-01  9.96660E-01 -9.53161E-02
    9035.294     35.642   3.480  9.13813E-01  9.96138E-01 -8.23251E-02
    9036.361     36.709   3.520  9.27975E-01  9.95639E-01 -6.76642E-02
    9037.440     37.788   3.560  9.43326E-01  9.95209E-01 -5.18827E-02
    9038.531     38.879   3.600  9.59182E-01  9.94846E-01 -3.56636E-02
    9039.635     39.982   3.640  9.74817E-01  9.94531E-01 -1.97135E-02
    9040.750     41.098   3.680  9.89387E-01  9.94264E-01 -4.87686E-03
    9041.878     42.225   3.720  1.00215E+00  9.94064E-01  8.08823E-03
    9043.018     43.365   3.760  1.01251E+00  9.93912E-01  1.86004E-02
    9044.170     44.517   3.800  1.02008E+00  9.93807E-01  2.62688E-02
    9045.335     45.682   3.840  1.02492E+00  9.93770E-01  3.11515E-02
    9046.511     46.858   3.880  1.02769E+00  9.93804E-01  3.38912E-02
    9047.700     48.047   3.920  1.02937E+00  9.93861E-01  3.55043E-02
    9048.901     49.248   3.960  1.03078E+00  9.93984E-01  3.68001E-02
    9050.114     50.461   4.000  1.03224E+00  9.94153E-01  3.80912E-02
    9051.339     51.686   4.040  1.03362E+00  9.94386E-01  3.92348E-02
    9052.577     52.924   4.080  1.03464E+00  9.94640E-01  3.99958E-02
    9053.826     54.173   4.120  1.03534E+00  9.94955E-01  4.03886E-02
    9055.088     55.435   4.160  1.03621E+00  9.95290E-01  4.09213E-02
    9056.362     56.709   4.200  1.03790E+00  9.95683E-01  4.22148E-02
    9057.648     57.996   4.240  1.04058E+00  9.96092E-01  4.44901E-02
    9058.947     59.294   4.280  1.04394E+00  9.96535E-01  4.74015E-02
    9060.258     60.605   4.320  1.04723E+00  9.97012E-01  5.02204E-02
    9061.580     61.928   4.360  1.04972E+00  9.97500E-01  5.22244E-02
    9062.915     63.263   4.400  1.05120E+00  9.98017E-01  5.31873E-02
    9064.263     64.610   4.440  1.05211E+00  9.98543E-01  5.35710E-02
    9065.622     65.969   4.480  1.05331E+00  9.99096E-01  5.42101E-02
    9066.994     67.341   4.520  1.05539E+00  9.99654E-01  5.57393E-02
    9068.377     68.725   4.560  1.05840E+00  1.00021E+00  5.81819E-02
    9069.773     70.121   4.600  1.06144E+00  1.00077E+00  6.06652E-02
    9071.181     71.529   4.640  1.06300E+00  1.00133E+00  6.16650E-02
    9072.602     72.949   4.680  1.06149E+00  1.00191E+00  5.95833E-02
    9074.034     74.382   4.720  1.05579E+00  1.00244E+00  5.33478E-02
    9075.479     75.826   4.760  1.04592E+00  1.00299E+00  4.29312E-02
    9076.936     77.283   4.800  1.03289E+00  1.00350E+00  2.93867E-02
    9078.405     78.752   4.840  1.01848E+00  1.00401E+00  1.44644E-02
    9079.887     80.234   4.880  1.00463E+00  1.00452E+00  1.17739E-04
    9081.380     81.727   4.920  9.92969E-01  1.00498E+00 -1.20137E-02
    9082.886     83.233   4.960  9.84502E-01  1.00542E+00 -2.09135E-02
    9084.404     84.751   5.000  9.79595E-01  1.00583E+00 -2.62365E-02
    9085.934     86.281   5.040  9.77767E-01  1.00619E+00 -2.84246E-02
    9087.476     87.823   5.080  9.78055E-01  1.00656E+00 -2.85035E-02
    9089.030     89.378   5.120  9.79096E-01  1.00687E+00 -2.77700E-02
    9090.597     90.944   5.160  9.79706E-01  1.00713E+00 -2.74270E-02
    9092.176     92.523   5.200  9.78998E-01  1.00738E+00 -2.83856E-02
    9093.767     94.114   5.240  9.76364E-01  1.00760E+00 -3.12310E-02
    9095.370     95.718   5.280  9.71656E-01  1.00774E+00 -3.60878E-02
    9096.986     97.333   5.320  9.65368E-01  1.00787E+00 -4.25051E-02
    9098.613     98.961   5.360  9.58422E-01  1.00796E+00 -4.95417E-02
    9100.253    100.600   5.400  9.51848E-01  1.00801E+00 -5.61641E-02
    9101.905    102.252   5.440  9.46436E-01  1.00802E+00 -6.15828E-02
    9103.569    103.917   5.480  9.42626E-01  1.00796E+00 -6.53336E-02
    9105.246    105.593   5.520  9.40798E-01  1.00788E+00 -6.70857E-02
    9106.934    107.282   5.560  9.41213E-01  1.00777E+00 -6.65561E-02
    9108.635    108.982   5.600  9.44122E-01  1.00761E+00 -6.34920E-02
    9110.348    110.695   5.640  9.49593E-01  1.00742E+00 -5.78255E-02
    9112.073    112.421   5.680  9.57007E-01  1.00718E+00 -5.01756E-02
    9113.811    114.158   5.720  9.65769E-01  1.00691E+00 -4.11397E-02
    9115.560    115.907   5.760  9.74992E-01  1.00660E+00 -3.16060E-02
    9117.322    117.669   5.800  9.83960E-01  1.00627E+00 -2.23134E-02
    9119.096    119.443   5.840  9.92309E-01  1.00589E+00 -1.35809E-02
    9120.882    121.229   5.880  1.00028E+00  1.00550E+00 -5.21440E-03
    9122.680    123.028   5.920  1.00839E+00  1.00507E+00  3.31097E-03
    9124.491    124.838   5.960  1.01692E+00  1.00465E+00  1.22698E-02
    9126.313    126.661   6.000  1.02606E+00  1.00417E+00  2.18855E-02
