# # comment:                                                     FEFF 9.9.1  
# # Source:
# # Structure
# # Reduced
# # space
# # abc:
# # angles:
# # sites:
# # POT  SCF 100  7.0000   0, screened core-hole, AFOLP (folp(0)= 1.150)
# # Abs   Z=29 Rmt= 1.297 Rnm= 1.353 K  shell
# # Pot 1 Z= 3 Rmt= 1.275 Rnm= 1.335
# # Pot 2 Z=29 Rmt= 1.290 Rnm= 1.349
# # Pot 3 Z=16 Rmt= 0.889 Rnm= 1.101
# # Pot 4 Z= 8 Rmt= 0.865 Rnm= 1.015
# # Gam_ch=1.729E+00 H-L exch Vi= 0.000E+00 Vr= 0.000E+00
# # Mu=-4.416E+00eV kf=2.619E+00 Vint=-1.785E+01eV Rs_int= 1.385
# FMS rfms= 9.0000
# # PATH  Rmax=-1.000,  Keep_limit= 0.00, Heap_limit 0.00  Pwcrit= 2.50%
#  S02=0.950  Temp=   0.00  Debye_temp=   0.00  Global_sig2= 0.00000
#  Energy zero shift, vr, vi    0.00000E+00   0.00000E+00
#  Curved wave amplitude ratio filter   4.000%
#     file         sig2 tot  cw amp ratio   deg  nlegs   reff  inp sig2
#     0/   0 paths used
#  xsedge+ 50, used to normalize mu           2.4917E-04
#  -----------------------------------------------------------------------
#  omega    e    k    mu    mu0     chi     @#
    8983.241     -8.226  -1.000  5.16705E-02  5.70752E-02 -5.40471E-03
    8983.539     -7.927  -0.960  5.48127E-02  6.13680E-02 -6.55526E-03
    8983.826     -7.640  -0.920  5.82179E-02  6.61540E-02 -7.93607E-03
    8984.100     -7.366  -0.880  6.19146E-02  7.15077E-02 -9.59312E-03
    8984.362     -7.104  -0.840  6.59344E-02  7.75158E-02 -1.15814E-02
    8984.612     -6.854  -0.800  7.03126E-02  8.42791E-02 -1.39665E-02
    8984.850     -6.616  -0.760  7.50883E-02  9.19135E-02 -1.68252E-02
    8985.076     -6.391  -0.720  8.03034E-02  1.00550E-01 -2.02470E-02
    8985.289     -6.177  -0.680  8.60019E-02  1.10334E-01 -2.43325E-02
    8985.490     -5.976  -0.640  9.22281E-02  1.21419E-01 -2.91913E-02
    8985.679     -5.787  -0.600  9.90220E-02  1.33956E-01 -3.49343E-02
    8985.856     -5.610  -0.560  1.06414E-01  1.48075E-01 -4.16613E-02
    8986.020     -5.446  -0.520  1.14414E-01  1.63854E-01 -4.94398E-02
    8986.173     -5.293  -0.480  1.23003E-01  1.81279E-01 -5.82761E-02
    8986.313     -5.153  -0.440  1.32115E-01  2.00197E-01 -6.80815E-02
    8986.441     -5.025  -0.400  1.41627E-01  2.20271E-01 -7.86448E-02
    8986.557     -4.909  -0.360  1.51350E-01  2.40976E-01 -8.96260E-02
    8986.660     -4.806  -0.320  1.61042E-01  2.61627E-01 -1.00585E-01
    8986.752     -4.714  -0.280  1.70418E-01  2.81464E-01 -1.11046E-01
    8986.831     -4.635  -0.240  1.79186E-01  2.99761E-01 -1.20575E-01
    8986.898     -4.568  -0.200  1.87070E-01  3.15912E-01 -1.28842E-01
    8986.953     -4.513  -0.160  1.93833E-01  3.29481E-01 -1.35648E-01
    8986.996     -4.471  -0.120  1.99289E-01  3.40193E-01 -1.40904E-01
    8987.026     -4.440  -0.080  2.03299E-01  3.47901E-01 -1.44601E-01
    8987.051     -4.416   0.000  2.06616E-01  3.54087E-01 -1.47470E-01
    8987.105     -4.361   0.120  2.14017E-01  3.68032E-01 -1.54015E-01
    8987.148     -4.318   0.160  2.19815E-01  3.78825E-01 -1.59010E-01
    8987.203     -4.263   0.200  2.27407E-01  3.92583E-01 -1.65176E-01
    8987.270     -4.196   0.240  2.36860E-01  4.09085E-01 -1.72225E-01
    8987.349     -4.117   0.280  2.48204E-01  4.27937E-01 -1.79734E-01
    8987.441     -4.026   0.320  2.61482E-01  4.48604E-01 -1.87122E-01
    8987.544     -3.922   0.360  2.76681E-01  4.70445E-01 -1.93764E-01
    8987.660     -3.806   0.400  2.93684E-01  4.92720E-01 -1.99036E-01
    8987.788     -3.678   0.440  3.12419E-01  5.14797E-01 -2.02378E-01
    8987.928     -3.538   0.480  3.32812E-01  5.36205E-01 -2.03392E-01
    8988.081     -3.385   0.520  3.54763E-01  5.56614E-01 -2.01851E-01
    8988.245     -3.221   0.560  3.78132E-01  5.75864E-01 -1.97732E-01
    8988.422     -3.044   0.600  4.02786E-01  5.93965E-01 -1.91178E-01
    8988.611     -2.855   0.640  4.28515E-01  6.10949E-01 -1.82434E-01
    8988.812     -2.654   0.680  4.55227E-01  6.26959E-01 -1.71732E-01
    8989.026     -2.441   0.720  4.82962E-01  6.42093E-01 -1.59131E-01
    8989.251     -2.215   0.760  5.11861E-01  6.56511E-01 -1.44650E-01
    8989.489     -1.977   0.800  5.41838E-01  6.70321E-01 -1.28482E-01
    8989.739     -1.727   0.840  5.72920E-01  6.83615E-01 -1.10695E-01
    8990.001     -1.465   0.880  6.06172E-01  6.96494E-01 -9.03224E-02
    8990.275     -1.191   0.920  6.44107E-01  7.09020E-01 -6.49123E-02
    8990.562     -0.904   0.960  6.88999E-01  7.21240E-01 -3.22404E-02
    8990.861     -0.606   1.000  7.40355E-01  7.33232E-01  7.12360E-03
    8991.171     -0.295   1.040  7.93948E-01  7.45001E-01  4.89471E-02
    8991.495      0.028   1.080  8.44099E-01  7.56582E-01  8.75165E-02
    8991.830      0.364   1.120  8.87697E-01  7.67987E-01  1.19710E-01
    8992.177      0.711   1.160  9.25542E-01  7.79215E-01  1.46327E-01
    8992.537      1.071   1.200  9.60298E-01  7.90304E-01  1.69994E-01
    8992.909      1.443   1.240  9.94732E-01  8.01206E-01  1.93525E-01
    8993.293      1.827   1.280  1.02990E+00  8.11951E-01  2.17953E-01
    8993.689      2.223   1.320  1.06261E+00  8.22523E-01  2.40090E-01
    8994.098      2.631   1.360  1.09157E+00  8.32907E-01  2.58664E-01
    8994.518      3.052   1.400  1.12686E+00  8.43082E-01  2.83780E-01
    8994.951      3.485   1.440  1.17814E+00  8.53069E-01  3.25066E-01
    8995.396      3.930   1.480  1.23746E+00  8.62828E-01  3.74631E-01
    8995.853      4.387   1.520  1.29005E+00  8.72356E-01  4.17692E-01
    8996.323      4.856   1.560  1.33104E+00  8.81629E-01  4.49415E-01
    8996.804      5.338   1.600  1.35907E+00  8.90665E-01  4.68408E-01
    8997.298      5.832   1.640  1.36884E+00  8.99400E-01  4.69445E-01
    8997.804      6.338   1.680  1.35884E+00  9.07871E-01  4.50971E-01
    8998.322      6.856   1.720  1.33157E+00  9.16034E-01  4.15535E-01
    8998.852      7.386   1.760  1.29553E+00  9.23906E-01  3.71627E-01
    8999.395      7.929   1.800  1.26507E+00  9.31444E-01  3.33626E-01
    8999.950      8.483   1.840  1.24351E+00  9.38684E-01  3.04829E-01
    9000.517      9.050   1.880  1.22299E+00  9.45567E-01  2.77427E-01
    9001.096      9.629   1.920  1.20350E+00  9.52128E-01  2.51372E-01
    9001.687     10.221   1.960  1.18754E+00  9.58327E-01  2.29209E-01
    9002.291     10.824   2.000  1.17161E+00  9.64205E-01  2.07404E-01
    9002.906     11.440   2.040  1.15384E+00  9.69741E-01  1.84097E-01
    9003.534     12.068   2.080  1.13567E+00  9.74914E-01  1.60759E-01
    9004.174     12.708   2.120  1.11719E+00  9.79746E-01  1.37439E-01
    9004.826     13.360   2.160  1.09757E+00  9.84239E-01  1.13329E-01
    9005.491     14.025   2.200  1.07535E+00  9.88374E-01  8.69723E-02
    9006.168     14.701   2.240  1.05115E+00  9.92197E-01  5.89521E-02
    9006.856     15.390   2.280  1.03181E+00  9.95688E-01  3.61182E-02
    9007.557     16.091   2.320  1.02441E+00  9.98831E-01  2.55799E-02
    9008.271     16.804   2.360  1.02882E+00  1.00169E+00  2.71324E-02
    9008.996     17.530   2.400  1.03807E+00  1.00422E+00  3.38557E-02
    9009.734     18.267   2.440  1.04448E+00  1.00647E+00  3.80157E-02
    9010.484     19.017   2.480  1.04566E+00  1.00843E+00  3.72362E-02
    9011.246     19.779   2.520  1.04416E+00  1.01009E+00  3.40767E-02
    9012.020     20.553   2.560  1.03960E+00  1.01151E+00  2.80929E-02
    9012.806     21.340   2.600  1.02515E+00  1.01266E+00  1.24895E-02
    9013.605     22.138   2.640  9.94358E-01  1.01359E+00 -1.92325E-02
    9014.415     22.949   2.680  9.46997E-01  1.01426E+00 -6.72643E-02
    9015.238     23.772   2.720  8.89951E-01  1.01474E+00 -1.24791E-01
    9016.074     24.607   2.760  8.35084E-01  1.01502E+00 -1.79933E-01
    9016.921     25.455   2.800  7.92091E-01  1.01509E+00 -2.23002E-01
    9017.780     26.314   2.840  7.62978E-01  1.01498E+00 -2.52000E-01
    9018.652     27.186   2.880  7.44307E-01  1.01472E+00 -2.70410E-01
    9019.536     28.070   2.920  7.33944E-01  1.01430E+00 -2.80354E-01
    9020.432     28.966   2.960  7.32966E-01  1.01373E+00 -2.80761E-01
    9021.340     29.874   3.000  7.45572E-01  1.01305E+00 -2.67479E-01
    9022.261     30.795   3.040  7.64354E-01  1.01226E+00 -2.47902E-01
    9023.194     31.727   3.080  7.85986E-01  1.01135E+00 -2.25360E-01
    9024.139     32.672   3.120  8.11069E-01  1.01035E+00 -1.99278E-01
    9025.096     33.629   3.160  8.39613E-01  1.00927E+00 -1.69653E-01
    9026.065     34.599   3.200  8.71023E-01  1.00811E+00 -1.37086E-01
    9027.046     35.580   3.240  9.04019E-01  1.00690E+00 -1.02881E-01
    9028.040     36.574   3.280  9.37304E-01  1.00565E+00 -6.83428E-02
    9029.046     37.580   3.320  9.69287E-01  1.00435E+00 -3.50652E-02
    9030.064     38.598   3.360  9.98552E-01  1.00302E+00 -4.46840E-03
    9031.094     39.628   3.400  1.02410E+00  1.00168E+00  2.24223E-02
    9032.136     40.670   3.440  1.04498E+00  1.00030E+00  4.46796E-02
    9033.191     41.725   3.480  1.06115E+00  9.98929E-01  6.22170E-02
    9034.258     42.792   3.520  1.07308E+00  9.97574E-01  7.55095E-02
    9035.337     43.871   3.560  1.08122E+00  9.96224E-01  8.49918E-02
    9036.428     44.962   3.600  1.08596E+00  9.94880E-01  9.10788E-02
    9037.531     46.065   3.640  1.08784E+00  9.93565E-01  9.42738E-02
    9038.647     47.181   3.680  1.08729E+00  9.92264E-01  9.50299E-02
    9039.775     48.308   3.720  1.08476E+00  9.91019E-01  9.37399E-02
    9040.915     49.448   3.760  1.08081E+00  9.89793E-01  9.10184E-02
    9042.067     50.601   3.800  1.07596E+00  9.88629E-01  8.73279E-02
    9043.231     51.765   3.840  1.07059E+00  9.87507E-01  8.30868E-02
    9044.408     52.941   3.880  1.06517E+00  9.86430E-01  7.87445E-02
    9045.596     54.130   3.920  1.06014E+00  9.85419E-01  7.47188E-02
    9046.797     55.331   3.960  1.05575E+00  9.84433E-01  7.13150E-02
    9048.010     56.544   4.000  1.05222E+00  9.83538E-01  6.86775E-02
    9049.236     57.769   4.040  1.04958E+00  9.82695E-01  6.68807E-02
    9050.473     59.007   4.080  1.04769E+00  9.81920E-01  6.57688E-02
    9051.723     60.257   4.120  1.04624E+00  9.81197E-01  6.50394E-02
    9052.985     61.518   4.160  1.04485E+00  9.80544E-01  6.43023E-02
    9054.259     62.792   4.200  1.04307E+00  9.79943E-01  6.31254E-02
    9055.545     64.079   4.240  1.04052E+00  9.79415E-01  6.11027E-02
    9056.843     65.377   4.280  1.03689E+00  9.78960E-01  5.79297E-02
    9058.154     66.688   4.320  1.03199E+00  9.78579E-01  5.34151E-02
    9059.477     68.011   4.360  1.02564E+00  9.78250E-01  4.73890E-02
    9060.812     69.346   4.400  1.01781E+00  9.77990E-01  3.98215E-02
    9062.159     70.693   4.440  1.00868E+00  9.77781E-01  3.08939E-02
    9063.519     72.052   4.480  9.98574E-01  9.77642E-01  2.09321E-02
    9064.890     73.424   4.520  9.87886E-01  9.77552E-01  1.03341E-02
    9066.274     74.808   4.560  9.77047E-01  9.77534E-01 -4.86215E-04
    9067.670     76.204   4.600  9.66423E-01  9.77583E-01 -1.11597E-02
    9069.078     77.612   4.640  9.56290E-01  9.77657E-01 -2.13660E-02
    9070.498     79.032   4.680  9.47026E-01  9.77797E-01 -3.07709E-02
    9071.931     80.465   4.720  9.38873E-01  9.78002E-01 -3.91291E-02
    9073.376     81.909   4.760  9.31971E-01  9.78228E-01 -4.62568E-02
    9074.833     83.366   4.800  9.26437E-01  9.78494E-01 -5.20570E-02
    9076.302     84.836   4.840  9.22207E-01  9.78819E-01 -5.66121E-02
    9077.783     86.317   4.880  9.19080E-01  9.79163E-01 -6.00828E-02
    9079.277     87.810   4.920  9.16881E-01  9.79541E-01 -6.26609E-02
    9080.782     89.316   4.960  9.15392E-01  9.79955E-01 -6.45635E-02
    9082.300     90.834   5.000  9.14569E-01  9.80403E-01 -6.58333E-02
    9083.830     92.364   5.040  9.14497E-01  9.80858E-01 -6.63603E-02
    9085.373     93.906   5.080  9.15432E-01  9.81320E-01 -6.58877E-02
    9086.927     95.461   5.120  9.17745E-01  9.81809E-01 -6.40636E-02
    9088.494     97.027   5.160  9.21686E-01  9.82302E-01 -6.06162E-02
    9090.073     98.606   5.200  9.27380E-01  9.82798E-01 -5.54180E-02
    9091.664    100.197   5.240  9.34712E-01  9.83295E-01 -4.85832E-02
    9093.267    101.801   5.280  9.43404E-01  9.83814E-01 -4.04098E-02
    9094.882    103.416   5.320  9.53011E-01  9.84308E-01 -3.12973E-02
    9096.510    105.044   5.360  9.63123E-01  9.84795E-01 -2.16717E-02
    9098.150    106.683   5.400  9.73264E-01  9.85253E-01 -1.19893E-02
    9099.802    108.335   5.440  9.82930E-01  9.85705E-01 -2.77455E-03
    9101.466    110.000   5.480  9.91563E-01  9.86148E-01  5.41513E-03
    9103.142    111.676   5.520  9.98665E-01  9.86560E-01  1.21047E-02
    9104.831    113.365   5.560  1.00399E+00  9.86959E-01  1.70299E-02
    9106.532    115.065   5.600  1.00751E+00  9.87300E-01  2.02126E-02
    9108.245    116.778   5.640  1.00959E+00  9.87627E-01  2.19667E-02
    9109.970    118.504   5.680  1.01071E+00  9.87941E-01  2.27698E-02
    9111.707    120.241   5.720  1.01124E+00  9.88193E-01  2.30432E-02
    9113.457    121.990   5.760  1.01142E+00  9.88403E-01  2.30149E-02
    9115.218    123.752   5.800  1.01131E+00  9.88573E-01  2.27414E-02
    9116.992    125.526   5.840  1.01098E+00  9.88701E-01  2.22757E-02
    9118.779    127.312   5.880  1.01063E+00  9.88789E-01  2.18401E-02
    9120.577    129.111   5.920  1.01070E+00  9.88835E-01  2.18685E-02
    9122.387    130.921   5.960  1.01166E+00  9.88833E-01  2.28221E-02
    9124.210    132.744   6.000  1.01369E+00  9.88763E-01  2.49231E-02
