# # comment:                                                     FEFF 9.9.1  
# # Source:
# # Structure
# # Reduced
# # space
# # abc:
# # angles:
# # sites:
# # POT  SCF 100  7.0000   0, screened core-hole, AFOLP (folp(0)= 1.150)
# # Abs   Z=29 Rmt= 1.216 Rnm= 1.330 K  shell
# # Pot 1 Z=29 Rmt= 1.189 Rnm= 1.311
# # Pot 2 Z=83 Rmt= 1.555 Rnm= 1.682
# # Pot 3 Z= 8 Rmt= 1.040 Rnm= 1.128
# # Gam_ch=1.729E+00 H-L exch Vi= 0.000E+00 Vr= 0.000E+00
# # Mu=-5.354E+00eV kf=2.013E+00 Vint=-1.391E+01eV Rs_int= 1.802
# FMS rfms= 9.0000
# # PATH  Rmax=-1.000,  Keep_limit= 0.00, Heap_limit 0.00  Pwcrit= 2.50%
#  S02=0.950  Temp=   0.00  Debye_temp=   0.00  Global_sig2= 0.00000
#  Energy zero shift, vr, vi    0.00000E+00   0.00000E+00
#  Curved wave amplitude ratio filter   4.000%
#     file         sig2 tot  cw amp ratio   deg  nlegs   reff  inp sig2
#     0/   0 paths used
#  xsedge+ 50, used to normalize mu           2.4248E-04
#  -----------------------------------------------------------------------
#  omega    e    k    mu    mu0     chi     @#
    8983.412     -9.164  -1.000  4.44262E-02  5.88295E-02 -1.44033E-02
    8983.711     -8.866  -0.960  4.72105E-02  6.32173E-02 -1.60068E-02
    8983.997     -8.579  -0.920  5.02657E-02  6.81006E-02 -1.78349E-02
    8984.272     -8.305  -0.880  5.36265E-02  7.35526E-02 -1.99261E-02
    8984.534     -8.043  -0.840  5.73324E-02  7.96589E-02 -2.23265E-02
    8984.784     -7.793  -0.800  6.14272E-02  8.65184E-02 -2.50912E-02
    8985.021     -7.555  -0.760  6.59596E-02  9.42447E-02 -2.82851E-02
    8985.247     -7.329  -0.720  7.09821E-02  1.02966E-01 -3.19842E-02
    8985.460     -7.116  -0.680  7.65499E-02  1.12824E-01 -3.62746E-02
    8985.661     -6.915  -0.640  8.27182E-02  1.23969E-01 -4.12506E-02
    8985.850     -6.726  -0.600  8.95379E-02  1.36546E-01 -4.70079E-02
    8986.027     -6.549  -0.560  9.70485E-02  1.50681E-01 -5.36324E-02
    8986.192     -6.384  -0.520  1.05268E-01  1.66449E-01 -6.11809E-02
    8986.344     -6.232  -0.480  1.14181E-01  1.83835E-01 -6.96539E-02
    8986.484     -6.092  -0.440  1.23720E-01  2.02684E-01 -7.89640E-02
    8986.612     -5.964  -0.400  1.33759E-01  2.22670E-01 -8.89107E-02
    8986.728     -5.848  -0.360  1.44099E-01  2.43273E-01 -9.91735E-02
    8986.832     -5.744  -0.320  1.54481E-01  2.63821E-01 -1.09340E-01
    8986.923     -5.653  -0.280  1.64601E-01  2.83569E-01 -1.18968E-01
    8987.003     -5.574  -0.240  1.74139E-01  3.01797E-01 -1.27658E-01
    8987.070     -5.507  -0.200  1.82786E-01  3.17906E-01 -1.35120E-01
    8987.125     -5.452  -0.160  1.90266E-01  3.31455E-01 -1.41190E-01
    8987.167     -5.409  -0.120  1.96347E-01  3.42165E-01 -1.45819E-01
    8987.198     -5.379  -0.080  2.00847E-01  3.49880E-01 -1.49033E-01
    8987.222     -5.354   0.000  2.04595E-01  3.56078E-01 -1.51483E-01
    8987.277     -5.299   0.120  2.13098E-01  3.70040E-01 -1.56942E-01
    8987.320     -5.257   0.160  2.19872E-01  3.80906E-01 -1.61034E-01
    8987.374     -5.202   0.200  2.28835E-01  3.94768E-01 -1.65933E-01
    8987.442     -5.135   0.240  2.40219E-01  4.11433E-01 -1.71215E-01
    8987.521     -5.056   0.280  2.54273E-01  4.30548E-01 -1.76274E-01
    8987.612     -4.964   0.320  2.71411E-01  4.51662E-01 -1.80251E-01
    8987.716     -4.860   0.360  2.92008E-01  4.74104E-01 -1.82096E-01
    8987.832     -4.745   0.400  3.16587E-01  4.97226E-01 -1.80639E-01
    8987.960     -4.617   0.440  3.45703E-01  5.20434E-01 -1.74731E-01
    8988.100     -4.476   0.480  3.79657E-01  5.43247E-01 -1.63590E-01
    8988.252     -4.324   0.520  4.18023E-01  5.65373E-01 -1.47350E-01
    8988.417     -4.159   0.560  4.58626E-01  5.86632E-01 -1.28006E-01
    8988.594     -3.983   0.600  4.96580E-01  6.07006E-01 -1.10427E-01
    8988.783     -3.794   0.640  5.24322E-01  6.26515E-01 -1.02193E-01
    8988.984     -3.593   0.680  5.34721E-01  6.45282E-01 -1.10561E-01
    8989.197     -3.379   0.720  5.25796E-01  6.63340E-01 -1.37544E-01
    8989.423     -3.154   0.760  5.02662E-01  6.80827E-01 -1.78164E-01
    8989.660     -2.916   0.800  4.73302E-01  6.97805E-01 -2.24504E-01
    8989.910     -2.666   0.840  4.43475E-01  7.14346E-01 -2.70871E-01
    8990.172     -2.404   0.880  4.15358E-01  7.30502E-01 -3.15144E-01
    8990.447     -2.129   0.920  3.89148E-01  7.46293E-01 -3.57145E-01
    8990.733     -1.843   0.960  3.64784E-01  7.61745E-01 -3.96961E-01
    8991.032     -1.544   1.000  3.43059E-01  7.76872E-01 -4.33813E-01
    8991.343     -1.233   1.040  3.26154E-01  7.91659E-01 -4.65506E-01
    8991.666     -0.910   1.080  3.16578E-01  8.06103E-01 -4.89526E-01
    8992.001     -0.575   1.120  3.15508E-01  8.20173E-01 -5.04665E-01
    8992.349     -0.228   1.160  3.22745E-01  8.33897E-01 -5.11153E-01
    8992.708      0.132   1.200  3.37104E-01  8.47196E-01 -5.10092E-01
    8993.080      0.504   1.240  3.57890E-01  8.60089E-01 -5.02200E-01
    8993.464      0.888   1.280  3.86436E-01  8.72533E-01 -4.86097E-01
    8993.861      1.284   1.320  4.26325E-01  8.84527E-01 -4.58202E-01
    8994.269      1.693   1.360  4.81350E-01  8.96024E-01 -4.14674E-01
    8994.690      2.113   1.400  5.54448E-01  9.06999E-01 -3.52552E-01
    8995.122      2.546   1.440  6.44765E-01  9.17472E-01 -2.72707E-01
    8995.567      2.991   1.480  7.40007E-01  9.27399E-01 -1.87391E-01
    8996.025      3.448   1.520  8.22659E-01  9.36799E-01 -1.14139E-01
    8996.494      3.918   1.560  8.88422E-01  9.45628E-01 -5.72060E-02
    8996.976      4.399   1.600  9.44081E-01  9.53909E-01 -9.82745E-03
    8997.469      4.893   1.640  1.00082E+00  9.61623E-01  3.91940E-02
    8997.975      5.399   1.680  1.07918E+00  9.68773E-01  1.10407E-01
    8998.494      5.917   1.720  1.20254E+00  9.75385E-01  2.27154E-01
    8999.024      6.448   1.760  1.37185E+00  9.81444E-01  3.90409E-01
    8999.566      6.990   1.800  1.54239E+00  9.86977E-01  5.55409E-01
    9000.121      7.545   1.840  1.64520E+00  9.91992E-01  6.53205E-01
    9000.688      8.112   1.880  1.66325E+00  9.96500E-01  6.66755E-01
    9001.267      8.691   1.920  1.64374E+00  1.00053E+00  6.43212E-01
    9001.858      9.282   1.960  1.61702E+00  1.00409E+00  6.12927E-01
    9002.462      9.886   2.000  1.57543E+00  1.00722E+00  5.68218E-01
    9003.078     10.501   2.040  1.51151E+00  1.00992E+00  5.01597E-01
    9003.706     11.129   2.080  1.42544E+00  1.01220E+00  4.13235E-01
    9004.346     11.769   2.120  1.32730E+00  1.01411E+00  3.13186E-01
    9004.998     12.422   2.160  1.24071E+00  1.01567E+00  2.25038E-01
    9005.662     13.086   2.200  1.17381E+00  1.01692E+00  1.56893E-01
    9006.339     13.763   2.240  1.11567E+00  1.01784E+00  9.78257E-02
    9007.028     14.452   2.280  1.06456E+00  1.01847E+00  4.60913E-02
    9007.729     15.153   2.320  1.02683E+00  1.01885E+00  7.98112E-03
    9008.442     15.866   2.360  1.00286E+00  1.01900E+00 -1.61444E-02
    9009.168     16.591   2.400  9.88930E-01  1.01894E+00 -3.00069E-02
    9009.905     17.329   2.440  9.85658E-01  1.01867E+00 -3.30145E-02
    9010.655     18.079   2.480  9.83749E-01  1.01824E+00 -3.44881E-02
    9011.417     18.841   2.520  9.80050E-01  1.01766E+00 -3.76100E-02
    9012.191     19.615   2.560  9.74990E-01  1.01693E+00 -4.19435E-02
    9012.978     20.401   2.600  9.69509E-01  1.01611E+00 -4.65965E-02
    9013.776     21.200   2.640  9.66611E-01  1.01519E+00 -4.85756E-02
    9014.587     22.011   2.680  9.68554E-01  1.01419E+00 -4.56308E-02
    9015.410     22.834   2.720  9.75331E-01  1.01311E+00 -3.77766E-02
    9016.245     23.669   2.760  9.85528E-01  1.01198E+00 -2.64549E-02
    9017.092     24.516   2.800  9.97248E-01  1.01084E+00 -1.35910E-02
    9017.952     25.376   2.840  1.00829E+00  1.00966E+00 -1.36902E-03
    9018.824     26.247   2.880  1.01639E+00  1.00848E+00  7.91307E-03
    9019.707     27.131   2.920  1.01939E+00  1.00729E+00  1.20944E-02
    9020.604     28.027   2.960  1.01559E+00  1.00611E+00  9.47649E-03
    9021.512     28.936   3.000  1.00454E+00  1.00496E+00 -4.19146E-04
    9022.432     29.856   3.040  9.86630E-01  1.00382E+00 -1.71928E-02
    9023.365     30.789   3.080  9.63588E-01  1.00274E+00 -3.91566E-02
    9024.310     31.734   3.120  9.37795E-01  1.00171E+00 -6.39134E-02
    9025.267     32.691   3.160  9.11690E-01  1.00072E+00 -8.90277E-02
    9026.236     33.660   3.200  8.87452E-01  9.99795E-01 -1.12343E-01
    9027.218     34.641   3.240  8.66705E-01  9.98922E-01 -1.32216E-01
    9028.211     35.635   3.280  8.50325E-01  9.98101E-01 -1.47776E-01
    9029.217     36.641   3.320  8.38883E-01  9.97378E-01 -1.58495E-01
    9030.235     37.659   3.360  8.32680E-01  9.96712E-01 -1.64032E-01
    9031.265     38.689   3.400  8.31630E-01  9.96145E-01 -1.64516E-01
    9032.308     39.732   3.440  8.35203E-01  9.95637E-01 -1.60434E-01
    9033.362     40.786   3.480  8.43025E-01  9.95209E-01 -1.52184E-01
    9034.429     41.853   3.520  8.54778E-01  9.94863E-01 -1.40085E-01
    9035.508     42.932   3.560  8.70100E-01  9.94619E-01 -1.24518E-01
    9036.599     44.023   3.600  8.88844E-01  9.94434E-01 -1.05590E-01
    9037.703     45.126   3.640  9.10945E-01  9.94331E-01 -8.33857E-02
    9038.818     46.242   3.680  9.35896E-01  9.94309E-01 -5.84127E-02
    9039.946     47.370   3.720  9.62522E-01  9.94389E-01 -3.18670E-02
    9041.086     48.510   3.760  9.88951E-01  9.94528E-01 -5.57741E-03
    9042.238     49.662   3.800  1.01276E+00  9.94745E-01  1.80154E-02
    9043.403     50.826   3.840  1.03182E+00  9.95040E-01  3.67793E-02
    9044.579     52.003   3.880  1.04540E+00  9.95412E-01  4.99878E-02
    9045.768     53.191   3.920  1.05409E+00  9.95837E-01  5.82508E-02
    9046.969     54.392   3.960  1.05907E+00  9.96337E-01  6.27368E-02
    9048.182     55.605   4.000  1.06162E+00  9.96909E-01  6.47080E-02
    9049.407     56.831   4.040  1.06297E+00  9.97531E-01  6.54364E-02
    9050.645     58.068   4.080  1.06444E+00  9.98200E-01  6.62433E-02
    9051.894     59.318   4.120  1.06706E+00  9.98935E-01  6.81241E-02
    9053.156     60.580   4.160  1.07115E+00  9.99716E-01  7.14296E-02
    9054.430     61.854   4.200  1.07615E+00  1.00054E+00  7.56112E-02
    9055.716     63.140   4.240  1.08105E+00  1.00140E+00  7.96476E-02
    9057.015     64.439   4.280  1.08488E+00  1.00229E+00  8.25842E-02
    9058.325     65.749   4.320  1.08692E+00  1.00321E+00  8.37183E-02
    9059.648     67.072   4.360  1.08677E+00  1.00415E+00  8.26258E-02
    9060.983     68.407   4.400  1.08430E+00  1.00512E+00  7.91789E-02
    9062.331     69.754   4.440  1.07971E+00  1.00610E+00  7.36099E-02
    9063.690     71.114   4.480  1.07343E+00  1.00709E+00  6.63422E-02
    9065.062     72.485   4.520  1.06608E+00  1.00809E+00  5.79896E-02
    9066.445     73.869   4.560  1.05829E+00  1.00908E+00  4.92145E-02
    9067.841     75.265   4.600  1.05075E+00  1.01006E+00  4.06912E-02
    9069.249     76.673   4.640  1.04412E+00  1.01103E+00  3.30880E-02
    9070.670     78.094   4.680  1.03892E+00  1.01200E+00  2.69197E-02
    9072.102     79.526   4.720  1.03530E+00  1.01294E+00  2.23592E-02
    9073.547     80.971   4.760  1.03314E+00  1.01387E+00  1.92742E-02
    9075.004     82.428   4.800  1.03211E+00  1.01476E+00  1.73512E-02
    9076.473     83.897   4.840  1.03173E+00  1.01561E+00  1.61245E-02
    9077.955     85.378   4.880  1.03136E+00  1.01642E+00  1.49461E-02
    9079.448     86.872   4.920  1.03014E+00  1.01721E+00  1.29336E-02
    9080.954     88.377   4.960  1.02705E+00  1.01794E+00  9.11134E-03
    9082.472     89.895   5.000  1.02145E+00  1.01862E+00  2.83370E-03
    9084.002     91.425   5.040  1.01343E+00  1.01925E+00 -5.81689E-03
    9085.544     92.968   5.080  1.00379E+00  1.01982E+00 -1.60296E-02
    9087.098     94.522   5.120  9.93783E-01  1.02036E+00 -2.65734E-02
    9088.665     96.089   5.160  9.84552E-01  1.02082E+00 -3.62717E-02
    9090.244     97.668   5.200  9.76974E-01  1.02122E+00 -4.42444E-02
    9091.835     99.259   5.240  9.71620E-01  1.02156E+00 -4.99413E-02
    9093.438    100.862   5.280  9.68776E-01  1.02183E+00 -5.30542E-02
    9095.054    102.477   5.320  9.68560E-01  1.02205E+00 -5.34888E-02
    9096.681    104.105   5.360  9.70873E-01  1.02222E+00 -5.13422E-02
    9098.321    105.745   5.400  9.75284E-01  1.02228E+00 -4.70008E-02
    9099.973    107.397   5.440  9.81124E-01  1.02232E+00 -4.11990E-02
    9101.637    109.061   5.480  9.87292E-01  1.02227E+00 -3.49733E-02
    9103.314    110.737   5.520  9.92693E-01  1.02216E+00 -2.94637E-02
    9105.002    112.426   5.560  9.96299E-01  1.02200E+00 -2.56973E-02
    9106.703    114.127   5.600  9.97472E-01  1.02176E+00 -2.42931E-02
    9108.416    115.840   5.640  9.96255E-01  1.02148E+00 -2.52284E-02
    9110.141    117.565   5.680  9.93226E-01  1.02113E+00 -2.79056E-02
    9111.879    119.302   5.720  9.89327E-01  1.02073E+00 -3.14057E-02
    9113.628    121.052   5.760  9.85533E-01  1.02029E+00 -3.47560E-02
    9115.390    122.814   5.800  9.82632E-01  1.01978E+00 -3.71482E-02
    9117.164    124.588   5.840  9.81291E-01  1.01925E+00 -3.79619E-02
    9118.950    126.374   5.880  9.81871E-01  1.01866E+00 -3.67925E-02
    9120.748    128.172   5.920  9.84533E-01  1.01804E+00 -3.35056E-02
    9122.559    129.982   5.960  9.89090E-01  1.01738E+00 -2.82907E-02
    9124.381    131.805   6.000  9.95247E-01  1.01669E+00 -2.14381E-02
