# # comment:                                                     FEFF 9.9.1  
# # Source:
# # Structure
# # Reduced
# # space
# # abc:
# # angles:
# # sites:
# # POT  SCF 100  7.0000   0, screened core-hole, AFOLP (folp(0)= 1.150)
# # Abs   Z=29 Rmt= 1.261 Rnm= 1.346 K  shell
# # Pot 1 Z=25 Rmt= 1.289 Rnm= 1.396
# # Pot 2 Z=29 Rmt= 1.265 Rnm= 1.322
# # Pot 3 Z= 8 Rmt= 1.039 Rnm= 1.105
# # Gam_ch=1.729E+00 H-L exch Vi= 0.000E+00 Vr= 0.000E+00
# # Mu=-1.021E+01eV kf=2.177E+00 Vint=-1.809E+01eV Rs_int= 1.666
# FMS rfms= 9.0000
# # PATH  Rmax=-1.000,  Keep_limit= 0.00, Heap_limit 0.00  Pwcrit= 2.50%
#  S02=0.950  Temp=   0.00  Debye_temp=   0.00  Global_sig2= 0.00000
#  Energy zero shift, vr, vi    0.00000E+00   0.00000E+00
#  Curved wave amplitude ratio filter   4.000%
#     file         sig2 tot  cw amp ratio   deg  nlegs   reff  inp sig2
#     0/   0 paths used
#  xsedge+ 50, used to normalize mu           2.5064E-04
#  -----------------------------------------------------------------------
#  omega    e    k    mu    mu0     chi     @#
    8983.986    -14.019  -1.000  3.16920E-02  4.51966E-02 -1.35046E-02
    8984.285    -13.721  -0.960  3.32257E-02  4.82509E-02 -1.50252E-02
    8984.571    -13.434  -0.920  3.48759E-02  5.16278E-02 -1.67519E-02
    8984.846    -13.160  -0.880  3.66571E-02  5.53736E-02 -1.87165E-02
    8985.108    -12.898  -0.840  3.85864E-02  5.95419E-02 -2.09555E-02
    8985.358    -12.648  -0.800  4.06837E-02  6.41950E-02 -2.35112E-02
    8985.596    -12.410  -0.760  4.29720E-02  6.94039E-02 -2.64319E-02
    8985.821    -12.184  -0.720  4.54773E-02  7.52489E-02 -2.97716E-02
    8986.034    -11.971  -0.680  4.82288E-02  8.18182E-02 -3.35894E-02
    8986.236    -11.770  -0.640  5.12569E-02  8.92046E-02 -3.79477E-02
    8986.425    -11.581  -0.600  5.45912E-02  9.74990E-02 -4.29077E-02
    8986.601    -11.404  -0.560  5.82556E-02  1.06778E-01 -4.85228E-02
    8986.766    -11.239  -0.520  6.22601E-02  1.17087E-01 -5.48274E-02
    8986.918    -11.087  -0.480  6.65912E-02  1.28414E-01 -6.18228E-02
    8987.059    -10.947  -0.440  7.11994E-02  1.40659E-01 -6.94597E-02
    8987.187    -10.819  -0.400  7.59906E-02  1.53613E-01 -7.76223E-02
    8987.302    -10.703  -0.360  8.08259E-02  1.66947E-01 -8.61207E-02
    8987.406    -10.599  -0.320  8.55361E-02  1.80234E-01 -9.46977E-02
    8987.498    -10.508  -0.280  8.99470E-02  1.93000E-01 -1.03053E-01
    8987.577    -10.429  -0.240  9.39094E-02  2.04787E-01 -1.10878E-01
    8987.644    -10.362  -0.200  9.73183E-02  2.15211E-01 -1.17893E-01
    8987.699    -10.307  -0.160  1.00116E-01  2.23987E-01 -1.23871E-01
    8987.741    -10.264  -0.120  1.02281E-01  2.30930E-01 -1.28649E-01
    8987.772    -10.234  -0.080  1.03812E-01  2.35937E-01 -1.32125E-01
    8987.796    -10.209   0.000  1.05013E-01  2.39963E-01 -1.34951E-01
    8987.851    -10.154   0.120  1.07818E-01  2.49048E-01 -1.41230E-01
    8987.894    -10.112   0.160  1.09959E-01  2.56130E-01 -1.46171E-01
    8987.949    -10.057   0.200  1.12637E-01  2.65175E-01 -1.52538E-01
    8988.016     -9.990   0.240  1.15807E-01  2.76076E-01 -1.60270E-01
    8988.095     -9.911   0.280  1.19448E-01  2.88656E-01 -1.69208E-01
    8988.186     -9.819   0.320  1.23555E-01  3.02623E-01 -1.79067E-01
    8988.290     -9.715   0.360  1.28166E-01  3.17571E-01 -1.89404E-01
    8988.406     -9.600   0.400  1.33483E-01  3.33151E-01 -1.99668E-01
    8988.534     -9.472   0.440  1.39747E-01  3.48988E-01 -2.09240E-01
    8988.674     -9.331   0.480  1.47173E-01  3.64785E-01 -2.17612E-01
    8988.826     -9.179   0.520  1.55829E-01  3.80390E-01 -2.24561E-01
    8988.991     -9.014   0.560  1.65347E-01  3.95726E-01 -2.30379E-01
    8989.168     -8.838   0.600  1.74881E-01  4.10768E-01 -2.35888E-01
    8989.357     -8.649   0.640  1.83257E-01  4.25540E-01 -2.42283E-01
    8989.558     -8.448   0.680  1.89373E-01  4.40130E-01 -2.50757E-01
    8989.771     -8.234   0.720  1.92592E-01  4.54617E-01 -2.62025E-01
    8989.997     -8.009   0.760  1.93430E-01  4.69037E-01 -2.75607E-01
    8990.235     -7.771   0.800  1.94029E-01  4.83459E-01 -2.89430E-01
    8990.485     -7.521   0.840  1.97429E-01  4.97944E-01 -3.00515E-01
    8990.747     -7.259   0.880  2.06377E-01  5.12522E-01 -3.06146E-01
    8991.021     -6.984   0.920  2.23135E-01  5.27212E-01 -3.04078E-01
    8991.307     -6.698   0.960  2.49889E-01  5.42046E-01 -2.92157E-01
    8991.606     -6.399   1.000  2.88448E-01  5.57027E-01 -2.68580E-01
    8991.917     -6.088   1.040  3.37963E-01  5.72172E-01 -2.34209E-01
    8992.240     -5.765   1.080  3.91193E-01  5.87452E-01 -1.96259E-01
    8992.575     -5.430   1.120  4.33528E-01  6.02850E-01 -1.69323E-01
    8992.923     -5.083   1.160  4.50666E-01  6.18369E-01 -1.67703E-01
    8993.283     -4.723   1.200  4.43346E-01  6.33984E-01 -1.90638E-01
    8993.654     -4.351   1.240  4.29127E-01  6.49650E-01 -2.20523E-01
    8994.038     -3.967   1.280  4.23067E-01  6.65379E-01 -2.42312E-01
    8994.435     -3.571   1.320  4.28904E-01  6.81099E-01 -2.52195E-01
    8994.843     -3.162   1.360  4.47907E-01  6.96779E-01 -2.48872E-01
    8995.264     -2.742   1.400  4.82009E-01  7.12403E-01 -2.30393E-01
    8995.697     -2.309   1.440  5.29912E-01  7.27936E-01 -1.98024E-01
    8996.142     -1.864   1.480  5.87025E-01  7.43325E-01 -1.56299E-01
    8996.599     -1.407   1.520  6.48332E-01  7.58551E-01 -1.10218E-01
    8997.068     -0.937   1.560  7.03748E-01  7.73558E-01 -6.98099E-02
    8997.550     -0.456   1.600  7.36850E-01  7.88310E-01 -5.14594E-02
    8998.044      0.038   1.640  7.40303E-01  8.02791E-01 -6.24878E-02
    8998.550      0.544   1.680  7.28409E-01  8.16965E-01 -8.85562E-02
    8999.068      1.062   1.720  7.25540E-01  8.30776E-01 -1.05237E-01
    8999.598      1.593   1.760  7.50262E-01  8.44212E-01 -9.39498E-02
    9000.141      2.135   1.800  8.17404E-01  8.57237E-01 -3.98336E-02
    9000.695      2.690   1.840  9.42797E-01  8.69839E-01  7.29581E-02
    9001.262      3.257   1.880  1.12461E+00  8.81988E-01  2.42619E-01
    9001.841      3.836   1.920  1.30087E+00  8.93651E-01  4.07221E-01
    9002.433      4.427   1.960  1.36603E+00  9.04801E-01  4.61227E-01
    9003.036      5.031   2.000  1.31003E+00  9.15450E-01  3.94582E-01
    9003.652      5.646   2.040  1.23620E+00  9.25572E-01  3.10627E-01
    9004.280      6.274   2.080  1.20247E+00  9.35141E-01  2.67324E-01
    9004.920      6.914   2.120  1.19798E+00  9.44175E-01  2.53803E-01
    9005.572      7.567   2.160  1.21275E+00  9.52672E-01  2.60079E-01
    9006.237      8.231   2.200  1.25299E+00  9.60611E-01  2.92383E-01
    9006.913      8.908   2.240  1.30717E+00  9.67990E-01  3.39179E-01
    9007.602      9.597   2.280  1.33295E+00  9.74814E-01  3.58139E-01
    9008.303     10.298   2.320  1.30455E+00  9.81105E-01  3.23446E-01
    9009.016     11.011   2.360  1.23395E+00  9.86867E-01  2.47082E-01
    9009.742     11.736   2.400  1.13493E+00  9.92105E-01  1.42821E-01
    9010.479     12.474   2.440  1.02852E+00  9.96825E-01  3.16926E-02
    9011.229     13.224   2.480  9.53843E-01  1.00104E+00 -4.71926E-02
    9011.991     13.986   2.520  9.25690E-01  1.00478E+00 -7.90931E-02
    9012.765     14.760   2.560  9.30531E-01  1.00805E+00 -7.75233E-02
    9013.552     15.546   2.600  9.53282E-01  1.01088E+00 -5.75983E-02
    9014.350     16.345   2.640  9.72459E-01  1.01327E+00 -4.08117E-02
    9015.161     17.156   2.680  9.86203E-01  1.01526E+00 -2.90520E-02
    9015.984     17.979   2.720  9.93628E-01  1.01684E+00 -2.32156E-02
    9016.819     18.814   2.760  9.94083E-01  1.01809E+00 -2.40038E-02
    9017.666     19.661   2.800  9.90066E-01  1.01895E+00 -2.88885E-02
    9018.526     20.521   2.840  9.85288E-01  1.01952E+00 -3.42319E-02
    9019.398     21.392   2.880  9.81385E-01  1.01977E+00 -3.83860E-02
    9020.282     22.276   2.920  9.78480E-01  1.01972E+00 -4.12390E-02
    9021.178     23.172   2.960  9.75504E-01  1.01944E+00 -4.39316E-02
    9022.086     24.081   3.000  9.70400E-01  1.01889E+00 -4.84915E-02
    9023.007     25.001   3.040  9.61594E-01  1.01816E+00 -5.65632E-02
    9023.939     25.934   3.080  9.49182E-01  1.01720E+00 -6.80203E-02
    9024.884     26.879   3.120  9.35000E-01  1.01606E+00 -8.10564E-02
    9025.841     27.836   3.160  9.21312E-01  1.01477E+00 -9.34590E-02
    9026.810     28.805   3.200  9.09634E-01  1.01335E+00 -1.03720E-01
    9027.792     29.786   3.240  9.00572E-01  1.01179E+00 -1.11222E-01
    9028.786     30.780   3.280  8.94237E-01  1.01014E+00 -1.15903E-01
    9029.791     31.786   3.320  8.90657E-01  1.00838E+00 -1.17722E-01
    9030.809     32.804   3.360  8.89965E-01  1.00656E+00 -1.16595E-01
    9031.840     33.834   3.400  8.91685E-01  1.00467E+00 -1.12986E-01
    9032.882     34.877   3.440  8.95080E-01  1.00274E+00 -1.07659E-01
    9033.937     35.931   3.480  8.99418E-01  1.00079E+00 -1.01374E-01
    9035.003     36.998   3.520  9.04184E-01  9.98815E-01 -9.46310E-02
    9036.082     38.077   3.560  9.09138E-01  9.96834E-01 -8.76952E-02
    9037.174     39.168   3.600  9.14436E-01  9.94854E-01 -8.04180E-02
    9038.277     40.272   3.640  9.20420E-01  9.92901E-01 -7.24812E-02
    9039.393     41.387   3.680  9.27517E-01  9.90958E-01 -6.34412E-02
    9040.520     42.515   3.720  9.36302E-01  9.89052E-01 -5.27507E-02
    9041.660     43.655   3.760  9.47150E-01  9.87187E-01 -4.00371E-02
    9042.812     44.807   3.800  9.59936E-01  9.85388E-01 -2.54517E-02
    9043.977     45.971   3.840  9.74179E-01  9.83636E-01 -9.45646E-03
    9045.153     47.148   3.880  9.89509E-01  9.81954E-01  7.55521E-03
    9046.342     48.336   3.920  1.00558E+00  9.80325E-01  2.52517E-02
    9047.543     49.537   3.960  1.02183E+00  9.78773E-01  4.30539E-02
    9048.756     50.750   4.000  1.03735E+00  9.77319E-01  6.00266E-02
    9049.981     51.976   4.040  1.05081E+00  9.75926E-01  7.48834E-02
    9051.219     53.213   4.080  1.06111E+00  9.74635E-01  8.64717E-02
    9052.468     54.463   4.120  1.06811E+00  9.73407E-01  9.47025E-02
    9053.730     55.725   4.160  1.07303E+00  9.72304E-01  1.00730E-01
    9055.004     56.999   4.200  1.07739E+00  9.71267E-01  1.06125E-01
    9056.291     58.285   4.240  1.08250E+00  9.70336E-01  1.12163E-01
    9057.589     59.584   4.280  1.08900E+00  9.69491E-01  1.19508E-01
    9058.900     60.894   4.320  1.09649E+00  9.68754E-01  1.27735E-01
    9060.222     62.217   4.360  1.10271E+00  9.68103E-01  1.34610E-01
    9061.557     63.552   4.400  1.10364E+00  9.67539E-01  1.36097E-01
    9062.905     64.899   4.440  1.09518E+00  9.67083E-01  1.28093E-01
    9064.264     66.259   4.480  1.07579E+00  9.66733E-01  1.09058E-01
    9065.636     67.630   4.520  1.04744E+00  9.66448E-01  8.09969E-02
    9067.019     69.014   4.560  1.01449E+00  9.66265E-01  4.82225E-02
    9068.415     70.410   4.600  9.81353E-01  9.66166E-01  1.51874E-02
    9069.824     71.818   4.640  9.51371E-01  9.66147E-01 -1.47761E-02
    9071.244     73.239   4.680  9.26455E-01  9.66209E-01 -3.97538E-02
    9072.677     74.671   4.720  9.07424E-01  9.66349E-01 -5.89253E-02
    9074.121     76.116   4.760  8.94343E-01  9.66568E-01 -7.22249E-02
    9075.578     77.573   4.800  8.86744E-01  9.66863E-01 -8.01196E-02
    9077.047     79.042   4.840  8.84016E-01  9.67232E-01 -8.32156E-02
    9078.529     80.523   4.880  8.85758E-01  9.67651E-01 -8.18935E-02
    9080.022     82.017   4.920  8.91926E-01  9.68140E-01 -7.62144E-02
    9081.528     83.522   4.960  9.02709E-01  9.68673E-01 -6.59636E-02
    9083.046     85.040   5.000  9.18010E-01  9.69250E-01 -5.12399E-02
    9084.576     86.570   5.040  9.36760E-01  9.69869E-01 -3.31091E-02
    9086.118     88.113   5.080  9.56666E-01  9.70548E-01 -1.38824E-02
    9087.673     89.667   5.120  9.74736E-01  9.71244E-01  3.49138E-03
    9089.239     91.234   5.160  9.88705E-01  9.71975E-01  1.67298E-02
    9090.818     92.813   5.200  9.97864E-01  9.72738E-01  2.51255E-02
    9092.409     94.404   5.240  1.00273E+00  9.73508E-01  2.92235E-02
    9094.012     96.007   5.280  1.00405E+00  9.74283E-01  2.97709E-02
    9095.628     97.622   5.320  1.00219E+00  9.75082E-01  2.71096E-02
    9097.256     99.250   5.360  9.97158E-01  9.75860E-01  2.12975E-02
    9098.895    100.890   5.400  9.89146E-01  9.76658E-01  1.24876E-02
    9100.547    102.542   5.440  9.78754E-01  9.77430E-01  1.32379E-03
    9102.212    104.206   5.480  9.67240E-01  9.78195E-01 -1.09545E-02
    9103.888    105.882   5.520  9.56121E-01  9.78929E-01 -2.28073E-02
    9105.577    107.571   5.560  9.46532E-01  9.79653E-01 -3.31212E-02
    9107.277    109.272   5.600  9.38667E-01  9.80365E-01 -4.16985E-02
    9108.990    110.985   5.640  9.31827E-01  9.81017E-01 -4.91905E-02
    9110.715    112.710   5.680  9.25165E-01  9.81629E-01 -5.64640E-02
    9112.453    114.447   5.720  9.18259E-01  9.82224E-01 -6.39648E-02
    9114.202    116.197   5.760  9.11351E-01  9.82753E-01 -7.14024E-02
    9115.964    117.959   5.800  9.05464E-01  9.83235E-01 -7.77715E-02
    9117.738    119.733   5.840  9.01994E-01  9.83650E-01 -8.16563E-02
    9119.524    121.519   5.880  9.02227E-01  9.84041E-01 -8.18141E-02
    9121.322    123.317   5.920  9.06914E-01  9.84356E-01 -7.74419E-02
    9123.133    125.127   5.960  9.16593E-01  9.84585E-01 -6.79917E-02
    9124.956    126.950   6.000  9.32411E-01  9.84730E-01 -5.23191E-02
