# # comment:                                                     FEFF 9.9.1  
# # Source:
# # Structure
# # Reduced
# # space
# # abc:
# # angles:
# # sites:
# # POT  SCF 100  7.0000   0, screened core-hole, AFOLP (folp(0)= 1.150)
# # Abs   Z=29 Rmt= 1.272 Rnm= 1.338 K  shell
# # Pot 1 Z= 3 Rmt= 1.263 Rnm= 1.330
# # Pot 2 Z=29 Rmt= 1.272 Rnm= 1.338
# # Pot 3 Z=15 Rmt= 0.942 Rnm= 1.155
# # Pot 4 Z= 8 Rmt= 0.907 Rnm= 1.042
# # Gam_ch=1.729E+00 H-L exch Vi= 0.000E+00 Vr= 0.000E+00
# # Mu=-6.383E+00eV kf=2.428E+00 Vint=-1.733E+01eV Rs_int= 1.494
# FMS rfms= 9.0000
# # PATH  Rmax=-1.000,  Keep_limit= 0.00, Heap_limit 0.00  Pwcrit= 2.50%
#  S02=0.950  Temp=   0.00  Debye_temp=   0.00  Global_sig2= 0.00000
#  Energy zero shift, vr, vi    0.00000E+00   0.00000E+00
#  Curved wave amplitude ratio filter   4.000%
#     file         sig2 tot  cw amp ratio   deg  nlegs   reff  inp sig2
#     0/   0 paths used
#  xsedge+ 50, used to normalize mu           2.4754E-04
#  -----------------------------------------------------------------------
#  omega    e    k    mu    mu0     chi     @#
    8983.643    -10.193  -1.000  4.69982E-02  5.56706E-02 -8.67237E-03
    8983.942     -9.894  -0.960  5.00350E-02  5.98015E-02 -9.76644E-03
    8984.229     -9.608  -0.920  5.33871E-02  6.44012E-02 -1.10141E-02
    8984.503     -9.333  -0.880  5.71021E-02  6.95396E-02 -1.24375E-02
    8984.765     -9.071  -0.840  6.12366E-02  7.52983E-02 -1.40617E-02
    8985.015     -8.821  -0.800  6.58573E-02  8.17721E-02 -1.59148E-02
    8985.253     -8.584  -0.760  7.10420E-02  8.90698E-02 -1.80278E-02
    8985.478     -8.358  -0.720  7.68803E-02  9.73145E-02 -2.04343E-02
    8985.692     -8.145  -0.680  8.34725E-02  1.06642E-01 -2.31696E-02
    8985.893     -7.944  -0.640  9.09266E-02  1.17196E-01 -2.62695E-02
    8986.082     -7.755  -0.600  9.93498E-02  1.29118E-01 -2.97679E-02
    8986.259     -7.578  -0.560  1.08835E-01  1.42528E-01 -3.36937E-02
    8986.423     -7.413  -0.520  1.19435E-01  1.57500E-01 -3.80655E-02
    8986.576     -7.261  -0.480  1.31133E-01  1.74020E-01 -4.28866E-02
    8986.716     -7.121  -0.440  1.43804E-01  1.91941E-01 -4.81370E-02
    8986.844     -6.993  -0.400  1.57182E-01  2.10948E-01 -5.37659E-02
    8986.960     -6.877  -0.360  1.70862E-01  2.30547E-01 -5.96848E-02
    8987.063     -6.773  -0.320  1.84329E-01  2.50092E-01 -6.57630E-02
    8987.155     -6.682  -0.280  1.97040E-01  2.68870E-01 -7.18291E-02
    8987.234     -6.602  -0.240  2.08515E-01  2.86194E-01 -7.76797E-02
    8987.301     -6.535  -0.200  2.18399E-01  3.01495E-01 -8.30956E-02
    8987.356     -6.481  -0.160  2.26494E-01  3.14356E-01 -8.78615E-02
    8987.398     -6.438  -0.120  2.32727E-01  3.24514E-01 -9.17865E-02
    8987.429     -6.407  -0.080  2.37107E-01  3.31827E-01 -9.47197E-02
    8987.453     -6.383   0.000  2.40505E-01  3.37699E-01 -9.71943E-02
    8987.508     -6.328   0.120  2.48007E-01  3.50934E-01 -1.02927E-01
    8987.551     -6.285   0.160  2.53741E-01  3.61211E-01 -1.07470E-01
    8987.606     -6.231   0.200  2.60813E-01  3.74294E-01 -1.13481E-01
    8987.673     -6.164   0.240  2.68930E-01  3.90004E-01 -1.21074E-01
    8987.752     -6.084   0.280  2.77715E-01  4.08006E-01 -1.30291E-01
    8987.843     -5.993   0.320  2.86699E-01  4.27787E-01 -1.41088E-01
    8987.947     -5.889   0.360  2.95520E-01  4.48766E-01 -1.53246E-01
    8988.063     -5.773   0.400  3.03919E-01  4.70260E-01 -1.66340E-01
    8988.191     -5.645   0.440  3.12002E-01  4.91683E-01 -1.79681E-01
    8988.331     -5.505   0.480  3.20129E-01  5.12607E-01 -1.92478E-01
    8988.484     -5.353   0.520  3.28704E-01  5.32705E-01 -2.04000E-01
    8988.648     -5.188   0.560  3.38050E-01  5.51846E-01 -2.13796E-01
    8988.825     -5.011   0.600  3.48216E-01  5.70018E-01 -2.21802E-01
    8989.014     -4.822   0.640  3.59336E-01  5.87267E-01 -2.27932E-01
    8989.215     -4.621   0.680  3.72130E-01  6.03704E-01 -2.31574E-01
    8989.428     -4.408   0.720  3.87872E-01  6.19411E-01 -2.31538E-01
    8989.654     -4.182   0.760  4.07456E-01  6.34532E-01 -2.27076E-01
    8989.892     -3.945   0.800  4.29881E-01  6.49142E-01 -2.19262E-01
    8990.142     -3.695   0.840  4.52182E-01  6.63362E-01 -2.11180E-01
    8990.404     -3.433   0.880  4.71564E-01  6.77215E-01 -2.05651E-01
    8990.678     -3.158   0.920  4.88346E-01  6.90772E-01 -2.02426E-01
    8990.965     -2.872   0.960  5.05913E-01  7.04113E-01 -1.98200E-01
    8991.263     -2.573   1.000  5.26966E-01  7.17203E-01 -1.90237E-01
    8991.574     -2.262   1.040  5.51355E-01  7.30117E-01 -1.78762E-01
    8991.897     -1.939   1.080  5.77849E-01  7.42844E-01 -1.64995E-01
    8992.233     -1.604   1.120  6.05974E-01  7.55385E-01 -1.49411E-01
    8992.580     -1.256   1.160  6.34733E-01  7.67734E-01 -1.33001E-01
    8992.940     -0.897   1.200  6.61919E-01  7.79923E-01 -1.18004E-01
    8993.312     -0.525   1.240  6.85566E-01  7.91877E-01 -1.06310E-01
    8993.696     -0.141   1.280  7.06810E-01  8.03639E-01 -9.68285E-02
    8994.092      0.256   1.320  7.31253E-01  8.15170E-01 -8.39172E-02
    8994.500      0.664   1.360  7.65865E-01  8.26472E-01 -6.06067E-02
    8994.921      1.085   1.400  8.12269E-01  8.37500E-01 -2.52304E-02
    8995.354      1.517   1.440  8.66542E-01  8.48250E-01  1.82913E-02
    8995.799      1.962   1.480  9.24176E-01  8.58722E-01  6.54541E-02
    8996.256      2.420   1.520  9.82035E-01  8.68889E-01  1.13147E-01
    8996.725      2.889   1.560  1.03553E+00  8.78726E-01  1.56799E-01
    8997.207      3.371   1.600  1.08086E+00  8.88231E-01  1.92628E-01
    8997.701      3.864   1.640  1.12225E+00  8.97379E-01  2.24867E-01
    8998.207      4.370   1.680  1.15716E+00  9.06166E-01  2.50996E-01
    8998.725      4.888   1.720  1.17267E+00  9.14591E-01  2.58076E-01
    8999.255      5.419   1.760  1.17032E+00  9.22651E-01  2.47665E-01
    8999.798      5.961   1.800  1.16474E+00  9.30302E-01  2.34443E-01
    9000.352      6.516   1.840  1.16593E+00  9.37586E-01  2.28341E-01
    9000.919      7.083   1.880  1.17105E+00  9.44461E-01  2.26589E-01
    9001.498      7.662   1.920  1.17624E+00  9.50949E-01  2.25295E-01
    9002.090      8.253   1.960  1.18814E+00  9.57050E-01  2.31095E-01
    9002.693      8.857   2.000  1.21221E+00  9.62766E-01  2.49441E-01
    9003.309      9.473   2.040  1.24254E+00  9.68080E-01  2.74456E-01
    9003.937     10.101   2.080  1.26139E+00  9.73036E-01  2.88350E-01
    9004.577     10.741   2.120  1.25393E+00  9.77597E-01  2.76334E-01
    9005.229     11.393   2.160  1.22468E+00  9.81808E-01  2.42872E-01
    9005.894     12.057   2.200  1.18936E+00  9.85654E-01  2.03706E-01
    9006.570     12.734   2.240  1.15960E+00  9.89160E-01  1.70437E-01
    9007.259     13.423   2.280  1.13820E+00  9.92335E-01  1.45866E-01
    9007.960     14.124   2.320  1.12257E+00  9.95181E-01  1.27387E-01
    9008.673     14.837   2.360  1.11025E+00  9.97727E-01  1.12526E-01
    9009.399     15.563   2.400  1.09882E+00  9.99959E-01  9.88569E-02
    9010.136     16.300   2.440  1.08463E+00  1.00193E+00  8.27048E-02
    9010.886     17.050   2.480  1.06460E+00  1.00361E+00  6.09917E-02
    9011.648     17.812   2.520  1.03886E+00  1.00504E+00  3.38173E-02
    9012.422     18.586   2.560  1.01212E+00  1.00623E+00  5.88272E-03
    9013.209     19.373   2.600  9.89089E-01  1.00719E+00 -1.80966E-02
    9014.007     20.171   2.640  9.70061E-01  1.00795E+00 -3.78870E-02
    9014.818     20.982   2.680  9.53238E-01  1.00849E+00 -5.52497E-02
    9015.641     21.805   2.720  9.38578E-01  1.00887E+00 -7.02952E-02
    9016.476     22.640   2.760  9.26280E-01  1.00907E+00 -8.27907E-02
    9017.324     23.487   2.800  9.13965E-01  1.00911E+00 -9.51424E-02
    9018.183     24.347   2.840  9.04477E-01  1.00901E+00 -1.04533E-01
    9019.055     25.219   2.880  8.98519E-01  1.00879E+00 -1.10267E-01
    9019.939     26.102   2.920  8.95628E-01  1.00844E+00 -1.12815E-01
    9020.835     26.999   2.960  8.94314E-01  1.00801E+00 -1.13691E-01
    9021.743     27.907   3.000  8.93117E-01  1.00746E+00 -1.14341E-01
    9022.664     28.827   3.040  8.91524E-01  1.00685E+00 -1.15325E-01
    9023.596     29.760   3.080  8.89437E-01  1.00614E+00 -1.16705E-01
    9024.541     30.705   3.120  8.87330E-01  1.00540E+00 -1.18074E-01
    9025.498     31.662   3.160  8.85737E-01  1.00460E+00 -1.18861E-01
    9026.468     32.631   3.200  8.85143E-01  1.00375E+00 -1.18606E-01
    9027.449     33.613   3.240  8.85962E-01  1.00286E+00 -1.16901E-01
    9028.443     34.606   3.280  8.88723E-01  1.00197E+00 -1.13243E-01
    9029.449     35.612   3.320  8.93528E-01  1.00106E+00 -1.07533E-01
    9030.467     36.630   3.360  9.00508E-01  1.00015E+00 -9.96414E-02
    9031.497     37.660   3.400  9.09664E-01  9.99217E-01 -8.95523E-02
    9032.539     38.703   3.440  9.20866E-01  9.98305E-01 -7.74385E-02
    9033.594     39.757   3.480  9.33683E-01  9.97397E-01 -6.37141E-02
    9034.661     40.824   3.520  9.47502E-01  9.96496E-01 -4.89939E-02
    9035.740     41.903   3.560  9.61490E-01  9.95625E-01 -3.41345E-02
    9036.831     42.994   3.600  9.74661E-01  9.94788E-01 -2.01272E-02
    9037.934     44.098   3.640  9.86504E-01  9.93986E-01 -7.48177E-03
    9039.050     45.213   3.680  9.96961E-01  9.93198E-01  3.76239E-03
    9040.177     46.341   3.720  1.00634E+00  9.92447E-01  1.38955E-02
    9041.317     47.481   3.760  1.01514E+00  9.91757E-01  2.33820E-02
    9042.470     48.633   3.800  1.02376E+00  9.91088E-01  3.26675E-02
    9043.634     49.798   3.840  1.03244E+00  9.90482E-01  4.19621E-02
    9044.810     50.974   3.880  1.04115E+00  9.89917E-01  5.12302E-02
    9045.999     52.163   3.920  1.04957E+00  9.89396E-01  6.01762E-02
    9047.200     53.364   3.960  1.05720E+00  9.88919E-01  6.82786E-02
    9048.413     54.577   4.000  1.06339E+00  9.88508E-01  7.48817E-02
    9049.638     55.802   4.040  1.06770E+00  9.88140E-01  7.95612E-02
    9050.876     57.040   4.080  1.06991E+00  9.87816E-01  8.20950E-02
    9052.126     58.289   4.120  1.07001E+00  9.87537E-01  8.24768E-02
    9053.387     59.551   4.160  1.06821E+00  9.87325E-01  8.08854E-02
    9054.661     60.825   4.200  1.06480E+00  9.87156E-01  7.76433E-02
    9055.948     62.111   4.240  1.06011E+00  9.87032E-01  7.30754E-02
    9057.246     63.410   4.280  1.05448E+00  9.86971E-01  6.75139E-02
    9058.557     64.720   4.320  1.04829E+00  9.86931E-01  6.13622E-02
    9059.880     66.043   4.360  1.04187E+00  9.86954E-01  5.49158E-02
    9061.215     67.378   4.400  1.03537E+00  9.87018E-01  4.83536E-02
    9062.562     68.726   4.440  1.02882E+00  9.87099E-01  4.17160E-02
    9063.921     70.085   4.480  1.02215E+00  9.87242E-01  3.49114E-02
    9065.293     71.457   4.520  1.01528E+00  9.87422E-01  2.78541E-02
    9066.677     72.840   4.560  1.00824E+00  9.87619E-01  2.06228E-02
    9068.073     74.236   4.600  1.00133E+00  9.87873E-01  1.34538E-02
    9069.481     75.644   4.640  9.94752E-01  9.88141E-01  6.61091E-03
    9070.901     77.065   4.680  9.88744E-01  9.88441E-01  3.02650E-04
    9072.334     78.497   4.720  9.83365E-01  9.88750E-01 -5.38577E-03
    9073.778     79.942   4.760  9.78631E-01  9.89090E-01 -1.04592E-02
    9075.235     81.399   4.800  9.74508E-01  9.89439E-01 -1.49306E-02
    9076.705     82.868   4.840  9.70925E-01  9.89814E-01 -1.88893E-02
    9078.186     84.350   4.880  9.67694E-01  9.90194E-01 -2.24994E-02
    9079.679     85.843   4.920  9.64608E-01  9.90578E-01 -2.59696E-02
    9081.185     87.349   4.960  9.61505E-01  9.90964E-01 -2.94590E-02
    9082.703     88.867   5.000  9.58444E-01  9.91372E-01 -3.29285E-02
    9084.233     90.397   5.040  9.55656E-01  9.91760E-01 -3.61040E-02
    9085.775     91.939   5.080  9.53641E-01  9.92166E-01 -3.85249E-02
    9087.330     93.493   5.120  9.52919E-01  9.92548E-01 -3.96290E-02
    9088.896     95.060   5.160  9.53922E-01  9.92925E-01 -3.90028E-02
    9090.475     96.639   5.200  9.56685E-01  9.93295E-01 -3.66098E-02
    9092.066     98.230   5.240  9.60713E-01  9.93635E-01 -3.29222E-02
    9093.670     99.833   5.280  9.65212E-01  9.93965E-01 -2.87534E-02
    9095.285    101.449   5.320  9.69313E-01  9.94265E-01 -2.49519E-02
    9096.913    103.076   5.360  9.72362E-01  9.94554E-01 -2.21916E-02
    9098.552    104.716   5.400  9.73953E-01  9.94811E-01 -2.08582E-02
    9100.204    106.368   5.440  9.73988E-01  9.95056E-01 -2.10682E-02
    9101.869    108.032   5.480  9.72610E-01  9.95265E-01 -2.26551E-02
    9103.545    109.709   5.520  9.70273E-01  9.95438E-01 -2.51646E-02
    9105.234    111.397   5.560  9.67671E-01  9.95574E-01 -2.79027E-02
    9106.934    113.098   5.600  9.65573E-01  9.95697E-01 -3.01244E-02
    9108.647    114.811   5.640  9.64568E-01  9.95783E-01 -3.12148E-02
    9110.373    116.536   5.680  9.65053E-01  9.95830E-01 -3.07772E-02
    9112.110    118.274   5.720  9.67235E-01  9.95838E-01 -2.86032E-02
    9113.859    120.023   5.760  9.71196E-01  9.95807E-01 -2.46113E-02
    9115.621    121.785   5.800  9.76898E-01  9.95736E-01 -1.88377E-02
    9117.395    123.559   5.840  9.84155E-01  9.95627E-01 -1.14717E-02
    9119.181    125.345   5.880  9.92562E-01  9.95478E-01 -2.91599E-03
    9120.980    127.143   5.920  1.00148E+00  9.95293E-01  6.18293E-03
    9122.790    128.954   5.960  1.00996E+00  9.95069E-01  1.48879E-02
    9124.613    130.776   6.000  1.01697E+00  9.94810E-01  2.21644E-02
