# # comment:                                                     FEFF 9.9.1  
# # Source:
# # Structure
# # Reduced
# # space
# # abc:
# # angles:
# # sites:
# # POT  SCF 100  7.0000   0, screened core-hole, AFOLP (folp(0)= 1.150)
# # Abs   Z=29 Rmt= 1.226 Rnm= 1.320 K  shell
# # Pot 1 Z=29 Rmt= 1.229 Rnm= 1.323
# # Pot 2 Z= 8 Rmt= 1.002 Rnm= 1.094
# # Gam_ch=1.729E+00 H-L exch Vi= 0.000E+00 Vr= 0.000E+00
# # Mu=-6.579E+00eV kf=2.178E+00 Vint=-1.521E+01eV Rs_int= 1.665
# FMS rfms= 9.0000
# # PATH  Rmax=-1.000,  Keep_limit= 0.00, Heap_limit 0.00  Pwcrit= 2.50%
#  S02=0.950  Temp=   0.00  Debye_temp=   0.00  Global_sig2= 0.00000
#  Energy zero shift, vr, vi    0.00000E+00   0.00000E+00
#  Curved wave amplitude ratio filter   4.000%
#     file         sig2 tot  cw amp ratio   deg  nlegs   reff  inp sig2
#     0/   0 paths used
#  xsedge+ 50, used to normalize mu           2.4444E-04
#  -----------------------------------------------------------------------
#  omega    e    k    mu    mu0     chi     @#
    8983.578    -10.389  -1.000  4.00469E-02  5.52598E-02 -1.52129E-02
    8983.877    -10.090  -0.960  4.23445E-02  5.93019E-02 -1.69574E-02
    8984.163     -9.804  -0.920  4.48428E-02  6.37949E-02 -1.89521E-02
    8984.438     -9.529  -0.880  4.75654E-02  6.88054E-02 -2.12400E-02
    8984.700     -9.267  -0.840  5.05387E-02  7.44105E-02 -2.38718E-02
    8984.950     -9.017  -0.800  5.37919E-02  8.06999E-02 -2.69080E-02
    8985.187     -8.780  -0.760  5.73572E-02  8.77763E-02 -3.04191E-02
    8985.413     -8.554  -0.720  6.12689E-02  9.57559E-02 -3.44869E-02
    8985.626     -8.341  -0.680  6.55630E-02  1.04766E-01 -3.92034E-02
    8985.827     -8.139  -0.640  7.02747E-02  1.14943E-01 -4.46682E-02
    8986.016     -7.950  -0.600  7.54359E-02  1.26418E-01 -5.09819E-02
    8986.193     -7.774  -0.560  8.10703E-02  1.39304E-01 -5.82341E-02
    8986.358     -7.609  -0.520  8.71861E-02  1.53670E-01 -6.64835E-02
    8986.510     -7.457  -0.480  9.37676E-02  1.69499E-01 -7.57312E-02
    8986.650     -7.317  -0.440  1.00764E-01  1.86653E-01 -8.58884E-02
    8986.778     -7.188  -0.400  1.08083E-01  2.04833E-01 -9.67502E-02
    8986.894     -7.073  -0.360  1.15582E-01  2.23571E-01 -1.07989E-01
    8986.998     -6.969  -0.320  1.23078E-01  2.42256E-01 -1.19178E-01
    8987.089     -6.878  -0.280  1.30357E-01  2.60211E-01 -1.29854E-01
    8987.169     -6.798  -0.240  1.37196E-01  2.76786E-01 -1.39589E-01
    8987.236     -6.731  -0.200  1.43382E-01  2.91434E-01 -1.48052E-01
    8987.290     -6.676  -0.160  1.48723E-01  3.03757E-01 -1.55033E-01
    8987.333     -6.634  -0.120  1.53059E-01  3.13498E-01 -1.60439E-01
    8987.364     -6.603  -0.080  1.56265E-01  3.20516E-01 -1.64252E-01
    8987.388     -6.579   0.000  1.58934E-01  3.26156E-01 -1.67222E-01
    8987.443     -6.524   0.120  1.65071E-01  3.38860E-01 -1.73788E-01
    8987.486     -6.481   0.160  1.69909E-01  3.48747E-01 -1.78838E-01
    8987.540     -6.426   0.200  1.76290E-01  3.61363E-01 -1.85073E-01
    8987.607     -6.359   0.240  1.84356E-01  3.76537E-01 -1.92181E-01
    8987.687     -6.280   0.280  1.94281E-01  3.93990E-01 -1.99709E-01
    8987.778     -6.189   0.320  2.06201E-01  4.13217E-01 -2.07016E-01
    8987.882     -6.085   0.360  2.20411E-01  4.33733E-01 -2.13322E-01
    8987.998     -5.969   0.400  2.37089E-01  4.54893E-01 -2.17803E-01
    8988.126     -5.841   0.440  2.56466E-01  4.76161E-01 -2.19696E-01
    8988.266     -5.701   0.480  2.78738E-01  4.97128E-01 -2.18390E-01
    8988.418     -5.549   0.520  3.03898E-01  5.17528E-01 -2.13630E-01
    8988.583     -5.384   0.560  3.31499E-01  5.37197E-01 -2.05698E-01
    8988.760     -5.207   0.600  3.60170E-01  5.56145E-01 -1.95974E-01
    8988.949     -5.018   0.640  3.86876E-01  5.74365E-01 -1.87488E-01
    8989.150     -4.817   0.680  4.07228E-01  5.91972E-01 -1.84744E-01
    8989.363     -4.604   0.720  4.17557E-01  6.09033E-01 -1.91476E-01
    8989.589     -4.378   0.760  4.18369E-01  6.25656E-01 -2.07288E-01
    8989.826     -4.140   0.800  4.14737E-01  6.41918E-01 -2.27180E-01
    8990.076     -3.891   0.840  4.12574E-01  6.57859E-01 -2.45284E-01
    8990.338     -3.628   0.880  4.14801E-01  6.73528E-01 -2.58726E-01
    8990.613     -3.354   0.920  4.19457E-01  6.88960E-01 -2.69503E-01
    8990.899     -3.068   0.960  4.20048E-01  7.04200E-01 -2.84152E-01
    8991.198     -2.769   1.000  4.10787E-01  7.19238E-01 -3.08451E-01
    8991.509     -2.458   1.040  3.94280E-01  7.34057E-01 -3.39777E-01
    8991.832     -2.135   1.080  3.78929E-01  7.48674E-01 -3.69745E-01
    8992.167     -1.800   1.120  3.70107E-01  7.63056E-01 -3.92950E-01
    8992.515     -1.452   1.160  3.69258E-01  7.77208E-01 -4.07951E-01
    8992.874     -1.093   1.200  3.77173E-01  7.91091E-01 -4.13918E-01
    8993.246     -0.721   1.240  3.94514E-01  8.04662E-01 -4.10148E-01
    8993.630     -0.337   1.280  4.20768E-01  8.17935E-01 -3.97167E-01
    8994.027      0.060   1.320  4.53185E-01  8.30866E-01 -3.77681E-01
    8994.435      0.468   1.360  4.87465E-01  8.43406E-01 -3.55941E-01
    8994.856      0.889   1.400  5.21403E-01  8.55569E-01 -3.34166E-01
    8995.288      1.321   1.440  5.57329E-01  8.67308E-01 -3.09979E-01
    8995.733      1.767   1.480  5.98419E-01  8.78615E-01 -2.80195E-01
    8996.191      2.224   1.520  6.45094E-01  8.89464E-01 -2.44370E-01
    8996.660      2.693   1.560  6.97637E-01  8.99830E-01 -2.02193E-01
    8997.142      3.175   1.600  7.57648E-01  9.09729E-01 -1.52082E-01
    8997.635      3.668   1.640  8.29218E-01  9.19117E-01 -8.98997E-02
    8998.141      4.174   1.680  9.20839E-01  9.28012E-01 -7.17335E-03
    8998.659      4.693   1.720  1.04006E+00  9.36393E-01  1.03670E-01
    8999.190      5.223   1.760  1.18909E+00  9.44262E-01  2.44825E-01
    8999.732      5.765   1.800  1.35566E+00  9.51618E-01  4.04040E-01
    9000.287      6.320   1.840  1.50237E+00  9.58467E-01  5.43899E-01
    9000.854      6.887   1.880  1.58494E+00  9.64811E-01  6.20129E-01
    9001.433      7.466   1.920  1.59297E+00  9.70677E-01  6.22294E-01
    9002.024      8.058   1.960  1.55265E+00  9.76072E-01  5.76583E-01
    9002.628      8.661   2.000  1.50151E+00  9.80982E-01  5.20529E-01
    9003.244      9.277   2.040  1.46151E+00  9.85454E-01  4.76060E-01
    9003.872      9.905   2.080  1.42499E+00  9.89477E-01  4.35516E-01
    9004.512     10.545   2.120  1.37052E+00  9.93103E-01  3.77415E-01
    9005.164     11.197   2.160  1.29029E+00  9.96319E-01  2.93972E-01
    9005.828     11.861   2.200  1.19808E+00  9.99133E-01  1.98943E-01
    9006.505     12.538   2.240  1.11562E+00  1.00160E+00  1.14024E-01
    9007.194     13.227   2.280  1.06052E+00  1.00373E+00  5.67921E-02
    9007.895     13.928   2.320  1.03717E+00  1.00553E+00  3.16468E-02
    9008.608     14.641   2.360  1.03626E+00  1.00703E+00  2.92334E-02
    9009.334     15.367   2.400  1.04485E+00  1.00825E+00  3.66089E-02
    9010.071     16.104   2.440  1.05318E+00  1.00921E+00  4.39735E-02
    9010.821     16.854   2.480  1.05544E+00  1.00994E+00  4.54985E-02
    9011.583     17.616   2.520  1.04901E+00  1.01044E+00  3.85703E-02
    9012.357     18.390   2.560  1.03268E+00  1.01074E+00  2.19400E-02
    9013.144     19.177   2.600  1.01231E+00  1.01086E+00  1.45079E-03
    9013.942     19.975   2.640  9.97276E-01  1.01081E+00 -1.35321E-02
    9014.753     20.786   2.680  9.88396E-01  1.01060E+00 -2.22052E-02
    9015.576     21.609   2.720  9.85620E-01  1.01027E+00 -2.46470E-02
    9016.411     22.444   2.760  9.87123E-01  1.00983E+00 -2.27110E-02
    9017.258     23.291   2.800  9.90004E-01  1.00929E+00 -1.92825E-02
    9018.118     24.151   2.840  9.91710E-01  1.00865E+00 -1.69435E-02
    9018.990     25.023   2.880  9.90418E-01  1.00796E+00 -1.75451E-02
    9019.873     25.907   2.920  9.85282E-01  1.00720E+00 -2.19189E-02
    9020.770     26.803   2.960  9.76571E-01  1.00639E+00 -2.98226E-02
    9021.678     27.711   3.000  9.65138E-01  1.00555E+00 -4.04109E-02
    9022.598     28.631   3.040  9.51964E-01  1.00469E+00 -5.27261E-02
    9023.531     29.564   3.080  9.37970E-01  1.00382E+00 -6.58532E-02
    9024.476     30.509   3.120  9.24104E-01  1.00293E+00 -7.88291E-02
    9025.433     31.466   3.160  9.10999E-01  1.00207E+00 -9.10660E-02
    9026.402     32.435   3.200  8.98926E-01  1.00120E+00 -1.02276E-01
    9027.384     33.417   3.240  8.88193E-01  1.00037E+00 -1.12174E-01
    9028.377     34.410   3.280  8.78785E-01  9.99545E-01 -1.20759E-01
    9029.383     35.416   3.320  8.70896E-01  9.98757E-01 -1.27861E-01
    9030.401     36.434   3.360  8.64995E-01  9.98006E-01 -1.33012E-01
    9031.431     37.465   3.400  8.61616E-01  9.97296E-01 -1.35680E-01
    9032.474     38.507   3.440  8.61072E-01  9.96629E-01 -1.35557E-01
    9033.528     39.562   3.480  8.63606E-01  9.96027E-01 -1.32421E-01
    9034.595     40.628   3.520  8.69331E-01  9.95473E-01 -1.26142E-01
    9035.674     41.707   3.560  8.78043E-01  9.94965E-01 -1.16921E-01
    9036.765     42.799   3.600  8.89392E-01  9.94525E-01 -1.05133E-01
    9037.869     43.902   3.640  9.02915E-01  9.94135E-01 -9.12202E-02
    9038.984     45.017   3.680  9.18121E-01  9.93815E-01 -7.56940E-02
    9040.112     46.145   3.720  9.34519E-01  9.93546E-01 -5.90266E-02
    9041.252     47.285   3.760  9.51898E-01  9.93347E-01 -4.14494E-02
    9042.404     48.437   3.800  9.70028E-01  9.93199E-01 -2.31711E-02
    9043.569     49.602   3.840  9.88559E-01  9.93123E-01 -4.56436E-03
    9044.745     50.778   3.880  1.00698E+00  9.93119E-01  1.38620E-02
    9045.934     51.967   3.920  1.02470E+00  9.93164E-01  3.15401E-02
    9047.135     53.168   3.960  1.04105E+00  9.93257E-01  4.77885E-02
    9048.348     54.381   4.000  1.05543E+00  9.93418E-01  6.20076E-02
    9049.573     55.606   4.040  1.06737E+00  9.93627E-01  7.37431E-02
    9050.811     56.844   4.080  1.07652E+00  9.93904E-01  8.26172E-02
    9052.060     58.093   4.120  1.08255E+00  9.94204E-01  8.83492E-02
    9053.322     59.355   4.160  1.08551E+00  9.94592E-01  9.09172E-02
    9054.596     60.629   4.200  1.08558E+00  9.95000E-01  9.05808E-02
    9055.882     61.915   4.240  1.08335E+00  9.95447E-01  8.79064E-02
    9057.181     63.214   4.280  1.07966E+00  9.95934E-01  8.37289E-02
    9058.491     64.525   4.320  1.07547E+00  9.96460E-01  7.90072E-02
    9059.814     65.847   4.360  1.07161E+00  9.97024E-01  7.45822E-02
    9061.149     67.182   4.400  1.06868E+00  9.97622E-01  7.10569E-02
    9062.497     68.530   4.440  1.06690E+00  9.98231E-01  6.86732E-02
    9063.856     69.889   4.480  1.06606E+00  9.98873E-01  6.71841E-02
    9065.228     71.261   4.520  1.06540E+00  9.99543E-01  6.58521E-02
    9066.611     72.644   4.560  1.06387E+00  1.00020E+00  6.36765E-02
    9068.007     74.040   4.600  1.06053E+00  1.00088E+00  5.96562E-02
    9069.415     75.449   4.640  1.05475E+00  1.00156E+00  5.31935E-02
    9070.836     76.869   4.680  1.04658E+00  1.00227E+00  4.43173E-02
    9072.268     78.301   4.720  1.03644E+00  1.00295E+00  3.34905E-02
    9073.713     79.746   4.760  1.02503E+00  1.00363E+00  2.14023E-02
    9075.170     81.203   4.800  1.01321E+00  1.00431E+00  8.90111E-03
    9076.639     82.672   4.840  1.00190E+00  1.00498E+00 -3.08112E-03
    9078.121     84.154   4.880  9.91967E-01  1.00562E+00 -1.36495E-02
    9079.614     85.647   4.920  9.84127E-01  1.00625E+00 -2.21196E-02
    9081.120     87.153   4.960  9.78678E-01  1.00684E+00 -2.81656E-02
    9082.638     88.671   5.000  9.75649E-01  1.00743E+00 -3.17788E-02
    9084.168     90.201   5.040  9.74777E-01  1.00798E+00 -3.31998E-02
    9085.710     91.743   5.080  9.75709E-01  1.00849E+00 -3.27779E-02
    9087.264     93.298   5.120  9.77996E-01  1.00896E+00 -3.09638E-02
    9088.831     94.864   5.160  9.81074E-01  1.00942E+00 -2.83435E-02
    9090.410     96.443   5.200  9.84349E-01  1.00983E+00 -2.54861E-02
    9092.001     98.034   5.240  9.87322E-01  1.01019E+00 -2.28650E-02
    9093.604     99.637   5.280  9.89800E-01  1.01052E+00 -2.07185E-02
    9095.220    101.253   5.320  9.91559E-01  1.01079E+00 -1.92284E-02
    9096.847    102.880   5.360  9.92389E-01  1.01103E+00 -1.86438E-02
    9098.487    104.520   5.400  9.92050E-01  1.01121E+00 -1.91624E-02
    9100.139    106.172   5.440  9.90678E-01  1.01135E+00 -2.06693E-02
    9101.803    107.836   5.480  9.88719E-01  1.01144E+00 -2.27166E-02
    9103.480    109.513   5.520  9.86715E-01  1.01146E+00 -2.47430E-02
    9105.168    111.201   5.560  9.85121E-01  1.01146E+00 -2.63377E-02
    9106.869    112.902   5.600  9.84040E-01  1.01139E+00 -2.73521E-02
    9108.582    114.615   5.640  9.83394E-01  1.01128E+00 -2.78872E-02
    9110.307    116.340   5.680  9.82984E-01  1.01113E+00 -2.81429E-02
    9112.045    118.078   5.720  9.82541E-01  1.01093E+00 -2.83876E-02
    9113.794    119.827   5.760  9.81712E-01  1.01066E+00 -2.89529E-02
    9115.556    121.589   5.800  9.80229E-01  1.01038E+00 -3.01538E-02
    9117.330    123.363   5.840  9.78051E-01  1.01004E+00 -3.19859E-02
    9119.116    125.149   5.880  9.75770E-01  1.00965E+00 -3.38828E-02
    9120.914    126.947   5.920  9.74376E-01  1.00926E+00 -3.48812E-02
    9122.725    128.758   5.960  9.74666E-01  1.00880E+00 -3.41358E-02
    9124.547    130.581   6.000  9.77048E-01  1.00831E+00 -3.12593E-02
