# # comment:                                                     FEFF 9.9.1  
# # Source:
# # Structure
# # Reduced
# # space
# # abc:
# # angles:
# # sites:
# # POT  SCF 100  7.0000   0, screened core-hole, AFOLP (folp(0)= 1.150)
# # Abs   Z=29 Rmt= 1.233 Rnm= 1.376 K  shell
# # Pot 1 Z=29 Rmt= 1.233 Rnm= 1.376
# # Pot 2 Z=74 Rmt= 1.254 Rnm= 1.433
# # Pot 3 Z= 8 Rmt= 0.917 Rnm= 1.077
# # Gam_ch=1.729E+00 H-L exch Vi= 0.000E+00 Vr= 0.000E+00
# # Mu=-5.567E+00eV kf=2.214E+00 Vint=-1.500E+01eV Rs_int= 1.638
# FMS rfms= 9.0000
# # PATH  Rmax=-1.000,  Keep_limit= 0.00, Heap_limit 0.00  Pwcrit= 2.50%
#  S02=0.950  Temp=   0.00  Debye_temp=   0.00  Global_sig2= 0.00000
#  Energy zero shift, vr, vi    0.00000E+00   0.00000E+00
#  Curved wave amplitude ratio filter   4.000%
#     file         sig2 tot  cw amp ratio   deg  nlegs   reff  inp sig2
#     0/   0 paths used
#  xsedge+ 50, used to normalize mu           2.4512E-04
#  -----------------------------------------------------------------------
#  omega    e    k    mu    mu0     chi     @#
    8983.398     -9.377  -1.000  4.90164E-02  5.77302E-02 -8.71377E-03
    8983.697     -9.078  -0.960  5.22947E-02  6.20305E-02 -9.73584E-03
    8983.984     -8.792  -0.920  5.59188E-02  6.68176E-02 -1.08989E-02
    8984.258     -8.518  -0.880  5.99393E-02  7.21638E-02 -1.22245E-02
    8984.520     -8.255  -0.840  6.44154E-02  7.81534E-02 -1.37380E-02
    8984.770     -8.005  -0.800  6.94158E-02  8.48840E-02 -1.54682E-02
    8985.008     -7.768  -0.760  7.50197E-02  9.24680E-02 -1.74483E-02
    8985.233     -7.542  -0.720  8.13167E-02  1.01032E-01 -1.97156E-02
    8985.447     -7.329  -0.680  8.84059E-02  1.10717E-01 -2.23107E-02
    8985.648     -7.128  -0.640  9.63922E-02  1.21669E-01 -2.52766E-02
    8985.837     -6.939  -0.600  1.05379E-01  1.34034E-01 -2.86552E-02
    8986.014     -6.762  -0.560  1.15455E-01  1.47937E-01 -3.24825E-02
    8986.178     -6.597  -0.520  1.26672E-01  1.63452E-01 -3.67799E-02
    8986.331     -6.445  -0.480  1.39019E-01  1.80563E-01 -4.15440E-02
    8986.471     -6.305  -0.440  1.52388E-01  1.99121E-01 -4.67330E-02
    8986.599     -6.177  -0.400  1.66543E-01  2.18799E-01 -5.22563E-02
    8986.715     -6.061  -0.360  1.81117E-01  2.39088E-01 -5.79708E-02
    8986.818     -5.957  -0.320  1.95632E-01  2.59322E-01 -6.36900E-02
    8986.910     -5.866  -0.280  2.09560E-01  2.78765E-01 -6.92052E-02
    8986.989     -5.787  -0.240  2.22394E-01  2.96709E-01 -7.43140E-02
    8987.056     -5.719  -0.200  2.33716E-01  3.12561E-01 -7.88447E-02
    8987.111     -5.665  -0.160  2.43221E-01  3.25890E-01 -8.26689E-02
    8987.154     -5.622  -0.120  2.50721E-01  3.36423E-01 -8.57020E-02
    8987.184     -5.591  -0.080  2.56114E-01  3.44008E-01 -8.78945E-02
    8987.208     -5.567   0.000  2.60437E-01  3.50101E-01 -8.96633E-02
    8987.263     -5.512   0.120  2.70239E-01  3.63831E-01 -9.35913E-02
    8987.306     -5.470   0.160  2.77820E-01  3.74494E-01 -9.66746E-02
    8987.361     -5.415   0.200  2.87479E-01  3.88108E-01 -1.00629E-01
    8987.428     -5.348   0.240  2.99033E-01  4.04459E-01 -1.05426E-01
    8987.507     -5.268   0.280  3.12218E-01  4.23207E-01 -1.10989E-01
    8987.599     -5.177   0.320  3.26627E-01  4.43838E-01 -1.17211E-01
    8987.702     -5.073   0.360  3.41801E-01  4.65763E-01 -1.23962E-01
    8987.818     -4.957   0.400  3.57203E-01  4.88310E-01 -1.31107E-01
    8987.946     -4.829   0.440  3.72315E-01  5.10886E-01 -1.38571E-01
    8988.086     -4.689   0.480  3.86631E-01  5.32993E-01 -1.46362E-01
    8988.239     -4.537   0.520  3.99806E-01  5.54357E-01 -1.54551E-01
    8988.403     -4.372   0.560  4.11720E-01  5.74803E-01 -1.63084E-01
    8988.580     -4.195   0.600  4.22749E-01  5.94316E-01 -1.71567E-01
    8988.769     -4.006   0.640  4.33838E-01  6.12939E-01 -1.79101E-01
    8988.970     -3.805   0.680  4.46276E-01  6.30757E-01 -1.84481E-01
    8989.184     -3.592   0.720  4.61006E-01  6.47872E-01 -1.86866E-01
    8989.409     -3.366   0.760  4.77854E-01  6.64403E-01 -1.86549E-01
    8989.647     -3.129   0.800  4.95209E-01  6.80420E-01 -1.85211E-01
    8989.897     -2.879   0.840  5.10754E-01  6.96018E-01 -1.85264E-01
    8990.159     -2.617   0.880  5.22662E-01  7.11238E-01 -1.88576E-01
    8990.433     -2.342   0.920  5.30872E-01  7.26123E-01 -1.95250E-01
    8990.720     -2.056   0.960  5.37781E-01  7.40725E-01 -2.02944E-01
    8991.018     -1.757   1.000  5.47202E-01  7.55024E-01 -2.07822E-01
    8991.329     -1.446   1.040  5.62078E-01  7.69051E-01 -2.06973E-01
    8991.652     -1.123   1.080  5.82835E-01  7.82808E-01 -1.99973E-01
    8991.988     -0.788   1.120  6.07970E-01  7.96288E-01 -1.88318E-01
    8992.335     -0.440   1.160  6.35016E-01  8.09484E-01 -1.74468E-01
    8992.695     -0.081   1.200  6.60603E-01  8.22360E-01 -1.61757E-01
    8993.067      0.291   1.240  6.82082E-01  8.34897E-01 -1.52814E-01
    8993.451      0.675   1.280  7.00246E-01  8.47116E-01 -1.46870E-01
    8993.847      1.071   1.320  7.18606E-01  8.58955E-01 -1.40349E-01
    8994.255      1.480   1.360  7.41210E-01  8.70411E-01 -1.29201E-01
    8994.676      1.901   1.400  7.70353E-01  8.81461E-01 -1.11108E-01
    8995.109      2.333   1.440  8.05813E-01  8.92101E-01 -8.62885E-02
    8995.554      2.778   1.480  8.46056E-01  9.02308E-01 -5.62517E-02
    8996.011      3.236   1.520  8.90587E-01  9.12057E-01 -2.14698E-02
    8996.480      3.705   1.560  9.40898E-01  9.21346E-01  1.95522E-02
    8996.962      4.186   1.600  9.98030E-01  9.30173E-01  6.78570E-02
    8997.456      4.680   1.640  1.05834E+00  9.38518E-01  1.19819E-01
    8997.962      5.186   1.680  1.11236E+00  9.46380E-01  1.65979E-01
    8998.480      5.704   1.720  1.14903E+00  9.53761E-01  1.95274E-01
    8999.010      6.235   1.760  1.16295E+00  9.60663E-01  2.02288E-01
    8999.553      6.777   1.800  1.15924E+00  9.67089E-01  1.92147E-01
    9000.108      7.332   1.840  1.15009E+00  9.73043E-01  1.77050E-01
    9000.674      7.899   1.880  1.14633E+00  9.78529E-01  1.67805E-01
    9001.254      8.478   1.920  1.15119E+00  9.83574E-01  1.67621E-01
    9001.845      9.069   1.960  1.16148E+00  9.88144E-01  1.73338E-01
    9002.448      9.673   2.000  1.17345E+00  9.92307E-01  1.81142E-01
    9003.064     10.289   2.040  1.18588E+00  9.96052E-01  1.89826E-01
    9003.692     10.916   2.080  1.19884E+00  9.99386E-01  1.99456E-01
    9004.332     11.557   2.120  1.20903E+00  1.00236E+00  2.06671E-01
    9004.984     12.209   2.160  1.20915E+00  1.00494E+00  2.04205E-01
    9005.649     12.873   2.200  1.19345E+00  1.00720E+00  1.86254E-01
    9006.325     13.550   2.240  1.16269E+00  1.00911E+00  1.53588E-01
    9007.014     14.239   2.280  1.12462E+00  1.01071E+00  1.13907E-01
    9007.715     14.940   2.320  1.08926E+00  1.01202E+00  7.72375E-02
    9008.429     15.653   2.360  1.06213E+00  1.01307E+00  4.90551E-02
    9009.154     16.378   2.400  1.04175E+00  1.01387E+00  2.78752E-02
    9009.892     17.116   2.440  1.02356E+00  1.01443E+00  9.13390E-03
    9010.641     17.866   2.480  1.00465E+00  1.01477E+00 -1.01226E-02
    9011.403     18.628   2.520  9.87609E-01  1.01491E+00 -2.73020E-02
    9012.178     19.402   2.560  9.78140E-01  1.01488E+00 -3.67380E-02
    9012.964     20.188   2.600  9.77116E-01  1.01468E+00 -3.75638E-02
    9013.763     20.987   2.640  9.80813E-01  1.01435E+00 -3.35339E-02
    9014.573     21.798   2.680  9.82538E-01  1.01389E+00 -3.13488E-02
    9015.396     22.621   2.720  9.83354E-01  1.01331E+00 -2.99524E-02
    9016.231     23.456   2.760  9.84172E-01  1.01263E+00 -2.84621E-02
    9017.079     24.303   2.800  9.85268E-01  1.01186E+00 -2.65884E-02
    9017.938     25.163   2.840  9.86874E-01  1.01104E+00 -2.41692E-02
    9018.810     26.034   2.880  9.88910E-01  1.01016E+00 -2.12469E-02
    9019.694     26.918   2.920  9.91204E-01  1.00921E+00 -1.80018E-02
    9020.590     27.814   2.960  9.93470E-01  1.00823E+00 -1.47639E-02
    9021.498     28.723   3.000  9.95036E-01  1.00725E+00 -1.22148E-02
    9022.419     29.643   3.040  9.95081E-01  1.00624E+00 -1.11569E-02
    9023.351     30.576   3.080  9.93038E-01  1.00522E+00 -1.21823E-02
    9024.296     31.521   3.120  9.88748E-01  1.00420E+00 -1.54570E-02
    9025.253     32.478   3.160  9.82662E-01  1.00321E+00 -2.05514E-02
    9026.223     33.447   3.200  9.75541E-01  1.00223E+00 -2.66899E-02
    9027.204     34.429   3.240  9.68200E-01  1.00128E+00 -3.30806E-02
    9028.198     35.422   3.280  9.61199E-01  1.00036E+00 -3.91652E-02
    9029.204     36.428   3.320  9.54893E-01  9.99466E-01 -4.45727E-02
    9030.222     37.446   3.360  9.49621E-01  9.98628E-01 -4.90064E-02
    9031.252     38.476   3.400  9.45485E-01  9.97831E-01 -5.23469E-02
    9032.294     39.519   3.440  9.42485E-01  9.97079E-01 -5.45936E-02
    9033.349     40.573   3.480  9.40704E-01  9.96370E-01 -5.56666E-02
    9034.416     41.640   3.520  9.40322E-01  9.95730E-01 -5.54074E-02
    9035.495     42.719   3.560  9.41460E-01  9.95138E-01 -5.36775E-02
    9036.586     43.810   3.600  9.44311E-01  9.94616E-01 -5.03044E-02
    9037.689     44.914   3.640  9.48987E-01  9.94142E-01 -4.51543E-02
    9038.805     46.029   3.680  9.55452E-01  9.93717E-01 -3.82651E-02
    9039.933     47.157   3.720  9.63437E-01  9.93386E-01 -2.99497E-02
    9041.072     48.297   3.760  9.72364E-01  9.93106E-01 -2.07421E-02
    9042.225     49.449   3.800  9.81457E-01  9.92876E-01 -1.14189E-02
    9043.389     50.613   3.840  9.89871E-01  9.92716E-01 -2.84432E-03
    9044.565     51.790   3.880  9.96928E-01  9.92606E-01  4.32165E-03
    9045.754     52.979   3.920  1.00230E+00  9.92568E-01  9.72872E-03
    9046.955     54.180   3.960  1.00592E+00  9.92600E-01  1.33246E-02
    9048.168     55.393   4.000  1.00804E+00  9.92681E-01  1.53559E-02
    9049.393     56.618   4.040  1.00906E+00  9.92809E-01  1.62533E-02
    9050.631     57.855   4.080  1.00951E+00  9.93004E-01  1.65082E-02
    9051.881     59.105   4.120  1.00985E+00  9.93244E-01  1.66062E-02
    9053.142     60.367   4.160  1.01048E+00  9.93525E-01  1.69525E-02
    9054.417     61.641   4.200  1.01164E+00  9.93850E-01  1.77884E-02
    9055.703     62.927   4.240  1.01332E+00  9.94216E-01  1.91034E-02
    9057.001     64.226   4.280  1.01527E+00  9.94644E-01  2.06254E-02
    9058.312     65.536   4.320  1.01702E+00  9.95089E-01  2.19263E-02
    9059.635     66.859   4.360  1.01816E+00  9.95568E-01  2.25954E-02
    9060.970     68.194   4.400  1.01847E+00  9.96083E-01  2.23910E-02
    9062.317     69.541   4.440  1.01797E+00  9.96610E-01  2.13592E-02
    9063.676     70.901   4.480  1.01686E+00  9.97168E-01  1.96928E-02
    9065.048     72.272   4.520  1.01541E+00  9.97758E-01  1.76536E-02
    9066.432     73.656   4.560  1.01389E+00  9.98353E-01  1.55340E-02
    9067.828     75.052   4.600  1.01258E+00  9.98952E-01  1.36245E-02
    9069.236     76.460   4.640  1.01177E+00  9.99554E-01  1.22183E-02
    9070.656     77.881   4.680  1.01176E+00  1.00018E+00  1.15799E-02
    9072.089     79.313   4.720  1.01265E+00  1.00078E+00  1.18628E-02
    9073.534     80.758   4.760  1.01446E+00  1.00141E+00  1.30585E-02
    9074.990     82.215   4.800  1.01700E+00  1.00200E+00  1.49993E-02
    9076.460     83.684   4.840  1.01998E+00  1.00259E+00  1.73833E-02
    9077.941     85.165   4.880  1.02303E+00  1.00318E+00  1.98537E-02
    9079.434     86.659   4.920  1.02583E+00  1.00373E+00  2.21013E-02
    9080.940     88.165   4.960  1.02817E+00  1.00428E+00  2.38914E-02
    9082.458     89.683   5.000  1.02979E+00  1.00479E+00  2.49975E-02
    9083.988     91.213   5.040  1.03042E+00  1.00529E+00  2.51352E-02
    9085.530     92.755   5.080  1.02975E+00  1.00575E+00  2.40014E-02
    9087.085     94.309   5.120  1.02764E+00  1.00618E+00  2.14645E-02
    9088.652     95.876   5.160  1.02425E+00  1.00656E+00  1.76891E-02
    9090.230     97.455   5.200  1.02002E+00  1.00693E+00  1.30915E-02
    9091.821     99.046   5.240  1.01541E+00  1.00724E+00  8.16926E-03
    9093.425    100.649   5.280  1.01084E+00  1.00753E+00  3.30942E-03
    9095.040    102.265   5.320  1.00648E+00  1.00776E+00 -1.27422E-03
    9096.668    103.892   5.360  1.00241E+00  1.00796E+00 -5.55074E-03
    9098.308    105.532   5.400  9.98468E-01  1.00810E+00 -9.63687E-03
    9099.960    107.184   5.440  9.94513E-01  1.00823E+00 -1.37129E-02
    9101.624    108.848   5.480  9.90377E-01  1.00828E+00 -1.79037E-02
    9103.300    110.525   5.520  9.86107E-01  1.00829E+00 -2.21856E-02
    9104.989    112.213   5.560  9.81890E-01  1.00826E+00 -2.63723E-02
    9106.690    113.914   5.600  9.78018E-01  1.00819E+00 -3.01700E-02
    9108.403    115.627   5.640  9.74831E-01  1.00807E+00 -3.32390E-02
    9110.128    117.352   5.680  9.72675E-01  1.00789E+00 -3.52124E-02
    9111.865    119.090   5.720  9.71951E-01  1.00768E+00 -3.57324E-02
    9113.615    120.839   5.760  9.72835E-01  1.00742E+00 -3.45805E-02
    9115.376    122.601   5.800  9.75262E-01  1.00711E+00 -3.18457E-02
    9117.150    124.375   5.840  9.78816E-01  1.00679E+00 -2.79692E-02
    9118.936    126.161   5.880  9.82824E-01  1.00640E+00 -2.35770E-02
    9120.735    127.959   5.920  9.86710E-01  1.00598E+00 -1.92719E-02
    9122.545    129.770   5.960  9.90105E-01  1.00555E+00 -1.54493E-02
    9124.368    131.592   6.000  9.92966E-01  1.00506E+00 -1.20985E-02
