# # comment:                                                     FEFF 9.9.1  
# # Source:
# # Structure
# # Reduced
# # space
# # abc:
# # angles:
# # sites:
# # POT  SCF 100  7.0000   0, screened core-hole, AFOLP (folp(0)= 1.150)
# # Abs   Z=29 Rmt= 1.273 Rnm= 1.343 K  shell
# # Pot 1 Z= 3 Rmt= 1.272 Rnm= 1.335
# # Pot 2 Z=29 Rmt= 1.273 Rnm= 1.343
# # Pot 3 Z=15 Rmt= 0.939 Rnm= 1.153
# # Pot 4 Z= 8 Rmt= 0.918 Rnm= 1.045
# # Gam_ch=1.729E+00 H-L exch Vi= 0.000E+00 Vr= 0.000E+00
# # Mu=-6.749E+00eV kf=2.423E+00 Vint=-1.734E+01eV Rs_int= 1.497
# FMS rfms= 9.0000
# # PATH  Rmax=-1.000,  Keep_limit= 0.00, Heap_limit 0.00  Pwcrit= 2.50%
#  S02=0.950  Temp=   0.00  Debye_temp=   0.00  Global_sig2= 0.00000
#  Energy zero shift, vr, vi    0.00000E+00   0.00000E+00
#  Curved wave amplitude ratio filter   4.000%
#     file         sig2 tot  cw amp ratio   deg  nlegs   reff  inp sig2
#     0/   0 paths used
#  xsedge+ 50, used to normalize mu           2.4807E-04
#  -----------------------------------------------------------------------
#  omega    e    k    mu    mu0     chi     @#
    8983.556    -10.559  -1.000  4.18867E-02  5.44101E-02 -1.25233E-02
    8983.855    -10.260  -0.960  4.42829E-02  5.84053E-02 -1.41224E-02
    8984.141     -9.974  -0.920  4.68864E-02  6.28502E-02 -1.59638E-02
    8984.416     -9.700  -0.880  4.97232E-02  6.78118E-02 -1.80887E-02
    8984.678     -9.438  -0.840  5.28232E-02  7.33680E-02 -2.05448E-02
    8984.928     -9.188  -0.800  5.62209E-02  7.96090E-02 -2.33881E-02
    8985.166     -8.950  -0.760  5.99553E-02  8.66389E-02 -2.66835E-02
    8985.391     -8.724  -0.720  6.40704E-02  9.45749E-02 -3.05045E-02
    8985.605     -8.511  -0.680  6.86139E-02  1.03547E-01 -3.49327E-02
    8985.806     -8.310  -0.640  7.36355E-02  1.13691E-01 -4.00553E-02
    8985.995     -8.121  -0.600  7.91831E-02  1.25142E-01 -4.59590E-02
    8986.171     -7.944  -0.560  8.52957E-02  1.38016E-01 -5.27201E-02
    8986.336     -7.779  -0.520  9.19923E-02  1.52381E-01 -6.03884E-02
    8986.488     -7.627  -0.480  9.92579E-02  1.68223E-01 -6.89648E-02
    8986.629     -7.487  -0.440  1.07026E-01  1.85402E-01 -7.83761E-02
    8986.757     -7.359  -0.400  1.15166E-01  2.03618E-01 -8.84526E-02
    8986.872     -7.243  -0.360  1.23477E-01  2.22397E-01 -9.89207E-02
    8986.976     -7.139  -0.320  1.31704E-01  2.41124E-01 -1.09420E-01
    8987.068     -7.048  -0.280  1.39567E-01  2.59115E-01 -1.19548E-01
    8987.147     -6.969  -0.240  1.46801E-01  2.75716E-01 -1.28915E-01
    8987.214     -6.902  -0.200  1.53184E-01  2.90379E-01 -1.37195E-01
    8987.269     -6.847  -0.160  1.58552E-01  3.02706E-01 -1.44154E-01
    8987.311     -6.804  -0.120  1.62801E-01  3.12445E-01 -1.49644E-01
    8987.342     -6.774  -0.080  1.65866E-01  3.19457E-01 -1.53591E-01
    8987.366     -6.749   0.000  1.68325E-01  3.25088E-01 -1.56763E-01
    8987.421     -6.694   0.120  1.73890E-01  3.37789E-01 -1.63899E-01
    8987.464     -6.652   0.160  1.78214E-01  3.47625E-01 -1.69411E-01
    8987.519     -6.597   0.200  1.83796E-01  3.60210E-01 -1.76414E-01
    8987.586     -6.530   0.240  1.90546E-01  3.75298E-01 -1.84752E-01
    8987.665     -6.450   0.280  1.98411E-01  3.92590E-01 -1.94179E-01
    8987.756     -6.359   0.320  2.07291E-01  4.11625E-01 -2.04334E-01
    8987.860     -6.255   0.360  2.17054E-01  4.31830E-01 -2.14777E-01
    8987.976     -6.140   0.400  2.27584E-01  4.52579E-01 -2.24995E-01
    8988.104     -6.012   0.440  2.38833E-01  4.73316E-01 -2.34483E-01
    8988.244     -5.871   0.480  2.50837E-01  4.93597E-01 -2.42760E-01
    8988.396     -5.719   0.520  2.63749E-01  5.13171E-01 -2.49422E-01
    8988.561     -5.554   0.560  2.77707E-01  5.31872E-01 -2.54165E-01
    8988.738     -5.378   0.600  2.92803E-01  5.49712E-01 -2.56909E-01
    8988.927     -5.189   0.640  3.08815E-01  5.66733E-01 -2.57918E-01
    8989.128     -4.987   0.680  3.25131E-01  5.82999E-01 -2.57868E-01
    8989.341     -4.774   0.720  3.41005E-01  5.98668E-01 -2.57663E-01
    8989.567     -4.549   0.760  3.55936E-01  6.13796E-01 -2.57860E-01
    8989.805     -4.311   0.800  3.70301E-01  6.28491E-01 -2.58191E-01
    8990.055     -4.061   0.840  3.85398E-01  6.42870E-01 -2.57471E-01
    8990.317     -3.799   0.880  4.02675E-01  6.56951E-01 -2.54276E-01
    8990.591     -3.524   0.920  4.23018E-01  6.70801E-01 -2.47783E-01
    8990.878     -3.238   0.960  4.46321E-01  6.84475E-01 -2.38153E-01
    8991.176     -2.939   1.000  4.71707E-01  6.97975E-01 -2.26268E-01
    8991.487     -2.628   1.040  4.99116E-01  7.11333E-01 -2.12217E-01
    8991.810     -2.305   1.080  5.30286E-01  7.24534E-01 -1.94249E-01
    8992.146     -1.970   1.120  5.64257E-01  7.37619E-01 -1.73361E-01
    8992.493     -1.622   1.160  5.94141E-01  7.50558E-01 -1.56418E-01
    8992.853     -1.263   1.200  6.14343E-01  7.63320E-01 -1.48978E-01
    8993.224     -0.891   1.240  6.28171E-01  7.75951E-01 -1.47780E-01
    8993.609     -0.507   1.280  6.45732E-01  7.88390E-01 -1.42658E-01
    8994.005     -0.111   1.320  6.75225E-01  8.00636E-01 -1.25411E-01
    8994.413      0.298   1.360  7.18012E-01  8.12647E-01 -9.46344E-02
    8994.834      0.718   1.400  7.72748E-01  8.24438E-01 -5.16896E-02
    8995.267      1.151   1.440  8.38088E-01  8.35965E-01  2.12265E-03
    8995.712      1.596   1.480  9.10828E-01  8.47221E-01  6.36073E-02
    8996.169      2.053   1.520  9.83415E-01  8.58180E-01  1.25235E-01
    8996.638      2.523   1.560  1.04647E+00  8.68815E-01  1.77654E-01
    8997.120      3.004   1.600  1.09545E+00  8.79122E-01  2.16327E-01
    8997.614      3.498   1.640  1.13321E+00  8.89073E-01  2.44137E-01
    8998.120      4.004   1.680  1.16601E+00  8.98683E-01  2.67326E-01
    8998.638      4.522   1.720  1.19625E+00  9.07887E-01  2.88358E-01
    8999.168      5.053   1.760  1.21629E+00  9.16723E-01  2.99564E-01
    8999.711      5.595   1.800  1.21592E+00  9.25147E-01  2.90778E-01
    9000.265      6.150   1.840  1.19656E+00  9.33174E-01  2.63381E-01
    9000.832      6.717   1.880  1.16363E+00  9.40803E-01  2.22826E-01
    9001.411      7.296   1.920  1.12536E+00  9.47995E-01  1.77362E-01
    9002.003      7.887   1.960  1.09217E+00  9.54768E-01  1.37403E-01
    9002.606      8.491   2.000  1.07072E+00  9.61142E-01  1.09576E-01
    9003.222      9.106   2.040  1.06378E+00  9.67101E-01  9.66778E-02
    9003.850      9.734   2.080  1.07429E+00  9.72625E-01  1.01670E-01
    9004.490     10.374   2.120  1.10262E+00  9.77759E-01  1.24862E-01
    9005.142     11.027   2.160  1.14341E+00  9.82487E-01  1.60927E-01
    9005.807     11.691   2.200  1.18562E+00  9.86833E-01  1.98783E-01
    9006.483     12.368   2.240  1.21306E+00  9.90801E-01  2.22255E-01
    9007.172     13.057   2.280  1.21140E+00  9.94377E-01  2.17025E-01
    9007.873     13.758   2.320  1.18489E+00  9.97607E-01  1.87280E-01
    9008.586     14.471   2.360  1.15527E+00  1.00048E+00  1.54788E-01
    9009.312     15.196   2.400  1.13705E+00  1.00302E+00  1.34029E-01
    9010.049     15.934   2.440  1.12831E+00  1.00525E+00  1.23060E-01
    9010.799     16.684   2.480  1.12308E+00  1.00717E+00  1.15906E-01
    9011.561     17.446   2.520  1.11914E+00  1.00880E+00  1.10342E-01
    9012.335     18.220   2.560  1.11631E+00  1.01015E+00  1.06164E-01
    9013.122     19.006   2.600  1.11113E+00  1.01122E+00  9.99163E-02
    9013.920     19.805   2.640  1.09732E+00  1.01206E+00  8.52573E-02
    9014.731     20.616   2.680  1.07369E+00  1.01269E+00  6.09942E-02
    9015.554     21.439   2.720  1.04402E+00  1.01309E+00  3.09299E-02
    9016.389     22.274   2.760  1.00923E+00  1.01329E+00 -4.05683E-03
    9017.237     23.121   2.800  9.67455E-01  1.01331E+00 -4.58509E-02
    9018.096     23.981   2.840  9.27509E-01  1.01314E+00 -8.56292E-02
    9018.968     24.852   2.880  8.99841E-01  1.01283E+00 -1.12991E-01
    9019.852     25.736   2.920  8.81496E-01  1.01239E+00 -1.30898E-01
    9020.748     26.632   2.960  8.69385E-01  1.01181E+00 -1.42425E-01
    9021.656     27.541   3.000  8.61189E-01  1.01113E+00 -1.49940E-01
    9022.577     28.461   3.040  8.55427E-01  1.01033E+00 -1.54907E-01
    9023.509     29.394   3.080  8.51415E-01  1.00946E+00 -1.58040E-01
    9024.454     30.339   3.120  8.49231E-01  1.00852E+00 -1.59287E-01
    9025.411     31.296   3.160  8.49347E-01  1.00751E+00 -1.58161E-01
    9026.381     32.265   3.200  8.51814E-01  1.00645E+00 -1.54635E-01
    9027.362     33.246   3.240  8.56703E-01  1.00533E+00 -1.48623E-01
    9028.356     34.240   3.280  8.63923E-01  1.00419E+00 -1.40264E-01
    9029.361     35.246   3.320  8.72943E-01  1.00304E+00 -1.30093E-01
    9030.379     36.264   3.360  8.83184E-01  1.00185E+00 -1.18670E-01
    9031.410     37.294   3.400  8.94178E-01  1.00067E+00 -1.06490E-01
    9032.452     38.337   3.440  9.05538E-01  9.99481E-01 -9.39435E-02
    9033.507     39.391   3.480  9.17037E-01  9.98297E-01 -8.12599E-02
    9034.573     40.458   3.520  9.28552E-01  9.97141E-01 -6.85886E-02
    9035.652     41.537   3.560  9.39823E-01  9.95993E-01 -5.61702E-02
    9036.744     42.628   3.600  9.50629E-01  9.94878E-01 -4.42493E-02
    9037.847     43.732   3.640  9.60985E-01  9.93800E-01 -3.28144E-02
    9038.963     44.847   3.680  9.71169E-01  9.92760E-01 -2.15907E-02
    9040.090     45.975   3.720  9.81534E-01  9.91760E-01 -1.02265E-02
    9041.230     47.115   3.760  9.92344E-01  9.90801E-01  1.54264E-03
    9042.382     48.267   3.800  1.00374E+00  9.89885E-01  1.38557E-02
    9043.547     49.431   3.840  1.01566E+00  9.89035E-01  2.66265E-02
    9044.723     50.608   3.880  1.02790E+00  9.88231E-01  3.96680E-02
    9045.912     51.797   3.920  1.04014E+00  9.87473E-01  5.26665E-02
    9047.113     52.997   3.960  1.05184E+00  9.86785E-01  6.50521E-02
    9048.326     54.211   4.000  1.06216E+00  9.86145E-01  7.60162E-02
    9049.551     55.436   4.040  1.07045E+00  9.85575E-01  8.48789E-02
    9050.789     56.673   4.080  1.07637E+00  9.85078E-01  9.12921E-02
    9052.038     57.923   4.120  1.07994E+00  9.84628E-01  9.53138E-02
    9053.300     59.185   4.160  1.08154E+00  9.84227E-01  9.73125E-02
    9054.574     60.459   4.200  1.08153E+00  9.83897E-01  9.76279E-02
    9055.861     61.745   4.240  1.07994E+00  9.83638E-01  9.63056E-02
    9057.159     63.044   4.280  1.07656E+00  9.83427E-01  9.31301E-02
    9058.470     64.354   4.320  1.07116E+00  9.83263E-01  8.78926E-02
    9059.793     65.677   4.360  1.06373E+00  9.83167E-01  8.05626E-02
    9061.128     67.012   4.400  1.05456E+00  9.83119E-01  7.14407E-02
    9062.475     68.359   4.440  1.04430E+00  9.83140E-01  6.11612E-02
    9063.834     69.719   4.480  1.03364E+00  9.83205E-01  5.04383E-02
    9065.206     71.090   4.520  1.02316E+00  9.83314E-01  3.98453E-02
    9066.590     72.474   4.560  1.01318E+00  9.83488E-01  2.96956E-02
    9067.986     73.870   4.600  1.00369E+00  9.83682E-01  2.00085E-02
    9069.394     75.278   4.640  9.94560E-01  9.83937E-01  1.06232E-02
    9070.814     76.699   4.680  9.85656E-01  9.84209E-01  1.44730E-03
    9072.247     78.131   4.720  9.77126E-01  9.84541E-01 -7.41450E-03
    9073.691     79.576   4.760  9.69224E-01  9.84887E-01 -1.56625E-02
    9075.148     81.033   4.800  9.62377E-01  9.85264E-01 -2.28879E-02
    9076.617     82.502   4.840  9.56908E-01  9.85653E-01 -2.87452E-02
    9078.099     83.983   4.880  9.53075E-01  9.86075E-01 -3.30009E-02
    9079.592     85.477   4.920  9.51008E-01  9.86528E-01 -3.55196E-02
    9081.098     86.983   4.960  9.50644E-01  9.86986E-01 -3.63420E-02
    9082.616     88.500   5.000  9.51770E-01  9.87451E-01 -3.56802E-02
    9084.146     90.030   5.040  9.53983E-01  9.87939E-01 -3.39557E-02
    9085.688     91.573   5.080  9.56735E-01  9.88407E-01 -3.16720E-02
    9087.243     93.127   5.120  9.59689E-01  9.88898E-01 -2.92087E-02
    9088.809     94.694   5.160  9.62591E-01  9.89387E-01 -2.67964E-02
    9090.388     96.273   5.200  9.65341E-01  9.89850E-01 -2.45091E-02
    9091.979     97.864   5.240  9.67884E-01  9.90306E-01 -2.24221E-02
    9093.583     99.467   5.280  9.70104E-01  9.90757E-01 -2.06530E-02
    9095.198    101.082   5.320  9.71848E-01  9.91180E-01 -1.93318E-02
    9096.826    102.710   5.360  9.73051E-01  9.91616E-01 -1.85652E-02
    9098.465    104.350   5.400  9.73544E-01  9.91998E-01 -1.84539E-02
    9100.117    106.002   5.440  9.73240E-01  9.92365E-01 -1.91255E-02
    9101.782    107.666   5.480  9.72030E-01  9.92698E-01 -2.06683E-02
    9103.458    109.343   5.520  9.69977E-01  9.92995E-01 -2.30186E-02
    9105.147    111.031   5.560  9.67365E-01  9.93278E-01 -2.59135E-02
    9106.847    112.732   5.600  9.64596E-01  9.93524E-01 -2.89275E-02
    9108.560    114.445   5.640  9.62150E-01  9.93706E-01 -3.15563E-02
    9110.285    116.170   5.680  9.60548E-01  9.93871E-01 -3.33231E-02
    9112.023    117.907   5.720  9.60111E-01  9.93998E-01 -3.38871E-02
    9113.772    119.657   5.760  9.61014E-01  9.94085E-01 -3.30715E-02
    9115.534    121.419   5.800  9.63288E-01  9.94131E-01 -3.08430E-02
    9117.308    123.193   5.840  9.66794E-01  9.94111E-01 -2.73169E-02
    9119.094    124.979   5.880  9.71277E-01  9.94073E-01 -2.27964E-02
    9120.892    126.777   5.920  9.76220E-01  9.93973E-01 -1.77528E-02
    9122.703    128.588   5.960  9.81223E-01  9.93851E-01 -1.26287E-02
    9124.526    130.410   6.000  9.86184E-01  9.93634E-01 -7.44957E-03
