# # comment:                                                     FEFF 9.9.1  
# # Source:
# # Structure
# # Reduced
# # space
# # abc:
# # angles:156.396348
# # sites:
# # POT  SCF 100  7.0000   0, screened core-hole, AFOLP (folp(0)= 1.150)
# # Abs   Z=29 Rmt= 1.218 Rnm= 1.301 K  shell
# # Pot 1 Z=38 Rmt= 1.800 Rnm= 1.861
# # Pot 2 Z=29 Rmt= 1.218 Rnm= 1.301
# # Pot 3 Z=16 Rmt= 1.438 Rnm= 1.490
# # Pot 4 Z= 8 Rmt= 1.066 Rnm= 1.117
# # Gam_ch=1.729E+00 H-L exch Vi= 0.000E+00 Vr= 0.000E+00
# # Mu=-7.202E+00eV kf=1.986E+00 Vint=-1.663E+01eV Rs_int= 1.826
# FMS rfms= 9.0000
# # PATH  Rmax=-1.000,  Keep_limit= 0.00, Heap_limit 0.00  Pwcrit= 2.50%
#  S02=0.950  Temp=   0.00  Debye_temp=   0.00  Global_sig2= 0.00000
#  Energy zero shift, vr, vi    0.00000E+00   0.00000E+00
#  Curved wave amplitude ratio filter   4.000%
#     file         sig2 tot  cw amp ratio   deg  nlegs   reff  inp sig2
#     0/   0 paths used
#  xsedge+ 50, used to normalize mu           2.4251E-04
#  -----------------------------------------------------------------------
#  omega    e    k    mu    mu0     chi     @#
    8985.023    -11.012  -1.000  4.94932E-02  6.17641E-02 -1.22709E-02
    8985.322    -10.714  -0.960  5.27066E-02  6.64651E-02 -1.37585E-02
    8985.608    -10.427  -0.920  5.62433E-02  7.17055E-02 -1.54623E-02
    8985.883    -10.153  -0.880  6.01486E-02  7.75663E-02 -1.74177E-02
    8986.145     -9.891  -0.840  6.44751E-02  8.41414E-02 -1.96662E-02
    8986.395     -9.641  -0.800  6.92836E-02  9.15400E-02 -2.22564E-02
    8986.632     -9.403  -0.760  7.46436E-02  9.98875E-02 -2.52439E-02
    8986.858     -9.177  -0.720  8.06334E-02  1.09326E-01 -2.86924E-02
    8987.071     -8.964  -0.680  8.73392E-02  1.20011E-01 -3.26722E-02
    8987.272     -8.763  -0.640  9.48516E-02  1.32110E-01 -3.72581E-02
    8987.461     -8.574  -0.600  1.03259E-01  1.45784E-01 -4.25243E-02
    8987.638     -8.397  -0.560  1.12637E-01  1.61172E-01 -4.85348E-02
    8987.803     -8.233  -0.520  1.23030E-01  1.78360E-01 -5.53299E-02
    8987.955     -8.080  -0.480  1.34424E-01  1.97330E-01 -6.29052E-02
    8988.095     -7.940  -0.440  1.46725E-01  2.17915E-01 -7.11899E-02
    8988.223     -7.812  -0.400  1.59727E-01  2.39754E-01 -8.00275E-02
    8988.339     -7.696  -0.360  1.73106E-01  2.62278E-01 -8.91719E-02
    8988.443     -7.593  -0.320  1.86439E-01  2.84744E-01 -9.83054E-02
    8988.534     -7.501  -0.280  1.99253E-01  3.06333E-01 -1.07080E-01
    8988.614     -7.422  -0.240  2.11087E-01  3.26256E-01 -1.15169E-01
    8988.681     -7.355  -0.200  2.21551E-01  3.43854E-01 -1.22304E-01
    8988.735     -7.300  -0.160  2.30356E-01  3.58649E-01 -1.28293E-01
    8988.778     -7.257  -0.120  2.37321E-01  3.70338E-01 -1.33017E-01
    8988.809     -7.227  -0.080  2.42346E-01  3.78753E-01 -1.36408E-01
    8988.833     -7.202   0.000  2.46401E-01  3.85511E-01 -1.39110E-01
    8988.888     -7.148   0.120  2.55309E-01  4.00742E-01 -1.45433E-01
    8988.930     -7.105   0.160  2.62201E-01  4.12561E-01 -1.50360E-01
    8988.985     -7.050   0.200  2.70965E-01  4.27633E-01 -1.56668E-01
    8989.052     -6.983   0.240  2.81421E-01  4.45736E-01 -1.64315E-01
    8989.132     -6.904   0.280  2.93298E-01  4.66468E-01 -1.73170E-01
    8989.223     -6.812   0.320  3.06226E-01  4.89270E-01 -1.83044E-01
    8989.327     -6.709   0.360  3.19768E-01  5.13453E-01 -1.93685E-01
    8989.443     -6.593   0.400  3.33562E-01  5.38266E-01 -2.04704E-01
    8989.571     -6.465   0.440  3.47444E-01  5.62997E-01 -2.15552E-01
    8989.711     -6.325   0.480  3.61745E-01  5.87170E-01 -2.25425E-01
    8989.863     -6.172   0.520  3.77158E-01  6.10394E-01 -2.33236E-01
    8990.028     -6.008   0.560  3.94816E-01  6.32513E-01 -2.37698E-01
    8990.205     -5.831   0.600  4.15923E-01  6.53488E-01 -2.37566E-01
    8990.394     -5.642   0.640  4.41282E-01  6.73368E-01 -2.32085E-01
    8990.595     -5.441   0.680  4.70611E-01  6.92248E-01 -2.21637E-01
    8990.808     -5.227   0.720  5.01820E-01  7.10223E-01 -2.08403E-01
    8991.034     -5.002   0.760  5.31187E-01  7.27445E-01 -1.96258E-01
    8991.271     -4.764   0.800  5.54851E-01  7.43976E-01 -1.89125E-01
    8991.521     -4.514   0.840  5.71001E-01  7.59921E-01 -1.88920E-01
    8991.783     -4.252   0.880  5.79705E-01  7.75309E-01 -1.95604E-01
    8992.058     -3.978   0.920  5.81516E-01  7.90231E-01 -2.08716E-01
    8992.344     -3.691   0.960  5.77474E-01  8.04707E-01 -2.27233E-01
    8992.643     -3.392   1.000  5.69125E-01  8.18720E-01 -2.49596E-01
    8992.954     -3.081   1.040  5.56882E-01  8.32349E-01 -2.75467E-01
    8993.277     -2.758   1.080  5.41676E-01  8.45533E-01 -3.03858E-01
    8993.612     -2.423   1.120  5.28980E-01  8.58296E-01 -3.29316E-01
    8993.960     -2.076   1.160  5.26069E-01  8.70651E-01 -3.44582E-01
    8994.319     -1.716   1.200  5.36777E-01  8.82544E-01 -3.45767E-01
    8994.691     -1.344   1.240  5.61763E-01  8.94005E-01 -3.32242E-01
    8995.075     -0.960   1.280  6.00657E-01  9.04975E-01 -3.04318E-01
    8995.471     -0.564   1.320  6.52387E-01  9.15478E-01 -2.63091E-01
    8995.880     -0.155   1.360  7.12190E-01  9.25495E-01 -2.13305E-01
    8996.301      0.265   1.400  7.70612E-01  9.35006E-01 -1.64394E-01
    8996.733      0.698   1.440  8.20683E-01  9.43993E-01 -1.23309E-01
    8997.178      1.143   1.480  8.63619E-01  9.52477E-01 -8.88579E-02
    8997.636      1.600   1.520  9.05626E-01  9.60440E-01 -5.48137E-02
    8998.105      2.070   1.560  9.55580E-01  9.67865E-01 -1.22844E-02
    8998.587      2.551   1.600  1.02626E+00  9.74775E-01  5.14803E-02
    8999.080      3.045   1.640  1.13276E+00  9.81157E-01  1.51608E-01
    8999.586      3.551   1.680  1.28484E+00  9.87034E-01  2.97807E-01
    9000.104      4.069   1.720  1.46970E+00  9.92412E-01  4.77290E-01
    9000.635      4.599   1.760  1.63455E+00  9.97280E-01  6.37267E-01
    9001.177      5.142   1.800  1.70949E+00  1.00167E+00  7.07819E-01
    9001.732      5.697   1.840  1.66401E+00  1.00560E+00  6.58414E-01
    9002.299      6.264   1.880  1.55335E+00  1.00907E+00  5.44280E-01
    9002.878      6.843   1.920  1.45262E+00  1.01210E+00  4.40520E-01
    9003.469      7.434   1.960  1.37241E+00  1.01474E+00  3.57670E-01
    9004.073      8.038   2.000  1.30440E+00  1.01699E+00  2.87418E-01
    9004.689      8.653   2.040  1.25041E+00  1.01885E+00  2.31559E-01
    9005.316      9.281   2.080  1.21558E+00  1.02037E+00  1.95209E-01
    9005.957      9.921   2.120  1.19733E+00  1.02155E+00  1.75779E-01
    9006.609     10.573   2.160  1.18501E+00  1.02243E+00  1.62584E-01
    9007.273     11.238   2.200  1.16572E+00  1.02304E+00  1.42680E-01
    9007.950     11.915   2.240  1.13203E+00  1.02339E+00  1.08646E-01
    9008.639     12.603   2.280  1.09152E+00  1.02346E+00  6.80595E-02
    9009.340     13.304   2.320  1.06008E+00  1.02335E+00  3.67364E-02
    9010.053     14.018   2.360  1.04494E+00  1.02302E+00  2.19202E-02
    9010.778     14.743   2.400  1.04252E+00  1.02252E+00  1.99945E-02
    9011.516     15.481   2.440  1.04226E+00  1.02188E+00  2.03719E-02
    9012.266     16.231   2.480  1.03542E+00  1.02109E+00  1.43366E-02
    9013.028     16.993   2.520  1.02398E+00  1.02019E+00  3.79211E-03
    9013.802     17.767   2.560  1.01192E+00  1.01917E+00 -7.24557E-03
    9014.588     18.553   2.600  1.00189E+00  1.01807E+00 -1.61785E-02
    9015.387     19.352   2.640  9.94027E-01  1.01688E+00 -2.28543E-02
    9016.198     20.162   2.680  9.86655E-01  1.01567E+00 -2.90118E-02
    9017.021     20.985   2.720  9.77831E-01  1.01439E+00 -3.65576E-02
    9017.856     21.821   2.760  9.66805E-01  1.01309E+00 -4.62881E-02
    9018.703     22.668   2.800  9.53623E-01  1.01177E+00 -5.81452E-02
    9019.563     23.527   2.840  9.38918E-01  1.01046E+00 -7.15422E-02
    9020.434     24.399   2.880  9.23306E-01  1.00915E+00 -8.58474E-02
    9021.318     25.283   2.920  9.07307E-01  1.00785E+00 -1.00545E-01
    9022.215     26.179   2.960  8.90972E-01  1.00658E+00 -1.15610E-01
    9023.123     27.087   3.000  8.75202E-01  1.00533E+00 -1.30123E-01
    9024.043     28.008   3.040  8.60920E-01  1.00413E+00 -1.43210E-01
    9024.976     28.941   3.080  8.49302E-01  1.00298E+00 -1.53678E-01
    9025.921     29.886   3.120  8.41336E-01  1.00190E+00 -1.60561E-01
    9026.878     30.843   3.160  8.37310E-01  1.00086E+00 -1.63553E-01
    9027.847     31.812   3.200  8.37173E-01  9.99879E-01 -1.62706E-01
    9028.829     32.793   3.240  8.40957E-01  9.98970E-01 -1.58014E-01
    9029.822     33.787   3.280  8.48703E-01  9.98159E-01 -1.49456E-01
    9030.828     34.793   3.320  8.59955E-01  9.97404E-01 -1.37449E-01
    9031.846     35.811   3.360  8.74470E-01  9.96707E-01 -1.22237E-01
    9032.876     36.841   3.400  8.92119E-01  9.96112E-01 -1.03993E-01
    9033.919     37.883   3.440  9.12369E-01  9.95597E-01 -8.32280E-02
    9034.973     38.938   3.480  9.34430E-01  9.95166E-01 -6.07362E-02
    9036.040     40.005   3.520  9.57436E-01  9.94818E-01 -3.73823E-02
    9037.119     41.084   3.560  9.80191E-01  9.94573E-01 -1.43816E-02
    9038.210     42.175   3.600  1.00063E+00  9.94388E-01  6.23950E-03
    9039.314     43.278   3.640  1.01643E+00  9.94285E-01  2.21490E-02
    9040.429     44.394   3.680  1.02624E+00  9.94264E-01  3.19735E-02
    9041.557     45.522   3.720  1.03029E+00  9.94343E-01  3.59476E-02
    9042.697     46.662   3.760  1.03043E+00  9.94482E-01  3.59469E-02
    9043.849     47.814   3.800  1.02930E+00  9.94700E-01  3.45986E-02
    9045.013     48.978   3.840  1.02911E+00  9.94995E-01  3.41157E-02
    9046.190     50.155   3.880  1.03098E+00  9.95366E-01  3.56129E-02
    9047.379     51.343   3.920  1.03479E+00  9.95792E-01  3.90028E-02
    9048.580     52.544   3.960  1.03976E+00  9.96292E-01  4.34642E-02
    9049.793     53.757   4.000  1.04476E+00  9.96863E-01  4.78995E-02
    9051.018     54.983   4.040  1.04897E+00  9.97483E-01  5.14901E-02
    9052.255     56.220   4.080  1.05197E+00  9.98150E-01  5.38247E-02
    9053.505     57.470   4.120  1.05411E+00  9.98885E-01  5.52243E-02
    9054.767     58.732   4.160  1.05609E+00  9.99661E-01  5.64274E-02
    9056.041     60.006   4.200  1.05816E+00  1.00045E+00  5.77076E-02
    9057.327     61.292   4.240  1.06000E+00  1.00131E+00  5.86903E-02
    9058.626     62.590   4.280  1.06135E+00  1.00220E+00  5.91478E-02
    9059.936     63.901   4.320  1.06285E+00  1.00311E+00  5.97440E-02
    9061.259     65.224   4.360  1.06539E+00  1.00404E+00  6.13425E-02
    9062.594     66.559   4.400  1.06886E+00  1.00499E+00  6.38703E-02
    9063.941     67.906   4.440  1.07176E+00  1.00593E+00  6.58292E-02
    9065.301     69.266   4.480  1.07217E+00  1.00691E+00  6.52671E-02
    9066.672     70.637   4.520  1.06907E+00  1.00788E+00  6.11862E-02
    9068.056     72.021   4.560  1.06327E+00  1.00886E+00  5.44079E-02
    9069.452     73.417   4.600  1.05702E+00  1.00983E+00  4.71948E-02
    9070.860     74.825   4.640  1.05266E+00  1.01077E+00  4.18885E-02
    9072.281     76.245   4.680  1.05125E+00  1.01170E+00  3.95459E-02
    9073.713     77.678   4.720  1.05194E+00  1.01263E+00  3.93135E-02
    9075.158     79.123   4.760  1.05229E+00  1.01352E+00  3.87753E-02
    9076.615     80.580   4.800  1.04972E+00  1.01437E+00  3.53492E-02
    9078.084     82.049   4.840  1.04275E+00  1.01521E+00  2.75383E-02
    9079.565     83.530   4.880  1.03161E+00  1.01599E+00  1.56241E-02
    9081.059     85.024   4.920  1.01816E+00  1.01674E+00  1.41599E-03
    9082.565     86.529   4.960  1.00481E+00  1.01745E+00 -1.26430E-02
    9084.083     88.047   5.000  9.93732E-01  1.01810E+00 -2.43669E-02
    9085.613     89.577   5.040  9.86265E-01  1.01870E+00 -3.24326E-02
    9087.155     91.120   5.080  9.82745E-01  1.01925E+00 -3.65052E-02
    9088.709     92.674   5.120  9.82832E-01  1.01976E+00 -3.69238E-02
    9090.276     94.241   5.160  9.85662E-01  1.02019E+00 -3.45275E-02
    9091.855     95.820   5.200  9.89867E-01  1.02057E+00 -3.07050E-02
    9093.446     97.411   5.240  9.93453E-01  1.02088E+00 -2.74284E-02
    9095.049     99.014   5.280  9.94195E-01  1.02114E+00 -2.69477E-02
    9096.665    100.629   5.320  9.90269E-01  1.02135E+00 -3.10837E-02
    9098.292    102.257   5.360  9.81207E-01  1.02149E+00 -4.02820E-02
    9099.932    103.897   5.400  9.68547E-01  1.02155E+00 -5.30019E-02
    9101.584    105.549   5.440  9.55515E-01  1.02156E+00 -6.60419E-02
    9103.248    107.213   5.480  9.45725E-01  1.02149E+00 -7.57672E-02
    9104.925    108.889   5.520  9.41959E-01  1.02138E+00 -7.94157E-02
    9106.613    110.578   5.560  9.45535E-01  1.02119E+00 -7.56521E-02
    9108.314    112.279   5.600  9.56305E-01  1.02095E+00 -6.46461E-02
    9110.027    113.992   5.640  9.72646E-01  1.02067E+00 -4.80208E-02
    9111.752    115.717   5.680  9.91673E-01  1.02031E+00 -2.86406E-02
    9113.490    117.454   5.720  1.00967E+00  1.01991E+00 -1.02453E-02
    9115.239    119.204   5.760  1.02281E+00  1.01947E+00  3.33716E-03
    9117.001    120.965   5.800  1.02834E+00  1.01896E+00  9.38267E-03
    9118.775    122.739   5.840  1.02568E+00  1.01843E+00  7.24676E-03
    9120.561    124.526   5.880  1.01640E+00  1.01785E+00 -1.44870E-03
    9122.359    126.324   5.920  1.00378E+00  1.01725E+00 -1.34713E-02
    9124.170    128.134   5.960  9.91259E-01  1.01660E+00 -2.53397E-02
    9125.992    129.957   6.000  9.83196E-01  1.01591E+00 -3.27103E-02
