# # comment:                                                     FEFF 9.9.1  
# # Source:
# # Structure
# # Reduced
# # space
# # abc:
# # angles:
# # sites:
# # POT  SCF 100  7.0000   0, screened core-hole, AFOLP (folp(0)= 1.150)
# # Abs   Z=29 Rmt= 1.232 Rnm= 1.320 K  shell
# # Pot 1 Z=12 Rmt= 1.387 Rnm= 1.463
# # Pot 2 Z=29 Rmt= 1.228 Rnm= 1.312
# # Pot 3 Z= 8 Rmt= 1.028 Rnm= 1.104
# # Gam_ch=1.729E+00 H-L exch Vi= 0.000E+00 Vr= 0.000E+00
# # Mu=-7.672E+00eV kf=2.158E+00 Vint=-1.614E+01eV Rs_int= 1.681
# FMS rfms= 9.0000
# # PATH  Rmax=-1.000,  Keep_limit= 0.00, Heap_limit 0.00  Pwcrit= 2.50%
#  S02=0.950  Temp=   0.00  Debye_temp=   0.00  Global_sig2= 0.00000
#  Energy zero shift, vr, vi    0.00000E+00   0.00000E+00
#  Curved wave amplitude ratio filter   4.000%
#     file         sig2 tot  cw amp ratio   deg  nlegs   reff  inp sig2
#     0/   0 paths used
#  xsedge+ 50, used to normalize mu           2.4434E-04
#  -----------------------------------------------------------------------
#  omega    e    k    mu    mu0     chi     @#
    8984.062    -11.482  -1.000  3.88940E-02  5.66715E-02 -1.77775E-02
    8984.361    -11.183  -0.960  4.08262E-02  6.08415E-02 -2.00154E-02
    8984.648    -10.897  -0.920  4.28815E-02  6.54779E-02 -2.25964E-02
    8984.922    -10.622  -0.880  4.50692E-02  7.06495E-02 -2.55803E-02
    8985.184    -10.360  -0.840  4.73991E-02  7.64361E-02 -2.90370E-02
    8985.434    -10.110  -0.800  4.98817E-02  8.29305E-02 -3.30488E-02
    8985.672     -9.873  -0.760  5.25281E-02  9.02390E-02 -3.77110E-02
    8985.897     -9.647  -0.720  5.53494E-02  9.84817E-02 -4.31323E-02
    8986.111     -9.434  -0.680  5.83570E-02  1.07791E-01 -4.94338E-02
    8986.312     -9.232  -0.640  6.15606E-02  1.18306E-01 -5.67453E-02
    8986.501     -9.043  -0.600  6.49676E-02  1.30164E-01 -6.51965E-02
    8986.678     -8.867  -0.560  6.85800E-02  1.43482E-01 -7.49022E-02
    8986.842     -8.702  -0.520  7.23909E-02  1.58330E-01 -8.59390E-02
    8986.995     -8.550  -0.480  7.63792E-02  1.74692E-01 -9.83125E-02
    8987.135     -8.409  -0.440  8.05043E-02  1.92424E-01 -1.11920E-01
    8987.263     -8.281  -0.400  8.47019E-02  2.11218E-01 -1.26517E-01
    8987.379     -8.166  -0.360  8.88838E-02  2.30590E-01 -1.41706E-01
    8987.482     -8.062  -0.320  9.29446E-02  2.49907E-01 -1.56963E-01
    8987.574     -7.971  -0.280  9.67733E-02  2.68472E-01 -1.71698E-01
    8987.653     -7.891  -0.240  1.00267E-01  2.85609E-01 -1.85342E-01
    8987.720     -7.824  -0.200  1.03341E-01  3.00755E-01 -1.97414E-01
    8987.775     -7.769  -0.160  1.05931E-01  3.13497E-01 -2.07567E-01
    8987.818     -7.727  -0.120  1.07989E-01  3.23571E-01 -2.15582E-01
    8987.848     -7.696  -0.080  1.09482E-01  3.30828E-01 -2.21347E-01
    8987.872     -7.672   0.000  1.10694E-01  3.36659E-01 -2.25965E-01
    8987.927     -7.617   0.120  1.13626E-01  3.49819E-01 -2.36193E-01
    8987.970     -7.574   0.160  1.15850E-01  3.60024E-01 -2.44174E-01
    8988.025     -7.519   0.200  1.18720E-01  3.73076E-01 -2.54356E-01
    8988.092     -7.452   0.240  1.22254E-01  3.88780E-01 -2.66526E-01
    8988.171     -7.373   0.280  1.26479E-01  4.06825E-01 -2.80345E-01
    8988.263     -7.282   0.320  1.31441E-01  4.26736E-01 -2.95294E-01
    8988.366     -7.178   0.360  1.37220E-01  4.47947E-01 -3.10727E-01
    8988.482     -7.062   0.400  1.43970E-01  4.69835E-01 -3.25866E-01
    8988.610     -6.934   0.440  1.51994E-01  4.91870E-01 -3.39876E-01
    8988.750     -6.794   0.480  1.61588E-01  5.13563E-01 -3.51976E-01
    8988.903     -6.642   0.520  1.73314E-01  5.34683E-01 -3.61370E-01
    8989.067     -6.477   0.560  1.87781E-01  5.55061E-01 -3.67280E-01
    8989.244     -6.300   0.600  2.05831E-01  5.74662E-01 -3.68831E-01
    8989.433     -6.111   0.640  2.28491E-01  5.93523E-01 -3.65033E-01
    8989.634     -5.910   0.680  2.56995E-01  6.11740E-01 -3.54745E-01
    8989.847     -5.697   0.720  2.92497E-01  6.29382E-01 -3.36885E-01
    8990.073     -5.471   0.760  3.35469E-01  6.46536E-01 -3.11068E-01
    8990.311     -5.233   0.800  3.84662E-01  6.63302E-01 -2.78639E-01
    8990.561     -4.984   0.840  4.35835E-01  6.79722E-01 -2.43887E-01
    8990.823     -4.721   0.880  4.82830E-01  6.95846E-01 -2.13016E-01
    8991.097     -4.447   0.920  5.22022E-01  7.11708E-01 -1.89687E-01
    8991.384     -4.161   0.960  5.54706E-01  7.27312E-01 -1.72606E-01
    8991.682     -3.862   1.000  5.82802E-01  7.42690E-01 -1.59888E-01
    8991.993     -3.551   1.040  6.02856E-01  7.57802E-01 -1.54945E-01
    8992.316     -3.228   1.080  6.06564E-01  7.72642E-01 -1.66078E-01
    8992.652     -2.893   1.120  5.92237E-01  7.87220E-01 -1.94982E-01
    8992.999     -2.545   1.160  5.72651E-01  8.01520E-01 -2.28869E-01
    8993.359     -2.185   1.200  5.63714E-01  8.15480E-01 -2.51766E-01
    8993.731     -1.814   1.240  5.70552E-01  8.29077E-01 -2.58525E-01
    8994.115     -1.430   1.280  5.87565E-01  8.42328E-01 -2.54763E-01
    8994.511     -1.033   1.320  6.07497E-01  8.55164E-01 -2.47666E-01
    8994.919     -0.625   1.360  6.27961E-01  8.67580E-01 -2.39619E-01
    8995.340     -0.204   1.400  6.51219E-01  8.79529E-01 -2.28310E-01
    8995.773      0.229   1.440  6.81566E-01  8.91024E-01 -2.09458E-01
    8996.218      0.674   1.480  7.21429E-01  9.02017E-01 -1.80588E-01
    8996.675      1.131   1.520  7.71247E-01  9.12484E-01 -1.41237E-01
    8997.144      1.600   1.560  8.33566E-01  9.22443E-01 -8.88773E-02
    8997.626      2.082   1.600  9.07518E-01  9.31890E-01 -2.43721E-02
    8998.120      2.575   1.640  9.87777E-01  9.40763E-01  4.70147E-02
    8998.626      3.081   1.680  1.07909E+00  9.49102E-01  1.29987E-01
    8999.144      3.600   1.720  1.18752E+00  9.56908E-01  2.30609E-01
    8999.674      4.130   1.760  1.30001E+00  9.64164E-01  3.35851E-01
    9000.217      4.672   1.800  1.39523E+00  9.70874E-01  4.24357E-01
    9000.771      5.227   1.840  1.47316E+00  9.77063E-01  4.96101E-01
    9001.338      5.794   1.880  1.53371E+00  9.82738E-01  5.50968E-01
    9001.918      6.373   1.920  1.55414E+00  9.87885E-01  5.66252E-01
    9002.509      6.965   1.960  1.51850E+00  9.92553E-01  5.25951E-01
    9003.112      7.568   2.000  1.44368E+00  9.96753E-01  4.46927E-01
    9003.728      8.184   2.040  1.35837E+00  1.00049E+00  3.57878E-01
    9004.356      8.812   2.080  1.26910E+00  1.00380E+00  2.65302E-01
    9004.996      9.452   2.120  1.17917E+00  1.00668E+00  1.72493E-01
    9005.648     10.104   2.160  1.09756E+00  1.00916E+00  8.84038E-02
    9006.313     10.768   2.200  1.03395E+00  1.01129E+00  2.26571E-02
    9006.989     11.445   2.240  9.93389E-01  1.01304E+00 -1.96472E-02
    9007.678     12.134   2.280  9.74372E-01  1.01449E+00 -4.01192E-02
    9008.379     12.835   2.320  9.72657E-01  1.01561E+00 -4.29481E-02
    9009.092     13.548   2.360  9.83165E-01  1.01645E+00 -3.32862E-02
    9009.818     14.274   2.400  9.99784E-01  1.01704E+00 -1.72561E-02
    9010.556     15.011   2.440  1.01845E+00  1.01738E+00  1.06963E-03
    9011.305     15.761   2.480  1.04183E+00  1.01751E+00  2.43107E-02
    9012.067     16.523   2.520  1.07561E+00  1.01744E+00  5.81721E-02
    9012.842     17.297   2.560  1.11787E+00  1.01719E+00  1.00676E-01
    9013.628     18.084   2.600  1.14673E+00  1.01678E+00  1.29946E-01
    9014.426     18.882   2.640  1.15245E+00  1.01621E+00  1.36240E-01
    9015.237     19.693   2.680  1.13871E+00  1.01554E+00  1.23169E-01
    9016.060     20.516   2.720  1.11119E+00  1.01475E+00  9.64362E-02
    9016.895     21.351   2.760  1.07667E+00  1.01390E+00  6.27677E-02
    9017.743     22.198   2.800  1.03984E+00  1.01295E+00  2.68929E-02
    9018.602     23.058   2.840  1.00395E+00  1.01194E+00 -7.99256E-03
    9019.474     23.930   2.880  9.71161E-01  1.01089E+00 -3.97254E-02
    9020.358     24.814   2.920  9.42217E-01  1.00980E+00 -6.75794E-02
    9021.254     25.710   2.960  9.17655E-01  1.00869E+00 -9.10380E-02
    9022.162     26.618   3.000  8.97533E-01  1.00758E+00 -1.10050E-01
    9023.083     27.538   3.040  8.81752E-01  1.00645E+00 -1.24698E-01
    9024.015     28.471   3.080  8.70592E-01  1.00534E+00 -1.34747E-01
    9024.960     29.416   3.120  8.63958E-01  1.00424E+00 -1.40279E-01
    9025.917     30.373   3.160  8.61145E-01  1.00317E+00 -1.42021E-01
    9026.887     31.342   3.200  8.61341E-01  1.00213E+00 -1.40790E-01
    9027.868     32.324   3.240  8.63805E-01  1.00113E+00 -1.37330E-01
    9028.862     33.317   3.280  8.67777E-01  1.00018E+00 -1.32402E-01
    9029.868     34.323   3.320  8.72742E-01  9.99267E-01 -1.26525E-01
    9030.886     35.341   3.360  8.78425E-01  9.98401E-01 -1.19976E-01
    9031.916     36.372   3.400  8.84590E-01  9.97605E-01 -1.13015E-01
    9032.958     37.414   3.440  8.91075E-01  9.96879E-01 -1.05804E-01
    9034.013     38.469   3.480  8.98042E-01  9.96203E-01 -9.81610E-02
    9035.080     39.535   3.520  9.05987E-01  9.95580E-01 -8.95928E-02
    9036.159     40.614   3.560  9.15415E-01  9.95053E-01 -7.96381E-02
    9037.250     41.706   3.600  9.26609E-01  9.94580E-01 -6.79709E-02
    9038.353     42.809   3.640  9.39447E-01  9.94182E-01 -5.47350E-02
    9039.469     43.924   3.680  9.53343E-01  9.93859E-01 -4.05164E-02
    9040.596     45.052   3.720  9.67488E-01  9.93591E-01 -2.61022E-02
    9041.736     46.192   3.760  9.81275E-01  9.93398E-01 -1.21222E-02
    9042.889     47.344   3.800  9.94277E-01  9.93280E-01  9.96967E-04
    9044.053     48.509   3.840  1.00651E+00  9.93239E-01  1.32718E-02
    9045.229     49.685   3.880  1.01840E+00  9.93251E-01  2.51498E-02
    9046.418     50.874   3.920  1.03044E+00  9.93336E-01  3.70994E-02
    9047.619     52.075   3.960  1.04256E+00  9.93493E-01  4.90720E-02
    9048.832     53.288   4.000  1.05414E+00  9.93700E-01  6.04387E-02
    9050.057     54.513   4.040  1.06419E+00  9.93955E-01  7.02331E-02
    9051.295     55.751   4.080  1.07194E+00  9.94281E-01  7.76611E-02
    9052.545     57.000   4.120  1.07722E+00  9.94675E-01  8.25495E-02
    9053.806     58.262   4.160  1.08041E+00  9.95093E-01  8.53193E-02
    9055.081     59.536   4.200  1.08209E+00  9.95574E-01  8.65137E-02
    9056.367     60.823   4.240  1.08259E+00  9.96098E-01  8.64891E-02
    9057.665     62.121   4.280  1.08197E+00  9.96663E-01  8.53031E-02
    9058.976     63.432   4.320  1.08002E+00  9.97265E-01  8.27549E-02
    9060.299     64.754   4.360  1.07647E+00  9.97881E-01  7.85895E-02
    9061.634     66.089   4.400  1.07124E+00  9.98555E-01  7.26826E-02
    9062.981     67.437   4.440  1.06439E+00  9.99238E-01  6.51542E-02
    9064.340     68.796   4.480  1.05634E+00  9.99930E-01  5.64131E-02
    9065.712     70.168   4.520  1.04777E+00  1.00065E+00  4.71255E-02
    9067.096     71.551   4.560  1.03942E+00  1.00137E+00  3.80476E-02
    9068.492     72.947   4.600  1.03195E+00  1.00210E+00  2.98496E-02
    9069.900     74.356   4.640  1.02580E+00  1.00285E+00  2.29529E-02
    9071.320     75.776   4.680  1.02106E+00  1.00358E+00  1.74798E-02
    9072.753     77.208   4.720  1.01749E+00  1.00430E+00  1.31930E-02
    9074.197     78.653   4.760  1.01457E+00  1.00502E+00  9.55684E-03
    9075.654     80.110   4.800  1.01163E+00  1.00573E+00  5.90526E-03
    9077.124     81.579   4.840  1.00812E+00  1.00641E+00  1.71250E-03
    9078.605     83.061   4.880  1.00388E+00  1.00708E+00 -3.20764E-03
    9080.098     84.554   4.920  9.98896E-01  1.00775E+00 -8.84953E-03
    9081.604     86.060   4.960  9.93147E-01  1.00835E+00 -1.52019E-02
    9083.122     87.578   5.000  9.86700E-01  1.00894E+00 -2.22365E-02
    9084.652     89.108   5.040  9.79689E-01  1.00949E+00 -2.97968E-02
    9086.194     90.650   5.080  9.72426E-01  1.00999E+00 -3.75677E-02
    9087.749     92.205   5.120  9.65259E-01  1.01046E+00 -4.52016E-02
    9089.316     93.771   5.160  9.58624E-01  1.01089E+00 -5.22624E-02
    9090.894     95.350   5.200  9.53188E-01  1.01127E+00 -5.80814E-02
    9092.485     96.941   5.240  9.49733E-01  1.01161E+00 -6.18784E-02
    9094.089     98.544   5.280  9.48887E-01  1.01191E+00 -6.30205E-02
    9095.704    100.160   5.320  9.51041E-01  1.01216E+00 -6.11182E-02
    9097.332    101.787   5.360  9.56466E-01  1.01234E+00 -5.58762E-02
    9098.972    103.427   5.400  9.65269E-01  1.01248E+00 -4.72081E-02
    9100.624    105.079   5.440  9.77073E-01  1.01257E+00 -3.54931E-02
    9102.288    106.743   5.480  9.90747E-01  1.01259E+00 -2.18410E-02
    9103.964    108.420   5.520  1.00462E+00  1.01259E+00 -7.96240E-03
    9105.653    110.108   5.560  1.01684E+00  1.01251E+00  4.32890E-03
    9107.353    111.809   5.600  1.02609E+00  1.01237E+00  1.37189E-02
    9109.066    113.522   5.640  1.03169E+00  1.01221E+00  1.94741E-02
    9110.792    115.247   5.680  1.03321E+00  1.01198E+00  2.12271E-02
    9112.529    116.985   5.720  1.03058E+00  1.01171E+00  1.88794E-02
    9114.279    118.734   5.760  1.02421E+00  1.01139E+00  1.28219E-02
    9116.040    120.496   5.800  1.01522E+00  1.01100E+00  4.21522E-03
    9117.814    122.270   5.840  1.00560E+00  1.01061E+00 -5.00648E-03
    9119.600    124.056   5.880  9.97429E-01  1.01017E+00 -1.27423E-02
    9121.399    125.854   5.920  9.92115E-01  1.00968E+00 -1.75611E-02
    9123.209    127.665   5.960  9.90136E-01  1.00917E+00 -1.90327E-02
    9125.032    129.488   6.000  9.91193E-01  1.00857E+00 -1.73747E-02
