# # comment:                                                     FEFF 9.9.1  
# # Source:
# # Structure
# # Reduced
# # space
# # abc:
# # angles:
# # sites:
# # POT  SCF 100  7.0000   0, screened core-hole, AFOLP (folp(0)= 1.150)
# # Abs   Z=29 Rmt= 1.209 Rnm= 1.291 K  shell
# # Pot 1 Z=11 Rmt= 1.512 Rnm= 1.514
# # Pot 2 Z=23 Rmt= 1.251 Rnm= 1.383
# # Pot 3 Z=29 Rmt= 1.203 Rnm= 1.287
# # Pot 4 Z= 8 Rmt= 0.989 Rnm= 1.094
# # Gam_ch=1.729E+00 H-L exch Vi= 0.000E+00 Vr= 0.000E+00
# # Mu=-1.015E+01eV kf=2.214E+00 Vint=-1.825E+01eV Rs_int= 1.638
# FMS rfms= 9.0000
# # PATH  Rmax=-1.000,  Keep_limit= 0.00, Heap_limit 0.00  Pwcrit= 2.50%
#  S02=0.950  Temp=   0.00  Debye_temp=   0.00  Global_sig2= 0.00000
#  Energy zero shift, vr, vi    0.00000E+00   0.00000E+00
#  Curved wave amplitude ratio filter   4.000%
#     file         sig2 tot  cw amp ratio   deg  nlegs   reff  inp sig2
#     0/   0 paths used
#  xsedge+ 50, used to normalize mu           2.4711E-04
#  -----------------------------------------------------------------------
#  omega    e    k    mu    mu0     chi     @#
    8984.849    -13.959  -1.000  3.47567E-02  5.09230E-02 -1.61663E-02
    8985.148    -13.661  -0.960  3.64370E-02  5.45303E-02 -1.80933E-02
    8985.434    -13.374  -0.920  3.82320E-02  5.85308E-02 -2.02988E-02
    8985.708    -13.100  -0.880  4.01537E-02  6.29817E-02 -2.28280E-02
    8985.970    -12.838  -0.840  4.22158E-02  6.79495E-02 -2.57337E-02
    8986.220    -12.588  -0.800  4.44342E-02  7.35112E-02 -2.90770E-02
    8986.458    -12.350  -0.760  4.68269E-02  7.97549E-02 -3.29279E-02
    8986.684    -12.125  -0.720  4.94143E-02  8.67802E-02 -3.73659E-02
    8986.897    -11.911  -0.680  5.22184E-02  9.46966E-02 -4.24782E-02
    8987.098    -11.710  -0.640  5.52625E-02  1.03620E-01 -4.83571E-02
    8987.287    -11.521  -0.600  5.85688E-02  1.13662E-01 -5.50936E-02
    8987.464    -11.344  -0.560  6.21550E-02  1.24921E-01 -6.27661E-02
    8987.629    -11.180  -0.520  6.60293E-02  1.37453E-01 -7.14232E-02
    8987.781    -11.027  -0.480  7.01833E-02  1.51243E-01 -8.10594E-02
    8987.921    -10.887  -0.440  7.45828E-02  1.66171E-01 -9.15880E-02
    8988.049    -10.759  -0.400  7.91614E-02  1.81979E-01 -1.02818E-01
    8988.165    -10.643  -0.360  8.38176E-02  1.98263E-01 -1.14445E-01
    8988.269    -10.540  -0.320  8.84203E-02  2.14497E-01 -1.26076E-01
    8988.360    -10.448  -0.280  9.28231E-02  2.30096E-01 -1.37273E-01
    8988.439    -10.369  -0.240  9.68830E-02  2.44499E-01 -1.47616E-01
    8988.506    -10.302  -0.200  1.00477E-01  2.57233E-01 -1.56756E-01
    8988.561    -10.247  -0.160  1.03513E-01  2.67950E-01 -1.64437E-01
    8988.604    -10.204  -0.120  1.05927E-01  2.76426E-01 -1.70499E-01
    8988.634    -10.174  -0.080  1.07682E-01  2.82536E-01 -1.74853E-01
    8988.659    -10.150   0.000  1.09121E-01  2.87446E-01 -1.78325E-01
    8988.714    -10.095   0.120  1.12246E-01  2.98518E-01 -1.86273E-01
    8988.756    -10.052   0.160  1.14670E-01  3.07139E-01 -1.92469E-01
    8988.811     -9.997   0.200  1.17727E-01  3.18152E-01 -2.00425E-01
    8988.878     -9.930   0.240  1.21393E-01  3.31418E-01 -2.10025E-01
    8988.958     -9.851   0.280  1.25568E-01  3.46687E-01 -2.21119E-01
    8989.049     -9.759   0.320  1.30139E-01  3.63591E-01 -2.33452E-01
    8989.153     -9.656   0.360  1.34856E-01  3.81647E-01 -2.46790E-01
    8989.268     -9.540   0.400  1.39491E-01  4.00366E-01 -2.60875E-01
    8989.396     -9.412   0.440  1.43786E-01  4.19320E-01 -2.75534E-01
    8989.537     -9.272   0.480  1.47463E-01  4.38099E-01 -2.90636E-01
    8989.689     -9.119   0.520  1.50570E-01  4.56524E-01 -3.05954E-01
    8989.854     -8.955   0.560  1.53478E-01  4.74472E-01 -3.20995E-01
    8990.030     -8.778   0.600  1.56970E-01  4.91895E-01 -3.34925E-01
    8990.219     -8.589   0.640  1.62197E-01  5.08862E-01 -3.46666E-01
    8990.421     -8.388   0.680  1.70361E-01  5.25436E-01 -3.55074E-01
    8990.634     -8.174   0.720  1.82414E-01  5.41664E-01 -3.59250E-01
    8990.859     -7.949   0.760  1.98982E-01  5.57661E-01 -3.58679E-01
    8991.097     -7.711   0.800  2.19724E-01  5.73489E-01 -3.53765E-01
    8991.347     -7.461   0.840  2.43050E-01  5.89176E-01 -3.46126E-01
    8991.609     -7.199   0.880  2.66870E-01  6.04781E-01 -3.37912E-01
    8991.884     -6.925   0.920  2.90191E-01  6.20310E-01 -3.30119E-01
    8992.170     -6.638   0.960  3.14045E-01  6.35797E-01 -3.21753E-01
    8992.469     -6.340   1.000  3.40922E-01  6.51250E-01 -3.10328E-01
    8992.780     -6.029   1.040  3.74384E-01  6.66643E-01 -2.92259E-01
    8993.103     -5.706   1.080  4.21532E-01  6.81968E-01 -2.60436E-01
    8993.438     -5.370   1.120  4.95328E-01  6.97209E-01 -2.01881E-01
    8993.786     -5.023   1.160  6.09431E-01  7.12348E-01 -1.02917E-01
    8994.145     -4.663   1.200  7.64129E-01  7.27360E-01  3.67683E-02
    8994.517     -4.291   1.240  9.15507E-01  7.42220E-01  1.73287E-01
    8994.901     -3.907   1.280  9.72582E-01  7.56876E-01  2.15707E-01
    8995.297     -3.511   1.320  9.01661E-01  7.71320E-01  1.30341E-01
    8995.706     -3.103   1.360  7.71889E-01  7.85500E-01 -1.36117E-02
    8996.126     -2.682   1.400  6.59268E-01  7.99405E-01 -1.40137E-01
    8996.559     -2.249   1.440  5.96962E-01  8.12961E-01 -2.15999E-01
    8997.004     -1.804   1.480  5.91684E-01  8.26197E-01 -2.34513E-01
    8997.461     -1.347   1.520  6.34320E-01  8.39041E-01 -2.04721E-01
    8997.931     -0.878   1.560  6.99004E-01  8.51462E-01 -1.52458E-01
    8998.412     -0.396   1.600  7.63164E-01  8.63471E-01 -1.00307E-01
    8998.906      0.098   1.640  8.16460E-01  8.75039E-01 -5.85786E-02
    8999.412      0.604   1.680  8.50370E-01  8.86116E-01 -3.57463E-02
    8999.930      1.122   1.720  8.78300E-01  8.96737E-01 -1.84370E-02
    9000.461      1.652   1.760  9.10809E-01  9.06837E-01  3.97120E-03
    9001.003      2.195   1.800  9.28947E-01  9.16433E-01  1.25133E-02
    9001.558      2.750   1.840  9.28496E-01  9.25522E-01  2.97395E-03
    9002.125      3.316   1.880  9.36982E-01  9.34103E-01  2.87889E-03
    9002.704      3.896   1.920  9.58577E-01  9.42156E-01  1.64216E-02
    9003.295      4.487   1.960  9.88004E-01  9.49702E-01  3.83025E-02
    9003.899      5.090   2.000  1.05100E+00  9.56745E-01  9.42597E-02
    9004.514      5.706   2.040  1.16751E+00  9.63269E-01  2.04237E-01
    9005.142      6.334   2.080  1.28812E+00  9.69318E-01  3.18798E-01
    9005.782      6.974   2.120  1.33825E+00  9.74859E-01  3.63392E-01
    9006.435      7.626   2.160  1.32896E+00  9.79937E-01  3.49024E-01
    9007.099      8.291   2.200  1.29669E+00  9.84580E-01  3.12111E-01
    9007.776      8.967   2.240  1.25286E+00  9.88758E-01  2.64098E-01
    9008.465      9.656   2.280  1.20835E+00  9.92518E-01  2.15833E-01
    9009.166     10.357   2.320  1.18952E+00  9.95869E-01  1.93656E-01
    9009.879     11.071   2.360  1.21463E+00  9.98840E-01  2.15787E-01
    9010.604     11.796   2.400  1.26646E+00  1.00144E+00  2.65015E-01
    9011.342     12.534   2.440  1.30962E+00  1.00369E+00  3.05932E-01
    9012.092     13.283   2.480  1.31998E+00  1.00560E+00  3.14378E-01
    9012.854     14.045   2.520  1.27988E+00  1.00722E+00  2.72660E-01
    9013.628     14.820   2.560  1.18935E+00  1.00852E+00  1.80826E-01
    9014.414     15.606   2.600  1.08267E+00  1.00957E+00  7.31029E-02
    9015.213     16.405   2.640  1.01159E+00  1.01037E+00  1.22269E-03
    9016.024     17.215   2.680  9.84016E-01  1.01095E+00 -2.69337E-02
    9016.847     18.038   2.720  9.74611E-01  1.01130E+00 -3.66890E-02
    9017.682     18.873   2.760  9.70024E-01  1.01145E+00 -4.14241E-02
    9018.529     19.721   2.800  9.65899E-01  1.01142E+00 -4.55251E-02
    9019.389     20.580   2.840  9.62451E-01  1.01124E+00 -4.87866E-02
    9020.260     21.452   2.880  9.60080E-01  1.01089E+00 -5.08148E-02
    9021.144     22.336   2.920  9.57573E-01  1.01045E+00 -5.28718E-02
    9022.040     23.232   2.960  9.52719E-01  1.00986E+00 -5.71381E-02
    9022.949     24.140   3.000  9.43991E-01  1.00918E+00 -6.51872E-02
    9023.869     25.061   3.040  9.31182E-01  1.00843E+00 -7.72532E-02
    9024.802     25.994   3.080  9.15336E-01  1.00759E+00 -9.22564E-02
    9025.747     26.938   3.120  8.98172E-01  1.00670E+00 -1.08527E-01
    9026.704     27.895   3.160  8.81275E-01  1.00576E+00 -1.24483E-01
    9027.673     28.865   3.200  8.65887E-01  1.00478E+00 -1.38890E-01
    9028.654     29.846   3.240  8.53506E-01  1.00376E+00 -1.50254E-01
    9029.648     30.840   3.280  8.45000E-01  1.00273E+00 -1.57732E-01
    9030.654     31.846   3.320  8.40981E-01  1.00168E+00 -1.60696E-01
    9031.672     32.864   3.360  8.41923E-01  1.00064E+00 -1.58716E-01
    9032.702     33.894   3.400  8.47594E-01  9.99583E-01 -1.51990E-01
    9033.745     34.936   3.440  8.57209E-01  9.98574E-01 -1.41366E-01
    9034.799     35.991   3.480  8.69852E-01  9.97551E-01 -1.27699E-01
    9035.866     37.058   3.520  8.84925E-01  9.96560E-01 -1.11636E-01
    9036.945     38.137   3.560  9.01583E-01  9.95604E-01 -9.40212E-02
    9038.036     39.228   3.600  9.19260E-01  9.94686E-01 -7.54260E-02
    9039.140     40.331   3.640  9.37697E-01  9.93806E-01 -5.61094E-02
    9040.255     41.447   3.680  9.56806E-01  9.92967E-01 -3.61610E-02
    9041.383     42.575   3.720  9.76388E-01  9.92171E-01 -1.57827E-02
    9042.523     43.715   3.760  9.95898E-01  9.91437E-01  4.46056E-03
    9043.675     44.867   3.800  1.01405E+00  9.90729E-01  2.33237E-02
    9044.839     46.031   3.840  1.02909E+00  9.90086E-01  3.90075E-02
    9046.016     47.208   3.880  1.03941E+00  9.89510E-01  4.98971E-02
    9047.205     48.396   3.920  1.04403E+00  9.88961E-01  5.50673E-02
    9048.405     49.597   3.960  1.04293E+00  9.88501E-01  5.44326E-02
    9049.619     50.810   4.000  1.03657E+00  9.88066E-01  4.85058E-02
    9050.844     52.036   4.040  1.02571E+00  9.87700E-01  3.80149E-02
    9052.081     53.273   4.080  1.01161E+00  9.87403E-01  2.42036E-02
    9053.331     54.523   4.120  9.96460E-01  9.87131E-01  9.32859E-03
    9054.593     55.785   4.160  9.83541E-01  9.86948E-01 -3.40756E-03
    9055.867     57.059   4.200  9.76190E-01  9.86791E-01 -1.06010E-02
    9057.153     58.345   4.240  9.77068E-01  9.86700E-01 -9.63270E-03
    9058.452     59.643   4.280  9.87271E-01  9.86655E-01  6.15761E-04
    9059.762     60.954   4.320  1.00597E+00  9.86677E-01  1.92954E-02
    9061.085     62.277   4.360  1.03031E+00  9.86741E-01  4.35705E-02
    9062.420     63.612   4.400  1.05607E+00  9.86825E-01  6.92410E-02
    9063.767     64.959   4.440  1.07871E+00  9.86971E-01  9.17411E-02
    9065.127     66.318   4.480  1.09439E+00  9.87159E-01  1.07232E-01
    9066.498     67.690   4.520  1.10072E+00  9.87386E-01  1.13336E-01
    9067.882     69.074   4.560  1.09749E+00  9.87652E-01  1.09834E-01
    9069.278     70.470   4.600  1.08637E+00  9.87953E-01  9.84134E-02
    9070.686     71.878   4.640  1.07043E+00  9.88267E-01  8.21666E-02
    9072.107     73.298   4.680  1.05324E+00  9.88614E-01  6.46278E-02
    9073.539     74.731   4.720  1.03789E+00  9.88994E-01  4.88927E-02
    9074.984     76.176   4.760  1.02647E+00  9.89385E-01  3.70863E-02
    9076.441     77.633   4.800  1.01980E+00  9.89804E-01  2.99985E-02
    9077.910     79.102   4.840  1.01730E+00  9.90231E-01  2.70652E-02
    9079.391     80.583   4.880  1.01764E+00  9.90684E-01  2.69585E-02
    9080.885     82.076   4.920  1.01943E+00  9.91118E-01  2.83125E-02
    9082.391     83.582   4.960  1.02148E+00  9.91575E-01  2.99039E-02
    9083.908     85.100   5.000  1.02250E+00  9.92033E-01  3.04706E-02
    9085.438     86.630   5.040  1.02120E+00  9.92489E-01  2.87145E-02
    9086.981     88.172   5.080  1.01680E+00  9.92921E-01  2.38754E-02
    9088.535     89.727   5.120  1.00909E+00  9.93370E-01  1.57185E-02
    9090.102     91.294   5.160  9.97861E-01  9.93794E-01  4.06702E-03
    9091.681     92.872   5.200  9.82962E-01  9.94211E-01 -1.12493E-02
    9093.272     94.464   5.240  9.64782E-01  9.94621E-01 -2.98396E-02
    9094.875     96.067   5.280  9.44707E-01  9.95001E-01 -5.02941E-02
    9096.490     97.682   5.320  9.24743E-01  9.95371E-01 -7.06278E-02
    9098.118     99.310   5.360  9.06786E-01  9.95706E-01 -8.89193E-02
    9099.758    100.950   5.400  8.92258E-01  9.96006E-01 -1.03748E-01
    9101.410    102.602   5.440  8.82025E-01  9.96294E-01 -1.14269E-01
    9103.074    104.266   5.480  8.76422E-01  9.96546E-01 -1.20124E-01
    9104.751    105.942   5.520  8.75557E-01  9.96762E-01 -1.21205E-01
    9106.439    107.631   5.560  8.79420E-01  9.96965E-01 -1.17545E-01
    9108.140    109.332   5.600  8.87821E-01  9.97130E-01 -1.09309E-01
    9109.853    111.045   5.640  9.00464E-01  9.97232E-01 -9.67685E-02
    9111.578    112.770   5.680  9.17052E-01  9.97317E-01 -8.02649E-02
    9113.315    114.507   5.720  9.37151E-01  9.97365E-01 -6.02140E-02
    9115.065    116.257   5.760  9.60284E-01  9.97374E-01 -3.70896E-02
    9116.827    118.018   5.800  9.85809E-01  9.97343E-01 -1.15346E-02
    9118.601    119.792   5.840  1.01255E+00  9.97274E-01  1.52802E-02
    9120.387    121.578   5.880  1.03841E+00  9.97168E-01  4.12377E-02
    9122.185    123.377   5.920  1.06056E+00  9.97048E-01  6.35136E-02
    9123.996    125.187   5.960  1.07639E+00  9.96864E-01  7.95253E-02
    9125.818    127.010   6.000  1.08411E+00  9.96613E-01  8.74933E-02
