# # comment:                                                     FEFF 9.9.1  
# # Source:
# # Structure
# # Reduced
# # space
# # abc:
# # angles:
# # sites:
# # POT  SCF 100  7.0000   0, screened core-hole, AFOLP (folp(0)= 1.150)
# # Abs   Z=29 Rmt= 1.196 Rnm= 1.272 K  shell
# # Pot 1 Z=57 Rmt= 1.750 Rnm= 1.833
# # Pot 2 Z=66 Rmt= 1.569 Rnm= 1.659
# # Pot 3 Z=29 Rmt= 1.196 Rnm= 1.272
# # Pot 4 Z= 8 Rmt= 1.049 Rnm= 1.096
# # Gam_ch=1.729E+00 H-L exch Vi= 0.000E+00 Vr= 0.000E+00
# # Mu=-8.242E+00eV kf=2.086E+00 Vint=-1.879E+01eV Rs_int= 1.739
# FMS rfms= 9.0000
# # PATH  Rmax=-1.000,  Keep_limit= 0.00, Heap_limit 0.00  Pwcrit= 2.50%
#  S02=0.950  Temp=   0.00  Debye_temp=   0.00  Global_sig2= 0.00000
#  Energy zero shift, vr, vi    0.00000E+00   0.00000E+00
#  Curved wave amplitude ratio filter   4.000%
#     file         sig2 tot  cw amp ratio   deg  nlegs   reff  inp sig2
#     0/   0 paths used
#  xsedge+ 50, used to normalize mu           2.4558E-04
#  -----------------------------------------------------------------------
#  omega    e    k    mu    mu0     chi     @#
    8985.254    -12.052  -1.000  3.80946E-02  5.75576E-02 -1.94630E-02
    8985.553    -11.753  -0.960  3.99840E-02  6.18737E-02 -2.18897E-02
    8985.839    -11.467  -0.920  4.20081E-02  6.66824E-02 -2.46743E-02
    8986.114    -11.192  -0.880  4.41818E-02  7.20575E-02 -2.78757E-02
    8986.376    -10.930  -0.840  4.65222E-02  7.80849E-02 -3.15627E-02
    8986.626    -10.680  -0.800  4.90490E-02  8.48645E-02 -3.58155E-02
    8986.864    -10.442  -0.760  5.17844E-02  9.25108E-02 -4.07264E-02
    8987.089    -10.217  -0.720  5.47534E-02  1.01154E-01 -4.64002E-02
    8987.303    -10.004  -0.680  5.79831E-02  1.10936E-01 -5.29529E-02
    8987.504     -9.802  -0.640  6.15018E-02  1.22009E-01 -6.05076E-02
    8987.693     -9.613  -0.600  6.53361E-02  1.34523E-01 -6.91864E-02
    8987.869     -9.437  -0.560  6.95074E-02  1.48603E-01 -7.90959E-02
    8988.034     -9.272  -0.520  7.40248E-02  1.64328E-01 -9.03035E-02
    8988.186     -9.120  -0.480  7.88770E-02  1.81683E-01 -1.02806E-01
    8988.327     -8.979  -0.440  8.40213E-02  2.00514E-01 -1.16493E-01
    8988.455     -8.851  -0.400  8.93763E-02  2.20490E-01 -1.31114E-01
    8988.570     -8.736  -0.360  9.48186E-02  2.41090E-01 -1.46272E-01
    8988.674     -8.632  -0.320  1.00191E-01  2.61636E-01 -1.61445E-01
    8988.766     -8.541  -0.280  1.05321E-01  2.81376E-01 -1.76055E-01
    8988.845     -8.461  -0.240  1.10042E-01  2.99589E-01 -1.89547E-01
    8988.912     -8.394  -0.200  1.14214E-01  3.15674E-01 -2.01460E-01
    8988.967     -8.339  -0.160  1.17731E-01  3.29193E-01 -2.11463E-01
    8989.009     -8.297  -0.120  1.20519E-01  3.39872E-01 -2.19353E-01
    8989.040     -8.266  -0.080  1.22536E-01  3.47558E-01 -2.25022E-01
    8989.064     -8.242   0.000  1.24177E-01  3.53729E-01 -2.29553E-01
    8989.119     -8.187   0.120  1.28081E-01  3.67639E-01 -2.39558E-01
    8989.162     -8.144   0.160  1.31043E-01  3.78435E-01 -2.47392E-01
    8989.217     -8.089   0.200  1.34800E-01  3.92188E-01 -2.57389E-01
    8989.284     -8.022   0.240  1.39343E-01  4.08711E-01 -2.69368E-01
    8989.363     -7.943   0.280  1.44591E-01  4.27627E-01 -2.83036E-01
    8989.454     -7.852   0.320  1.50454E-01  4.48400E-01 -2.97946E-01
    8989.558     -7.748   0.360  1.56855E-01  4.70414E-01 -3.13559E-01
    8989.674     -7.632   0.400  1.63692E-01  4.92972E-01 -3.29280E-01
    8989.802     -7.504   0.440  1.70902E-01  5.15460E-01 -3.44558E-01
    8989.942     -7.364   0.480  1.78447E-01  5.37381E-01 -3.58934E-01
    8990.094     -7.212   0.520  1.86275E-01  5.58413E-01 -3.72138E-01
    8990.259     -7.047   0.560  1.94394E-01  5.78435E-01 -3.84041E-01
    8990.436     -6.870   0.600  2.02805E-01  5.97394E-01 -3.94589E-01
    8990.625     -6.681   0.640  2.11659E-01  6.15339E-01 -4.03680E-01
    8990.826     -6.480   0.680  2.21309E-01  6.32401E-01 -4.11092E-01
    8991.039     -6.267   0.720  2.32156E-01  6.48669E-01 -4.16513E-01
    8991.265     -6.041   0.760  2.44805E-01  6.64273E-01 -4.19467E-01
    8991.503     -5.803   0.800  2.59706E-01  6.79308E-01 -4.19602E-01
    8991.753     -5.554   0.840  2.76912E-01  6.93841E-01 -4.16929E-01
    8992.015     -5.291   0.880  2.95485E-01  7.07958E-01 -4.12473E-01
    8992.289     -5.017   0.920  3.13472E-01  7.21731E-01 -4.08259E-01
    8992.576     -4.731   0.960  3.29538E-01  7.35181E-01 -4.05643E-01
    8992.874     -4.432   1.000  3.44597E-01  7.48334E-01 -4.03736E-01
    8993.185     -4.121   1.040  3.61306E-01  7.61227E-01 -3.99921E-01
    8993.508     -3.798   1.080  3.82812E-01  7.73848E-01 -3.91035E-01
    8993.844     -3.463   1.120  4.11691E-01  7.86196E-01 -3.74504E-01
    8994.191     -3.115   1.160  4.49929E-01  7.98310E-01 -3.48381E-01
    8994.551     -2.755   1.200  4.99381E-01  8.10138E-01 -3.10758E-01
    8994.922     -2.384   1.240  5.60535E-01  8.21710E-01 -2.61175E-01
    8995.307     -2.000   1.280  6.30097E-01  8.32967E-01 -2.02870E-01
    8995.703     -1.603   1.320  7.03251E-01  8.43954E-01 -1.40703E-01
    8996.111     -1.195   1.360  7.79163E-01  8.54608E-01 -7.54449E-02
    8996.532     -0.774   1.400  8.64262E-01  8.64930E-01 -6.67566E-04
    8996.965     -0.341   1.440  9.63924E-01  8.74898E-01  8.90259E-02
    8997.410      0.104   1.480  1.06414E+00  8.84532E-01  1.79610E-01
    8997.867      0.561   1.520  1.13115E+00  8.93787E-01  2.37361E-01
    8998.336      1.030   1.560  1.14505E+00  9.02685E-01  2.42366E-01
    8998.818      1.512   1.600  1.13479E+00  9.11181E-01  2.23613E-01
    8999.312      2.006   1.640  1.16134E+00  9.19275E-01  2.42067E-01
    8999.818      2.511   1.680  1.26948E+00  9.26987E-01  3.42488E-01
    9000.336      3.030   1.720  1.44132E+00  9.34277E-01  5.07044E-01
    9000.866      3.560   1.760  1.55951E+00  9.41187E-01  6.18324E-01
    9001.409      4.103   1.800  1.51990E+00  9.47676E-01  5.72228E-01
    9001.963      4.657   1.840  1.38975E+00  9.53768E-01  4.35985E-01
    9002.530      5.224   1.880  1.28135E+00  9.59446E-01  3.21899E-01
    9003.109      5.803   1.920  1.22581E+00  9.64754E-01  2.61060E-01
    9003.701      6.395   1.960  1.20305E+00  9.69656E-01  2.33398E-01
    9004.304      6.998   2.000  1.19123E+00  9.74198E-01  2.17032E-01
    9004.920      7.614   2.040  1.18888E+00  9.78364E-01  2.10518E-01
    9005.548      8.242   2.080  1.18913E+00  9.82162E-01  2.06970E-01
    9006.188      8.882   2.120  1.17481E+00  9.85638E-01  1.89169E-01
    9006.840      9.534   2.160  1.13569E+00  9.88757E-01  1.46937E-01
    9007.505     10.198   2.200  1.08394E+00  9.91569E-01  9.23761E-02
    9008.181     10.875   2.240  1.03755E+00  9.94080E-01  4.34729E-02
    9008.870     11.564   2.280  1.00626E+00  9.96277E-01  9.98692E-03
    9009.571     12.265   2.320  9.92347E-01  9.98209E-01 -5.86236E-03
    9010.284     12.978   2.360  9.91894E-01  9.99885E-01 -7.99083E-03
    9011.010     13.704   2.400  1.00418E+00  1.00131E+00  2.87075E-03
    9011.747     14.441   2.440  1.03433E+00  1.00252E+00  3.18092E-02
    9012.497     15.191   2.480  1.08036E+00  1.00350E+00  7.68599E-02
    9013.259     15.953   2.520  1.11760E+00  1.00429E+00  1.13311E-01
    9014.033     16.727   2.560  1.12643E+00  1.00488E+00  1.21550E-01
    9014.820     17.514   2.600  1.11719E+00  1.00532E+00  1.11868E-01
    9015.618     18.312   2.640  1.09925E+00  1.00559E+00  9.36662E-02
    9016.429     19.123   2.680  1.07881E+00  1.00571E+00  7.30965E-02
    9017.252     19.946   2.720  1.05831E+00  1.00574E+00  5.25781E-02
    9018.087     20.781   2.760  1.03760E+00  1.00562E+00  3.19844E-02
    9018.935     21.628   2.800  1.01503E+00  1.00540E+00  9.62578E-03
    9019.794     22.488   2.840  9.89141E-01  1.00510E+00 -1.59567E-02
    9020.666     23.360   2.880  9.60514E-01  1.00471E+00 -4.41994E-02
    9021.550     24.244   2.920  9.31435E-01  1.00425E+00 -7.28185E-02
    9022.446     25.140   2.960  9.04567E-01  1.00376E+00 -9.91964E-02
    9023.354     26.048   3.000  8.82205E-01  1.00321E+00 -1.21003E-01
    9024.275     26.969   3.040  8.65384E-01  1.00261E+00 -1.37228E-01
    9025.207     27.901   3.080  8.53644E-01  1.00200E+00 -1.48355E-01
    9026.152     28.846   3.120  8.46108E-01  1.00136E+00 -1.55248E-01
    9027.109     29.803   3.160  8.41675E-01  1.00070E+00 -1.59029E-01
    9028.078     30.772   3.200  8.39922E-01  1.00005E+00 -1.60126E-01
    9029.060     31.754   3.240  8.41337E-01  9.99392E-01 -1.58055E-01
    9030.054     32.748   3.280  8.46488E-01  9.98739E-01 -1.52251E-01
    9031.059     33.753   3.320  8.55498E-01  9.98110E-01 -1.42612E-01
    9032.077     34.771   3.360  8.68046E-01  9.97489E-01 -1.29443E-01
    9033.108     35.802   3.400  8.83456E-01  9.96878E-01 -1.13422E-01
    9034.150     36.844   3.440  9.00546E-01  9.96322E-01 -9.57767E-02
    9035.205     37.899   3.480  9.18121E-01  9.95781E-01 -7.76601E-02
    9036.271     38.965   3.520  9.35133E-01  9.95277E-01 -6.01440E-02
    9037.350     40.044   3.560  9.50753E-01  9.94833E-01 -4.40807E-02
    9038.442     41.136   3.600  9.64436E-01  9.94407E-01 -2.99713E-02
    9039.545     42.239   3.640  9.76055E-01  9.94021E-01 -1.79666E-02
    9040.661     43.354   3.680  9.85699E-01  9.93698E-01 -7.99909E-03
    9041.788     44.482   3.720  9.93495E-01  9.93395E-01  9.92192E-05
    9042.928     45.622   3.760  9.99836E-01  9.93155E-01  6.68060E-03
    9044.080     46.774   3.800  1.00506E+00  9.92958E-01  1.21047E-02
    9045.245     47.939   3.840  1.00943E+00  9.92803E-01  1.66265E-02
    9046.421     49.115   3.880  1.01341E+00  9.92691E-01  2.07160E-02
    9047.610     50.304   3.920  1.01764E+00  9.92622E-01  2.50207E-02
    9048.811     51.505   3.960  1.02276E+00  9.92618E-01  3.01467E-02
    9050.024     52.718   4.000  1.02890E+00  9.92657E-01  3.62415E-02
    9051.249     53.943   4.040  1.03537E+00  9.92737E-01  4.26331E-02
    9052.487     55.181   4.080  1.04071E+00  9.92857E-01  4.78538E-02
    9053.736     56.430   4.120  1.04327E+00  9.93018E-01  5.02483E-02
    9054.998     57.692   4.160  1.04225E+00  9.93218E-01  4.90274E-02
    9056.272     58.966   4.200  1.03826E+00  9.93455E-01  4.48055E-02
    9057.559     60.253   4.240  1.03293E+00  9.93707E-01  3.92235E-02
    9058.857     61.551   4.280  1.02800E+00  9.94019E-01  3.39859E-02
    9060.168     62.862   4.320  1.02469E+00  9.94368E-01  3.03206E-02
    9061.491     64.184   4.360  1.02349E+00  9.94728E-01  2.87645E-02
    9062.826     65.519   4.400  1.02436E+00  9.95099E-01  2.92598E-02
    9064.173     66.867   4.440  1.02711E+00  9.95523E-01  3.15874E-02
    9065.532     68.226   4.480  1.03155E+00  9.95956E-01  3.55975E-02
    9066.904     69.598   4.520  1.03768E+00  9.96397E-01  4.12784E-02
    9068.288     70.981   4.560  1.04545E+00  9.96866E-01  4.85794E-02
    9069.684     72.377   4.600  1.05446E+00  9.97340E-01  5.71231E-02
    9071.092     73.786   4.640  1.06378E+00  9.97817E-01  6.59646E-02
    9072.512     75.206   4.680  1.07187E+00  9.98317E-01  7.35573E-02
    9073.945     76.639   4.720  1.07678E+00  9.98795E-01  7.79891E-02
    9075.389     78.083   4.760  1.07676E+00  9.99271E-01  7.74883E-02
    9076.846     79.540   4.800  1.07089E+00  9.99769E-01  7.11167E-02
    9078.315     81.009   4.840  1.05938E+00  1.00024E+00  5.91376E-02
    9079.797     82.491   4.880  1.04366E+00  1.00071E+00  4.29502E-02
    9081.290     83.984   4.920  1.02586E+00  1.00117E+00  2.46914E-02
    9082.796     85.490   4.960  1.00822E+00  1.00160E+00  6.62144E-03
    9084.314     87.008   5.000  9.92709E-01  1.00202E+00 -9.30928E-03
    9085.844     88.538   5.040  9.80703E-01  1.00241E+00 -2.17037E-02
    9087.386     90.080   5.080  9.72892E-01  1.00278E+00 -2.98915E-02
    9088.941     91.635   5.120  9.69174E-01  1.00313E+00 -3.39548E-02
    9090.507     93.201   5.160  9.68752E-01  1.00346E+00 -3.47092E-02
    9092.086     94.780   5.200  9.70484E-01  1.00376E+00 -3.32734E-02
    9093.677     96.371   5.240  9.73263E-01  1.00402E+00 -3.07526E-02
    9095.281     97.974   5.280  9.76142E-01  1.00424E+00 -2.80957E-02
    9096.896     99.590   5.320  9.78302E-01  1.00444E+00 -2.61396E-02
    9098.524    101.217   5.360  9.79090E-01  1.00459E+00 -2.54970E-02
    9100.163    102.857   5.400  9.78324E-01  1.00471E+00 -2.63909E-02
    9101.815    104.509   5.440  9.76226E-01  1.00480E+00 -2.85777E-02
    9103.480    106.174   5.480  9.73428E-01  1.00485E+00 -3.14257E-02
    9105.156    107.850   5.520  9.70609E-01  1.00486E+00 -3.42552E-02
    9106.845    109.538   5.560  9.68027E-01  1.00483E+00 -3.68064E-02
    9108.545    111.239   5.600  9.65455E-01  1.00476E+00 -3.93060E-02
    9110.258    112.952   5.640  9.62546E-01  1.00465E+00 -4.21067E-02
    9111.983    114.677   5.680  9.59328E-01  1.00453E+00 -4.51987E-02
    9113.721    116.415   5.720  9.56316E-01  1.00434E+00 -4.80213E-02
    9115.470    118.164   5.760  9.54445E-01  1.00411E+00 -4.96653E-02
    9117.232    119.926   5.800  9.54502E-01  1.00387E+00 -4.93659E-02
    9119.006    121.700   5.840  9.56698E-01  1.00356E+00 -4.68667E-02
    9120.792    123.486   5.880  9.60741E-01  1.00325E+00 -4.25093E-02
    9122.590    125.284   5.920  9.65840E-01  1.00290E+00 -3.70646E-02
    9124.401    127.095   5.960  9.71156E-01  1.00252E+00 -3.13679E-02
    9126.224    128.918   6.000  9.76243E-01  1.00208E+00 -2.58405E-02
