# # comment:                                                     FEFF 9.9.1  
# # Source:
# # Structure
# # Reduced
# # space
# # abc:
# # angles:
# # sites:
# # POT  SCF 100  7.0000   0, screened core-hole, AFOLP (folp(0)= 1.150)
# # Abs   Z=29 Rmt= 1.345 Rnm= 1.410 K  shell
# # Pot 1 Z= 3 Rmt= 1.275 Rnm= 1.335
# # Pot 2 Z=29 Rmt= 1.313 Rnm= 1.393
# # Pot 3 Z=15 Rmt= 0.946 Rnm= 1.158
# # Pot 4 Z= 8 Rmt= 0.942 Rnm= 1.042
# # Gam_ch=1.729E+00 H-L exch Vi= 0.000E+00 Vr= 0.000E+00
# # Mu=-6.165E+00eV kf=2.362E+00 Vint=-1.729E+01eV Rs_int= 1.536
# FMS rfms= 9.0000
# # PATH  Rmax=-1.000,  Keep_limit= 0.00, Heap_limit 0.00  Pwcrit= 2.50%
#  S02=0.950  Temp=   0.00  Debye_temp=   0.00  Global_sig2= 0.00000
#  Energy zero shift, vr, vi    0.00000E+00   0.00000E+00
#  Curved wave amplitude ratio filter   4.000%
#     file         sig2 tot  cw amp ratio   deg  nlegs   reff  inp sig2
#     0/   0 paths used
#  xsedge+ 50, used to normalize mu           2.4670E-04
#  -----------------------------------------------------------------------
#  omega    e    k    mu    mu0     chi     @#
    8983.657     -9.975  -1.000  5.20618E-02  5.52179E-02 -3.15602E-03
    8983.956     -9.676  -0.960  5.55685E-02  5.92736E-02 -3.70505E-03
    8984.242     -9.390  -0.920  5.94343E-02  6.37859E-02 -4.35158E-03
    8984.516     -9.116  -0.880  6.37089E-02  6.88226E-02 -5.11364E-03
    8984.779     -8.853  -0.840  6.84501E-02  7.44628E-02 -6.01271E-03
    8985.029     -8.604  -0.800  7.37240E-02  8.07983E-02 -7.07429E-03
    8985.266     -8.366  -0.760  7.96063E-02  8.79346E-02 -8.32834E-03
    8985.492     -8.140  -0.720  8.61813E-02  9.59909E-02 -9.80958E-03
    8985.705     -7.927  -0.680  9.35414E-02  1.05099E-01 -1.15572E-02
    8985.906     -7.726  -0.640  1.01783E-01  1.15397E-01 -1.36139E-02
    8986.095     -7.537  -0.600  1.11000E-01  1.27022E-01 -1.60228E-02
    8986.272     -7.360  -0.560  1.21269E-01  1.40092E-01 -1.88226E-02
    8986.437     -7.195  -0.520  1.32637E-01  1.54676E-01 -2.20387E-02
    8986.589     -7.043  -0.480  1.45088E-01  1.70759E-01 -2.56717E-02
    8986.729     -6.903  -0.440  1.58518E-01  1.88201E-01 -2.96835E-02
    8986.857     -6.775  -0.400  1.72710E-01  2.06696E-01 -3.39856E-02
    8986.973     -6.659  -0.360  1.87325E-01  2.25761E-01 -3.84369E-02
    8987.077     -6.555  -0.320  2.01919E-01  2.44774E-01 -4.28550E-02
    8987.168     -6.464  -0.280  2.15995E-01  2.63039E-01 -4.70440E-02
    8987.247     -6.385  -0.240  2.29065E-01  2.79892E-01 -5.08273E-02
    8987.315     -6.318  -0.200  2.40702E-01  2.94777E-01 -5.40756E-02
    8987.369     -6.263  -0.160  2.50574E-01  3.07291E-01 -5.67173E-02
    8987.412     -6.220  -0.120  2.58443E-01  3.17177E-01 -5.87341E-02
    8987.443     -6.190  -0.080  2.64153E-01  3.24296E-01 -6.01424E-02
    8987.467     -6.165   0.000  2.68766E-01  3.30012E-01 -6.12461E-02
    8987.522     -6.110   0.120  2.79237E-01  3.42886E-01 -6.36488E-02
    8987.564     -6.068   0.160  2.87483E-01  3.52884E-01 -6.54002E-02
    8987.619     -6.013   0.200  2.98170E-01  3.65632E-01 -6.74625E-02
    8987.686     -5.946   0.240  3.11337E-01  3.80964E-01 -6.96270E-02
    8987.766     -5.866   0.280  3.26892E-01  3.98512E-01 -7.16203E-02
    8987.857     -5.775   0.320  3.44770E-01  4.17826E-01 -7.30557E-02
    8987.961     -5.671   0.360  3.64787E-01  4.38304E-01 -7.35171E-02
    8988.077     -5.556   0.400  3.86709E-01  4.59328E-01 -7.26196E-02
    8988.205     -5.428   0.440  4.10147E-01  4.80355E-01 -7.02083E-02
    8988.345     -5.287   0.480  4.34360E-01  5.00911E-01 -6.65515E-02
    8988.497     -5.135   0.520  4.58094E-01  5.20722E-01 -6.26281E-02
    8988.662     -4.970   0.560  4.79434E-01  5.39660E-01 -6.02264E-02
    8988.839     -4.794   0.600  4.96051E-01  5.57717E-01 -6.16659E-02
    8989.028     -4.605   0.640  5.05962E-01  5.74939E-01 -6.89775E-02
    8989.229     -4.403   0.680  5.08653E-01  5.91411E-01 -8.27585E-02
    8989.442     -4.190   0.720  5.05797E-01  6.07254E-01 -1.01458E-01
    8989.668     -3.964   0.760  5.01033E-01  6.22568E-01 -1.21536E-01
    8989.905     -3.727   0.800  4.98869E-01  6.37465E-01 -1.38596E-01
    8990.155     -3.477   0.840  5.03066E-01  6.52021E-01 -1.48956E-01
    8990.417     -3.215   0.880  5.15431E-01  6.66321E-01 -1.50890E-01
    8990.692     -2.940   0.920  5.35374E-01  6.80391E-01 -1.45018E-01
    8990.978     -2.654   0.960  5.60407E-01  6.94287E-01 -1.33881E-01
    8991.277     -2.355   1.000  5.87338E-01  7.08035E-01 -1.20697E-01
    8991.588     -2.044   1.040  6.14667E-01  7.21667E-01 -1.07000E-01
    8991.911     -1.721   1.080  6.44532E-01  7.35150E-01 -9.06185E-02
    8992.246     -1.386   1.120  6.81942E-01  7.48545E-01 -6.66031E-02
    8992.594     -1.038   1.160  7.30068E-01  7.61801E-01 -3.17330E-02
    8992.953     -0.679   1.200  7.86402E-01  7.74928E-01  1.14740E-02
    8993.325     -0.307   1.240  8.43893E-01  7.87911E-01  5.59813E-02
    8993.709      0.077   1.280  8.96815E-01  8.00729E-01  9.60860E-02
    8994.105      0.473   1.320  9.45404E-01  8.13360E-01  1.32044E-01
    8994.514      0.882   1.360  9.90802E-01  8.25802E-01  1.65000E-01
    8994.935      1.302   1.400  1.02859E+00  8.38007E-01  1.90588E-01
    8995.367      1.735   1.440  1.05518E+00  8.49949E-01  2.05227E-01
    8995.812      2.180   1.480  1.07713E+00  8.61643E-01  2.15485E-01
    8996.270      2.637   1.520  1.10498E+00  8.73039E-01  2.31944E-01
    8996.739      3.107   1.560  1.14130E+00  8.84109E-01  2.57189E-01
    8997.221      3.588   1.600  1.18080E+00  8.94844E-01  2.85954E-01
    8997.714      4.082   1.640  1.21137E+00  9.05196E-01  3.06177E-01
    8998.220      4.588   1.680  1.21614E+00  9.15199E-01  3.00941E-01
    8998.738      5.106   1.720  1.19277E+00  9.24806E-01  2.67964E-01
    8999.269      5.637   1.760  1.15792E+00  9.33991E-01  2.23933E-01
    8999.811      6.179   1.800  1.12613E+00  9.42748E-01  1.83387E-01
    9000.366      6.734   1.840  1.09998E+00  9.51072E-01  1.48905E-01
    9000.933      7.301   1.880  1.07957E+00  9.58960E-01  1.20610E-01
    9001.512      7.880   1.920  1.07102E+00  9.66390E-01  1.04630E-01
    9002.103      8.471   1.960  1.07952E+00  9.73361E-01  1.06156E-01
    9002.707      9.075   2.000  1.10155E+00  9.79871E-01  1.21681E-01
    9003.323      9.690   2.040  1.12623E+00  9.85921E-01  1.40307E-01
    9003.950     10.318   2.080  1.14392E+00  9.91533E-01  1.52390E-01
    9004.591     10.958   2.120  1.14712E+00  9.96670E-01  1.50451E-01
    9005.243     11.611   2.160  1.13221E+00  1.00138E+00  1.30830E-01
    9005.907     12.275   2.200  1.10419E+00  1.00564E+00  9.85520E-02
    9006.584     12.952   2.240  1.07308E+00  1.00947E+00  6.36111E-02
    9007.273     13.641   2.280  1.04534E+00  1.01289E+00  3.24445E-02
    9007.974     14.342   2.320  1.02216E+00  1.01590E+00  6.26011E-03
    9008.687     15.055   2.360  9.99939E-01  1.01851E+00 -1.85727E-02
    9009.412     15.780   2.400  9.76085E-01  1.02077E+00 -4.46816E-02
    9010.150     16.518   2.440  9.54088E-01  1.02264E+00 -6.85477E-02
    9010.900     17.268   2.480  9.39714E-01  1.02419E+00 -8.44728E-02
    9011.662     18.030   2.520  9.33079E-01  1.02539E+00 -9.23100E-02
    9012.436     18.804   2.560  9.29621E-01  1.02629E+00 -9.66733E-02
    9013.222     19.590   2.600  9.26734E-01  1.02691E+00 -1.00176E-01
    9014.021     20.389   2.640  9.24502E-01  1.02727E+00 -1.02763E-01
    9014.832     21.200   2.680  9.22612E-01  1.02735E+00 -1.04739E-01
    9015.655     22.023   2.720  9.19492E-01  1.02722E+00 -1.07723E-01
    9016.490     22.858   2.760  9.15451E-01  1.02685E+00 -1.11397E-01
    9017.337     23.705   2.800  9.14270E-01  1.02630E+00 -1.12029E-01
    9018.197     24.565   2.840  9.17584E-01  1.02556E+00 -1.07973E-01
    9019.068     25.436   2.880  9.24571E-01  1.02467E+00 -1.00102E-01
    9019.952     26.320   2.920  9.33141E-01  1.02363E+00 -9.04936E-02
    9020.849     27.216   2.960  9.41920E-01  1.02247E+00 -8.05492E-02
    9021.757     28.125   3.000  9.50414E-01  1.02119E+00 -7.07721E-02
    9022.677     29.045   3.040  9.58327E-01  1.01982E+00 -6.14887E-02
    9023.610     29.978   3.080  9.65464E-01  1.01838E+00 -5.29196E-02
    9024.555     30.923   3.120  9.71786E-01  1.01686E+00 -4.50709E-02
    9025.512     31.880   3.160  9.77322E-01  1.01530E+00 -3.79823E-02
    9026.481     32.849   3.200  9.81880E-01  1.01371E+00 -3.18316E-02
    9027.463     33.831   3.240  9.85455E-01  1.01209E+00 -2.66306E-02
    9028.456     34.824   3.280  9.88185E-01  1.01045E+00 -2.22664E-02
    9029.462     35.830   3.320  9.90453E-01  1.00881E+00 -1.83621E-02
    9030.480     36.848   3.360  9.92956E-01  1.00718E+00 -1.42257E-02
    9031.510     37.878   3.400  9.96414E-01  1.00558E+00 -9.16262E-03
    9032.553     38.921   3.440  1.00117E+00  1.00398E+00 -2.81702E-03
    9033.607     39.975   3.480  1.00729E+00  1.00245E+00  4.84471E-03
    9034.674     41.042   3.520  1.01460E+00  1.00094E+00  1.36613E-02
    9035.753     42.121   3.560  1.02282E+00  9.99487E-01  2.33315E-02
    9036.844     43.212   3.600  1.03158E+00  9.98085E-01  3.34972E-02
    9037.948     44.316   3.640  1.04055E+00  9.96757E-01  4.37918E-02
    9039.063     45.431   3.680  1.04928E+00  9.95503E-01  5.37728E-02
    9040.191     46.559   3.720  1.05708E+00  9.94303E-01  6.27816E-02
    9041.331     47.699   3.760  1.06332E+00  9.93202E-01  7.01137E-02
    9042.483     48.851   3.800  1.06722E+00  9.92160E-01  7.50626E-02
    9043.647     50.015   3.840  1.06829E+00  9.91199E-01  7.70919E-02
    9044.824     51.192   3.880  1.06641E+00  9.90341E-01  7.60703E-02
    9046.013     52.381   3.920  1.06186E+00  9.89568E-01  7.22953E-02
    9047.214     53.582   3.960  1.05522E+00  9.88878E-01  6.63401E-02
    9048.427     54.795   4.000  1.04718E+00  9.88270E-01  5.89138E-02
    9049.652     56.020   4.040  1.03849E+00  9.87747E-01  5.07433E-02
    9050.889     57.257   4.080  1.02969E+00  9.87331E-01  4.23557E-02
    9052.139     58.507   4.120  1.02111E+00  9.87000E-01  3.41137E-02
    9053.401     59.769   4.160  1.01302E+00  9.86749E-01  2.62684E-02
    9054.675     61.043   4.200  1.00553E+00  9.86582E-01  1.89500E-02
    9055.961     62.329   4.240  9.98613E-01  9.86497E-01  1.21161E-02
    9057.260     63.628   4.280  9.92134E-01  9.86515E-01  5.61829E-03
    9058.570     64.938   4.320  9.85893E-01  9.86591E-01 -6.97902E-04
    9059.893     66.261   4.360  9.79881E-01  9.86744E-01 -6.86341E-03
    9061.228     67.596   4.400  9.74274E-01  9.86975E-01 -1.27011E-02
    9062.575     68.943   4.440  9.69365E-01  9.87280E-01 -1.79156E-02
    9063.935     70.303   4.480  9.65343E-01  9.87638E-01 -2.22948E-02
    9065.306     71.674   4.520  9.62269E-01  9.88067E-01 -2.57979E-02
    9066.690     73.058   4.560  9.60004E-01  9.88565E-01 -2.85610E-02
    9068.086     74.454   4.600  9.58276E-01  9.89086E-01 -3.08109E-02
    9069.494     75.862   4.640  9.56989E-01  9.89672E-01 -3.26828E-02
    9070.915     77.283   4.680  9.56195E-01  9.90299E-01 -3.41033E-02
    9072.347     78.715   4.720  9.56038E-01  9.90942E-01 -3.49034E-02
    9073.792     80.160   4.760  9.56726E-01  9.91641E-01 -3.49152E-02
    9075.249     81.617   4.800  9.58265E-01  9.92355E-01 -3.40895E-02
    9076.718     83.086   4.840  9.60610E-01  9.93098E-01 -3.24888E-02
    9078.199     84.567   4.880  9.63658E-01  9.93848E-01 -3.01900E-02
    9079.693     86.061   4.920  9.67366E-01  9.94602E-01 -2.72357E-02
    9081.199     87.567   4.960  9.71703E-01  9.95379E-01 -2.36757E-02
    9082.717     89.084   5.000  9.76501E-01  9.96132E-01 -1.96307E-02
    9084.247     90.615   5.040  9.81479E-01  9.96882E-01 -1.54031E-02
    9085.789     92.157   5.080  9.86221E-01  9.97627E-01 -1.14058E-02
    9087.343     93.711   5.120  9.90403E-01  9.98363E-01 -7.96090E-03
    9088.910     95.278   5.160  9.93921E-01  9.99066E-01 -5.14550E-03
    9090.489     96.857   5.200  9.96918E-01  9.99732E-01 -2.81437E-03
    9092.080     98.448   5.240  9.99614E-01  1.00036E+00 -7.48612E-04
    9093.683    100.051   5.280  1.00226E+00  1.00097E+00  1.28630E-03
    9095.299    101.667   5.320  1.00500E+00  1.00152E+00  3.47645E-03
    9096.926    103.294   5.360  1.00795E+00  1.00205E+00  5.90124E-03
    9098.566    104.934   5.400  1.01102E+00  1.00251E+00  8.50587E-03
    9100.218    106.586   5.440  1.01399E+00  1.00293E+00  1.10594E-02
    9101.882    108.250   5.480  1.01643E+00  1.00327E+00  1.31545E-02
    9103.559    109.927   5.520  1.01786E+00  1.00357E+00  1.42956E-02
    9105.247    111.615   5.560  1.01795E+00  1.00382E+00  1.41356E-02
    9106.948    113.316   5.600  1.01671E+00  1.00399E+00  1.27215E-02
    9108.661    115.029   5.640  1.01465E+00  1.00409E+00  1.05554E-02
    9110.386    116.754   5.680  1.01248E+00  1.00414E+00  8.33630E-03
    9112.124    118.491   5.720  1.01072E+00  1.00412E+00  6.60966E-03
    9113.873    120.241   5.760  1.00965E+00  1.00404E+00  5.60659E-03
    9115.635    122.003   5.800  1.00918E+00  1.00387E+00  5.31159E-03
    9117.409    123.777   5.840  1.00932E+00  1.00367E+00  5.65105E-03
    9119.195    125.563   5.880  1.00996E+00  1.00337E+00  6.58289E-03
    9120.993    127.361   5.920  1.01105E+00  1.00303E+00  8.01510E-03
    9122.804    129.172   5.960  1.01227E+00  1.00264E+00  9.62416E-03
    9124.626    130.994   6.000  1.01291E+00  1.00214E+00  1.07732E-02
