# # comment:                                                     FEFF 9.9.1  
# # Source:
# # Structure
# # Reduced
# # space
# # abc:
# # angles:
# # sites:
# # POT  SCF 100  7.0000   0, screened core-hole, AFOLP (folp(0)= 1.150)
# # Abs   Z=29 Rmt= 1.106 Rnm= 1.260 K  shell
# # Pot 1 Z=29 Rmt= 1.106 Rnm= 1.260
# # Pot 2 Z=17 Rmt= 0.790 Rnm= 1.072
# # Pot 3 Z= 8 Rmt= 1.058 Rnm= 1.207
# # Gam_ch=1.729E+00 H-L exch Vi= 0.000E+00 Vr= 0.000E+00
# # Mu=-7.985E+00eV kf=2.139E+00 Vint=-1.234E+01eV Rs_int= 1.696
# FMS rfms= 9.0000
# # PATH  Rmax=-1.000,  Keep_limit= 0.00, Heap_limit 0.00  Pwcrit= 2.50%
#  S02=0.950  Temp=   0.00  Debye_temp=   0.00  Global_sig2= 0.00000
#  Energy zero shift, vr, vi    0.00000E+00   0.00000E+00
#  Curved wave amplitude ratio filter   4.000%
#     file         sig2 tot  cw amp ratio   deg  nlegs   reff  inp sig2
#     0/   0 paths used
#  xsedge+ 50, used to normalize mu           2.4134E-04
#  -----------------------------------------------------------------------
#  omega    e    k    mu    mu0     chi     @#
    8983.287    -11.795  -1.000  2.72234E-02  5.14131E-02 -2.41896E-02
    8983.586    -11.496  -0.960  2.82863E-02  5.47824E-02 -2.64961E-02
    8983.872    -11.210  -0.920  2.94241E-02  5.84834E-02 -2.90593E-02
    8984.146    -10.935  -0.880  3.06488E-02  6.25601E-02 -3.19113E-02
    8984.409    -10.673  -0.840  3.19748E-02  6.70635E-02 -3.50887E-02
    8984.658    -10.423  -0.800  3.34195E-02  7.20519E-02 -3.86324E-02
    8984.896    -10.185  -0.760  3.50037E-02  7.75915E-02 -4.25878E-02
    8985.122     -9.960  -0.720  3.67517E-02  8.37563E-02 -4.70046E-02
    8985.335     -9.746  -0.680  3.86916E-02  9.06270E-02 -5.19354E-02
    8985.536     -9.545  -0.640  4.08538E-02  9.82875E-02 -5.74337E-02
    8985.725     -9.356  -0.600  4.32695E-02  1.06819E-01 -6.35494E-02
    8985.902     -9.180  -0.560  4.59665E-02  1.16288E-01 -7.03218E-02
    8986.067     -9.015  -0.520  4.89629E-02  1.26732E-01 -7.77694E-02
    8986.219     -8.863  -0.480  5.22582E-02  1.38133E-01 -8.58753E-02
    8986.359     -8.722  -0.440  5.58226E-02  1.50394E-01 -9.45716E-02
    8986.487     -8.594  -0.400  5.95881E-02  1.63314E-01 -1.03726E-01
    8986.603     -8.479  -0.360  6.34455E-02  1.76582E-01 -1.13136E-01
    8986.707     -8.375  -0.320  6.72528E-02  1.89794E-01 -1.22541E-01
    8986.798     -8.283  -0.280  7.08554E-02  2.02498E-01 -1.31643E-01
    8986.877     -8.204  -0.240  7.41128E-02  2.14255E-01 -1.40143E-01
    8986.944     -8.137  -0.200  7.69204E-02  2.24685E-01 -1.47765E-01
    8986.999     -8.082  -0.160  7.92180E-02  2.33499E-01 -1.54281E-01
    8987.042     -8.040  -0.120  8.09837E-02  2.40500E-01 -1.59516E-01
    8987.072     -8.009  -0.080  8.22214E-02  2.45565E-01 -1.63344E-01
    8987.097     -7.985   0.000  8.31923E-02  2.49653E-01 -1.66461E-01
    8987.152     -7.930   0.120  8.57918E-02  2.58901E-01 -1.73110E-01
    8987.194     -7.887   0.160  8.75936E-02  2.66146E-01 -1.78552E-01
    8987.249     -7.832   0.200  8.96953E-02  2.75474E-01 -1.85779E-01
    8987.316     -7.765   0.240  9.19121E-02  2.86832E-01 -1.94920E-01
    8987.396     -7.686   0.280  9.39961E-02  3.00098E-01 -2.06102E-01
    8987.487     -7.595   0.320  9.56550E-02  3.15064E-01 -2.19409E-01
    8987.591     -7.491   0.360  9.66172E-02  3.31464E-01 -2.34847E-01
    8987.706     -7.375   0.400  9.67077E-02  3.49011E-01 -2.52303E-01
    8987.834     -7.247   0.440  9.59211E-02  3.67426E-01 -2.71505E-01
    8987.975     -7.107   0.480  9.44641E-02  3.86494E-01 -2.92030E-01
    8988.127     -6.955   0.520  9.26920E-02  4.06084E-01 -3.13392E-01
    8988.292     -6.790   0.560  9.09705E-02  4.26113E-01 -3.35143E-01
    8988.468     -6.613   0.600  8.96067E-02  4.46597E-01 -3.56990E-01
    8988.657     -6.424   0.640  8.87882E-02  4.67545E-01 -3.78757E-01
    8988.859     -6.223   0.680  8.85493E-02  4.88981E-01 -4.00431E-01
    8989.072     -6.010   0.720  8.88565E-02  5.10910E-01 -4.22053E-01
    8989.298     -5.784   0.760  8.98065E-02  5.33397E-01 -4.43591E-01
    8989.535     -5.546   0.800  9.14211E-02  5.56392E-01 -4.64971E-01
    8989.785     -5.296   0.840  9.37982E-02  5.79913E-01 -4.86114E-01
    8990.047     -5.034   0.880  9.69891E-02  6.03926E-01 -5.06937E-01
    8990.322     -4.760   0.920  1.01115E-01  6.28387E-01 -5.27272E-01
    8990.608     -4.473   0.960  1.06312E-01  6.53216E-01 -5.46904E-01
    8990.907     -4.175   1.000  1.12711E-01  6.78326E-01 -5.65616E-01
    8991.218     -3.864   1.040  1.20399E-01  7.03643E-01 -5.83244E-01
    8991.541     -3.541   1.080  1.29258E-01  7.29063E-01 -5.99806E-01
    8991.876     -3.206   1.120  1.39242E-01  7.54476E-01 -6.15235E-01
    8992.224     -2.858   1.160  1.50809E-01  7.79771E-01 -6.28962E-01
    8992.583     -2.498   1.200  1.64995E-01  8.04830E-01 -6.39835E-01
    8992.955     -2.127   1.240  1.82824E-01  8.29494E-01 -6.46669E-01
    8993.339     -1.742   1.280  2.04516E-01  8.53707E-01 -6.49191E-01
    8993.735     -1.346   1.320  2.28693E-01  8.77311E-01 -6.48617E-01
    8994.144     -0.938   1.360  2.53612E-01  9.00190E-01 -6.46578E-01
    8994.564     -0.517   1.400  2.78488E-01  9.22276E-01 -6.43789E-01
    8994.997     -0.084   1.440  3.03984E-01  9.43439E-01 -6.39455E-01
    8995.442      0.361   1.480  3.34336E-01  9.63618E-01 -6.29282E-01
    8995.899      0.818   1.520  3.77233E-01  9.82737E-01 -6.05504E-01
    8996.369      1.287   1.560  4.40979E-01  1.00072E+00 -5.59745E-01
    8996.850      1.769   1.600  5.34680E-01  1.01754E+00 -4.82856E-01
    8997.344      2.263   1.640  6.60365E-01  1.03313E+00 -3.72768E-01
    8997.850      2.769   1.680  7.89197E-01  1.04749E+00 -2.58289E-01
    8998.368      3.287   1.720  8.80250E-01  1.06061E+00 -1.80359E-01
    8998.899      3.817   1.760  9.43002E-01  1.07248E+00 -1.29480E-01
    8999.441      4.360   1.800  1.00539E+00  1.08311E+00 -7.77207E-02
    8999.996      4.914   1.840  1.05267E+00  1.09253E+00 -3.98610E-02
    9000.563      5.481   1.880  1.07572E+00  1.10077E+00 -2.50499E-02
    9001.142      6.060   1.920  1.10039E+00  1.10788E+00 -7.49212E-03
    9001.733      6.652   1.960  1.14712E+00  1.11387E+00  3.32468E-02
    9002.337      7.255   2.000  1.22995E+00  1.11879E+00  1.11156E-01
    9002.953      7.871   2.040  1.33934E+00  1.12274E+00  2.16609E-01
    9003.580      8.499   2.080  1.43826E+00  1.12573E+00  3.12531E-01
    9004.220      9.139   2.120  1.51046E+00  1.12781E+00  3.82643E-01
    9004.873      9.791   2.160  1.55717E+00  1.12909E+00  4.28077E-01
    9005.537     10.456   2.200  1.58615E+00  1.12959E+00  4.56566E-01
    9006.214     11.132   2.240  1.63547E+00  1.12940E+00  5.06069E-01
    9006.903     11.821   2.280  1.71872E+00  1.12856E+00  5.90163E-01
    9007.604     12.522   2.320  1.80917E+00  1.12712E+00  6.82043E-01
    9008.317     13.235   2.360  1.86218E+00  1.12516E+00  7.37023E-01
    9009.042     13.961   2.400  1.80808E+00  1.12270E+00  6.85380E-01
    9009.780     14.698   2.440  1.64699E+00  1.11984E+00  5.27156E-01
    9010.530     15.448   2.480  1.44735E+00  1.11658E+00  3.30763E-01
    9011.292     16.210   2.520  1.27766E+00  1.11302E+00  1.64643E-01
    9012.066     16.984   2.560  1.18730E+00  1.10916E+00  7.81402E-02
    9012.852     17.771   2.600  1.15501E+00  1.10506E+00  4.99474E-02
    9013.651     18.569   2.640  1.13910E+00  1.10076E+00  3.83453E-02
    9014.462     19.380   2.680  1.12572E+00  1.09629E+00  2.94354E-02
    9015.285     20.203   2.720  1.11139E+00  1.09171E+00  1.96826E-02
    9016.120     21.038   2.760  1.09432E+00  1.08701E+00  7.30989E-03
    9016.967     21.886   2.800  1.07386E+00  1.08224E+00 -8.38434E-03
    9017.827     22.745   2.840  1.05165E+00  1.07744E+00 -2.57881E-02
    9018.698     23.617   2.880  1.03077E+00  1.07262E+00 -4.18459E-02
    9019.582     24.501   2.920  1.01339E+00  1.06781E+00 -5.44272E-02
    9020.478     25.397   2.960  9.99614E-01  1.06300E+00 -6.33859E-02
    9021.387     26.305   3.000  9.88257E-01  1.05826E+00 -6.99993E-02
    9022.307     27.226   3.040  9.77398E-01  1.05359E+00 -7.61892E-02
    9023.240     28.158   3.080  9.65846E-01  1.04898E+00 -8.31292E-02
    9024.185     29.103   3.120  9.53726E-01  1.04446E+00 -9.07377E-02
    9025.142     30.060   3.160  9.42005E-01  1.04005E+00 -9.80414E-02
    9026.111     31.029   3.200  9.31600E-01  1.03576E+00 -1.04160E-01
    9027.093     32.011   3.240  9.22936E-01  1.03159E+00 -1.08652E-01
    9028.086     33.005   3.280  9.16004E-01  1.02757E+00 -1.11561E-01
    9029.092     34.010   3.320  9.10342E-01  1.02368E+00 -1.13340E-01
    9030.110     35.028   3.360  9.05230E-01  1.01993E+00 -1.14698E-01
    9031.140     36.059   3.400  9.00304E-01  1.01633E+00 -1.16031E-01
    9032.183     37.101   3.440  8.95673E-01  1.01293E+00 -1.17253E-01
    9033.237     38.156   3.480  8.91688E-01  1.00966E+00 -1.17968E-01
    9034.304     39.222   3.520  8.88931E-01  1.00656E+00 -1.17628E-01
    9035.383     40.301   3.560  8.87849E-01  1.00363E+00 -1.15782E-01
    9036.474     41.393   3.600  8.88725E-01  1.00088E+00 -1.12157E-01
    9037.578     42.496   3.640  8.91353E-01  9.98304E-01 -1.06951E-01
    9038.693     43.612   3.680  8.95496E-01  9.95905E-01 -1.00409E-01
    9039.821     44.739   3.720  9.00940E-01  9.93679E-01 -9.27386E-02
    9040.961     45.879   3.760  9.07458E-01  9.91633E-01 -8.41758E-02
    9042.113     47.031   3.800  9.14735E-01  9.89759E-01 -7.50239E-02
    9043.277     48.196   3.840  9.22622E-01  9.88058E-01 -6.54354E-02
    9044.454     49.372   3.880  9.31072E-01  9.86528E-01 -5.54562E-02
    9045.643     50.561   3.920  9.40083E-01  9.85185E-01 -4.51015E-02
    9046.844     51.762   3.960  9.49597E-01  9.83986E-01 -3.43883E-02
    9048.057     52.975   4.000  9.59719E-01  9.82979E-01 -2.32607E-02
    9049.282     54.200   4.040  9.70472E-01  9.82138E-01 -1.16664E-02
    9050.519     55.438   4.080  9.81828E-01  9.81461E-01  3.66209E-04
    9051.769     56.687   4.120  9.93594E-01  9.80947E-01  1.26466E-02
    9053.031     57.949   4.160  1.00528E+00  9.80571E-01  2.47108E-02
    9054.305     59.223   4.200  1.01624E+00  9.80355E-01  3.58808E-02
    9055.591     60.510   4.240  1.02582E+00  9.80297E-01  4.55216E-02
    9056.890     61.808   4.280  1.03356E+00  9.80393E-01  5.31648E-02
    9058.200     63.119   4.320  1.03914E+00  9.80601E-01  5.85391E-02
    9059.523     64.442   4.360  1.04260E+00  9.80982E-01  6.16219E-02
    9060.858     65.777   4.400  1.04406E+00  9.81468E-01  6.25936E-02
    9062.205     67.124   4.440  1.04369E+00  9.82076E-01  6.16130E-02
    9063.565     68.483   4.480  1.04159E+00  9.82806E-01  5.87816E-02
    9064.936     69.855   4.520  1.03787E+00  9.83657E-01  5.42130E-02
    9066.320     71.239   4.560  1.03281E+00  9.84624E-01  4.81826E-02
    9067.716     72.635   4.600  1.02693E+00  9.85681E-01  4.12454E-02
    9069.124     74.043   4.640  1.02107E+00  9.86828E-01  3.42440E-02
    9070.545     75.463   4.680  1.01623E+00  9.88080E-01  2.81488E-02
    9071.977     76.896   4.720  1.01327E+00  9.89392E-01  2.38750E-02
    9073.422     78.340   4.760  1.01287E+00  9.90783E-01  2.20829E-02
    9074.879     79.797   4.800  1.01526E+00  9.92250E-01  2.30123E-02
    9076.348     81.266   4.840  1.02017E+00  9.93790E-01  2.63811E-02
    9077.829     82.748   4.880  1.02676E+00  9.95354E-01  3.14031E-02
    9079.323     84.241   4.920  1.03393E+00  9.96983E-01  3.69501E-02
    9080.829     85.747   4.960  1.04060E+00  9.98651E-01  4.19522E-02
    9082.346     87.265   5.000  1.04615E+00  1.00033E+00  4.58133E-02
    9083.877     88.795   5.040  1.05049E+00  1.00205E+00  4.84449E-02
    9085.419     90.337   5.080  1.05370E+00  1.00379E+00  4.99101E-02
    9086.973     91.892   5.120  1.05561E+00  1.00552E+00  5.00915E-02
    9088.540     93.458   5.160  1.05586E+00  1.00726E+00  4.85942E-02
    9090.119     95.037   5.200  1.05395E+00  1.00898E+00  4.49636E-02
    9091.710     96.628   5.240  1.04960E+00  1.01070E+00  3.89076E-02
    9093.313     98.232   5.280  1.04293E+00  1.01240E+00  3.05288E-02
    9094.929     99.847   5.320  1.03449E+00  1.01404E+00  2.04530E-02
    9096.556    101.475   5.360  1.02543E+00  1.01566E+00  9.76444E-03
    9098.196    103.114   5.400  1.01686E+00  1.01725E+00 -3.80694E-04
    9099.848    104.766   5.440  1.00953E+00  1.01876E+00 -9.22615E-03
    9101.512    106.431   5.480  1.00367E+00  1.02022E+00 -1.65474E-02
    9103.189    108.107   5.520  9.99194E-01  1.02160E+00 -2.24094E-02
    9104.877    109.796   5.560  9.95992E-01  1.02294E+00 -2.69450E-02
    9106.578    111.496   5.600  9.93836E-01  1.02419E+00 -3.03546E-02
    9108.291    113.209   5.640  9.92428E-01  1.02536E+00 -3.29340E-02
    9110.016    114.934   5.680  9.91471E-01  1.02645E+00 -3.49791E-02
    9111.753    116.672   5.720  9.90845E-01  1.02745E+00 -3.66059E-02
    9113.503    118.421   5.760  9.90596E-01  1.02834E+00 -3.77441E-02
    9115.265    120.183   5.800  9.90876E-01  1.02916E+00 -3.82864E-02
    9117.039    121.957   5.840  9.91674E-01  1.02985E+00 -3.81724E-02
    9118.825    123.743   5.880  9.93053E-01  1.03046E+00 -3.74036E-02
    9120.623    125.541   5.920  9.94907E-01  1.03092E+00 -3.60085E-02
    9122.434    127.352   5.960  9.97166E-01  1.03125E+00 -3.40848E-02
    9124.256    129.175   6.000  9.99640E-01  1.03142E+00 -3.17754E-02
