# # comment:                                                     FEFF 9.9.1  
# # Source:
# # Structure
# # Reduced
# # space
# # abc:
# # angles:
# # sites:
# # POT  SCF 100  7.0000   0, screened core-hole, AFOLP (folp(0)= 1.150)
# # Abs   Z=29 Rmt= 1.272 Rnm= 1.342 K  shell
# # Pot 1 Z= 3 Rmt= 1.384 Rnm= 1.446
# # Pot 2 Z=29 Rmt= 1.273 Rnm= 1.342
# # Pot 3 Z=15 Rmt= 0.937 Rnm= 1.153
# # Pot 4 Z= 8 Rmt= 0.873 Rnm= 1.039
# # Gam_ch=1.729E+00 H-L exch Vi= 0.000E+00 Vr= 0.000E+00
# # Mu=-6.104E+00eV kf=2.509E+00 Vint=-1.739E+01eV Rs_int= 1.446
# FMS rfms= 9.0000
# # PATH  Rmax=-1.000,  Keep_limit= 0.00, Heap_limit 0.00  Pwcrit= 2.50%
#  S02=0.950  Temp=   0.00  Debye_temp=   0.00  Global_sig2= 0.00000
#  Energy zero shift, vr, vi    0.00000E+00   0.00000E+00
#  Curved wave amplitude ratio filter   4.000%
#     file         sig2 tot  cw amp ratio   deg  nlegs   reff  inp sig2
#     0/   0 paths used
#  xsedge+ 50, used to normalize mu           2.4845E-04
#  -----------------------------------------------------------------------
#  omega    e    k    mu    mu0     chi     @#
    8983.437     -9.913  -1.000  4.66589E-02  5.40959E-02 -7.43696E-03
    8983.735     -9.615  -0.960  4.96230E-02  5.80758E-02 -8.45279E-03
    8984.022     -9.328  -0.920  5.28747E-02  6.25053E-02 -9.63058E-03
    8984.296     -9.054  -0.880  5.64526E-02  6.74514E-02 -1.09988E-02
    8984.558     -8.792  -0.840  6.04013E-02  7.29922E-02 -1.25909E-02
    8984.808     -8.542  -0.800  6.47718E-02  7.92184E-02 -1.44466E-02
    8985.046     -8.304  -0.760  6.96224E-02  8.62344E-02 -1.66119E-02
    8985.271     -8.079  -0.720  7.50181E-02  9.41578E-02 -1.91397E-02
    8985.485     -7.865  -0.680  8.10298E-02  1.03119E-01 -2.20891E-02
    8985.686     -7.664  -0.640  8.77314E-02  1.13255E-01 -2.55238E-02
    8985.875     -7.475  -0.600  9.51945E-02  1.24702E-01 -2.95074E-02
    8986.052     -7.298  -0.560  1.03479E-01  1.37575E-01 -3.40959E-02
    8986.216     -7.134  -0.520  1.12618E-01  1.51943E-01 -3.93253E-02
    8986.369     -6.981  -0.480  1.22600E-01  1.67794E-01 -4.51937E-02
    8986.509     -6.841  -0.440  1.33345E-01  1.84987E-01 -5.16422E-02
    8986.637     -6.713  -0.400  1.44682E-01  2.03220E-01 -5.85378E-02
    8986.753     -6.597  -0.360  1.56348E-01  2.22018E-01 -6.56702E-02
    8986.856     -6.494  -0.320  1.67995E-01  2.40765E-01 -7.27693E-02
    8986.948     -6.402  -0.280  1.79230E-01  2.58773E-01 -7.95432E-02
    8987.027     -6.323  -0.240  1.89664E-01  2.75389E-01 -8.57243E-02
    8987.094     -6.256  -0.200  1.98956E-01  2.90062E-01 -9.11063E-02
    8987.149     -6.201  -0.160  2.06839E-01  3.02396E-01 -9.55575E-02
    8987.192     -6.158  -0.120  2.13126E-01  3.12139E-01 -9.90129E-02
    8987.222     -6.128  -0.080  2.17698E-01  3.19154E-01 -1.01455E-01
    8987.247     -6.104   0.000  2.21424E-01  3.24787E-01 -1.03362E-01
    8987.301     -6.049   0.120  2.29635E-01  3.37478E-01 -1.07843E-01
    8987.344     -6.006   0.160  2.36072E-01  3.47319E-01 -1.11246E-01
    8987.399     -5.951   0.200  2.44381E-01  3.59880E-01 -1.15498E-01
    8987.466     -5.884   0.240  2.54533E-01  3.74954E-01 -1.20422E-01
    8987.545     -5.805   0.280  2.66453E-01  3.92218E-01 -1.25765E-01
    8987.637     -5.713   0.320  2.80018E-01  4.11200E-01 -1.31181E-01
    8987.740     -5.610   0.360  2.95046E-01  4.31323E-01 -1.36276E-01
    8987.856     -5.494   0.400  3.11326E-01  4.51951E-01 -1.40625E-01
    8987.984     -5.366   0.440  3.28637E-01  4.72528E-01 -1.43891E-01
    8988.124     -5.226   0.480  3.46698E-01  4.92620E-01 -1.45921E-01
    8988.277     -5.073   0.520  3.65051E-01  5.11953E-01 -1.46902E-01
    8988.441     -4.909   0.560  3.82869E-01  5.30364E-01 -1.47495E-01
    8988.618     -4.732   0.600  3.99028E-01  5.47883E-01 -1.48856E-01
    8988.807     -4.543   0.640  4.12276E-01  5.64515E-01 -1.52239E-01
    8989.008     -4.342   0.680  4.22297E-01  5.80386E-01 -1.58089E-01
    8989.222     -4.128   0.720  4.30154E-01  5.95615E-01 -1.65461E-01
    8989.447     -3.903   0.760  4.37624E-01  6.10283E-01 -1.72659E-01
    8989.685     -3.665   0.800  4.46079E-01  6.24500E-01 -1.78421E-01
    8989.935     -3.415   0.840  4.56211E-01  6.38346E-01 -1.82135E-01
    8990.197     -3.153   0.880  4.68907E-01  6.51923E-01 -1.83016E-01
    8990.471     -2.879   0.920  4.85074E-01  6.65239E-01 -1.80165E-01
    8990.758     -2.592   0.960  5.04863E-01  6.78371E-01 -1.73508E-01
    8991.057     -2.294   1.000  5.28245E-01  6.91347E-01 -1.63103E-01
    8991.367     -1.983   1.040  5.56653E-01  7.04162E-01 -1.47509E-01
    8991.691     -1.660   1.080  5.91811E-01  7.16862E-01 -1.25051E-01
    8992.026     -1.324   1.120  6.33575E-01  7.29429E-01 -9.58534E-02
    8992.373     -0.977   1.160  6.80049E-01  7.41878E-01 -6.18290E-02
    8992.733     -0.617   1.200  7.27789E-01  7.54199E-01 -2.64101E-02
    8993.105     -0.245   1.240  7.70814E-01  7.66378E-01  4.43636E-03
    8993.489      0.139   1.280  8.00454E-01  7.78399E-01  2.20550E-02
    8993.885      0.535   1.320  8.11639E-01  7.90263E-01  2.13757E-02
    8994.293      0.943   1.360  8.13178E-01  8.01929E-01  1.12493E-02
    8994.714      1.364   1.400  8.22123E-01  8.13412E-01  8.71072E-03
    8995.147      1.797   1.440  8.46446E-01  8.24691E-01  2.17553E-02
    8995.592      2.242   1.480  8.86425E-01  8.35718E-01  5.07069E-02
    8996.049      2.699   1.520  9.46826E-01  8.46490E-01  1.00337E-01
    8996.519      3.168   1.560  1.02348E+00  8.57000E-01  1.66485E-01
    8997.000      3.650   1.600  1.08093E+00  8.67203E-01  2.13723E-01
    8997.494      4.144   1.640  1.09317E+00  8.77133E-01  2.16036E-01
    8998.000      4.650   1.680  1.08317E+00  8.86725E-01  1.96446E-01
    8998.518      5.168   1.720  1.07455E+00  8.95972E-01  1.78582E-01
    8999.048      5.698   1.760  1.07765E+00  9.04890E-01  1.72764E-01
    8999.591      6.241   1.800  1.09757E+00  9.13456E-01  1.84111E-01
    9000.146      6.796   1.840  1.12339E+00  9.21646E-01  2.01746E-01
    9000.713      7.363   1.880  1.13708E+00  9.29455E-01  2.07627E-01
    9001.292      7.942   1.920  1.13416E+00  9.36884E-01  1.97273E-01
    9001.883      8.533   1.960  1.12072E+00  9.43931E-01  1.76794E-01
    9002.486      9.136   2.000  1.10347E+00  9.50595E-01  1.52877E-01
    9003.102      9.752   2.040  1.09049E+00  9.56855E-01  1.33637E-01
    9003.730     10.380   2.080  1.08337E+00  9.62754E-01  1.20612E-01
    9004.370     11.020   2.120  1.07198E+00  9.68232E-01  1.03750E-01
    9005.022     11.672   2.160  1.05023E+00  9.73352E-01  7.68759E-02
    9005.687     12.337   2.200  1.02833E+00  9.78097E-01  5.02361E-02
    9006.364     13.013   2.240  1.02237E+00  9.82451E-01  3.99146E-02
    9007.052     13.702   2.280  1.03800E+00  9.86458E-01  5.15418E-02
    9007.753     14.403   2.320  1.06943E+00  9.90102E-01  7.93292E-02
    9008.467     15.117   2.360  1.10718E+00  9.93409E-01  1.13768E-01
    9009.192     15.842   2.400  1.14468E+00  9.96384E-01  1.48300E-01
    9009.930     16.580   2.440  1.17888E+00  9.99034E-01  1.79844E-01
    9010.679     17.329   2.480  1.20756E+00  1.00136E+00  2.06195E-01
    9011.441     18.091   2.520  1.22850E+00  1.00340E+00  2.25102E-01
    9012.216     18.866   2.560  1.23665E+00  1.00515E+00  2.31503E-01
    9013.002     19.652   2.600  1.22199E+00  1.00662E+00  2.15372E-01
    9013.801     20.451   2.640  1.18251E+00  1.00786E+00  1.74654E-01
    9014.611     21.261   2.680  1.12632E+00  1.00883E+00  1.17487E-01
    9015.434     22.084   2.720  1.06287E+00  1.00959E+00  5.32768E-02
    9016.269     22.919   2.760  1.00288E+00  1.01012E+00 -7.24331E-03
    9017.117     23.767   2.800  9.52346E-01  1.01046E+00 -5.81182E-02
    9017.976     24.626   2.840  9.12163E-01  1.01061E+00 -9.84492E-02
    9018.848     25.498   2.880  8.85856E-01  1.01059E+00 -1.24735E-01
    9019.732     26.382   2.920  8.77865E-01  1.01041E+00 -1.32544E-01
    9020.628     27.278   2.960  8.75633E-01  1.01007E+00 -1.34437E-01
    9021.536     28.186   3.000  8.74523E-01  1.00961E+00 -1.35083E-01
    9022.457     29.107   3.040  8.74182E-01  1.00904E+00 -1.34858E-01
    9023.390     30.040   3.080  8.74066E-01  1.00836E+00 -1.34294E-01
    9024.334     30.984   3.120  8.73496E-01  1.00757E+00 -1.34073E-01
    9025.292     31.941   3.160  8.71966E-01  1.00672E+00 -1.34752E-01
    9026.261     32.911   3.200  8.69360E-01  1.00579E+00 -1.36431E-01
    9027.242     33.892   3.240  8.66458E-01  1.00481E+00 -1.38354E-01
    9028.236     34.886   3.280  8.64636E-01  1.00377E+00 -1.39131E-01
    9029.242     35.892   3.320  8.64800E-01  1.00270E+00 -1.37899E-01
    9030.260     36.910   3.360  8.67355E-01  1.00158E+00 -1.34220E-01
    9031.290     37.940   3.400  8.72552E-01  1.00046E+00 -1.27908E-01
    9032.332     38.982   3.440  8.80289E-01  9.99316E-01 -1.19027E-01
    9033.387     40.037   3.480  8.90318E-01  9.98146E-01 -1.07828E-01
    9034.454     41.104   3.520  9.02498E-01  9.96997E-01 -9.44993E-02
    9035.533     42.183   3.560  9.16553E-01  9.95874E-01 -7.93207E-02
    9036.624     43.274   3.600  9.31752E-01  9.94737E-01 -6.29855E-02
    9037.727     44.377   3.640  9.47580E-01  9.93652E-01 -4.60716E-02
    9038.843     45.493   3.680  9.63422E-01  9.92577E-01 -2.91546E-02
    9039.971     46.621   3.720  9.78722E-01  9.91537E-01 -1.28141E-02
    9041.111     47.761   3.760  9.92985E-01  9.90513E-01  2.47242E-03
    9042.263     48.913   3.800  1.00597E+00  9.89549E-01  1.64205E-02
    9043.427     50.077   3.840  1.01751E+00  9.88628E-01  2.88818E-02
    9044.604     51.254   3.880  1.02770E+00  9.87750E-01  3.99543E-02
    9045.792     52.442   3.920  1.03672E+00  9.86938E-01  4.97824E-02
    9046.993     53.643   3.960  1.04446E+00  9.86170E-01  5.82901E-02
    9048.206     54.856   4.000  1.05056E+00  9.85447E-01  6.51084E-02
    9049.432     56.082   4.040  1.05463E+00  9.84772E-01  6.98614E-02
    9050.669     57.319   4.080  1.05655E+00  9.84165E-01  7.23889E-02
    9051.919     58.569   4.120  1.05660E+00  9.83630E-01  7.29694E-02
    9053.181     59.831   4.160  1.05551E+00  9.83144E-01  7.23660E-02
    9054.455     61.105   4.200  1.05431E+00  9.82726E-01  7.15807E-02
    9055.741     62.391   4.240  1.05382E+00  9.82357E-01  7.14587E-02
    9057.039     63.689   4.280  1.05442E+00  9.82036E-01  7.23803E-02
    9058.350     65.000   4.320  1.05603E+00  9.81785E-01  7.42414E-02
    9059.673     66.323   4.360  1.05801E+00  9.81604E-01  7.64051E-02
    9061.008     67.658   4.400  1.05944E+00  9.81473E-01  7.79676E-02
    9062.355     69.005   4.440  1.05951E+00  9.81408E-01  7.80988E-02
    9063.714     70.364   4.480  1.05755E+00  9.81367E-01  7.61813E-02
    9065.086     71.736   4.520  1.05328E+00  9.81393E-01  7.18869E-02
    9066.470     73.120   4.560  1.04674E+00  9.81485E-01  6.52523E-02
    9067.866     74.516   4.600  1.03819E+00  9.81599E-01  5.65878E-02
    9069.274     75.924   4.640  1.02810E+00  9.81777E-01  4.63189E-02
    9070.694     77.344   4.680  1.01694E+00  9.81996E-01  3.49397E-02
    9072.127     78.777   4.720  1.00517E+00  9.82254E-01  2.29128E-02
    9073.572     80.222   4.760  9.93174E-01  9.82528E-01  1.06461E-02
    9075.029     81.679   4.800  9.81426E-01  9.82859E-01 -1.43290E-03
    9076.498     83.148   4.840  9.70253E-01  9.83204E-01 -1.29513E-02
    9077.979     84.629   4.880  9.60006E-01  9.83584E-01 -2.35785E-02
    9079.473     86.122   4.920  9.50979E-01  9.83998E-01 -3.30187E-02
    9080.978     87.628   4.960  9.43395E-01  9.84420E-01 -4.10253E-02
    9082.496     89.146   5.000  9.37479E-01  9.84872E-01 -4.73926E-02
    9084.026     90.676   5.040  9.33284E-01  9.85329E-01 -5.20445E-02
    9085.569     92.218   5.080  9.30742E-01  9.85790E-01 -5.50478E-02
    9087.123     93.773   5.120  9.29756E-01  9.86275E-01 -5.65189E-02
    9088.690     95.340   5.160  9.30203E-01  9.86738E-01 -5.65347E-02
    9090.269     96.918   5.200  9.32134E-01  9.87200E-01 -5.50660E-02
    9091.860     98.510   5.240  9.35554E-01  9.87683E-01 -5.21290E-02
    9093.463    100.113   5.280  9.40279E-01  9.88140E-01 -4.78607E-02
    9095.078    101.728   5.320  9.46014E-01  9.88590E-01 -4.25765E-02
    9096.706    103.356   5.360  9.52247E-01  9.89013E-01 -3.67652E-02
    9098.346    104.996   5.400  9.58457E-01  9.89448E-01 -3.09914E-02
    9099.998    106.648   5.440  9.64092E-01  9.89829E-01 -2.57371E-02
    9101.662    108.312   5.480  9.68928E-01  9.90199E-01 -2.12711E-02
    9103.338    109.988   5.520  9.72862E-01  9.90536E-01 -1.76736E-02
    9105.027    111.677   5.560  9.75929E-01  9.90859E-01 -1.49299E-02
    9106.728    113.378   5.600  9.78133E-01  9.91146E-01 -1.30133E-02
    9108.441    115.091   5.640  9.79461E-01  9.91395E-01 -1.19342E-02
    9110.166    116.816   5.680  9.79875E-01  9.91605E-01 -1.17303E-02
    9111.903    118.553   5.720  9.79389E-01  9.91775E-01 -1.23867E-02
    9113.653    120.303   5.760  9.78205E-01  9.91905E-01 -1.37006E-02
    9115.414    122.064   5.800  9.76766E-01  9.91995E-01 -1.52287E-02
    9117.188    123.838   5.840  9.75671E-01  9.92045E-01 -1.63737E-02
    9118.974    125.624   5.880  9.75472E-01  9.92054E-01 -1.65827E-02
    9120.773    127.423   5.920  9.76534E-01  9.92023E-01 -1.54885E-02
    9122.583    129.233   5.960  9.79041E-01  9.91947E-01 -1.29053E-02
    9124.406    131.056   6.000  9.83206E-01  9.91802E-01 -8.59597E-03
