# # comment:                                                     FEFF 9.9.1  
# # Source:
# # Structure
# # Reduced
# # space
# # abc:
# # angles:
# # sites:
# # POT  SCF 100  7.0000   0, screened core-hole, AFOLP (folp(0)= 1.150)
# # Abs   Z=29 Rmt= 1.228 Rnm= 1.336 K  shell
# # Pot 1 Z=29 Rmt= 1.194 Rnm= 1.324
# # Pot 2 Z= 8 Rmt= 0.981 Rnm= 1.113
# # Pot 3 Z= 9 Rmt= 1.018 Rnm= 1.125
# # Gam_ch=1.729E+00 H-L exch Vi= 0.000E+00 Vr= 0.000E+00
# # Mu=-6.587E+00eV kf=2.008E+00 Vint=-1.275E+01eV Rs_int= 1.807
# FMS rfms= 9.0000
# # PATH  Rmax=-1.000,  Keep_limit= 0.00, Heap_limit 0.00  Pwcrit= 2.50%
#  S02=0.950  Temp=   0.00  Debye_temp=   0.00  Global_sig2= 0.00000
#  Energy zero shift, vr, vi    0.00000E+00   0.00000E+00
#  Curved wave amplitude ratio filter   4.000%
#     file         sig2 tot  cw amp ratio   deg  nlegs   reff  inp sig2
#     0/   0 paths used
#  xsedge+ 50, used to normalize mu           2.4120E-04
#  -----------------------------------------------------------------------
#  omega    e    k    mu    mu0     chi     @#
    8983.298    -10.397  -1.000  3.26777E-02  5.47150E-02 -2.20373E-02
    8983.596    -10.098  -0.960  3.40303E-02  5.85974E-02 -2.45671E-02
    8983.883     -9.812  -0.920  3.54542E-02  6.28970E-02 -2.74427E-02
    8984.157     -9.538  -0.880  3.69559E-02  6.76733E-02 -3.07174E-02
    8984.419     -9.275  -0.840  3.85426E-02  7.29954E-02 -3.44528E-02
    8984.669     -9.025  -0.800  4.02232E-02  7.89430E-02 -3.87198E-02
    8984.907     -8.788  -0.760  4.20077E-02  8.56072E-02 -4.35995E-02
    8985.133     -8.562  -0.720  4.39076E-02  9.30906E-02 -4.91829E-02
    8985.346     -8.349  -0.680  4.59358E-02  1.01506E-01 -5.55698E-02
    8985.547     -8.148  -0.640  4.81058E-02  1.10971E-01 -6.28649E-02
    8985.736     -7.959  -0.600  5.04305E-02  1.21601E-01 -7.11708E-02
    8985.913     -7.782  -0.560  5.29196E-02  1.33495E-01 -8.05753E-02
    8986.078     -7.617  -0.520  5.55763E-02  1.46709E-01 -9.11323E-02
    8986.230     -7.465  -0.480  5.83913E-02  1.61226E-01 -1.02834E-01
    8986.370     -7.325  -0.440  6.13373E-02  1.76920E-01 -1.15583E-01
    8986.498     -7.197  -0.400  6.43638E-02  1.93525E-01 -1.29161E-01
    8986.614     -7.081  -0.360  6.73967E-02  2.10620E-01 -1.43224E-01
    8986.718     -6.977  -0.320  7.03440E-02  2.27663E-01 -1.57319E-01
    8986.809     -6.886  -0.280  7.31089E-02  2.44049E-01 -1.70940E-01
    8986.888     -6.807  -0.240  7.56046E-02  2.59190E-01 -1.83585E-01
    8986.955     -6.739  -0.200  7.77657E-02  2.72592E-01 -1.94826E-01
    8987.010     -6.685  -0.160  7.95527E-02  2.83886E-01 -2.04333E-01
    8987.053     -6.642  -0.120  8.09467E-02  2.92830E-01 -2.11884E-01
    8987.083     -6.611  -0.080  8.19423E-02  2.99285E-01 -2.17343E-01
    8987.108     -6.587   0.000  8.27403E-02  3.04480E-01 -2.21740E-01
    8987.163     -6.532   0.120  8.45711E-02  3.16200E-01 -2.31629E-01
    8987.205     -6.490   0.160  8.59472E-02  3.25345E-01 -2.39398E-01
    8987.260     -6.435   0.200  8.76307E-02  3.37056E-01 -2.49426E-01
    8987.327     -6.368   0.240  8.95942E-02  3.51210E-01 -2.61616E-01
    8987.406     -6.288   0.280  9.17574E-02  3.67574E-01 -2.75817E-01
    8987.498     -6.197   0.320  9.40345E-02  3.85778E-01 -2.91743E-01
    8987.602     -6.093   0.360  9.63879E-02  4.05400E-01 -3.09012E-01
    8987.717     -5.977   0.400  9.88005E-02  4.25921E-01 -3.27120E-01
    8987.845     -5.849   0.440  1.01326E-01  4.46904E-01 -3.45577E-01
    8987.986     -5.709   0.480  1.04130E-01  4.68007E-01 -3.63877E-01
    8988.138     -5.557   0.520  1.07399E-01  4.88991E-01 -3.81592E-01
    8988.303     -5.392   0.560  1.11305E-01  5.09730E-01 -3.98425E-01
    8988.479     -5.215   0.600  1.16035E-01  5.30187E-01 -4.14152E-01
    8988.668     -5.027   0.640  1.21760E-01  5.50402E-01 -4.28642E-01
    8988.869     -4.825   0.680  1.28584E-01  5.70381E-01 -4.41798E-01
    8989.083     -4.612   0.720  1.36648E-01  5.90203E-01 -4.53555E-01
    8989.308     -4.386   0.760  1.46018E-01  6.09899E-01 -4.63881E-01
    8989.546     -4.149   0.800  1.56817E-01  6.29492E-01 -4.72675E-01
    8989.796     -3.899   0.840  1.69377E-01  6.49012E-01 -4.79635E-01
    8990.058     -3.637   0.880  1.84311E-01  6.68477E-01 -4.84166E-01
    8990.333     -3.362   0.920  2.02357E-01  6.87849E-01 -4.85492E-01
    8990.619     -3.076   0.960  2.24331E-01  7.07101E-01 -4.82770E-01
    8990.918     -2.777   1.000  2.50760E-01  7.26196E-01 -4.75436E-01
    8991.229     -2.466   1.040  2.81469E-01  7.45109E-01 -4.63640E-01
    8991.552     -2.143   1.080  3.15390E-01  7.63769E-01 -4.48379E-01
    8991.887     -1.808   1.120  3.51763E-01  7.82140E-01 -4.30377E-01
    8992.234     -1.460   1.160  3.91106E-01  8.00142E-01 -4.09035E-01
    8992.594     -1.101   1.200  4.33904E-01  8.17713E-01 -3.83810E-01
    8992.966     -0.729   1.240  4.78383E-01  8.34812E-01 -3.56429E-01
    8993.350     -0.345   1.280  5.20918E-01  8.51396E-01 -3.30478E-01
    8993.746      0.051   1.320  5.58231E-01  8.67384E-01 -3.09153E-01
    8994.155      0.460   1.360  5.89511E-01  8.82734E-01 -2.93223E-01
    8994.575      0.880   1.400  6.18072E-01  8.97408E-01 -2.79336E-01
    8995.008      1.313   1.440  6.51179E-01  9.11372E-01 -2.60193E-01
    8995.453      1.758   1.480  6.97332E-01  9.24611E-01 -2.27279E-01
    8995.910      2.215   1.520  7.60060E-01  9.37055E-01 -1.76995E-01
    8996.380      2.685   1.560  8.34942E-01  9.48738E-01 -1.13796E-01
    8996.861      3.166   1.600  9.16203E-01  9.59595E-01 -4.33922E-02
    8997.355      3.660   1.640  1.01192E+00  9.69666E-01  4.22508E-02
    8997.861      4.166   1.680  1.13854E+00  9.78955E-01  1.59588E-01
    8998.379      4.684   1.720  1.29508E+00  9.87445E-01  3.07636E-01
    8998.910      5.215   1.760  1.44785E+00  9.95143E-01  4.52709E-01
    8999.452      5.757   1.800  1.55476E+00  1.00210E+00  5.52658E-01
    9000.007      6.312   1.840  1.59834E+00  1.00831E+00  5.90032E-01
    9000.574      6.879   1.880  1.59021E+00  1.01380E+00  5.76406E-01
    9001.153      7.458   1.920  1.56422E+00  1.01861E+00  5.45603E-01
    9001.744      8.049   1.960  1.53969E+00  1.02276E+00  5.16931E-01
    9002.348      8.653   2.000  1.51075E+00  1.02631E+00  4.84443E-01
    9002.963      9.269   2.040  1.46849E+00  1.02927E+00  4.39220E-01
    9003.591      9.896   2.080  1.40808E+00  1.03168E+00  3.76401E-01
    9004.231     10.536   2.120  1.34196E+00  1.03358E+00  3.08377E-01
    9004.884     11.189   2.160  1.29610E+00  1.03499E+00  2.61108E-01
    9005.548     11.853   2.200  1.26877E+00  1.03598E+00  2.32792E-01
    9006.225     12.530   2.240  1.23081E+00  1.03657E+00  1.94239E-01
    9006.914     13.219   2.280  1.17208E+00  1.03679E+00  1.35281E-01
    9007.615     13.920   2.320  1.11661E+00  1.03668E+00  7.99247E-02
    9008.328     14.633   2.360  1.08422E+00  1.03627E+00  4.79479E-02
    9009.053     15.358   2.400  1.06872E+00  1.03558E+00  3.31399E-02
    9009.791     16.096   2.440  1.06293E+00  1.03467E+00  2.82616E-02
    9010.541     16.846   2.480  1.06322E+00  1.03357E+00  2.96484E-02
    9011.303     17.608   2.520  1.06369E+00  1.03228E+00  3.14151E-02
    9012.077     18.382   2.560  1.06058E+00  1.03082E+00  2.97535E-02
    9012.863     19.168   2.600  1.05319E+00  1.02926E+00  2.39294E-02
    9013.662     19.967   2.640  1.04176E+00  1.02759E+00  1.41675E-02
    9014.473     20.778   2.680  1.02672E+00  1.02583E+00  8.89723E-04
    9015.296     21.601   2.720  1.00954E+00  1.02402E+00 -1.44839E-02
    9016.131     22.436   2.760  9.91610E-01  1.02217E+00 -3.05622E-02
    9016.978     23.283   2.800  9.74007E-01  1.02031E+00 -4.63019E-02
    9017.838     24.143   2.840  9.57574E-01  1.01842E+00 -6.08452E-02
    9018.709     25.014   2.880  9.42794E-01  1.01655E+00 -7.37605E-02
    9019.593     25.898   2.920  9.29715E-01  1.01472E+00 -8.50059E-02
    9020.489     26.794   2.960  9.17857E-01  1.01290E+00 -9.50461E-02
    9021.398     27.703   3.000  9.06384E-01  1.01113E+00 -1.04743E-01
    9022.318     28.623   3.040  8.94502E-01  1.00942E+00 -1.14918E-01
    9023.251     29.556   3.080  8.82091E-01  1.00777E+00 -1.25674E-01
    9024.196     30.501   3.120  8.69970E-01  1.00621E+00 -1.36238E-01
    9025.153     31.458   3.160  8.59281E-01  1.00471E+00 -1.45431E-01
    9026.122     32.427   3.200  8.51194E-01  1.00330E+00 -1.52106E-01
    9027.103     33.409   3.240  8.46627E-01  1.00200E+00 -1.55369E-01
    9028.097     34.402   3.280  8.45885E-01  1.00078E+00 -1.54895E-01
    9029.103     35.408   3.320  8.48960E-01  9.99678E-01 -1.50718E-01
    9030.121     36.426   3.360  8.55053E-01  9.98668E-01 -1.43615E-01
    9031.151     37.456   3.400  8.63165E-01  9.97750E-01 -1.34585E-01
    9032.194     38.499   3.440  8.72231E-01  9.96971E-01 -1.24739E-01
    9033.248     39.553   3.480  8.81320E-01  9.96287E-01 -1.14968E-01
    9034.315     40.620   3.520  8.89888E-01  9.95721E-01 -1.05832E-01
    9035.394     41.699   3.560  8.97987E-01  9.95251E-01 -9.72636E-02
    9036.485     42.790   3.600  9.06244E-01  9.94918E-01 -8.86738E-02
    9037.589     43.894   3.640  9.15458E-01  9.94658E-01 -7.92003E-02
    9038.704     45.009   3.680  9.26399E-01  9.94537E-01 -6.81378E-02
    9039.832     46.137   3.720  9.39488E-01  9.94511E-01 -5.50227E-02
    9040.972     47.277   3.760  9.54939E-01  9.94598E-01 -3.96596E-02
    9042.124     48.429   3.800  9.72613E-01  9.94778E-01 -2.21641E-02
    9043.288     49.593   3.840  9.92026E-01  9.95068E-01 -3.04152E-03
    9044.465     50.770   3.880  1.01233E+00  9.95447E-01  1.68847E-02
    9045.653     51.959   3.920  1.03249E+00  9.95912E-01  3.65770E-02
    9046.854     53.160   3.960  1.05136E+00  9.96461E-01  5.49006E-02
    9048.068     54.373   4.000  1.06804E+00  9.97115E-01  7.09225E-02
    9049.293     55.598   4.040  1.08200E+00  9.97828E-01  8.41684E-02
    9050.530     56.835   4.080  1.09323E+00  9.98620E-01  9.46079E-02
    9051.780     58.085   4.120  1.10199E+00  9.99489E-01  1.02500E-01
    9053.042     59.347   4.160  1.10864E+00  1.00043E+00  1.08211E-01
    9054.316     60.621   4.200  1.11345E+00  1.00142E+00  1.12025E-01
    9055.602     61.907   4.240  1.11650E+00  1.00246E+00  1.14036E-01
    9056.901     63.206   4.280  1.11755E+00  1.00354E+00  1.14010E-01
    9058.211     64.516   4.320  1.11631E+00  1.00468E+00  1.11632E-01
    9059.534     65.839   4.360  1.11269E+00  1.00584E+00  1.06849E-01
    9060.869     67.174   4.400  1.10721E+00  1.00703E+00  1.00175E-01
    9062.216     68.521   4.440  1.10078E+00  1.00824E+00  9.25458E-02
    9063.576     69.881   4.480  1.09444E+00  1.00947E+00  8.49752E-02
    9064.947     71.252   4.520  1.08886E+00  1.01070E+00  7.81554E-02
    9066.331     72.636   4.560  1.08425E+00  1.01197E+00  7.22808E-02
    9067.727     74.032   4.600  1.08024E+00  1.01320E+00  6.70414E-02
    9069.135     75.440   4.640  1.07634E+00  1.01443E+00  6.19046E-02
    9070.556     76.861   4.680  1.07196E+00  1.01566E+00  5.63028E-02
    9071.988     78.293   4.720  1.06644E+00  1.01685E+00  4.95888E-02
    9073.433     79.738   4.760  1.05912E+00  1.01800E+00  4.11212E-02
    9074.890     81.195   4.800  1.04974E+00  1.01914E+00  3.05917E-02
    9076.359     82.664   4.840  1.03853E+00  1.02025E+00  1.82857E-02
    9077.840     84.145   4.880  1.02632E+00  1.02131E+00  5.01085E-03
    9079.334     85.639   4.920  1.01403E+00  1.02232E+00 -8.29099E-03
    9080.839     87.145   4.960  1.00251E+00  1.02329E+00 -2.07862E-02
    9082.357     88.663   5.000  9.92400E-01  1.02419E+00 -3.17890E-02
    9083.887     90.193   5.040  9.84143E-01  1.02504E+00 -4.08927E-02
    9085.430     91.735   5.080  9.77717E-01  1.02581E+00 -4.80901E-02
    9086.984     93.289   5.120  9.72810E-01  1.02653E+00 -5.37156E-02
    9088.551     94.856   5.160  9.68950E-01  1.02717E+00 -5.82166E-02
    9090.130     96.435   5.200  9.65826E-01  1.02773E+00 -6.19036E-02
    9091.721     98.026   5.240  9.63337E-01  1.02823E+00 -6.48963E-02
    9093.324     99.629   5.280  9.61657E-01  1.02864E+00 -6.69775E-02
    9094.939    101.245   5.320  9.61298E-01  1.02898E+00 -6.76809E-02
    9096.567    102.872   5.360  9.62680E-01  1.02924E+00 -6.65638E-02
    9098.207    104.512   5.400  9.65852E-01  1.02943E+00 -6.35765E-02
    9099.859    106.164   5.440  9.70281E-01  1.02955E+00 -5.92728E-02
    9101.523    107.828   5.480  9.74894E-01  1.02958E+00 -5.46817E-02
    9103.199    109.505   5.520  9.78649E-01  1.02952E+00 -5.08663E-02
    9104.888    111.193   5.560  9.80987E-01  1.02940E+00 -4.84116E-02
    9106.589    112.894   5.600  9.81846E-01  1.02920E+00 -4.73573E-02
    9108.302    114.607   5.640  9.81526E-01  1.02893E+00 -4.74032E-02
    9110.027    116.332   5.680  9.80498E-01  1.02858E+00 -4.80793E-02
    9111.764    118.069   5.720  9.79388E-01  1.02817E+00 -4.87864E-02
    9113.514    119.819   5.760  9.78844E-01  1.02770E+00 -4.88546E-02
    9115.276    121.581   5.800  9.79553E-01  1.02717E+00 -4.76218E-02
    9117.050    123.355   5.840  9.82053E-01  1.02658E+00 -4.45288E-02
    9118.836    125.141   5.880  9.86680E-01  1.02595E+00 -3.92654E-02
    9120.634    126.939   5.920  9.93402E-01  1.02527E+00 -3.18694E-02
    9122.444    128.750   5.960  1.00181E+00  1.02453E+00 -2.27268E-02
    9124.267    130.572   6.000  1.01151E+00  1.02372E+00 -1.22112E-02
