# # comment:                                                     FEFF 9.9.1  
# # Source:
# # Structure
# # Reduced
# # space
# # abc:
# # angles:
# # sites:
# # POT  SCF 100  7.0000   0, screened core-hole, AFOLP (folp(0)= 1.150)
# # Abs   Z=29 Rmt= 1.280 Rnm= 1.357 K  shell
# # Pot 1 Z=25 Rmt= 1.303 Rnm= 1.408
# # Pot 2 Z=29 Rmt= 1.279 Rnm= 1.335
# # Pot 3 Z= 8 Rmt= 1.047 Rnm= 1.108
# # Gam_ch=1.729E+00 H-L exch Vi= 0.000E+00 Vr= 0.000E+00
# # Mu=-1.054E+01eV kf=2.167E+00 Vint=-1.817E+01eV Rs_int= 1.674
# FMS rfms= 9.0000
# # PATH  Rmax=-1.000,  Keep_limit= 0.00, Heap_limit 0.00  Pwcrit= 2.50%
#  S02=0.950  Temp=   0.00  Debye_temp=   0.00  Global_sig2= 0.00000
#  Energy zero shift, vr, vi    0.00000E+00   0.00000E+00
#  Curved wave amplitude ratio filter   4.000%
#     file         sig2 tot  cw amp ratio   deg  nlegs   reff  inp sig2
#     0/   0 paths used
#  xsedge+ 50, used to normalize mu           2.5063E-04
#  -----------------------------------------------------------------------
#  omega    e    k    mu    mu0     chi     @#
    8984.101    -14.346  -1.000  3.17044E-02  4.51530E-02 -1.34487E-02
    8984.399    -14.047  -0.960  3.31980E-02  4.81935E-02 -1.49955E-02
    8984.686    -13.761  -0.920  3.47969E-02  5.15537E-02 -1.67567E-02
    8984.960    -13.486  -0.880  3.65131E-02  5.52793E-02 -1.87662E-02
    8985.222    -13.224  -0.840  3.83601E-02  5.94235E-02 -2.10634E-02
    8985.472    -12.974  -0.800  4.03538E-02  6.40475E-02 -2.36937E-02
    8985.710    -12.736  -0.760  4.25122E-02  6.92216E-02 -2.67094E-02
    8985.935    -12.511  -0.720  4.48554E-02  7.50250E-02 -3.01695E-02
    8986.149    -12.298  -0.680  4.74057E-02  8.15445E-02 -3.41389E-02
    8986.350    -12.096  -0.640  5.01858E-02  8.88719E-02 -3.86861E-02
    8986.539    -11.907  -0.600  5.32177E-02  9.70965E-02 -4.38788E-02
    8986.716    -11.731  -0.560  5.65184E-02  1.06294E-01 -4.97757E-02
    8986.880    -11.566  -0.520  6.00950E-02  1.16509E-01 -5.64140E-02
    8987.033    -11.414  -0.480  6.39364E-02  1.27728E-01 -6.37920E-02
    8987.173    -11.273  -0.440  6.80053E-02  1.39855E-01 -7.18492E-02
    8987.301    -11.145  -0.400  7.22311E-02  1.52680E-01 -8.04490E-02
    8987.417    -11.030  -0.360  7.65083E-02  1.65880E-01 -8.93720E-02
    8987.520    -10.926  -0.320  8.07052E-02  1.79034E-01 -9.83285E-02
    8987.612    -10.835  -0.280  8.46805E-02  1.91672E-01 -1.06991E-01
    8987.691    -10.755  -0.240  8.83041E-02  2.03342E-01 -1.15038E-01
    8987.758    -10.688  -0.200  9.14729E-02  2.13663E-01 -1.22190E-01
    8987.813    -10.633  -0.160  9.41162E-02  2.22354E-01 -1.28238E-01
    8987.856    -10.591  -0.120  9.61914E-02  2.29232E-01 -1.33040E-01
    8987.886    -10.560  -0.080  9.76755E-02  2.34191E-01 -1.36516E-01
    8987.910    -10.536   0.000  9.88505E-02  2.38180E-01 -1.39329E-01
    8987.965    -10.481   0.120  1.01667E-01  2.47184E-01 -1.45516E-01
    8988.008    -10.438   0.160  1.03824E-01  2.54195E-01 -1.50370E-01
    8988.063    -10.383   0.200  1.06571E-01  2.63170E-01 -1.56599E-01
    8988.130    -10.316   0.240  1.09845E-01  2.73980E-01 -1.64135E-01
    8988.209    -10.237   0.280  1.13645E-01  2.86475E-01 -1.72830E-01
    8988.301    -10.146   0.320  1.17889E-01  3.00329E-01 -1.82441E-01
    8988.404    -10.042   0.360  1.22604E-01  3.15206E-01 -1.92602E-01
    8988.520     -9.926   0.400  1.27853E-01  3.30702E-01 -2.02849E-01
    8988.648     -9.798   0.440  1.33836E-01  3.46489E-01 -2.12653E-01
    8988.788     -9.658   0.480  1.40785E-01  3.62277E-01 -2.21492E-01
    8988.941     -9.506   0.520  1.48867E-01  3.77898E-01 -2.29031E-01
    8989.105     -9.341   0.560  1.57984E-01  3.93275E-01 -2.35291E-01
    8989.282     -9.164   0.600  1.67637E-01  4.08403E-01 -2.40767E-01
    8989.471     -8.975   0.640  1.76878E-01  4.23285E-01 -2.46407E-01
    8989.672     -8.774   0.680  1.84607E-01  4.38030E-01 -2.53423E-01
    8989.886     -8.561   0.720  1.89871E-01  4.52673E-01 -2.62802E-01
    8990.111     -8.335   0.760  1.92795E-01  4.67287E-01 -2.74493E-01
    8990.349     -8.097   0.800  1.94989E-01  4.81942E-01 -2.86953E-01
    8990.599     -7.848   0.840  1.99212E-01  4.96675E-01 -2.97463E-01
    8990.861     -7.585   0.880  2.08253E-01  5.11515E-01 -3.03262E-01
    8991.135     -7.311   0.920  2.24500E-01  5.26500E-01 -3.02000E-01
    8991.422     -7.025   0.960  2.50235E-01  5.41619E-01 -2.91385E-01
    8991.720     -6.726   1.000  2.87744E-01  5.56915E-01 -2.69171E-01
    8992.031     -6.415   1.040  3.37449E-01  5.72381E-01 -2.34931E-01
    8992.354     -6.092   1.080  3.94481E-01  5.87988E-01 -1.93507E-01
    8992.690     -5.757   1.120  4.46040E-01  6.03718E-01 -1.57678E-01
    8993.037     -5.409   1.160  4.76042E-01  6.19572E-01 -1.43530E-01
    8993.397     -5.049   1.200  4.79195E-01  6.35525E-01 -1.56330E-01
    8993.769     -4.678   1.240  4.68008E-01  6.51548E-01 -1.83540E-01
    8994.153     -4.294   1.280  4.58246E-01  6.67594E-01 -2.09348E-01
    8994.549     -3.897   1.320  4.56913E-01  6.83628E-01 -2.26715E-01
    8994.957     -3.489   1.360  4.68316E-01  6.99637E-01 -2.31322E-01
    8995.378     -3.068   1.400  4.97069E-01  7.15568E-01 -2.18498E-01
    8995.811     -2.635   1.440  5.43560E-01  7.31402E-01 -1.87842E-01
    8996.256     -2.190   1.480  6.03320E-01  7.47064E-01 -1.43744E-01
    8996.713     -1.733   1.520  6.69461E-01  7.62535E-01 -9.30745E-02
    8997.182     -1.264   1.560  7.27509E-01  7.77798E-01 -5.02894E-02
    8997.664     -0.782   1.600  7.54843E-01  7.92777E-01 -3.79338E-02
    8998.158     -0.289   1.640  7.46281E-01  8.07455E-01 -6.11741E-02
    8998.664      0.217   1.680  7.28283E-01  8.21795E-01 -9.35114E-02
    8999.182      0.736   1.720  7.31030E-01  8.35781E-01 -1.04750E-01
    8999.712      1.266   1.760  7.69111E-01  8.49337E-01 -8.02264E-02
    9000.255      1.809   1.800  8.53792E-01  8.62472E-01 -8.68032E-03
    9000.810      2.363   1.840  1.00271E+00  8.75153E-01  1.27560E-01
    9001.376      2.930   1.880  1.21286E+00  8.87347E-01  3.25511E-01
    9001.956      3.509   1.920  1.40377E+00  8.99045E-01  5.04723E-01
    9002.547      4.101   1.960  1.44869E+00  9.10219E-01  5.38475E-01
    9003.150      4.704   2.000  1.35574E+00  9.20859E-01  4.34882E-01
    9003.766      5.320   2.040  1.25616E+00  9.30941E-01  3.25216E-01
    9004.394      5.948   2.080  1.20387E+00  9.40460E-01  2.63412E-01
    9005.034      6.588   2.120  1.17974E+00  9.49414E-01  2.30327E-01
    9005.686      7.240   2.160  1.17738E+00  9.57800E-01  2.19577E-01
    9006.351      7.904   2.200  1.20391E+00  9.65619E-01  2.38294E-01
    9007.027      8.581   2.240  1.23652E+00  9.72874E-01  2.63641E-01
    9007.716      9.270   2.280  1.23923E+00  9.79566E-01  2.59660E-01
    9008.417      9.971   2.320  1.21152E+00  9.85699E-01  2.25817E-01
    9009.131     10.684   2.360  1.16333E+00  9.91298E-01  1.72032E-01
    9009.856     11.410   2.400  1.09099E+00  9.96349E-01  9.46388E-02
    9010.594     12.147   2.440  1.01467E+00  1.00090E+00  1.37751E-02
    9011.343     12.897   2.480  9.69120E-01  1.00493E+00 -3.58126E-02
    9012.105     13.659   2.520  9.50388E-01  1.00848E+00 -5.80954E-02
    9012.880     14.433   2.560  9.44554E-01  1.01156E+00 -6.70037E-02
    9013.666     15.220   2.600  9.56167E-01  1.01418E+00 -5.80167E-02
    9014.465     16.018   2.640  9.73890E-01  1.01637E+00 -4.24846E-02
    9015.275     16.829   2.680  9.87964E-01  1.01816E+00 -3.01955E-02
    9016.098     17.652   2.720  9.93043E-01  1.01957E+00 -2.65267E-02
    9016.933     18.487   2.760  9.90869E-01  1.02060E+00 -2.97277E-02
    9017.781     19.334   2.800  9.86527E-01  1.02129E+00 -3.47654E-02
    9018.640     20.194   2.840  9.83409E-01  1.02167E+00 -3.82569E-02
    9019.512     21.066   2.880  9.81873E-01  1.02175E+00 -3.98772E-02
    9020.396     21.950   2.920  9.80679E-01  1.02155E+00 -4.08746E-02
    9021.292     22.846   2.960  9.77524E-01  1.02109E+00 -4.35658E-02
    9022.200     23.754   3.000  9.70409E-01  1.02041E+00 -4.99989E-02
    9023.121     24.675   3.040  9.58814E-01  1.01950E+00 -6.06859E-02
    9024.054     25.607   3.080  9.44356E-01  1.01841E+00 -7.40566E-02
    9024.998     26.552   3.120  9.29490E-01  1.01714E+00 -8.76495E-02
    9025.955     27.509   3.160  9.16170E-01  1.01573E+00 -9.95599E-02
    9026.925     28.478   3.200  9.05414E-01  1.01417E+00 -1.08759E-01
    9027.906     29.460   3.240  8.97591E-01  1.01252E+00 -1.14926E-01
    9028.900     30.453   3.280  8.92546E-01  1.01075E+00 -1.18206E-01
    9029.906     31.459   3.320  8.90004E-01  1.00890E+00 -1.18901E-01
    9030.924     32.477   3.360  8.89716E-01  1.00700E+00 -1.17288E-01
    9031.954     33.508   3.400  8.91088E-01  1.00504E+00 -1.13949E-01
    9032.996     34.550   3.440  8.93801E-01  1.00305E+00 -1.09250E-01
    9034.051     35.605   3.480  8.97790E-01  1.00103E+00 -1.03243E-01
    9035.118     36.671   3.520  9.03220E-01  9.99008E-01 -9.57876E-02
    9036.197     37.750   3.560  9.10208E-01  9.96960E-01 -8.67512E-02
    9037.288     38.842   3.600  9.19067E-01  9.94937E-01 -7.58702E-02
    9038.391     39.945   3.640  9.30031E-01  9.92946E-01 -6.29142E-02
    9039.507     41.060   3.680  9.43113E-01  9.90989E-01 -4.78763E-02
    9040.635     42.188   3.720  9.57988E-01  9.89051E-01 -3.10635E-02
    9041.775     43.328   3.760  9.73965E-01  9.87176E-01 -1.32107E-02
    9042.927     44.480   3.800  9.89973E-01  9.85346E-01  4.62745E-03
    9044.091     45.645   3.840  1.00540E+00  9.83587E-01  2.18174E-02
    9045.268     46.821   3.880  1.02021E+00  9.81882E-01  3.83279E-02
    9046.456     48.010   3.920  1.03452E+00  9.80272E-01  5.42524E-02
    9047.657     49.211   3.960  1.04805E+00  9.78719E-01  6.93297E-02
    9048.870     50.424   4.000  1.06024E+00  9.77246E-01  8.29951E-02
    9050.096     51.649   4.040  1.07043E+00  9.75876E-01  9.45511E-02
    9051.333     52.887   4.080  1.07821E+00  9.74590E-01  1.03617E-01
    9052.583     54.136   4.120  1.08397E+00  9.73387E-01  1.10583E-01
    9053.845     55.398   4.160  1.08854E+00  9.72269E-01  1.16272E-01
    9055.119     56.672   4.200  1.09264E+00  9.71257E-01  1.21378E-01
    9056.405     57.959   4.240  1.09668E+00  9.70334E-01  1.26350E-01
    9057.703     59.257   4.280  1.10053E+00  9.69520E-01  1.31007E-01
    9059.014     60.568   4.320  1.10241E+00  9.68792E-01  1.33623E-01
    9060.337     61.890   4.360  1.09874E+00  9.68173E-01  1.30565E-01
    9061.672     63.225   4.400  1.08561E+00  9.67639E-01  1.17974E-01
    9063.019     64.573   4.440  1.06165E+00  9.67191E-01  9.44605E-02
    9064.378     65.932   4.480  1.02929E+00  9.66850E-01  6.24378E-02
    9065.750     67.304   4.520  9.93386E-01  9.66595E-01  2.67909E-02
    9067.134     68.687   4.560  9.58798E-01  9.66423E-01 -7.62500E-03
    9068.530     70.083   4.600  9.28806E-01  9.66353E-01 -3.75467E-02
    9069.938     71.492   4.640  9.04982E-01  9.66345E-01 -6.13623E-02
    9071.358     72.912   4.680  8.87806E-01  9.66439E-01 -7.86327E-02
    9072.791     74.345   4.720  8.77062E-01  9.66610E-01 -8.95482E-02
    9074.236     75.789   4.760  8.72345E-01  9.66837E-01 -9.44926E-02
    9075.693     77.246   4.800  8.73360E-01  9.67159E-01 -9.37995E-02
    9077.162     78.715   4.840  8.79859E-01  9.67512E-01 -8.76531E-02
    9078.643     80.197   4.880  8.91866E-01  9.67958E-01 -7.60919E-02
    9080.136     81.690   4.920  9.09225E-01  9.68451E-01 -5.92265E-02
    9081.642     83.196   4.960  9.31215E-01  9.68990E-01 -3.77750E-02
    9083.160     84.714   5.000  9.55671E-01  9.69593E-01 -1.39218E-02
    9084.690     86.244   5.040  9.78786E-01  9.70215E-01  8.57165E-03
    9086.232     87.786   5.080  9.96605E-01  9.70897E-01  2.57080E-02
    9087.787     89.341   5.120  1.00693E+00  9.71594E-01  3.53335E-02
    9089.354     90.907   5.160  1.01035E+00  9.72325E-01  3.80277E-02
    9090.932     92.486   5.200  1.00894E+00  9.73088E-01  3.58497E-02
    9092.524     94.077   5.240  1.00444E+00  9.73856E-01  3.05819E-02
    9094.127     95.680   5.280  9.97715E-01  9.74629E-01  2.30864E-02
    9095.742     97.296   5.320  9.89062E-01  9.75404E-01  1.36586E-02
    9097.370     98.923   5.360  9.78715E-01  9.76200E-01  2.51469E-03
    9099.010    100.563   5.400  9.67054E-01  9.76973E-01 -9.91969E-03
    9100.662    102.215   5.440  9.55031E-01  9.77740E-01 -2.27091E-02
    9102.326    103.879   5.480  9.44076E-01  9.78500E-01 -3.44244E-02
    9104.002    105.556   5.520  9.35391E-01  9.79229E-01 -4.38380E-02
    9105.691    107.244   5.560  9.29093E-01  9.79923E-01 -5.08302E-02
    9107.392    108.945   5.600  9.24203E-01  9.80605E-01 -5.64015E-02
    9109.105    110.658   5.640  9.19444E-01  9.81249E-01 -6.18051E-02
    9110.830    112.383   5.680  9.14113E-01  9.81853E-01 -6.77403E-02
    9112.567    114.121   5.720  9.08394E-01  9.82416E-01 -7.40215E-02
    9114.317    115.870   5.760  9.03539E-01  9.82913E-01 -7.93736E-02
    9116.078    117.632   5.800  9.01644E-01  9.83388E-01 -8.17437E-02
    9117.852    119.406   5.840  9.04490E-01  9.83795E-01 -7.93053E-02
    9119.638    121.192   5.880  9.12975E-01  9.84152E-01 -7.11773E-02
    9121.437    122.990   5.920  9.27263E-01  9.84435E-01 -5.71718E-02
    9123.247    124.801   5.960  9.47275E-01  9.84656E-01 -3.73814E-02
    9125.070    126.624   6.000  9.73278E-01  9.84769E-01 -1.14905E-02
