# # comment:                                                     FEFF 9.9.1  
# # Source:
# # Structure
# # Reduced
# # space
# # abc:
# # angles:
# # sites:
# # POT  SCF 100  7.0000   0, screened core-hole, AFOLP (folp(0)= 1.150)
# # Abs   Z=29 Rmt= 1.258 Rnm= 1.320 K  shell
# # Pot 1 Z=56 Rmt= 1.904 Rnm= 1.968
# # Pot 2 Z=39 Rmt= 1.554 Rnm= 1.734
# # Pot 3 Z=29 Rmt= 1.258 Rnm= 1.320
# # Pot 4 Z= 8 Rmt= 1.039 Rnm= 1.112
# # Gam_ch=1.729E+00 H-L exch Vi= 0.000E+00 Vr= 0.000E+00
# # Mu=-9.235E+00eV kf=1.934E+00 Vint=-1.760E+01eV Rs_int= 1.875
# FMS rfms= 9.0000
# # PATH  Rmax=-1.000,  Keep_limit= 0.00, Heap_limit 0.00  Pwcrit= 2.50%
#  S02=0.950  Temp=   0.00  Debye_temp=   0.00  Global_sig2= 0.00000
#  Energy zero shift, vr, vi    0.00000E+00   0.00000E+00
#  Curved wave amplitude ratio filter   4.000%
#     file         sig2 tot  cw amp ratio   deg  nlegs   reff  inp sig2
#     0/   0 paths used
#  xsedge+ 50, used to normalize mu           2.4494E-04
#  -----------------------------------------------------------------------
#  omega    e    k    mu    mu0     chi     @#
    8985.080    -13.045  -1.000  3.72552E-02  5.52442E-02 -1.79891E-02
    8985.379    -12.747  -0.960  3.91188E-02  5.92867E-02 -2.01679E-02
    8985.665    -12.460  -0.920  4.11175E-02  6.37800E-02 -2.26625E-02
    8985.940    -12.186  -0.880  4.32658E-02  6.87904E-02 -2.55246E-02
    8986.202    -11.924  -0.840  4.55805E-02  7.43952E-02 -2.88147E-02
    8986.452    -11.674  -0.800  4.80806E-02  8.06837E-02 -3.26032E-02
    8986.689    -11.436  -0.760  5.07873E-02  8.77586E-02 -3.69713E-02
    8986.915    -11.210  -0.720  5.37243E-02  9.57358E-02 -4.20115E-02
    8987.128    -10.997  -0.680  5.69168E-02  1.04743E-01 -4.78259E-02
    8987.330    -10.796  -0.640  6.03908E-02  1.14914E-01 -5.45234E-02
    8987.519    -10.607  -0.600  6.41704E-02  1.26382E-01 -6.22118E-02
    8987.695    -10.430  -0.560  6.82747E-02  1.39260E-01 -7.09850E-02
    8987.860    -10.265  -0.520  7.27115E-02  1.53614E-01 -8.09022E-02
    8988.012    -10.113  -0.480  7.74698E-02  1.69429E-01 -9.19593E-02
    8988.152     -9.973  -0.440  8.25112E-02  1.86567E-01 -1.04056E-01
    8988.281     -9.845  -0.400  8.77620E-02  2.04730E-01 -1.16968E-01
    8988.396     -9.729  -0.360  9.31103E-02  2.23449E-01 -1.30339E-01
    8988.500     -9.625  -0.320  9.84118E-02  2.42116E-01 -1.43704E-01
    8988.591     -9.534  -0.280  1.03504E-01  2.60054E-01 -1.56551E-01
    8988.671     -9.455  -0.240  1.08224E-01  2.76614E-01 -1.68390E-01
    8988.738     -9.388  -0.200  1.12430E-01  2.91251E-01 -1.78821E-01
    8988.793     -9.333  -0.160  1.16005E-01  3.03564E-01 -1.87560E-01
    8988.835     -9.290  -0.120  1.18864E-01  3.13299E-01 -1.94435E-01
    8988.866     -9.260  -0.080  1.20948E-01  3.20313E-01 -1.99365E-01
    8988.890     -9.235   0.000  1.22653E-01  3.25947E-01 -2.03294E-01
    8988.945     -9.180   0.120  1.26565E-01  3.38655E-01 -2.12090E-01
    8988.988     -9.138   0.160  1.29597E-01  3.48542E-01 -2.18945E-01
    8989.043     -9.083   0.200  1.33492E-01  3.61149E-01 -2.27657E-01
    8989.110     -9.016   0.240  1.38283E-01  3.76348E-01 -2.38066E-01
    8989.189     -8.937   0.280  1.43857E-01  3.93781E-01 -2.49923E-01
    8989.280     -8.845   0.320  1.50209E-01  4.13050E-01 -2.62841E-01
    8989.384     -8.741   0.360  1.57192E-01  4.33569E-01 -2.76378E-01
    8989.500     -8.626   0.400  1.64706E-01  4.54779E-01 -2.90074E-01
    8989.628     -8.498   0.440  1.72577E-01  4.76108E-01 -3.03531E-01
    8989.768     -8.357   0.480  1.80732E-01  4.97166E-01 -3.16434E-01
    8989.920     -8.205   0.520  1.89165E-01  5.17648E-01 -3.28483E-01
    8990.085     -8.040   0.560  1.98093E-01  5.37434E-01 -3.39341E-01
    8990.262     -7.864   0.600  2.07957E-01  5.56487E-01 -3.48531E-01
    8990.451     -7.675   0.640  2.19376E-01  5.74844E-01 -3.55468E-01
    8990.652     -7.474   0.680  2.33024E-01  5.92596E-01 -3.59572E-01
    8990.865     -7.260   0.720  2.49285E-01  6.09830E-01 -3.60545E-01
    8991.091     -7.035   0.760  2.68313E-01  6.26587E-01 -3.58274E-01
    8991.328     -6.797   0.800  2.90409E-01  6.42984E-01 -3.52575E-01
    8991.578     -6.547   0.840  3.15340E-01  6.59082E-01 -3.43742E-01
    8991.841     -6.285   0.880  3.40640E-01  6.74885E-01 -3.34244E-01
    8992.115     -6.010   0.920  3.61515E-01  6.90447E-01 -3.28931E-01
    8992.401     -5.724   0.960  3.73246E-01  7.05789E-01 -3.32543E-01
    8992.700     -5.425   1.000  3.74616E-01  7.20904E-01 -3.46288E-01
    8993.011     -5.114   1.040  3.71199E-01  7.35811E-01 -3.64612E-01
    8993.334     -4.791   1.080  3.71951E-01  7.50463E-01 -3.78511E-01
    8993.669     -4.456   1.120  3.80642E-01  7.64869E-01 -3.84227E-01
    8994.017     -4.109   1.160  3.95223E-01  7.79012E-01 -3.83790E-01
    8994.376     -3.749   1.200  4.16412E-01  7.92852E-01 -3.76440E-01
    8994.748     -3.377   1.240  4.50015E-01  8.06366E-01 -3.56351E-01
    8995.132     -2.993   1.280  4.99143E-01  8.19530E-01 -3.20387E-01
    8995.529     -2.597   1.320  5.57565E-01  8.32336E-01 -2.74771E-01
    8995.937     -2.188   1.360  6.15349E-01  8.44737E-01 -2.29388E-01
    8996.358     -1.768   1.400  6.71794E-01  8.56707E-01 -1.84913E-01
    8996.790     -1.335   1.440  7.29102E-01  8.68241E-01 -1.39140E-01
    8997.235     -0.890   1.480  7.88459E-01  8.79289E-01 -9.08303E-02
    8997.693     -0.433   1.520  8.62844E-01  8.89891E-01 -2.70470E-02
    8998.162      0.037   1.560  9.68657E-01  8.99979E-01  6.86779E-02
    8998.644      0.518   1.600  1.10032E+00  9.09572E-01  1.90751E-01
    8999.137      1.012   1.640  1.22917E+00  9.18649E-01  3.10520E-01
    8999.643      1.518   1.680  1.34263E+00  9.27227E-01  4.15406E-01
    9000.162      2.036   1.720  1.43733E+00  9.35267E-01  5.02062E-01
    9000.692      2.567   1.760  1.49803E+00  9.42814E-01  5.55212E-01
    9001.234      3.109   1.800  1.54486E+00  9.49830E-01  5.95025E-01
    9001.789      3.664   1.840  1.57543E+00  9.56359E-01  6.19068E-01
    9002.356      4.231   1.880  1.56808E+00  9.62367E-01  6.05710E-01
    9002.935      4.810   1.920  1.52683E+00  9.67922E-01  5.58910E-01
    9003.527      5.401   1.960  1.45006E+00  9.72990E-01  4.77074E-01
    9004.130      6.005   2.000  1.35361E+00  9.77621E-01  3.75990E-01
    9004.746      6.620   2.040  1.26753E+00  9.81802E-01  2.85726E-01
    9005.374      7.248   2.080  1.20206E+00  9.85564E-01  2.16493E-01
    9006.014      7.888   2.120  1.14745E+00  9.88937E-01  1.58509E-01
    9006.666      8.541   2.160  1.09716E+00  9.91912E-01  1.05244E-01
    9007.330      9.205   2.200  1.05163E+00  9.94541E-01  5.70881E-02
    9008.007      9.882   2.240  1.01307E+00  9.96833E-01  1.62371E-02
    9008.696     10.571   2.280  9.85386E-01  9.98798E-01 -1.34116E-02
    9009.397     11.272   2.320  9.70170E-01  1.00049E+00 -3.03191E-02
    9010.110     11.985   2.360  9.72038E-01  1.00188E+00 -2.98396E-02
    9010.836     12.710   2.400  9.83917E-01  1.00303E+00 -1.91143E-02
    9011.573     13.448   2.440  9.97126E-01  1.00392E+00 -6.79709E-03
    9012.323     14.198   2.480  1.00769E+00  1.00462E+00  3.07160E-03
    9013.085     14.960   2.520  1.01375E+00  1.00512E+00  8.62948E-03
    9013.859     15.734   2.560  1.01443E+00  1.00544E+00  8.98244E-03
    9014.646     16.520   2.600  1.00915E+00  1.00561E+00  3.54217E-03
    9015.444     17.319   2.640  9.97968E-01  1.00563E+00 -7.66509E-03
    9016.255     18.130   2.680  9.81662E-01  1.00551E+00 -2.38509E-02
    9017.078     18.953   2.720  9.62390E-01  1.00530E+00 -4.29062E-02
    9017.913     19.788   2.760  9.42376E-01  1.00499E+00 -6.26146E-02
    9018.760     20.635   2.800  9.23083E-01  1.00460E+00 -8.15186E-02
    9019.620     21.495   2.840  9.05793E-01  1.00416E+00 -9.83651E-02
    9020.492     22.366   2.880  8.90904E-01  1.00364E+00 -1.12741E-01
    9021.376     23.250   2.920  8.78622E-01  1.00309E+00 -1.24464E-01
    9022.272     24.146   2.960  8.69180E-01  1.00249E+00 -1.33310E-01
    9023.180     25.055   3.000  8.62640E-01  1.00188E+00 -1.39241E-01
    9024.100     25.975   3.040  8.58778E-01  1.00126E+00 -1.42486E-01
    9025.033     26.908   3.080  8.57151E-01  1.00062E+00 -1.43472E-01
    9025.978     27.853   3.120  8.57421E-01  1.00001E+00 -1.42585E-01
    9026.935     28.810   3.160  8.58749E-01  9.99392E-01 -1.40643E-01
    9027.904     29.779   3.200  8.60889E-01  9.98806E-01 -1.37917E-01
    9028.886     30.760   3.240  8.63998E-01  9.98232E-01 -1.34234E-01
    9029.879     31.754   3.280  8.68447E-01  9.97690E-01 -1.29243E-01
    9030.885     32.760   3.320  8.74603E-01  9.97186E-01 -1.22582E-01
    9031.903     33.778   3.360  8.82814E-01  9.96719E-01 -1.13906E-01
    9032.934     34.808   3.400  8.93301E-01  9.96291E-01 -1.02990E-01
    9033.976     35.851   3.440  9.05947E-01  9.95884E-01 -8.99368E-02
    9035.031     36.905   3.480  9.20720E-01  9.95560E-01 -7.48403E-02
    9036.097     37.972   3.520  9.37384E-01  9.95260E-01 -5.78761E-02
    9037.176     39.051   3.560  9.55647E-01  9.95025E-01 -3.93785E-02
    9038.267     40.142   3.600  9.75061E-01  9.94814E-01 -1.97532E-02
    9039.371     41.246   3.640  9.95397E-01  9.94689E-01  7.07923E-04
    9040.486     42.361   3.680  1.01628E+00  9.94588E-01  2.16918E-02
    9041.614     43.489   3.720  1.03736E+00  9.94555E-01  4.28042E-02
    9042.754     44.629   3.760  1.05815E+00  9.94565E-01  6.35802E-02
    9043.906     45.781   3.800  1.07799E+00  9.94620E-01  8.33653E-02
    9045.071     46.945   3.840  1.09573E+00  9.94739E-01  1.00986E-01
    9046.247     48.122   3.880  1.11000E+00  9.94881E-01  1.15120E-01
    9047.436     49.310   3.920  1.11951E+00  9.95086E-01  1.24426E-01
    9048.637     50.511   3.960  1.12343E+00  9.95333E-01  1.28102E-01
    9049.850     51.724   4.000  1.12210E+00  9.95621E-01  1.26478E-01
    9051.075     52.950   4.040  1.11680E+00  9.95949E-01  1.20856E-01
    9052.313     54.187   4.080  1.10909E+00  9.96315E-01  1.12772E-01
    9053.562     55.437   4.120  1.10019E+00  9.96720E-01  1.03472E-01
    9054.824     56.699   4.160  1.09094E+00  9.97161E-01  9.37837E-02
    9056.098     57.973   4.200  1.08159E+00  9.97614E-01  8.39789E-02
    9057.384     59.259   4.240  1.07214E+00  9.98099E-01  7.40416E-02
    9058.683     60.558   4.280  1.06262E+00  9.98616E-01  6.40086E-02
    9059.994     61.868   4.320  1.05317E+00  9.99142E-01  5.40291E-02
    9061.316     63.191   4.360  1.04371E+00  9.99695E-01  4.40148E-02
    9062.651     64.526   4.400  1.03381E+00  1.00023E+00  3.35785E-02
    9063.999     65.873   4.440  1.02318E+00  1.00079E+00  2.23841E-02
    9065.358     67.233   4.480  1.01179E+00  1.00138E+00  1.04083E-02
    9066.730     68.604   4.520  1.00003E+00  1.00194E+00 -1.90897E-03
    9068.113     69.988   4.560  9.88710E-01  1.00250E+00 -1.37934E-02
    9069.509     71.384   4.600  9.78707E-01  1.00306E+00 -2.43550E-02
    9070.918     72.792   4.640  9.70803E-01  1.00362E+00 -3.28138E-02
    9072.338     74.213   4.680  9.65557E-01  1.00417E+00 -3.86090E-02
    9073.770     75.645   4.720  9.63198E-01  1.00469E+00 -4.14875E-02
    9075.215     77.090   4.760  9.63810E-01  1.00520E+00 -4.13875E-02
    9076.672     78.547   4.800  9.67156E-01  1.00570E+00 -3.85421E-02
    9078.141     80.016   4.840  9.72526E-01  1.00614E+00 -3.36165E-02
    9079.623     81.497   4.880  9.79034E-01  1.00660E+00 -2.75636E-02
    9081.116     82.991   4.920  9.85699E-01  1.00700E+00 -2.12958E-02
    9082.622     84.496   4.960  9.91955E-01  1.00738E+00 -1.54222E-02
    9084.140     86.014   5.000  9.97339E-01  1.00772E+00 -1.03851E-02
    9085.670     87.544   5.040  1.00104E+00  1.00806E+00 -7.02013E-03
    9087.212     89.087   5.080  1.00170E+00  1.00832E+00 -6.62673E-03
    9088.767     90.641   5.120  9.98247E-01  1.00858E+00 -1.03293E-02
    9090.333     92.208   5.160  9.90571E-01  1.00877E+00 -1.81945E-02
    9091.912     93.787   5.200  9.80172E-01  1.00894E+00 -2.87628E-02
    9093.503     95.378   5.240  9.69462E-01  1.00907E+00 -3.96034E-02
    9095.106     96.981   5.280  9.60705E-01  1.00913E+00 -4.84252E-02
    9096.722     98.596   5.320  9.55252E-01  1.00918E+00 -5.39245E-02
    9098.349    100.224   5.360  9.53239E-01  1.00918E+00 -5.59432E-02
    9099.989    101.864   5.400  9.53889E-01  1.00912E+00 -5.52335E-02
    9101.641    103.516   5.440  9.56167E-01  1.00904E+00 -5.28780E-02
    9103.305    105.180   5.480  9.59333E-01  1.00893E+00 -4.95926E-02
    9104.982    106.856   5.520  9.63318E-01  1.00874E+00 -4.54257E-02
    9106.670    108.545   5.560  9.68493E-01  1.00854E+00 -4.00508E-02
    9108.371    110.246   5.600  9.75080E-01  1.00831E+00 -3.32250E-02
    9110.084    111.959   5.640  9.83063E-01  1.00803E+00 -2.49642E-02
    9111.809    113.684   5.680  9.92063E-01  1.00771E+00 -1.56474E-02
    9113.547    115.421   5.720  1.00204E+00  1.00736E+00 -5.31976E-03
    9115.296    117.171   5.760  1.01295E+00  1.00696E+00  5.98646E-03
    9117.058    118.933   5.800  1.02443E+00  1.00656E+00  1.78725E-02
    9118.832    120.707   5.840  1.03546E+00  1.00612E+00  2.93334E-02
    9120.618    122.493   5.880  1.04464E+00  1.00566E+00  3.89795E-02
    9122.416    124.291   5.920  1.05060E+00  1.00516E+00  4.54407E-02
    9124.227    126.101   5.960  1.05267E+00  1.00466E+00  4.80171E-02
    9126.050    127.924   6.000  1.05055E+00  1.00411E+00  4.64392E-02
