# # comment:                                                     FEFF 9.9.1  
# # Source:
# # Structure
# # Reduced
# # space
# # abc:
# # angles:107.780468
# # sites:
# # POT  SCF 100  7.0000   0, screened core-hole, AFOLP (folp(0)= 1.150)
# # Abs   Z=29 Rmt= 1.170 Rnm= 1.296 K  shell
# # Pot 1 Z=23 Rmt= 1.089 Rnm= 1.312
# # Pot 2 Z=29 Rmt= 1.155 Rnm= 1.278
# # Pot 3 Z= 8 Rmt= 0.999 Rnm= 1.108
# # Pot 4 Z= 9 Rmt= 1.009 Rnm= 1.146
# # Gam_ch=1.729E+00 H-L exch Vi= 0.000E+00 Vr= 0.000E+00
# # Mu=-7.606E+00eV kf=2.187E+00 Vint=-1.500E+01eV Rs_int= 1.658
# FMS rfms= 9.0000
# # PATH  Rmax=-1.000,  Keep_limit= 0.00, Heap_limit 0.00  Pwcrit= 2.50%
#  S02=0.950  Temp=   0.00  Debye_temp=   0.00  Global_sig2= 0.00000
#  Energy zero shift, vr, vi    0.00000E+00   0.00000E+00
#  Curved wave amplitude ratio filter   4.000%
#     file         sig2 tot  cw amp ratio   deg  nlegs   reff  inp sig2
#     0/   0 paths used
#  xsedge+ 50, used to normalize mu           2.4375E-04
#  -----------------------------------------------------------------------
#  omega    e    k    mu    mu0     chi     @#
    8983.646    -11.416  -1.000  3.22101E-02  5.32043E-02 -2.09942E-02
    8983.945    -11.117  -0.960  3.35976E-02  5.69888E-02 -2.33911E-02
    8984.231    -10.831  -0.920  3.50639E-02  6.11845E-02 -2.61205E-02
    8984.506    -10.556  -0.880  3.66157E-02  6.58509E-02 -2.92351E-02
    8984.768    -10.294  -0.840  3.82606E-02  7.10570E-02 -3.27964E-02
    8985.018    -10.044  -0.800  4.00070E-02  7.68828E-02 -3.68759E-02
    8985.255     -9.806  -0.760  4.18644E-02  8.34198E-02 -4.15555E-02
    8985.481     -9.581  -0.720  4.38431E-02  9.07712E-02 -4.69281E-02
    8985.694     -9.367  -0.680  4.59542E-02  9.90503E-02 -5.30961E-02
    8985.895     -9.166  -0.640  4.82085E-02  1.08377E-01 -6.01682E-02
    8986.084     -8.977  -0.600  5.06158E-02  1.18867E-01 -6.82514E-02
    8986.261     -8.801  -0.560  5.31827E-02  1.30621E-01 -7.74385E-02
    8986.426     -8.636  -0.520  5.59098E-02  1.43697E-01 -8.77872E-02
    8986.578     -8.484  -0.480  5.87875E-02  1.58079E-01 -9.92919E-02
    8986.718     -8.343  -0.440  6.17917E-02  1.73643E-01 -1.11851E-01
    8986.846     -8.215  -0.400  6.48798E-02  1.90120E-01 -1.25240E-01
    8986.962     -8.100  -0.360  6.79901E-02  2.07090E-01 -1.39100E-01
    8987.066     -7.996  -0.320  7.10448E-02  2.24008E-01 -1.52963E-01
    8987.157     -7.904  -0.280  7.39581E-02  2.40268E-01 -1.66310E-01
    8987.237     -7.825  -0.240  7.66463E-02  2.55285E-01 -1.78639E-01
    8987.304     -7.758  -0.200  7.90362E-02  2.68566E-01 -1.89530E-01
    8987.359     -7.703  -0.160  8.10693E-02  2.79749E-01 -1.98680E-01
    8987.401     -7.661  -0.120  8.27012E-02  2.88597E-01 -2.05896E-01
    8987.432     -7.630  -0.080  8.39001E-02  2.94978E-01 -2.11078E-01
    8987.456     -7.606   0.000  8.49013E-02  3.00109E-01 -2.15207E-01
    8987.511     -7.551   0.120  8.71866E-02  3.11672E-01 -2.24486E-01
    8987.554     -7.508   0.160  8.89377E-02  3.20686E-01 -2.31749E-01
    8987.608     -7.453   0.200  9.11695E-02  3.32205E-01 -2.41035E-01
    8987.676     -7.386   0.240  9.39252E-02  3.46110E-01 -2.52185E-01
    8987.755     -7.307   0.280  9.71752E-02  3.62131E-01 -2.64956E-01
    8987.846     -7.216   0.320  1.00934E-01  3.79875E-01 -2.78941E-01
    8987.950     -7.112   0.360  1.05244E-01  3.98914E-01 -2.93670E-01
    8988.066     -6.996   0.400  1.10070E-01  4.18688E-01 -3.08618E-01
    8988.194     -6.868   0.440  1.15452E-01  4.38760E-01 -3.23308E-01
    8988.334     -6.728   0.480  1.21334E-01  4.58775E-01 -3.37441E-01
    8988.486     -6.576   0.520  1.27631E-01  4.78487E-01 -3.50856E-01
    8988.651     -6.411   0.560  1.34132E-01  4.97749E-01 -3.63617E-01
    8988.828     -6.234   0.600  1.40799E-01  5.16590E-01 -3.75791E-01
    8989.017     -6.045   0.640  1.47632E-01  5.34997E-01 -3.87366E-01
    8989.218     -5.844   0.680  1.54905E-01  5.53049E-01 -3.98145E-01
    8989.431     -5.631   0.720  1.62882E-01  5.70816E-01 -4.07935E-01
    8989.657     -5.405   0.760  1.71693E-01  5.88365E-01 -4.16672E-01
    8989.894     -5.167   0.800  1.81200E-01  6.05754E-01 -4.24554E-01
    8990.144     -4.917   0.840  1.91596E-01  6.23029E-01 -4.31433E-01
    8990.407     -4.655   0.880  2.03982E-01  6.40223E-01 -4.36240E-01
    8990.681     -4.381   0.920  2.20171E-01  6.57314E-01 -4.37143E-01
    8990.967     -4.094   0.960  2.41409E-01  6.74354E-01 -4.32944E-01
    8991.266     -3.796   1.000  2.67112E-01  6.91299E-01 -4.24187E-01
    8991.577     -3.485   1.040  2.95799E-01  7.08140E-01 -4.12341E-01
    8991.900     -3.162   1.080  3.27609E-01  7.24861E-01 -3.97252E-01
    8992.235     -2.827   1.120  3.64332E-01  7.41419E-01 -3.77087E-01
    8992.583     -2.479   1.160  4.05333E-01  7.57789E-01 -3.52456E-01
    8992.942     -2.119   1.200  4.46684E-01  7.73920E-01 -3.27237E-01
    8993.314     -1.748   1.240  4.88105E-01  7.89779E-01 -3.01674E-01
    8993.698     -1.363   1.280  5.35173E-01  8.05312E-01 -2.70140E-01
    8994.095     -0.967   1.320  5.88651E-01  8.20505E-01 -2.31854E-01
    8994.503     -0.559   1.360  6.39472E-01  8.35280E-01 -1.95808E-01
    8994.924     -0.138   1.400  6.80089E-01  8.49645E-01 -1.69556E-01
    8995.356      0.295   1.440  7.13912E-01  8.63522E-01 -1.49611E-01
    8995.801      0.740   1.480  7.43997E-01  8.76900E-01 -1.32902E-01
    8996.259      1.197   1.520  7.64067E-01  8.89765E-01 -1.25698E-01
    8996.728      1.666   1.560  7.74537E-01  9.02046E-01 -1.27509E-01
    8997.210      2.148   1.600  7.88645E-01  9.13754E-01 -1.25109E-01
    8997.703      2.642   1.640  8.16413E-01  9.24862E-01 -1.08449E-01
    8998.209      3.148   1.680  8.58942E-01  9.35365E-01 -7.64226E-02
    8998.728      3.666   1.720  9.12153E-01  9.45238E-01 -3.30844E-02
    8999.258      4.196   1.760  9.73938E-01  9.54480E-01  1.94582E-02
    8999.800      4.739   1.800  1.04688E+00  9.63112E-01  8.37629E-02
    9000.355      5.293   1.840  1.13508E+00  9.71096E-01  1.63982E-01
    9000.922      5.860   1.880  1.24072E+00  9.78476E-01  2.62244E-01
    9001.501      6.439   1.920  1.35020E+00  9.85258E-01  3.64946E-01
    9002.092      7.031   1.960  1.43398E+00  9.91428E-01  4.42551E-01
    9002.696      7.634   2.000  1.47512E+00  9.97016E-01  4.78105E-01
    9003.312      8.250   2.040  1.48093E+00  1.00205E+00  4.78885E-01
    9003.940      8.878   2.080  1.46035E+00  1.00654E+00  4.53813E-01
    9004.580      9.518   2.120  1.41446E+00  1.01050E+00  4.03962E-01
    9005.232     10.170   2.160  1.35331E+00  1.01396E+00  3.39350E-01
    9005.896     10.835   2.200  1.29517E+00  1.01695E+00  2.78219E-01
    9006.573     11.511   2.240  1.25325E+00  1.01948E+00  2.33762E-01
    9007.262     12.200   2.280  1.22405E+00  1.02160E+00  2.02449E-01
    9007.963     12.901   2.320  1.18589E+00  1.02331E+00  1.62575E-01
    9008.676     13.614   2.360  1.12952E+00  1.02467E+00  1.04857E-01
    9009.402     14.340   2.400  1.06904E+00  1.02566E+00  4.33782E-02
    9010.139     15.077   2.440  1.02130E+00  1.02633E+00 -5.03134E-03
    9010.889     15.827   2.480  9.95314E-01  1.02670E+00 -3.13902E-02
    9011.651     16.589   2.520  9.91673E-01  1.02682E+00 -3.51440E-02
    9012.425     17.363   2.560  1.00949E+00  1.02666E+00 -1.71669E-02
    9013.212     18.150   2.600  1.04233E+00  1.02631E+00  1.60222E-02
    9014.010     18.948   2.640  1.06968E+00  1.02573E+00  4.39484E-02
    9014.821     19.759   2.680  1.08712E+00  1.02501E+00  6.21165E-02
    9015.644     20.582   2.720  1.09628E+00  1.02409E+00  7.21840E-02
    9016.479     21.417   2.760  1.09796E+00  1.02307E+00  7.48884E-02
    9017.326     22.265   2.800  1.09295E+00  1.02191E+00  7.10396E-02
    9018.186     23.124   2.840  1.08260E+00  1.02067E+00  6.19300E-02
    9019.058     23.996   2.880  1.06813E+00  1.01933E+00  4.88032E-02
    9019.942     24.880   2.920  1.05062E+00  1.01791E+00  3.27016E-02
    9020.838     25.776   2.960  1.03114E+00  1.01647E+00  1.46712E-02
    9021.746     26.684   3.000  1.01093E+00  1.01499E+00 -4.05995E-03
    9022.666     27.605   3.040  9.91057E-01  1.01347E+00 -2.24128E-02
    9023.599     28.537   3.080  9.72493E-01  1.01195E+00 -3.94520E-02
    9024.544     29.482   3.120  9.55696E-01  1.01040E+00 -5.47020E-02
    9025.501     30.439   3.160  9.40752E-01  1.00890E+00 -6.81448E-02
    9026.470     31.408   3.200  9.27564E-01  1.00740E+00 -7.98410E-02
    9027.452     32.390   3.240  9.16124E-01  1.00593E+00 -8.98014E-02
    9028.445     33.384   3.280  9.06402E-01  1.00451E+00 -9.81043E-02
    9029.451     34.389   3.320  8.98319E-01  1.00311E+00 -1.04790E-01
    9030.469     35.407   3.360  8.91904E-01  1.00178E+00 -1.09874E-01
    9031.499     36.438   3.400  8.87112E-01  1.00052E+00 -1.13404E-01
    9032.542     37.480   3.440  8.83945E-01  9.99307E-01 -1.15362E-01
    9033.596     38.535   3.480  8.82524E-01  9.98171E-01 -1.15647E-01
    9034.663     39.601   3.520  8.82959E-01  9.97091E-01 -1.14132E-01
    9035.742     40.680   3.560  8.85273E-01  9.96111E-01 -1.10838E-01
    9036.833     41.772   3.600  8.89374E-01  9.95189E-01 -1.05815E-01
    9037.937     42.875   3.640  8.95153E-01  9.94369E-01 -9.92161E-02
    9039.052     43.991   3.680  9.02286E-01  9.93611E-01 -9.13254E-02
    9040.180     45.118   3.720  9.10518E-01  9.92958E-01 -8.24404E-02
    9041.320     46.258   3.760  9.19543E-01  9.92389E-01 -7.28460E-02
    9042.472     47.410   3.800  9.29041E-01  9.91903E-01 -6.28621E-02
    9043.637     48.575   3.840  9.38549E-01  9.91502E-01 -5.29532E-02
    9044.813     49.751   3.880  9.47709E-01  9.91206E-01 -4.34973E-02
    9046.002     50.940   3.920  9.56281E-01  9.90973E-01 -3.46922E-02
    9047.203     52.141   3.960  9.64355E-01  9.90846E-01 -2.64906E-02
    9048.416     53.354   4.000  9.72205E-01  9.90800E-01 -1.85951E-02
    9049.641     54.579   4.040  9.80240E-01  9.90835E-01 -1.05957E-02
    9050.879     55.817   4.080  9.88779E-01  9.90930E-01 -2.15116E-03
    9052.128     57.066   4.120  9.98016E-01  9.91126E-01  6.88975E-03
    9053.390     58.328   4.160  1.00785E+00  9.91402E-01  1.64473E-02
    9054.664     59.602   4.200  1.01792E+00  9.91736E-01  2.61829E-02
    9055.950     60.889   4.240  1.02770E+00  9.92167E-01  3.55283E-02
    9057.249     62.187   4.280  1.03662E+00  9.92650E-01  4.39679E-02
    9058.560     63.498   4.320  1.04435E+00  9.93184E-01  5.11626E-02
    9059.882     64.821   4.360  1.05085E+00  9.93790E-01  5.70624E-02
    9061.217     66.156   4.400  1.05629E+00  9.94464E-01  6.18260E-02
    9062.565     67.503   4.440  1.06078E+00  9.95163E-01  6.56193E-02
    9063.924     68.862   4.480  1.06449E+00  9.95928E-01  6.85647E-02
    9065.296     70.234   4.520  1.06756E+00  9.96734E-01  7.08242E-02
    9066.679     71.618   4.560  1.07030E+00  9.97582E-01  7.27168E-02
    9068.075     73.013   4.600  1.07296E+00  9.98468E-01  7.44964E-02
    9069.483     74.422   4.640  1.07554E+00  9.99389E-01  7.61500E-02
    9070.904     75.842   4.680  1.07765E+00  1.00032E+00  7.73242E-02
    9072.336     77.275   4.720  1.07874E+00  1.00128E+00  7.74609E-02
    9073.781     78.719   4.760  1.07831E+00  1.00225E+00  7.60603E-02
    9075.238     80.176   4.800  1.07619E+00  1.00322E+00  7.29656E-02
    9076.707     81.645   4.840  1.07258E+00  1.00422E+00  6.83561E-02
    9078.189     83.127   4.880  1.06784E+00  1.00520E+00  6.26423E-02
    9079.682     84.620   4.920  1.06249E+00  1.00619E+00  5.63057E-02
    9081.188     86.126   4.960  1.05687E+00  1.00716E+00  4.97155E-02
    9082.706     87.644   5.000  1.05113E+00  1.00811E+00  4.30145E-02
    9084.236     89.174   5.040  1.04508E+00  1.00904E+00  3.60398E-02
    9085.778     90.716   5.080  1.03830E+00  1.00996E+00  2.83425E-02
    9087.333     92.271   5.120  1.03025E+00  1.01084E+00  1.94080E-02
    9088.899     93.837   5.160  1.02058E+00  1.01171E+00  8.86846E-03
    9090.478     95.416   5.200  1.00923E+00  1.01251E+00 -3.28161E-03
    9092.069     97.007   5.240  9.96700E-01  1.01330E+00 -1.65978E-02
    9093.672     98.610   5.280  9.83801E-01  1.01402E+00 -3.02165E-02
    9095.288    100.226   5.320  9.71643E-01  1.01469E+00 -4.30483E-02
    9096.915    101.854   5.360  9.61310E-01  1.01532E+00 -5.40109E-02
    9098.555    103.493   5.400  9.53703E-01  1.01590E+00 -6.22004E-02
    9100.207    105.145   5.440  9.49475E-01  1.01642E+00 -6.69410E-02
    9101.871    106.810   5.480  9.48933E-01  1.01688E+00 -6.79461E-02
    9103.548    108.486   5.520  9.51797E-01  1.01729E+00 -6.54971E-02
    9105.236    110.175   5.560  9.57137E-01  1.01763E+00 -6.04976E-02
    9106.937    111.875   5.600  9.63732E-01  1.01790E+00 -5.41683E-02
    9108.650    113.588   5.640  9.70404E-01  1.01811E+00 -4.77087E-02
    9110.375    115.313   5.680  9.76236E-01  1.01825E+00 -4.20135E-02
    9112.113    117.051   5.720  9.80669E-01  1.01831E+00 -3.76420E-02
    9113.862    118.800   5.760  9.83489E-01  1.01832E+00 -3.48309E-02
    9115.624    120.562   5.800  9.84753E-01  1.01825E+00 -3.35006E-02
    9117.398    122.336   5.840  9.84900E-01  1.01811E+00 -3.32128E-02
    9119.184    124.122   5.880  9.84575E-01  1.01792E+00 -3.33472E-02
    9120.982    125.920   5.920  9.84303E-01  1.01766E+00 -3.33554E-02
    9122.793    127.731   5.960  9.84466E-01  1.01734E+00 -3.28729E-02
    9124.615    129.554   6.000  9.85456E-01  1.01689E+00 -3.14377E-02
