# # comment:                                                     FEFF 9.9.1  
# # Source:
# # Structure
# # Reduced
# # space
# # abc:
# # angles:104.480317
# # sites:
# # POT  SCF 100  7.0000   0, screened core-hole, AFOLP (folp(0)= 1.150)
# # Abs   Z=29 Rmt= 1.199 Rnm= 1.288 K  shell
# # Pot 1 Z= 3 Rmt= 1.246 Rnm= 1.304
# # Pot 2 Z=25 Rmt= 1.219 Rnm= 1.346
# # Pot 3 Z=29 Rmt= 1.199 Rnm= 1.288
# # Pot 4 Z= 8 Rmt= 1.033 Rnm= 1.109
# # Gam_ch=1.729E+00 H-L exch Vi= 0.000E+00 Vr= 0.000E+00
# # Mu=-1.018E+01eV kf=2.111E+00 Vint=-1.763E+01eV Rs_int= 1.718
# FMS rfms= 9.0000
# # PATH  Rmax=-1.000,  Keep_limit= 0.00, Heap_limit 0.00  Pwcrit= 2.50%
#  S02=0.950  Temp=   0.00  Debye_temp=   0.00  Global_sig2= 0.00000
#  Energy zero shift, vr, vi    0.00000E+00   0.00000E+00
#  Curved wave amplitude ratio filter   4.000%
#     file         sig2 tot  cw amp ratio   deg  nlegs   reff  inp sig2
#     0/   0 paths used
#  xsedge+ 50, used to normalize mu           2.4702E-04
#  -----------------------------------------------------------------------
#  omega    e    k    mu    mu0     chi     @#
    8984.522    -13.991  -1.000  3.04549E-02  4.97817E-02 -1.93268E-02
    8984.821    -13.692  -0.960  3.17535E-02  5.32589E-02 -2.15053E-02
    8985.107    -13.406  -0.920  3.31325E-02  5.71101E-02 -2.39776E-02
    8985.382    -13.132  -0.880  3.46011E-02  6.13893E-02 -2.67882E-02
    8985.644    -12.869  -0.840  3.61704E-02  6.61590E-02 -2.99886E-02
    8985.894    -12.620  -0.800  3.78537E-02  7.14918E-02 -3.36381E-02
    8986.132    -12.382  -0.760  3.96665E-02  7.74704E-02 -3.78039E-02
    8986.357    -12.156  -0.720  4.16268E-02  8.41884E-02 -4.25616E-02
    8986.571    -11.943  -0.680  4.37551E-02  9.17486E-02 -4.79935E-02
    8986.772    -11.742  -0.640  4.60732E-02  1.00259E-01 -5.41860E-02
    8986.961    -11.553  -0.600  4.86026E-02  1.09826E-01 -6.12233E-02
    8987.137    -11.376  -0.560  5.13617E-02  1.20539E-01 -6.91771E-02
    8987.302    -11.211  -0.520  5.43597E-02  1.32450E-01 -7.80907E-02
    8987.454    -11.059  -0.480  5.75896E-02  1.45547E-01 -8.79570E-02
    8987.595    -10.919  -0.440  6.10199E-02  1.59713E-01 -9.86933E-02
    8987.723    -10.791  -0.400  6.45876E-02  1.74707E-01 -1.10119E-01
    8987.838    -10.675  -0.360  6.81970E-02  1.90146E-01 -1.21949E-01
    8987.942    -10.571  -0.320  7.17285E-02  2.05536E-01 -1.33807E-01
    8988.034    -10.480  -0.280  7.50552E-02  2.20326E-01 -1.45270E-01
    8988.113    -10.401  -0.240  7.80636E-02  2.33984E-01 -1.55920E-01
    8988.180    -10.334  -0.200  8.06690E-02  2.46063E-01 -1.65394E-01
    8988.235    -10.279  -0.160  8.28207E-02  2.56234E-01 -1.73414E-01
    8988.277    -10.236  -0.120  8.44967E-02  2.64283E-01 -1.79786E-01
    8988.308    -10.206  -0.080  8.56919E-02  2.70086E-01 -1.84395E-01
    8988.332    -10.181   0.000  8.66468E-02  2.74754E-01 -1.88107E-01
    8988.387    -10.126   0.120  8.87559E-02  2.85288E-01 -1.96532E-01
    8988.430    -10.084   0.160  9.03348E-02  2.93472E-01 -2.03138E-01
    8988.485    -10.029   0.200  9.23063E-02  3.03964E-01 -2.11658E-01
    8988.552     -9.962   0.240  9.45646E-02  3.16620E-01 -2.22055E-01
    8988.631     -9.882   0.280  9.69854E-02  3.31189E-01 -2.34203E-01
    8988.722     -9.791   0.320  9.94195E-02  3.47356E-01 -2.47936E-01
    8988.826     -9.687   0.360  1.01696E-01  3.64699E-01 -2.63003E-01
    8988.942     -9.572   0.400  1.03628E-01  3.82723E-01 -2.79095E-01
    8989.070     -9.444   0.440  1.05154E-01  4.01055E-01 -2.95901E-01
    8989.210     -9.303   0.480  1.06323E-01  4.19335E-01 -3.13012E-01
    8989.362     -9.151   0.520  1.07393E-01  4.37359E-01 -3.29966E-01
    8989.527     -8.986   0.560  1.08738E-01  4.55014E-01 -3.46275E-01
    8989.704     -8.810   0.600  1.10829E-01  4.72309E-01 -3.61480E-01
    8989.893     -8.621   0.640  1.13973E-01  4.89250E-01 -3.75277E-01
    8990.094     -8.419   0.680  1.18362E-01  5.05911E-01 -3.87550E-01
    8990.307     -8.206   0.720  1.23753E-01  5.22357E-01 -3.98604E-01
    8990.533     -7.980   0.760  1.29653E-01  5.38649E-01 -4.08996E-01
    8990.771     -7.743   0.800  1.35566E-01  5.54841E-01 -4.19275E-01
    8991.021     -7.493   0.840  1.41684E-01  5.70996E-01 -4.29311E-01
    8991.283     -7.231   0.880  1.48961E-01  5.87144E-01 -4.38183E-01
    8991.557     -6.956   0.920  1.58707E-01  6.03284E-01 -4.44578E-01
    8991.844     -6.670   0.960  1.72109E-01  6.19426E-01 -4.47317E-01
    8992.142     -6.371   1.000  1.90363E-01  6.35569E-01 -4.45206E-01
    8992.453     -6.060   1.040  2.15379E-01  6.51705E-01 -4.36326E-01
    8992.776     -5.737   1.080  2.50763E-01  6.67819E-01 -4.17056E-01
    8993.112     -5.402   1.120  3.01107E-01  6.83873E-01 -3.82766E-01
    8993.459     -5.054   1.160  3.68515E-01  6.99861E-01 -3.31346E-01
    8993.819     -4.695   1.200  4.46450E-01  7.15716E-01 -2.69266E-01
    8994.191     -4.323   1.240  5.20819E-01  7.31426E-01 -2.10608E-01
    8994.575     -3.939   1.280  5.81603E-01  7.46940E-01 -1.65337E-01
    8994.971     -3.543   1.320  6.29224E-01  7.62224E-01 -1.33000E-01
    8995.379     -3.134   1.360  6.68374E-01  7.77263E-01 -1.08889E-01
    8995.800     -2.714   1.400  6.94921E-01  7.91981E-01 -9.70600E-02
    8996.233     -2.281   1.440  6.99529E-01  8.06364E-01 -1.06835E-01
    8996.678     -1.836   1.480  6.85880E-01  8.20356E-01 -1.34476E-01
    8997.135     -1.379   1.520  6.70867E-01  8.33964E-01 -1.63097E-01
    8997.604     -0.909   1.560  6.68733E-01  8.47117E-01 -1.78383E-01
    8998.086     -0.428   1.600  6.82877E-01  8.59821E-01 -1.76944E-01
    8998.580      0.066   1.640  7.11458E-01  8.72025E-01 -1.60566E-01
    8999.086      0.572   1.680  7.57713E-01  8.83721E-01 -1.26008E-01
    8999.604      1.090   1.720  8.29612E-01  8.94903E-01 -6.52907E-02
    9000.134      1.621   1.760  9.22069E-01  9.05543E-01  1.65262E-02
    9000.677      2.163   1.800  1.01621E+00  9.15638E-01  1.00577E-01
    9001.231      2.718   1.840  1.10749E+00  9.25165E-01  1.82323E-01
    9001.798      3.285   1.880  1.20681E+00  9.34164E-01  2.72649E-01
    9002.377      3.864   1.920  1.31321E+00  9.42575E-01  3.70634E-01
    9002.969      4.455   1.960  1.40218E+00  9.50438E-01  4.51745E-01
    9003.572      5.059   2.000  1.45673E+00  9.57758E-01  4.98976E-01
    9004.188      5.674   2.040  1.48413E+00  9.64520E-01  5.19610E-01
    9004.816      6.302   2.080  1.49812E+00  9.70769E-01  5.27356E-01
    9005.456      6.942   2.120  1.50406E+00  9.76494E-01  5.27571E-01
    9006.108      7.595   2.160  1.48636E+00  9.81721E-01  5.04643E-01
    9006.773      8.259   2.200  1.41869E+00  9.86458E-01  4.32229E-01
    9007.449      8.936   2.240  1.30243E+00  9.90735E-01  3.11696E-01
    9008.138      9.625   2.280  1.17309E+00  9.94542E-01  1.78550E-01
    9008.839     10.326   2.320  1.06292E+00  9.97948E-01  6.49760E-02
    9009.552     11.039   2.360  9.80969E-01  1.00092E+00 -1.99556E-02
    9010.278     11.764   2.400  9.25250E-01  1.00352E+00 -7.82726E-02
    9011.015     12.502   2.440  8.90655E-01  1.00573E+00 -1.15077E-01
    9011.765     13.252   2.480  8.72479E-01  1.00763E+00 -1.35147E-01
    9012.527     14.014   2.520  8.75492E-01  1.00917E+00 -1.33680E-01
    9013.301     14.788   2.560  8.99636E-01  1.01043E+00 -1.10790E-01
    9014.088     15.574   2.600  9.30567E-01  1.01142E+00 -8.08502E-02
    9014.886     16.373   2.640  9.61834E-01  1.01213E+00 -5.02998E-02
    9015.697     17.184   2.680  9.90766E-01  1.01261E+00 -2.18424E-02
    9016.520     18.007   2.720  1.01630E+00  1.01287E+00  3.43267E-03
    9017.355     18.842   2.760  1.03781E+00  1.01293E+00  2.48819E-02
    9018.203     19.689   2.800  1.05464E+00  1.01279E+00  4.18446E-02
    9019.062     20.549   2.840  1.06641E+00  1.01251E+00  5.38979E-02
    9019.934     21.420   2.880  1.07336E+00  1.01208E+00  6.12765E-02
    9020.818     22.304   2.920  1.07515E+00  1.01152E+00  6.36243E-02
    9021.714     23.200   2.960  1.07077E+00  1.01084E+00  5.99225E-02
    9022.622     24.109   3.000  1.05915E+00  1.01008E+00  4.90746E-02
    9023.543     25.029   3.040  1.03992E+00  1.00923E+00  3.06973E-02
    9024.475     25.962   3.080  1.01399E+00  1.00832E+00  5.67490E-03
    9025.420     26.907   3.120  9.83594E-01  1.00732E+00 -2.37255E-02
    9026.377     27.864   3.160  9.51725E-01  1.00630E+00 -5.45718E-02
    9027.347     28.833   3.200  9.21465E-01  1.00524E+00 -8.37722E-02
    9028.328     29.815   3.240  8.95711E-01  1.00416E+00 -1.08454E-01
    9029.322     30.808   3.280  8.76176E-01  1.00306E+00 -1.26886E-01
    9030.327     31.814   3.320  8.63520E-01  1.00196E+00 -1.38437E-01
    9031.345     32.832   3.360  8.57519E-01  1.00085E+00 -1.43332E-01
    9032.376     33.862   3.400  8.57260E-01  9.99771E-01 -1.42511E-01
    9033.418     34.905   3.440  8.61129E-01  9.98698E-01 -1.37568E-01
    9034.473     35.959   3.480  8.67697E-01  9.97636E-01 -1.29939E-01
    9035.539     37.026   3.520  8.75882E-01  9.96628E-01 -1.20746E-01
    9036.618     38.105   3.560  8.84938E-01  9.95636E-01 -1.10698E-01
    9037.710     39.196   3.600  8.94674E-01  9.94683E-01 -1.00009E-01
    9038.813     40.300   3.640  9.05092E-01  9.93793E-01 -8.87010E-02
    9039.929     41.415   3.680  9.16035E-01  9.92924E-01 -7.68884E-02
    9041.056     42.543   3.720  9.27176E-01  9.92119E-01 -6.49427E-02
    9042.196     43.683   3.760  9.38177E-01  9.91360E-01 -5.31834E-02
    9043.348     44.835   3.800  9.48953E-01  9.90669E-01 -4.17160E-02
    9044.513     45.999   3.840  9.59796E-01  9.90025E-01 -3.02296E-02
    9045.689     47.176   3.880  9.71442E-01  9.89429E-01 -1.79872E-02
    9046.878     48.365   3.920  9.84680E-01  9.88901E-01 -4.22126E-03
    9048.079     49.566   3.960  9.99735E-01  9.88421E-01  1.13133E-02
    9049.292     50.779   4.000  1.01609E+00  9.88012E-01  2.80804E-02
    9050.517     52.004   4.040  1.03253E+00  9.87652E-01  4.48824E-02
    9051.755     53.241   4.080  1.04746E+00  9.87363E-01  6.01018E-02
    9053.004     54.491   4.120  1.05918E+00  9.87144E-01  7.20343E-02
    9054.266     55.753   4.160  1.06647E+00  9.86949E-01  7.95165E-02
    9055.540     57.027   4.200  1.06904E+00  9.86823E-01  8.22162E-02
    9056.827     58.313   4.240  1.06750E+00  9.86767E-01  8.07310E-02
    9058.125     59.612   4.280  1.06304E+00  9.86755E-01  7.62843E-02
    9059.436     60.922   4.320  1.05692E+00  9.86787E-01  7.01307E-02
    9060.759     62.245   4.360  1.05001E+00  9.86861E-01  6.31471E-02
    9062.094     63.580   4.400  1.04279E+00  9.86979E-01  5.58093E-02
    9063.441     64.927   4.440  1.03571E+00  9.87161E-01  4.85452E-02
    9064.800     66.287   4.480  1.02912E+00  9.87383E-01  4.17414E-02
    9066.172     67.658   4.520  1.02344E+00  9.87622E-01  3.58219E-02
    9067.556     69.042   4.560  1.01904E+00  9.87921E-01  3.11193E-02
    9068.952     70.438   4.600  1.01596E+00  9.88233E-01  2.77256E-02
    9070.360     71.846   4.640  1.01409E+00  9.88581E-01  2.55143E-02
    9071.780     73.267   4.680  1.01335E+00  9.88961E-01  2.43921E-02
    9073.213     74.699   4.720  1.01376E+00  9.89352E-01  2.44118E-02
    9074.657     76.144   4.760  1.01546E+00  9.89772E-01  2.56836E-02
    9076.114     77.601   4.800  1.01840E+00  9.90199E-01  2.81999E-02
    9077.583     79.070   4.840  1.02227E+00  9.90631E-01  3.16430E-02
    9079.065     80.551   4.880  1.02641E+00  9.91089E-01  3.53258E-02
    9080.558     82.045   4.920  1.02989E+00  9.91550E-01  3.83355E-02
    9082.064     83.551   4.960  1.03177E+00  9.92014E-01  3.97609E-02
    9083.582     85.068   5.000  1.03143E+00  9.92476E-01  3.89550E-02
    9085.112     86.599   5.040  1.02868E+00  9.92937E-01  3.57422E-02
    9086.654     88.141   5.080  1.02381E+00  9.93396E-01  3.04142E-02
    9088.209     89.695   5.120  1.01746E+00  9.93849E-01  2.36089E-02
    9089.775     91.262   5.160  1.01029E+00  9.94273E-01  1.60177E-02
    9091.354     92.841   5.200  1.00283E+00  9.94692E-01  8.13641E-03
    9092.945     94.432   5.240  9.95188E-01  9.95101E-01  8.69880E-05
    9094.549     96.035   5.280  9.87079E-01  9.95478E-01 -8.39873E-03
    9096.164     97.651   5.320  9.78094E-01  9.95822E-01 -1.77285E-02
    9097.792     99.278   5.360  9.68152E-01  9.96156E-01 -2.80039E-02
    9099.431    100.918   5.400  9.57688E-01  9.96477E-01 -3.87892E-02
    9101.083    102.570   5.440  9.47532E-01  9.96740E-01 -4.92083E-02
    9102.748    104.234   5.480  9.38704E-01  9.96988E-01 -5.82840E-02
    9104.424    105.911   5.520  9.31932E-01  9.97200E-01 -6.52684E-02
    9106.113    107.599   5.560  9.27538E-01  9.97376E-01 -6.98378E-02
    9107.813    109.300   5.600  9.25495E-01  9.97535E-01 -7.20395E-02
    9109.526    111.013   5.640  9.25458E-01  9.97632E-01 -7.21740E-02
    9111.251    112.738   5.680  9.27081E-01  9.97713E-01 -7.06314E-02
    9112.989    114.475   5.720  9.29940E-01  9.97731E-01 -6.77917E-02
    9114.738    116.225   5.760  9.33833E-01  9.97732E-01 -6.38989E-02
    9116.500    117.987   5.800  9.38629E-01  9.97671E-01 -5.90416E-02
    9118.274    119.761   5.840  9.44400E-01  9.97596E-01 -5.31959E-02
    9120.060    121.547   5.880  9.51165E-01  9.97484E-01 -4.63187E-02
    9121.858    123.345   5.920  9.58799E-01  9.97332E-01 -3.85331E-02
    9123.669    125.156   5.960  9.66913E-01  9.97114E-01 -3.02010E-02
    9125.492    126.978   6.000  9.75336E-01  9.96859E-01 -2.15227E-02
