# # comment:                                                     FEFF 9.9.1  
# # Source:
# # Structure
# # Reduced
# # space
# # abc:
# # angles:
# # sites:
# # POT  SCF 100  7.0000   0, screened core-hole, AFOLP (folp(0)= 1.150)
# # Abs   Z=29 Rmt= 1.224 Rnm= 1.300 K  shell
# # Pot 1 Z=71 Rmt= 1.640 Rnm= 1.683
# # Pot 2 Z=22 Rmt= 1.271 Rnm= 1.397
# # Pot 3 Z=29 Rmt= 1.224 Rnm= 1.300
# # Pot 4 Z= 8 Rmt= 1.020 Rnm= 1.095
# # Gam_ch=1.729E+00 H-L exch Vi= 0.000E+00 Vr= 0.000E+00
# # Mu=-1.027E+01eV kf=2.203E+00 Vint=-1.932E+01eV Rs_int= 1.646
# FMS rfms= 9.0000
# # PATH  Rmax=-1.000,  Keep_limit= 0.00, Heap_limit 0.00  Pwcrit= 2.50%
#  S02=0.950  Temp=   0.00  Debye_temp=   0.00  Global_sig2= 0.00000
#  Energy zero shift, vr, vi    0.00000E+00   0.00000E+00
#  Curved wave amplitude ratio filter   4.000%
#     file         sig2 tot  cw amp ratio   deg  nlegs   reff  inp sig2
#     0/   0 paths used
#  xsedge+ 50, used to normalize mu           2.4923E-04
#  -----------------------------------------------------------------------
#  omega    e    k    mu    mu0     chi     @#
    8985.031    -14.077  -1.000  3.62265E-02  4.93351E-02 -1.31086E-02
    8985.330    -13.778  -0.960  3.80866E-02  5.28246E-02 -1.47380E-02
    8985.616    -13.492  -0.920  4.00782E-02  5.66962E-02 -1.66179E-02
    8985.891    -13.218  -0.880  4.22135E-02  6.10058E-02 -1.87923E-02
    8986.153    -12.955  -0.840  4.45058E-02  6.58185E-02 -2.13127E-02
    8986.403    -12.706  -0.800  4.69699E-02  7.12097E-02 -2.42398E-02
    8986.640    -12.468  -0.760  4.96217E-02  7.72658E-02 -2.76441E-02
    8986.866    -12.242  -0.720  5.24781E-02  8.40845E-02 -3.16064E-02
    8987.079    -12.029  -0.680  5.55567E-02  9.17732E-02 -3.62166E-02
    8987.281    -11.828  -0.640  5.88744E-02  1.00446E-01 -4.15711E-02
    8987.470    -11.639  -0.600  6.24462E-02  1.10213E-01 -4.77664E-02
    8987.646    -11.462  -0.560  6.62820E-02  1.21169E-01 -5.48875E-02
    8987.811    -11.297  -0.520  7.03829E-02  1.33372E-01 -6.29893E-02
    8987.963    -11.145  -0.480  7.47358E-02  1.46807E-01 -7.20716E-02
    8988.104    -11.005  -0.440  7.93076E-02  1.61358E-01 -8.20500E-02
    8988.232    -10.877  -0.400  8.40394E-02  1.76770E-01 -9.27307E-02
    8988.347    -10.761  -0.360  8.88442E-02  1.92648E-01 -1.03804E-01
    8988.451    -10.657  -0.320  9.36094E-02  2.08478E-01 -1.14869E-01
    8988.542    -10.566  -0.280  9.82051E-02  2.23687E-01 -1.25482E-01
    8988.622    -10.487  -0.240  1.02496E-01  2.37725E-01 -1.35229E-01
    8988.689    -10.420  -0.200  1.06355E-01  2.50132E-01 -1.43777E-01
    8988.744    -10.365  -0.160  1.09669E-01  2.60569E-01 -1.50900E-01
    8988.786    -10.322  -0.120  1.12350E-01  2.68821E-01 -1.56472E-01
    8988.817    -10.292  -0.080  1.14327E-01  2.74766E-01 -1.60439E-01
    8988.841    -10.267   0.000  1.15977E-01  2.79544E-01 -1.63567E-01
    8988.896    -10.212   0.120  1.19649E-01  2.90320E-01 -1.70672E-01
    8988.939    -10.170   0.160  1.22532E-01  2.98704E-01 -1.76172E-01
    8988.994    -10.115   0.200  1.26273E-01  3.09386E-01 -1.83113E-01
    8989.061    -10.048   0.240  1.30940E-01  3.22264E-01 -1.91324E-01
    8989.140     -9.968   0.280  1.36555E-01  3.37064E-01 -2.00509E-01
    8989.231     -9.877   0.320  1.43109E-01  3.53394E-01 -2.10285E-01
    8989.335     -9.773   0.360  1.50595E-01  3.70815E-01 -2.20220E-01
    8989.451     -9.658   0.400  1.58938E-01  3.88837E-01 -2.29899E-01
    8989.579     -9.530   0.440  1.67906E-01  4.06971E-01 -2.39065E-01
    8989.719     -9.389   0.480  1.77272E-01  4.24891E-01 -2.47619E-01
    8989.871     -9.237   0.520  1.86707E-01  4.42380E-01 -2.55673E-01
    8990.036     -9.072   0.560  1.95929E-01  4.59318E-01 -2.63389E-01
    8990.213     -8.896   0.600  2.04961E-01  4.75675E-01 -2.70714E-01
    8990.402     -8.707   0.640  2.14522E-01  4.91523E-01 -2.77001E-01
    8990.603     -8.505   0.680  2.26191E-01  5.06908E-01 -2.80718E-01
    8990.816     -8.292   0.720  2.42667E-01  5.21945E-01 -2.79279E-01
    8991.042     -8.067   0.760  2.67188E-01  5.36686E-01 -2.69498E-01
    8991.280     -7.829   0.800  3.02760E-01  5.51219E-01 -2.48459E-01
    8991.529     -7.579   0.840  3.50253E-01  5.65619E-01 -2.15366E-01
    8991.792     -7.317   0.880  4.05129E-01  5.79909E-01 -1.74780E-01
    8992.066     -7.042   0.920  4.56777E-01  5.94139E-01 -1.37362E-01
    8992.352     -6.756   0.960  4.97225E-01  6.08328E-01 -1.11104E-01
    8992.651     -6.457   1.000  5.29746E-01  6.22492E-01 -9.27457E-02
    8992.962     -6.146   1.040  5.60932E-01  6.36630E-01 -7.56985E-02
    8993.285     -5.823   1.080  5.90803E-01  6.50781E-01 -5.99776E-02
    8993.620     -5.488   1.120  6.18924E-01  6.64873E-01 -4.59491E-02
    8993.968     -5.140   1.160  6.51920E-01  6.78953E-01 -2.70330E-02
    8994.328     -4.781   1.200  6.86432E-01  6.92963E-01 -6.53126E-03
    8994.699     -4.409   1.240  6.90977E-01  7.06903E-01 -1.59255E-02
    8995.083     -4.025   1.280  6.45916E-01  7.20745E-01 -7.48290E-02
    8995.480     -3.629   1.320  5.81064E-01  7.34465E-01 -1.53402E-01
    8995.888     -3.220   1.360  5.33985E-01  7.48037E-01 -2.14052E-01
    8996.309     -2.800   1.400  5.23421E-01  7.61430E-01 -2.38008E-01
    8996.742     -2.367   1.440  5.58044E-01  7.74635E-01 -2.16591E-01
    8997.187     -1.922   1.480  6.32898E-01  7.87602E-01 -1.54704E-01
    8997.644     -1.465   1.520  7.17994E-01  8.00320E-01 -8.23261E-02
    8998.113     -0.995   1.560  7.83094E-01  8.12761E-01 -2.96677E-02
    8998.595     -0.514   1.600  8.28747E-01  8.24893E-01  3.85440E-03
    8999.088     -0.020   1.640  8.62047E-01  8.36706E-01  2.53404E-02
    8999.594      0.486   1.680  8.66521E-01  8.48153E-01  1.83685E-02
    9000.113      1.004   1.720  8.27914E-01  8.59264E-01 -3.13500E-02
    9000.643      1.535   1.760  7.86206E-01  8.69972E-01 -8.37654E-02
    9001.185      2.077   1.800  7.82986E-01  8.80271E-01 -9.72841E-02
    9001.740      2.632   1.840  8.10641E-01  8.90176E-01 -7.95342E-02
    9002.307      3.199   1.880  8.55046E-01  8.99661E-01 -4.46151E-02
    9002.886      3.778   1.920  9.18859E-01  9.08703E-01  1.01558E-02
    9003.478      4.369   1.960  9.97453E-01  9.17319E-01  8.01334E-02
    9004.081      4.973   2.000  1.07787E+00  9.25489E-01  1.52385E-01
    9004.697      5.588   2.040  1.14167E+00  9.33232E-01  2.08435E-01
    9005.325      6.216   2.080  1.18917E+00  9.40506E-01  2.48662E-01
    9005.965      6.856   2.120  1.23324E+00  9.47355E-01  2.85883E-01
    9006.617      7.509   2.160  1.27511E+00  9.53758E-01  3.21354E-01
    9007.281      8.173   2.200  1.31415E+00  9.59720E-01  3.54430E-01
    9007.958      8.850   2.240  1.33940E+00  9.65263E-01  3.74140E-01
    9008.647      9.539   2.280  1.33934E+00  9.70374E-01  3.68967E-01
    9009.348     10.240   2.320  1.33546E+00  9.75099E-01  3.60364E-01
    9010.061     10.953   2.360  1.34752E+00  9.79421E-01  3.68095E-01
    9010.787     11.678   2.400  1.35591E+00  9.83348E-01  3.72561E-01
    9011.524     12.416   2.440  1.32007E+00  9.86925E-01  3.33149E-01
    9012.274     13.166   2.480  1.22814E+00  9.90119E-01  2.38022E-01
    9013.036     13.928   2.520  1.11961E+00  9.92979E-01  1.26627E-01
    9013.810     14.702   2.560  1.03375E+00  9.95510E-01  3.82398E-02
    9014.597     15.488   2.600  9.83815E-01  9.97723E-01 -1.39082E-02
    9015.395     16.287   2.640  9.61870E-01  9.99645E-01 -3.77749E-02
    9016.206     17.098   2.680  9.47211E-01  1.00128E+00 -5.40716E-02
    9017.029     17.921   2.720  9.34935E-01  1.00265E+00 -6.77099E-02
    9017.864     18.756   2.760  9.26539E-01  1.00378E+00 -7.72400E-02
    9018.711     19.603   2.800  9.22108E-01  1.00465E+00 -8.25463E-02
    9019.571     20.463   2.840  9.20304E-01  1.00532E+00 -8.50144E-02
    9020.443     21.334   2.880  9.18420E-01  1.00578E+00 -8.73594E-02
    9021.327     22.218   2.920  9.14217E-01  1.00606E+00 -9.18462E-02
    9022.223     23.114   2.960  9.06788E-01  1.00616E+00 -9.93698E-02
    9023.131     24.023   3.000  8.96525E-01  1.00609E+00 -1.09567E-01
    9024.051     24.943   3.040  8.84608E-01  1.00589E+00 -1.21284E-01
    9024.984     25.876   3.080  8.72366E-01  1.00554E+00 -1.33177E-01
    9025.929     26.821   3.120  8.61539E-01  1.00509E+00 -1.43555E-01
    9026.886     27.778   3.160  8.53311E-01  1.00453E+00 -1.51221E-01
    9027.855     28.747   3.200  8.48698E-01  1.00388E+00 -1.55184E-01
    9028.837     29.729   3.240  8.48405E-01  1.00315E+00 -1.54745E-01
    9029.830     30.722   3.280  8.52373E-01  1.00234E+00 -1.49967E-01
    9030.836     31.728   3.320  8.59970E-01  1.00146E+00 -1.41487E-01
    9031.854     32.746   3.360  8.70478E-01  1.00055E+00 -1.30072E-01
    9032.885     33.776   3.400  8.83014E-01  9.99580E-01 -1.16566E-01
    9033.927     34.819   3.440  8.96348E-01  9.98593E-01 -1.02245E-01
    9034.982     35.873   3.480  9.09673E-01  9.97574E-01 -8.79007E-02
    9036.048     36.940   3.520  9.22748E-01  9.96546E-01 -7.37983E-02
    9037.127     38.019   3.560  9.35927E-01  9.95514E-01 -5.95871E-02
    9038.219     39.110   3.600  9.50056E-01  9.94458E-01 -4.44018E-02
    9039.322     40.214   3.640  9.66077E-01  9.93425E-01 -2.73483E-02
    9040.437     41.329   3.680  9.84180E-01  9.92396E-01 -8.21633E-03
    9041.565     42.457   3.720  1.00349E+00  9.91396E-01  1.20907E-02
    9042.705     43.597   3.760  1.02219E+00  9.90406E-01  3.17882E-02
    9043.857     44.749   3.800  1.03811E+00  9.89448E-01  4.86603E-02
    9045.022     45.913   3.840  1.04910E+00  9.88524E-01  6.05765E-02
    9046.198     47.090   3.880  1.05374E+00  9.87616E-01  6.61221E-02
    9047.387     48.279   3.920  1.05133E+00  9.86766E-01  6.45669E-02
    9048.588     49.479   3.960  1.04210E+00  9.85936E-01  5.61617E-02
    9049.801     50.693   4.000  1.02768E+00  9.85166E-01  4.25166E-02
    9051.026     51.918   4.040  1.01091E+00  9.84439E-01  2.64753E-02
    9052.264     53.155   4.080  9.95227E-01  9.83755E-01  1.14716E-02
    9053.513     54.405   4.120  9.83752E-01  9.83115E-01  6.36634E-04
    9054.775     55.667   4.160  9.78788E-01  9.82539E-01 -3.75112E-03
    9056.049     56.941   4.200  9.81253E-01  9.82008E-01 -7.54516E-04
    9057.335     58.227   4.240  9.90542E-01  9.81520E-01  9.02207E-03
    9058.634     59.526   4.280  1.00464E+00  9.81075E-01  2.35628E-02
    9059.945     60.836   4.320  1.02071E+00  9.80697E-01  4.00099E-02
    9061.267     62.159   4.360  1.03580E+00  9.80364E-01  5.54352E-02
    9062.602     63.494   4.400  1.04742E+00  9.80072E-01  6.73474E-02
    9063.950     64.841   4.440  1.05393E+00  9.79826E-01  7.41020E-02
    9065.309     66.201   4.480  1.05463E+00  9.79646E-01  7.49827E-02
    9066.681     67.572   4.520  1.04992E+00  9.79509E-01  7.04130E-02
    9068.064     68.956   4.560  1.04148E+00  9.79416E-01  6.20684E-02
    9069.460     70.352   4.600  1.03185E+00  9.79385E-01  5.24610E-02
    9070.869     71.760   4.640  1.02366E+00  9.79374E-01  4.42854E-02
    9072.289     73.181   4.680  1.01904E+00  9.79401E-01  3.96399E-02
    9073.721     74.613   4.720  1.01875E+00  9.79490E-01  3.92627E-02
    9075.166     76.058   4.760  1.02190E+00  9.79596E-01  4.23057E-02
    9076.623     77.515   4.800  1.02658E+00  9.79740E-01  4.68411E-02
    9078.092     78.984   4.840  1.03069E+00  9.79940E-01  5.07493E-02
    9079.574     80.465   4.880  1.03267E+00  9.80134E-01  5.25382E-02
    9081.067     81.959   4.920  1.03182E+00  9.80381E-01  5.14354E-02
    9082.573     83.465   4.960  1.02781E+00  9.80641E-01  4.71718E-02
    9084.091     84.982   5.000  1.02079E+00  9.80931E-01  3.98580E-02
    9085.621     86.513   5.040  1.01102E+00  9.81230E-01  2.97920E-02
    9087.163     88.055   5.080  9.98757E-01  9.81558E-01  1.71992E-02
    9088.718     89.609   5.120  9.84080E-01  9.81890E-01  2.19022E-03
    9090.284     91.176   5.160  9.67220E-01  9.82226E-01 -1.50057E-02
    9091.863     92.755   5.200  9.48816E-01  9.82565E-01 -3.37492E-02
    9093.454     94.346   5.240  9.29913E-01  9.82929E-01 -5.30163E-02
    9095.057     95.949   5.280  9.11705E-01  9.83294E-01 -7.15894E-02
    9096.673     97.565   5.320  8.95380E-01  9.83635E-01 -8.82550E-02
    9098.300     99.192   5.360  8.82085E-01  9.83995E-01 -1.01911E-01
    9099.940    100.832   5.400  8.72648E-01  9.84331E-01 -1.11683E-01
    9101.592    102.484   5.440  8.67707E-01  9.84662E-01 -1.16954E-01
    9103.256    104.148   5.480  8.67562E-01  9.84989E-01 -1.17426E-01
    9104.933    105.825   5.520  8.72174E-01  9.85309E-01 -1.13135E-01
    9106.621    107.513   5.560  8.81205E-01  9.85599E-01 -1.04393E-01
    9108.322    109.214   5.600  8.94273E-01  9.85857E-01 -9.15837E-02
    9110.035    110.927   5.640  9.11070E-01  9.86128E-01 -7.50581E-02
    9111.760    112.652   5.680  9.31097E-01  9.86344E-01 -5.52474E-02
    9113.498    114.389   5.720  9.53549E-01  9.86547E-01 -3.29982E-02
    9115.247    116.139   5.760  9.77047E-01  9.86718E-01 -9.67189E-03
    9117.009    117.901   5.800  1.00006E+00  9.86878E-01  1.31860E-02
    9118.783    119.675   5.840  1.02132E+00  9.87002E-01  3.43168E-02
    9120.569    121.461   5.880  1.03992E+00  9.87088E-01  5.28295E-02
    9122.367    123.259   5.920  1.05492E+00  9.87135E-01  6.77880E-02
    9124.178    125.070   5.960  1.06478E+00  9.87142E-01  7.76378E-02
    9126.001    126.892   6.000  1.06728E+00  9.87120E-01  8.01594E-02
