# # comment:                                                     FEFF 9.9.1  
# # Source:
# # Structure
# # Reduced
# # space
# # abc:
# # angles:
# # sites:
# # POT  SCF 100  7.0000   0, screened core-hole, AFOLP (folp(0)= 1.150)
# # Abs   Z=29 Rmt= 1.333 Rnm= 1.391 K  shell
# # Pot 1 Z= 3 Rmt= 1.242 Rnm= 1.301
# # Pot 2 Z=29 Rmt= 1.334 Rnm= 1.391
# # Pot 3 Z=15 Rmt= 0.944 Rnm= 1.153
# # Pot 4 Z= 8 Rmt= 0.939 Rnm= 1.040
# # Gam_ch=1.729E+00 H-L exch Vi= 0.000E+00 Vr= 0.000E+00
# # Mu=-6.828E+00eV kf=2.366E+00 Vint=-1.794E+01eV Rs_int= 1.533
# FMS rfms= 9.0000
# # PATH  Rmax=-1.000,  Keep_limit= 0.00, Heap_limit 0.00  Pwcrit= 2.50%
#  S02=0.950  Temp=   0.00  Debye_temp=   0.00  Global_sig2= 0.00000
#  Energy zero shift, vr, vi    0.00000E+00   0.00000E+00
#  Curved wave amplitude ratio filter   4.000%
#     file         sig2 tot  cw amp ratio   deg  nlegs   reff  inp sig2
#     0/   0 paths used
#  xsedge+ 50, used to normalize mu           2.4672E-04
#  -----------------------------------------------------------------------
#  omega    e    k    mu    mu0     chi     @#
    8983.981    -10.637  -1.000  5.24853E-02  5.54109E-02 -2.92550E-03
    8984.279    -10.339  -0.960  5.61406E-02  5.94859E-02 -3.34536E-03
    8984.566    -10.052  -0.920  6.01939E-02  6.40201E-02 -3.82612E-03
    8984.840     -9.778  -0.880  6.47044E-02  6.90815E-02 -4.37716E-03
    8985.102     -9.516  -0.840  6.97405E-02  7.47500E-02 -5.00946E-03
    8985.352     -9.266  -0.800  7.53817E-02  8.11176E-02 -5.73596E-03
    8985.590     -9.028  -0.760  8.17188E-02  8.82906E-02 -6.57174E-03
    8985.816     -8.803  -0.720  8.88546E-02  9.63888E-02 -7.53418E-03
    8986.029     -8.589  -0.680  9.69017E-02  1.05545E-01 -8.64286E-03
    8986.230     -8.388  -0.640  1.05979E-01  1.15898E-01 -9.91889E-03
    8986.419     -8.199  -0.600  1.16202E-01  1.27586E-01 -1.13833E-02
    8986.596     -8.022  -0.560  1.27672E-01  1.40726E-01 -1.30541E-02
    8986.761     -7.858  -0.520  1.40449E-01  1.55390E-01 -1.49412E-02
    8986.913     -7.705  -0.480  1.54523E-01  1.71562E-01 -1.70392E-02
    8987.053     -7.565  -0.440  1.69781E-01  1.89101E-01 -1.93201E-02
    8987.181     -7.437  -0.400  1.85972E-01  2.07698E-01 -2.17264E-02
    8987.297     -7.321  -0.360  2.02699E-01  2.26871E-01 -2.41717E-02
    8987.401     -7.218  -0.320  2.19439E-01  2.45989E-01 -2.65501E-02
    8987.492     -7.126  -0.280  2.35602E-01  2.64357E-01 -2.87543E-02
    8987.571     -7.047  -0.240  2.50608E-01  2.81304E-01 -3.06961E-02
    8987.638     -6.980  -0.200  2.63952E-01  2.96273E-01 -3.23207E-02
    8987.693     -6.925  -0.160  2.75247E-01  3.08856E-01 -3.36088E-02
    8987.736     -6.882  -0.120  2.84226E-01  3.18797E-01 -3.45713E-02
    8987.766     -6.852  -0.080  2.90719E-01  3.25955E-01 -3.52355E-02
    8987.791     -6.828   0.000  2.95936E-01  3.31703E-01 -3.57669E-02
    8987.846     -6.773   0.120  3.07733E-01  3.44641E-01 -3.69081E-02
    8987.888     -6.730   0.160  3.17034E-01  3.54711E-01 -3.76769E-02
    8987.943     -6.675   0.200  3.28999E-01  3.67525E-01 -3.85263E-02
    8988.010     -6.608   0.240  3.43607E-01  3.82935E-01 -3.93276E-02
    8988.089     -6.529   0.280  3.60659E-01  4.00572E-01 -3.99135E-02
    8988.181     -6.437   0.320  3.79903E-01  4.19983E-01 -4.00797E-02
    8988.285     -6.334   0.360  4.01011E-01  4.40582E-01 -3.95700E-02
    8988.400     -6.218   0.400  4.23580E-01  4.61727E-01 -3.81474E-02
    8988.528     -6.090   0.440  4.47192E-01  4.82854E-01 -3.56624E-02
    8988.669     -5.950   0.480  4.71269E-01  5.03503E-01 -3.22344E-02
    8988.821     -5.797   0.520  4.94886E-01  5.23419E-01 -2.85324E-02
    8988.986     -5.633   0.560  5.16431E-01  5.42455E-01 -2.60241E-02
    8989.162     -5.456   0.600  5.33728E-01  5.60581E-01 -2.68527E-02
    8989.351     -5.267   0.640  5.44642E-01  5.77862E-01 -3.32203E-02
    8989.553     -5.066   0.680  5.47795E-01  5.94386E-01 -4.65910E-02
    8989.766     -4.852   0.720  5.42750E-01  6.10295E-01 -6.75450E-02
    8989.991     -4.627   0.760  5.29415E-01  6.25647E-01 -9.62312E-02
    8990.229     -4.389   0.800  5.08646E-01  6.40596E-01 -1.31949E-01
    8990.479     -4.139   0.840  4.83619E-01  6.55179E-01 -1.71560E-01
    8990.741     -3.877   0.880  4.60665E-01  6.69478E-01 -2.08813E-01
    8991.016     -3.603   0.920  4.47535E-01  6.83563E-01 -2.36028E-01
    8991.302     -3.316   0.960  4.50152E-01  6.97471E-01 -2.47319E-01
    8991.601     -3.018   1.000  4.69570E-01  7.11224E-01 -2.41655E-01
    8991.912     -2.707   1.040  5.00869E-01  7.24838E-01 -2.23970E-01
    8992.235     -2.384   1.080  5.35879E-01  7.38318E-01 -2.02439E-01
    8992.570     -2.048   1.120  5.68128E-01  7.51684E-01 -1.83556E-01
    8992.917     -1.701   1.160  5.94517E-01  7.64907E-01 -1.70390E-01
    8993.277     -1.341   1.200  6.16362E-01  7.77997E-01 -1.61635E-01
    8993.649     -0.969   1.240  6.41078E-01  7.90937E-01 -1.49859E-01
    8994.033     -0.585   1.280  6.79699E-01  8.03689E-01 -1.23990E-01
    8994.429     -0.189   1.320  7.41975E-01  8.16270E-01 -7.42946E-02
    8994.838      0.219   1.360  8.31278E-01  8.28616E-01  2.66200E-03
    8995.258      0.640   1.400  9.37156E-01  8.40744E-01  9.64120E-02
    8995.691      1.073   1.440  1.03356E+00  8.52624E-01  1.80938E-01
    8996.136      1.518   1.480  1.10037E+00  8.64211E-01  2.36160E-01
    8996.593      1.975   1.520  1.14765E+00  8.75497E-01  2.72149E-01
    8997.063      2.444   1.560  1.19845E+00  8.86474E-01  3.11976E-01
    8997.544      2.926   1.600  1.26345E+00  8.97094E-01  3.66354E-01
    8998.038      3.420   1.640  1.33030E+00  9.07349E-01  4.22956E-01
    8998.544      3.926   1.680  1.38473E+00  9.17232E-01  4.67494E-01
    8999.062      4.444   1.720  1.42912E+00  9.26696E-01  5.02425E-01
    8999.593      4.974   1.760  1.44977E+00  9.35757E-01  5.14011E-01
    9000.135      5.517   1.800  1.41358E+00  9.44388E-01  4.69191E-01
    9000.690      6.072   1.840  1.32141E+00  9.52587E-01  3.68820E-01
    9001.257      6.638   1.880  1.22067E+00  9.60349E-01  2.60318E-01
    9001.836      7.218   1.920  1.14309E+00  9.67632E-01  1.75456E-01
    9002.427      7.809   1.960  1.09482E+00  9.74476E-01  1.20340E-01
    9003.031      8.412   2.000  1.06831E+00  9.80861E-01  8.74440E-02
    9003.646      9.028   2.040  1.05709E+00  9.86809E-01  7.02794E-02
    9004.274      9.656   2.080  1.05633E+00  9.92279E-01  6.40541E-02
    9004.914     10.296   2.120  1.05859E+00  9.97316E-01  6.12712E-02
    9005.567     10.948   2.160  1.05518E+00  1.00188E+00  5.33014E-02
    9006.231     11.613   2.200  1.03907E+00  1.00604E+00  3.30288E-02
    9006.908     12.289   2.240  1.01123E+00  1.00977E+00  1.46363E-03
    9007.597     12.978   2.280  9.82790E-01  1.01307E+00 -3.02845E-02
    9008.298     13.679   2.320  9.63553E-01  1.01600E+00 -5.24432E-02
    9009.011     14.393   2.360  9.53117E-01  1.01852E+00 -6.54023E-02
    9009.736     15.118   2.400  9.44546E-01  1.02069E+00 -7.61471E-02
    9010.474     15.856   2.440  9.32180E-01  1.02250E+00 -9.03238E-02
    9011.224     16.605   2.480  9.17102E-01  1.02396E+00 -1.06857E-01
    9011.986     17.367   2.520  9.04847E-01  1.02511E+00 -1.20263E-01
    9012.760     18.142   2.560  8.99451E-01  1.02596E+00 -1.26514E-01
    9013.546     18.928   2.600  9.03470E-01  1.02654E+00 -1.23065E-01
    9014.345     19.727   2.640  9.20248E-01  1.02683E+00 -1.06579E-01
    9015.156     20.537   2.680  9.50215E-01  1.02687E+00 -7.66572E-02
    9015.979     21.360   2.720  9.84760E-01  1.02670E+00 -4.19405E-02
    9016.814     22.195   2.760  1.00589E+00  1.02632E+00 -2.04357E-02
    9017.661     23.043   2.800  1.00575E+00  1.02576E+00 -2.00163E-02
    9018.521     23.902   2.840  9.96342E-01  1.02502E+00 -2.86756E-02
    9019.392     24.774   2.880  9.87013E-01  1.02411E+00 -3.70968E-02
    9020.276     25.658   2.920  9.80884E-01  1.02307E+00 -4.21852E-02
    9021.172     26.554   2.960  9.76678E-01  1.02191E+00 -4.52286E-02
    9022.081     27.462   3.000  9.72672E-01  1.02065E+00 -4.79766E-02
    9023.001     28.383   3.040  9.67988E-01  1.01928E+00 -5.12961E-02
    9023.934     29.316   3.080  9.62672E-01  1.01786E+00 -5.51887E-02
    9024.879     30.260   3.120  9.57156E-01  1.01637E+00 -5.92094E-02
    9025.836     31.217   3.160  9.52043E-01  1.01485E+00 -6.28038E-02
    9026.805     32.187   3.200  9.47633E-01  1.01327E+00 -6.56354E-02
    9027.786     33.168   3.240  9.44267E-01  1.01168E+00 -6.74107E-02
    9028.780     34.162   3.280  9.41980E-01  1.01008E+00 -6.81024E-02
    9029.786     35.168   3.320  9.40689E-01  1.00848E+00 -6.77953E-02
    9030.804     36.186   3.360  9.40420E-01  1.00689E+00 -6.64710E-02
    9031.834     37.216   3.400  9.41478E-01  1.00533E+00 -6.38490E-02
    9032.877     38.258   3.440  9.44198E-01  1.00377E+00 -5.95770E-02
    9033.931     39.313   3.480  9.48855E-01  1.00228E+00 -5.34270E-02
    9034.998     40.380   3.520  9.55482E-01  1.00081E+00 -4.53290E-02
    9036.077     41.459   3.560  9.64122E-01  9.99405E-01 -3.52829E-02
    9037.168     42.550   3.600  9.74893E-01  9.98069E-01 -2.31762E-02
    9038.272     43.653   3.640  9.87995E-01  9.96784E-01 -8.78883E-03
    9039.387     44.769   3.680  1.00357E+00  9.95551E-01  8.01435E-03
    9040.515     45.897   3.720  1.02134E+00  9.94415E-01  2.69215E-02
    9041.655     47.037   3.760  1.04047E+00  9.93357E-01  4.71118E-02
    9042.807     48.189   3.800  1.05974E+00  9.92358E-01  6.73867E-02
    9043.971     49.353   3.840  1.07774E+00  9.91461E-01  8.62825E-02
    9045.148     50.530   3.880  1.09307E+00  9.90623E-01  1.02444E-01
    9046.337     51.718   3.920  1.10483E+00  9.89888E-01  1.14946E-01
    9047.537     52.919   3.960  1.11242E+00  9.89238E-01  1.23181E-01
    9048.751     54.132   4.000  1.11534E+00  9.88673E-01  1.26670E-01
    9049.976     55.358   4.040  1.11348E+00  9.88210E-01  1.25266E-01
    9051.213     56.595   4.080  1.10699E+00  9.87810E-01  1.19178E-01
    9052.463     57.845   4.120  1.09659E+00  9.87513E-01  1.09073E-01
    9053.725     59.107   4.160  1.08328E+00  9.87277E-01  9.59989E-02
    9054.999     60.381   4.200  1.06836E+00  9.87143E-01  8.12147E-02
    9056.285     61.667   4.240  1.05293E+00  9.87091E-01  6.58368E-02
    9057.584     62.965   4.280  1.03787E+00  9.87120E-01  5.07471E-02
    9058.894     64.276   4.320  1.02365E+00  9.87226E-01  3.64188E-02
    9060.217     65.599   4.360  1.01021E+00  9.87388E-01  2.28206E-02
    9061.552     66.934   4.400  9.97229E-01  9.87647E-01  9.58209E-03
    9062.899     68.281   4.440  9.84234E-01  9.87958E-01 -3.72338E-03
    9064.259     69.640   4.480  9.70918E-01  9.88318E-01 -1.73996E-02
    9065.630     71.012   4.520  9.57361E-01  9.88748E-01 -3.13874E-02
    9067.014     72.396   4.560  9.44060E-01  9.89247E-01 -4.51868E-02
    9068.410     73.792   4.600  9.31730E-01  9.89768E-01 -5.80372E-02
    9069.818     75.200   4.640  9.21259E-01  9.90353E-01 -6.90937E-02
    9071.239     76.620   4.680  9.13400E-01  9.90977E-01 -7.75763E-02
    9072.671     78.053   4.720  9.08597E-01  9.91615E-01 -8.30174E-02
    9074.116     79.498   4.760  9.07107E-01  9.92288E-01 -8.51811E-02
    9075.573     80.955   4.800  9.08945E-01  9.92994E-01 -8.40490E-02
    9077.042     82.424   4.840  9.13894E-01  9.93730E-01 -7.98361E-02
    9078.523     83.905   4.880  9.21507E-01  9.94451E-01 -7.29433E-02
    9080.017     85.398   4.920  9.31236E-01  9.95195E-01 -6.39589E-02
    9081.522     86.904   4.960  9.42307E-01  9.95939E-01 -5.36317E-02
    9083.040     88.422   5.000  9.53981E-01  9.96680E-01 -4.26986E-02
    9084.570     89.952   5.040  9.65591E-01  9.97394E-01 -3.18035E-02
    9086.113     91.494   5.080  9.76754E-01  9.98101E-01 -2.13471E-02
    9087.667     93.049   5.120  9.87344E-01  9.98799E-01 -1.14554E-02
    9089.234     94.616   5.160  9.97351E-01  9.99463E-01 -2.11124E-03
    9090.813     96.194   5.200  1.00669E+00  1.00009E+00  6.59755E-03
    9092.404     97.786   5.240  1.01501E+00  1.00070E+00  1.43068E-02
    9094.007     99.389   5.280  1.02169E+00  1.00125E+00  2.04381E-02
    9095.622    101.004   5.320  1.02619E+00  1.00178E+00  2.44016E-02
    9097.250    102.632   5.360  1.02803E+00  1.00225E+00  2.57833E-02
    9098.890    104.272   5.400  1.02712E+00  1.00267E+00  2.44507E-02
    9100.542    105.924   5.440  1.02367E+00  1.00304E+00  2.06262E-02
    9102.206    107.588   5.480  1.01838E+00  1.00337E+00  1.50035E-02
    9103.883    109.264   5.520  1.01233E+00  1.00363E+00  8.70390E-03
    9105.571    110.953   5.560  1.00679E+00  1.00381E+00  2.97471E-03
    9107.272    112.654   5.600  1.00276E+00  1.00394E+00 -1.18910E-03
    9108.985    114.367   5.640  1.00074E+00  1.00403E+00 -3.29211E-03
    9110.710    116.092   5.680  1.00064E+00  1.00404E+00 -3.40334E-03
    9112.447    117.829   5.720  1.00190E+00  1.00397E+00 -2.06922E-03
    9114.197    119.579   5.760  1.00376E+00  1.00383E+00 -7.16191E-05
    9115.959    121.340   5.800  1.00557E+00  1.00365E+00  1.92267E-03
    9117.733    123.114   5.840  1.00708E+00  1.00341E+00  3.66514E-03
    9119.519    124.900   5.880  1.00846E+00  1.00311E+00  5.35426E-03
    9121.317    126.699   5.920  1.01013E+00  1.00273E+00  7.39885E-03
    9123.127    128.509   5.960  1.01240E+00  1.00231E+00  1.00887E-02
    9124.950    130.332   6.000  1.01525E+00  1.00177E+00  1.34779E-02
