# # comment:                                                     FEFF 9.9.1  
# # Source:
# # Structure
# # Reduced
# # space
# # abc:
# # angles:
# # sites:
# # POT  SCF 100  7.0000   0, screened core-hole, AFOLP (folp(0)= 1.150)
# # Abs   Z=29 Rmt= 1.090 Rnm= 1.257 K  shell
# # Pot 1 Z=19 Rmt= 2.005 Rnm= 2.062
# # Pot 2 Z=29 Rmt= 1.091 Rnm= 1.258
# # Pot 3 Z=17 Rmt= 1.494 Rnm= 1.558
# # Pot 4 Z= 8 Rmt= 0.971 Rnm= 1.167
# # Gam_ch=1.729E+00 H-L exch Vi= 0.000E+00 Vr= 0.000E+00
# # Mu=-7.860E+00eV kf=1.733E+00 Vint=-1.128E+01eV Rs_int= 2.092
# FMS rfms= 9.0000
# # PATH  Rmax=-1.000,  Keep_limit= 0.00, Heap_limit 0.00  Pwcrit= 2.50%
#  S02=0.950  Temp=   0.00  Debye_temp=   0.00  Global_sig2= 0.00000
#  Energy zero shift, vr, vi    0.00000E+00   0.00000E+00
#  Curved wave amplitude ratio filter   4.000%
#     file         sig2 tot  cw amp ratio   deg  nlegs   reff  inp sig2
#     0/   0 paths used
#  xsedge+ 50, used to normalize mu           2.3883E-04
#  -----------------------------------------------------------------------
#  omega    e    k    mu    mu0     chi     @#
    8983.758    -11.670  -1.000  2.99500E-02  5.12860E-02 -2.13360E-02
    8984.056    -11.371  -0.960  3.10469E-02  5.45341E-02 -2.34872E-02
    8984.343    -11.085  -0.920  3.21862E-02  5.80862E-02 -2.59000E-02
    8984.617    -10.811  -0.880  3.33697E-02  6.19808E-02 -2.86111E-02
    8984.879    -10.548  -0.840  3.45993E-02  6.62622E-02 -3.16628E-02
    8985.129    -10.299  -0.800  3.58770E-02  7.09806E-02 -3.51035E-02
    8985.367    -10.061  -0.760  3.72050E-02  7.61928E-02 -3.89878E-02
    8985.593     -9.835  -0.720  3.85855E-02  8.19619E-02 -4.33765E-02
    8985.806     -9.622  -0.680  4.00207E-02  8.83564E-02 -4.83357E-02
    8986.007     -9.421  -0.640  4.15126E-02  9.54468E-02 -5.39342E-02
    8986.196     -9.232  -0.600  4.30624E-02  1.03301E-01 -6.02383E-02
    8986.373     -9.055  -0.560  4.46697E-02  1.11973E-01 -6.73032E-02
    8986.537     -8.890  -0.520  4.63317E-02  1.21492E-01 -7.51599E-02
    8986.690     -8.738  -0.480  4.80418E-02  1.31838E-01 -8.37963E-02
    8986.830     -8.598  -0.440  4.97876E-02  1.42925E-01 -9.31371E-02
    8986.958     -8.470  -0.400  5.15503E-02  1.54575E-01 -1.03025E-01
    8987.074     -8.354  -0.360  5.33038E-02  1.66518E-01 -1.13215E-01
    8987.177     -8.250  -0.320  5.50162E-02  1.78403E-01 -1.23386E-01
    8987.269     -8.159  -0.280  5.66520E-02  1.89833E-01 -1.33181E-01
    8987.348     -8.080  -0.240  5.81756E-02  2.00422E-01 -1.42246E-01
    8987.415     -8.013  -0.200  5.95530E-02  2.09832E-01 -1.50279E-01
    8987.470     -7.958  -0.160  6.07534E-02  2.17799E-01 -1.57046E-01
    8987.513     -7.915  -0.120  6.17525E-02  2.24140E-01 -1.62388E-01
    8987.543     -7.885  -0.080  6.25338E-02  2.28738E-01 -1.66204E-01
    8987.568     -7.860   0.000  6.33138E-02  2.32457E-01 -1.69143E-01
    8987.622     -7.805   0.120  6.51792E-02  2.40882E-01 -1.75703E-01
    8987.665     -7.763   0.160  6.63719E-02  2.47499E-01 -1.81127E-01
    8987.720     -7.708   0.200  6.78058E-02  2.56054E-01 -1.88248E-01
    8987.787     -7.641   0.240  6.94508E-02  2.66523E-01 -1.97072E-01
    8987.866     -7.561   0.280  7.12968E-02  2.78837E-01 -2.07540E-01
    8987.958     -7.470   0.320  7.33170E-02  2.92856E-01 -2.19539E-01
    8988.061     -7.366   0.360  7.54956E-02  3.08395E-01 -2.32899E-01
    8988.177     -7.251   0.400  7.78167E-02  3.25245E-01 -2.47428E-01
    8988.305     -7.123   0.440  8.02746E-02  3.43213E-01 -2.62939E-01
    8988.445     -6.982   0.480  8.28626E-02  3.62147E-01 -2.79284E-01
    8988.598     -6.830   0.520  8.55762E-02  3.81966E-01 -2.96390E-01
    8988.762     -6.665   0.560  8.84351E-02  4.02610E-01 -3.14175E-01
    8988.939     -6.489   0.600  9.14938E-02  4.24094E-01 -3.32601E-01
    8989.128     -6.300   0.640  9.48608E-02  4.46424E-01 -3.51564E-01
    8989.329     -6.098   0.680  9.86926E-02  4.69636E-01 -3.70943E-01
    8989.543     -5.885   0.720  1.03118E-01  4.93742E-01 -3.90624E-01
    8989.768     -5.659   0.760  1.08286E-01  5.18727E-01 -4.10441E-01
    8990.006     -5.422   0.800  1.14460E-01  5.44606E-01 -4.30146E-01
    8990.256     -5.172   0.840  1.21847E-01  5.71320E-01 -4.49473E-01
    8990.518     -4.910   0.880  1.30805E-01  5.98814E-01 -4.68009E-01
    8990.792     -4.635   0.920  1.41810E-01  6.26999E-01 -4.85189E-01
    8991.079     -4.349   0.960  1.55618E-01  6.55776E-01 -5.00159E-01
    8991.378     -4.050   1.000  1.73367E-01  6.85055E-01 -5.11688E-01
    8991.689     -3.739   1.040  1.96639E-01  7.14649E-01 -5.18009E-01
    8992.012     -3.416   1.080  2.27895E-01  7.44471E-01 -5.16577E-01
    8992.347     -3.081   1.120  2.69949E-01  7.74301E-01 -5.04353E-01
    8992.694     -2.733   1.160  3.25395E-01  8.03997E-01 -4.78602E-01
    8993.054     -2.374   1.200  3.93699E-01  8.33413E-01 -4.39714E-01
    8993.426     -2.002   1.240  4.66603E-01  8.62320E-01 -3.95717E-01
    8993.810     -1.618   1.280  5.29543E-01  8.90593E-01 -3.61050E-01
    8994.206     -1.222   1.320  5.78713E-01  9.18049E-01 -3.39337E-01
    8994.615     -0.813   1.360  6.34018E-01  9.44550E-01 -3.10532E-01
    8995.035     -0.393   1.400  7.15810E-01  9.69940E-01 -2.54130E-01
    8995.468      0.040   1.440  8.10918E-01  9.94076E-01 -1.83158E-01
    8995.913      0.485   1.480  8.87996E-01  1.01688E+00 -1.28885E-01
    8996.370      0.942   1.520  9.21894E-01  1.03825E+00 -1.16355E-01
    8996.840      1.412   1.560  9.10488E-01  1.05808E+00 -1.47592E-01
    8997.321      1.893   1.600  8.80146E-01  1.07637E+00 -1.96223E-01
    8997.815      2.387   1.640  8.58760E-01  1.09306E+00 -2.34298E-01
    8998.321      2.893   1.680  8.54864E-01  1.10814E+00 -2.53277E-01
    8998.839      3.411   1.720  8.73811E-01  1.12160E+00 -2.47786E-01
    8999.369      3.942   1.760  9.25067E-01  1.13348E+00 -2.08411E-01
    8999.912      4.484   1.800  9.99558E-01  1.14378E+00 -1.44220E-01
    9000.467      5.039   1.840  1.05568E+00  1.15257E+00 -9.68909E-02
    9001.034      5.606   1.880  1.05896E+00  1.15991E+00 -1.00955E-01
    9001.613      6.185   1.920  1.02899E+00  1.16587E+00 -1.36873E-01
    9002.204      6.776   1.960  1.00733E+00  1.17049E+00 -1.63162E-01
    9002.808      7.380   2.000  1.01621E+00  1.17388E+00 -1.57676E-01
    9003.423      7.995   2.040  1.05232E+00  1.17611E+00 -1.23791E-01
    9004.051      8.623   2.080  1.09860E+00  1.17727E+00 -7.86722E-02
    9004.691      9.263   2.120  1.15061E+00  1.17743E+00 -2.68186E-02
    9005.343      9.916   2.160  1.20514E+00  1.17670E+00  2.84417E-02
    9006.008     10.580   2.200  1.24819E+00  1.17513E+00  7.30586E-02
    9006.685     11.257   2.240  1.28098E+00  1.17284E+00  1.08140E-01
    9007.373     11.946   2.280  1.30955E+00  1.16985E+00  1.39693E-01
    9008.074     12.647   2.320  1.33812E+00  1.16630E+00  1.71825E-01
    9008.788     13.360   2.360  1.36845E+00  1.16221E+00  2.06236E-01
    9009.513     14.085   2.400  1.39807E+00  1.15769E+00  2.40378E-01
    9010.251     14.823   2.440  1.42038E+00  1.15276E+00  2.67620E-01
    9011.001     15.573   2.480  1.42797E+00  1.14752E+00  2.80456E-01
    9011.763     16.335   2.520  1.41716E+00  1.14199E+00  2.75171E-01
    9012.537     17.109   2.560  1.38950E+00  1.13622E+00  2.53277E-01
    9013.323     17.895   2.600  1.35153E+00  1.13030E+00  2.21231E-01
    9014.122     18.694   2.640  1.31173E+00  1.12425E+00  1.87481E-01
    9014.932     19.505   2.680  1.27651E+00  1.11810E+00  1.58411E-01
    9015.755     20.328   2.720  1.24909E+00  1.11189E+00  1.37200E-01
    9016.591     21.163   2.760  1.22896E+00  1.10564E+00  1.23320E-01
    9017.438     22.010   2.800  1.21412E+00  1.09942E+00  1.14696E-01
    9018.297     22.870   2.840  1.20205E+00  1.09322E+00  1.08835E-01
    9019.169     23.741   2.880  1.19058E+00  1.08707E+00  1.03509E-01
    9020.053     24.625   2.920  1.17795E+00  1.08102E+00  9.69307E-02
    9020.949     25.521   2.960  1.16296E+00  1.07506E+00  8.79066E-02
    9021.857     26.430   3.000  1.14522E+00  1.06920E+00  7.60135E-02
    9022.778     27.350   3.040  1.12514E+00  1.06349E+00  6.16592E-02
    9023.711     28.283   3.080  1.10374E+00  1.05790E+00  4.58369E-02
    9024.656     29.228   3.120  1.08209E+00  1.05250E+00  2.95847E-02
    9025.613     30.185   3.160  1.06068E+00  1.04724E+00  1.34381E-02
    9026.582     31.154   3.200  1.03980E+00  1.04216E+00 -2.35892E-03
    9027.563     32.136   3.240  1.01951E+00  1.03726E+00 -1.77527E-02
    9028.557     33.129   3.280  9.99893E-01  1.03257E+00 -3.26781E-02
    9029.563     34.135   3.320  9.81201E-01  1.02807E+00 -4.68659E-02
    9030.581     35.153   3.360  9.63801E-01  1.02376E+00 -5.99603E-02
    9031.611     36.183   3.400  9.47845E-01  1.01966E+00 -7.18165E-02
    9032.653     37.226   3.440  9.33435E-01  1.01577E+00 -8.23347E-02
    9033.708     38.280   3.480  9.20661E-01  1.01208E+00 -9.14242E-02
    9034.775     39.347   3.520  9.10036E-01  1.00865E+00 -9.86092E-02
    9035.854     40.426   3.560  9.01971E-01  1.00539E+00 -1.03418E-01
    9036.945     41.517   3.600  8.96605E-01  1.00233E+00 -1.05728E-01
    9038.048     42.621   3.640  8.93704E-01  9.99522E-01 -1.05818E-01
    9039.164     43.736   3.680  8.92571E-01  9.96917E-01 -1.04347E-01
    9040.292     44.864   3.720  8.92525E-01  9.94497E-01 -1.01972E-01
    9041.432     46.004   3.760  8.93356E-01  9.92316E-01 -9.89601E-02
    9042.584     47.156   3.800  8.95376E-01  9.90341E-01 -9.49645E-02
    9043.748     48.320   3.840  8.98992E-01  9.88569E-01 -8.95770E-02
    9044.925     49.497   3.880  9.04178E-01  9.87007E-01 -8.28285E-02
    9046.113     50.686   3.920  9.10432E-01  9.85637E-01 -7.52053E-02
    9047.314     51.887   3.960  9.17019E-01  9.84483E-01 -6.74640E-02
    9048.527     53.100   4.000  9.22989E-01  9.83508E-01 -6.05193E-02
    9049.753     54.325   4.040  9.27719E-01  9.82719E-01 -5.49996E-02
    9050.990     55.562   4.080  9.31135E-01  9.82146E-01 -5.10102E-02
    9052.240     56.812   4.120  9.33779E-01  9.81727E-01 -4.79482E-02
    9053.502     58.074   4.160  9.36706E-01  9.81502E-01 -4.47951E-02
    9054.776     59.348   4.200  9.40893E-01  9.81448E-01 -4.05546E-02
    9056.062     60.634   4.240  9.47083E-01  9.81564E-01 -3.44810E-02
    9057.360     61.933   4.280  9.55941E-01  9.81869E-01 -2.59281E-02
    9058.671     63.243   4.320  9.68014E-01  9.82314E-01 -1.43000E-02
    9059.994     64.566   4.360  9.83658E-01  9.82896E-01  7.62976E-04
    9061.329     65.901   4.400  1.00269E+00  9.83634E-01  1.90578E-02
    9062.676     67.248   4.440  1.02424E+00  9.84529E-01  3.97090E-02
    9064.036     68.608   4.480  1.04690E+00  9.85552E-01  6.13461E-02
    9065.407     69.979   4.520  1.06920E+00  9.86679E-01  8.25221E-02
    9066.791     71.363   4.560  1.08981E+00  9.87949E-01  1.01861E-01
    9068.187     72.759   4.600  1.10704E+00  9.89318E-01  1.17720E-01
    9069.595     74.167   4.640  1.11868E+00  9.90805E-01  1.27880E-01
    9071.015     75.588   4.680  1.12249E+00  9.92404E-01  1.30082E-01
    9072.448     77.020   4.720  1.11721E+00  9.94065E-01  1.23143E-01
    9073.893     78.465   4.760  1.10339E+00  9.95810E-01  1.07584E-01
    9075.350     79.922   4.800  1.08324E+00  9.97656E-01  8.55869E-02
    9076.819     81.391   4.840  1.05960E+00  9.99531E-01  6.00653E-02
    9078.300     82.872   4.880  1.03501E+00  1.00148E+00  3.35277E-02
    9079.794     84.366   4.920  1.01088E+00  1.00349E+00  7.39173E-03
    9081.299     85.872   4.960  9.87939E-01  1.00552E+00 -1.75853E-02
    9082.817     87.389   5.000  9.67089E-01  1.00759E+00 -4.05027E-02
    9084.347     88.920   5.040  9.49836E-01  1.00967E+00 -5.98331E-02
    9085.890     90.462   5.080  9.38145E-01  1.01177E+00 -7.36287E-02
    9087.444     92.016   5.120  9.33822E-01  1.01388E+00 -8.00584E-02
    9089.011     93.583   5.160  9.37513E-01  1.01596E+00 -7.84490E-02
    9090.590     95.162   5.200  9.48189E-01  1.01806E+00 -6.98704E-02
    9092.181     96.753   5.240  9.63600E-01  1.02013E+00 -5.65247E-02
    9093.784     98.356   5.280  9.81825E-01  1.02215E+00 -4.03263E-02
    9095.399     99.972   5.320  1.00210E+00  1.02414E+00 -2.20385E-02
    9097.027    101.599   5.360  1.02437E+00  1.02607E+00 -1.70657E-03
    9098.667    103.239   5.400  1.04796E+00  1.02794E+00  2.00222E-02
    9100.319    104.891   5.440  1.07064E+00  1.02975E+00  4.08880E-02
    9101.983    106.555   5.480  1.08859E+00  1.03149E+00  5.70987E-02
    9103.659    108.232   5.520  1.09898E+00  1.03317E+00  6.58196E-02
    9105.348    109.920   5.560  1.10171E+00  1.03474E+00  6.69775E-02
    9107.049    111.621   5.600  1.09880E+00  1.03622E+00  6.25841E-02
    9108.762    113.334   5.640  1.09248E+00  1.03761E+00  5.48663E-02
    9110.487    115.059   5.680  1.08418E+00  1.03891E+00  4.52642E-02
    9112.224    116.796   5.720  1.07455E+00  1.04010E+00  3.44564E-02
    9113.974    118.546   5.760  1.06430E+00  1.04116E+00  2.31373E-02
    9115.735    120.308   5.800  1.05342E+00  1.04210E+00  1.13255E-02
    9117.509    122.082   5.840  1.04239E+00  1.04293E+00 -5.43480E-04
    9119.296    123.868   5.880  1.03173E+00  1.04362E+00 -1.18842E-02
    9121.094    125.666   5.920  1.02207E+00  1.04419E+00 -2.21199E-02
    9122.904    127.477   5.960  1.01422E+00  1.04460E+00 -3.03734E-02
    9124.727    129.299   6.000  1.00995E+00  1.04476E+00 -3.48060E-02
