# # comment:                                                     FEFF 9.9.1  
# # Source:
# # Structure
# # Reduced
# # space
# # abc:
# # angles:
# # sites:
# # POT  SCF 100  7.0000   0, screened core-hole, AFOLP (folp(0)= 1.150)
# # Abs   Z=29 Rmt= 1.270 Rnm= 1.372 K  shell
# # Pot 1 Z=56 Rmt= 1.918 Rnm= 1.985
# # Pot 2 Z=39 Rmt= 1.584 Rnm= 1.687
# # Pot 3 Z=29 Rmt= 1.228 Rnm= 1.306
# # Pot 4 Z= 8 Rmt= 1.073 Rnm= 1.130
# # Gam_ch=1.729E+00 H-L exch Vi= 0.000E+00 Vr= 0.000E+00
# # Mu=-7.953E+00eV kf=1.989E+00 Vint=-1.662E+01eV Rs_int= 1.823
# FMS rfms= 9.0000
# # PATH  Rmax=-1.000,  Keep_limit= 0.00, Heap_limit 0.00  Pwcrit= 2.50%
#  S02=0.950  Temp=   0.00  Debye_temp=   0.00  Global_sig2= 0.00000
#  Energy zero shift, vr, vi    0.00000E+00   0.00000E+00
#  Curved wave amplitude ratio filter   4.000%
#     file         sig2 tot  cw amp ratio   deg  nlegs   reff  inp sig2
#     0/   0 paths used
#  xsedge+ 50, used to normalize mu           2.4507E-04
#  -----------------------------------------------------------------------
#  omega    e    k    mu    mu0     chi     @#
    8984.661    -11.763  -1.000  4.45071E-02  5.61987E-02 -1.16916E-02
    8984.960    -11.464  -0.960  4.72220E-02  6.03429E-02 -1.31209E-02
    8985.246    -11.178  -0.920  5.01953E-02  6.49522E-02 -1.47569E-02
    8985.521    -10.903  -0.880  5.34622E-02  7.00952E-02 -1.66330E-02
    8985.783    -10.641  -0.840  5.70638E-02  7.58520E-02 -1.87882E-02
    8986.033    -10.391  -0.800  6.10475E-02  8.23153E-02 -2.12679E-02
    8986.270    -10.153  -0.760  6.54675E-02  8.95915E-02 -2.41240E-02
    8986.496     -9.928  -0.720  7.03850E-02  9.78007E-02 -2.74157E-02
    8986.709     -9.714  -0.680  7.58670E-02  1.07075E-01 -3.12083E-02
    8986.910     -9.513  -0.640  8.19842E-02  1.17555E-01 -3.55711E-02
    8987.099     -9.324  -0.600  8.88052E-02  1.29378E-01 -4.05727E-02
    8987.276     -9.148  -0.560  9.63878E-02  1.42660E-01 -4.62726E-02
    8987.441     -8.983  -0.520  1.04764E-01  1.57473E-01 -5.27084E-02
    8987.593     -8.831  -0.480  1.13922E-01  1.73800E-01 -5.98773E-02
    8987.733     -8.690  -0.440  1.23783E-01  1.91498E-01 -6.77154E-02
    8987.861     -8.562  -0.400  1.34179E-01  2.10259E-01 -7.60798E-02
    8987.977     -8.447  -0.360  1.44855E-01  2.29597E-01 -8.47426E-02
    8988.081     -8.343  -0.320  1.55478E-01  2.48883E-01 -9.34055E-02
    8988.172     -8.251  -0.280  1.65680E-01  2.67416E-01 -1.01737E-01
    8988.252     -8.172  -0.240  1.75106E-01  2.84523E-01 -1.09417E-01
    8988.319     -8.105  -0.200  1.83456E-01  2.99641E-01 -1.16185E-01
    8988.374     -8.050  -0.160  1.90505E-01  3.12357E-01 -1.21852E-01
    8988.416     -8.008  -0.120  1.96101E-01  3.22409E-01 -1.26308E-01
    8988.447     -7.977  -0.080  2.00153E-01  3.29649E-01 -1.29496E-01
    8988.471     -7.953   0.000  2.03444E-01  3.35466E-01 -1.32022E-01
    8988.526     -7.898   0.120  2.10895E-01  3.48570E-01 -1.37675E-01
    8988.569     -7.855   0.160  2.16682E-01  3.58773E-01 -1.42090E-01
    8988.623     -7.800   0.200  2.24088E-01  3.71784E-01 -1.47696E-01
    8988.691     -7.733   0.240  2.33056E-01  3.87426E-01 -1.54370E-01
    8988.770     -7.654   0.280  2.43466E-01  4.05386E-01 -1.61919E-01
    8988.861     -7.563   0.320  2.55143E-01  4.25204E-01 -1.70061E-01
    8988.965     -7.459   0.360  2.67802E-01  4.46311E-01 -1.78509E-01
    8989.081     -7.343   0.400  2.81057E-01  4.68059E-01 -1.87002E-01
    8989.209     -7.215   0.440  2.94529E-01  4.89892E-01 -1.95363E-01
    8989.349     -7.075   0.480  3.07884E-01  5.11403E-01 -2.03519E-01
    8989.501     -6.923   0.520  3.20836E-01  5.32256E-01 -2.11420E-01
    8989.666     -6.758   0.560  3.33228E-01  5.52343E-01 -2.19115E-01
    8989.843     -6.581   0.600  3.44777E-01  5.71609E-01 -2.26832E-01
    8990.032     -6.392   0.640  3.55063E-01  5.90111E-01 -2.35047E-01
    8990.233     -6.191   0.680  3.63857E-01  6.07927E-01 -2.44070E-01
    8990.446     -5.978   0.720  3.71567E-01  6.25147E-01 -2.53579E-01
    8990.672     -5.752   0.760  3.79087E-01  6.41860E-01 -2.62773E-01
    8990.909     -5.514   0.800  3.87166E-01  6.58126E-01 -2.70960E-01
    8991.159     -5.264   0.840  3.96376E-01  6.74032E-01 -2.77656E-01
    8991.421     -5.002   0.880  4.07679E-01  6.89627E-01 -2.81948E-01
    8991.696     -4.728   0.920  4.22410E-01  7.04929E-01 -2.82520E-01
    8991.982     -4.441   0.960  4.41703E-01  7.19984E-01 -2.78281E-01
    8992.281     -4.143   1.000  4.66100E-01  7.34763E-01 -2.68663E-01
    8992.592     -3.832   1.040  4.96613E-01  7.49291E-01 -2.52678E-01
    8992.915     -3.509   1.080  5.35020E-01  7.63565E-01 -2.28545E-01
    8993.250     -3.174   1.120  5.80717E-01  7.77556E-01 -1.96839E-01
    8993.598     -2.826   1.160  6.24702E-01  7.91248E-01 -1.66546E-01
    8993.957     -2.466   1.200  6.53482E-01  8.04646E-01 -1.51164E-01
    8994.329     -2.095   1.240  6.66423E-01  8.17686E-01 -1.51263E-01
    8994.713     -1.710   1.280  6.76387E-01  8.30386E-01 -1.53999E-01
    8995.110     -1.314   1.320  6.93903E-01  8.42682E-01 -1.48779E-01
    8995.518     -0.906   1.360  7.23333E-01  8.54590E-01 -1.31257E-01
    8995.939     -0.485   1.400  7.63857E-01  8.66085E-01 -1.02228E-01
    8996.371     -0.052   1.440  8.08605E-01  8.77119E-01 -6.85135E-02
    8996.816      0.393   1.480  8.54495E-01  8.87688E-01 -3.31934E-02
    8997.274      0.850   1.520  9.19015E-01  8.97792E-01  2.12226E-02
    8997.743      1.319   1.560  1.03015E+00  9.07406E-01  1.22747E-01
    8998.225      1.801   1.600  1.18420E+00  9.16527E-01  2.67673E-01
    8998.718      2.295   1.640  1.30298E+00  9.25156E-01  3.77819E-01
    8999.224      2.801   1.680  1.32866E+00  9.33273E-01  3.95392E-01
    8999.743      3.319   1.720  1.31399E+00  9.40898E-01  3.73094E-01
    9000.273      3.849   1.760  1.30481E+00  9.48018E-01  3.56796E-01
    9000.815      4.392   1.800  1.28853E+00  9.54633E-01  3.33901E-01
    9001.370      4.946   1.840  1.25628E+00  9.60769E-01  2.95513E-01
    9001.937      5.513   1.880  1.21683E+00  9.66433E-01  2.50396E-01
    9002.516      6.092   1.920  1.16872E+00  9.71610E-01  1.97115E-01
    9003.107      6.684   1.960  1.11666E+00  9.76372E-01  1.40290E-01
    9003.711      7.287   2.000  1.07717E+00  9.80665E-01  9.65062E-02
    9004.327      7.903   2.040  1.06585E+00  9.84558E-01  8.12881E-02
    9004.955      8.531   2.080  1.08620E+00  9.88041E-01  9.81620E-02
    9005.595      9.171   2.120  1.11564E+00  9.91166E-01  1.24478E-01
    9006.247      9.823   2.160  1.11664E+00  9.93899E-01  1.22737E-01
    9006.911     10.488   2.200  1.08849E+00  9.96315E-01  9.21762E-02
    9007.588     11.164   2.240  1.05564E+00  9.98381E-01  5.72550E-02
    9008.277     11.853   2.280  1.03112E+00  1.00017E+00  3.09479E-02
    9008.978     12.554   2.320  1.02274E+00  1.00167E+00  2.10624E-02
    9009.691     13.267   2.360  1.03201E+00  1.00290E+00  2.91073E-02
    9010.417     13.993   2.400  1.04779E+00  1.00390E+00  4.38896E-02
    9011.154     14.730   2.440  1.05528E+00  1.00468E+00  5.06007E-02
    9011.904     15.480   2.480  1.05346E+00  1.00524E+00  4.82170E-02
    9012.666     16.242   2.520  1.04566E+00  1.00565E+00  4.00117E-02
    9013.440     17.016   2.560  1.03107E+00  1.00586E+00  2.52099E-02
    9014.227     17.803   2.600  1.01053E+00  1.00594E+00  4.58722E-03
    9015.025     18.601   2.640  9.86699E-01  1.00589E+00 -1.91892E-02
    9015.836     19.412   2.680  9.63276E-01  1.00572E+00 -4.24405E-02
    9016.659     20.235   2.720  9.43434E-01  1.00545E+00 -6.20167E-02
    9017.494     21.070   2.760  9.28278E-01  1.00508E+00 -7.67993E-02
    9018.341     21.918   2.800  9.17793E-01  1.00465E+00 -8.68525E-02
    9019.201     22.777   2.840  9.11508E-01  1.00414E+00 -9.26348E-02
    9020.073     23.649   2.880  9.08866E-01  1.00361E+00 -9.47476E-02
    9020.956     24.533   2.920  9.09026E-01  1.00302E+00 -9.39962E-02
    9021.853     25.429   2.960  9.11530E-01  1.00242E+00 -9.08873E-02
    9022.761     26.337   3.000  9.15704E-01  1.00180E+00 -8.60993E-02
    9023.681     27.258   3.040  9.21238E-01  1.00116E+00 -7.99254E-02
    9024.614     28.190   3.080  9.27830E-01  1.00054E+00 -7.27125E-02
    9025.559     29.135   3.120  9.34884E-01  9.99924E-01 -6.50406E-02
    9026.516     30.092   3.160  9.41708E-01  9.99311E-01 -5.76029E-02
    9027.485     31.061   3.200  9.47370E-01  9.98705E-01 -5.13349E-02
    9028.467     32.043   3.240  9.50838E-01  9.98153E-01 -4.73146E-02
    9029.460     33.037   3.280  9.51211E-01  9.97615E-01 -4.64038E-02
    9030.466     34.042   3.320  9.48581E-01  9.97113E-01 -4.85327E-02
    9031.484     35.060   3.360  9.44047E-01  9.96650E-01 -5.26037E-02
    9032.514     36.091   3.400  9.39387E-01  9.96227E-01 -5.68397E-02
    9033.557     37.133   3.440  9.36437E-01  9.95845E-01 -5.94077E-02
    9034.611     38.188   3.480  9.36648E-01  9.95527E-01 -5.88790E-02
    9035.678     39.254   3.520  9.40858E-01  9.95232E-01 -5.43744E-02
    9036.757     40.333   3.560  9.49204E-01  9.95002E-01 -4.57980E-02
    9037.848     41.425   3.600  9.61459E-01  9.94817E-01 -3.33575E-02
    9038.952     42.528   3.640  9.77029E-01  9.94697E-01 -1.76682E-02
    9040.067     43.644   3.680  9.94639E-01  9.94601E-01  3.80484E-05
    9041.195     44.771   3.720  1.01270E+00  9.94572E-01  1.81236E-02
    9042.335     45.911   3.760  1.02945E+00  9.94609E-01  3.48422E-02
    9043.487     47.063   3.800  1.04317E+00  9.94668E-01  4.85040E-02
    9044.652     48.228   3.840  1.05254E+00  9.94792E-01  5.77518E-02
    9045.828     49.404   3.880  1.05673E+00  9.94959E-01  6.17699E-02
    9047.017     50.593   3.920  1.05570E+00  9.95168E-01  6.05283E-02
    9048.218     51.794   3.960  1.05035E+00  9.95416E-01  5.49345E-02
    9049.431     53.007   4.000  1.04261E+00  9.95704E-01  4.69076E-02
    9050.656     54.232   4.040  1.03462E+00  9.96031E-01  3.85898E-02
    9051.894     55.470   4.080  1.02815E+00  9.96396E-01  3.17519E-02
    9053.143     56.719   4.120  1.02418E+00  9.96797E-01  2.73867E-02
    9054.405     57.981   4.160  1.02291E+00  9.97209E-01  2.57045E-02
    9055.679     59.255   4.200  1.02394E+00  9.97656E-01  2.62854E-02
    9056.965     60.542   4.240  1.02659E+00  9.98134E-01  2.84602E-02
    9058.264     61.840   4.280  1.03032E+00  9.98623E-01  3.16936E-02
    9059.574     63.151   4.320  1.03466E+00  9.99142E-01  3.55194E-02
    9060.897     64.474   4.360  1.03907E+00  9.99667E-01  3.94013E-02
    9062.232     65.809   4.400  1.04288E+00  1.00022E+00  4.26663E-02
    9063.580     67.156   4.440  1.04542E+00  1.00075E+00  4.46697E-02
    9064.939     68.515   4.480  1.04636E+00  1.00130E+00  4.50586E-02
    9066.311     69.887   4.520  1.04571E+00  1.00186E+00  4.38530E-02
    9067.694     71.271   4.560  1.04365E+00  1.00241E+00  4.12404E-02
    9069.090     72.666   4.600  1.04021E+00  1.00294E+00  3.72715E-02
    9070.498     74.075   4.640  1.03534E+00  1.00348E+00  3.18582E-02
    9071.919     75.495   4.680  1.02896E+00  1.00399E+00  2.49670E-02
    9073.351     76.928   4.720  1.02127E+00  1.00448E+00  1.67919E-02
    9074.796     78.372   4.760  1.01277E+00  1.00497E+00  7.79551E-03
    9076.253     79.829   4.800  1.00396E+00  1.00542E+00 -1.46294E-03
    9077.722     81.298   4.840  9.95385E-01  1.00587E+00 -1.04870E-02
    9079.204     82.780   4.880  9.87324E-01  1.00627E+00 -1.89452E-02
    9080.697     84.273   4.920  9.79960E-01  1.00665E+00 -2.66928E-02
    9082.203     85.779   4.960  9.73306E-01  1.00700E+00 -3.36933E-02
    9083.721     87.297   5.000  9.67455E-01  1.00733E+00 -3.98769E-02
    9085.251     88.827   5.040  9.62554E-01  1.00760E+00 -4.50498E-02
    9086.793     90.369   5.080  9.59031E-01  1.00786E+00 -4.88273E-02
    9088.347     91.924   5.120  9.57395E-01  1.00807E+00 -5.06788E-02
    9089.914     93.490   5.160  9.58197E-01  1.00825E+00 -5.00498E-02
    9091.493     95.069   5.200  9.61673E-01  1.00836E+00 -4.66825E-02
    9093.084     96.660   5.240  9.67431E-01  1.00845E+00 -4.10155E-02
    9094.687     98.263   5.280  9.74245E-01  1.00850E+00 -3.42537E-02
    9096.303     99.879   5.320  9.80517E-01  1.00851E+00 -2.79937E-02
    9097.930    101.507   5.360  9.85114E-01  1.00848E+00 -2.33699E-02
    9099.570    103.146   5.400  9.87976E-01  1.00844E+00 -2.04618E-02
    9101.222    104.798   5.440  9.89972E-01  1.00833E+00 -1.83563E-02
    9102.886    106.463   5.480  9.92362E-01  1.00818E+00 -1.58133E-02
    9104.563    108.139   5.520  9.96140E-01  1.00798E+00 -1.18414E-02
    9106.251    109.828   5.560  1.00165E+00  1.00775E+00 -6.09826E-03
    9107.952    111.528   5.600  1.00826E+00  1.00748E+00  7.82316E-04
    9109.665    113.241   5.640  1.01431E+00  1.00719E+00  7.11754E-03
    9111.390    114.966   5.680  1.01785E+00  1.00684E+00  1.10096E-02
    9113.128    116.704   5.720  1.01777E+00  1.00648E+00  1.12912E-02
    9114.877    118.453   5.760  1.01422E+00  1.00608E+00  8.13679E-03
    9116.639    120.215   5.800  1.00840E+00  1.00565E+00  2.74804E-03
    9118.413    121.989   5.840  1.00191E+00  1.00521E+00 -3.29442E-03
    9120.199    123.775   5.880  9.96177E-01  1.00474E+00 -8.56026E-03
    9121.997    125.573   5.920  9.92160E-01  1.00424E+00 -1.20777E-02
    9123.808    127.384   5.960  9.90453E-01  1.00374E+00 -1.32848E-02
    9125.630    129.207   6.000  9.91288E-01  1.00319E+00 -1.19036E-02
