# # comment:                                                     FEFF 9.9.1  
# # Source:
# # Structure
# # Reduced
# # space
# # abc:
# # angles:
# # sites:
# # POT  SCF 100  7.0000   0, screened core-hole, AFOLP (folp(0)= 1.150)
# # Abs   Z=29 Rmt= 1.232 Rnm= 1.333 K  shell
# # Pot 1 Z=29 Rmt= 1.253 Rnm= 1.343
# # Pot 2 Z=42 Rmt= 1.145 Rnm= 1.355
# # Pot 3 Z=16 Rmt= 0.864 Rnm= 1.104
# # Pot 4 Z= 8 Rmt= 0.959 Rnm= 1.088
# # Gam_ch=1.729E+00 H-L exch Vi= 0.000E+00 Vr= 0.000E+00
# # Mu=-5.825E+00eV kf=2.351E+00 Vint=-1.590E+01eV Rs_int= 1.542
# FMS rfms= 9.0000
# # PATH  Rmax=-1.000,  Keep_limit= 0.00, Heap_limit 0.00  Pwcrit= 2.50%
#  S02=0.950  Temp=   0.00  Debye_temp=   0.00  Global_sig2= 0.00000
#  Energy zero shift, vr, vi    0.00000E+00   0.00000E+00
#  Curved wave amplitude ratio filter   4.000%
#     file         sig2 tot  cw amp ratio   deg  nlegs   reff  inp sig2
#     0/   0 paths used
#  xsedge+ 50, used to normalize mu           2.4637E-04
#  -----------------------------------------------------------------------
#  omega    e    k    mu    mu0     chi     @#
    8983.377     -9.635  -1.000  4.43137E-02  5.57119E-02 -1.13982E-02
    8983.675     -9.337  -0.960  4.70335E-02  5.98348E-02 -1.28013E-02
    8983.962     -9.050  -0.920  5.00059E-02  6.44238E-02 -1.44180E-02
    8984.236     -8.776  -0.880  5.32621E-02  6.95482E-02 -1.62860E-02
    8984.498     -8.514  -0.840  5.68381E-02  7.52887E-02 -1.84507E-02
    8984.748     -8.264  -0.800  6.07738E-02  8.17392E-02 -2.09654E-02
    8984.986     -8.026  -0.760  6.51141E-02  8.90073E-02 -2.38932E-02
    8985.212     -7.800  -0.720  6.99081E-02  9.72148E-02 -2.73067E-02
    8985.425     -7.587  -0.680  7.52079E-02  1.06496E-01 -3.12880E-02
    8985.626     -7.386  -0.640  8.10668E-02  1.16993E-01 -3.59258E-02
    8985.815     -7.197  -0.600  8.75345E-02  1.28844E-01 -4.13099E-02
    8985.992     -7.020  -0.560  9.46508E-02  1.42171E-01 -4.75200E-02
    8986.156     -6.856  -0.520  1.02435E-01  1.57043E-01 -5.46080E-02
    8986.309     -6.703  -0.480  1.10874E-01  1.73447E-01 -6.25735E-02
    8986.449     -6.563  -0.440  1.19903E-01  1.91239E-01 -7.13354E-02
    8986.577     -6.435  -0.400  1.29397E-01  2.10105E-01 -8.07085E-02
    8986.693     -6.319  -0.360  1.39158E-01  2.29556E-01 -9.03980E-02
    8986.797     -6.215  -0.320  1.48929E-01  2.48954E-01 -1.00025E-01
    8986.888     -6.124  -0.280  1.58411E-01  2.67592E-01 -1.09181E-01
    8986.967     -6.045  -0.240  1.67293E-01  2.84790E-01 -1.17497E-01
    8987.034     -5.978  -0.200  1.75287E-01  2.99982E-01 -1.24694E-01
    8987.089     -5.923  -0.160  1.82147E-01  3.12754E-01 -1.30607E-01
    8987.132     -5.880  -0.120  1.87677E-01  3.22844E-01 -1.35167E-01
    8987.162     -5.850  -0.080  1.91734E-01  3.30110E-01 -1.38375E-01
    8987.187     -5.825   0.000  1.95074E-01  3.35944E-01 -1.40871E-01
    8987.242     -5.770   0.120  2.02667E-01  3.49095E-01 -1.46429E-01
    8987.284     -5.728   0.160  2.08650E-01  3.59315E-01 -1.50666E-01
    8987.339     -5.673   0.200  2.16425E-01  3.72327E-01 -1.55902E-01
    8987.406     -5.606   0.240  2.26110E-01  3.87981E-01 -1.61871E-01
    8987.485     -5.527   0.280  2.37675E-01  4.05909E-01 -1.68234E-01
    8987.577     -5.435   0.320  2.51078E-01  4.25633E-01 -1.74554E-01
    8987.680     -5.332   0.360  2.66231E-01  4.46579E-01 -1.80349E-01
    8987.796     -5.216   0.400  2.82865E-01  4.68080E-01 -1.85215E-01
    8987.924     -5.088   0.440  3.00725E-01  4.89565E-01 -1.88840E-01
    8988.064     -4.947   0.480  3.19595E-01  5.10611E-01 -1.91016E-01
    8988.217     -4.795   0.520  3.39320E-01  5.30874E-01 -1.91554E-01
    8988.381     -4.630   0.560  3.60161E-01  5.50267E-01 -1.90106E-01
    8988.558     -4.454   0.600  3.82714E-01  5.68738E-01 -1.86024E-01
    8988.747     -4.265   0.640  4.07752E-01  5.86328E-01 -1.78576E-01
    8988.948     -4.064   0.680  4.35548E-01  6.03164E-01 -1.67616E-01
    8989.162     -3.850   0.720  4.64776E-01  6.19325E-01 -1.54549E-01
    8989.387     -3.625   0.760  4.92241E-01  6.34908E-01 -1.42668E-01
    8989.625     -3.387   0.800  5.13893E-01  6.50005E-01 -1.36113E-01
    8989.875     -3.137   0.840  5.26621E-01  6.64732E-01 -1.38111E-01
    8990.137     -2.875   0.880  5.29845E-01  6.79127E-01 -1.49282E-01
    8990.411     -2.601   0.920  5.26450E-01  6.93217E-01 -1.66767E-01
    8990.698     -2.314   0.960  5.21221E-01  7.07078E-01 -1.85856E-01
    8990.997     -2.015   1.000  5.17684E-01  7.20708E-01 -2.03024E-01
    8991.308     -1.704   1.040  5.16598E-01  7.34143E-01 -2.17546E-01
    8991.631     -1.381   1.080  5.16119E-01  7.47366E-01 -2.31246E-01
    8991.966     -1.046   1.120  5.15052E-01  7.60373E-01 -2.45322E-01
    8992.313     -0.699   1.160  5.15522E-01  7.73178E-01 -2.57656E-01
    8992.673     -0.339   1.200  5.20536E-01  7.85747E-01 -2.65210E-01
    8993.045      0.033   1.240  5.30149E-01  7.98085E-01 -2.67936E-01
    8993.429      0.417   1.280  5.40597E-01  8.10174E-01 -2.69576E-01
    8993.825      0.813   1.320  5.50447E-01  8.21992E-01 -2.71545E-01
    8994.234      1.222   1.360  5.66488E-01  8.33516E-01 -2.67028E-01
    8994.654      1.642   1.400  5.97448E-01  8.44744E-01 -2.47296E-01
    8995.087      2.075   1.440  6.43565E-01  8.55632E-01 -2.12068E-01
    8995.532      2.520   1.480  6.95732E-01  8.66194E-01 -1.70463E-01
    8995.989      2.977   1.520  7.44513E-01  8.76388E-01 -1.31875E-01
    8996.459      3.447   1.560  7.88172E-01  8.86229E-01 -9.80575E-02
    8996.940      3.928   1.600  8.31757E-01  8.95652E-01 -6.38948E-02
    8997.434      4.422   1.640  8.86013E-01  9.04714E-01 -1.87015E-02
    8997.940      4.928   1.680  9.63993E-01  9.13354E-01  5.06397E-02
    8998.458      5.446   1.720  1.06919E+00  9.21567E-01  1.47619E-01
    8998.988      5.977   1.760  1.19272E+00  9.29376E-01  2.63346E-01
    8999.531      6.519   1.800  1.31947E+00  9.36780E-01  3.82695E-01
    9000.086      7.074   1.840  1.42609E+00  9.43737E-01  4.82352E-01
    9000.653      7.641   1.880  1.48618E+00  9.50292E-01  5.35884E-01
    9001.232      8.220   1.920  1.49488E+00  9.56425E-01  5.38458E-01
    9001.823      8.811   1.960  1.46832E+00  9.62141E-01  5.06184E-01
    9002.427      9.415   2.000  1.41939E+00  9.67442E-01  4.51952E-01
    9003.042     10.030   2.040  1.36092E+00  9.72353E-01  3.88566E-01
    9003.670     10.658   2.080  1.30813E+00  9.76881E-01  3.31249E-01
    9004.310     11.298   2.120  1.26472E+00  9.81031E-01  2.83687E-01
    9004.963     11.951   2.160  1.22325E+00  9.84788E-01  2.38464E-01
    9005.627     12.615   2.200  1.17773E+00  9.88221E-01  1.89509E-01
    9006.304     13.292   2.240  1.12716E+00  9.91295E-01  1.35864E-01
    9006.992     13.981   2.280  1.07352E+00  9.94040E-01  7.94831E-02
    9007.694     14.682   2.320  1.02593E+00  9.96482E-01  2.94468E-02
    9008.407     15.395   2.360  9.96508E-01  9.98631E-01 -2.12245E-03
    9009.132     16.120   2.400  9.86482E-01  1.00049E+00 -1.40104E-02
    9009.870     16.858   2.440  9.90873E-01  1.00208E+00 -1.12035E-02
    9010.620     17.608   2.480  1.00792E+00  1.00343E+00  4.48921E-03
    9011.382     18.370   2.520  1.03532E+00  1.00454E+00  3.07730E-02
    9012.156     19.144   2.560  1.06622E+00  1.00544E+00  6.07792E-02
    9012.942     19.930   2.600  1.09444E+00  1.00612E+00  8.83224E-02
    9013.741     20.729   2.640  1.11268E+00  1.00663E+00  1.06045E-01
    9014.551     21.540   2.680  1.10854E+00  1.00696E+00  1.01580E-01
    9015.374     22.362   2.720  1.07615E+00  1.00712E+00  6.90255E-02
    9016.210     23.198   2.760  1.02781E+00  1.00715E+00  2.06624E-02
    9017.057     24.045   2.800  9.89400E-01  1.00705E+00 -1.76552E-02
    9017.916     24.905   2.840  9.65073E-01  1.00684E+00 -4.17630E-02
    9018.788     25.776   2.880  9.51038E-01  1.00652E+00 -5.54855E-02
    9019.672     26.660   2.920  9.42316E-01  1.00610E+00 -6.37885E-02
    9020.568     27.556   2.960  9.35725E-01  1.00562E+00 -6.98975E-02
    9021.477     28.465   3.000  9.29635E-01  1.00507E+00 -7.54303E-02
    9022.397     29.385   3.040  9.23316E-01  1.00446E+00 -8.11421E-02
    9023.330     30.318   3.080  9.16437E-01  1.00378E+00 -8.73465E-02
    9024.275     31.263   3.120  9.08925E-01  1.00309E+00 -9.41651E-02
    9025.232     32.220   3.160  9.00674E-01  1.00236E+00 -1.01687E-01
    9026.201     33.189   3.200  8.91779E-01  1.00162E+00 -1.09841E-01
    9027.182     34.170   3.240  8.82620E-01  1.00085E+00 -1.18233E-01
    9028.176     35.164   3.280  8.73779E-01  1.00010E+00 -1.26322E-01
    9029.182     36.170   3.320  8.66036E-01  9.99330E-01 -1.33293E-01
    9030.200     37.188   3.360  8.60423E-01  9.98581E-01 -1.38158E-01
    9031.230     38.218   3.400  8.57750E-01  9.97839E-01 -1.40089E-01
    9032.272     39.261   3.440  8.58420E-01  9.97125E-01 -1.38706E-01
    9033.327     40.315   3.480  8.62619E-01  9.96423E-01 -1.33804E-01
    9034.394     41.382   3.520  8.70349E-01  9.95753E-01 -1.25403E-01
    9035.473     42.461   3.560  8.81302E-01  9.95117E-01 -1.13815E-01
    9036.564     43.552   3.600  8.95128E-01  9.94519E-01 -9.93917E-02
    9037.667     44.655   3.640  9.11463E-01  9.93938E-01 -8.24754E-02
    9038.783     45.771   3.680  9.29911E-01  9.93418E-01 -6.35071E-02
    9039.911     46.899   3.720  9.49829E-01  9.92940E-01 -4.31116E-02
    9041.051     48.039   3.760  9.70492E-01  9.92502E-01 -2.20099E-02
    9042.203     49.191   3.800  9.90814E-01  9.92107E-01 -1.29303E-03
    9043.367     50.355   3.840  1.00945E+00  9.91756E-01  1.76912E-02
    9044.544     51.532   3.880  1.02529E+00  9.91469E-01  3.38200E-02
    9045.732     52.720   3.920  1.03789E+00  9.91226E-01  4.66691E-02
    9046.933     53.921   3.960  1.04761E+00  9.91025E-01  5.65869E-02
    9048.146     55.134   4.000  1.05546E+00  9.90867E-01  6.45907E-02
    9049.372     56.360   4.040  1.06241E+00  9.90752E-01  7.16623E-02
    9050.609     57.597   4.080  1.06890E+00  9.90704E-01  7.81950E-02
    9051.859     58.847   4.120  1.07451E+00  9.90698E-01  8.38169E-02
    9053.121     60.109   4.160  1.07840E+00  9.90732E-01  8.76694E-02
    9054.395     61.383   4.200  1.07949E+00  9.90809E-01  8.86835E-02
    9055.681     62.669   4.240  1.07702E+00  9.90926E-01  8.60905E-02
    9056.979     63.968   4.280  1.07094E+00  9.91081E-01  7.98574E-02
    9058.290     65.278   4.320  1.06196E+00  9.91275E-01  7.06885E-02
    9059.613     66.601   4.360  1.05128E+00  9.91508E-01  5.97710E-02
    9060.948     67.936   4.400  1.04030E+00  9.91777E-01  4.85274E-02
    9062.295     69.283   4.440  1.03043E+00  9.92061E-01  3.83672E-02
    9063.655     70.643   4.480  1.02285E+00  9.92401E-01  3.04465E-02
    9065.026     72.014   4.520  1.01833E+00  9.92751E-01  2.55814E-02
    9066.410     73.398   4.560  1.01720E+00  9.93110E-01  2.40931E-02
    9067.806     74.794   4.600  1.01922E+00  9.93500E-01  2.57193E-02
    9069.214     76.202   4.640  1.02357E+00  9.93922E-01  2.96512E-02
    9070.634     77.623   4.680  1.02909E+00  9.94349E-01  3.47403E-02
    9072.067     79.055   4.720  1.03451E+00  9.94779E-01  3.97349E-02
    9073.512     80.500   4.760  1.03871E+00  9.95212E-01  4.34978E-02
    9074.969     81.957   4.800  1.04081E+00  9.95669E-01  4.51428E-02
    9076.438     83.426   4.840  1.04017E+00  9.96105E-01  4.40666E-02
    9077.919     84.907   4.880  1.03653E+00  9.96561E-01  3.99689E-02
    9079.413     86.401   4.920  1.02985E+00  9.96995E-01  3.28591E-02
    9080.918     87.906   4.960  1.02054E+00  9.97446E-01  2.30986E-02
    9082.436     89.424   5.000  1.00935E+00  9.97871E-01  1.14752E-02
    9083.966     90.954   5.040  9.97416E-01  9.98289E-01 -8.72974E-04
    9085.509     92.497   5.080  9.85869E-01  9.98677E-01 -1.28084E-02
    9087.063     94.051   5.120  9.75479E-01  9.99058E-01 -2.35792E-02
    9088.630     95.618   5.160  9.66436E-01  9.99429E-01 -3.29930E-02
    9090.209     97.197   5.200  9.58654E-01  9.99766E-01 -4.11120E-02
    9091.800     98.788   5.240  9.52126E-01  1.00007E+00 -4.79435E-02
    9093.403    100.391   5.280  9.47063E-01  1.00036E+00 -5.32987E-02
    9095.018    102.006   5.320  9.43635E-01  1.00062E+00 -5.69857E-02
    9096.646    103.634   5.360  9.41916E-01  1.00086E+00 -5.89476E-02
    9098.286    105.274   5.400  9.41723E-01  1.00105E+00 -5.93239E-02
    9099.938    106.926   5.440  9.42785E-01  1.00122E+00 -5.84312E-02
    9101.602    108.590   5.480  9.44563E-01  1.00135E+00 -5.67836E-02
    9103.278    110.266   5.520  9.46479E-01  1.00144E+00 -5.49609E-02
    9104.967    111.955   5.560  9.48154E-01  1.00152E+00 -5.33644E-02
    9106.668    113.656   5.600  9.49533E-01  1.00153E+00 -5.20006E-02
    9108.381    115.369   5.640  9.51035E-01  1.00151E+00 -5.04734E-02
    9110.106    117.094   5.680  9.53318E-01  1.00147E+00 -4.81475E-02
    9111.843    118.831   5.720  9.56908E-01  1.00136E+00 -4.44559E-02
    9113.593    120.581   5.760  9.62135E-01  1.00125E+00 -3.91104E-02
    9115.355    122.343   5.800  9.68838E-01  1.00109E+00 -3.22496E-02
    9117.128    124.116   5.840  9.76504E-01  1.00087E+00 -2.43645E-02
    9118.915    125.903   5.880  9.84575E-01  1.00064E+00 -1.60615E-02
    9120.713    127.701   5.920  9.92567E-01  1.00037E+00 -7.80267E-03
    9122.523    129.511   5.960  1.00020E+00  1.00006E+00  1.38416E-04
    9124.346    131.334   6.000  1.00744E+00  9.99699E-01  7.73934E-03
