# # comment:                                                     FEFF 9.9.1  
# # Source:
# # Structure
# # Reduced
# # space
# # abc:
# # angles:
# # sites:
# # POT  SCF 100  7.0000   0, screened core-hole, AFOLP (folp(0)= 1.150)
# # Abs   Z=29 Rmt= 1.273 Rnm= 1.345 K  shell
# # Pot 1 Z=29 Rmt= 1.271 Rnm= 1.345
# # Pot 2 Z=33 Rmt= 1.090 Rnm= 1.294
# # Pot 3 Z= 8 Rmt= 0.928 Rnm= 1.079
# # Gam_ch=1.729E+00 H-L exch Vi= 0.000E+00 Vr= 0.000E+00
# # Mu=-5.326E+00eV kf=2.298E+00 Vint=-1.527E+01eV Rs_int= 1.578
# FMS rfms= 9.0000
# # PATH  Rmax=-1.000,  Keep_limit= 0.00, Heap_limit 0.00  Pwcrit= 2.50%
#  S02=0.950  Temp=   0.00  Debye_temp=   0.00  Global_sig2= 0.00000
#  Energy zero shift, vr, vi    0.00000E+00   0.00000E+00
#  Curved wave amplitude ratio filter   4.000%
#     file         sig2 tot  cw amp ratio   deg  nlegs   reff  inp sig2
#     0/   0 paths used
#  xsedge+ 50, used to normalize mu           2.4540E-04
#  -----------------------------------------------------------------------
#  omega    e    k    mu    mu0     chi     @#
    8983.320     -9.136  -1.000  4.48674E-02  5.83962E-02 -1.35288E-02
    8983.618     -8.837  -0.960  4.75496E-02  6.27907E-02 -1.52411E-02
    8983.905     -8.551  -0.920  5.04789E-02  6.76873E-02 -1.72084E-02
    8984.179     -8.276  -0.880  5.36877E-02  7.31611E-02 -1.94734E-02
    8984.441     -8.014  -0.840  5.72132E-02  7.92995E-02 -2.20864E-02
    8984.691     -7.764  -0.800  6.10979E-02  8.62042E-02 -2.51063E-02
    8984.929     -7.526  -0.760  6.53899E-02  9.39919E-02 -2.86020E-02
    8985.154     -7.301  -0.720  7.01424E-02  1.02795E-01 -3.26522E-02
    8985.368     -7.088  -0.680  7.54126E-02  1.12758E-01 -3.73452E-02
    8985.569     -6.886  -0.640  8.12601E-02  1.24036E-01 -4.27756E-02
    8985.758     -6.697  -0.600  8.77420E-02  1.36780E-01 -4.90376E-02
    8985.935     -6.521  -0.560  9.49063E-02  1.51120E-01 -5.62132E-02
    8986.099     -6.356  -0.520  1.02782E-01  1.67133E-01 -6.43514E-02
    8986.252     -6.204  -0.480  1.11364E-01  1.84806E-01 -7.34417E-02
    8986.392     -6.063  -0.440  1.20600E-01  2.03982E-01 -8.33815E-02
    8986.520     -5.935  -0.400  1.30373E-01  2.24324E-01 -9.39510E-02
    8986.636     -5.820  -0.360  1.40492E-01  2.45301E-01 -1.04809E-01
    8986.739     -5.716  -0.320  1.50700E-01  2.66224E-01 -1.15523E-01
    8986.831     -5.625  -0.280  1.60691E-01  2.86327E-01 -1.25637E-01
    8986.910     -5.545  -0.240  1.70133E-01  3.04878E-01 -1.34745E-01
    8986.977     -5.478  -0.200  1.78707E-01  3.21262E-01 -1.42555E-01
    8987.032     -5.423  -0.160  1.86127E-01  3.35035E-01 -1.48908E-01
    8987.075     -5.381  -0.120  1.92157E-01  3.45915E-01 -1.53758E-01
    8987.105     -5.350  -0.080  1.96619E-01  3.53748E-01 -1.57129E-01
    8987.130     -5.326   0.000  2.00335E-01  3.60036E-01 -1.59701E-01
    8987.184     -5.271   0.120  2.08572E-01  3.74200E-01 -1.65628E-01
    8987.227     -5.228   0.160  2.15145E-01  3.85215E-01 -1.70070E-01
    8987.282     -5.173   0.200  2.23745E-01  3.99225E-01 -1.75480E-01
    8987.349     -5.106   0.240  2.34536E-01  4.16064E-01 -1.81529E-01
    8987.428     -5.027   0.280  2.47551E-01  4.35354E-01 -1.87803E-01
    8987.520     -4.936   0.320  2.62763E-01  4.56571E-01 -1.93808E-01
    8987.623     -4.832   0.360  2.79844E-01  4.79051E-01 -1.99206E-01
    8987.739     -4.716   0.400  2.98128E-01  5.02088E-01 -2.03960E-01
    8987.867     -4.588   0.440  3.16445E-01  5.25081E-01 -2.08635E-01
    8988.007     -4.448   0.480  3.33084E-01  5.47524E-01 -2.14441E-01
    8988.160     -4.296   0.520  3.46138E-01  5.69071E-01 -2.22933E-01
    8988.324     -4.131   0.560  3.54283E-01  5.89599E-01 -2.35316E-01
    8988.501     -3.954   0.600  3.57378E-01  6.09073E-01 -2.51695E-01
    8988.690     -3.765   0.640  3.56612E-01  6.27539E-01 -2.70927E-01
    8988.891     -3.564   0.680  3.53873E-01  6.45070E-01 -2.91196E-01
    8989.105     -3.351   0.720  3.50912E-01  6.61813E-01 -3.10901E-01
    8989.330     -3.125   0.760  3.48809E-01  6.77855E-01 -3.29047E-01
    8989.568     -2.887   0.800  3.48208E-01  6.93295E-01 -3.45087E-01
    8989.818     -2.638   0.840  3.49827E-01  7.08234E-01 -3.58407E-01
    8990.080     -2.375   0.880  3.54407E-01  7.22719E-01 -3.68312E-01
    8990.354     -2.101   0.920  3.62655E-01  7.36821E-01 -3.74166E-01
    8990.641     -1.815   0.960  3.75122E-01  7.50536E-01 -3.75414E-01
    8990.940     -1.516   1.000  3.92487E-01  7.63932E-01 -3.71445E-01
    8991.250     -1.205   1.040  4.15679E-01  7.77024E-01 -3.61344E-01
    8991.573     -0.882   1.080  4.45791E-01  7.89777E-01 -3.43986E-01
    8991.909     -0.547   1.120  4.84252E-01  8.02231E-01 -3.17978E-01
    8992.256     -0.199   1.160  5.32745E-01  8.14381E-01 -2.81636E-01
    8992.616      0.161   1.200  5.91395E-01  8.26197E-01 -2.34803E-01
    8992.988      0.532   1.240  6.57071E-01  8.37664E-01 -1.80593E-01
    8993.372      0.916   1.280  7.25635E-01  8.48809E-01 -1.23173E-01
    8993.768      1.313   1.320  7.94487E-01  8.59571E-01 -6.50842E-02
    8994.176      1.721   1.360  8.62705E-01  8.69971E-01 -7.26619E-03
    8994.597      2.142   1.400  9.28155E-01  8.79970E-01  4.81856E-02
    8995.030      2.575   1.440  9.88968E-01  8.89586E-01  9.93825E-02
    8995.475      3.020   1.480  1.04767E+00  8.98779E-01  1.48892E-01
    8995.932      3.477   1.520  1.11176E+00  9.07571E-01  2.04189E-01
    8996.402      3.946   1.560  1.18102E+00  9.15919E-01  2.65101E-01
    8996.883      4.428   1.600  1.24630E+00  9.23844E-01  3.22455E-01
    8997.377      4.921   1.640  1.30801E+00  9.31348E-01  3.76659E-01
    8997.883      5.427   1.680  1.36826E+00  9.38414E-01  4.29843E-01
    8998.401      5.946   1.720  1.40698E+00  9.45042E-01  4.61943E-01
    8998.931      6.476   1.760  1.40027E+00  9.51257E-01  4.49014E-01
    8999.474      7.019   1.800  1.35429E+00  9.57024E-01  3.97271E-01
    9000.029      7.573   1.840  1.29612E+00  9.62407E-01  3.33713E-01
    9000.596      8.140   1.880  1.25135E+00  9.67349E-01  2.83997E-01
    9001.175      8.719   1.920  1.23415E+00  9.71922E-01  2.62225E-01
    9001.766      9.311   1.960  1.24283E+00  9.76089E-01  2.66744E-01
    9002.369      9.914   2.000  1.26353E+00  9.79898E-01  2.83628E-01
    9002.985     10.530   2.040  1.28026E+00  9.83359E-01  2.96906E-01
    9003.613     11.158   2.080  1.28157E+00  9.86457E-01  2.95110E-01
    9004.253     11.798   2.120  1.26505E+00  9.89242E-01  2.75812E-01
    9004.905     12.450   2.160  1.23831E+00  9.91702E-01  2.46607E-01
    9005.570     13.114   2.200  1.20831E+00  9.93867E-01  2.14441E-01
    9006.247     13.791   2.240  1.17628E+00  9.95766E-01  1.80516E-01
    9006.935     14.480   2.280  1.14361E+00  9.97388E-01  1.46219E-01
    9007.636     15.181   2.320  1.11447E+00  9.98781E-01  1.15693E-01
    9008.350     15.894   2.360  1.08903E+00  9.99956E-01  8.90785E-02
    9009.075     16.620   2.400  1.06499E+00  1.00090E+00  6.40874E-02
    9009.813     17.357   2.440  1.04290E+00  1.00166E+00  4.12383E-02
    9010.562     18.107   2.480  1.02227E+00  1.00225E+00  2.00130E-02
    9011.324     18.869   2.520  1.00100E+00  1.00268E+00 -1.67264E-03
    9012.099     19.643   2.560  9.78638E-01  1.00294E+00 -2.43042E-02
    9012.885     20.430   2.600  9.54330E-01  1.00308E+00 -4.87483E-02
    9013.684     21.228   2.640  9.29176E-01  1.00311E+00 -7.39374E-02
    9014.494     22.039   2.680  9.08242E-01  1.00303E+00 -9.47911E-02
    9015.317     22.862   2.720  8.97860E-01  1.00286E+00 -1.05005E-01
    9016.152     23.697   2.760  8.90835E-01  1.00262E+00 -1.11780E-01
    9017.000     24.544   2.800  8.83294E-01  1.00231E+00 -1.19017E-01
    9017.859     25.404   2.840  8.75891E-01  1.00194E+00 -1.26045E-01
    9018.731     26.276   2.880  8.69896E-01  1.00154E+00 -1.31642E-01
    9019.615     27.160   2.920  8.65815E-01  1.00110E+00 -1.35285E-01
    9020.511     28.056   2.960  8.63684E-01  1.00063E+00 -1.36943E-01
    9021.419     28.964   3.000  8.63295E-01  1.00012E+00 -1.36827E-01
    9022.340     29.885   3.040  8.64594E-01  9.99633E-01 -1.35039E-01
    9023.273     30.817   3.080  8.67669E-01  9.99144E-01 -1.31475E-01
    9024.217     31.762   3.120  8.72538E-01  9.98654E-01 -1.26116E-01
    9025.175     32.719   3.160  8.78681E-01  9.98167E-01 -1.19486E-01
    9026.144     33.688   3.200  8.85707E-01  9.97687E-01 -1.11981E-01
    9027.125     34.670   3.240  8.93273E-01  9.97259E-01 -1.03987E-01
    9028.119     35.663   3.280  9.01108E-01  9.96842E-01 -9.57342E-02
    9029.125     36.669   3.320  9.09308E-01  9.96438E-01 -8.71293E-02
    9030.143     37.687   3.360  9.18172E-01  9.96090E-01 -7.79178E-02
    9031.173     38.718   3.400  9.27830E-01  9.95760E-01 -6.79305E-02
    9032.215     39.760   3.440  9.38175E-01  9.95490E-01 -5.73143E-02
    9033.270     40.815   3.480  9.48962E-01  9.95237E-01 -4.62752E-02
    9034.337     41.881   3.520  9.59887E-01  9.95048E-01 -3.51611E-02
    9035.416     42.960   3.560  9.70556E-01  9.94900E-01 -2.43440E-02
    9036.507     44.052   3.600  9.80739E-01  9.94794E-01 -1.40544E-02
    9037.610     45.155   3.640  9.90394E-01  9.94728E-01 -4.33331E-03
    9038.726     46.270   3.680  9.99588E-01  9.94702E-01  4.88607E-03
    9039.854     47.398   3.720  1.00846E+00  9.94718E-01  1.37398E-02
    9040.994     48.538   3.760  1.01725E+00  9.94775E-01  2.24767E-02
    9042.146     49.690   3.800  1.02616E+00  9.94895E-01  3.12637E-02
    9043.310     50.855   3.840  1.03515E+00  9.95036E-01  4.01178E-02
    9044.487     52.031   3.880  1.04421E+00  9.95236E-01  4.89738E-02
    9045.675     53.220   3.920  1.05313E+00  9.95454E-01  5.76768E-02
    9046.876     54.421   3.960  1.06162E+00  9.95732E-01  6.58884E-02
    9048.089     55.634   4.000  1.06922E+00  9.96026E-01  7.31902E-02
    9049.315     56.859   4.040  1.07549E+00  9.96356E-01  7.91318E-02
    9050.552     58.097   4.080  1.08003E+00  9.96721E-01  8.33119E-02
    9051.802     59.346   4.120  1.08261E+00  9.97121E-01  8.54925E-02
    9053.064     60.608   4.160  1.08330E+00  9.97533E-01  8.57717E-02
    9054.338     61.882   4.200  1.08225E+00  9.97977E-01  8.42775E-02
    9055.624     63.169   4.240  1.07954E+00  9.98451E-01  8.10915E-02
    9056.922     64.467   4.280  1.07518E+00  9.98931E-01  7.62520E-02
    9058.233     65.778   4.320  1.06919E+00  9.99415E-01  6.97772E-02
    9059.556     67.100   4.360  1.06169E+00  9.99904E-01  6.17840E-02
    9060.891     68.435   4.400  1.05305E+00  1.00042E+00  5.26310E-02
    9062.238     69.783   4.440  1.04379E+00  1.00093E+00  4.28549E-02
    9063.597     71.142   4.480  1.03436E+00  1.00145E+00  3.29086E-02
    9064.969     72.514   4.520  1.02505E+00  1.00194E+00  2.31100E-02
    9066.353     73.897   4.560  1.01610E+00  1.00245E+00  1.36487E-02
    9067.749     75.293   4.600  1.00768E+00  1.00295E+00  4.72413E-03
    9069.157     76.702   4.640  1.00007E+00  1.00343E+00 -3.36243E-03
    9070.577     78.122   4.680  9.93607E-01  1.00390E+00 -1.02926E-02
    9072.010     79.555   4.720  9.88492E-01  1.00434E+00 -1.58475E-02
    9073.455     80.999   4.760  9.84845E-01  1.00477E+00 -1.99246E-02
    9074.912     82.456   4.800  9.82631E-01  1.00519E+00 -2.25587E-02
    9076.381     83.925   4.840  9.81645E-01  1.00558E+00 -2.39304E-02
    9077.862     85.407   4.880  9.81547E-01  1.00593E+00 -2.43806E-02
    9079.356     86.900   4.920  9.81854E-01  1.00627E+00 -2.44123E-02
    9080.861     88.406   4.960  9.82039E-01  1.00657E+00 -2.45282E-02
    9082.379     89.924   5.000  9.81762E-01  1.00683E+00 -2.50681E-02
    9083.909     91.454   5.040  9.80884E-01  1.00706E+00 -2.61713E-02
    9085.451     92.996   5.080  9.79438E-01  1.00726E+00 -2.78259E-02
    9087.006     94.551   5.120  9.77488E-01  1.00741E+00 -2.99249E-02
    9088.573     96.117   5.160  9.75198E-01  1.00754E+00 -3.23450E-02
    9090.151     97.696   5.200  9.72700E-01  1.00763E+00 -3.49345E-02
    9091.743     99.287   5.240  9.70202E-01  1.00769E+00 -3.74847E-02
    9093.346    100.890   5.280  9.68034E-01  1.00770E+00 -3.96643E-02
    9094.961    102.506   5.320  9.66586E-01  1.00767E+00 -4.10818E-02
    9096.589    104.133   5.360  9.66181E-01  1.00760E+00 -4.14154E-02
    9098.229    105.773   5.400  9.66927E-01  1.00748E+00 -4.05574E-02
    9099.881    107.425   5.440  9.68735E-01  1.00733E+00 -3.85961E-02
    9101.545    109.090   5.480  9.71488E-01  1.00714E+00 -3.56501E-02
    9103.221    110.766   5.520  9.75256E-01  1.00691E+00 -3.16515E-02
    9104.910    112.454   5.560  9.80297E-01  1.00666E+00 -2.63627E-02
    9106.611    114.155   5.600  9.86817E-01  1.00635E+00 -1.95339E-02
    9108.324    115.868   5.640  9.94801E-01  1.00603E+00 -1.12251E-02
    9110.049    117.593   5.680  1.00362E+00  1.00564E+00 -2.02171E-03
    9111.786    119.331   5.720  1.01223E+00  1.00527E+00  6.96152E-03
    9113.536    121.080   5.760  1.01925E+00  1.00484E+00  1.44104E-02
    9115.297    122.842   5.800  1.02365E+00  1.00437E+00  1.92859E-02
    9117.071    124.616   5.840  1.02510E+00  1.00389E+00  2.12028E-02
    9118.857    126.402   5.880  1.02388E+00  1.00342E+00  2.04695E-02
    9120.656    128.200   5.920  1.02074E+00  1.00291E+00  1.78315E-02
    9122.466    130.011   5.960  1.01657E+00  1.00238E+00  1.41892E-02
    9124.289    131.834   6.000  1.01225E+00  1.00183E+00  1.04131E-02
