# # comment:                                                     FEFF 9.9.1  
# # Source:
# # Structure
# # Reduced
# # space
# # abc:
# # angles:109.782817
# # sites:
# # POT  SCF 100  7.0000   0, screened core-hole, AFOLP (folp(0)= 1.150)
# # Abs   Z=29 Rmt= 1.247 Rnm= 1.316 K  shell
# # Pot 1 Z=13 Rmt= 1.548 Rnm= 1.574
# # Pot 2 Z=23 Rmt= 1.242 Rnm= 1.371
# # Pot 3 Z=29 Rmt= 1.232 Rnm= 1.306
# # Pot 4 Z= 8 Rmt= 1.001 Rnm= 1.091
# # Gam_ch=1.729E+00 H-L exch Vi= 0.000E+00 Vr= 0.000E+00
# # Mu=-9.852E+00eV kf=2.225E+00 Vint=-1.875E+01eV Rs_int= 1.630
# FMS rfms= 9.0000
# # PATH  Rmax=-1.000,  Keep_limit= 0.00, Heap_limit 0.00  Pwcrit= 2.50%
#  S02=0.950  Temp=   0.00  Debye_temp=   0.00  Global_sig2= 0.00000
#  Energy zero shift, vr, vi    0.00000E+00   0.00000E+00
#  Curved wave amplitude ratio filter   4.000%
#     file         sig2 tot  cw amp ratio   deg  nlegs   reff  inp sig2
#     0/   0 paths used
#  xsedge+ 50, used to normalize mu           2.4797E-04
#  -----------------------------------------------------------------------
#  omega    e    k    mu    mu0     chi     @#
    8984.778    -13.662  -1.000  3.77218E-02  5.07390E-02 -1.30172E-02
    8985.077    -13.364  -0.960  3.96757E-02  5.43451E-02 -1.46694E-02
    8985.363    -13.077  -0.920  4.17705E-02  5.83466E-02 -1.65761E-02
    8985.638    -12.803  -0.880  4.40204E-02  6.28013E-02 -1.87809E-02
    8985.900    -12.541  -0.840  4.64414E-02  6.77764E-02 -2.13350E-02
    8986.150    -12.291  -0.800  4.90518E-02  7.33500E-02 -2.42982E-02
    8986.387    -12.053  -0.760  5.18718E-02  7.96114E-02 -2.77396E-02
    8986.613    -11.827  -0.720  5.49239E-02  8.66616E-02 -3.17376E-02
    8986.826    -11.614  -0.680  5.82323E-02  9.46116E-02 -3.63793E-02
    8987.027    -11.413  -0.640  6.18217E-02  1.03579E-01 -4.17571E-02
    8987.216    -11.224  -0.600  6.57152E-02  1.13678E-01 -4.79629E-02
    8987.393    -11.047  -0.560  6.99304E-02  1.25008E-01 -5.50772E-02
    8987.558    -10.883  -0.520  7.44738E-02  1.37625E-01 -6.31515E-02
    8987.710    -10.730  -0.480  7.93326E-02  1.51517E-01 -7.21849E-02
    8987.850    -10.590  -0.440  8.44656E-02  1.66562E-01 -8.20967E-02
    8987.978    -10.462  -0.400  8.97954E-02  1.82499E-01 -9.27035E-02
    8988.094    -10.346  -0.360  9.52056E-02  1.98917E-01 -1.03712E-01
    8988.198    -10.243  -0.320  1.00547E-01  2.15286E-01 -1.14739E-01
    8988.289    -10.151  -0.280  1.05653E-01  2.31013E-01 -1.25360E-01
    8988.369    -10.072  -0.240  1.10362E-01  2.45531E-01 -1.35169E-01
    8988.436    -10.005  -0.200  1.14532E-01  2.58362E-01 -1.43830E-01
    8988.491     -9.950  -0.160  1.18056E-01  2.69157E-01 -1.51101E-01
    8988.533     -9.907  -0.120  1.20859E-01  2.77692E-01 -1.56833E-01
    8988.564     -9.877  -0.080  1.22895E-01  2.83841E-01 -1.60946E-01
    8988.588     -9.852   0.000  1.24557E-01  2.88783E-01 -1.64226E-01
    8988.643     -9.798   0.120  1.28214E-01  2.99927E-01 -1.71713E-01
    8988.686     -9.755   0.160  1.31041E-01  3.08592E-01 -1.77551E-01
    8988.740     -9.700   0.200  1.34655E-01  3.19662E-01 -1.85007E-01
    8988.808     -9.633   0.240  1.39011E-01  3.32991E-01 -1.93979E-01
    8988.887     -9.554   0.280  1.44003E-01  3.48298E-01 -2.04295E-01
    8988.978     -9.462   0.320  1.49498E-01  3.65201E-01 -2.15703E-01
    8989.082     -9.359   0.360  1.55300E-01  3.83245E-01 -2.27945E-01
    8989.198     -9.243   0.400  1.61191E-01  4.01906E-01 -2.40715E-01
    8989.326     -9.115   0.440  1.66951E-01  4.20700E-01 -2.53750E-01
    8989.466     -8.975   0.480  1.72628E-01  4.39292E-01 -2.66665E-01
    8989.618     -8.822   0.520  1.78486E-01  4.57415E-01 -2.78929E-01
    8989.783     -8.658   0.560  1.85164E-01  4.75005E-01 -2.89841E-01
    8989.960     -8.481   0.600  1.93493E-01  4.91994E-01 -2.98502E-01
    8990.149     -8.292   0.640  2.04608E-01  5.08455E-01 -3.03847E-01
    8990.350     -8.091   0.680  2.19815E-01  5.24454E-01 -3.04638E-01
    8990.563     -7.877   0.720  2.40485E-01  5.40087E-01 -2.99602E-01
    8990.789     -7.652   0.760  2.67386E-01  5.55412E-01 -2.88026E-01
    8991.026     -7.414   0.800  3.00177E-01  5.70537E-01 -2.70360E-01
    8991.276     -7.164   0.840  3.37371E-01  5.85497E-01 -2.48126E-01
    8991.539     -6.902   0.880  3.78158E-01  6.00355E-01 -2.22196E-01
    8991.813     -6.628   0.920  4.24138E-01  6.15124E-01 -1.90985E-01
    8992.099     -6.341   0.960  4.79232E-01  6.29864E-01 -1.50632E-01
    8992.398     -6.042   1.000  5.46410E-01  6.44545E-01 -9.81350E-02
    8992.709     -5.732   1.040  6.23912E-01  6.59211E-01 -3.52990E-02
    8993.032     -5.408   1.080  7.02899E-01  6.73816E-01  2.90824E-02
    8993.367     -5.073   1.120  7.63522E-01  6.88391E-01  7.51305E-02
    8993.715     -4.726   1.160  7.81047E-01  7.02899E-01  7.81482E-02
    8994.074     -4.366   1.200  7.55626E-01  7.17341E-01  3.82850E-02
    8994.446     -3.994   1.240  7.11178E-01  7.31653E-01 -2.04755E-02
    8994.830     -3.610   1.280  6.58917E-01  7.45833E-01 -8.69157E-02
    8995.227     -3.214   1.320  6.00738E-01  7.59870E-01 -1.59131E-01
    8995.635     -2.805   1.360  5.60100E-01  7.73715E-01 -2.13615E-01
    8996.056     -2.385   1.400  5.66347E-01  7.87339E-01 -2.20992E-01
    8996.488     -1.952   1.440  6.32773E-01  8.00713E-01 -1.67939E-01
    8996.933     -1.507   1.480  7.51343E-01  8.13823E-01 -6.24796E-02
    8997.391     -1.050   1.520  8.85607E-01  8.26618E-01  5.89888E-02
    8997.860     -0.580   1.560  9.82694E-01  8.39089E-01  1.43604E-01
    8998.342     -0.099   1.600  1.00892E+00  8.51205E-01  1.57714E-01
    8998.835      0.395   1.640  9.74541E-01  8.62936E-01  1.11605E-01
    8999.341      0.901   1.680  9.06147E-01  8.74293E-01  3.18543E-02
    8999.860      1.419   1.720  8.36182E-01  8.85207E-01 -4.90243E-02
    9000.390      1.949   1.760  7.97030E-01  8.95711E-01 -9.86811E-02
    9000.932      2.492   1.800  7.95218E-01  9.05740E-01 -1.10522E-01
    9001.487      3.047   1.840  8.20114E-01  9.15327E-01 -9.52133E-02
    9002.054      3.614   1.880  8.72990E-01  9.24429E-01 -5.14398E-02
    9002.633      4.193   1.920  9.51062E-01  9.33064E-01  1.79982E-02
    9003.224      4.784   1.960  1.03520E+00  9.41210E-01  9.39944E-02
    9003.828      5.388   2.000  1.09932E+00  9.48887E-01  1.50434E-01
    9004.444      6.003   2.040  1.13030E+00  9.56076E-01  1.74227E-01
    9005.072      6.631   2.080  1.15615E+00  9.62778E-01  1.93369E-01
    9005.712      7.271   2.120  1.19618E+00  9.69015E-01  2.27165E-01
    9006.364      7.923   2.160  1.23767E+00  9.74770E-01  2.62904E-01
    9007.028      8.588   2.200  1.26348E+00  9.80070E-01  2.83412E-01
    9007.705      9.265   2.240  1.27850E+00  9.84922E-01  2.93581E-01
    9008.394      9.953   2.280  1.30900E+00  9.89349E-01  3.19653E-01
    9009.095     10.654   2.320  1.36416E+00  9.93337E-01  3.70823E-01
    9009.808     11.368   2.360  1.41610E+00  9.96915E-01  4.19180E-01
    9010.534     12.093   2.400  1.42474E+00  1.00009E+00  4.24646E-01
    9011.271     12.831   2.440  1.37800E+00  1.00289E+00  3.75104E-01
    9012.021     13.581   2.480  1.28880E+00  1.00533E+00  2.83474E-01
    9012.783     14.343   2.520  1.17844E+00  1.00743E+00  1.71010E-01
    9013.557     15.117   2.560  1.07242E+00  1.00921E+00  6.32137E-02
    9014.344     15.903   2.600  9.93796E-01  1.01066E+00 -1.68668E-02
    9015.142     16.702   2.640  9.51263E-01  1.01183E+00 -6.05671E-02
    9015.953     17.512   2.680  9.26968E-01  1.01274E+00 -8.57711E-02
    9016.776     18.335   2.720  9.08451E-01  1.01338E+00 -1.04925E-01
    9017.611     19.171   2.760  8.95770E-01  1.01377E+00 -1.18002E-01
    9018.458     20.018   2.800  8.89264E-01  1.01396E+00 -1.24692E-01
    9019.318     20.877   2.840  8.87117E-01  1.01396E+00 -1.26841E-01
    9020.190     21.749   2.880  8.86022E-01  1.01374E+00 -1.27723E-01
    9021.074     22.633   2.920  8.82987E-01  1.01339E+00 -1.30398E-01
    9021.970     23.529   2.960  8.76696E-01  1.01287E+00 -1.36172E-01
    9022.878     24.437   3.000  8.67857E-01  1.01220E+00 -1.44343E-01
    9023.798     25.358   3.040  8.58087E-01  1.01143E+00 -1.53344E-01
    9024.731     26.291   3.080  8.48981E-01  1.01055E+00 -1.61566E-01
    9025.676     27.236   3.120  8.41896E-01  1.00957E+00 -1.67678E-01
    9026.633     28.193   3.160  8.37653E-01  1.00852E+00 -1.70867E-01
    9027.602     29.162   3.200  8.36824E-01  1.00739E+00 -1.70567E-01
    9028.584     30.143   3.240  8.39975E-01  1.00621E+00 -1.66237E-01
    9029.577     31.137   3.280  8.47136E-01  1.00499E+00 -1.57856E-01
    9030.583     32.143   3.320  8.58619E-01  1.00376E+00 -1.45137E-01
    9031.601     33.161   3.360  8.74815E-01  1.00247E+00 -1.27651E-01
    9032.631     34.191   3.400  8.95663E-01  1.00119E+00 -1.05526E-01
    9033.674     35.233   3.440  9.19758E-01  9.99889E-01 -8.01309E-02
    9034.728     36.288   3.480  9.44966E-01  9.98612E-01 -5.36455E-02
    9035.795     37.355   3.520  9.68854E-01  9.97340E-01 -2.84854E-02
    9036.874     38.434   3.560  9.89616E-01  9.96097E-01 -6.48036E-03
    9037.965     39.525   3.600  1.00668E+00  9.94865E-01  1.18192E-02
    9039.069     40.628   3.640  1.02058E+00  9.93668E-01  2.69085E-02
    9040.184     41.744   3.680  1.03207E+00  9.92509E-01  3.95638E-02
    9041.312     42.872   3.720  1.04188E+00  9.91390E-01  5.04906E-02
    9042.452     44.012   3.760  1.05031E+00  9.90314E-01  5.99949E-02
    9043.604     45.164   3.800  1.05696E+00  9.89303E-01  6.76570E-02
    9044.769     46.328   3.840  1.06079E+00  9.88338E-01  7.24534E-02
    9045.945     47.505   3.880  1.06072E+00  9.87420E-01  7.33000E-02
    9047.134     48.693   3.920  1.05589E+00  9.86572E-01  6.93211E-02
    9048.335     49.894   3.960  1.04589E+00  9.85775E-01  6.01192E-02
    9049.548     51.107   4.000  1.03136E+00  9.85070E-01  4.62873E-02
    9050.773     52.333   4.040  1.01412E+00  9.84397E-01  2.97253E-02
    9052.011     53.570   4.080  9.97302E-01  9.83817E-01  1.34854E-02
    9053.260     54.820   4.120  9.84183E-01  9.83287E-01  8.95472E-04
    9054.522     56.082   4.160  9.77480E-01  9.82810E-01 -5.32996E-03
    9055.796     57.356   4.200  9.78734E-01  9.82428E-01 -3.69368E-03
    9057.082     58.642   4.240  9.87633E-01  9.82098E-01  5.53504E-03
    9058.381     59.940   4.280  1.00202E+00  9.81820E-01  2.02001E-02
    9059.692     61.251   4.320  1.01858E+00  9.81634E-01  3.69451E-02
    9061.014     62.574   4.360  1.03405E+00  9.81500E-01  5.25460E-02
    9062.349     63.909   4.400  1.04639E+00  9.81416E-01  6.49713E-02
    9063.697     65.256   4.440  1.05468E+00  9.81400E-01  7.32837E-02
    9065.056     66.616   4.480  1.05820E+00  9.81454E-01  7.67474E-02
    9066.428     67.987   4.520  1.05614E+00  9.81533E-01  7.46037E-02
    9067.811     69.371   4.560  1.04855E+00  9.81680E-01  6.68655E-02
    9069.207     70.767   4.600  1.03673E+00  9.81893E-01  5.48409E-02
    9070.615     72.175   4.640  1.02309E+00  9.82129E-01  4.09610E-02
    9072.036     73.595   4.680  1.01041E+00  9.82428E-01  2.79795E-02
    9073.468     75.028   4.720  1.00089E+00  9.82768E-01  1.81265E-02
    9074.913     76.473   4.760  9.95662E-01  9.83146E-01  1.25164E-02
    9076.370     77.930   4.800  9.94498E-01  9.83539E-01  1.09587E-02
    9077.839     79.399   4.840  9.96341E-01  9.83989E-01  1.23517E-02
    9079.321     80.880   4.880  9.99791E-01  9.84452E-01  1.53393E-02
    9080.814     82.374   4.920  1.00355E+00  9.84924E-01  1.86230E-02
    9082.320     83.879   4.960  1.00641E+00  9.85449E-01  2.09610E-02
    9083.838     85.397   5.000  1.00719E+00  9.85959E-01  2.12325E-02
    9085.368     86.927   5.040  1.00500E+00  9.86495E-01  1.85094E-02
    9086.910     88.470   5.080  9.99227E-01  9.87037E-01  1.21893E-02
    9088.465     90.024   5.120  9.89547E-01  9.87603E-01  1.94461E-03
    9090.031     91.591   5.160  9.76066E-01  9.88146E-01 -1.20800E-02
    9091.610     93.170   5.200  9.59702E-01  9.88686E-01 -2.89838E-02
    9093.201     94.761   5.240  9.42069E-01  9.89223E-01 -4.71537E-02
    9094.804     96.364   5.280  9.24945E-01  9.89757E-01 -6.48124E-02
    9096.420     97.979   5.320  9.09605E-01  9.90284E-01 -8.06793E-02
    9098.047     99.607   5.360  8.96788E-01  9.90780E-01 -9.39914E-02
    9099.687    101.247   5.400  8.87017E-01  9.91243E-01 -1.04226E-01
    9101.339    102.899   5.440  8.80877E-01  9.91695E-01 -1.10818E-01
    9103.003    104.563   5.480  8.78909E-01  9.92135E-01 -1.13227E-01
    9104.680    106.239   5.520  8.81248E-01  9.92518E-01 -1.11270E-01
    9106.368    107.928   5.560  8.87709E-01  9.92886E-01 -1.05177E-01
    9108.069    109.629   5.600  8.97997E-01  9.93216E-01 -9.52185E-02
    9109.782    111.342   5.640  9.12311E-01  9.93507E-01 -8.11966E-02
    9111.507    113.067   5.680  9.31276E-01  9.93759E-01 -6.24826E-02
    9113.245    114.804   5.720  9.55327E-01  9.93969E-01 -3.86415E-02
    9114.994    116.554   5.760  9.83885E-01  9.94138E-01 -1.02531E-02
    9116.756    118.315   5.800  1.01461E+00  9.94267E-01  2.03447E-02
    9118.530    120.089   5.840  1.04355E+00  9.94352E-01  4.91970E-02
    9120.316    121.876   5.880  1.06669E+00  9.94372E-01  7.23179E-02
    9122.114    123.674   5.920  1.08199E+00  9.94371E-01  8.76179E-02
    9123.925    125.484   5.960  1.08943E+00  9.94300E-01  9.51328E-02
    9125.747    127.307   6.000  1.08965E+00  9.94155E-01  9.54921E-02
