# # comment:                                                     FEFF 9.9.1  
# # Source:
# # Structure
# # Reduced
# # space
# # abc:
# # angles:
# # sites:
# # POT  SCF 100  7.0000   0, screened core-hole, AFOLP (folp(0)= 1.150)
# # Abs   Z=29 Rmt= 1.221 Rnm= 1.301 K  shell
# # Pot 1 Z=56 Rmt= 1.958 Rnm= 2.012
# # Pot 2 Z=63 Rmt= 1.690 Rnm= 1.760
# # Pot 3 Z=29 Rmt= 1.221 Rnm= 1.301
# # Pot 4 Z= 8 Rmt= 1.058 Rnm= 1.110
# # Gam_ch=1.729E+00 H-L exch Vi= 0.000E+00 Vr= 0.000E+00
# # Mu=-8.008E+00eV kf=1.994E+00 Vint=-1.736E+01eV Rs_int= 1.819
# FMS rfms= 9.0000
# # PATH  Rmax=-1.000,  Keep_limit= 0.00, Heap_limit 0.00  Pwcrit= 2.50%
#  S02=0.950  Temp=   0.00  Debye_temp=   0.00  Global_sig2= 0.00000
#  Energy zero shift, vr, vi    0.00000E+00   0.00000E+00
#  Curved wave amplitude ratio filter   4.000%
#     file         sig2 tot  cw amp ratio   deg  nlegs   reff  inp sig2
#     0/   0 paths used
#  xsedge+ 50, used to normalize mu           2.4388E-04
#  -----------------------------------------------------------------------
#  omega    e    k    mu    mu0     chi     @#
    8985.023    -11.818  -1.000  4.34186E-02  5.87700E-02 -1.53513E-02
    8985.322    -11.519  -0.960  4.59488E-02  6.31728E-02 -1.72241E-02
    8985.608    -11.233  -0.920  4.87103E-02  6.80758E-02 -1.93656E-02
    8985.883    -10.958  -0.880  5.17350E-02  7.35534E-02 -2.18184E-02
    8986.145    -10.696  -0.840  5.50604E-02  7.96922E-02 -2.46319E-02
    8986.395    -10.446  -0.800  5.87301E-02  8.65930E-02 -2.78629E-02
    8986.632    -10.209  -0.760  6.27946E-02  9.43711E-02 -3.15765E-02
    8986.858     -9.983  -0.720  6.73117E-02  1.03157E-01 -3.58456E-02
    8987.071     -9.770  -0.680  7.23452E-02  1.13095E-01 -4.07503E-02
    8987.272     -9.568  -0.640  7.79634E-02  1.24338E-01 -4.63745E-02
    8987.461     -9.379  -0.600  8.42332E-02  1.37034E-01 -5.28009E-02
    8987.638     -9.203  -0.560  9.12117E-02  1.51312E-01 -6.01004E-02
    8987.803     -9.038  -0.520  9.89308E-02  1.67249E-01 -6.83179E-02
    8987.955     -8.886  -0.480  1.07378E-01  1.84828E-01 -7.74505E-02
    8988.095     -8.746  -0.440  1.16472E-01  2.03896E-01 -8.74245E-02
    8988.223     -8.617  -0.400  1.26044E-01  2.24119E-01 -9.80745E-02
    8988.339     -8.502  -0.360  1.35834E-01  2.44969E-01 -1.09135E-01
    8988.443     -8.398  -0.320  1.45509E-01  2.65765E-01 -1.20257E-01
    8988.534     -8.307  -0.280  1.54707E-01  2.85748E-01 -1.31041E-01
    8988.614     -8.227  -0.240  1.63096E-01  3.04190E-01 -1.41095E-01
    8988.681     -8.160  -0.200  1.70413E-01  3.20483E-01 -1.50070E-01
    8988.735     -8.105  -0.160  1.76488E-01  3.34183E-01 -1.57695E-01
    8988.778     -8.063  -0.120  1.81231E-01  3.45008E-01 -1.63777E-01
    8988.809     -8.032  -0.080  1.84611E-01  3.52804E-01 -1.68193E-01
    8988.833     -8.008   0.000  1.87286E-01  3.59066E-01 -1.71780E-01
    8988.888     -7.953   0.120  1.93204E-01  3.73173E-01 -1.79969E-01
    8988.930     -7.910   0.160  1.97766E-01  3.84133E-01 -1.86366E-01
    8988.985     -7.855   0.200  2.03478E-01  3.98118E-01 -1.94640E-01
    8989.052     -7.788   0.240  2.10169E-01  4.14908E-01 -2.04739E-01
    8989.132     -7.709   0.280  2.17598E-01  4.34154E-01 -2.16556E-01
    8989.223     -7.618   0.320  2.25468E-01  4.55367E-01 -2.29899E-01
    8989.327     -7.514   0.360  2.33445E-01  4.77878E-01 -2.44432E-01
    8989.443     -7.398   0.400  2.41282E-01  5.00994E-01 -2.59713E-01
    8989.571     -7.270   0.440  2.48935E-01  5.24147E-01 -2.75212E-01
    8989.711     -7.130   0.480  2.56500E-01  5.46802E-01 -2.90302E-01
    8989.863     -6.978   0.520  2.64314E-01  5.68657E-01 -3.04343E-01
    8990.028     -6.813   0.560  2.72867E-01  5.89571E-01 -3.16705E-01
    8990.205     -6.636   0.600  2.82626E-01  6.09488E-01 -3.26862E-01
    8990.394     -6.447   0.640  2.94192E-01  6.28473E-01 -3.34281E-01
    8990.595     -6.246   0.680  3.08281E-01  6.46612E-01 -3.38331E-01
    8990.808     -6.033   0.720  3.25971E-01  6.64011E-01 -3.38040E-01
    8991.034     -5.807   0.760  3.48540E-01  6.80770E-01 -3.32230E-01
    8991.271     -5.570   0.800  3.76789E-01  6.96982E-01 -3.20193E-01
    8991.521     -5.320   0.840  4.09668E-01  7.12724E-01 -3.03056E-01
    8991.783     -5.057   0.880  4.42724E-01  7.28039E-01 -2.85315E-01
    8992.058     -4.783   0.920  4.68459E-01  7.42991E-01 -2.74532E-01
    8992.344     -4.497   0.960  4.80619E-01  7.57613E-01 -2.76994E-01
    8992.643     -4.198   1.000  4.79922E-01  7.71886E-01 -2.91964E-01
    8992.954     -3.887   1.040  4.73552E-01  7.85862E-01 -3.12310E-01
    8993.277     -3.564   1.080  4.69197E-01  7.99522E-01 -3.30324E-01
    8993.612     -3.229   1.120  4.71700E-01  8.12840E-01 -3.41140E-01
    8993.960     -2.881   1.160  4.83474E-01  8.25849E-01 -3.42375E-01
    8994.319     -2.522   1.200  5.05723E-01  8.38495E-01 -3.32772E-01
    8994.691     -2.150   1.240  5.38480E-01  8.50781E-01 -3.12301E-01
    8995.075     -1.766   1.280  5.80100E-01  8.62686E-01 -2.82586E-01
    8995.471     -1.369   1.320  6.29719E-01  8.74189E-01 -2.44470E-01
    8995.880     -0.961   1.360  6.90953E-01  8.85248E-01 -1.94295E-01
    8996.301     -0.540   1.400  7.71046E-01  8.95902E-01 -1.24856E-01
    8996.733     -0.108   1.440  8.73974E-01  9.06088E-01 -3.21138E-02
    8997.178      0.337   1.480  9.90915E-01  9.15824E-01  7.50910E-02
    8997.636      0.795   1.520  1.10060E+00  9.25067E-01  1.75536E-01
    8998.105      1.264   1.560  1.17355E+00  9.33837E-01  2.39716E-01
    8998.587      1.746   1.600  1.19273E+00  9.42112E-01  2.50620E-01
    8999.080      2.239   1.640  1.19802E+00  9.49915E-01  2.48103E-01
    8999.586      2.745   1.680  1.26118E+00  9.57186E-01  3.03992E-01
    9000.104      3.264   1.720  1.41297E+00  9.63989E-01  4.48981E-01
    9000.635      3.794   1.760  1.59462E+00  9.70307E-01  6.24311E-01
    9001.177      4.336   1.800  1.67341E+00  9.76125E-01  6.97287E-01
    9001.732      4.891   1.840  1.59776E+00  9.81468E-01  6.16287E-01
    9002.299      5.458   1.880  1.45639E+00  9.86364E-01  4.70025E-01
    9002.878      6.037   1.920  1.33292E+00  9.90798E-01  3.42120E-01
    9003.469      6.629   1.960  1.24031E+00  9.94800E-01  2.45511E-01
    9004.073      7.232   2.000  1.17072E+00  9.98380E-01  1.72338E-01
    9004.689      7.848   2.040  1.12934E+00  1.00154E+00  1.27798E-01
    9005.316      8.476   2.080  1.11957E+00  1.00435E+00  1.15223E-01
    9005.957      9.116   2.120  1.11983E+00  1.00675E+00  1.13077E-01
    9006.609      9.768   2.160  1.09774E+00  1.00884E+00  8.89062E-02
    9007.273     10.432   2.200  1.04683E+00  1.01059E+00  3.62480E-02
    9007.950     11.109   2.240  9.95447E-01  1.01201E+00 -1.65664E-02
    9008.639     11.798   2.280  9.65221E-01  1.01317E+00 -4.79495E-02
    9009.340     12.499   2.320  9.61184E-01  1.01405E+00 -5.28616E-02
    9010.053     13.212   2.360  9.79166E-01  1.01469E+00 -3.55244E-02
    9010.778     13.938   2.400  1.01612E+00  1.01510E+00  1.02099E-03
    9011.516     14.675   2.440  1.06150E+00  1.01529E+00  4.62085E-02
    9012.266     15.425   2.480  1.09392E+00  1.01531E+00  7.86119E-02
    9013.028     16.187   2.520  1.11187E+00  1.01515E+00  9.67179E-02
    9013.802     16.961   2.560  1.11653E+00  1.01483E+00  1.01698E-01
    9014.588     17.748   2.600  1.11045E+00  1.01439E+00  9.60611E-02
    9015.387     18.546   2.640  1.09692E+00  1.01381E+00  8.31080E-02
    9016.198     19.357   2.680  1.07890E+00  1.01315E+00  6.57515E-02
    9017.021     20.180   2.720  1.05852E+00  1.01237E+00  4.61450E-02
    9017.856     21.015   2.760  1.03689E+00  1.01154E+00  2.53591E-02
    9018.703     21.862   2.800  1.01382E+00  1.01065E+00  3.17663E-03
    9019.563     22.722   2.840  9.88742E-01  1.00969E+00 -2.09504E-02
    9020.434     23.594   2.880  9.61680E-01  1.00872E+00 -4.70398E-02
    9021.318     24.478   2.920  9.33604E-01  1.00771E+00 -7.41071E-02
    9022.215     25.374   2.960  9.06728E-01  1.00670E+00 -9.99668E-02
    9023.123     26.282   3.000  8.83658E-01  1.00568E+00 -1.22017E-01
    9024.043     27.202   3.040  8.66172E-01  1.00466E+00 -1.38483E-01
    9024.976     28.135   3.080  8.54886E-01  1.00364E+00 -1.48754E-01
    9025.921     29.080   3.120  8.49743E-01  1.00266E+00 -1.52913E-01
    9026.878     30.037   3.160  8.49400E-01  1.00171E+00 -1.52307E-01
    9027.847     31.006   3.200  8.52345E-01  1.00079E+00 -1.48450E-01
    9028.829     31.988   3.240  8.57191E-01  9.99921E-01 -1.42730E-01
    9029.822     32.981   3.280  8.62864E-01  9.99069E-01 -1.36205E-01
    9030.828     33.987   3.320  8.69089E-01  9.98302E-01 -1.29213E-01
    9031.846     35.005   3.360  8.76257E-01  9.97560E-01 -1.21303E-01
    9032.876     36.036   3.400  8.85481E-01  9.96888E-01 -1.11407E-01
    9033.919     37.078   3.440  8.97211E-01  9.96287E-01 -9.90756E-02
    9034.973     38.133   3.480  9.11453E-01  9.95735E-01 -8.42816E-02
    9036.040     39.199   3.520  9.27780E-01  9.95234E-01 -6.74539E-02
    9037.119     40.278   3.560  9.45511E-01  9.94829E-01 -4.93178E-02
    9038.210     41.370   3.600  9.63822E-01  9.94476E-01 -3.06547E-02
    9039.314     42.473   3.640  9.81875E-01  9.94177E-01 -1.23022E-02
    9040.429     43.588   3.680  9.98885E-01  9.93973E-01  4.91150E-03
    9041.557     44.716   3.720  1.01389E+00  9.93824E-01  2.00672E-02
    9042.697     45.856   3.760  1.02619E+00  9.93749E-01  3.24427E-02
    9043.849     47.008   3.800  1.03526E+00  9.93727E-01  4.15338E-02
    9045.013     48.173   3.840  1.04084E+00  9.93799E-01  4.70365E-02
    9046.190     49.349   3.880  1.04311E+00  9.93902E-01  4.92129E-02
    9047.379     50.538   3.920  1.04289E+00  9.94096E-01  4.87915E-02
    9048.580     51.739   3.960  1.04110E+00  9.94320E-01  4.67848E-02
    9049.793     52.952   4.000  1.03889E+00  9.94634E-01  4.42563E-02
    9051.018     54.177   4.040  1.03698E+00  9.94975E-01  4.20050E-02
    9052.255     55.415   4.080  1.03571E+00  9.95384E-01  4.03309E-02
    9053.505     56.664   4.120  1.03484E+00  9.95859E-01  3.89810E-02
    9054.767     57.926   4.160  1.03397E+00  9.96355E-01  3.76124E-02
    9056.041     59.200   4.200  1.03300E+00  9.96892E-01  3.61116E-02
    9057.327     60.486   4.240  1.03236E+00  9.97489E-01  3.48737E-02
    9058.626     61.785   4.280  1.03273E+00  9.98103E-01  3.46260E-02
    9059.936     63.096   4.320  1.03469E+00  9.98753E-01  3.59407E-02
    9061.259     64.418   4.360  1.03834E+00  9.99437E-01  3.89071E-02
    9062.594     65.753   4.400  1.04346E+00  1.00013E+00  4.33267E-02
    9063.941     67.101   4.440  1.05000E+00  1.00086E+00  4.91467E-02
    9065.301     68.460   4.480  1.05797E+00  1.00161E+00  5.63575E-02
    9066.672     69.832   4.520  1.06699E+00  1.00235E+00  6.46432E-02
    9068.056     71.215   4.560  1.07611E+00  1.00311E+00  7.29944E-02
    9069.452     72.611   4.600  1.08352E+00  1.00388E+00  7.96448E-02
    9070.860     74.020   4.640  1.08728E+00  1.00464E+00  8.26366E-02
    9072.281     75.440   4.680  1.08605E+00  1.00540E+00  8.06521E-02
    9073.713     76.872   4.720  1.07964E+00  1.00616E+00  7.34848E-02
    9075.158     78.317   4.760  1.06873E+00  1.00688E+00  6.18503E-02
    9076.615     79.774   4.800  1.05462E+00  1.00760E+00  4.70237E-02
    9078.084     81.243   4.840  1.03877E+00  1.00829E+00  3.04841E-02
    9079.565     82.725   4.880  1.02269E+00  1.00896E+00  1.37305E-02
    9081.059     84.218   4.920  1.00771E+00  1.00962E+00 -1.91480E-03
    9082.565     85.724   4.960  9.94696E-01  1.01023E+00 -1.55310E-02
    9084.083     87.242   5.000  9.84196E-01  1.01081E+00 -2.66173E-02
    9085.613     88.772   5.040  9.76282E-01  1.01136E+00 -3.50792E-02
    9087.155     90.314   5.080  9.70700E-01  1.01187E+00 -4.11663E-02
    9088.709     91.869   5.120  9.66974E-01  1.01231E+00 -4.53332E-02
    9090.276     93.435   5.160  9.64590E-01  1.01273E+00 -4.81382E-02
    9091.855     95.014   5.200  9.63033E-01  1.01311E+00 -5.00754E-02
    9093.446     96.605   5.240  9.61897E-01  1.01344E+00 -5.15452E-02
    9095.049     98.208   5.280  9.60977E-01  1.01371E+00 -5.27304E-02
    9096.665     99.824   5.320  9.60417E-01  1.01393E+00 -5.35102E-02
    9098.292    101.451   5.360  9.60463E-01  1.01410E+00 -5.36372E-02
    9099.932    103.091   5.400  9.61382E-01  1.01420E+00 -5.28231E-02
    9101.584    104.743   5.440  9.63298E-01  1.01429E+00 -5.09888E-02
    9103.248    106.407   5.480  9.65963E-01  1.01430E+00 -4.83371E-02
    9104.925    108.084   5.520  9.69028E-01  1.01426E+00 -4.52361E-02
    9106.613    109.772   5.560  9.71986E-01  1.01416E+00 -4.21736E-02
    9108.314    111.473   5.600  9.74342E-01  1.01401E+00 -3.96675E-02
    9110.027    113.186   5.640  9.75790E-01  1.01381E+00 -3.80245E-02
    9111.752    114.911   5.680  9.76422E-01  1.01358E+00 -3.71553E-02
    9113.490    116.649   5.720  9.76520E-01  1.01330E+00 -3.67771E-02
    9115.239    118.398   5.760  9.76549E-01  1.01295E+00 -3.64012E-02
    9117.001    120.160   5.800  9.77290E-01  1.01258E+00 -3.52953E-02
    9118.775    121.934   5.840  9.79633E-01  1.01216E+00 -3.25228E-02
    9120.561    123.720   5.880  9.84364E-01  1.01169E+00 -2.73239E-02
    9122.359    125.518   5.920  9.91574E-01  1.01119E+00 -1.96120E-02
    9124.170    127.329   5.960  1.00058E+00  1.01068E+00 -1.00931E-02
    9125.992    129.152   6.000  1.01028E+00  1.01008E+00  2.06620E-04
