# # comment:                                                     FEFF 9.9.1  
# # Source:
# # Structure
# # Reduced
# # space
# # abc:
# # angles:
# # sites:
# # POT  SCF 100  7.0000   0, screened core-hole, AFOLP (folp(0)= 1.150)
# # Abs   Z=29 Rmt= 1.296 Rnm= 1.356 K  shell
# # Pot 1 Z=29 Rmt= 1.296 Rnm= 1.356
# # Pot 2 Z=51 Rmt= 1.338 Rnm= 1.472
# # Pot 3 Z= 8 Rmt= 1.003 Rnm= 1.085
# # Gam_ch=1.729E+00 H-L exch Vi= 0.000E+00 Vr= 0.000E+00
# # Mu=-5.086E+00eV kf=2.246E+00 Vint=-1.564E+01eV Rs_int= 1.615
# FMS rfms= 9.0000
# # PATH  Rmax=-1.000,  Keep_limit= 0.00, Heap_limit 0.00  Pwcrit= 2.50%
#  S02=0.950  Temp=   0.00  Debye_temp=   0.00  Global_sig2= 0.00000
#  Energy zero shift, vr, vi    0.00000E+00   0.00000E+00
#  Curved wave amplitude ratio filter   4.000%
#     file         sig2 tot  cw amp ratio   deg  nlegs   reff  inp sig2
#     0/   0 paths used
#  xsedge+ 50, used to normalize mu           2.4607E-04
#  -----------------------------------------------------------------------
#  omega    e    k    mu    mu0     chi     @#
    8983.309     -8.896  -1.000  4.24954E-02  5.75370E-02 -1.50416E-02
    8983.607     -8.597  -0.960  4.47469E-02  6.18566E-02 -1.71096E-02
    8983.894     -8.311  -0.920  4.71677E-02  6.66697E-02 -1.95020E-02
    8984.168     -8.036  -0.880  4.97767E-02  7.20505E-02 -2.22738E-02
    8984.430     -7.774  -0.840  5.25954E-02  7.80849E-02 -2.54895E-02
    8984.680     -7.524  -0.800  5.56487E-02  8.48732E-02 -2.92245E-02
    8984.918     -7.287  -0.760  5.89644E-02  9.25301E-02 -3.35657E-02
    8985.144     -7.061  -0.720  6.25738E-02  1.01186E-01 -3.86121E-02
    8985.357     -6.848  -0.680  6.65108E-02  1.10984E-01 -4.44733E-02
    8985.558     -6.647  -0.640  7.08100E-02  1.22076E-01 -5.12664E-02
    8985.747     -6.458  -0.600  7.55047E-02  1.34612E-01 -5.91075E-02
    8985.924     -6.281  -0.560  8.06211E-02  1.48720E-01 -6.80987E-02
    8986.088     -6.116  -0.520  8.61704E-02  1.64476E-01 -7.83055E-02
    8986.241     -5.964  -0.480  9.21388E-02  1.81866E-01 -8.97273E-02
    8986.381     -5.824  -0.440  9.84743E-02  2.00737E-01 -1.02263E-01
    8986.509     -5.696  -0.400  1.05077E-01  2.20756E-01 -1.15679E-01
    8986.625     -5.580  -0.360  1.11794E-01  2.41401E-01 -1.29606E-01
    8986.729     -5.476  -0.320  1.18432E-01  2.61992E-01 -1.43560E-01
    8986.820     -5.385  -0.280  1.24774E-01  2.81775E-01 -1.57001E-01
    8986.899     -5.305  -0.240  1.30612E-01  3.00028E-01 -1.69416E-01
    8986.966     -5.238  -0.200  1.35768E-01  3.16147E-01 -1.80379E-01
    8987.021     -5.183  -0.160  1.40112E-01  3.29696E-01 -1.89583E-01
    8987.064     -5.141  -0.120  1.43558E-01  3.40396E-01 -1.96838E-01
    8987.094     -5.110  -0.080  1.46054E-01  3.48099E-01 -2.02045E-01
    8987.119     -5.086   0.000  1.48085E-01  3.54282E-01 -2.06197E-01
    8987.174     -5.031   0.120  1.52579E-01  3.68226E-01 -2.15647E-01
    8987.216     -4.988   0.160  1.56036E-01  3.79028E-01 -2.22992E-01
    8987.271     -4.934   0.200  1.60478E-01  3.92813E-01 -2.32335E-01
    8987.338     -4.866   0.240  1.65848E-01  4.09355E-01 -2.43507E-01
    8987.417     -4.787   0.280  1.72154E-01  4.28315E-01 -2.56161E-01
    8987.509     -4.696   0.320  1.79312E-01  4.49133E-01 -2.69821E-01
    8987.612     -4.592   0.360  1.87353E-01  4.71171E-01 -2.83818E-01
    8987.728     -4.476   0.400  1.96387E-01  4.93749E-01 -2.97362E-01
    8987.856     -4.348   0.440  2.06661E-01  5.16252E-01 -3.09591E-01
    8987.996     -4.208   0.480  2.18418E-01  5.38181E-01 -3.19763E-01
    8988.149     -4.056   0.520  2.31872E-01  5.59210E-01 -3.27338E-01
    8988.313     -3.891   0.560  2.46877E-01  5.79202E-01 -3.32325E-01
    8988.490     -3.714   0.600  2.62730E-01  5.98141E-01 -3.35411E-01
    8988.679     -3.525   0.640  2.78243E-01  6.16055E-01 -3.37812E-01
    8988.880     -3.324   0.680  2.92396E-01  6.33059E-01 -3.40663E-01
    8989.094     -3.111   0.720  3.05037E-01  6.49261E-01 -3.44224E-01
    8989.319     -2.885   0.760  3.16650E-01  6.64789E-01 -3.48139E-01
    8989.557     -2.648   0.800  3.27476E-01  6.79723E-01 -3.52248E-01
    8989.807     -2.398   0.840  3.37354E-01  6.94166E-01 -3.56813E-01
    8990.069     -2.135   0.880  3.46639E-01  7.08187E-01 -3.61548E-01
    8990.343     -1.861   0.920  3.56245E-01  7.21839E-01 -3.65594E-01
    8990.630     -1.575   0.960  3.66953E-01  7.35140E-01 -3.68188E-01
    8990.929     -1.276   1.000  3.79616E-01  7.48159E-01 -3.68544E-01
    8991.240     -0.965   1.040  3.96221E-01  7.60914E-01 -3.64693E-01
    8991.563     -0.642   1.080  4.20206E-01  7.73371E-01 -3.53166E-01
    8991.898     -0.307   1.120  4.55810E-01  7.85573E-01 -3.29763E-01
    8992.245      0.041   1.160  5.07681E-01  7.97518E-01 -2.89836E-01
    8992.605      0.400   1.200  5.81696E-01  8.09195E-01 -2.27499E-01
    8992.977      0.772   1.240  6.80500E-01  8.20571E-01 -1.40071E-01
    8993.361      1.156   1.280  7.91300E-01  8.31671E-01 -4.03711E-02
    8993.757      1.553   1.320  8.90300E-01  8.42458E-01  4.78416E-02
    8994.166      1.961   1.360  9.76974E-01  8.52934E-01  1.24040E-01
    8994.586      2.382   1.400  1.07682E+00  8.63077E-01  2.13741E-01
    8995.019      2.814   1.440  1.20161E+00  8.72886E-01  3.28725E-01
    8995.464      3.259   1.480  1.33837E+00  8.82322E-01  4.56049E-01
    8995.921      3.717   1.520  1.44724E+00  8.91421E-01  5.55821E-01
    8996.391      4.186   1.560  1.48437E+00  9.00122E-01  5.84245E-01
    8996.872      4.668   1.600  1.46455E+00  9.08446E-01  5.56105E-01
    8997.366      5.161   1.640  1.44219E+00  9.16391E-01  5.25803E-01
    8997.872      5.667   1.680  1.44339E+00  9.23938E-01  5.19455E-01
    8998.390      6.186   1.720  1.45182E+00  9.31087E-01  5.20733E-01
    8998.920      6.716   1.760  1.44971E+00  9.37839E-01  5.11874E-01
    8999.463      7.258   1.800  1.45374E+00  9.44197E-01  5.09542E-01
    9000.018      7.813   1.840  1.49502E+00  9.50184E-01  5.44836E-01
    9000.585      8.380   1.880  1.57180E+00  9.55763E-01  6.16035E-01
    9001.164      8.959   1.920  1.60743E+00  9.60957E-01  6.46472E-01
    9001.755      9.550   1.960  1.52267E+00  9.65793E-01  5.56879E-01
    9002.359     10.154   2.000  1.35815E+00  9.70253E-01  3.87898E-01
    9002.974     10.770   2.040  1.19731E+00  9.74344E-01  2.22962E-01
    9003.602     11.398   2.080  1.07627E+00  9.78114E-01  9.81587E-02
    9004.242     12.038   2.120  9.97313E-01  9.81529E-01  1.57849E-02
    9004.895     12.690   2.160  9.55338E-01  9.84634E-01 -2.92953E-02
    9005.559     13.354   2.200  9.40413E-01  9.87439E-01 -4.70253E-02
    9006.236     14.031   2.240  9.37762E-01  9.89950E-01 -5.21876E-02
    9006.924     14.720   2.280  9.39447E-01  9.92175E-01 -5.27281E-02
    9007.626     15.421   2.320  9.47366E-01  9.94142E-01 -4.67761E-02
    9008.339     16.134   2.360  9.60824E-01  9.95858E-01 -3.50332E-02
    9009.064     16.860   2.400  9.63386E-01  9.97331E-01 -3.39450E-02
    9009.802     17.597   2.440  9.47281E-01  9.98590E-01 -5.13095E-02
    9010.552     18.347   2.480  9.35431E-01  9.99663E-01 -6.42324E-02
    9011.314     19.109   2.520  9.50095E-01  1.00054E+00 -5.04419E-02
    9012.088     19.883   2.560  9.75855E-01  1.00122E+00 -2.53625E-02
    9012.874     20.670   2.600  9.89381E-01  1.00175E+00 -1.23740E-02
    9013.673     21.468   2.640  9.94501E-01  1.00213E+00 -7.63323E-03
    9014.483     22.279   2.680  9.74211E-01  1.00240E+00 -2.81940E-02
    9015.306     23.102   2.720  9.27422E-01  1.00253E+00 -7.51108E-02
    9016.142     23.937   2.760  8.78014E-01  1.00256E+00 -1.24548E-01
    9016.989     24.784   2.800  8.36516E-01  1.00248E+00 -1.65964E-01
    9017.848     25.644   2.840  8.02948E-01  1.00233E+00 -1.99386E-01
    9018.720     26.516   2.880  7.77255E-01  1.00209E+00 -2.24833E-01
    9019.604     27.400   2.920  7.60623E-01  1.00181E+00 -2.41185E-01
    9020.500     28.296   2.960  7.53389E-01  1.00146E+00 -2.48071E-01
    9021.408     29.204   3.000  7.54352E-01  1.00107E+00 -2.46717E-01
    9022.329     30.124   3.040  7.61783E-01  1.00064E+00 -2.38855E-01
    9023.262     31.057   3.080  7.73580E-01  1.00019E+00 -2.26612E-01
    9024.207     32.002   3.120  7.87827E-01  9.99718E-01 -2.11891E-01
    9025.164     32.959   3.160  8.03704E-01  9.99256E-01 -1.95552E-01
    9026.133     33.928   3.200  8.22107E-01  9.98768E-01 -1.76661E-01
    9027.114     34.910   3.240  8.45399E-01  9.98280E-01 -1.52880E-01
    9028.108     35.903   3.280  8.75308E-01  9.97793E-01 -1.22486E-01
    9029.114     36.909   3.320  9.12386E-01  9.97332E-01 -8.49460E-02
    9030.132     37.927   3.360  9.54928E-01  9.96877E-01 -4.19493E-02
    9031.162     38.957   3.400  9.98579E-01  9.96452E-01  2.12727E-03
    9032.204     40.000   3.440  1.03787E+00  9.96037E-01  4.18336E-02
    9033.259     41.054   3.480  1.06861E+00  9.95655E-01  7.29523E-02
    9034.326     42.121   3.520  1.08872E+00  9.95309E-01  9.34116E-02
    9035.405     43.200   3.560  1.09850E+00  9.94998E-01  1.03501E-01
    9036.496     44.291   3.600  1.10023E+00  9.94702E-01  1.05531E-01
    9037.599     45.395   3.640  1.09723E+00  9.94464E-01  1.02767E-01
    9038.715     46.510   3.680  1.09263E+00  9.94245E-01  9.83890E-02
    9039.843     47.638   3.720  1.08925E+00  9.94086E-01  9.51625E-02
    9040.983     48.778   3.760  1.08868E+00  9.93944E-01  9.47354E-02
    9042.135     49.930   3.800  1.09151E+00  9.93862E-01  9.76470E-02
    9043.299     51.095   3.840  1.09736E+00  9.93798E-01  1.03558E-01
    9044.476     52.271   3.880  1.10521E+00  9.93795E-01  1.11416E-01
    9045.664     53.460   3.920  1.11298E+00  9.93809E-01  1.19168E-01
    9046.865     54.661   3.960  1.11781E+00  9.93882E-01  1.23928E-01
    9048.078     55.874   4.000  1.11723E+00  9.93971E-01  1.23264E-01
    9049.304     57.099   4.040  1.11063E+00  9.94097E-01  1.16536E-01
    9050.541     58.337   4.080  1.09915E+00  9.94260E-01  1.04892E-01
    9051.791     59.586   4.120  1.08466E+00  9.94459E-01  9.01966E-02
    9053.053     60.848   4.160  1.06878E+00  9.94693E-01  7.40855E-02
    9054.327     62.122   4.200  1.05262E+00  9.94940E-01  5.76854E-02
    9055.613     63.408   4.240  1.03720E+00  9.95219E-01  4.19823E-02
    9056.911     64.707   4.280  1.02354E+00  9.95530E-01  2.80109E-02
    9058.222     66.018   4.320  1.01244E+00  9.95848E-01  1.65908E-02
    9059.545     67.340   4.360  1.00421E+00  9.96175E-01  8.03951E-03
    9060.880     68.675   4.400  9.98705E-01  9.96532E-01  2.17274E-03
    9062.227     70.023   4.440  9.95222E-01  9.96919E-01 -1.69673E-03
    9063.587     71.382   4.480  9.92568E-01  9.97309E-01 -4.74162E-03
    9064.958     72.754   4.520  9.89365E-01  9.97702E-01 -8.33640E-03
    9066.342     74.137   4.560  9.84584E-01  9.98096E-01 -1.35119E-02
    9067.738     75.533   4.600  9.78189E-01  9.98488E-01 -2.02997E-02
    9069.146     76.941   4.640  9.71186E-01  9.98881E-01 -2.76955E-02
    9070.566     78.362   4.680  9.64917E-01  9.99272E-01 -3.43552E-02
    9071.999     79.794   4.720  9.60287E-01  9.99660E-01 -3.93728E-02
    9073.444     81.239   4.760  9.57378E-01  1.00005E+00 -4.26671E-02
    9074.901     82.696   4.800  9.55510E-01  1.00043E+00 -4.49162E-02
    9076.370     84.165   4.840  9.53806E-01  1.00078E+00 -4.69727E-02
    9077.851     85.647   4.880  9.51906E-01  1.00112E+00 -4.92167E-02
    9079.345     87.140   4.920  9.49916E-01  1.00146E+00 -5.15431E-02
    9080.850     88.646   4.960  9.48099E-01  1.00177E+00 -5.36662E-02
    9082.368     90.164   5.000  9.46822E-01  1.00206E+00 -5.52361E-02
    9083.898     91.694   5.040  9.46436E-01  1.00232E+00 -5.58820E-02
    9085.441     93.236   5.080  9.47267E-01  1.00254E+00 -5.52767E-02
    9086.995     94.791   5.120  9.49458E-01  1.00276E+00 -5.32983E-02
    9088.562     96.357   5.160  9.52790E-01  1.00293E+00 -5.01433E-02
    9090.141     97.936   5.200  9.56633E-01  1.00307E+00 -4.64417E-02
    9091.732     99.527   5.240  9.59873E-01  1.00320E+00 -4.33293E-02
    9093.335    101.130   5.280  9.61205E-01  1.00329E+00 -4.20869E-02
    9094.950    102.746   5.320  9.59875E-01  1.00334E+00 -4.34685E-02
    9096.578    104.373   5.360  9.56292E-01  1.00336E+00 -4.70654E-02
    9098.218    106.013   5.400  9.52067E-01  1.00333E+00 -5.12665E-02
    9099.870    107.665   5.440  9.49466E-01  1.00330E+00 -5.38291E-02
    9101.534    109.329   5.480  9.50493E-01  1.00322E+00 -5.27268E-02
    9103.210    111.006   5.520  9.56320E-01  1.00311E+00 -4.67860E-02
    9104.899    112.694   5.560  9.67103E-01  1.00295E+00 -3.58501E-02
    9106.600    114.395   5.600  9.82108E-01  1.00276E+00 -2.06519E-02
    9108.313    116.108   5.640  9.99944E-01  1.00253E+00 -2.58743E-03
    9110.038    117.833   5.680  1.01892E+00  1.00229E+00  1.66275E-02
    9111.775    119.571   5.720  1.03737E+00  1.00201E+00  3.53610E-02
    9113.525    121.320   5.760  1.05411E+00  1.00170E+00  5.24094E-02
    9115.287    123.082   5.800  1.06848E+00  1.00135E+00  6.71305E-02
    9117.060    124.856   5.840  1.08020E+00  1.00099E+00  7.92122E-02
    9118.847    126.642   5.880  1.08883E+00  1.00060E+00  8.82270E-02
    9120.645    128.440   5.920  1.09357E+00  1.00018E+00  9.33878E-02
    9122.455    130.251   5.960  1.09338E+00  9.99763E-01  9.36142E-02
    9124.278    132.073   6.000  1.08696E+00  9.99294E-01  8.76684E-02
