# # comment:                                                     FEFF 9.9.1  
# # Source:
# # Structure
# # Reduced
# # space
# # abc:
# # angles:
# # sites:
# # POT  SCF 100  7.0000   0, screened core-hole, AFOLP (folp(0)= 1.150)
# # Abs   Z=29 Rmt= 1.294 Rnm= 1.359 K  shell
# # Pot 1 Z= 3 Rmt= 1.288 Rnm= 1.359
# # Pot 2 Z=29 Rmt= 1.267 Rnm= 1.351
# # Pot 3 Z=15 Rmt= 0.937 Rnm= 1.156
# # Pot 4 Z= 8 Rmt= 0.903 Rnm= 1.048
# # Gam_ch=1.729E+00 H-L exch Vi= 0.000E+00 Vr= 0.000E+00
# # Mu=-6.617E+00eV kf=2.414E+00 Vint=-1.682E+01eV Rs_int= 1.503
# FMS rfms= 9.0000
# # PATH  Rmax=-1.000,  Keep_limit= 0.00, Heap_limit 0.00  Pwcrit= 2.50%
#  S02=0.950  Temp=   0.00  Debye_temp=   0.00  Global_sig2= 0.00000
#  Energy zero shift, vr, vi    0.00000E+00   0.00000E+00
#  Curved wave amplitude ratio filter   4.000%
#     file         sig2 tot  cw amp ratio   deg  nlegs   reff  inp sig2
#     0/   0 paths used
#  xsedge+ 50, used to normalize mu           2.4816E-04
#  -----------------------------------------------------------------------
#  omega    e    k    mu    mu0     chi     @#
    8983.369    -10.427  -1.000  3.99411E-02  5.28602E-02 -1.29191E-02
    8983.667    -10.129  -0.960  4.20611E-02  5.67049E-02 -1.46438E-02
    8983.954     -9.842  -0.920  4.43371E-02  6.09797E-02 -1.66426E-02
    8984.228     -9.568  -0.880  4.67843E-02  6.57481E-02 -1.89638E-02
    8984.490     -9.306  -0.840  4.94198E-02  7.10845E-02 -2.16647E-02
    8984.740     -9.056  -0.800  5.22624E-02  7.70749E-02 -2.48125E-02
    8984.978     -8.818  -0.760  5.53327E-02  8.38180E-02 -2.84854E-02
    8985.203     -8.592  -0.720  5.86528E-02  9.14258E-02 -3.27730E-02
    8985.417     -8.379  -0.680  6.22459E-02  1.00021E-01 -3.77754E-02
    8985.618     -8.178  -0.640  6.61346E-02  1.09735E-01 -4.36001E-02
    8985.807     -7.989  -0.600  7.03392E-02  1.20694E-01 -5.03545E-02
    8985.984     -7.812  -0.560  7.48741E-02  1.33008E-01 -5.81339E-02
    8986.148     -7.648  -0.520  7.97422E-02  1.46743E-01 -6.70005E-02
    8986.301     -7.495  -0.480  8.49283E-02  1.61884E-01 -7.69557E-02
    8986.441     -7.355  -0.440  9.03909E-02  1.78299E-01 -8.79078E-02
    8986.569     -7.227  -0.400  9.60555E-02  1.95700E-01 -9.96444E-02
    8986.685     -7.111  -0.360  1.01811E-01  2.13636E-01 -1.11825E-01
    8986.788     -7.008  -0.320  1.07514E-01  2.31521E-01 -1.24007E-01
    8986.880     -6.916  -0.280  1.13001E-01  2.48703E-01 -1.35702E-01
    8986.959     -6.837  -0.240  1.18107E-01  2.64559E-01 -1.46452E-01
    8987.026     -6.770  -0.200  1.22678E-01  2.78566E-01 -1.55889E-01
    8987.081     -6.715  -0.160  1.26584E-01  2.90344E-01 -1.63760E-01
    8987.124     -6.672  -0.120  1.29728E-01  2.99650E-01 -1.69922E-01
    8987.154     -6.642  -0.080  1.32036E-01  3.06352E-01 -1.74316E-01
    8987.179     -6.617   0.000  1.33952E-01  3.11735E-01 -1.77783E-01
    8987.233     -6.563   0.120  1.38234E-01  3.23871E-01 -1.85637E-01
    8987.276     -6.520   0.160  1.41558E-01  3.33290E-01 -1.91732E-01
    8987.331     -6.465   0.200  1.45885E-01  3.45317E-01 -1.99432E-01
    8987.398     -6.398   0.240  1.51211E-01  3.59763E-01 -2.08553E-01
    8987.477     -6.319   0.280  1.57560E-01  3.76327E-01 -2.18767E-01
    8987.569     -6.227   0.320  1.64941E-01  3.94570E-01 -2.29629E-01
    8987.672     -6.124   0.360  1.73313E-01  4.13954E-01 -2.40640E-01
    8987.788     -6.008   0.400  1.82674E-01  4.33883E-01 -2.51210E-01
    8987.916     -5.880   0.440  1.92990E-01  4.53836E-01 -2.60846E-01
    8988.056     -5.740   0.480  2.04323E-01  4.73407E-01 -2.69084E-01
    8988.209     -5.587   0.520  2.16776E-01  4.92340E-01 -2.75565E-01
    8988.373     -5.423   0.560  2.30548E-01  5.10479E-01 -2.79932E-01
    8988.550     -5.246   0.600  2.46127E-01  5.27834E-01 -2.81708E-01
    8988.739     -5.057   0.640  2.64223E-01  5.44446E-01 -2.80223E-01
    8988.940     -4.856   0.680  2.85672E-01  5.60411E-01 -2.74739E-01
    8989.154     -4.642   0.720  3.11030E-01  5.75822E-01 -2.64792E-01
    8989.379     -4.417   0.760  3.40081E-01  5.90768E-01 -2.50687E-01
    8989.617     -4.179   0.800  3.71982E-01  6.05332E-01 -2.33349E-01
    8989.867     -3.929   0.840  4.05708E-01  6.19623E-01 -2.13915E-01
    8990.129     -3.667   0.880  4.40221E-01  6.33678E-01 -1.93457E-01
    8990.403     -3.393   0.920  4.75067E-01  6.47537E-01 -1.72470E-01
    8990.690     -3.106   0.960  5.10694E-01  6.61251E-01 -1.50556E-01
    8990.988     -2.807   1.000  5.46517E-01  6.74860E-01 -1.28343E-01
    8991.299     -2.496   1.040  5.78349E-01  6.88335E-01 -1.09986E-01
    8991.622     -2.173   1.080  5.99316E-01  7.01698E-01 -1.02382E-01
    8991.958     -1.838   1.120  6.04549E-01  7.14966E-01 -1.10417E-01
    8992.305     -1.491   1.160  5.97207E-01  7.28129E-01 -1.30921E-01
    8992.665     -1.131   1.200  5.87994E-01  7.41154E-01 -1.53160E-01
    8993.037     -0.759   1.240  5.86207E-01  7.54043E-01 -1.67837E-01
    8993.421     -0.375   1.280  5.94673E-01  7.66779E-01 -1.72106E-01
    8993.817      0.021   1.320  6.14808E-01  7.79337E-01 -1.64529E-01
    8994.225      0.430   1.360  6.50177E-01  7.91694E-01 -1.41516E-01
    8994.646      0.850   1.400  7.01317E-01  8.03844E-01 -1.02527E-01
    8995.079      1.283   1.440  7.59837E-01  8.15761E-01 -5.59237E-02
    8995.524      1.728   1.480  8.15644E-01  8.27420E-01 -1.17753E-02
    8995.981      2.185   1.520  8.73227E-01  8.38792E-01  3.44347E-02
    8996.450      2.655   1.560  9.45321E-01  8.49870E-01  9.54514E-02
    8996.932      3.136   1.600  1.02397E+00  8.60627E-01  1.63344E-01
    8997.426      3.630   1.640  1.08399E+00  8.71035E-01  2.12954E-01
    8997.932      4.136   1.680  1.11873E+00  8.81091E-01  2.37643E-01
    8998.450      4.654   1.720  1.14496E+00  8.90788E-01  2.54167E-01
    8998.980      5.184   1.760  1.17872E+00  9.00120E-01  2.78598E-01
    8999.523      5.727   1.800  1.23074E+00  9.09044E-01  3.21697E-01
    9000.078      6.282   1.840  1.29529E+00  9.17576E-01  3.77715E-01
    9000.645      6.849   1.880  1.34879E+00  9.25693E-01  4.23095E-01
    9001.224      7.428   1.920  1.38471E+00  9.33393E-01  4.51320E-01
    9001.815      8.019   1.960  1.40852E+00  9.40698E-01  4.67825E-01
    9002.418      8.623   2.000  1.40344E+00  9.47565E-01  4.55879E-01
    9003.034      9.238   2.040  1.35572E+00  9.54016E-01  4.01709E-01
    9003.662      9.866   2.080  1.28106E+00  9.60074E-01  3.20989E-01
    9004.302     10.506   2.120  1.20989E+00  9.65719E-01  2.44170E-01
    9004.954     11.158   2.160  1.16005E+00  9.70936E-01  1.89119E-01
    9005.619     11.823   2.200  1.12802E+00  9.75788E-01  1.52235E-01
    9006.295     12.500   2.240  1.10482E+00  9.80221E-01  1.24601E-01
    9006.984     13.188   2.280  1.08197E+00  9.84300E-01  9.76696E-02
    9007.685     13.889   2.320  1.05831E+00  9.88009E-01  7.03030E-02
    9008.399     14.603   2.360  1.03841E+00  9.91356E-01  4.70559E-02
    9009.124     15.328   2.400  1.02013E+00  9.94346E-01  2.57796E-02
    9009.862     16.066   2.440  9.99591E-01  9.97026E-01  2.56532E-03
    9010.611     16.816   2.480  9.77617E-01  9.99385E-01 -2.17686E-02
    9011.373     17.578   2.520  9.56651E-01  1.00145E+00 -4.47994E-02
    9012.148     18.352   2.560  9.37793E-01  1.00321E+00 -6.54149E-02
    9012.934     19.138   2.600  9.22539E-01  1.00471E+00 -8.21670E-02
    9013.733     19.937   2.640  9.13192E-01  1.00595E+00 -9.27592E-02
    9014.543     20.747   2.680  9.09885E-01  1.00695E+00 -9.70671E-02
    9015.366     21.570   2.720  9.07881E-01  1.00772E+00 -9.98359E-02
    9016.201     22.406   2.760  9.02433E-01  1.00827E+00 -1.05841E-01
    9017.049     23.253   2.800  8.96474E-01  1.00863E+00 -1.12155E-01
    9017.908     24.112   2.840  8.96037E-01  1.00881E+00 -1.12776E-01
    9018.780     24.984   2.880  8.99341E-01  1.00883E+00 -1.09489E-01
    9019.664     25.868   2.920  9.02969E-01  1.00869E+00 -1.05720E-01
    9020.560     26.764   2.960  9.05159E-01  1.00842E+00 -1.03259E-01
    9021.468     27.672   3.000  9.06797E-01  1.00802E+00 -1.01226E-01
    9022.389     28.593   3.040  9.09424E-01  1.00751E+00 -9.80862E-02
    9023.322     29.526   3.080  9.13910E-01  1.00691E+00 -9.29964E-02
    9024.266     30.471   3.120  9.20062E-01  1.00622E+00 -8.61561E-02
    9025.223     31.428   3.160  9.26629E-01  1.00545E+00 -7.88191E-02
    9026.193     32.397   3.200  9.31995E-01  1.00461E+00 -7.26109E-02
    9027.174     33.378   3.240  9.35069E-01  1.00371E+00 -6.86447E-02
    9028.168     34.372   3.280  9.35785E-01  1.00278E+00 -6.69920E-02
    9029.174     35.378   3.320  9.34810E-01  1.00180E+00 -6.69921E-02
    9030.192     36.396   3.360  9.33330E-01  1.00081E+00 -6.74837E-02
    9031.222     37.426   3.400  9.32437E-01  9.99796E-01 -6.73590E-02
    9032.264     38.468   3.440  9.32803E-01  9.98772E-01 -6.59694E-02
    9033.319     39.523   3.480  9.34816E-01  9.97746E-01 -6.29299E-02
    9034.386     40.590   3.520  9.38805E-01  9.96720E-01 -5.79147E-02
    9035.465     41.669   3.560  9.45128E-01  9.95719E-01 -5.05910E-02
    9036.556     42.760   3.600  9.53837E-01  9.94705E-01 -4.08689E-02
    9037.659     43.863   3.640  9.65113E-01  9.93744E-01 -2.86307E-02
    9038.775     44.979   3.680  9.78829E-01  9.92795E-01 -1.39658E-02
    9039.903     46.107   3.720  9.94636E-01  9.91904E-01  2.73172E-03
    9041.043     47.247   3.760  1.01183E+00  9.91028E-01  2.07983E-02
    9042.195     48.399   3.800  1.02958E+00  9.90190E-01  3.93922E-02
    9043.359     49.563   3.840  1.04680E+00  9.89392E-01  5.74118E-02
    9044.536     50.740   3.880  1.06243E+00  9.88637E-01  7.37887E-02
    9045.724     51.928   3.920  1.07556E+00  9.87947E-01  8.76131E-02
    9046.925     53.129   3.960  1.08542E+00  9.87301E-01  9.81195E-02
    9048.138     54.342   4.000  1.09139E+00  9.86697E-01  1.04697E-01
    9049.364     55.568   4.040  1.09320E+00  9.86140E-01  1.07065E-01
    9050.601     56.805   4.080  1.09083E+00  9.85649E-01  1.05185E-01
    9051.851     58.055   4.120  1.08458E+00  9.85206E-01  9.93746E-02
    9053.113     59.317   4.160  1.07522E+00  9.84831E-01  9.03858E-02
    9054.387     60.591   4.200  1.06368E+00  9.84502E-01  7.91732E-02
    9055.673     61.877   4.240  1.05087E+00  9.84219E-01  6.66475E-02
    9056.971     63.175   4.280  1.03763E+00  9.84004E-01  5.36287E-02
    9058.282     64.486   4.320  1.02471E+00  9.83835E-01  4.08795E-02
    9059.605     65.809   4.360  1.01275E+00  9.83731E-01  2.90186E-02
    9060.940     67.144   4.400  1.00223E+00  9.83651E-01  1.85755E-02
    9062.287     68.491   4.440  9.93551E-01  9.83634E-01  9.91685E-03
    9063.646     69.851   4.480  9.86807E-01  9.83661E-01  3.14640E-03
    9065.018     71.222   4.520  9.81836E-01  9.83731E-01 -1.89436E-03
    9066.402     72.606   4.560  9.78278E-01  9.83863E-01 -5.58473E-03
    9067.798     74.002   4.600  9.75553E-01  9.84012E-01 -8.45934E-03
    9069.206     75.410   4.640  9.73141E-01  9.84199E-01 -1.10579E-02
    9070.626     76.830   4.680  9.70632E-01  9.84424E-01 -1.37915E-02
    9072.059     78.263   4.720  9.67810E-01  9.84687E-01 -1.68772E-02
    9073.504     79.708   4.760  9.64694E-01  9.84986E-01 -2.02920E-02
    9074.961     81.165   4.800  9.61537E-01  9.85318E-01 -2.37809E-02
    9076.430     82.634   4.840  9.58661E-01  9.85659E-01 -2.69980E-02
    9077.911     84.115   4.880  9.56411E-01  9.86008E-01 -2.95966E-02
    9079.405     85.609   4.920  9.55033E-01  9.86385E-01 -3.13520E-02
    9080.910     87.114   4.960  9.54542E-01  9.86771E-01 -3.22287E-02
    9082.428     88.632   5.000  9.54796E-01  9.87182E-01 -3.23865E-02
    9083.958     90.162   5.040  9.55482E-01  9.87598E-01 -3.21165E-02
    9085.500     91.705   5.080  9.56347E-01  9.88016E-01 -3.16690E-02
    9087.055     93.259   5.120  9.57321E-01  9.88432E-01 -3.11115E-02
    9088.622     94.826   5.160  9.58536E-01  9.88848E-01 -3.03123E-02
    9090.200     96.405   5.200  9.60267E-01  9.89262E-01 -2.89950E-02
    9091.792     97.996   5.240  9.62779E-01  9.89671E-01 -2.68919E-02
    9093.395     99.599   5.280  9.66221E-01  9.90051E-01 -2.38304E-02
    9095.010    101.214   5.320  9.70541E-01  9.90425E-01 -1.98845E-02
    9096.638    102.842   5.360  9.75266E-01  9.90791E-01 -1.55256E-02
    9098.278    104.482   5.400  9.79498E-01  9.91124E-01 -1.16264E-02
    9099.930    106.134   5.440  9.82241E-01  9.91424E-01 -9.18300E-03
    9101.594    107.798   5.480  9.82855E-01  9.91715E-01 -8.85998E-03
    9103.270    109.474   5.520  9.81337E-01  9.91992E-01 -1.06559E-02
    9104.959    111.163   5.560  9.78335E-01  9.92213E-01 -1.38781E-02
    9106.660    112.864   5.600  9.75024E-01  9.92419E-01 -1.73950E-02
    9108.373    114.577   5.640  9.72596E-01  9.92589E-01 -1.99929E-02
    9110.098    116.302   5.680  9.72042E-01  9.92721E-01 -2.06786E-02
    9111.835    118.039   5.720  9.73958E-01  9.92837E-01 -1.88791E-02
    9113.585    119.789   5.760  9.78352E-01  9.92892E-01 -1.45402E-02
    9115.346    121.550   5.800  9.84818E-01  9.92907E-01 -8.08861E-03
    9117.120    123.324   5.840  9.92623E-01  9.92906E-01 -2.83204E-04
    9118.906    125.111   5.880  1.00078E+00  9.92843E-01  7.93863E-03
    9120.705    126.909   5.920  1.00832E+00  9.92739E-01  1.55833E-02
    9122.515    128.719   5.960  1.01434E+00  9.92619E-01  2.17202E-02
    9124.338    130.542   6.000  1.01812E+00  9.92409E-01  2.57122E-02
