# # comment:                                                     FEFF 9.9.1  
# # Source:
# # Structure
# # Reduced
# # space
# # abc:
# # angles:
# # sites:
# # POT  SCF 100  7.0000   0, screened core-hole, AFOLP (folp(0)= 1.150)
# # Abs   Z=29 Rmt= 1.409 Rnm= 1.466 K  shell
# # Pot 1 Z= 3 Rmt= 1.322 Rnm= 1.379
# # Pot 2 Z=29 Rmt= 1.409 Rnm= 1.466
# # Pot 3 Z=15 Rmt= 0.940 Rnm= 1.155
# # Pot 4 Z= 8 Rmt= 0.894 Rnm= 1.037
# # Gam_ch=1.729E+00 H-L exch Vi= 0.000E+00 Vr= 0.000E+00
# # Mu=-5.927E+00eV kf=2.489E+00 Vint=-1.803E+01eV Rs_int= 1.457
# FMS rfms= 9.0000
# # PATH  Rmax=-1.000,  Keep_limit= 0.00, Heap_limit 0.00  Pwcrit= 2.50%
#  S02=0.950  Temp=   0.00  Debye_temp=   0.00  Global_sig2= 0.00000
#  Energy zero shift, vr, vi    0.00000E+00   0.00000E+00
#  Curved wave amplitude ratio filter   4.000%
#     file         sig2 tot  cw amp ratio   deg  nlegs   reff  inp sig2
#     0/   0 paths used
#  xsedge+ 50, used to normalize mu           2.4326E-04
#  -----------------------------------------------------------------------
#  omega    e    k    mu    mu0     chi     @#
    8983.472     -9.737  -1.000  5.83019E-02  5.58818E-02  2.42006E-03
    8983.771     -9.439  -0.960  6.23298E-02  5.99276E-02  2.40220E-03
    8984.057     -9.152  -0.920  6.67582E-02  6.44229E-02  2.33531E-03
    8984.331     -8.878  -0.880  7.16379E-02  6.94340E-02  2.20394E-03
    8984.594     -8.616  -0.840  7.70270E-02  7.50383E-02  1.98875E-03
    8984.844     -8.366  -0.800  8.29910E-02  8.13254E-02  1.66565E-03
    8985.081     -8.128  -0.760  8.96033E-02  8.83982E-02  1.20513E-03
    8985.307     -7.903  -0.720  9.69447E-02  9.63731E-02  5.71636E-04
    8985.520     -7.689  -0.680  1.05102E-01  1.05378E-01 -2.76482E-04
    8985.721     -7.488  -0.640  1.14163E-01  1.15549E-01 -1.38603E-03
    8985.910     -7.299  -0.600  1.24213E-01  1.27019E-01 -2.80632E-03
    8986.087     -7.122  -0.560  1.35318E-01  1.39902E-01 -4.58376E-03
    8986.252     -6.958  -0.520  1.47512E-01  1.54265E-01 -6.75280E-03
    8986.404     -6.805  -0.480  1.60771E-01  1.70094E-01 -9.32307E-03
    8986.544     -6.665  -0.440  1.74985E-01  1.87249E-01 -1.22644E-02
    8986.672     -6.537  -0.400  1.89937E-01  2.05431E-01 -1.54946E-02
    8986.788     -6.421  -0.360  2.05292E-01  2.24169E-01 -1.88773E-02
    8986.892     -6.318  -0.320  2.20614E-01  2.42850E-01 -2.22364E-02
    8986.983     -6.226  -0.280  2.35409E-01  2.60797E-01 -2.53873E-02
    8987.062     -6.147  -0.240  2.49183E-01  2.77356E-01 -2.81729E-02
    8987.130     -6.080  -0.200  2.61492E-01  2.91984E-01 -3.04917E-02
    8987.184     -6.025  -0.160  2.71977E-01  3.04283E-01 -3.23064E-02
    8987.227     -5.982  -0.120  2.80369E-01  3.14001E-01 -3.36326E-02
    8987.258     -5.952  -0.080  2.86484E-01  3.21000E-01 -3.45159E-02
    8987.282     -5.927   0.000  2.91463E-01  3.26622E-01 -3.51585E-02
    8987.337     -5.873   0.120  3.02757E-01  3.39277E-01 -3.65206E-02
    8987.379     -5.830   0.160  3.11664E-01  3.49129E-01 -3.74651E-02
    8987.434     -5.775   0.200  3.23214E-01  3.61667E-01 -3.84538E-02
    8987.501     -5.708   0.240  3.37501E-01  3.76752E-01 -3.92517E-02
    8987.581     -5.629   0.280  3.54520E-01  3.94069E-01 -3.95490E-02
    8987.672     -5.537   0.320  3.74169E-01  4.13119E-01 -3.89504E-02
    8987.776     -5.434   0.360  3.96351E-01  4.33358E-01 -3.70069E-02
    8987.892     -5.318   0.400  4.20888E-01  4.54187E-01 -3.32991E-02
    8988.020     -5.190   0.440  4.47625E-01  4.75081E-01 -2.74564E-02
    8988.160     -5.050   0.480  4.76318E-01  4.95558E-01 -1.92409E-02
    8988.312     -4.897   0.520  5.06844E-01  5.15395E-01 -8.55160E-03
    8988.477     -4.733   0.560  5.39101E-01  5.34473E-01  4.62853E-03
    8988.654     -4.556   0.600  5.73043E-01  5.52743E-01  2.03004E-02
    8988.842     -4.367   0.640  6.08785E-01  5.70294E-01  3.84911E-02
    8989.044     -4.166   0.680  6.46462E-01  5.87212E-01  5.92495E-02
    8989.257     -3.952   0.720  6.86168E-01  6.03639E-01  8.25294E-02
    8989.483     -3.727   0.760  7.27501E-01  6.19653E-01  1.07847E-01
    8989.720     -3.489   0.800  7.68809E-01  6.35367E-01  1.33442E-01
    8989.970     -3.239   0.840  8.06095E-01  6.50879E-01  1.55217E-01
    8990.232     -2.977   0.880  8.33232E-01  6.66250E-01  1.66982E-01
    8990.507     -2.703   0.920  8.45638E-01  6.81529E-01  1.64109E-01
    8990.793     -2.416   0.960  8.45219E-01  6.96794E-01  1.48425E-01
    8991.092     -2.117   1.000  8.39643E-01  7.12047E-01  1.27596E-01
    8991.403     -1.807   1.040  8.36692E-01  7.27302E-01  1.09390E-01
    8991.726     -1.483   1.080  8.40103E-01  7.42563E-01  9.75399E-02
    8992.061     -1.148   1.120  8.49786E-01  7.57868E-01  9.19175E-02
    8992.409     -0.801   1.160  8.64093E-01  7.73168E-01  9.09253E-02
    8992.768     -0.441   1.200  8.81531E-01  7.88487E-01  9.30436E-02
    8993.140     -0.069   1.240  9.01145E-01  8.03764E-01  9.73817E-02
    8993.524      0.315   1.280  9.23205E-01  8.18995E-01  1.04211E-01
    8993.920      0.711   1.320  9.49078E-01  8.34131E-01  1.14947E-01
    8994.329      1.120   1.360  9.81268E-01  8.49163E-01  1.32105E-01
    8994.749      1.540   1.400  1.02001E+00  8.64036E-01  1.55978E-01
    8995.182      1.973   1.440  1.06421E+00  8.78715E-01  1.85495E-01
    8995.627      2.418   1.480  1.11541E+00  8.93161E-01  2.22249E-01
    8996.084      2.875   1.520  1.16775E+00  9.07338E-01  2.60410E-01
    8996.554      3.345   1.560  1.20128E+00  9.21165E-01  2.80119E-01
    8997.035      3.826   1.600  1.20384E+00  9.34662E-01  2.69175E-01
    8997.529      4.320   1.640  1.18160E+00  9.47730E-01  2.33865E-01
    8998.035      4.826   1.680  1.15054E+00  9.60349E-01  1.90192E-01
    8998.553      5.344   1.720  1.12858E+00  9.72480E-01  1.56098E-01
    8999.084      5.874   1.760  1.12341E+00  9.84064E-01  1.39343E-01
    8999.626      6.417   1.800  1.13172E+00  9.95107E-01  1.36612E-01
    9000.181      6.972   1.840  1.14202E+00  1.00553E+00  1.36488E-01
    9000.748      7.539   1.880  1.14463E+00  1.01534E+00  1.29289E-01
    9001.327      8.118   1.920  1.13723E+00  1.02451E+00  1.12722E-01
    9001.918      8.709   1.960  1.12015E+00  1.03298E+00  8.71662E-02
    9002.522      9.313   2.000  1.09563E+00  1.04078E+00  5.48530E-02
    9003.138      9.928   2.040  1.07011E+00  1.04788E+00  2.22331E-02
    9003.765     10.556   2.080  1.04974E+00  1.05426E+00 -4.52275E-03
    9004.406     11.196   2.120  1.03639E+00  1.05995E+00 -2.35596E-02
    9005.058     11.848   2.160  1.02922E+00  1.06493E+00 -3.57082E-02
    9005.722     12.513   2.200  1.02663E+00  1.06920E+00 -4.25705E-02
    9006.399     13.190   2.240  1.02667E+00  1.07280E+00 -4.61370E-02
    9007.088     13.878   2.280  1.02735E+00  1.07573E+00 -4.83876E-02
    9007.789     14.579   2.320  1.02740E+00  1.07801E+00 -5.06109E-02
    9008.502     15.293   2.360  1.02577E+00  1.07965E+00 -5.38832E-02
    9009.227     16.018   2.400  1.02111E+00  1.08068E+00 -5.95712E-02
    9009.965     16.756   2.440  1.01230E+00  1.08116E+00 -6.88559E-02
    9010.715     17.505   2.480  1.00089E+00  1.08110E+00 -8.02039E-02
    9011.477     18.267   2.520  9.91005E-01  1.08053E+00 -8.95218E-02
    9012.251     19.042   2.560  9.84270E-01  1.07947E+00 -9.52018E-02
    9013.037     19.828   2.600  9.77706E-01  1.07799E+00 -1.00282E-01
    9013.836     20.627   2.640  9.68601E-01  1.07610E+00 -1.07496E-01
    9014.647     21.437   2.680  9.59945E-01  1.07384E+00 -1.13892E-01
    9015.470     22.260   2.720  9.57914E-01  1.07127E+00 -1.13354E-01
    9016.305     23.096   2.760  9.66019E-01  1.06841E+00 -1.02389E-01
    9017.152     23.943   2.800  9.84291E-01  1.06528E+00 -8.09849E-02
    9018.012     24.802   2.840  1.00748E+00  1.06195E+00 -5.44697E-02
    9018.883     25.674   2.880  1.02464E+00  1.05843E+00 -3.37889E-02
    9019.767     26.558   2.920  1.03101E+00  1.05477E+00 -2.37652E-02
    9020.663     27.454   2.960  1.03175E+00  1.05099E+00 -1.92430E-02
    9021.572     28.362   3.000  1.02997E+00  1.04713E+00 -1.71579E-02
    9022.492     29.283   3.040  1.02647E+00  1.04320E+00 -1.67233E-02
    9023.425     30.216   3.080  1.02197E+00  1.03924E+00 -1.72718E-02
    9024.370     31.160   3.120  1.01779E+00  1.03528E+00 -1.74899E-02
    9025.327     32.118   3.160  1.01516E+00  1.03136E+00 -1.62010E-02
    9026.296     33.087   3.200  1.01450E+00  1.02749E+00 -1.29840E-02
    9027.278     34.068   3.240  1.01550E+00  1.02368E+00 -8.18287E-03
    9028.271     35.062   3.280  1.01736E+00  1.01996E+00 -2.59840E-03
    9029.277     36.068   3.320  1.01929E+00  1.01633E+00  2.95845E-03
    9030.295     37.086   3.360  1.02085E+00  1.01282E+00  8.02375E-03
    9031.325     38.116   3.400  1.02197E+00  1.00946E+00  1.25145E-02
    9032.368     39.158   3.440  1.02284E+00  1.00623E+00  1.66032E-02
    9033.422     40.213   3.480  1.02375E+00  1.00319E+00  2.05671E-02
    9034.489     41.280   3.520  1.02492E+00  1.00029E+00  2.46336E-02
    9035.568     42.359   3.560  1.02652E+00  9.97593E-01  2.89253E-02
    9036.659     43.450   3.600  1.02862E+00  9.95083E-01  3.35332E-02
    9037.763     44.553   3.640  1.03119E+00  9.92748E-01  3.84374E-02
    9038.878     45.669   3.680  1.03409E+00  9.90623E-01  4.34676E-02
    9040.006     46.797   3.720  1.03707E+00  9.88697E-01  4.83695E-02
    9041.146     47.937   3.760  1.03995E+00  9.86999E-01  5.29472E-02
    9042.298     49.089   3.800  1.04247E+00  9.85486E-01  5.69831E-02
    9043.462     50.253   3.840  1.04434E+00  9.84179E-01  6.01595E-02
    9044.639     51.430   3.880  1.04519E+00  9.83102E-01  6.20929E-02
    9045.828     52.618   3.920  1.04460E+00  9.82230E-01  6.23722E-02
    9047.029     53.819   3.960  1.04218E+00  9.81542E-01  6.06431E-02
    9048.242     55.032   4.000  1.03778E+00  9.81079E-01  5.67027E-02
    9049.467     56.258   4.040  1.03139E+00  9.80798E-01  5.05962E-02
    9050.704     57.495   4.080  1.02330E+00  9.80738E-01  4.25650E-02
    9051.954     58.745   4.120  1.01389E+00  9.80855E-01  3.30363E-02
    9053.216     60.007   4.160  1.00371E+00  9.81146E-01  2.25614E-02
    9054.490     61.281   4.200  9.93287E-01  9.81628E-01  1.16588E-02
    9055.776     62.567   4.240  9.83012E-01  9.82277E-01  7.34538E-04
    9057.075     63.865   4.280  9.73292E-01  9.83090E-01 -9.79754E-03
    9058.385     65.176   4.320  9.64571E-01  9.84061E-01 -1.94905E-02
    9059.708     66.499   4.360  9.57263E-01  9.85164E-01 -2.79009E-02
    9061.043     67.834   4.400  9.51697E-01  9.86394E-01 -3.46970E-02
    9062.390     69.181   4.440  9.47980E-01  9.87769E-01 -3.97888E-02
    9063.750     70.540   4.480  9.45935E-01  9.89239E-01 -4.33039E-02
    9065.121     71.912   4.520  9.45336E-01  9.90800E-01 -4.54636E-02
    9066.505     73.296   4.560  9.45984E-01  9.92467E-01 -4.64837E-02
    9067.901     74.692   4.600  9.47639E-01  9.94214E-01 -4.65757E-02
    9069.309     76.100   4.640  9.50150E-01  9.96012E-01 -4.58618E-02
    9070.730     77.520   4.680  9.53471E-01  9.97853E-01 -4.43817E-02
    9072.162     78.953   4.720  9.57605E-01  9.99732E-01 -4.21272E-02
    9073.607     80.398   4.760  9.62600E-01  1.00165E+00 -3.90451E-02
    9075.064     81.855   4.800  9.68456E-01  1.00356E+00 -3.51085E-02
    9076.533     83.324   4.840  9.75052E-01  1.00548E+00 -3.04303E-02
    9078.014     84.805   4.880  9.82197E-01  1.00739E+00 -2.51957E-02
    9079.508     86.299   4.920  9.89656E-01  1.00927E+00 -1.96123E-02
    9081.014     87.804   4.960  9.97251E-01  1.01110E+00 -1.38509E-02
    9082.532     89.322   5.000  1.00480E+00  1.01289E+00 -8.08410E-03
    9084.062     90.852   5.040  1.01203E+00  1.01460E+00 -2.57126E-03
    9085.604     92.395   5.080  1.01858E+00  1.01623E+00  2.35091E-03
    9087.158     93.949   5.120  1.02413E+00  1.01777E+00  6.35273E-03
    9088.725     95.516   5.160  1.02846E+00  1.01923E+00  9.22636E-03
    9090.304     97.095   5.200  1.03152E+00  1.02057E+00  1.09475E-02
    9091.895     98.686   5.240  1.03343E+00  1.02179E+00  1.16346E-02
    9093.498    100.289   5.280  1.03440E+00  1.02291E+00  1.14903E-02
    9095.114    101.904   5.320  1.03465E+00  1.02388E+00  1.07649E-02
    9096.741    103.532   5.360  1.03449E+00  1.02473E+00  9.76717E-03
    9098.381    105.172   5.400  1.03429E+00  1.02544E+00  8.84787E-03
    9100.033    106.824   5.440  1.03430E+00  1.02600E+00  8.30647E-03
    9101.697    108.488   5.480  1.03472E+00  1.02640E+00  8.31941E-03
    9103.374    110.164   5.520  1.03566E+00  1.02669E+00  8.97097E-03
    9105.062    111.853   5.560  1.03714E+00  1.02680E+00  1.03366E-02
    9106.763    113.554   5.600  1.03927E+00  1.02679E+00  1.24883E-02
    9108.476    115.267   5.640  1.04204E+00  1.02664E+00  1.54018E-02
    9110.201    116.992   5.680  1.04521E+00  1.02634E+00  1.88698E-02
    9111.938    118.729   5.720  1.04840E+00  1.02591E+00  2.24926E-02
    9113.688    120.479   5.760  1.05112E+00  1.02536E+00  2.57614E-02
    9115.450    122.240   5.800  1.05289E+00  1.02469E+00  2.82008E-02
    9117.224    124.014   5.840  1.05340E+00  1.02391E+00  2.94932E-02
    9119.010    125.800   5.880  1.05254E+00  1.02304E+00  2.95076E-02
    9120.808    127.599   5.920  1.05031E+00  1.02206E+00  2.82524E-02
    9122.619    129.409   5.960  1.04674E+00  1.02098E+00  2.57640E-02
    9124.441    131.232   6.000  1.04169E+00  1.01977E+00  2.19221E-02
