# # comment:                                                     FEFF 9.9.1  
# # Source:
# # Structure
# # Reduced
# # space
# # abc:
# # angles:
# # sites:
# # POT  SCF 100  7.0000   0, screened core-hole, AFOLP (folp(0)= 1.150)
# # Abs   Z=29 Rmt= 1.256 Rnm= 1.355 K  shell
# # Pot 1 Z=19 Rmt= 1.846 Rnm= 1.910
# # Pot 2 Z=29 Rmt= 1.256 Rnm= 1.355
# # Pot 3 Z=16 Rmt= 0.858 Rnm= 1.105
# # Pot 4 Z= 8 Rmt= 1.012 Rnm= 1.109
# # Gam_ch=1.729E+00 H-L exch Vi= 0.000E+00 Vr= 0.000E+00
# # Mu=-7.090E+00eV kf=2.285E+00 Vint=-1.567E+01eV Rs_int= 1.587
# FMS rfms= 9.0000
# # PATH  Rmax=-1.000,  Keep_limit= 0.00, Heap_limit 0.00  Pwcrit= 2.50%
#  S02=0.950  Temp=   0.00  Debye_temp=   0.00  Global_sig2= 0.00000
#  Energy zero shift, vr, vi    0.00000E+00   0.00000E+00
#  Curved wave amplitude ratio filter   4.000%
#     file         sig2 tot  cw amp ratio   deg  nlegs   reff  inp sig2
#     0/   0 paths used
#  xsedge+ 50, used to normalize mu           2.4703E-04
#  -----------------------------------------------------------------------
#  omega    e    k    mu    mu0     chi     @#
    8983.401    -10.900  -1.000  3.49858E-02  5.07162E-02 -1.57304E-02
    8983.700    -10.601  -0.960  3.66598E-02  5.43221E-02 -1.76623E-02
    8983.986    -10.315  -0.920  3.84408E-02  5.83232E-02 -1.98824E-02
    8984.261    -10.040  -0.880  4.03379E-02  6.27772E-02 -2.24393E-02
    8984.523     -9.778  -0.840  4.23610E-02  6.77513E-02 -2.53904E-02
    8984.773     -9.528  -0.800  4.45211E-02  7.33233E-02 -2.88022E-02
    8985.011     -9.291  -0.760  4.68302E-02  7.95823E-02 -3.27521E-02
    8985.236     -9.065  -0.720  4.93010E-02  8.66292E-02 -3.73282E-02
    8985.449     -8.852  -0.680  5.19467E-02  9.45747E-02 -4.26279E-02
    8985.651     -8.650  -0.640  5.47801E-02  1.03536E-01 -4.87557E-02
    8985.840     -8.461  -0.600  5.78119E-02  1.13627E-01 -5.58153E-02
    8986.016     -8.285  -0.560  6.10487E-02  1.24947E-01 -6.38979E-02
    8986.181     -8.120  -0.520  6.44888E-02  1.37552E-01 -7.30629E-02
    8986.333     -7.968  -0.480  6.81176E-02  1.51429E-01 -8.33112E-02
    8986.474     -7.827  -0.440  7.19020E-02  1.66456E-01 -9.45545E-02
    8986.602     -7.699  -0.400  7.57852E-02  1.82374E-01 -1.06589E-01
    8986.717     -7.584  -0.360  7.96864E-02  1.98773E-01 -1.19086E-01
    8986.821     -7.480  -0.320  8.35050E-02  2.15122E-01 -1.31617E-01
    8986.912     -7.389  -0.280  8.71313E-02  2.30831E-01 -1.43700E-01
    8986.992     -7.309  -0.240  9.04600E-02  2.45333E-01 -1.54873E-01
    8987.059     -7.242  -0.200  9.34010E-02  2.58152E-01 -1.64751E-01
    8987.114     -7.187  -0.160  9.58854E-02  2.68937E-01 -1.73052E-01
    8987.156     -7.145  -0.120  9.78643E-02  2.77466E-01 -1.79602E-01
    8987.187     -7.114  -0.080  9.93051E-02  2.83612E-01 -1.84307E-01
    8987.211     -7.090   0.000  1.00488E-01  2.88551E-01 -1.88063E-01
    8987.266     -7.035   0.120  1.03199E-01  2.99694E-01 -1.96496E-01
    8987.309     -6.992   0.160  1.05250E-01  3.08348E-01 -2.03098E-01
    8987.364     -6.937   0.200  1.07905E-01  3.19421E-01 -2.11516E-01
    8987.431     -6.870   0.240  1.11127E-01  3.32727E-01 -2.21600E-01
    8987.510     -6.791   0.280  1.14941E-01  3.48050E-01 -2.33109E-01
    8987.601     -6.700   0.320  1.19329E-01  3.64971E-01 -2.45642E-01
    8987.705     -6.596   0.360  1.24351E-01  3.83037E-01 -2.58686E-01
    8987.821     -6.480   0.400  1.30105E-01  4.01727E-01 -2.71622E-01
    8987.949     -6.352   0.440  1.36779E-01  4.20580E-01 -2.83801E-01
    8988.089     -6.212   0.480  1.44677E-01  4.39245E-01 -2.94567E-01
    8988.241     -6.060   0.520  1.54143E-01  4.57474E-01 -3.03331E-01
    8988.406     -5.895   0.560  1.65622E-01  4.75144E-01 -3.09522E-01
    8988.583     -5.718   0.600  1.79596E-01  4.92266E-01 -3.12670E-01
    8988.772     -5.529   0.640  1.96421E-01  5.08851E-01 -3.12430E-01
    8988.973     -5.328   0.680  2.16317E-01  5.25003E-01 -3.08686E-01
    8989.186     -5.115   0.720  2.39168E-01  5.40758E-01 -3.01590E-01
    8989.412     -4.889   0.760  2.64732E-01  5.56250E-01 -2.91518E-01
    8989.650     -4.651   0.800  2.92561E-01  5.71526E-01 -2.78965E-01
    8989.899     -4.402   0.840  3.22174E-01  5.86618E-01 -2.64444E-01
    8990.162     -4.139   0.880  3.52773E-01  6.01610E-01 -2.48837E-01
    8990.436     -3.865   0.920  3.82690E-01  6.16529E-01 -2.33839E-01
    8990.722     -3.579   0.960  4.09221E-01  6.31374E-01 -2.22154E-01
    8991.021     -3.280   1.000  4.29514E-01  6.46156E-01 -2.16642E-01
    8991.332     -2.969   1.040  4.42939E-01  6.60894E-01 -2.17955E-01
    8991.655     -2.646   1.080  4.52067E-01  6.75582E-01 -2.23515E-01
    8991.990     -2.311   1.120  4.60413E-01  6.90189E-01 -2.29775E-01
    8992.338     -1.963   1.160  4.70701E-01  7.04695E-01 -2.33994E-01
    8992.698     -1.603   1.200  4.85188E-01  7.19102E-01 -2.33913E-01
    8993.069     -1.232   1.240  5.05853E-01  7.33366E-01 -2.27513E-01
    8993.453     -0.848   1.280  5.34363E-01  7.47480E-01 -2.13117E-01
    8993.850     -0.451   1.320  5.71230E-01  7.61396E-01 -1.90166E-01
    8994.258     -0.043   1.360  6.12874E-01  7.75085E-01 -1.62211E-01
    8994.679      0.378   1.400  6.51284E-01  7.88518E-01 -1.37234E-01
    8995.112      0.811   1.440  6.83246E-01  8.01682E-01 -1.18436E-01
    8995.557      1.256   1.480  7.17661E-01  8.14548E-01 -9.68874E-02
    8996.014      1.713   1.520  7.65147E-01  8.27065E-01 -6.19186E-02
    8996.483      2.182   1.560  8.24070E-01  8.39243E-01 -1.51728E-02
    8996.965      2.664   1.600  8.81981E-01  8.51033E-01  3.09477E-02
    8997.458      3.157   1.640  9.34099E-01  8.62426E-01  7.16731E-02
    8997.964      3.663   1.680  9.91182E-01  8.73394E-01  1.17788E-01
    8998.483      4.182   1.720  1.06106E+00  8.83930E-01  1.77127E-01
    8999.013      4.712   1.760  1.13107E+00  8.94029E-01  2.37042E-01
    8999.556      5.254   1.800  1.18077E+00  9.03647E-01  2.77128E-01
    9000.110      5.809   1.840  1.20801E+00  9.12821E-01  2.95187E-01
    9000.677      6.376   1.880  1.22767E+00  9.21506E-01  3.06166E-01
    9001.256      6.955   1.920  1.24790E+00  9.29724E-01  3.18178E-01
    9001.848      7.547   1.960  1.25915E+00  9.37455E-01  3.21690E-01
    9002.451      8.150   2.000  1.25188E+00  9.44720E-01  3.07157E-01
    9003.067      8.766   2.040  1.23224E+00  9.51522E-01  2.80716E-01
    9003.695      9.394   2.080  1.20962E+00  9.57842E-01  2.51779E-01
    9004.335     10.034   2.120  1.18937E+00  9.63706E-01  2.25666E-01
    9004.987     10.686   2.160  1.17488E+00  9.69141E-01  2.05735E-01
    9005.651     11.350   2.200  1.16431E+00  9.74110E-01  1.90201E-01
    9006.328     12.027   2.240  1.15364E+00  9.78680E-01  1.74960E-01
    9007.017     12.716   2.280  1.14155E+00  9.82820E-01  1.58726E-01
    9007.718     13.417   2.320  1.12875E+00  9.86576E-01  1.42177E-01
    9008.431     14.130   2.360  1.11393E+00  9.89957E-01  1.23970E-01
    9009.157     14.856   2.400  1.09380E+00  9.92952E-01  1.00844E-01
    9009.894     15.593   2.440  1.07065E+00  9.95629E-01  7.50189E-02
    9010.644     16.343   2.480  1.04992E+00  9.97955E-01  5.19607E-02
    9011.406     17.105   2.520  1.03280E+00  9.99981E-01  3.28192E-02
    9012.180     17.879   2.560  1.01678E+00  1.00170E+00  1.50820E-02
    9012.967     18.666   2.600  1.00210E+00  1.00315E+00 -1.05109E-03
    9013.765     19.464   2.640  9.90891E-01  1.00435E+00 -1.34635E-02
    9014.576     20.275   2.680  9.83361E-01  1.00529E+00 -2.19304E-02
    9015.399     21.098   2.720  9.78907E-01  1.00603E+00 -2.71277E-02
    9016.234     21.933   2.760  9.76819E-01  1.00655E+00 -2.97321E-02
    9017.081     22.780   2.800  9.76328E-01  1.00687E+00 -3.05417E-02
    9017.941     23.640   2.840  9.75370E-01  1.00704E+00 -3.16715E-02
    9018.813     24.512   2.880  9.72191E-01  1.00705E+00 -3.48599E-02
    9019.697     25.396   2.920  9.66034E-01  1.00691E+00 -4.08716E-02
    9020.593     26.292   2.960  9.57039E-01  1.00664E+00 -4.95967E-02
    9021.501     27.200   3.000  9.45701E-01  1.00625E+00 -6.05446E-02
    9022.422     28.120   3.040  9.32647E-01  1.00576E+00 -7.31171E-02
    9023.354     29.053   3.080  9.18782E-01  1.00520E+00 -8.64182E-02
    9024.299     29.998   3.120  9.05052E-01  1.00458E+00 -9.95253E-02
    9025.256     30.955   3.160  8.92193E-01  1.00386E+00 -1.11668E-01
    9026.225     31.924   3.200  8.81126E-01  1.00312E+00 -1.21990E-01
    9027.207     32.906   3.240  8.72930E-01  1.00231E+00 -1.29378E-01
    9028.200     33.899   3.280  8.68131E-01  1.00148E+00 -1.33353E-01
    9029.206     34.905   3.320  8.67065E-01  1.00063E+00 -1.33561E-01
    9030.224     35.923   3.360  8.69752E-01  9.99761E-01 -1.30009E-01
    9031.255     36.954   3.400  8.75856E-01  9.98891E-01 -1.23034E-01
    9032.297     37.996   3.440  8.84795E-01  9.97999E-01 -1.13204E-01
    9033.352     39.051   3.480  8.96043E-01  9.97152E-01 -1.01109E-01
    9034.418     40.117   3.520  9.09052E-01  9.96291E-01 -8.72390E-02
    9035.497     41.196   3.560  9.23310E-01  9.95458E-01 -7.21479E-02
    9036.589     42.288   3.600  9.38519E-01  9.94657E-01 -5.61378E-02
    9037.692     43.391   3.640  9.54304E-01  9.93869E-01 -3.95655E-02
    9038.807     44.506   3.680  9.70164E-01  9.93119E-01 -2.29546E-02
    9039.935     45.634   3.720  9.85522E-01  9.92427E-01 -6.90456E-03
    9041.075     46.774   3.760  9.99751E-01  9.91753E-01  7.99838E-03
    9042.227     47.926   3.800  1.01232E+00  9.91119E-01  2.12033E-02
    9043.392     49.091   3.840  1.02288E+00  9.90549E-01  3.23292E-02
    9044.568     50.267   3.880  1.03129E+00  9.90000E-01  4.12929E-02
    9045.757     51.456   3.920  1.03780E+00  9.89517E-01  4.82862E-02
    9046.958     52.657   3.960  1.04270E+00  9.89101E-01  5.36007E-02
    9048.171     53.870   4.000  1.04640E+00  9.88707E-01  5.76972E-02
    9049.396     55.095   4.040  1.04938E+00  9.88378E-01  6.09977E-02
    9050.634     56.333   4.080  1.05187E+00  9.88094E-01  6.37785E-02
    9051.883     57.582   4.120  1.05401E+00  9.87857E-01  6.61504E-02
    9053.145     58.844   4.160  1.05573E+00  9.87686E-01  6.80390E-02
    9054.419     60.118   4.200  1.05673E+00  9.87561E-01  6.91680E-02
    9055.706     61.405   4.240  1.05664E+00  9.87501E-01  6.91427E-02
    9057.004     62.703   4.280  1.05519E+00  9.87463E-01  6.77227E-02
    9058.315     64.014   4.320  1.05230E+00  9.87488E-01  6.48167E-02
    9059.637     65.336   4.360  1.04811E+00  9.87555E-01  6.05567E-02
    9060.972     66.671   4.400  1.04295E+00  9.87640E-01  5.53098E-02
    9062.320     68.019   4.440  1.03740E+00  9.87788E-01  4.96086E-02
    9063.679     69.378   4.480  1.03198E+00  9.87977E-01  4.40053E-02
    9065.051     70.750   4.520  1.02716E+00  9.88204E-01  3.89575E-02
    9066.434     72.133   4.560  1.02321E+00  9.88470E-01  3.47406E-02
    9067.830     73.529   4.600  1.02008E+00  9.88771E-01  3.13107E-02
    9069.239     74.938   4.640  1.01742E+00  9.89086E-01  2.83325E-02
    9070.659     76.358   4.680  1.01470E+00  9.89433E-01  2.52719E-02
    9072.092     77.790   4.720  1.01137E+00  9.89811E-01  2.15603E-02
    9073.536     79.235   4.760  1.00704E+00  9.90198E-01  1.68464E-02
    9074.993     80.692   4.800  1.00174E+00  9.90591E-01  1.11452E-02
    9076.462     82.161   4.840  9.95798E-01  9.91012E-01  4.78618E-03
    9077.944     83.643   4.880  9.89704E-01  9.91439E-01 -1.73502E-03
    9079.437     85.136   4.920  9.83925E-01  9.91891E-01 -7.96568E-03
    9080.943     86.642   4.960  9.78730E-01  9.92323E-01 -1.35938E-02
    9082.461     88.160   5.000  9.74407E-01  9.92776E-01 -1.83696E-02
    9083.991     89.690   5.040  9.71088E-01  9.93207E-01 -2.21187E-02
    9085.533     91.232   5.080  9.68911E-01  9.93657E-01 -2.47458E-02
    9087.088     92.787   5.120  9.67702E-01  9.94081E-01 -2.63792E-02
    9088.654     94.353   5.160  9.67055E-01  9.94501E-01 -2.74453E-02
    9090.233     95.932   5.200  9.66383E-01  9.94913E-01 -2.85300E-02
    9091.824     97.523   5.240  9.65173E-01  9.95297E-01 -3.01235E-02
    9093.427     99.126   5.280  9.63323E-01  9.95672E-01 -3.23488E-02
    9095.043    100.742   5.320  9.61070E-01  9.96037E-01 -3.49673E-02
    9096.670    102.369   5.360  9.58829E-01  9.96347E-01 -3.75174E-02
    9098.310    104.009   5.400  9.57140E-01  9.96666E-01 -3.95260E-02
    9099.962    105.661   5.440  9.56355E-01  9.96928E-01 -4.05730E-02
    9101.627    107.325   5.480  9.56779E-01  9.97176E-01 -4.03970E-02
    9103.303    109.002   5.520  9.58428E-01  9.97389E-01 -3.89603E-02
    9104.991    110.690   5.560  9.61023E-01  9.97564E-01 -3.65409E-02
    9106.692    112.391   5.600  9.64040E-01  9.97724E-01 -3.36843E-02
    9108.405    114.104   5.640  9.66801E-01  9.97823E-01 -3.10215E-02
    9110.130    115.829   5.680  9.69007E-01  9.97904E-01 -2.88967E-02
    9111.868    117.567   5.720  9.70735E-01  9.97923E-01 -2.71885E-02
    9113.617    119.316   5.760  9.72473E-01  9.97927E-01 -2.54539E-02
    9115.379    121.078   5.800  9.74598E-01  9.97891E-01 -2.32936E-02
    9117.153    122.852   5.840  9.77191E-01  9.97793E-01 -2.06020E-02
    9118.939    124.638   5.880  9.80065E-01  9.97680E-01 -1.76150E-02
    9120.737    126.436   5.920  9.82811E-01  9.97530E-01 -1.47192E-02
    9122.548    128.247   5.960  9.85232E-01  9.97341E-01 -1.21090E-02
    9124.371    130.070   6.000  9.87650E-01  9.97090E-01 -9.43969E-03
