# # comment:                                                     FEFF 9.9.1  
# # Source:
# # Structure
# # Reduced
# # space
# # abc:
# # angles:
# # sites:
# # POT  SCF 100  7.0000   0, screened core-hole, AFOLP (folp(0)= 1.150)
# # Abs   Z=29 Rmt= 1.288 Rnm= 1.368 K  shell
# # Pot 1 Z=11 Rmt= 1.494 Rnm= 1.548
# # Pot 2 Z=29 Rmt= 1.290 Rnm= 1.371
# # Pot 3 Z= 8 Rmt= 1.129 Rnm= 1.183
# # Gam_ch=1.729E+00 H-L exch Vi= 0.000E+00 Vr= 0.000E+00
# # Mu=-9.853E+00eV kf=1.714E+00 Vint=-1.465E+01eV Rs_int= 2.116
# FMS rfms= 9.0000
# # PATH  Rmax=-1.000,  Keep_limit= 0.00, Heap_limit 0.00  Pwcrit= 2.50%
#  S02=0.950  Temp=   0.00  Debye_temp=   0.00  Global_sig2= 0.00000
#  Energy zero shift, vr, vi    0.00000E+00   0.00000E+00
#  Curved wave amplitude ratio filter   4.000%
#     file         sig2 tot  cw amp ratio   deg  nlegs   reff  inp sig2
#     0/   0 paths used
#  xsedge+ 50, used to normalize mu           2.4251E-04
#  -----------------------------------------------------------------------
#  omega    e    k    mu    mu0     chi     @#
    8984.751    -13.663  -1.000  2.93883E-02  4.65109E-02 -1.71225E-02
    8985.050    -13.364  -0.960  3.05386E-02  4.95793E-02 -1.90407E-02
    8985.336    -13.078  -0.920  3.17410E-02  5.29571E-02 -2.12161E-02
    8985.610    -12.804  -0.880  3.29982E-02  5.66866E-02 -2.36884E-02
    8985.873    -12.542  -0.840  3.43130E-02  6.08166E-02 -2.65036E-02
    8986.122    -12.292  -0.800  3.56884E-02  6.54033E-02 -2.97149E-02
    8986.360    -12.054  -0.760  3.71274E-02  7.05104E-02 -3.33830E-02
    8986.586    -11.828  -0.720  3.86329E-02  7.62097E-02 -3.75768E-02
    8986.799    -11.615  -0.680  4.02076E-02  8.25793E-02 -4.23717E-02
    8987.000    -11.414  -0.640  4.18534E-02  8.97010E-02 -4.78476E-02
    8987.189    -11.225  -0.600  4.35713E-02  9.76540E-02 -5.40827E-02
    8987.366    -11.048  -0.560  4.53599E-02  1.06505E-01 -6.11447E-02
    8987.531    -10.883  -0.520  4.72151E-02  1.16290E-01 -6.90746E-02
    8987.683    -10.731  -0.480  4.91277E-02  1.26994E-01 -7.78668E-02
    8987.823    -10.591  -0.440  5.10825E-02  1.38527E-01 -8.74445E-02
    8987.951    -10.463  -0.400  5.30565E-02  1.50696E-01 -9.76393E-02
    8988.067    -10.347  -0.360  5.50187E-02  1.63203E-01 -1.08184E-01
    8988.171    -10.243  -0.320  5.69312E-02  1.75663E-01 -1.18731E-01
    8988.262    -10.152  -0.280  5.87521E-02  1.87642E-01 -1.28890E-01
    8988.341    -10.073  -0.240  6.04388E-02  1.98723E-01 -1.38284E-01
    8988.408    -10.006  -0.200  6.19505E-02  2.08544E-01 -1.46594E-01
    8988.463     -9.951  -0.160  6.32479E-02  2.16835E-01 -1.53587E-01
    8988.506     -9.908  -0.120  6.42948E-02  2.23414E-01 -1.59119E-01
    8988.536     -9.878  -0.080  6.50653E-02  2.28169E-01 -1.63104E-01
    8988.561     -9.853   0.000  6.57260E-02  2.32003E-01 -1.66277E-01
    8988.616     -9.798   0.120  6.77159E-02  2.40670E-01 -1.72954E-01
    8988.658     -9.756   0.160  6.90904E-02  2.47446E-01 -1.78355E-01
    8988.713     -9.701   0.200  7.08218E-02  2.56157E-01 -1.85335E-01
    8988.780     -9.634   0.240  7.29072E-02  2.66740E-01 -1.93832E-01
    8988.860     -9.554   0.280  7.53504E-02  2.79050E-01 -2.03699E-01
    8988.951     -9.463   0.320  7.81725E-02  2.92875E-01 -2.14702E-01
    8989.055     -9.359   0.360  8.14132E-02  3.07933E-01 -2.26520E-01
    8989.170     -9.244   0.400  8.51404E-02  3.23921E-01 -2.38781E-01
    8989.298     -9.116   0.440  8.94471E-02  3.40554E-01 -2.51107E-01
    8989.439     -8.975   0.480  9.44467E-02  3.57614E-01 -2.63167E-01
    8989.591     -8.823   0.520  1.00241E-01  3.74939E-01 -2.74698E-01
    8989.756     -8.658   0.560  1.06900E-01  3.92488E-01 -2.85588E-01
    8989.932     -8.482   0.600  1.14308E-01  4.10192E-01 -2.95884E-01
    8990.121     -8.293   0.640  1.22262E-01  4.28118E-01 -3.05855E-01
    8990.323     -8.091   0.680  1.30320E-01  4.46248E-01 -3.15928E-01
    8990.536     -7.878   0.720  1.38354E-01  4.64653E-01 -3.26299E-01
    8990.761     -7.653   0.760  1.46704E-01  4.83314E-01 -3.36609E-01
    8990.999     -7.415   0.800  1.56348E-01  5.02247E-01 -3.45899E-01
    8991.249     -7.165   0.840  1.68197E-01  5.21478E-01 -3.53281E-01
    8991.511     -6.903   0.880  1.81959E-01  5.40961E-01 -3.59001E-01
    8991.786     -6.628   0.920  1.95719E-01  5.60679E-01 -3.64961E-01
    8992.072     -6.342   0.960  2.06725E-01  5.80610E-01 -3.73885E-01
    8992.371     -6.043   1.000  2.13804E-01  6.00658E-01 -3.86854E-01
    8992.682     -5.732   1.040  2.19087E-01  6.20785E-01 -4.01698E-01
    8993.005     -5.409   1.080  2.26858E-01  6.40906E-01 -4.14048E-01
    8993.340     -5.074   1.120  2.41011E-01  6.60993E-01 -4.19983E-01
    8993.688     -4.726   1.160  2.63032E-01  6.80934E-01 -4.17902E-01
    8994.047     -4.367   1.200  2.92434E-01  7.00676E-01 -4.08242E-01
    8994.419     -3.995   1.240  3.29070E-01  7.20123E-01 -3.91054E-01
    8994.803     -3.611   1.280  3.75719E-01  7.39222E-01 -3.63503E-01
    8995.199     -3.215   1.320  4.35433E-01  7.57877E-01 -3.22444E-01
    8995.608     -2.806   1.360  5.07250E-01  7.76037E-01 -2.68787E-01
    8996.028     -2.386   1.400  5.91363E-01  7.93612E-01 -2.02249E-01
    8996.461     -1.953   1.440  6.97629E-01  8.10597E-01 -1.12968E-01
    8996.906     -1.508   1.480  8.34907E-01  8.26906E-01  8.00176E-03
    8997.363     -1.051   1.520  9.85767E-01  8.42497E-01  1.43270E-01
    8997.833     -0.581   1.560  1.09230E+00  8.57334E-01  2.34970E-01
    8998.314     -0.100   1.600  1.10359E+00  8.71404E-01  2.32182E-01
    8998.808      0.394   1.640  1.05164E+00  8.84679E-01  1.66963E-01
    8999.314      0.900   1.680  1.01012E+00  8.97153E-01  1.12971E-01
    8999.832      1.418   1.720  9.97937E-01  9.08801E-01  8.91364E-02
    9000.363      1.949   1.760  9.98554E-01  9.19647E-01  7.89063E-02
    9000.905      2.491   1.800  1.00405E+00  9.29676E-01  7.43758E-02
    9001.460      3.046   1.840  1.01323E+00  9.38934E-01  7.42993E-02
    9002.027      3.613   1.880  1.02448E+00  9.47410E-01  7.70720E-02
    9002.606      4.192   1.920  1.03354E+00  9.55159E-01  7.83832E-02
    9003.197      4.783   1.960  1.03758E+00  9.62151E-01  7.54309E-02
    9003.801      5.387   2.000  1.04023E+00  9.68484E-01  7.17451E-02
    9004.416      6.002   2.040  1.04824E+00  9.74134E-01  7.41093E-02
    9005.044      6.630   2.080  1.06798E+00  9.79159E-01  8.88176E-02
    9005.684      7.270   2.120  1.10398E+00  9.83597E-01  1.20387E-01
    9006.337      7.923   2.160  1.14308E+00  9.87488E-01  1.55589E-01
    9007.001      8.587   2.200  1.18155E+00  9.90849E-01  1.90705E-01
    9007.678      9.264   2.240  1.21801E+00  9.93741E-01  2.24268E-01
    9008.367      9.953   2.280  1.24835E+00  9.96181E-01  2.52167E-01
    9009.068     10.654   2.320  1.26495E+00  9.98209E-01  2.66742E-01
    9009.781     11.367   2.360  1.26554E+00  9.99864E-01  2.65671E-01
    9010.506     12.092   2.400  1.25144E+00  1.00118E+00  2.50256E-01
    9011.244     12.830   2.440  1.22714E+00  1.00220E+00  2.24943E-01
    9011.994     13.580   2.480  1.19709E+00  1.00294E+00  1.94155E-01
    9012.756     14.342   2.520  1.16387E+00  1.00342E+00  1.60447E-01
    9013.530     15.116   2.560  1.12844E+00  1.00370E+00  1.24738E-01
    9014.316     15.902   2.600  1.09239E+00  1.00380E+00  8.85928E-02
    9015.115     16.701   2.640  1.05647E+00  1.00373E+00  5.27394E-02
    9015.926     17.512   2.680  1.02185E+00  1.00351E+00  1.83364E-02
    9016.749     18.335   2.720  9.89270E-01  1.00319E+00 -1.39207E-02
    9017.584     19.170   2.760  9.58531E-01  1.00276E+00 -4.42267E-02
    9018.431     20.017   2.800  9.29563E-01  1.00224E+00 -7.26809E-02
    9019.291     20.877   2.840  9.02006E-01  1.00170E+00 -9.96943E-02
    9020.162     21.748   2.880  8.75660E-01  1.00109E+00 -1.25433E-01
    9021.046     22.632   2.920  8.51389E-01  1.00045E+00 -1.49061E-01
    9021.942     23.528   2.960  8.30358E-01  9.99821E-01 -1.69462E-01
    9022.851     24.437   3.000  8.13560E-01  9.99168E-01 -1.85608E-01
    9023.771     25.357   3.040  8.01872E-01  9.98519E-01 -1.96647E-01
    9024.704     26.290   3.080  7.96017E-01  9.97922E-01 -2.01905E-01
    9025.649     27.235   3.120  7.95601E-01  9.97315E-01 -2.01714E-01
    9026.606     28.192   3.160  7.99859E-01  9.96770E-01 -1.96910E-01
    9027.575     29.161   3.200  8.07620E-01  9.96267E-01 -1.88647E-01
    9028.557     30.143   3.240  8.17492E-01  9.95809E-01 -1.78317E-01
    9029.550     31.136   3.280  8.28055E-01  9.95421E-01 -1.67366E-01
    9030.556     32.142   3.320  8.38312E-01  9.95082E-01 -1.56770E-01
    9031.574     33.160   3.360  8.47921E-01  9.94816E-01 -1.46895E-01
    9032.604     34.190   3.400  8.57464E-01  9.94602E-01 -1.37138E-01
    9033.647     35.233   3.440  8.68414E-01  9.94464E-01 -1.26049E-01
    9034.701     36.287   3.480  8.82684E-01  9.94402E-01 -1.11719E-01
    9035.768     37.354   3.520  9.02005E-01  9.94417E-01 -9.24117E-02
    9036.847     38.433   3.560  9.27394E-01  9.94489E-01 -6.70951E-02
    9037.938     39.524   3.600  9.59007E-01  9.94658E-01 -3.56514E-02
    9039.042     40.628   3.640  9.95704E-01  9.94882E-01  8.21581E-04
    9040.157     41.743   3.680  1.03520E+00  9.95159E-01  4.00373E-02
    9041.285     42.871   3.720  1.07455E+00  9.95532E-01  7.90134E-02
    9042.425     44.011   3.760  1.11031E+00  9.95957E-01  1.14351E-01
    9043.577     45.163   3.800  1.13924E+00  9.96433E-01  1.42806E-01
    9044.741     46.327   3.840  1.15920E+00  9.96981E-01  1.62214E-01
    9045.918     47.504   3.880  1.16916E+00  9.97601E-01  1.71559E-01
    9047.107     48.693   3.920  1.16905E+00  9.98266E-01  1.70789E-01
    9048.307     49.893   3.960  1.15992E+00  9.98977E-01  1.60941E-01
    9049.521     51.107   4.000  1.14407E+00  9.99728E-01  1.44341E-01
    9050.746     52.332   4.040  1.12483E+00  1.00052E+00  1.24308E-01
    9051.983     53.569   4.080  1.10551E+00  1.00138E+00  1.04133E-01
    9053.233     54.819   4.120  1.08833E+00  1.00225E+00  8.60786E-02
    9054.495     56.081   4.160  1.07417E+00  1.00315E+00  7.10175E-02
    9055.769     57.355   4.200  1.06271E+00  1.00407E+00  5.86435E-02
    9057.055     58.641   4.240  1.05314E+00  1.00501E+00  4.81324E-02
    9058.354     59.940   4.280  1.04471E+00  1.00596E+00  3.87495E-02
    9059.664     61.250   4.320  1.03713E+00  1.00694E+00  3.01904E-02
    9060.987     62.573   4.360  1.03058E+00  1.00790E+00  2.26856E-02
    9062.322     63.908   4.400  1.02562E+00  1.00887E+00  1.67498E-02
    9063.669     65.255   4.440  1.02263E+00  1.00985E+00  1.27861E-02
    9065.029     66.615   4.480  1.02130E+00  1.01080E+00  1.05046E-02
    9066.400     67.986   4.520  1.02040E+00  1.01173E+00  8.66334E-03
    9067.784     69.370   4.560  1.01817E+00  1.01264E+00  5.53477E-03
    9069.180     70.766   4.600  1.01322E+00  1.01353E+00 -3.10882E-04
    9070.588     72.174   4.640  1.00526E+00  1.01441E+00 -9.15759E-03
    9072.009     73.595   4.680  9.95271E-01  1.01524E+00 -1.99657E-02
    9073.441     75.027   4.720  9.84994E-01  1.01604E+00 -3.10447E-02
    9074.886     76.472   4.760  9.75905E-01  1.01678E+00 -4.08735E-02
    9076.343     77.929   4.800  9.68885E-01  1.01749E+00 -4.86101E-02
    9077.812     79.398   4.840  9.64158E-01  1.01815E+00 -5.39895E-02
    9079.293     80.879   4.880  9.61732E-01  1.01878E+00 -5.70444E-02
    9080.787     82.373   4.920  9.61234E-01  1.01934E+00 -5.81014E-02
    9082.293     83.879   4.960  9.62245E-01  1.01982E+00 -5.75792E-02
    9083.810     85.396   5.000  9.64471E-01  1.02029E+00 -5.58142E-02
    9085.341     86.927   5.040  9.67743E-01  1.02068E+00 -5.29330E-02
    9086.883     88.469   5.080  9.72038E-01  1.02099E+00 -4.89537E-02
    9088.437     90.023   5.120  9.77441E-01  1.02126E+00 -4.38173E-02
    9090.004     91.590   5.160  9.84295E-01  1.02148E+00 -3.71803E-02
    9091.583     93.169   5.200  9.93166E-01  1.02162E+00 -2.84539E-02
    9093.174     94.760   5.240  1.00416E+00  1.02171E+00 -1.75474E-02
    9094.777     96.363   5.280  1.01617E+00  1.02173E+00 -5.55691E-03
    9096.393     97.979   5.320  1.02725E+00  1.02170E+00  5.54682E-03
    9098.020     99.606   5.360  1.03558E+00  1.02160E+00  1.39792E-02
    9099.660    101.246   5.400  1.04017E+00  1.02144E+00  1.87231E-02
    9101.312    102.898   5.440  1.04081E+00  1.02124E+00  1.95629E-02
    9102.976    104.562   5.480  1.03788E+00  1.02097E+00  1.69117E-02
    9104.653    106.239   5.520  1.03225E+00  1.02066E+00  1.15907E-02
    9106.341    107.927   5.560  1.02488E+00  1.02029E+00  4.58365E-03
    9108.042    109.628   5.600  1.01670E+00  1.01989E+00 -3.19109E-03
    9109.755    111.341   5.640  1.00861E+00  1.01942E+00 -1.08072E-02
    9111.480    113.066   5.680  1.00170E+00  1.01893E+00 -1.72250E-02
    9113.217    114.803   5.720  9.96959E-01  1.01840E+00 -2.14371E-02
    9114.967    116.553   5.760  9.95195E-01  1.01780E+00 -2.26101E-02
    9116.729    118.315   5.800  9.96938E-01  1.01720E+00 -2.02646E-02
    9118.503    120.089   5.840  1.00190E+00  1.01659E+00 -1.46875E-02
    9120.289    121.875   5.880  1.00873E+00  1.01592E+00 -7.18981E-03
    9122.087    123.673   5.920  1.01554E+00  1.01526E+00  2.80717E-04
    9123.898    125.484   5.960  1.02059E+00  1.01460E+00  5.98899E-03
    9125.720    127.306   6.000  1.02311E+00  1.01390E+00  9.21045E-03
