# # comment:                                                     FEFF 9.9.1  
# # Source:
# # Structure
# # Reduced
# # space
# # abc:
# # angles:102.699270
# # sites:
# # POT  SCF 100  7.0000   0, screened core-hole, AFOLP (folp(0)= 1.150)
# # Abs   Z=29 Rmt= 1.158 Rnm= 1.277 K  shell
# # Pot 1 Z=38 Rmt= 1.777 Rnm= 1.849
# # Pot 2 Z=13 Rmt= 1.145 Rnm= 1.331
# # Pot 3 Z=29 Rmt= 1.159 Rnm= 1.277
# # Pot 4 Z= 8 Rmt= 1.048 Rnm= 1.121
# # Gam_ch=1.729E+00 H-L exch Vi= 0.000E+00 Vr= 0.000E+00
# # Mu=-9.220E+00eV kf=2.043E+00 Vint=-1.672E+01eV Rs_int= 1.775
# FMS rfms= 9.0000
# # PATH  Rmax=-1.000,  Keep_limit= 0.00, Heap_limit 0.00  Pwcrit= 2.50%
#  S02=0.950  Temp=   0.00  Debye_temp=   0.00  Global_sig2= 0.00000
#  Energy zero shift, vr, vi    0.00000E+00   0.00000E+00
#  Curved wave amplitude ratio filter   4.000%
#     file         sig2 tot  cw amp ratio   deg  nlegs   reff  inp sig2
#     0/   0 paths used
#  xsedge+ 50, used to normalize mu           2.4524E-04
#  -----------------------------------------------------------------------
#  omega    e    k    mu    mu0     chi     @#
    8984.413    -13.030  -1.000  3.05178E-02  5.14656E-02 -2.09478E-02
    8984.712    -12.732  -0.960  3.18627E-02  5.50946E-02 -2.32318E-02
    8984.999    -12.445  -0.920  3.32939E-02  5.91161E-02 -2.58222E-02
    8985.273    -12.171  -0.880  3.48200E-02  6.35870E-02 -2.87670E-02
    8985.535    -11.909  -0.840  3.64507E-02  6.85731E-02 -3.21224E-02
    8985.785    -11.659  -0.800  3.81967E-02  7.41506E-02 -3.59538E-02
    8986.023    -11.421  -0.760  4.00702E-02  8.04067E-02 -4.03365E-02
    8986.248    -11.196  -0.720  4.20841E-02  8.74399E-02 -4.53558E-02
    8986.462    -10.982  -0.680  4.42522E-02  9.53583E-02 -5.11061E-02
    8986.663    -10.781  -0.640  4.65881E-02  1.04276E-01 -5.76878E-02
    8986.852    -10.592  -0.600  4.91039E-02  1.14304E-01 -6.52004E-02
    8987.029    -10.415  -0.560  5.18078E-02  1.25538E-01 -7.37302E-02
    8987.193    -10.251  -0.520  5.47007E-02  1.38033E-01 -8.33320E-02
    8987.346    -10.098  -0.480  5.77715E-02  1.51774E-01 -9.40022E-02
    8987.486     -9.958  -0.440  6.09916E-02  1.66641E-01 -1.05650E-01
    8987.614     -9.830  -0.400  6.43115E-02  1.82379E-01 -1.18068E-01
    8987.730     -9.714  -0.360  6.76595E-02  1.98587E-01 -1.30928E-01
    8987.833     -9.611  -0.320  7.09474E-02  2.14745E-01 -1.43797E-01
    8987.925     -9.519  -0.280  7.40803E-02  2.30272E-01 -1.56192E-01
    8988.004     -9.440  -0.240  7.69682E-02  2.44612E-01 -1.67644E-01
    8988.071     -9.373  -0.200  7.95341E-02  2.57294E-01 -1.77760E-01
    8988.126     -9.318  -0.160  8.17163E-02  2.67971E-01 -1.86255E-01
    8988.169     -9.275  -0.120  8.34677E-02  2.76419E-01 -1.92951E-01
    8988.199     -9.245  -0.080  8.47545E-02  2.82510E-01 -1.97756E-01
    8988.223     -9.220   0.000  8.58391E-02  2.87408E-01 -2.01569E-01
    8988.278     -9.166   0.120  8.85308E-02  2.98471E-01 -2.09940E-01
    8988.321     -9.123   0.160  9.05132E-02  3.07061E-01 -2.16548E-01
    8988.376     -9.068   0.200  9.31129E-02  3.18080E-01 -2.24967E-01
    8988.443     -9.001   0.240  9.62578E-02  3.31336E-01 -2.35078E-01
    8988.522     -8.922   0.280  1.00056E-01  3.46627E-01 -2.46572E-01
    8988.614     -8.830   0.320  1.04563E-01  3.63579E-01 -2.59016E-01
    8988.717     -8.727   0.360  1.09890E-01  3.81744E-01 -2.71854E-01
    8988.833     -8.611   0.400  1.16175E-01  4.00624E-01 -2.84449E-01
    8988.961     -8.483   0.440  1.23692E-01  4.19804E-01 -2.96112E-01
    8989.101     -8.343   0.480  1.32530E-01  4.38904E-01 -3.06374E-01
    8989.254     -8.190   0.520  1.42732E-01  4.57729E-01 -3.14997E-01
    8989.418     -8.026   0.560  1.53851E-01  4.76160E-01 -3.22309E-01
    8989.595     -7.849   0.600  1.64956E-01  4.94145E-01 -3.29189E-01
    8989.784     -7.660   0.640  1.74857E-01  5.11772E-01 -3.36915E-01
    8989.985     -7.459   0.680  1.82353E-01  5.29057E-01 -3.46705E-01
    8990.199     -7.245   0.720  1.86874E-01  5.46089E-01 -3.59215E-01
    8990.424     -7.020   0.760  1.88858E-01  5.62933E-01 -3.74075E-01
    8990.662     -6.782   0.800  1.89868E-01  5.79644E-01 -3.89776E-01
    8990.912     -6.532   0.840  1.92329E-01  5.96290E-01 -4.03961E-01
    8991.174     -6.270   0.880  1.98710E-01  6.12860E-01 -4.14150E-01
    8991.448     -5.996   0.920  2.10602E-01  6.29417E-01 -4.18815E-01
    8991.735     -5.709   0.960  2.28406E-01  6.45929E-01 -4.17522E-01
    8992.033     -5.410   1.000  2.52063E-01  6.62416E-01 -4.10353E-01
    8992.344     -5.100   1.040  2.80401E-01  6.78830E-01 -3.98428E-01
    8992.667     -4.776   1.080  3.09247E-01  6.95197E-01 -3.85950E-01
    8993.003     -4.441   1.120  3.31934E-01  7.11455E-01 -3.79521E-01
    8993.350     -4.094   1.160  3.43564E-01  7.27579E-01 -3.84015E-01
    8993.710     -3.734   1.200  3.45258E-01  7.43543E-01 -3.98285E-01
    8994.082     -3.362   1.240  3.45856E-01  7.59314E-01 -4.13458E-01
    8994.466     -2.978   1.280  3.55875E-01  7.74838E-01 -4.18963E-01
    8994.862     -2.582   1.320  3.80890E-01  7.90061E-01 -4.09172E-01
    8995.270     -2.173   1.360  4.19877E-01  8.04989E-01 -3.85112E-01
    8995.691     -1.753   1.400  4.64428E-01  8.19525E-01 -3.55097E-01
    8996.124     -1.320   1.440  5.04310E-01  8.33697E-01 -3.29387E-01
    8996.569     -0.875   1.480  5.37687E-01  8.47429E-01 -3.09742E-01
    8997.026     -0.418   1.520  5.68856E-01  8.60706E-01 -2.91851E-01
    8997.495      0.052   1.560  6.00086E-01  8.73478E-01 -2.73392E-01
    8997.977      0.533   1.600  6.35537E-01  8.85752E-01 -2.50216E-01
    8998.471      1.027   1.640  6.83497E-01  8.97481E-01 -2.13983E-01
    8998.977      1.533   1.680  7.48247E-01  9.08656E-01 -1.60409E-01
    8999.495      2.051   1.720  8.23746E-01  9.19272E-01 -9.55255E-02
    9000.025      2.581   1.760  9.06315E-01  9.29303E-01 -2.29882E-02
    9000.568      3.124   1.800  1.00958E+00  9.38749E-01  7.08352E-02
    9001.123      3.679   1.840  1.13780E+00  9.47607E-01  1.90192E-01
    9001.689      4.246   1.880  1.26260E+00  9.55879E-01  3.06723E-01
    9002.269      4.825   1.920  1.34662E+00  9.63568E-01  3.83055E-01
    9002.860      5.416   1.960  1.36925E+00  9.70678E-01  3.98573E-01
    9003.463      6.020   2.000  1.34369E+00  9.77236E-01  3.66451E-01
    9004.079      6.635   2.040  1.30144E+00  9.83225E-01  3.18219E-01
    9004.707      7.263   2.080  1.26521E+00  9.88674E-01  2.76537E-01
    9005.347      7.903   2.120  1.24071E+00  9.93614E-01  2.47092E-01
    9005.999      8.555   2.160  1.22600E+00  9.98032E-01  2.27966E-01
    9006.664      9.220   2.200  1.21746E+00  1.00198E+00  2.15485E-01
    9007.340      9.897   2.240  1.21360E+00  1.00545E+00  2.08153E-01
    9008.029     10.585   2.280  1.21361E+00  1.00849E+00  2.05123E-01
    9008.730     11.286   2.320  1.21183E+00  1.01111E+00  2.00718E-01
    9009.444     12.000   2.360  1.20241E+00  1.01333E+00  1.89083E-01
    9010.169     12.725   2.400  1.19032E+00  1.01515E+00  1.75163E-01
    9010.907     13.463   2.440  1.18789E+00  1.01666E+00  1.71237E-01
    9011.656     14.213   2.480  1.19774E+00  1.01781E+00  1.79932E-01
    9012.418     14.974   2.520  1.20217E+00  1.01869E+00  1.83476E-01
    9013.193     15.749   2.560  1.19511E+00  1.01926E+00  1.75847E-01
    9013.979     16.535   2.600  1.17661E+00  1.01958E+00  1.57026E-01
    9014.777     17.334   2.640  1.15115E+00  1.01968E+00  1.31463E-01
    9015.588     18.144   2.680  1.12292E+00  1.01955E+00  1.03366E-01
    9016.411     18.967   2.720  1.09562E+00  1.01924E+00  7.63804E-02
    9017.246     19.803   2.760  1.07065E+00  1.01876E+00  5.18910E-02
    9018.094     20.650   2.800  1.04735E+00  1.01810E+00  2.92542E-02
    9018.953     21.509   2.840  1.02521E+00  1.01733E+00  7.88400E-03
    9019.825     22.381   2.880  1.00461E+00  1.01644E+00 -1.18220E-02
    9020.709     23.265   2.920  9.86244E-01  1.01543E+00 -2.91846E-02
    9021.605     24.161   2.960  9.71048E-01  1.01434E+00 -4.32883E-02
    9022.513     25.069   3.000  9.59553E-01  1.01319E+00 -5.36348E-02
    9023.434     25.990   3.040  9.51469E-01  1.01197E+00 -6.05002E-02
    9024.366     26.923   3.080  9.45935E-01  1.01073E+00 -6.47921E-02
    9025.311     27.867   3.120  9.41536E-01  1.00943E+00 -6.78903E-02
    9026.268     28.825   3.160  9.36698E-01  1.00812E+00 -7.14180E-02
    9027.238     29.794   3.200  9.30255E-01  1.00680E+00 -7.65454E-02
    9028.219     30.775   3.240  9.21954E-01  1.00548E+00 -8.35306E-02
    9029.213     31.769   3.280  9.12103E-01  1.00419E+00 -9.20892E-02
    9030.219     32.775   3.320  9.01566E-01  1.00289E+00 -1.01322E-01
    9031.237     33.793   3.360  8.91536E-01  1.00164E+00 -1.10102E-01
    9032.267     34.823   3.400  8.83003E-01  1.00040E+00 -1.17400E-01
    9033.309     35.865   3.440  8.76454E-01  9.99228E-01 -1.22773E-01
    9034.364     36.920   3.480  8.72090E-01  9.98074E-01 -1.25984E-01
    9035.431     37.987   3.520  8.70079E-01  9.96988E-01 -1.26909E-01
    9036.510     39.066   3.560  8.70383E-01  9.95969E-01 -1.25586E-01
    9037.601     40.157   3.600  8.72924E-01  9.94979E-01 -1.22055E-01
    9038.704     41.260   3.640  8.77802E-01  9.94083E-01 -1.16281E-01
    9039.820     42.376   3.680  8.84971E-01  9.93239E-01 -1.08268E-01
    9040.948     43.504   3.720  8.94021E-01  9.92468E-01 -9.84469E-02
    9042.087     44.644   3.760  9.04353E-01  9.91753E-01 -8.74000E-02
    9043.240     45.796   3.800  9.15383E-01  9.91135E-01 -7.57518E-02
    9044.404     46.960   3.840  9.26637E-01  9.90572E-01 -6.39353E-02
    9045.580     48.137   3.880  9.38064E-01  9.90088E-01 -5.20243E-02
    9046.769     49.325   3.920  9.49815E-01  9.89681E-01 -3.98659E-02
    9047.970     50.526   3.960  9.61893E-01  9.89353E-01 -2.74604E-02
    9049.183     51.739   4.000  9.74104E-01  9.89103E-01 -1.49984E-02
    9050.408     52.965   4.040  9.86232E-01  9.88909E-01 -2.67670E-03
    9051.646     54.202   4.080  9.98299E-01  9.88812E-01  9.48718E-03
    9052.896     55.452   4.120  1.01024E+00  9.88769E-01  2.14683E-02
    9054.157     56.714   4.160  1.02198E+00  9.88801E-01  3.31829E-02
    9055.432     57.988   4.200  1.03320E+00  9.88886E-01  4.43152E-02
    9056.718     59.274   4.240  1.04354E+00  9.89045E-01  5.44915E-02
    9058.016     60.572   4.280  1.05273E+00  9.89278E-01  6.34482E-02
    9059.327     61.883   4.320  1.06056E+00  9.89582E-01  7.09813E-02
    9060.650     63.206   4.360  1.06667E+00  9.89914E-01  7.67517E-02
    9061.985     64.541   4.400  1.07054E+00  9.90335E-01  8.02039E-02
    9063.332     65.888   4.440  1.07178E+00  9.90781E-01  8.09998E-02
    9064.691     67.247   4.480  1.07053E+00  9.91292E-01  7.92373E-02
    9066.063     68.619   4.520  1.06734E+00  9.91844E-01  7.54961E-02
    9067.447     70.003   4.560  1.06305E+00  9.92414E-01  7.06359E-02
    9068.843     71.399   4.600  1.05851E+00  9.93045E-01  6.54665E-02
    9070.251     72.807   4.640  1.05416E+00  9.93713E-01  6.04476E-02
    9071.671     74.227   4.680  1.05008E+00  9.94394E-01  5.56860E-02
    9073.104     75.660   4.720  1.04624E+00  9.95108E-01  5.11371E-02
    9074.549     77.105   4.760  1.04272E+00  9.95831E-01  4.68884E-02
    9076.005     78.562   4.800  1.03988E+00  9.96584E-01  4.32918E-02
    9077.475     80.031   4.840  1.03810E+00  9.97364E-01  4.07358E-02
    9078.956     81.512   4.880  1.03732E+00  9.98124E-01  3.91916E-02
    9080.449     83.006   4.920  1.03675E+00  9.98886E-01  3.78605E-02
    9081.955     84.511   4.960  1.03504E+00  9.99669E-01  3.53692E-02
    9083.473     86.029   5.000  1.03105E+00  1.00043E+00  3.06241E-02
    9085.003     87.559   5.040  1.02484E+00  1.00120E+00  2.36315E-02
    9086.545     89.102   5.080  1.01734E+00  1.00193E+00  1.54062E-02
    9088.100     90.656   5.120  1.00999E+00  1.00267E+00  7.31850E-03
    9089.667     92.223   5.160  1.00384E+00  1.00338E+00  4.66103E-04
    9091.245     93.802   5.200  9.99454E-01  1.00405E+00 -4.59720E-03
    9092.836     95.393   5.240  9.96806E-01  1.00471E+00 -7.90595E-03
    9094.440     96.996   5.280  9.95353E-01  1.00534E+00 -9.98216E-03
    9096.055     98.611   5.320  9.94441E-01  1.00592E+00 -1.14783E-02
    9097.683    100.239   5.360  9.93703E-01  1.00646E+00 -1.27605E-02
    9099.323    101.879   5.400  9.93023E-01  1.00697E+00 -1.39431E-02
    9100.975    103.531   5.440  9.92092E-01  1.00743E+00 -1.53341E-02
    9102.639    105.195   5.480  9.90197E-01  1.00784E+00 -1.76467E-02
    9104.315    106.871   5.520  9.86614E-01  1.00822E+00 -2.16028E-02
    9106.004    108.560   5.560  9.81197E-01  1.00852E+00 -2.73236E-02
    9107.705    110.261   5.600  9.74695E-01  1.00878E+00 -3.40836E-02
    9109.417    111.974   5.640  9.68387E-01  1.00899E+00 -4.06056E-02
    9111.143    113.699   5.680  9.63553E-01  1.00916E+00 -4.56060E-02
    9112.880    115.436   5.720  9.60848E-01  1.00926E+00 -4.84086E-02
    9114.630    117.186   5.760  9.60075E-01  1.00931E+00 -4.92310E-02
    9116.391    118.947   5.800  9.60262E-01  1.00928E+00 -4.90216E-02
    9118.165    120.721   5.840  9.60511E-01  1.00922E+00 -4.87052E-02
    9119.951    122.507   5.880  9.60624E-01  1.00910E+00 -4.84801E-02
    9121.750    124.306   5.920  9.61067E-01  1.00892E+00 -4.78531E-02
    9123.560    126.116   5.960  9.62488E-01  1.00869E+00 -4.61980E-02
    9125.383    127.939   6.000  9.65377E-01  1.00837E+00 -4.29886E-02
