# # comment:                                                     FEFF 9.9.1  
# # Source:
# # Structure
# # Reduced
# # space
# # abc:
# # angles:
# # sites:
# # POT  SCF 100  7.0000   0, screened core-hole, AFOLP (folp(0)= 1.150)
# # Abs   Z=29 Rmt= 1.327 Rnm= 1.392 K  shell
# # Pot 1 Z=29 Rmt= 1.327 Rnm= 1.392
# # Pot 2 Z=75 Rmt= 1.210 Rnm= 1.388
# # Pot 3 Z= 8 Rmt= 1.009 Rnm= 1.075
# # Gam_ch=1.729E+00 H-L exch Vi= 0.000E+00 Vr= 0.000E+00
# # Mu=-6.066E+00eV kf=2.318E+00 Vint=-1.619E+01eV Rs_int= 1.565
# FMS rfms= 9.0000
# # PATH  Rmax=-1.000,  Keep_limit= 0.00, Heap_limit 0.00  Pwcrit= 2.50%
#  S02=0.950  Temp=   0.00  Debye_temp=   0.00  Global_sig2= 0.00000
#  Energy zero shift, vr, vi    0.00000E+00   0.00000E+00
#  Curved wave amplitude ratio filter   4.000%
#     file         sig2 tot  cw amp ratio   deg  nlegs   reff  inp sig2
#     0/   0 paths used
#  xsedge+ 50, used to normalize mu           2.4635E-04
#  -----------------------------------------------------------------------
#  omega    e    k    mu    mu0     chi     @#
    8983.333     -9.875  -1.000  4.35356E-02  5.47625E-02 -1.12269E-02
    8983.632     -9.577  -0.960  4.59636E-02  5.87677E-02 -1.28042E-02
    8983.918     -9.290  -0.920  4.85924E-02  6.32216E-02 -1.46292E-02
    8984.193     -9.016  -0.880  5.14476E-02  6.81907E-02 -1.67430E-02
    8984.455     -8.754  -0.840  5.45591E-02  7.37523E-02 -1.91932E-02
    8984.705     -8.504  -0.800  5.79617E-02  7.99962E-02 -2.20344E-02
    8984.942     -8.266  -0.760  6.16961E-02  8.70255E-02 -2.53294E-02
    8985.168     -8.041  -0.720  6.58087E-02  9.49567E-02 -2.91480E-02
    8985.381     -7.827  -0.680  7.03512E-02  1.03918E-01 -3.35670E-02
    8985.583     -7.626  -0.640  7.53789E-02  1.14046E-01 -3.86669E-02
    8985.772     -7.437  -0.600  8.09460E-02  1.25473E-01 -4.45267E-02
    8985.948     -7.260  -0.560  8.70983E-02  1.38313E-01 -5.12147E-02
    8986.113     -7.096  -0.520  9.38599E-02  1.52635E-01 -5.87748E-02
    8986.265     -6.943  -0.480  1.01216E-01  1.68423E-01 -6.72072E-02
    8986.406     -6.803  -0.440  1.09094E-01  1.85540E-01 -7.64467E-02
    8986.534     -6.675  -0.400  1.17342E-01  2.03686E-01 -8.63436E-02
    8986.649     -6.559  -0.360  1.25734E-01  2.22390E-01 -9.66563E-02
    8986.753     -6.456  -0.320  1.33978E-01  2.41041E-01 -1.07063E-01
    8986.844     -6.364  -0.280  1.41764E-01  2.58961E-01 -1.17196E-01
    8986.924     -6.285  -0.240  1.48811E-01  2.75497E-01 -1.26686E-01
    8986.991     -6.218  -0.200  1.54904E-01  2.90106E-01 -1.35202E-01
    8987.046     -6.163  -0.160  1.59916E-01  3.02390E-01 -1.42474E-01
    8987.088     -6.120  -0.120  1.63791E-01  3.12096E-01 -1.48305E-01
    8987.119     -6.090  -0.080  1.66523E-01  3.19086E-01 -1.52563E-01
    8987.143     -6.066   0.000  1.68644E-01  3.24699E-01 -1.56056E-01
    8987.198     -6.011   0.120  1.73347E-01  3.37369E-01 -1.64023E-01
    8987.241     -5.968   0.160  1.76927E-01  3.47182E-01 -1.70255E-01
    8987.296     -5.913   0.200  1.81369E-01  3.59723E-01 -1.78354E-01
    8987.363     -5.846   0.240  1.86465E-01  3.74795E-01 -1.88329E-01
    8987.442     -5.767   0.280  1.91935E-01  3.92084E-01 -2.00150E-01
    8987.533     -5.675   0.320  1.97432E-01  4.11139E-01 -2.13707E-01
    8987.637     -5.572   0.360  2.02580E-01  4.31352E-01 -2.28772E-01
    8987.753     -5.456   0.400  2.07189E-01  4.52169E-01 -2.44980E-01
    8987.881     -5.328   0.440  2.11269E-01  4.73026E-01 -2.61757E-01
    8988.021     -5.188   0.480  2.15210E-01  4.93480E-01 -2.78270E-01
    8988.173     -5.035   0.520  2.19877E-01  5.13265E-01 -2.93387E-01
    8988.338     -4.871   0.560  2.26456E-01  5.32259E-01 -3.05804E-01
    8988.515     -4.694   0.600  2.36229E-01  5.50412E-01 -3.14182E-01
    8988.704     -4.505   0.640  2.50435E-01  5.67804E-01 -3.17369E-01
    8988.905     -4.304   0.680  2.69904E-01  5.84518E-01 -3.14614E-01
    8989.118     -4.090   0.720  2.94904E-01  6.00647E-01 -3.05743E-01
    8989.344     -3.865   0.760  3.25018E-01  6.16308E-01 -2.91290E-01
    8989.582     -3.627   0.800  3.58855E-01  6.31584E-01 -2.72729E-01
    8989.831     -3.377   0.840  3.93979E-01  6.46546E-01 -2.52567E-01
    8990.094     -3.115   0.880  4.27109E-01  6.61254E-01 -2.34144E-01
    8990.368     -2.841   0.920  4.55523E-01  6.75748E-01 -2.20225E-01
    8990.654     -2.554   0.960  4.79020E-01  6.90081E-01 -2.11062E-01
    8990.953     -2.256   1.000  5.00266E-01  7.04272E-01 -2.04007E-01
    8991.264     -1.945   1.040  5.22691E-01  7.18311E-01 -1.95620E-01
    8991.587     -1.622   1.080  5.49415E-01  7.32222E-01 -1.82806E-01
    8991.922     -1.286   1.120  5.84495E-01  7.46018E-01 -1.61523E-01
    8992.270     -0.939   1.160  6.32328E-01  7.59650E-01 -1.27321E-01
    8992.630     -0.579   1.200  6.94674E-01  7.73122E-01 -7.84479E-02
    8993.001     -0.207   1.240  7.71514E-01  7.86417E-01 -1.49024E-02
    8993.385      0.177   1.280  8.61371E-01  7.99492E-01  6.18789E-02
    8993.782      0.573   1.320  9.56179E-01  8.12384E-01  1.43795E-01
    8994.190      0.981   1.360  1.04482E+00  8.25008E-01  2.19809E-01
    8994.611      1.402   1.400  1.12217E+00  8.37357E-01  2.84814E-01
    8995.044      1.835   1.440  1.18346E+00  8.49424E-01  3.34034E-01
    8995.489      2.280   1.480  1.21747E+00  8.61179E-01  3.56292E-01
    8995.946      2.737   1.520  1.21781E+00  8.72598E-01  3.45212E-01
    8996.415      3.206   1.560  1.19669E+00  8.83649E-01  3.13042E-01
    8996.897      3.688   1.600  1.17491E+00  8.94326E-01  2.80587E-01
    8997.390      4.182   1.640  1.16959E+00  9.04602E-01  2.64990E-01
    8997.896      4.688   1.680  1.18013E+00  9.14450E-01  2.65680E-01
    8998.415      5.206   1.720  1.19040E+00  9.23865E-01  2.66540E-01
    8998.945      5.736   1.760  1.19540E+00  9.32862E-01  2.62539E-01
    8999.487      6.279   1.800  1.21011E+00  9.41377E-01  2.68731E-01
    9000.042      6.834   1.840  1.24894E+00  9.49449E-01  2.99494E-01
    9000.609      7.400   1.880  1.30325E+00  9.57055E-01  3.46194E-01
    9001.188      7.980   1.920  1.35148E+00  9.64196E-01  3.87283E-01
    9001.780      8.571   1.960  1.37911E+00  9.70871E-01  4.08240E-01
    9002.383      9.174   2.000  1.37761E+00  9.77083E-01  4.00523E-01
    9002.999      9.790   2.040  1.34529E+00  9.82814E-01  3.62472E-01
    9003.627     10.418   2.080  1.29211E+00  9.88106E-01  3.04004E-01
    9004.267     11.058   2.120  1.22867E+00  9.92946E-01  2.35721E-01
    9004.919     11.710   2.160  1.15902E+00  9.97338E-01  1.61687E-01
    9005.583     12.375   2.200  1.08540E+00  1.00131E+00  8.40922E-02
    9006.260     13.051   2.240  1.01688E+00  1.00486E+00  1.20155E-02
    9006.949     13.740   2.280  9.62831E-01  1.00803E+00 -4.52015E-02
    9007.650     14.441   2.320  9.25070E-01  1.01080E+00 -8.57322E-02
    9008.363     15.155   2.360  9.03158E-01  1.01320E+00 -1.10042E-01
    9009.089     15.880   2.400  8.95699E-01  1.01526E+00 -1.19558E-01
    9009.826     16.618   2.440  8.99434E-01  1.01698E+00 -1.17548E-01
    9010.576     17.367   2.480  9.08426E-01  1.01838E+00 -1.09957E-01
    9011.338     18.129   2.520  9.12415E-01  1.01947E+00 -1.07052E-01
    9012.112     18.904   2.560  9.02164E-01  1.02029E+00 -1.18123E-01
    9012.899     19.690   2.600  8.81525E-01  1.02085E+00 -1.39328E-01
    9013.697     20.489   2.640  8.64530E-01  1.02117E+00 -1.56644E-01
    9014.508     21.299   2.680  8.57247E-01  1.02126E+00 -1.64012E-01
    9015.331     22.122   2.720  8.59798E-01  1.02116E+00 -1.61359E-01
    9016.166     22.957   2.760  8.65575E-01  1.02086E+00 -1.55282E-01
    9017.013     23.805   2.800  8.70972E-01  1.02037E+00 -1.49394E-01
    9017.873     24.664   2.840  8.77382E-01  1.01974E+00 -1.42356E-01
    9018.745     25.536   2.880  8.85547E-01  1.01898E+00 -1.33433E-01
    9019.629     26.420   2.920  8.95706E-01  1.01810E+00 -1.22393E-01
    9020.525     27.316   2.960  9.07612E-01  1.01712E+00 -1.09512E-01
    9021.433     28.224   3.000  9.19831E-01  1.01604E+00 -9.62092E-02
    9022.353     29.145   3.040  9.31107E-01  1.01487E+00 -8.37680E-02
    9023.286     30.078   3.080  9.40900E-01  1.01366E+00 -7.27581E-02
    9024.231     31.022   3.120  9.49133E-01  1.01240E+00 -6.32629E-02
    9025.188     31.979   3.160  9.56113E-01  1.01109E+00 -5.49809E-02
    9026.157     32.949   3.200  9.62573E-01  1.00978E+00 -4.72060E-02
    9027.139     33.930   3.240  9.69250E-01  1.00843E+00 -3.91840E-02
    9028.132     34.924   3.280  9.76710E-01  1.00708E+00 -3.03747E-02
    9029.138     35.930   3.320  9.85384E-01  1.00574E+00 -2.03534E-02
    9030.156     36.948   3.360  9.95275E-01  1.00442E+00 -9.14116E-03
    9031.187     37.978   3.400  1.00590E+00  1.00311E+00  2.79680E-03
    9032.229     39.020   3.440  1.01670E+00  1.00183E+00  1.48686E-02
    9033.284     40.075   3.480  1.02714E+00  1.00059E+00  2.65426E-02
    9034.350     41.142   3.520  1.03676E+00  9.99417E-01  3.73456E-02
    9035.429     42.221   3.560  1.04531E+00  9.98264E-01  4.70491E-02
    9036.521     43.312   3.600  1.05283E+00  9.97177E-01  5.56531E-02
    9037.624     44.415   3.640  1.05931E+00  9.96140E-01  6.31741E-02
    9038.739     45.531   3.680  1.06465E+00  9.95173E-01  6.94756E-02
    9039.867     46.659   3.720  1.06874E+00  9.94258E-01  7.44816E-02
    9041.007     47.799   3.760  1.07151E+00  9.93440E-01  7.80727E-02
    9042.159     48.951   3.800  1.07275E+00  9.92677E-01  8.00733E-02
    9043.324     50.115   3.840  1.07234E+00  9.91988E-01  8.03473E-02
    9044.500     51.292   3.880  1.07020E+00  9.91356E-01  7.88465E-02
    9045.689     52.480   3.920  1.06633E+00  9.90823E-01  7.55092E-02
    9046.890     53.681   3.960  1.06072E+00  9.90369E-01  7.03466E-02
    9048.103     54.894   4.000  1.05366E+00  9.89973E-01  6.36852E-02
    9049.328     56.120   4.040  1.04582E+00  9.89677E-01  5.61458E-02
    9050.566     57.357   4.080  1.03784E+00  9.89435E-01  4.84088E-02
    9051.815     58.607   4.120  1.03021E+00  9.89269E-01  4.09399E-02
    9053.077     59.869   4.160  1.02308E+00  9.89182E-01  3.38936E-02
    9054.351     61.143   4.200  1.01632E+00  9.89169E-01  2.71544E-02
    9055.638     62.429   4.240  1.00980E+00  9.89210E-01  2.05882E-02
    9056.936     63.727   4.280  1.00351E+00  9.89324E-01  1.41847E-02
    9058.247     65.038   4.320  9.97503E-01  9.89511E-01  7.99152E-03
    9059.569     66.361   4.360  9.91805E-01  9.89749E-01  2.05579E-03
    9060.904     67.696   4.400  9.86510E-01  9.90055E-01 -3.54527E-03
    9062.252     69.043   4.440  9.81724E-01  9.90408E-01 -8.68335E-03
    9063.611     70.402   4.480  9.77585E-01  9.90803E-01 -1.32188E-02
    9064.983     71.774   4.520  9.74098E-01  9.91243E-01 -1.71452E-02
    9066.366     73.158   4.560  9.71023E-01  9.91745E-01 -2.07222E-02
    9067.762     74.554   4.600  9.67937E-01  9.92266E-01 -2.43295E-02
    9069.171     75.962   4.640  9.64679E-01  9.92845E-01 -2.81666E-02
    9070.591     77.382   4.680  9.61355E-01  9.93436E-01 -3.20818E-02
    9072.023     78.815   4.720  9.58352E-01  9.94038E-01 -3.56856E-02
    9073.468     80.260   4.760  9.56117E-01  9.94670E-01 -3.85538E-02
    9074.925     81.717   4.800  9.54961E-01  9.95332E-01 -4.03710E-02
    9076.394     83.186   4.840  9.55056E-01  9.95998E-01 -4.09418E-02
    9077.876     84.667   4.880  9.56554E-01  9.96666E-01 -4.01115E-02
    9079.369     86.160   4.920  9.59585E-01  9.97331E-01 -3.77461E-02
    9080.875     87.666   4.960  9.64154E-01  9.97972E-01 -3.38176E-02
    9082.393     89.184   5.000  9.70092E-01  9.98631E-01 -2.85384E-02
    9083.923     90.714   5.040  9.76783E-01  9.99262E-01 -2.24784E-02
    9085.465     92.256   5.080  9.83489E-01  9.99885E-01 -1.63958E-02
    9087.020     93.811   5.120  9.89530E-01  1.00050E+00 -1.09665E-02
    9088.586     95.378   5.160  9.94490E-01  1.00105E+00 -6.56173E-03
    9090.165     96.956   5.200  9.98302E-01  1.00159E+00 -3.29027E-03
    9091.756     98.548   5.240  1.00091E+00  1.00210E+00 -1.18794E-03
    9093.359    100.151   5.280  1.00226E+00  1.00258E+00 -3.22305E-04
    9094.975    101.766   5.320  1.00229E+00  1.00301E+00 -7.15729E-04
    9096.602    103.394   5.360  1.00120E+00  1.00339E+00 -2.18717E-03
    9098.242    105.034   5.400  9.99338E-01  1.00372E+00 -4.38610E-03
    9099.894    106.686   5.440  9.97028E-01  1.00401E+00 -6.98676E-03
    9101.558    108.350   5.480  9.94472E-01  1.00424E+00 -9.76479E-03
    9103.235    110.026   5.520  9.91945E-01  1.00441E+00 -1.24685E-02
    9104.923    111.715   5.560  9.89844E-01  1.00454E+00 -1.47008E-02
    9106.624    113.416   5.600  9.88647E-01  1.00463E+00 -1.59819E-02
    9108.337    115.129   5.640  9.88731E-01  1.00464E+00 -1.59100E-02
    9110.062    116.854   5.680  9.90324E-01  1.00458E+00 -1.42599E-02
    9111.800    118.591   5.720  9.93530E-01  1.00450E+00 -1.09737E-02
    9113.549    120.341   5.760  9.98247E-01  1.00435E+00 -6.10597E-03
    9115.311    122.102   5.800  1.00432E+00  1.00413E+00  1.90376E-04
    9117.085    123.876   5.840  1.01145E+00  1.00386E+00  7.58311E-03
    9118.871    125.662   5.880  1.01903E+00  1.00355E+00  1.54724E-02
    9120.669    127.461   5.920  1.02627E+00  1.00318E+00  2.30935E-02
    9122.480    129.271   5.960  1.03246E+00  1.00276E+00  2.97022E-02
    9124.303    131.094   6.000  1.03702E+00  1.00226E+00  3.47603E-02
