# # comment:                                                     FEFF 9.9.1  
# # Source:
# # Structure
# # Reduced
# # space
# # abc:
# # angles:146.348261
# # sites:
# # POT  SCF 100  7.0000   0, screened core-hole, AFOLP (folp(0)= 1.150)
# # Abs   Z=29 Rmt= 1.246 Rnm= 1.323 K  shell
# # Pot 1 Z=57 Rmt= 1.699 Rnm= 1.794
# # Pot 2 Z=29 Rmt= 1.246 Rnm= 1.323
# # Pot 3 Z= 8 Rmt= 1.073 Rnm= 1.123
# # Gam_ch=1.729E+00 H-L exch Vi= 0.000E+00 Vr= 0.000E+00
# # Mu=-8.365E+00eV kf=2.056E+00 Vint=-1.760E+01eV Rs_int= 1.764
# FMS rfms= 9.0000
# # PATH  Rmax=-1.000,  Keep_limit= 0.00, Heap_limit 0.00  Pwcrit= 2.50%
#  S02=0.950  Temp=   0.00  Debye_temp=   0.00  Global_sig2= 0.00000
#  Energy zero shift, vr, vi    0.00000E+00   0.00000E+00
#  Curved wave amplitude ratio filter   4.000%
#     file         sig2 tot  cw amp ratio   deg  nlegs   reff  inp sig2
#     0/   0 paths used
#  xsedge+ 50, used to normalize mu           2.4577E-04
#  -----------------------------------------------------------------------
#  omega    e    k    mu    mu0     chi     @#
    8984.835    -12.175  -1.000  3.84867E-02  5.54620E-02 -1.69752E-02
    8985.134    -11.876  -0.960  4.05318E-02  5.95482E-02 -1.90164E-02
    8985.420    -11.589  -0.920  4.27476E-02  6.40938E-02 -2.13462E-02
    8985.695    -11.315  -0.880  4.51567E-02  6.91668E-02 -2.40101E-02
    8985.957    -11.053  -0.840  4.77855E-02  7.48465E-02 -2.70610E-02
    8986.207    -10.803  -0.800  5.06647E-02  8.12249E-02 -3.05602E-02
    8986.445    -10.565  -0.760  5.38297E-02  8.84073E-02 -3.45776E-02
    8986.670    -10.340  -0.720  5.73210E-02  9.65131E-02 -3.91921E-02
    8986.883    -10.126  -0.680  6.11834E-02  1.05674E-01 -4.44903E-02
    8987.085     -9.925  -0.640  6.54642E-02  1.16028E-01 -5.05636E-02
    8987.274     -9.736  -0.600  7.02096E-02  1.27712E-01 -5.75023E-02
    8987.450     -9.560  -0.560  7.54577E-02  1.40842E-01 -6.53847E-02
    8987.615     -9.395  -0.520  8.12278E-02  1.55489E-01 -7.42614E-02
    8987.767     -9.243  -0.480  8.75049E-02  1.71637E-01 -8.41326E-02
    8987.908     -9.102  -0.440  9.42231E-02  1.89145E-01 -9.49222E-02
    8988.036     -8.974  -0.400  1.01252E-01  2.07707E-01 -1.06455E-01
    8988.151     -8.858  -0.360  1.08393E-01  2.26841E-01 -1.18447E-01
    8988.255     -8.755  -0.320  1.15401E-01  2.45922E-01 -1.30521E-01
    8988.346     -8.663  -0.280  1.22015E-01  2.64257E-01 -1.42242E-01
    8988.426     -8.584  -0.240  1.28002E-01  2.81179E-01 -1.53177E-01
    8988.493     -8.517  -0.200  1.33188E-01  2.96130E-01 -1.62943E-01
    8988.548     -8.462  -0.160  1.37465E-01  3.08704E-01 -1.71240E-01
    8988.590     -8.420  -0.120  1.40780E-01  3.18641E-01 -1.77861E-01
    8988.621     -8.389  -0.080  1.43121E-01  3.25797E-01 -1.82676E-01
    8988.645     -8.365   0.000  1.44953E-01  3.31545E-01 -1.86592E-01
    8988.700     -8.310   0.120  1.49477E-01  3.44509E-01 -1.95032E-01
    8988.743     -8.267   0.160  1.52848E-01  3.54578E-01 -2.01729E-01
    8988.798     -8.212   0.200  1.57059E-01  3.67420E-01 -2.10361E-01
    8988.865     -8.145   0.240  1.61985E-01  3.82856E-01 -2.20871E-01
    8988.944     -8.066   0.280  1.67499E-01  4.00570E-01 -2.33070E-01
    8989.035     -7.975   0.320  1.73488E-01  4.20102E-01 -2.46614E-01
    8989.139     -7.871   0.360  1.79864E-01  4.40861E-01 -2.60996E-01
    8989.255     -7.755   0.400  1.86711E-01  4.62216E-01 -2.75505E-01
    8989.383     -7.627   0.440  1.94301E-01  4.83635E-01 -2.89334E-01
    8989.523     -7.487   0.480  2.03030E-01  5.04668E-01 -3.01639E-01
    8989.675     -7.334   0.520  2.13261E-01  5.25024E-01 -3.11762E-01
    8989.840     -7.170   0.560  2.25123E-01  5.44571E-01 -3.19448E-01
    8990.017     -6.993   0.600  2.38166E-01  5.63280E-01 -3.25114E-01
    8990.206     -6.804   0.640  2.51292E-01  5.81190E-01 -3.29898E-01
    8990.407     -6.603   0.680  2.63215E-01  5.98379E-01 -3.35164E-01
    8990.620     -6.390   0.720  2.73486E-01  6.14980E-01 -3.41495E-01
    8990.846     -6.164   0.760  2.82523E-01  6.31047E-01 -3.48525E-01
    8991.084     -5.926   0.800  2.90917E-01  6.46683E-01 -3.55766E-01
    8991.334     -5.676   0.840  2.98648E-01  6.61936E-01 -3.63287E-01
    8991.596     -5.414   0.880  3.05784E-01  6.76900E-01 -3.71117E-01
    8991.870     -5.140   0.920  3.13432E-01  6.91578E-01 -3.78146E-01
    8992.156     -4.853   0.960  3.23869E-01  7.06037E-01 -3.82168E-01
    8992.455     -4.555   1.000  3.38997E-01  7.20252E-01 -3.81255E-01
    8992.766     -4.244   1.040  3.59263E-01  7.34254E-01 -3.74991E-01
    8993.089     -3.921   1.080  3.82264E-01  7.48040E-01 -3.65776E-01
    8993.424     -3.585   1.120  4.03529E-01  7.61586E-01 -3.58057E-01
    8993.772     -3.238   1.160  4.22090E-01  7.74878E-01 -3.52789E-01
    8994.132     -2.878   1.200  4.43921E-01  7.87943E-01 -3.44022E-01
    8994.503     -2.506   1.240  4.73337E-01  8.00699E-01 -3.27362E-01
    8994.887     -2.122   1.280  5.07376E-01  8.13187E-01 -3.05811E-01
    8995.284     -1.726   1.320  5.46103E-01  8.25344E-01 -2.79242E-01
    8995.692     -1.318   1.360  5.94969E-01  8.37166E-01 -2.42197E-01
    8996.113     -0.897   1.400  6.53843E-01  8.48627E-01 -1.94784E-01
    8996.546     -0.464   1.440  7.20676E-01  8.59723E-01 -1.39047E-01
    8996.991     -0.019   1.480  7.99819E-01  8.70430E-01 -7.06110E-02
    8997.448      0.438   1.520  8.95691E-01  8.80702E-01  1.49895E-02
    8997.917      0.907   1.560  1.00607E+00  8.90576E-01  1.15497E-01
    8998.399      1.389   1.600  1.12346E+00  9.00008E-01  2.23454E-01
    8998.893      1.883   1.640  1.24999E+00  9.08996E-01  3.40995E-01
    8999.398      2.389   1.680  1.40065E+00  9.17518E-01  4.83137E-01
    8999.917      2.907   1.720  1.54777E+00  9.25595E-01  6.22173E-01
    9000.447      3.437   1.760  1.59673E+00  9.33227E-01  6.63500E-01
    9000.990      3.980   1.800  1.54198E+00  9.40396E-01  6.01580E-01
    9001.544      4.534   1.840  1.47018E+00  9.47103E-01  5.23080E-01
    9002.111      5.101   1.880  1.41029E+00  9.53373E-01  4.56914E-01
    9002.690      5.680   1.920  1.34771E+00  9.59191E-01  3.88517E-01
    9003.282      6.272   1.960  1.28625E+00  9.64601E-01  3.21648E-01
    9003.885      6.875   2.000  1.23631E+00  9.69568E-01  2.66743E-01
    9004.501      7.491   2.040  1.19418E+00  9.74122E-01  2.20054E-01
    9005.129      8.119   2.080  1.15161E+00  9.78288E-01  1.73327E-01
    9005.769      8.759   2.120  1.10445E+00  9.82073E-01  1.22382E-01
    9006.421      9.411   2.160  1.05035E+00  9.85487E-01  6.48679E-02
    9007.086     10.076   2.200  9.91548E-01  9.88558E-01  2.99005E-03
    9007.762     10.752   2.240  9.37619E-01  9.91275E-01 -5.36557E-02
    9008.451     11.441   2.280  8.98712E-01  9.93687E-01 -9.49747E-02
    9009.152     12.142   2.320  8.85068E-01  9.95804E-01 -1.10737E-01
    9009.865     12.855   2.360  9.07966E-01  9.97657E-01 -8.96911E-02
    9010.591     13.581   2.400  9.69200E-01  9.99230E-01 -3.00302E-02
    9011.328     14.318   2.440  1.05313E+00  1.00055E+00  5.25777E-02
    9012.078     15.068   2.480  1.12244E+00  1.00164E+00  1.20796E-01
    9012.840     15.830   2.520  1.14791E+00  1.00252E+00  1.45391E-01
    9013.614     16.604   2.560  1.14314E+00  1.00321E+00  1.39933E-01
    9014.401     17.391   2.600  1.12339E+00  1.00373E+00  1.19658E-01
    9015.199     18.189   2.640  1.09571E+00  1.00407E+00  9.16443E-02
    9016.010     19.000   2.680  1.06395E+00  1.00429E+00  5.96559E-02
    9016.833     19.823   2.720  1.03145E+00  1.00436E+00  2.70845E-02
    9017.668     20.658   2.760  1.00049E+00  1.00431E+00 -3.82504E-03
    9018.515     21.506   2.800  9.71322E-01  1.00417E+00 -3.28474E-02
    9019.375     22.365   2.840  9.43759E-01  1.00392E+00 -6.01576E-02
    9020.247     23.237   2.880  9.18191E-01  1.00360E+00 -8.54118E-02
    9021.131     24.121   2.920  8.95053E-01  1.00321E+00 -1.08160E-01
    9022.027     25.017   2.960  8.75356E-01  1.00277E+00 -1.27418E-01
    9022.935     25.925   3.000  8.59654E-01  1.00229E+00 -1.42639E-01
    9023.856     26.846   3.040  8.47463E-01  1.00177E+00 -1.54310E-01
    9024.788     27.778   3.080  8.38134E-01  1.00124E+00 -1.63102E-01
    9025.733     28.723   3.120  8.31260E-01  1.00067E+00 -1.69408E-01
    9026.690     29.680   3.160  8.27075E-01  1.00009E+00 -1.73019E-01
    9027.659     30.650   3.200  8.26314E-01  9.99497E-01 -1.73183E-01
    9028.641     31.631   3.240  8.30005E-01  9.98941E-01 -1.68936E-01
    9029.635     32.625   3.280  8.38090E-01  9.98370E-01 -1.60279E-01
    9030.640     33.630   3.320  8.50449E-01  9.97825E-01 -1.47377E-01
    9031.658     34.648   3.360  8.66828E-01  9.97288E-01 -1.30461E-01
    9032.689     35.679   3.400  8.86742E-01  9.96784E-01 -1.10042E-01
    9033.731     36.721   3.440  9.09187E-01  9.96312E-01 -8.71253E-02
    9034.786     37.776   3.480  9.32828E-01  9.95856E-01 -6.30285E-02
    9035.852     38.843   3.520  9.55965E-01  9.95458E-01 -3.94923E-02
    9036.931     39.921   3.560  9.76847E-01  9.95075E-01 -1.82280E-02
    9038.023     41.013   3.600  9.94744E-01  9.94732E-01  1.24324E-05
    9039.126     42.116   3.640  1.01011E+00  9.94450E-01  1.56573E-02
    9040.242     43.232   3.680  1.02379E+00  9.94188E-01  2.95990E-02
    9041.369     44.359   3.720  1.03664E+00  9.93989E-01  4.26499E-02
    9042.509     45.499   3.760  1.04891E+00  9.93829E-01  5.50773E-02
    9043.661     46.651   3.800  1.06007E+00  9.93691E-01  6.63788E-02
    9044.826     47.816   3.840  1.06939E+00  9.93614E-01  7.57763E-02
    9046.002     48.992   3.880  1.07631E+00  9.93581E-01  8.27291E-02
    9047.191     50.181   3.920  1.08062E+00  9.93609E-01  8.70060E-02
    9048.392     51.382   3.960  1.08200E+00  9.93657E-01  8.83403E-02
    9049.605     52.595   4.000  1.08012E+00  9.93744E-01  8.63799E-02
    9050.830     53.820   4.040  1.07463E+00  9.93867E-01  8.07658E-02
    9052.068     55.058   4.080  1.06560E+00  9.94031E-01  7.15660E-02
    9053.317     56.307   4.120  1.05389E+00  9.94233E-01  5.96584E-02
    9054.579     57.569   4.160  1.04117E+00  9.94473E-01  4.66926E-02
    9055.853     58.843   4.200  1.02933E+00  9.94750E-01  3.45780E-02
    9057.140     60.130   4.240  1.01990E+00  9.95060E-01  2.48435E-02
    9058.438     61.428   4.280  1.01362E+00  9.95381E-01  1.82402E-02
    9059.749     62.739   4.320  1.01055E+00  9.95713E-01  1.48407E-02
    9061.071     64.062   4.360  1.01054E+00  9.96098E-01  1.44402E-02
    9062.406     65.397   4.400  1.01343E+00  9.96491E-01  1.69404E-02
    9063.754     66.744   4.440  1.01933E+00  9.96888E-01  2.24367E-02
    9065.113     68.103   4.480  1.02819E+00  9.97292E-01  3.08932E-02
    9066.485     69.475   4.520  1.03939E+00  9.97722E-01  4.16706E-02
    9067.868     70.859   4.560  1.05129E+00  9.98155E-01  5.31324E-02
    9069.264     72.255   4.600  1.06125E+00  9.98591E-01  6.26587E-02
    9070.673     73.663   4.640  1.06627E+00  9.99049E-01  6.72222E-02
    9072.093     75.083   4.680  1.06404E+00  9.99485E-01  6.45586E-02
    9073.526     76.516   4.720  1.05431E+00  9.99916E-01  5.43935E-02
    9074.970     77.960   4.760  1.03912E+00  1.00034E+00  3.87730E-02
    9076.427     79.417   4.800  1.02177E+00  1.00077E+00  2.10008E-02
    9077.896     80.886   4.840  1.00533E+00  1.00116E+00  4.16541E-03
    9079.378     82.368   4.880  9.91866E-01  1.00155E+00 -9.67960E-03
    9080.871     83.861   4.920  9.82173E-01  1.00192E+00 -1.97499E-02
    9082.377     85.367   4.960  9.75843E-01  1.00227E+00 -2.64284E-02
    9083.895     86.885   5.000  9.71743E-01  1.00261E+00 -3.08669E-02
    9085.425     88.415   5.040  9.68365E-01  1.00291E+00 -3.45493E-02
    9086.967     89.957   5.080  9.64600E-01  1.00321E+00 -3.86068E-02
    9088.522     91.512   5.120  9.59980E-01  1.00346E+00 -4.34839E-02
    9090.088     93.078   5.160  9.54648E-01  1.00368E+00 -4.90358E-02
    9091.667     94.657   5.200  9.49076E-01  1.00387E+00 -5.47911E-02
    9093.258     96.248   5.240  9.43844E-01  1.00404E+00 -6.01930E-02
    9094.861     97.852   5.280  9.39647E-01  1.00417E+00 -6.45223E-02
    9096.477     99.467   5.320  9.37298E-01  1.00427E+00 -6.69680E-02
    9098.105    101.095   5.360  9.37573E-01  1.00435E+00 -6.67719E-02
    9099.744    102.734   5.400  9.40708E-01  1.00436E+00 -6.36565E-02
    9101.396    104.386   5.440  9.46259E-01  1.00436E+00 -5.81057E-02
    9103.061    106.051   5.480  9.52978E-01  1.00430E+00 -5.13270E-02
    9104.737    107.727   5.520  9.59545E-01  1.00423E+00 -4.46842E-02
    9106.426    109.416   5.560  9.65192E-01  1.00412E+00 -3.89227E-02
    9108.126    111.116   5.600  9.70355E-01  1.00396E+00 -3.36094E-02
    9109.839    112.829   5.640  9.76258E-01  1.00380E+00 -2.75403E-02
    9111.564    114.555   5.680  9.83771E-01  1.00357E+00 -1.98026E-02
    9113.302    116.292   5.720  9.92845E-01  1.00333E+00 -1.04882E-02
    9115.051    118.041   5.760  1.00259E+00  1.00306E+00 -4.70242E-04
    9116.813    119.803   5.800  1.01201E+00  1.00274E+00  9.26204E-03
    9118.587    121.577   5.840  1.02032E+00  1.00240E+00  1.79268E-02
    9120.373    123.363   5.880  1.02677E+00  1.00204E+00  2.47276E-02
    9122.171    125.162   5.920  1.03045E+00  1.00166E+00  2.87884E-02
    9123.982    126.972   5.960  1.03106E+00  1.00124E+00  2.98187E-02
    9125.805    128.795   6.000  1.02961E+00  1.00080E+00  2.88039E-02
