# # comment:                                                     FEFF 9.9.1  
# # Source:
# # Structure
# # Reduced
# # space
# # abc:
# # angles:
# # sites:
# # POT  SCF 100  7.0000   0, screened core-hole, AFOLP (folp(0)= 1.150)
# # Abs   Z=29 Rmt= 1.311 Rnm= 1.376 K  shell
# # Pot 1 Z= 3 Rmt= 1.297 Rnm= 1.359
# # Pot 2 Z=29 Rmt= 1.283 Rnm= 1.353
# # Pot 3 Z=15 Rmt= 0.938 Rnm= 1.154
# # Pot 4 Z= 8 Rmt= 0.889 Rnm= 1.045
# # Gam_ch=1.729E+00 H-L exch Vi= 0.000E+00 Vr= 0.000E+00
# # Mu=-6.954E+00eV kf=2.450E+00 Vint=-1.697E+01eV Rs_int= 1.480
# FMS rfms= 9.0000
# # PATH  Rmax=-1.000,  Keep_limit= 0.00, Heap_limit 0.00  Pwcrit= 2.50%
#  S02=0.950  Temp=   0.00  Debye_temp=   0.00  Global_sig2= 0.00000
#  Energy zero shift, vr, vi    0.00000E+00   0.00000E+00
#  Curved wave amplitude ratio filter   4.000%
#     file         sig2 tot  cw amp ratio   deg  nlegs   reff  inp sig2
#     0/   0 paths used
#  xsedge+ 50, used to normalize mu           2.4694E-04
#  -----------------------------------------------------------------------
#  omega    e    k    mu    mu0     chi     @#
    8983.382    -10.764  -1.000  4.08943E-02  5.18790E-02 -1.09847E-02
    8983.681    -10.465  -0.960  4.29938E-02  5.56051E-02 -1.26112E-02
    8983.967    -10.179  -0.920  4.52245E-02  5.97438E-02 -1.45193E-02
    8984.242     -9.905  -0.880  4.75946E-02  6.43561E-02 -1.67615E-02
    8984.504     -9.642  -0.840  5.01125E-02  6.95127E-02 -1.94001E-02
    8984.754     -9.392  -0.800  5.27869E-02  7.52956E-02 -2.25087E-02
    8984.991     -9.155  -0.760  5.56262E-02  8.17992E-02 -2.61729E-02
    8985.217     -8.929  -0.720  5.86386E-02  8.91298E-02 -3.04912E-02
    8985.430     -8.716  -0.680  6.18312E-02  9.74048E-02 -3.55737E-02
    8985.632     -8.515  -0.640  6.52094E-02  1.06748E-01 -4.15388E-02
    8985.821     -8.326  -0.600  6.87757E-02  1.17281E-01 -4.85057E-02
    8985.997     -8.149  -0.560  7.25278E-02  1.29108E-01 -5.65807E-02
    8986.162     -7.984  -0.520  7.64558E-02  1.42291E-01 -6.58354E-02
    8986.314     -7.832  -0.480  8.05395E-02  1.56816E-01 -7.62764E-02
    8986.454     -7.692  -0.440  8.47440E-02  1.72555E-01 -8.78108E-02
    8986.583     -7.564  -0.400  8.90169E-02  1.89234E-01 -1.00217E-01
    8986.698     -7.448  -0.360  9.32871E-02  2.06422E-01 -1.13134E-01
    8986.802     -7.344  -0.320  9.74665E-02  2.23558E-01 -1.26092E-01
    8986.893     -7.253  -0.280  1.01456E-01  2.40022E-01 -1.38566E-01
    8986.973     -7.174  -0.240  1.05154E-01  2.55216E-01 -1.50063E-01
    8987.040     -7.106  -0.200  1.08463E-01  2.68641E-01 -1.60178E-01
    8987.095     -7.052  -0.160  1.11297E-01  2.79931E-01 -1.68634E-01
    8987.137     -7.009  -0.120  1.13586E-01  2.88855E-01 -1.75269E-01
    8987.168     -6.978  -0.080  1.15274E-01  2.95283E-01 -1.80009E-01
    8987.192     -6.954   0.000  1.16683E-01  3.00447E-01 -1.83764E-01
    8987.247     -6.899   0.120  1.19870E-01  3.12077E-01 -1.92207E-01
    8987.290     -6.857   0.160  1.22358E-01  3.21125E-01 -1.98767E-01
    8987.345     -6.802   0.200  1.25578E-01  3.32658E-01 -2.07080E-01
    8987.412     -6.735   0.240  1.29588E-01  3.46534E-01 -2.16946E-01
    8987.491     -6.655   0.280  1.34433E-01  3.62473E-01 -2.28040E-01
    8987.582     -6.564   0.320  1.40140E-01  3.80022E-01 -2.39881E-01
    8987.686     -6.460   0.360  1.46759E-01  3.98709E-01 -2.51950E-01
    8987.802     -6.344   0.400  1.54368E-01  4.17953E-01 -2.63585E-01
    8987.930     -6.216   0.440  1.63143E-01  4.37299E-01 -2.74156E-01
    8988.070     -6.076   0.480  1.73278E-01  4.56305E-01 -2.83027E-01
    8988.222     -5.924   0.520  1.85266E-01  4.74748E-01 -2.89482E-01
    8988.387     -5.759   0.560  1.99777E-01  4.92520E-01 -2.92743E-01
    8988.564     -5.582   0.600  2.17591E-01  5.09614E-01 -2.92024E-01
    8988.753     -5.394   0.640  2.39434E-01  5.26044E-01 -2.86610E-01
    8988.954     -5.192   0.680  2.65953E-01  5.41904E-01 -2.75952E-01
    8989.167     -4.979   0.720  2.97860E-01  5.57303E-01 -2.59443E-01
    8989.393     -4.753   0.760  3.36154E-01  5.72325E-01 -2.36171E-01
    8989.631     -4.516   0.800  3.82404E-01  5.87086E-01 -2.04682E-01
    8989.880     -4.266   0.840  4.38039E-01  6.01610E-01 -1.63571E-01
    8990.143     -4.004   0.880  5.03228E-01  6.15970E-01 -1.12742E-01
    8990.417     -3.729   0.920  5.74845E-01  6.30225E-01 -5.53795E-02
    8990.703     -3.443   0.960  6.45719E-01  6.44399E-01  1.31922E-03
    8991.002     -3.144   1.000  7.07998E-01  6.58513E-01  4.94849E-02
    8991.313     -2.833   1.040  7.56908E-01  6.72572E-01  8.43359E-02
    8991.636     -2.510   1.080  7.90391E-01  6.86576E-01  1.03816E-01
    8991.971     -2.175   1.120  8.07515E-01  7.00540E-01  1.06974E-01
    8992.319     -1.827   1.160  8.10116E-01  7.14455E-01  9.56612E-02
    8992.678     -1.468   1.200  8.09086E-01  7.28281E-01  8.08041E-02
    8993.050     -1.096   1.240  8.19305E-01  7.42041E-01  7.72636E-02
    8993.434     -0.712   1.280  8.41693E-01  7.55672E-01  8.60210E-02
    8993.831     -0.316   1.320  8.61838E-01  7.69169E-01  9.26684E-02
    8994.239      0.093   1.360  8.70340E-01  7.82504E-01  8.78351E-02
    8994.660      0.513   1.400  8.74625E-01  7.95651E-01  7.89735E-02
    8995.092      0.946   1.440  8.89980E-01  8.08600E-01  8.13794E-02
    8995.538      1.391   1.480  9.25123E-01  8.21302E-01  1.03821E-01
    8995.995      1.849   1.520  9.67094E-01  8.33744E-01  1.33351E-01
    8996.464      2.318   1.560  9.91719E-01  8.45897E-01  1.45822E-01
    8996.946      2.799   1.600  9.93433E-01  8.57710E-01  1.35723E-01
    8997.439      3.293   1.640  9.82721E-01  8.69195E-01  1.13526E-01
    8997.945      3.799   1.680  9.71387E-01  8.80321E-01  9.10657E-02
    8998.464      4.317   1.720  9.73160E-01  8.91060E-01  8.21000E-02
    8998.994      4.848   1.760  9.92133E-01  9.01403E-01  9.07301E-02
    8999.536      5.390   1.800  1.02341E+00  9.11323E-01  1.12088E-01
    9000.091      5.945   1.840  1.06031E+00  9.20814E-01  1.39494E-01
    9000.658      6.512   1.880  1.08834E+00  9.29850E-01  1.58494E-01
    9001.237      7.091   1.920  1.09331E+00  9.38427E-01  1.54881E-01
    9001.829      7.682   1.960  1.08144E+00  9.46541E-01  1.34903E-01
    9002.432      8.286   2.000  1.07067E+00  9.54193E-01  1.16475E-01
    9003.048      8.902   2.040  1.07400E+00  9.61381E-01  1.12620E-01
    9003.676      9.529   2.080  1.09544E+00  9.68083E-01  1.27355E-01
    9004.316     10.170   2.120  1.12431E+00  9.74323E-01  1.49985E-01
    9004.968     10.822   2.160  1.14067E+00  9.80084E-01  1.60591E-01
    9005.632     11.486   2.200  1.13556E+00  9.85407E-01  1.50156E-01
    9006.309     12.163   2.240  1.11713E+00  9.90278E-01  1.26850E-01
    9006.998     12.852   2.280  1.09730E+00  9.94680E-01  1.02617E-01
    9007.699     13.553   2.320  1.08701E+00  9.98682E-01  8.83290E-02
    9008.412     14.266   2.360  1.08756E+00  1.00225E+00  8.53054E-02
    9009.138     14.991   2.400  1.09280E+00  1.00543E+00  8.73713E-02
    9009.875     15.729   2.440  1.10404E+00  1.00821E+00  9.58357E-02
    9010.625     16.479   2.480  1.11848E+00  1.01062E+00  1.07866E-01
    9011.387     17.241   2.520  1.12258E+00  1.01266E+00  1.09922E-01
    9012.161     18.015   2.560  1.10549E+00  1.01437E+00  9.11209E-02
    9012.948     18.801   2.600  1.06670E+00  1.01576E+00  5.09439E-02
    9013.746     19.600   2.640  1.01370E+00  1.01685E+00 -3.14697E-03
    9014.557     20.411   2.680  9.57220E-01  1.01765E+00 -6.04316E-02
    9015.380     21.234   2.720  9.12036E-01  1.01818E+00 -1.06144E-01
    9016.215     22.069   2.760  8.92303E-01  1.01848E+00 -1.26180E-01
    9017.062     22.916   2.800  8.96814E-01  1.01855E+00 -1.21734E-01
    9017.922     23.776   2.840  9.10695E-01  1.01841E+00 -1.07712E-01
    9018.794     24.647   2.880  9.19146E-01  1.01807E+00 -9.89210E-02
    9019.678     25.531   2.920  9.20427E-01  1.01756E+00 -9.71321E-02
    9020.574     26.427   2.960  9.17696E-01  1.01691E+00 -9.92145E-02
    9021.482     27.336   3.000  9.13055E-01  1.01611E+00 -1.03057E-01
    9022.402     28.256   3.040  9.07566E-01  1.01519E+00 -1.07623E-01
    9023.335     29.189   3.080  9.02188E-01  1.01417E+00 -1.11984E-01
    9024.280     30.134   3.120  8.98399E-01  1.01305E+00 -1.14648E-01
    9025.237     31.091   3.160  8.97545E-01  1.01186E+00 -1.14320E-01
    9026.206     32.060   3.200  9.00194E-01  1.01061E+00 -1.10413E-01
    9027.188     33.042   3.240  9.06515E-01  1.00931E+00 -1.02791E-01
    9028.181     34.035   3.280  9.16448E-01  1.00799E+00 -9.15379E-02
    9029.187     35.041   3.320  9.29209E-01  1.00661E+00 -7.74036E-02
    9030.205     36.059   3.360  9.44058E-01  1.00525E+00 -6.11924E-02
    9031.236     37.089   3.400  9.59681E-01  1.00387E+00 -4.41851E-02
    9032.278     38.132   3.440  9.74623E-01  1.00251E+00 -2.78830E-02
    9033.333     39.186   3.480  9.87672E-01  1.00115E+00 -1.34801E-02
    9034.399     40.253   3.520  9.98257E-01  9.99832E-01 -1.57505E-03
    9035.478     41.332   3.560  1.00613E+00  9.98546E-01  7.58345E-03
    9036.570     42.423   3.600  1.01132E+00  9.97279E-01  1.40398E-02
    9037.673     43.527   3.640  1.01420E+00  9.96075E-01  1.81205E-02
    9038.788     44.642   3.680  1.01539E+00  9.94940E-01  2.04473E-02
    9039.916     45.770   3.720  1.01590E+00  9.93831E-01  2.20696E-02
    9041.056     46.910   3.760  1.01704E+00  9.92813E-01  2.42266E-02
    9042.208     48.062   3.800  1.01964E+00  9.91848E-01  2.77875E-02
    9043.373     49.226   3.840  1.02378E+00  9.90936E-01  3.28448E-02
    9044.549     50.403   3.880  1.02897E+00  9.90122E-01  3.88527E-02
    9045.738     51.592   3.920  1.03444E+00  9.89385E-01  4.50545E-02
    9046.939     52.793   3.960  1.03957E+00  9.88705E-01  5.08686E-02
    9048.152     54.006   4.000  1.04419E+00  9.88105E-01  5.60889E-02
    9049.377     55.231   4.040  1.04841E+00  9.87604E-01  6.08043E-02
    9050.615     56.468   4.080  1.05213E+00  9.87162E-01  6.49657E-02
    9051.864     57.718   4.120  1.05498E+00  9.86800E-01  6.81775E-02
    9053.126     58.980   4.160  1.05632E+00  9.86540E-01  6.97757E-02
    9054.400     60.254   4.200  1.05535E+00  9.86336E-01  6.90148E-02
    9055.686     61.540   4.240  1.05163E+00  9.86210E-01  6.54183E-02
    9056.985     62.839   4.280  1.04518E+00  9.86162E-01  5.90163E-02
    9058.296     64.149   4.320  1.03662E+00  9.86194E-01  5.04238E-02
    9059.618     65.472   4.360  1.02688E+00  9.86301E-01  4.05814E-02
    9060.953     66.807   4.400  1.01697E+00  9.86483E-01  3.04916E-02
    9062.301     68.154   4.440  1.00760E+00  9.86714E-01  2.08900E-02
    9063.660     69.514   4.480  9.99091E-01  9.86994E-01  1.20970E-02
    9065.032     70.885   4.520  9.91525E-01  9.87346E-01  4.17949E-03
    9066.415     72.269   4.560  9.84924E-01  9.87764E-01 -2.84033E-03
    9067.811     73.665   4.600  9.79261E-01  9.88205E-01 -8.94428E-03
    9069.220     75.073   4.640  9.74612E-01  9.88711E-01 -1.40990E-02
    9070.640     76.494   4.680  9.71012E-01  9.89257E-01 -1.82453E-02
    9072.072     77.926   4.720  9.68509E-01  9.89841E-01 -2.13326E-02
    9073.517     79.371   4.760  9.67072E-01  9.90439E-01 -2.33674E-02
    9074.974     80.828   4.800  9.66534E-01  9.91069E-01 -2.45352E-02
    9076.443     82.297   4.840  9.66494E-01  9.91732E-01 -2.52384E-02
    9077.925     83.778   4.880  9.66546E-01  9.92403E-01 -2.58573E-02
    9079.418     85.272   4.920  9.66476E-01  9.93100E-01 -2.66242E-02
    9080.924     86.778   4.960  9.66178E-01  9.93778E-01 -2.76001E-02
    9082.442     88.296   5.000  9.65769E-01  9.94476E-01 -2.87079E-02
    9083.972     89.826   5.040  9.65401E-01  9.95152E-01 -2.97503E-02
    9085.514     91.368   5.080  9.65499E-01  9.95844E-01 -3.03455E-02
    9087.069     92.922   5.120  9.66516E-01  9.96508E-01 -2.99919E-02
    9088.635     94.489   5.160  9.68840E-01  9.97141E-01 -2.83005E-02
    9090.214     96.068   5.200  9.72551E-01  9.97762E-01 -2.52111E-02
    9091.805     97.659   5.240  9.77307E-01  9.98372E-01 -2.10652E-02
    9093.408     99.262   5.280  9.82446E-01  9.98924E-01 -1.64785E-02
    9095.024    100.878   5.320  9.87250E-01  9.99458E-01 -1.22082E-02
    9096.651    102.505   5.360  9.90889E-01  9.99951E-01 -9.06216E-03
    9098.291    104.145   5.400  9.92583E-01  1.00038E+00 -7.79730E-03
    9099.943    105.797   5.440  9.91903E-01  1.00079E+00 -8.88416E-03
    9101.607    107.461   5.480  9.88858E-01  1.00113E+00 -1.22695E-02
    9103.284    109.138   5.520  9.84194E-01  1.00142E+00 -1.72263E-02
    9104.972    110.826   5.560  9.79215E-01  1.00165E+00 -2.24305E-02
    9106.673    112.527   5.600  9.75456E-01  1.00184E+00 -2.63877E-02
    9108.386    114.240   5.640  9.74008E-01  1.00195E+00 -2.79427E-02
    9110.111    115.965   5.680  9.75436E-01  1.00203E+00 -2.65955E-02
    9111.849    117.703   5.720  9.79490E-01  1.00202E+00 -2.25275E-02
    9113.598    119.452   5.760  9.85576E-01  1.00198E+00 -1.64004E-02
    9115.360    121.214   5.800  9.92736E-01  1.00184E+00 -9.10793E-03
    9117.134    122.988   5.840  1.00018E+00  1.00169E+00 -1.50358E-03
    9118.920    124.774   5.880  1.00723E+00  1.00143E+00  5.79658E-03
    9120.718    126.572   5.920  1.01368E+00  1.00116E+00  1.25186E-02
    9122.529    128.383   5.960  1.01946E+00  1.00082E+00  1.86426E-02
    9124.352    130.205   6.000  1.02475E+00  1.00036E+00  2.43824E-02
