# # comment:                                                     FEFF 9.9.1  
# # Source:
# # Structure
# # Reduced
# # space
# # abc:
# # angles:
# # sites:
# # POT  SCF 100  7.0000   0, screened core-hole, AFOLP (folp(0)= 1.150)
# # Abs   Z=29 Rmt= 1.322 Rnm= 1.388 K  shell
# # Pot 1 Z= 3 Rmt= 1.306 Rnm= 1.356
# # Pot 2 Z=29 Rmt= 1.322 Rnm= 1.388
# # Pot 3 Z= 6 Rmt= 0.712 Rnm= 0.924
# # Pot 4 Z= 8 Rmt= 0.860 Rnm= 1.010
# # Gam_ch=1.729E+00 H-L exch Vi= 0.000E+00 Vr= 0.000E+00
# # Mu=-6.556E+00eV kf=2.576E+00 Vint=-1.827E+01eV Rs_int= 1.408
# FMS rfms= 9.0000
# # PATH  Rmax=-1.000,  Keep_limit= 0.00, Heap_limit 0.00  Pwcrit= 2.50%
#  S02=0.950  Temp=   0.00  Debye_temp=   0.00  Global_sig2= 0.00000
#  Energy zero shift, vr, vi    0.00000E+00   0.00000E+00
#  Curved wave amplitude ratio filter   4.000%
#     file         sig2 tot  cw amp ratio   deg  nlegs   reff  inp sig2
#     0/   0 paths used
#  xsedge+ 50, used to normalize mu           2.4761E-04
#  -----------------------------------------------------------------------
#  omega    e    k    mu    mu0     chi     @#
    8983.554    -10.366  -1.000  4.81030E-02  5.29227E-02 -4.81965E-03
    8983.852    -10.067  -0.960  5.12754E-02  5.67492E-02 -5.47372E-03
    8984.139     -9.781  -0.920  5.47782E-02  6.10024E-02 -6.22422E-03
    8984.413     -9.506  -0.880  5.86599E-02  6.57457E-02 -7.08581E-03
    8984.675     -9.244  -0.840  6.29775E-02  7.10528E-02 -8.07525E-03
    8984.925     -8.994  -0.800  6.77974E-02  7.70090E-02 -9.21161E-03
    8985.163     -8.757  -0.760  7.31964E-02  8.37127E-02 -1.05163E-02
    8985.388     -8.531  -0.720  7.92618E-02  9.12748E-02 -1.20130E-02
    8985.602     -8.318  -0.680  8.60907E-02  9.98178E-02 -1.37271E-02
    8985.803     -8.116  -0.640  9.37860E-02  1.09471E-01 -1.56851E-02
    8985.992     -7.928  -0.600  1.02449E-01  1.20362E-01 -1.79127E-02
    8986.169     -7.751  -0.560  1.12167E-01  1.32599E-01 -2.04319E-02
    8986.333     -7.586  -0.520  1.22990E-01  1.46247E-01 -2.32574E-02
    8986.486     -7.434  -0.480  1.34903E-01  1.61293E-01 -2.63909E-02
    8986.626     -7.294  -0.440  1.47790E-01  1.77604E-01 -2.98146E-02
    8986.754     -7.166  -0.400  1.61410E-01  1.94895E-01 -3.34852E-02
    8986.870     -7.050  -0.360  1.75387E-01  2.12716E-01 -3.73294E-02
    8986.973     -6.946  -0.320  1.89241E-01  2.30485E-01 -4.12448E-02
    8987.065     -6.855  -0.280  2.02449E-01  2.47555E-01 -4.51056E-02
    8987.144     -6.775  -0.240  2.14529E-01  2.63304E-01 -4.87750E-02
    8987.211     -6.708  -0.200  2.25097E-01  2.77215E-01 -5.21180E-02
    8987.266     -6.653  -0.160  2.33896E-01  2.88910E-01 -5.50139E-02
    8987.309     -6.611  -0.120  2.40784E-01  2.98150E-01 -5.73656E-02
    8987.339     -6.580  -0.080  2.45698E-01  3.04803E-01 -5.91055E-02
    8987.364     -6.556   0.000  2.49572E-01  3.10147E-01 -6.05749E-02
    8987.418     -6.501   0.120  2.58192E-01  3.22179E-01 -6.39866E-02
    8987.461     -6.458   0.160  2.64938E-01  3.31545E-01 -6.66069E-02
    8987.516     -6.404   0.200  2.73460E-01  3.43458E-01 -6.99980E-02
    8987.583     -6.336   0.240  2.83632E-01  3.57785E-01 -7.41532E-02
    8987.662     -6.257   0.280  2.95163E-01  3.74202E-01 -7.90389E-02
    8987.754     -6.166   0.320  3.07711E-01  3.92272E-01 -8.45606E-02
    8987.857     -6.062   0.360  3.20912E-01  4.11452E-01 -9.05397E-02
    8987.973     -5.946   0.400  3.34494E-01  4.31167E-01 -9.66724E-02
    8988.101     -5.818   0.440  3.48321E-01  4.50872E-01 -1.02552E-01
    8988.241     -5.678   0.480  3.62503E-01  4.70187E-01 -1.07684E-01
    8988.394     -5.526   0.520  3.77261E-01  4.88837E-01 -1.11576E-01
    8988.558     -5.361   0.560  3.92748E-01  5.06706E-01 -1.13958E-01
    8988.735     -5.184   0.600  4.08697E-01  5.23766E-01 -1.15069E-01
    8988.924     -4.995   0.640  4.24224E-01  5.40102E-01 -1.15878E-01
    8989.125     -4.794   0.680  4.38046E-01  5.55772E-01 -1.17727E-01
    8989.339     -4.581   0.720  4.49419E-01  5.70914E-01 -1.21496E-01
    8989.564     -4.355   0.760  4.58517E-01  5.85622E-01 -1.27105E-01
    8989.802     -4.118   0.800  4.65873E-01  6.00002E-01 -1.34129E-01
    8990.052     -3.868   0.840  4.71275E-01  6.14127E-01 -1.42852E-01
    8990.314     -3.605   0.880  4.74023E-01  6.28076E-01 -1.54053E-01
    8990.588     -3.331   0.920  4.74969E-01  6.41876E-01 -1.66907E-01
    8990.875     -3.045   0.960  4.78008E-01  6.55601E-01 -1.77593E-01
    8991.174     -2.746   1.000  4.87275E-01  6.69274E-01 -1.81999E-01
    8991.484     -2.435   1.040  5.04190E-01  6.82909E-01 -1.78719E-01
    8991.808     -2.112   1.080  5.28469E-01  6.96512E-01 -1.68043E-01
    8992.143     -1.777   1.120  5.59333E-01  7.10123E-01 -1.50789E-01
    8992.490     -1.429   1.160  5.95095E-01  7.23694E-01 -1.28599E-01
    8992.850     -1.070   1.200  6.36326E-01  7.37233E-01 -1.00907E-01
    8993.222     -0.698   1.240  6.87441E-01  7.50722E-01 -6.32817E-02
    8993.606     -0.314   1.280  7.52030E-01  7.64166E-01 -1.21353E-02
    8994.002      0.083   1.320  8.26487E-01  7.77540E-01  4.89472E-02
    8994.410      0.491   1.360  8.98525E-01  7.90800E-01  1.07724E-01
    8994.831      0.912   1.400  9.59035E-01  8.03939E-01  1.55096E-01
    8995.264      1.344   1.440  1.01495E+00  8.16928E-01  1.98027E-01
    8995.709      1.789   1.480  1.07395E+00  8.29759E-01  2.44186E-01
    8996.166      2.247   1.520  1.12264E+00  8.42362E-01  2.80281E-01
    8996.636      2.716   1.560  1.14301E+00  8.54764E-01  2.88244E-01
    8997.117      3.198   1.600  1.13419E+00  8.66873E-01  2.67319E-01
    8997.611      3.691   1.640  1.10545E+00  8.78720E-01  2.26730E-01
    8998.117      4.197   1.680  1.06818E+00  8.90252E-01  1.77931E-01
    8998.635      4.716   1.720  1.04093E+00  9.01436E-01  1.39491E-01
    8999.165      5.246   1.760  1.02600E+00  9.12244E-01  1.13753E-01
    8999.708      5.788   1.800  1.00809E+00  9.22684E-01  8.54110E-02
    9000.263      6.343   1.840  9.95495E-01  9.32706E-01  6.27887E-02
    9000.830      6.910   1.880  1.00100E+00  9.42302E-01  5.86994E-02
    9001.409      7.489   1.920  1.01484E+00  9.51444E-01  6.33964E-02
    9002.000      8.081   1.960  1.02301E+00  9.60147E-01  6.28677E-02
    9002.603      8.684   2.000  1.03311E+00  9.68362E-01  6.47490E-02
    9003.219      9.300   2.040  1.05116E+00  9.76087E-01  7.50707E-02
    9003.847      9.928   2.080  1.06639E+00  9.83337E-01  8.30517E-02
    9004.487     10.568   2.120  1.07551E+00  9.90092E-01  8.54190E-02
    9005.139     11.220   2.160  1.09033E+00  9.96329E-01  9.40000E-02
    9005.804     11.884   2.200  1.12935E+00  1.00207E+00  1.27285E-01
    9006.481     12.561   2.240  1.19788E+00  1.00733E+00  1.90550E-01
    9007.169     13.250   2.280  1.27266E+00  1.01209E+00  2.60571E-01
    9007.870     13.951   2.320  1.31361E+00  1.01637E+00  2.97234E-01
    9008.584     14.664   2.360  1.30005E+00  1.02017E+00  2.79871E-01
    9009.309     15.390   2.400  1.24390E+00  1.02352E+00  2.20382E-01
    9010.047     16.127   2.440  1.17055E+00  1.02639E+00  1.44163E-01
    9010.796     16.877   2.480  1.09817E+00  1.02886E+00  6.93080E-02
    9011.558     17.639   2.520  1.03355E+00  1.03087E+00  2.68096E-03
    9012.333     18.413   2.560  9.79689E-01  1.03250E+00 -5.28120E-02
    9013.119     19.200   2.600  9.39864E-01  1.03375E+00 -9.38903E-02
    9013.918     19.998   2.640  9.15536E-01  1.03464E+00 -1.19104E-01
    9014.728     20.809   2.680  9.05268E-01  1.03517E+00 -1.29901E-01
    9015.551     21.632   2.720  9.06220E-01  1.03539E+00 -1.29174E-01
    9016.386     22.467   2.760  9.15774E-01  1.03530E+00 -1.19528E-01
    9017.234     23.314   2.800  9.30103E-01  1.03493E+00 -1.04824E-01
    9018.093     24.174   2.840  9.41916E-01  1.03430E+00 -9.23840E-02
    9018.965     25.046   2.880  9.44295E-01  1.03343E+00 -8.91351E-02
    9019.849     25.930   2.920  9.35346E-01  1.03235E+00 -9.70048E-02
    9020.745     26.826   2.960  9.23239E-01  1.03107E+00 -1.07832E-01
    9021.653     27.734   3.000  9.18422E-01  1.02962E+00 -1.11200E-01
    9022.574     28.654   3.040  9.19457E-01  1.02802E+00 -1.08558E-01
    9023.507     29.587   3.080  9.22759E-01  1.02628E+00 -1.03521E-01
    9024.451     30.532   3.120  9.26788E-01  1.02445E+00 -9.76590E-02
    9025.409     31.489   3.160  9.31478E-01  1.02250E+00 -9.10251E-02
    9026.378     32.458   3.200  9.36857E-01  1.02048E+00 -8.36206E-02
    9027.359     33.440   3.240  9.42459E-01  1.01838E+00 -7.59208E-02
    9028.353     34.433   3.280  9.47751E-01  1.01626E+00 -6.85093E-02
    9029.359     35.439   3.320  9.52353E-01  1.01411E+00 -6.17532E-02
    9030.377     36.457   3.360  9.56480E-01  1.01194E+00 -5.54646E-02
    9031.407     37.487   3.400  9.60899E-01  1.00978E+00 -4.88833E-02
    9032.449     38.530   3.440  9.66614E-01  1.00763E+00 -4.10116E-02
    9033.504     39.585   3.480  9.74487E-01  1.00550E+00 -3.10154E-02
    9034.571     40.651   3.520  9.85120E-01  1.00342E+00 -1.82973E-02
    9035.650     41.730   3.560  9.98437E-01  1.00140E+00 -2.95953E-03
    9036.741     42.821   3.600  1.01358E+00  9.99402E-01  1.41788E-02
    9037.844     43.925   3.640  1.02923E+00  9.97501E-01  3.17247E-02
    9038.960     45.040   3.680  1.04359E+00  9.95656E-01  4.79313E-02
    9040.088     46.168   3.720  1.05488E+00  9.93891E-01  6.09846E-02
    9041.228     47.308   3.760  1.06200E+00  9.92231E-01  6.97655E-02
    9042.380     48.460   3.800  1.06471E+00  9.90657E-01  7.40509E-02
    9043.544     49.625   3.840  1.06364E+00  9.89171E-01  7.44676E-02
    9044.721     50.801   3.880  1.05998E+00  9.87798E-01  7.21778E-02
    9045.909     51.990   3.920  1.05494E+00  9.86537E-01  6.83984E-02
    9047.110     53.191   3.960  1.04938E+00  9.85370E-01  6.40082E-02
    9048.323     54.404   4.000  1.04381E+00  9.84319E-01  5.94957E-02
    9049.549     55.629   4.040  1.03846E+00  9.83385E-01  5.50712E-02
    9050.786     56.867   4.080  1.03317E+00  9.82570E-01  5.06044E-02
    9052.036     58.116   4.120  1.02761E+00  9.81874E-01  4.57349E-02
    9053.298     59.378   4.160  1.02132E+00  9.81294E-01  4.00259E-02
    9054.572     60.652   4.200  1.01398E+00  9.80811E-01  3.31718E-02
    9055.858     61.938   4.240  1.00560E+00  9.80467E-01  2.51295E-02
    9057.156     63.237   4.280  9.96408E-01  9.80217E-01  1.61917E-02
    9058.467     64.548   4.320  9.86984E-01  9.80080E-01  6.90399E-03
    9059.790     65.870   4.360  9.77942E-01  9.80035E-01 -2.09355E-03
    9061.125     67.205   4.400  9.69938E-01  9.80103E-01 -1.01652E-02
    9062.472     68.553   4.440  9.63522E-01  9.80283E-01 -1.67614E-02
    9063.831     69.912   4.480  9.59086E-01  9.80550E-01 -2.14642E-02
    9065.203     71.284   4.520  9.56895E-01  9.80900E-01 -2.40052E-02
    9066.587     72.667   4.560  9.57050E-01  9.81333E-01 -2.42832E-02
    9067.983     74.063   4.600  9.59484E-01  9.81869E-01 -2.23852E-02
    9069.391     75.472   4.640  9.63838E-01  9.82461E-01 -1.86225E-02
    9070.811     76.892   4.680  9.69586E-01  9.83126E-01 -1.35395E-02
    9072.244     78.324   4.720  9.75901E-01  9.83842E-01 -7.94164E-03
    9073.689     79.769   4.760  9.81870E-01  9.84628E-01 -2.75788E-03
    9075.146     81.226   4.800  9.86607E-01  9.85459E-01  1.14764E-03
    9076.615     82.695   4.840  9.89534E-01  9.86354E-01  3.17944E-03
    9078.096     84.177   4.880  9.90419E-01  9.87265E-01  3.15368E-03
    9079.590     85.670   4.920  9.89542E-01  9.88210E-01  1.33158E-03
    9081.095     87.176   4.960  9.87461E-01  9.89165E-01 -1.70315E-03
    9082.613     88.694   5.000  9.84913E-01  9.90146E-01 -5.23272E-03
    9084.143     90.224   5.040  9.82504E-01  9.91132E-01 -8.62799E-03
    9085.686     91.766   5.080  9.80638E-01  9.92118E-01 -1.14798E-02
    9087.240     93.321   5.120  9.79484E-01  9.93099E-01 -1.36146E-02
    9088.807     94.887   5.160  9.78963E-01  9.94050E-01 -1.50867E-02
    9090.386     96.466   5.200  9.78901E-01  9.94991E-01 -1.60904E-02
    9091.977     98.057   5.240  9.79033E-01  9.95900E-01 -1.68674E-02
    9093.580     99.660   5.280  9.79206E-01  9.96792E-01 -1.75862E-02
    9095.195    101.276   5.320  9.79387E-01  9.97619E-01 -1.82323E-02
    9096.823    102.903   5.360  9.79799E-01  9.98403E-01 -1.86037E-02
    9098.463    104.543   5.400  9.80726E-01  9.99139E-01 -1.84134E-02
    9100.115    106.195   5.440  9.82375E-01  9.99805E-01 -1.74300E-02
    9101.779    107.859   5.480  9.84867E-01  1.00042E+00 -1.55540E-02
    9103.455    109.536   5.520  9.88132E-01  1.00096E+00 -1.28321E-02
    9105.144    111.224   5.560  9.91995E-01  1.00145E+00 -9.45694E-03
    9106.845    112.925   5.600  9.96092E-01  1.00184E+00 -5.74778E-03
    9108.558    114.638   5.640  1.00009E+00  1.00217E+00 -2.07387E-03
    9110.283    116.363   5.680  1.00365E+00  1.00240E+00  1.25874E-03
    9112.020    118.101   5.720  1.00663E+00  1.00257E+00  4.06102E-03
    9113.770    119.850   5.760  1.00890E+00  1.00266E+00  6.24528E-03
    9115.531    121.612   5.800  1.01044E+00  1.00264E+00  7.80232E-03
    9117.305    123.386   5.840  1.01135E+00  1.00254E+00  8.81126E-03
    9119.091    125.172   5.880  1.01179E+00  1.00237E+00  9.42033E-03
    9120.890    126.970   5.920  1.01191E+00  1.00213E+00  9.77901E-03
    9122.700    128.781   5.960  1.01174E+00  1.00179E+00  9.95623E-03
    9124.523    130.604   6.000  1.01122E+00  1.00130E+00  9.91462E-03
