# # comment:                                                     FEFF 9.9.1  
# # Source:
# # Structure
# # Reduced
# # space
# # abc:
# # angles:103.007618
# # sites:
# # POT  SCF 100  7.0000   0, screened core-hole, AFOLP (folp(0)= 1.150)
# # Abs   Z=29 Rmt= 1.277 Rnm= 1.388 K  shell
# # Pot 1 Z=29 Rmt= 1.246 Rnm= 1.369
# # Pot 2 Z=74 Rmt= 1.242 Rnm= 1.422
# # Pot 3 Z= 8 Rmt= 0.980 Rnm= 1.078
# # Gam_ch=1.729E+00 H-L exch Vi= 0.000E+00 Vr= 0.000E+00
# # Mu=-6.008E+00eV kf=2.263E+00 Vint=-1.624E+01eV Rs_int= 1.602
# FMS rfms= 9.0000
# # PATH  Rmax=-1.000,  Keep_limit= 0.00, Heap_limit 0.00  Pwcrit= 2.50%
#  S02=0.950  Temp=   0.00  Debye_temp=   0.00  Global_sig2= 0.00000
#  Energy zero shift, vr, vi    0.00000E+00   0.00000E+00
#  Curved wave amplitude ratio filter   4.000%
#     file         sig2 tot  cw amp ratio   deg  nlegs   reff  inp sig2
#     0/   0 paths used
#  xsedge+ 50, used to normalize mu           2.4777E-04
#  -----------------------------------------------------------------------
#  omega    e    k    mu    mu0     chi     @#
    8983.347     -9.818  -1.000  4.85180E-02  5.44216E-02 -5.90365E-03
    8983.645     -9.520  -0.960  5.18625E-02  5.84106E-02 -6.54815E-03
    8983.932     -9.233  -0.920  5.55754E-02  6.28476E-02 -7.27220E-03
    8984.206     -8.959  -0.880  5.97126E-02  6.77991E-02 -8.08650E-03
    8984.468     -8.697  -0.840  6.43393E-02  7.33426E-02 -9.00324E-03
    8984.718     -8.447  -0.800  6.95316E-02  7.95679E-02 -1.00363E-02
    8984.956     -8.209  -0.760  7.53768E-02  8.65781E-02 -1.12013E-02
    8985.182     -7.983  -0.720  8.19744E-02  9.44901E-02 -1.25157E-02
    8985.395     -7.770  -0.680  8.94340E-02  1.03432E-01 -1.39982E-02
    8985.596     -7.569  -0.640  9.78723E-02  1.13541E-01 -1.56683E-02
    8985.785     -7.380  -0.600  1.07404E-01  1.24949E-01 -1.75442E-02
    8985.962     -7.203  -0.560  1.18130E-01  1.37771E-01 -1.96403E-02
    8986.127     -7.039  -0.520  1.30113E-01  1.52075E-01 -2.19620E-02
    8986.279     -6.886  -0.480  1.43348E-01  1.67848E-01 -2.44998E-02
    8986.419     -6.746  -0.440  1.57728E-01  1.84949E-01 -2.72216E-02
    8986.547     -6.618  -0.400  1.73013E-01  2.03081E-01 -3.00678E-02
    8986.663     -6.502  -0.360  1.88821E-01  2.21772E-01 -3.29512E-02
    8986.767     -6.398  -0.320  2.04645E-01  2.40410E-01 -3.57656E-02
    8986.858     -6.307  -0.280  2.19915E-01  2.58317E-01 -3.84020E-02
    8986.937     -6.228  -0.240  2.34074E-01  2.74841E-01 -4.07674E-02
    8987.004     -6.161  -0.200  2.46641E-01  2.89438E-01 -4.27971E-02
    8987.059     -6.106  -0.160  2.57253E-01  3.01710E-01 -4.44571E-02
    8987.102     -6.063  -0.120  2.65670E-01  3.11407E-01 -4.57375E-02
    8987.132     -6.033  -0.080  2.71748E-01  3.18390E-01 -4.66420E-02
    8987.157     -6.008   0.000  2.76640E-01  3.23998E-01 -4.73577E-02
    8987.212     -5.953   0.120  2.87615E-01  3.36643E-01 -4.90287E-02
    8987.254     -5.911   0.160  2.96177E-01  3.46467E-01 -5.02896E-02
    8987.309     -5.856   0.200  3.07111E-01  3.58979E-01 -5.18680E-02
    8987.376     -5.789   0.240  3.20275E-01  3.74021E-01 -5.37462E-02
    8987.455     -5.710   0.280  3.35364E-01  3.91279E-01 -5.59146E-02
    8987.547     -5.618   0.320  3.51871E-01  4.10273E-01 -5.84025E-02
    8987.651     -5.515   0.360  3.69080E-01  4.30421E-01 -6.13415E-02
    8987.766     -5.399   0.400  3.86191E-01  4.51161E-01 -6.49706E-02
    8987.894     -5.271   0.440  4.02253E-01  4.71906E-01 -6.96534E-02
    8988.035     -5.131   0.480  4.16467E-01  4.92234E-01 -7.57669E-02
    8988.187     -4.978   0.520  4.28265E-01  5.11857E-01 -8.35917E-02
    8988.352     -4.814   0.560  4.37480E-01  5.30671E-01 -9.31914E-02
    8988.528     -4.637   0.600  4.44168E-01  5.48627E-01 -1.04459E-01
    8988.717     -4.448   0.640  4.48587E-01  5.65805E-01 -1.17218E-01
    8988.918     -4.247   0.680  4.51043E-01  5.82248E-01 -1.31204E-01
    8989.132     -4.033   0.720  4.52267E-01  5.98112E-01 -1.45844E-01
    8989.357     -3.808   0.760  4.53514E-01  6.13471E-01 -1.59957E-01
    8989.595     -3.570   0.800  4.56472E-01  6.28411E-01 -1.71939E-01
    8989.845     -3.320   0.840  4.62490E-01  6.43027E-01 -1.80537E-01
    8990.107     -3.058   0.880  4.71949E-01  6.57373E-01 -1.85424E-01
    8990.382     -2.784   0.920  4.84589E-01  6.71517E-01 -1.86928E-01
    8990.668     -2.497   0.960  4.99854E-01  6.85450E-01 -1.85596E-01
    8990.967     -2.198   1.000  5.16501E-01  6.99232E-01 -1.82730E-01
    8991.278     -1.887   1.040  5.32335E-01  7.12855E-01 -1.80520E-01
    8991.601     -1.564   1.080  5.46507E-01  7.26343E-01 -1.79836E-01
    8991.936     -1.229   1.120  5.61637E-01  7.39692E-01 -1.78055E-01
    8992.283     -0.882   1.160  5.82035E-01  7.52895E-01 -1.70860E-01
    8992.643     -0.522   1.200  6.09600E-01  7.65916E-01 -1.56316E-01
    8993.015     -0.150   1.240  6.43261E-01  7.78779E-01 -1.35518E-01
    8993.399      0.234   1.280  6.81242E-01  7.91446E-01 -1.10204E-01
    8993.795      0.630   1.320  7.20067E-01  8.03893E-01 -8.38262E-02
    8994.204      1.039   1.360  7.53733E-01  8.16097E-01 -6.23646E-02
    8994.624      1.459   1.400  7.77696E-01  8.28052E-01 -5.03561E-02
    8995.057      1.892   1.440  7.91108E-01  8.39733E-01 -4.86252E-02
    8995.502      2.337   1.480  7.96297E-01  8.51113E-01 -5.48159E-02
    8995.959      2.794   1.520  7.98752E-01  8.62186E-01 -6.34345E-02
    8996.429      3.264   1.560  8.05803E-01  8.72906E-01 -6.71027E-02
    8996.910      3.745   1.600  8.21632E-01  8.83285E-01 -6.16533E-02
    8997.404      4.239   1.640  8.45498E-01  8.93299E-01 -4.78009E-02
    8997.910      4.745   1.680  8.77506E-01  9.02901E-01 -2.53949E-02
    8998.428      5.263   1.720  9.20715E-01  9.12127E-01  8.58796E-03
    8998.959      5.793   1.760  9.76145E-01  9.20933E-01  5.52117E-02
    8999.501      6.336   1.800  1.03841E+00  9.29316E-01  1.09093E-01
    9000.056      6.891   1.840  1.09973E+00  9.37294E-01  1.62434E-01
    9000.623      7.458   1.880  1.15677E+00  9.44827E-01  2.11942E-01
    9001.202      8.037   1.920  1.20803E+00  9.51933E-01  2.56097E-01
    9001.793      8.628   1.960  1.25138E+00  9.58613E-01  2.92764E-01
    9002.397      9.232   2.000  1.28401E+00  9.64868E-01  3.19142E-01
    9003.012      9.847   2.040  1.29853E+00  9.70681E-01  3.27845E-01
    9003.640     10.475   2.080  1.28886E+00  9.76075E-01  3.12784E-01
    9004.280     11.115   2.120  1.26202E+00  9.81053E-01  2.80968E-01
    9004.933     11.768   2.160  1.23481E+00  9.85620E-01  2.49186E-01
    9005.597     12.432   2.200  1.21977E+00  9.89803E-01  2.29972E-01
    9006.274     13.109   2.240  1.21463E+00  9.93586E-01  2.21049E-01
    9006.963     13.797   2.280  1.20727E+00  9.96996E-01  2.10274E-01
    9007.664     14.499   2.320  1.18865E+00  1.00006E+00  1.88594E-01
    9008.377     15.212   2.360  1.15896E+00  1.00276E+00  1.56197E-01
    9009.102     15.937   2.400  1.12643E+00  1.00514E+00  1.21297E-01
    9009.840     16.675   2.440  1.09833E+00  1.00719E+00  9.11481E-02
    9010.590     17.425   2.480  1.07189E+00  1.00894E+00  6.29509E-02
    9011.352     18.187   2.520  1.03969E+00  1.01040E+00  2.92898E-02
    9012.126     18.961   2.560  1.00148E+00  1.01159E+00 -1.01085E-02
    9012.912     19.747   2.600  9.62971E-01  1.01252E+00 -4.95538E-02
    9013.711     20.546   2.640  9.29256E-01  1.01322E+00 -8.39592E-02
    9014.522     21.356   2.680  9.09901E-01  1.01369E+00 -1.03792E-01
    9015.345     22.179   2.720  9.02153E-01  1.01396E+00 -1.11811E-01
    9016.180     23.015   2.760  8.99491E-01  1.01404E+00 -1.14545E-01
    9017.027     23.862   2.800  8.99104E-01  1.01394E+00 -1.14835E-01
    9017.887     24.721   2.840  9.00149E-01  1.01368E+00 -1.13530E-01
    9018.758     25.593   2.880  9.02523E-01  1.01328E+00 -1.10762E-01
    9019.642     26.477   2.920  9.06350E-01  1.01274E+00 -1.06391E-01
    9020.538     27.373   2.960  9.11880E-01  1.01210E+00 -1.00218E-01
    9021.447     28.282   3.000  9.18786E-01  1.01134E+00 -9.25548E-02
    9022.367     29.202   3.040  9.26418E-01  1.01050E+00 -8.40769E-02
    9023.300     30.135   3.080  9.33946E-01  1.00957E+00 -7.56215E-02
    9024.245     31.080   3.120  9.40674E-01  1.00856E+00 -6.78906E-02
    9025.202     32.037   3.160  9.46101E-01  1.00751E+00 -6.14105E-02
    9026.171     33.006   3.200  9.49911E-01  1.00641E+00 -5.65036E-02
    9027.152     33.987   3.240  9.52051E-01  1.00528E+00 -5.32290E-02
    9028.146     34.981   3.280  9.52694E-01  1.00413E+00 -5.14376E-02
    9029.152     35.987   3.320  9.52278E-01  1.00295E+00 -5.06755E-02
    9030.170     37.005   3.360  9.51490E-01  1.00177E+00 -5.02797E-02
    9031.200     38.035   3.400  9.51060E-01  1.00058E+00 -4.95249E-02
    9032.243     39.077   3.440  9.51607E-01  9.99425E-01 -4.78180E-02
    9033.297     40.132   3.480  9.53429E-01  9.98270E-01 -4.48411E-02
    9034.364     41.199   3.520  9.56524E-01  9.97122E-01 -4.05983E-02
    9035.443     42.278   3.560  9.60604E-01  9.96007E-01 -3.54035E-02
    9036.534     43.369   3.600  9.65337E-01  9.94927E-01 -2.95893E-02
    9037.638     44.472   3.640  9.70518E-01  9.93862E-01 -2.33440E-02
    9038.753     45.588   3.680  9.76036E-01  9.92859E-01 -1.68224E-02
    9039.881     46.716   3.720  9.81732E-01  9.91896E-01 -1.01642E-02
    9041.021     47.856   3.760  9.87528E-01  9.90977E-01 -3.44949E-03
    9042.173     49.008   3.800  9.93399E-01  9.90124E-01  3.27533E-03
    9043.337     50.172   3.840  9.99247E-01  9.89294E-01  9.95372E-03
    9044.514     51.349   3.880  1.00505E+00  9.88532E-01  1.65188E-02
    9045.702     52.537   3.920  1.01073E+00  9.87840E-01  2.28862E-02
    9046.903     53.738   3.960  1.01606E+00  9.87196E-01  2.88652E-02
    9048.116     54.951   4.000  1.02088E+00  9.86624E-01  3.42543E-02
    9049.342     56.177   4.040  1.02502E+00  9.86100E-01  3.89235E-02
    9050.579     57.414   4.080  1.02847E+00  9.85647E-01  4.28271E-02
    9051.829     58.664   4.120  1.03123E+00  9.85242E-01  4.59912E-02
    9053.091     59.926   4.160  1.03339E+00  9.84907E-01  4.84807E-02
    9054.365     61.200   4.200  1.03492E+00  9.84622E-01  5.02982E-02
    9055.651     62.486   4.240  1.03578E+00  9.84406E-01  5.13736E-02
    9056.950     63.784   4.280  1.03586E+00  9.84237E-01  5.16204E-02
    9058.260     65.095   4.320  1.03511E+00  9.84114E-01  5.10000E-02
    9059.583     66.418   4.360  1.03359E+00  9.84061E-01  4.95314E-02
    9060.918     67.753   4.400  1.03142E+00  9.84076E-01  4.73463E-02
    9062.265     69.100   4.440  1.02876E+00  9.84116E-01  4.46396E-02
    9063.625     70.460   4.480  1.02580E+00  9.84221E-01  4.15762E-02
    9064.996     71.831   4.520  1.02268E+00  9.84391E-01  3.82911E-02
    9066.380     73.215   4.560  1.01950E+00  9.84581E-01  3.49222E-02
    9067.776     74.611   4.600  1.01635E+00  9.84808E-01  3.15457E-02
    9069.184     76.019   4.640  1.01316E+00  9.85076E-01  2.80859E-02
    9070.605     77.439   4.680  1.00969E+00  9.85381E-01  2.43105E-02
    9072.037     78.872   4.720  1.00565E+00  9.85724E-01  1.99291E-02
    9073.482     80.317   4.760  1.00089E+00  9.86103E-01  1.47905E-02
    9074.939     81.774   4.800  9.95548E-01  9.86516E-01  9.03196E-03
    9076.408     83.243   4.840  9.89970E-01  9.86939E-01  3.03101E-03
    9077.889     84.724   4.880  9.84613E-01  9.87368E-01 -2.75499E-03
    9079.383     86.218   4.920  9.79872E-01  9.87825E-01 -7.95311E-03
    9080.888     87.723   4.960  9.75932E-01  9.88289E-01 -1.23569E-02
    9082.406     89.241   5.000  9.72895E-01  9.88778E-01 -1.58828E-02
    9083.936     90.771   5.040  9.70697E-01  9.89248E-01 -1.85509E-02
    9085.479     92.314   5.080  9.69295E-01  9.89741E-01 -2.04459E-02
    9087.033     93.868   5.120  9.68488E-01  9.90232E-01 -2.17438E-02
    9088.600     95.435   5.160  9.67942E-01  9.90699E-01 -2.27566E-02
    9090.179     97.014   5.200  9.67294E-01  9.91183E-01 -2.38889E-02
    9091.770     98.605   5.240  9.66134E-01  9.91639E-01 -2.55052E-02
    9093.373    100.208   5.280  9.64325E-01  9.92066E-01 -2.77413E-02
    9094.988    101.823   5.320  9.62013E-01  9.92506E-01 -3.04925E-02
    9096.616    103.451   5.360  9.59363E-01  9.92893E-01 -3.35305E-02
    9098.256    105.091   5.400  9.56708E-01  9.93291E-01 -3.65833E-02
    9099.908    106.743   5.440  9.54321E-01  9.93633E-01 -3.93120E-02
    9101.572    108.407   5.480  9.52686E-01  9.93962E-01 -4.12758E-02
    9103.248    110.083   5.520  9.52272E-01  9.94253E-01 -4.19813E-02
    9104.937    111.772   5.560  9.53498E-01  9.94508E-01 -4.10101E-02
    9106.638    113.473   5.600  9.56580E-01  9.94748E-01 -3.81680E-02
    9108.351    115.186   5.640  9.61320E-01  9.94926E-01 -3.36060E-02
    9110.076    116.911   5.680  9.67328E-01  9.95087E-01 -2.77592E-02
    9111.813    118.648   5.720  9.73979E-01  9.95185E-01 -2.12058E-02
    9113.563    120.398   5.760  9.80740E-01  9.95265E-01 -1.45247E-02
    9115.325    122.160   5.800  9.87069E-01  9.95284E-01 -8.21431E-03
    9117.099    123.933   5.840  9.92648E-01  9.95283E-01 -2.63538E-03
    9118.885    125.720   5.880  9.97241E-01  9.95218E-01  2.02334E-03
    9120.683    127.518   5.920  1.00087E+00  9.95111E-01  5.75677E-03
    9122.493    129.328   5.960  1.00361E+00  9.94961E-01  8.65192E-03
    9124.316    131.151   6.000  1.00558E+00  9.94772E-01  1.08104E-02
