# # comment:                                                     FEFF 9.9.1  
# # Source:
# # Structure
# # Reduced
# # space
# # abc:
# # angles:
# # sites:
# # POT  SCF 100  7.0000   0, screened core-hole, AFOLP (folp(0)= 1.150)
# # Abs   Z=29 Rmt= 1.254 Rnm= 1.320 K  shell
# # Pot 1 Z= 3 Rmt= 1.264 Rnm= 1.314
# # Pot 2 Z=40 Rmt= 1.409 Rnm= 1.534
# # Pot 3 Z=29 Rmt= 1.284 Rnm= 1.340
# # Pot 4 Z= 8 Rmt= 1.059 Rnm= 1.117
# # Gam_ch=1.729E+00 H-L exch Vi= 0.000E+00 Vr= 0.000E+00
# # Mu=-8.515E+00eV kf=2.052E+00 Vint=-1.711E+01eV Rs_int= 1.767
# FMS rfms= 9.0000
# # PATH  Rmax=-1.000,  Keep_limit= 0.00, Heap_limit 0.00  Pwcrit= 2.50%
#  S02=0.950  Temp=   0.00  Debye_temp=   0.00  Global_sig2= 0.00000
#  Energy zero shift, vr, vi    0.00000E+00   0.00000E+00
#  Curved wave amplitude ratio filter   4.000%
#     file         sig2 tot  cw amp ratio   deg  nlegs   reff  inp sig2
#     0/   0 paths used
#  xsedge+ 50, used to normalize mu           2.4516E-04
#  -----------------------------------------------------------------------
#  omega    e    k    mu    mu0     chi     @#
    8984.598    -12.325  -1.000  3.61643E-02  5.47039E-02 -1.85396E-02
    8984.897    -12.027  -0.960  3.77791E-02  5.87027E-02 -2.09236E-02
    8985.184    -11.740  -0.920  3.94769E-02  6.31477E-02 -2.36708E-02
    8985.458    -11.466  -0.880  4.12619E-02  6.81046E-02 -2.68427E-02
    8985.720    -11.204  -0.840  4.31388E-02  7.36501E-02 -3.05113E-02
    8985.970    -10.954  -0.800  4.51123E-02  7.98727E-02 -3.47604E-02
    8986.208    -10.716  -0.760  4.71871E-02  8.68743E-02 -3.96872E-02
    8986.433    -10.491  -0.720  4.93680E-02  9.47697E-02 -4.54017E-02
    8986.647    -10.277  -0.680  5.16593E-02  1.03685E-01 -5.20261E-02
    8986.848    -10.076  -0.640  5.40645E-02  1.13755E-01 -5.96907E-02
    8987.037     -9.887  -0.600  5.65854E-02  1.25110E-01 -6.85248E-02
    8987.214     -9.710  -0.560  5.92207E-02  1.37862E-01 -7.86417E-02
    8987.378     -9.546  -0.520  6.19639E-02  1.52078E-01 -9.01144E-02
    8987.531     -9.393  -0.480  6.48010E-02  1.67743E-01 -1.02942E-01
    8987.671     -9.253  -0.440  6.77073E-02  1.84720E-01 -1.17012E-01
    8987.799     -9.125  -0.400  7.06450E-02  2.02712E-01 -1.32067E-01
    8987.915     -9.009  -0.360  7.35629E-02  2.21256E-01 -1.47693E-01
    8988.018     -8.906  -0.320  7.63983E-02  2.39748E-01 -1.63350E-01
    8988.110     -8.814  -0.280  7.90831E-02  2.57518E-01 -1.78435E-01
    8988.189     -8.735  -0.240  8.15502E-02  2.73921E-01 -1.92371E-01
    8988.256     -8.668  -0.200  8.37397E-02  2.88418E-01 -2.04679E-01
    8988.311     -8.613  -0.160  8.56008E-02  3.00613E-01 -2.15013E-01
    8988.354     -8.570  -0.120  8.70926E-02  3.10254E-01 -2.23162E-01
    8988.384     -8.540  -0.080  8.81840E-02  3.17200E-01 -2.29016E-01
    8988.408     -8.515   0.000  8.90856E-02  3.22781E-01 -2.33695E-01
    8988.463     -8.461   0.120  9.12810E-02  3.35365E-01 -2.44084E-01
    8988.506     -8.418   0.160  9.29287E-02  3.45139E-01 -2.52211E-01
    8988.561     -8.363   0.200  9.50813E-02  3.57637E-01 -2.62556E-01
    8988.628     -8.296   0.240  9.76801E-02  3.72649E-01 -2.74969E-01
    8988.707     -8.217   0.280  1.00804E-01  3.89898E-01 -2.89094E-01
    8988.799     -8.125   0.320  1.04464E-01  4.08946E-01 -3.04482E-01
    8988.902     -8.022   0.360  1.08678E-01  4.29230E-01 -3.20552E-01
    8989.018     -7.906   0.400  1.13514E-01  4.50153E-01 -3.36638E-01
    8989.146     -7.778   0.440  1.19065E-01  4.71205E-01 -3.52140E-01
    8989.286     -7.638   0.480  1.25438E-01  4.91957E-01 -3.66519E-01
    8989.439     -7.485   0.520  1.32699E-01  5.12109E-01 -3.79409E-01
    8989.603     -7.321   0.560  1.40997E-01  5.31557E-01 -3.90560E-01
    8989.780     -7.144   0.600  1.50510E-01  5.50270E-01 -3.99760E-01
    8989.969     -6.955   0.640  1.61563E-01  5.68284E-01 -4.06721E-01
    8990.170     -6.754   0.680  1.74608E-01  5.85669E-01 -4.11060E-01
    8990.384     -6.540   0.720  1.90150E-01  6.02513E-01 -4.12363E-01
    8990.609     -6.315   0.760  2.08602E-01  6.18922E-01 -4.10319E-01
    8990.847     -6.077   0.800  2.30479E-01  6.34950E-01 -4.04470E-01
    8991.097     -5.827   0.840  2.56976E-01  6.50659E-01 -3.93683E-01
    8991.359     -5.565   0.880  2.89829E-01  6.66117E-01 -3.76288E-01
    8991.633     -5.291   0.920  3.29989E-01  6.81319E-01 -3.51330E-01
    8991.920     -5.004   0.960  3.76887E-01  6.96329E-01 -3.19442E-01
    8992.218     -4.705   1.000  4.28237E-01  7.11116E-01 -2.82879E-01
    8992.529     -4.395   1.040  4.80219E-01  7.25705E-01 -2.45486E-01
    8992.852     -4.071   1.080  5.27127E-01  7.40071E-01 -2.12944E-01
    8993.188     -3.736   1.120  5.64379E-01  7.54221E-01 -1.89843E-01
    8993.535     -3.389   1.160  5.94482E-01  7.68124E-01 -1.73641E-01
    8993.895     -3.029   1.200  6.23788E-01  7.81758E-01 -1.57970E-01
    8994.267     -2.657   1.240  6.50240E-01  7.95102E-01 -1.44863E-01
    8994.651     -2.273   1.280  6.65765E-01  8.08132E-01 -1.42367E-01
    8995.047     -1.877   1.320  6.70272E-01  8.20802E-01 -1.50531E-01
    8995.455     -1.469   1.360  6.77588E-01  8.33147E-01 -1.55558E-01
    8995.876     -1.048   1.400  7.06297E-01  8.45077E-01 -1.38780E-01
    8996.309     -0.615   1.440  7.67285E-01  8.56610E-01 -8.93253E-02
    8996.754     -0.170   1.480  8.59603E-01  8.67719E-01 -8.11580E-03
    8997.211      0.287   1.520  9.67138E-01  8.78376E-01  8.87617E-02
    8997.680      0.757   1.560  1.06536E+00  8.88578E-01  1.76783E-01
    8998.162      1.238   1.600  1.15015E+00  8.98323E-01  2.51822E-01
    8998.656      1.732   1.640  1.23345E+00  9.07566E-01  3.25886E-01
    8999.162      2.238   1.680  1.31592E+00  9.16349E-01  3.99575E-01
    8999.680      2.756   1.720  1.41071E+00  9.24628E-01  4.86079E-01
    9000.210      3.286   1.760  1.52861E+00  9.32425E-01  5.96186E-01
    9000.753      3.829   1.800  1.62474E+00  9.39724E-01  6.85011E-01
    9001.308      4.384   1.840  1.65194E+00  9.46546E-01  7.05390E-01
    9001.874      4.951   1.880  1.60366E+00  9.52898E-01  6.50757E-01
    9002.454      5.530   1.920  1.50574E+00  9.58763E-01  5.46972E-01
    9003.045      6.121   1.960  1.39271E+00  9.64189E-01  4.28525E-01
    9003.648      6.724   2.000  1.28894E+00  9.69184E-01  3.19754E-01
    9004.264      7.340   2.040  1.20024E+00  9.73733E-01  2.26509E-01
    9004.892      7.968   2.080  1.12257E+00  9.77867E-01  1.44703E-01
    9005.532      8.608   2.120  1.05054E+00  9.81614E-01  6.89281E-02
    9006.184      9.260   2.160  9.84314E-01  9.84984E-01 -6.69276E-04
    9006.849      9.925   2.200  9.29308E-01  9.87985E-01 -5.86764E-02
    9007.525     10.602   2.240  8.90125E-01  9.90648E-01 -1.00524E-01
    9008.214     11.290   2.280  8.65746E-01  9.92984E-01 -1.27238E-01
    9008.915     11.991   2.320  8.52938E-01  9.95045E-01 -1.42108E-01
    9009.629     12.705   2.360  8.55231E-01  9.96796E-01 -1.41565E-01
    9010.354     13.430   2.400  8.79065E-01  9.98289E-01 -1.19225E-01
    9011.092     14.168   2.440  9.22296E-01  9.99536E-01 -7.72399E-02
    9011.841     14.917   2.480  9.70635E-01  1.00056E+00 -2.99287E-02
    9012.603     15.679   2.520  9.99199E-01  1.00136E+00 -2.16442E-03
    9013.378     16.454   2.560  1.01064E+00  1.00200E+00  8.63832E-03
    9014.164     17.240   2.600  1.01156E+00  1.00246E+00  9.09957E-03
    9014.963     18.039   2.640  1.00619E+00  1.00275E+00  3.44882E-03
    9015.773     18.849   2.680  9.96438E-01  1.00290E+00 -6.46459E-03
    9016.596     19.672   2.720  9.84304E-01  1.00294E+00 -1.86313E-02
    9017.431     20.507   2.760  9.71178E-01  1.00287E+00 -3.16926E-02
    9018.279     21.355   2.800  9.57014E-01  1.00270E+00 -4.56824E-02
    9019.138     22.214   2.840  9.42706E-01  1.00246E+00 -5.97520E-02
    9020.010     23.086   2.880  9.29641E-01  1.00212E+00 -7.24827E-02
    9020.894     23.970   2.920  9.18737E-01  1.00176E+00 -8.30217E-02
    9021.790     24.866   2.960  9.09747E-01  1.00133E+00 -9.15823E-02
    9022.698     25.774   3.000  9.01769E-01  1.00088E+00 -9.91117E-02
    9023.619     26.695   3.040  8.94037E-01  1.00040E+00 -1.06360E-01
    9024.551     27.628   3.080  8.86810E-01  9.99904E-01 -1.13094E-01
    9025.496     28.572   3.120  8.81009E-01  9.99385E-01 -1.18375E-01
    9026.453     29.530   3.160  8.77464E-01  9.98883E-01 -1.21419E-01
    9027.423     30.499   3.200  8.76643E-01  9.98361E-01 -1.21718E-01
    9028.404     31.480   3.240  8.78723E-01  9.97866E-01 -1.19143E-01
    9029.398     32.474   3.280  8.83720E-01  9.97400E-01 -1.13679E-01
    9030.404     33.480   3.320  8.91856E-01  9.96944E-01 -1.05088E-01
    9031.422     34.498   3.360  9.03649E-01  9.96521E-01 -9.28727E-02
    9032.452     35.528   3.400  9.19358E-01  9.96133E-01 -7.67756E-02
    9033.494     36.570   3.440  9.38416E-01  9.95761E-01 -5.73449E-02
    9034.549     37.625   3.480  9.59975E-01  9.95447E-01 -3.54721E-02
    9035.616     38.692   3.520  9.82709E-01  9.95153E-01 -1.24436E-02
    9036.695     39.771   3.560  1.00522E+00  9.94918E-01  1.02985E-02
    9037.786     40.862   3.600  1.02613E+00  9.94724E-01  3.14043E-02
    9038.889     41.965   3.640  1.04428E+00  9.94552E-01  4.97278E-02
    9040.005     43.081   3.680  1.05893E+00  9.94442E-01  6.44854E-02
    9041.133     44.209   3.720  1.06998E+00  9.94375E-01  7.56023E-02
    9042.272     45.349   3.760  1.07767E+00  9.94372E-01  8.33027E-02
    9043.425     46.501   3.800  1.08216E+00  9.94391E-01  8.77711E-02
    9044.589     47.665   3.840  1.08367E+00  9.94471E-01  8.91938E-02
    9045.765     48.842   3.880  1.08262E+00  9.94572E-01  8.80450E-02
    9046.954     50.030   3.920  1.07975E+00  9.94734E-01  8.50192E-02
    9048.155     51.231   3.960  1.07543E+00  9.94937E-01  8.04920E-02
    9049.368     52.444   4.000  1.06945E+00  9.95157E-01  7.42940E-02
    9050.593     53.670   4.040  1.06125E+00  9.95436E-01  6.58151E-02
    9051.831     54.907   4.080  1.05022E+00  9.95755E-01  5.44654E-02
    9053.081     56.157   4.120  1.03628E+00  9.96088E-01  4.01914E-02
    9054.343     57.419   4.160  1.02026E+00  9.96455E-01  2.38051E-02
    9055.617     58.693   4.200  1.00367E+00  9.96857E-01  6.81705E-03
    9056.903     59.979   4.240  9.88456E-01  9.97293E-01 -8.83722E-03
    9058.201     61.277   4.280  9.76533E-01  9.97736E-01 -2.12028E-02
    9059.512     62.588   4.320  9.69331E-01  9.98188E-01 -2.88571E-02
    9060.835     63.911   4.360  9.67657E-01  9.98668E-01 -3.10113E-02
    9062.170     65.246   4.400  9.71626E-01  9.99177E-01 -2.75509E-02
    9063.517     66.593   4.440  9.80628E-01  9.99668E-01 -1.90402E-02
    9064.876     67.952   4.480  9.93547E-01  1.00018E+00 -6.63505E-03
    9066.248     69.324   4.520  1.00880E+00  1.00070E+00  8.09913E-03
    9067.632     70.708   4.560  1.02452E+00  1.00122E+00  2.33072E-02
    9069.028     72.104   4.600  1.03872E+00  1.00173E+00  3.69944E-02
    9070.436     73.512   4.640  1.04957E+00  1.00224E+00  4.73262E-02
    9071.856     74.932   4.680  1.05584E+00  1.00272E+00  5.31197E-02
    9073.289     76.365   4.720  1.05730E+00  1.00320E+00  5.40954E-02
    9074.734     77.810   4.760  1.05450E+00  1.00369E+00  5.08094E-02
    9076.190     79.267   4.800  1.04846E+00  1.00414E+00  4.43242E-02
    9077.660     80.736   4.840  1.04024E+00  1.00457E+00  3.56750E-02
    9079.141     82.217   4.880  1.03048E+00  1.00499E+00  2.54980E-02
    9080.634     83.711   4.920  1.01945E+00  1.00538E+00  1.40742E-02
    9082.140     85.216   4.960  1.00742E+00  1.00575E+00  1.67102E-03
    9083.658     86.734   5.000  9.94862E-01  1.00607E+00 -1.12046E-02
    9085.188     88.264   5.040  9.82466E-01  1.00637E+00 -2.39037E-02
    9086.730     89.807   5.080  9.70782E-01  1.00666E+00 -3.58752E-02
    9088.285     91.361   5.120  9.60168E-01  1.00688E+00 -4.67169E-02
    9089.852     92.928   5.160  9.51129E-01  1.00709E+00 -5.59651E-02
    9091.430     94.507   5.200  9.44302E-01  1.00724E+00 -6.29416E-02
    9093.021     96.098   5.240  9.40382E-01  1.00737E+00 -6.69921E-02
    9094.625     97.701   5.280  9.39709E-01  1.00747E+00 -6.77569E-02
    9096.240     99.316   5.320  9.42149E-01  1.00752E+00 -6.53690E-02
    9097.868    100.944   5.360  9.47096E-01  1.00753E+00 -6.04349E-02
    9099.508    102.584   5.400  9.53581E-01  1.00751E+00 -5.39239E-02
    9101.160    104.236   5.440  9.60587E-01  1.00746E+00 -4.68729E-02
    9102.824    105.900   5.480  9.67418E-01  1.00735E+00 -3.99352E-02
    9104.500    107.576   5.520  9.74145E-01  1.00721E+00 -3.30616E-02
    9106.189    109.265   5.560  9.81288E-01  1.00704E+00 -2.57541E-02
    9107.890    110.966   5.600  9.89225E-01  1.00682E+00 -1.75918E-02
    9109.603    112.679   5.640  9.98050E-01  1.00658E+00 -8.52608E-03
    9111.328    114.404   5.680  1.00746E+00  1.00630E+00  1.16095E-03
    9113.065    116.141   5.720  1.01690E+00  1.00598E+00  1.09207E-02
    9114.815    117.891   5.760  1.02565E+00  1.00563E+00  2.00149E-02
    9116.576    119.652   5.800  1.03289E+00  1.00527E+00  2.76158E-02
    9118.350    121.426   5.840  1.03781E+00  1.00487E+00  3.29307E-02
    9120.136    123.212   5.880  1.03975E+00  1.00445E+00  3.53019E-02
    9121.935    125.011   5.920  1.03831E+00  1.00399E+00  3.43257E-02
    9123.745    126.821   5.960  1.03359E+00  1.00353E+00  3.00610E-02
    9125.568    128.644   6.000  1.02602E+00  1.00305E+00  2.29677E-02
