# # comment:                                                     FEFF 9.9.1  
# # Source:
# # Structure
# # Reduced
# # space
# # abc:
# # angles:
# # sites:
# # POT  SCF 100  7.0000   0, screened core-hole, AFOLP (folp(0)= 1.150)
# # Abs   Z=29 Rmt= 1.305 Rnm= 1.373 K  shell
# # Pot 1 Z=29 Rmt= 1.246 Rnm= 1.360
# # Pot 2 Z= 1 Rmt= 0.699 Rnm= 0.843
# # Pot 3 Z=17 Rmt= 1.134 Rnm= 1.410
# # Pot 4 Z= 8 Rmt= 1.050 Rnm= 1.143
# # Gam_ch=1.729E+00 H-L exch Vi= 0.000E+00 Vr= 0.000E+00
# # Mu=-5.842E+00eV kf=2.028E+00 Vint=-1.346E+01eV Rs_int= 1.788
# FMS rfms= 9.0000
# # PATH  Rmax=-1.000,  Keep_limit= 0.00, Heap_limit 0.00  Pwcrit= 2.50%
#  S02=0.950  Temp=   0.00  Debye_temp=   0.00  Global_sig2= 0.00000
#  Energy zero shift, vr, vi    0.00000E+00   0.00000E+00
#  Curved wave amplitude ratio filter   4.000%
#     file         sig2 tot  cw amp ratio   deg  nlegs   reff  inp sig2
#     0/   0 paths used
#  xsedge+ 50, used to normalize mu           2.4399E-04
#  -----------------------------------------------------------------------
#  omega    e    k    mu    mu0     chi     @#
    8983.393     -9.652  -1.000  3.63792E-02  5.66058E-02 -2.02265E-02
    8983.692     -9.354  -0.960  3.80594E-02  6.07900E-02 -2.27306E-02
    8983.978     -9.067  -0.920  3.98422E-02  6.54431E-02 -2.56010E-02
    8984.253     -8.793  -0.880  4.17369E-02  7.06340E-02 -2.88971E-02
    8984.515     -8.531  -0.840  4.37543E-02  7.64431E-02 -3.26888E-02
    8984.765     -8.281  -0.800  4.59063E-02  8.29632E-02 -3.70569E-02
    8985.002     -8.043  -0.760  4.82064E-02  9.03010E-02 -4.20946E-02
    8985.228     -7.818  -0.720  5.06694E-02  9.85770E-02 -4.79076E-02
    8985.441     -7.604  -0.680  5.33114E-02  1.07924E-01 -5.46123E-02
    8985.642     -7.403  -0.640  5.61483E-02  1.18481E-01 -6.23325E-02
    8985.831     -7.214  -0.600  5.91951E-02  1.30386E-01 -7.11906E-02
    8986.008     -7.037  -0.560  6.24629E-02  1.43755E-01 -8.12925E-02
    8986.173     -6.873  -0.520  6.59554E-02  1.58660E-01 -9.27041E-02
    8986.325     -6.720  -0.480  6.96634E-02  1.75083E-01 -1.05419E-01
    8986.465     -6.580  -0.440  7.35591E-02  1.92880E-01 -1.19321E-01
    8986.593     -6.452  -0.400  7.75906E-02  2.11744E-01 -1.34153E-01
    8986.709     -6.336  -0.360  8.16797E-02  2.31187E-01 -1.49508E-01
    8986.813     -6.233  -0.320  8.57245E-02  2.50579E-01 -1.64855E-01
    8986.904     -6.141  -0.280  8.96086E-02  2.69217E-01 -1.79608E-01
    8986.984     -6.062  -0.240  9.32141E-02  2.86426E-01 -1.93212E-01
    8987.051     -5.995  -0.200  9.64331E-02  3.01639E-01 -2.05206E-01
    8987.105     -5.940  -0.160  9.91771E-02  3.14440E-01 -2.15263E-01
    8987.148     -5.897  -0.120  1.01379E-01  3.24562E-01 -2.23183E-01
    8987.179     -5.867  -0.080  1.02994E-01  3.31856E-01 -2.28863E-01
    8987.203     -5.842   0.000  1.04336E-01  3.37717E-01 -2.33382E-01
    8987.258     -5.788   0.120  1.07347E-01  3.50945E-01 -2.43598E-01
    8987.301     -5.745   0.160  1.09648E-01  3.61222E-01 -2.51573E-01
    8987.355     -5.690   0.200  1.12612E-01  3.74357E-01 -2.61745E-01
    8987.422     -5.623   0.240  1.16184E-01  3.90161E-01 -2.73977E-01
    8987.502     -5.544   0.280  1.20345E-01  4.08329E-01 -2.87984E-01
    8987.593     -5.452   0.320  1.24994E-01  4.28413E-01 -3.03419E-01
    8987.697     -5.349   0.360  1.29985E-01  4.49811E-01 -3.19826E-01
    8987.813     -5.233   0.400  1.35219E-01  4.71966E-01 -3.36747E-01
    8987.941     -5.105   0.440  1.40482E-01  4.94250E-01 -3.53768E-01
    8988.081     -4.965   0.480  1.45798E-01  5.16278E-01 -3.70480E-01
    8988.233     -4.812   0.520  1.51325E-01  5.37736E-01 -3.86411E-01
    8988.398     -4.648   0.560  1.57477E-01  5.58494E-01 -4.01016E-01
    8988.575     -4.471   0.600  1.64840E-01  5.78471E-01 -4.13631E-01
    8988.764     -4.282   0.640  1.74198E-01  5.97721E-01 -4.23523E-01
    8988.965     -4.081   0.680  1.86229E-01  6.16333E-01 -4.30104E-01
    8989.178     -3.867   0.720  2.01205E-01  6.34348E-01 -4.33144E-01
    8989.404     -3.642   0.760  2.18551E-01  6.51849E-01 -4.33298E-01
    8989.641     -3.404   0.800  2.36613E-01  6.68906E-01 -4.32293E-01
    8989.891     -3.154   0.840  2.53401E-01  6.85556E-01 -4.32155E-01
    8990.153     -2.892   0.880  2.68398E-01  7.01861E-01 -4.33463E-01
    8990.428     -2.618   0.920  2.83397E-01  7.17810E-01 -4.34413E-01
    8990.714     -2.331   0.960  3.01323E-01  7.33422E-01 -4.32098E-01
    8991.013     -2.032   1.000  3.23527E-01  7.48701E-01 -4.25173E-01
    8991.324     -1.722   1.040  3.47957E-01  7.63625E-01 -4.15668E-01
    8991.647     -1.399   1.080  3.70477E-01  7.78166E-01 -4.07689E-01
    8991.982     -1.063   1.120  3.88873E-01  7.92330E-01 -4.03457E-01
    8992.330     -0.716   1.160  4.06616E-01  8.06100E-01 -3.99484E-01
    8992.689     -0.356   1.200  4.31433E-01  8.19413E-01 -3.87980E-01
    8993.061      0.016   1.240  4.71225E-01  8.32268E-01 -3.61043E-01
    8993.445      0.400   1.280  5.32462E-01  8.44620E-01 -3.12158E-01
    8993.842      0.796   1.320  6.17330E-01  8.56485E-01 -2.39156E-01
    8994.250      1.204   1.360  7.18813E-01  8.67821E-01 -1.49008E-01
    8994.671      1.625   1.400  8.24701E-01  8.78625E-01 -5.39247E-02
    8995.103      2.058   1.440  9.32841E-01  8.88855E-01  4.39858E-02
    8995.548      2.503   1.480  1.04567E+00  8.98530E-01  1.47139E-01
    8996.006      2.960   1.520  1.14892E+00  9.07651E-01  2.41271E-01
    8996.475      3.429   1.560  1.22613E+00  9.16179E-01  3.09954E-01
    8996.957      3.911   1.600  1.27599E+00  9.24159E-01  3.51833E-01
    8997.450      4.405   1.640  1.30435E+00  9.31576E-01  3.72776E-01
    8997.956      4.911   1.680  1.32594E+00  9.38457E-01  3.87487E-01
    8998.474      5.429   1.720  1.36553E+00  9.44769E-01  4.20761E-01
    8999.005      5.959   1.760  1.43809E+00  9.50581E-01  4.87507E-01
    8999.547      6.502   1.800  1.53025E+00  9.55884E-01  5.74363E-01
    9000.102      7.057   1.840  1.61365E+00  9.60687E-01  6.52967E-01
    9000.669      7.624   1.880  1.66968E+00  9.65045E-01  7.04631E-01
    9001.248      8.203   1.920  1.68411E+00  9.68946E-01  7.15162E-01
    9001.839      8.794   1.960  1.63935E+00  9.72426E-01  6.66928E-01
    9002.443      9.397   2.000  1.53343E+00  9.75496E-01  5.57936E-01
    9003.059     10.013   2.040  1.38749E+00  9.78211E-01  4.09277E-01
    9003.687     10.641   2.080  1.24407E+00  9.80585E-01  2.63484E-01
    9004.327     11.281   2.120  1.14078E+00  9.82651E-01  1.58134E-01
    9004.979     11.933   2.160  1.08593E+00  9.84401E-01  1.01534E-01
    9005.643     12.598   2.200  1.06564E+00  9.85887E-01  7.97525E-02
    9006.320     13.274   2.240  1.05715E+00  9.87123E-01  7.00315E-02
    9007.009     13.963   2.280  1.02809E+00  9.88140E-01  3.99517E-02
    9007.710     14.664   2.320  9.61001E-01  9.88952E-01 -2.79507E-02
    9008.423     15.378   2.360  8.88945E-01  9.89568E-01 -1.00622E-01
    9009.149     16.103   2.400  8.44299E-01  9.90039E-01 -1.45740E-01
    9009.886     16.841   2.440  8.34279E-01  9.90378E-01 -1.56098E-01
    9010.636     17.590   2.480  8.49679E-01  9.90594E-01 -1.40915E-01
    9011.398     18.352   2.520  8.67978E-01  9.90715E-01 -1.22737E-01
    9012.172     19.127   2.560  8.79633E-01  9.90729E-01 -1.11095E-01
    9012.958     19.913   2.600  8.82573E-01  9.90685E-01 -1.08112E-01
    9013.757     20.712   2.640  8.79117E-01  9.90592E-01 -1.11475E-01
    9014.568     21.522   2.680  8.72571E-01  9.90457E-01 -1.17886E-01
    9015.391     22.345   2.720  8.65317E-01  9.90283E-01 -1.24966E-01
    9016.226     23.180   2.760  8.58303E-01  9.90097E-01 -1.31793E-01
    9017.073     24.028   2.800  8.51920E-01  9.89885E-01 -1.37966E-01
    9017.933     24.887   2.840  8.46613E-01  9.89694E-01 -1.43081E-01
    9018.805     25.759   2.880  8.42632E-01  9.89507E-01 -1.46875E-01
    9019.688     26.643   2.920  8.40530E-01  9.89347E-01 -1.48818E-01
    9020.585     27.539   2.960  8.40566E-01  9.89199E-01 -1.48633E-01
    9021.493     28.447   3.000  8.42351E-01  9.89085E-01 -1.46734E-01
    9022.413     29.368   3.040  8.45544E-01  9.89008E-01 -1.43464E-01
    9023.346     30.301   3.080  8.49969E-01  9.88972E-01 -1.39003E-01
    9024.291     31.245   3.120  8.54810E-01  9.88976E-01 -1.34166E-01
    9025.248     32.202   3.160  8.59441E-01  9.89043E-01 -1.29602E-01
    9026.217     33.172   3.200  8.63608E-01  9.89134E-01 -1.25526E-01
    9027.199     34.153   3.240  8.67541E-01  9.89289E-01 -1.21747E-01
    9028.192     35.147   3.280  8.71914E-01  9.89491E-01 -1.17577E-01
    9029.198     36.153   3.320  8.78096E-01  9.89760E-01 -1.11664E-01
    9030.216     37.171   3.360  8.87725E-01  9.90075E-01 -1.02350E-01
    9031.246     38.201   3.400  9.02208E-01  9.90434E-01 -8.82261E-02
    9032.289     39.243   3.440  9.22481E-01  9.90838E-01 -6.83561E-02
    9033.343     40.298   3.480  9.48637E-01  9.91307E-01 -4.26707E-02
    9034.410     41.365   3.520  9.79438E-01  9.91821E-01 -1.23831E-02
    9035.489     42.444   3.560  1.01263E+00  9.92378E-01  2.02480E-02
    9036.580     43.535   3.600  1.04530E+00  9.92977E-01  5.23237E-02
    9037.684     44.638   3.640  1.07447E+00  9.93638E-01  8.08310E-02
    9038.799     45.754   3.680  1.09811E+00  9.94316E-01  1.03794E-01
    9039.927     46.882   3.720  1.11569E+00  9.95031E-01  1.20660E-01
    9041.067     48.022   3.760  1.12778E+00  9.95782E-01  1.31998E-01
    9042.219     49.174   3.800  1.13551E+00  9.96567E-01  1.38945E-01
    9043.383     50.338   3.840  1.14036E+00  9.97365E-01  1.42997E-01
    9044.560     51.515   3.880  1.14363E+00  9.98193E-01  1.45441E-01
    9045.749     52.703   3.920  1.14609E+00  9.99048E-01  1.47039E-01
    9046.950     53.904   3.960  1.14767E+00  9.99888E-01  1.47785E-01
    9048.163     55.117   4.000  1.14763E+00  1.00075E+00  1.46881E-01
    9049.388     56.343   4.040  1.14442E+00  1.00162E+00  1.42808E-01
    9050.626     57.580   4.080  1.13646E+00  1.00248E+00  1.33978E-01
    9051.875     58.830   4.120  1.12317E+00  1.00334E+00  1.19830E-01
    9053.137     60.092   4.160  1.10553E+00  1.00420E+00  1.01329E-01
    9054.411     61.366   4.200  1.08557E+00  1.00506E+00  8.05183E-02
    9055.697     62.652   4.240  1.06540E+00  1.00588E+00  5.95193E-02
    9056.996     63.950   4.280  1.04641E+00  1.00669E+00  3.97208E-02
    9058.306     65.261   4.320  1.02913E+00  1.00747E+00  2.16655E-02
    9059.629     66.584   4.360  1.01377E+00  1.00823E+00  5.53338E-03
    9060.964     67.919   4.400  1.00046E+00  1.00896E+00 -8.50328E-03
    9062.311     69.266   4.440  9.89183E-01  1.00965E+00 -2.04686E-02
    9063.671     70.625   4.480  9.79527E-01  1.01030E+00 -3.07724E-02
    9065.042     71.997   4.520  9.70981E-01  1.01090E+00 -3.99235E-02
    9066.426     73.381   4.560  9.63352E-01  1.01147E+00 -4.81165E-02
    9067.822     74.777   4.600  9.56856E-01  1.01199E+00 -5.51333E-02
    9069.230     76.185   4.640  9.51979E-01  1.01247E+00 -6.04893E-02
    9070.651     77.605   4.680  9.48907E-01  1.01290E+00 -6.39954E-02
    9072.083     79.038   4.720  9.47411E-01  1.01329E+00 -6.58825E-02
    9073.528     80.483   4.760  9.47094E-01  1.01364E+00 -6.65432E-02
    9074.985     81.940   4.800  9.47661E-01  1.01391E+00 -6.62506E-02
    9076.454     83.409   4.840  9.49171E-01  1.01414E+00 -6.49687E-02
    9077.935     84.890   4.880  9.51933E-01  1.01432E+00 -6.23880E-02
    9079.429     86.384   4.920  9.56008E-01  1.01446E+00 -5.84484E-02
    9080.935     87.889   4.960  9.60980E-01  1.01452E+00 -5.35431E-02
    9082.453     89.407   5.000  9.65909E-01  1.01454E+00 -4.86322E-02
    9083.983     90.937   5.040  9.69672E-01  1.01452E+00 -4.48456E-02
    9085.525     92.479   5.080  9.71774E-01  1.01445E+00 -4.26736E-02
    9087.079     94.034   5.120  9.72848E-01  1.01433E+00 -4.14842E-02
    9088.646     95.601   5.160  9.74467E-01  1.01415E+00 -3.96845E-02
    9090.225     97.179   5.200  9.78440E-01  1.01395E+00 -3.55093E-02
    9091.816     98.771   5.240  9.85769E-01  1.01368E+00 -2.79138E-02
    9093.419    100.374   5.280  9.96170E-01  1.01340E+00 -1.72272E-02
    9095.035    101.989   5.320  1.00772E+00  1.01305E+00 -5.32584E-03
    9096.662    103.617   5.360  1.01754E+00  1.01269E+00  4.85469E-03
    9098.302    105.257   5.400  1.02275E+00  1.01228E+00  1.04666E-02
    9099.954    106.909   5.440  1.02182E+00  1.01185E+00  9.97408E-03
    9101.618    108.573   5.480  1.01499E+00  1.01140E+00  3.59441E-03
    9103.295    110.249   5.520  1.00384E+00  1.01091E+00 -7.07402E-03
    9104.983    111.938   5.560  9.90852E-01  1.01039E+00 -1.95397E-02
    9106.684    113.639   5.600  9.78888E-01  1.00986E+00 -3.09771E-02
    9108.397    115.352   5.640  9.70569E-01  1.00933E+00 -3.87623E-02
    9110.122    117.077   5.680  9.67725E-01  1.00877E+00 -4.10451E-02
    9111.860    118.814   5.720  9.71245E-01  1.00820E+00 -3.69572E-02
    9113.609    120.564   5.760  9.81138E-01  1.00763E+00 -2.64945E-02
    9115.371    122.325   5.800  9.96671E-01  1.00704E+00 -1.03666E-02
    9117.145    124.099   5.840  1.01650E+00  1.00647E+00  1.00380E-02
    9118.931    125.885   5.880  1.03867E+00  1.00588E+00  3.27907E-02
    9120.729    127.684   5.920  1.06087E+00  1.00529E+00  5.55730E-02
    9122.540    129.494   5.960  1.08020E+00  1.00475E+00  7.54489E-02
    9124.362    131.317   6.000  1.09299E+00  1.00420E+00  8.87925E-02
