# # comment:                                                     FEFF 9.9.1  
# # Source:
# # Structure
# # Reduced
# # space
# # abc:
# # angles:
# # sites:
# # POT  SCF 100  7.0000   0, screened core-hole, AFOLP (folp(0)= 1.150)
# # Abs   Z=29 Rmt= 1.258 Rnm= 1.330 K  shell
# # Pot 1 Z=19 Rmt= 1.825 Rnm= 1.857
# # Pot 2 Z=73 Rmt= 1.317 Rnm= 1.462
# # Pot 3 Z=29 Rmt= 1.288 Rnm= 1.358
# # Pot 4 Z= 8 Rmt= 1.005 Rnm= 1.083
# # Gam_ch=1.729E+00 H-L exch Vi= 0.000E+00 Vr= 0.000E+00
# # Mu=-6.483E+00eV kf=2.236E+00 Vint=-1.647E+01eV Rs_int= 1.622
# FMS rfms= 9.0000
# # PATH  Rmax=-1.000,  Keep_limit= 0.00, Heap_limit 0.00  Pwcrit= 2.50%
#  S02=0.950  Temp=   0.00  Debye_temp=   0.00  Global_sig2= 0.00000
#  Energy zero shift, vr, vi    0.00000E+00   0.00000E+00
#  Curved wave amplitude ratio filter   4.000%
#     file         sig2 tot  cw amp ratio   deg  nlegs   reff  inp sig2
#     0/   0 paths used
#  xsedge+ 50, used to normalize mu           2.4627E-04
#  -----------------------------------------------------------------------
#  omega    e    k    mu    mu0     chi     @#
    8983.660    -10.293  -1.000  4.85756E-02  5.61467E-02 -7.57113E-03
    8983.958     -9.994  -0.960  5.17015E-02  6.03068E-02 -8.60532E-03
    8984.245     -9.708  -0.920  5.51205E-02  6.49373E-02 -9.81678E-03
    8984.519     -9.434  -0.880  5.88678E-02  7.01081E-02 -1.12403E-02
    8984.781     -9.171  -0.840  6.29831E-02  7.59007E-02 -1.29177E-02
    8985.031     -8.921  -0.800  6.75106E-02  8.24098E-02 -1.48992E-02
    8985.269     -8.684  -0.760  7.24994E-02  8.97439E-02 -1.72445E-02
    8985.495     -8.458  -0.720  7.80027E-02  9.80259E-02 -2.00233E-02
    8985.708     -8.245  -0.680  8.40766E-02  1.07391E-01 -2.33147E-02
    8985.909     -8.044  -0.640  9.07777E-02  1.17983E-01 -2.72056E-02
    8986.098     -7.855  -0.600  9.81582E-02  1.29942E-01 -3.17843E-02
    8986.275     -7.678  -0.560  1.06259E-01  1.43389E-01 -3.71305E-02
    8986.439     -7.513  -0.520  1.15098E-01  1.58396E-01 -4.32980E-02
    8986.592     -7.361  -0.480  1.24658E-01  1.74949E-01 -5.02904E-02
    8986.732     -7.221  -0.440  1.34867E-01  1.92900E-01 -5.80336E-02
    8986.860     -7.093  -0.400  1.45584E-01  2.11937E-01 -6.63528E-02
    8986.976     -6.977  -0.360  1.56595E-01  2.31563E-01 -7.49680E-02
    8987.080     -6.873  -0.320  1.67616E-01  2.51137E-01 -8.35201E-02
    8987.171     -6.782  -0.280  1.78317E-01  2.69943E-01 -9.16256E-02
    8987.250     -6.703  -0.240  1.88353E-01  2.87296E-01 -9.89438E-02
    8987.317     -6.635  -0.200  1.97398E-01  3.02626E-01 -1.05228E-01
    8987.372     -6.581  -0.160  2.05173E-01  3.15514E-01 -1.10341E-01
    8987.415     -6.538  -0.120  2.11455E-01  3.25696E-01 -1.14242E-01
    8987.445     -6.507  -0.080  2.16079E-01  3.33028E-01 -1.16950E-01
    8987.470     -6.483   0.000  2.19906E-01  3.38916E-01 -1.19010E-01
    8987.525     -6.428   0.120  2.28363E-01  3.52184E-01 -1.23820E-01
    8987.567     -6.386   0.160  2.35076E-01  3.62499E-01 -1.27424E-01
    8987.622     -6.331   0.200  2.43817E-01  3.75627E-01 -1.31810E-01
    8987.689     -6.264   0.240  2.54724E-01  3.91418E-01 -1.36693E-01
    8987.768     -6.184   0.280  2.67819E-01  4.09519E-01 -1.41700E-01
    8987.860     -6.093   0.320  2.83047E-01  4.29431E-01 -1.46384E-01
    8987.963     -5.989   0.360  3.00285E-01  4.50575E-01 -1.50290E-01
    8988.079     -5.873   0.400  3.19240E-01  4.72299E-01 -1.53059E-01
    8988.207     -5.745   0.440  3.39581E-01  4.94008E-01 -1.54427E-01
    8988.347     -5.605   0.480  3.61115E-01  5.15252E-01 -1.54137E-01
    8988.500     -5.453   0.520  3.84109E-01  5.35749E-01 -1.51640E-01
    8988.664     -5.288   0.560  4.09378E-01  5.55328E-01 -1.45950E-01
    8988.841     -5.111   0.600  4.38436E-01  5.74017E-01 -1.35581E-01
    8989.030     -4.922   0.640  4.73204E-01  5.91799E-01 -1.18595E-01
    8989.231     -4.721   0.680  5.15909E-01  6.08819E-01 -9.29095E-02
    8989.445     -4.508   0.720  5.67659E-01  6.25158E-01 -5.74987E-02
    8989.670     -4.282   0.760  6.25643E-01  6.40935E-01 -1.52916E-02
    8989.908     -4.045   0.800  6.79170E-01  6.56240E-01  2.29297E-02
    8990.158     -3.795   0.840  7.10478E-01  6.71128E-01  3.93505E-02
    8990.420     -3.533   0.880  7.07776E-01  6.85680E-01  2.20963E-02
    8990.694     -3.258   0.920  6.79033E-01  6.99944E-01 -2.09111E-02
    8990.981     -2.972   0.960  6.43944E-01  7.13951E-01 -7.00075E-02
    8991.280     -2.673   1.000  6.16631E-01  7.27744E-01 -1.11113E-01
    8991.591     -2.362   1.040  6.01930E-01  7.41295E-01 -1.39364E-01
    8991.914     -2.039   1.080  5.99834E-01  7.54648E-01 -1.54814E-01
    8992.249     -1.704   1.120  6.06885E-01  7.67760E-01 -1.60874E-01
    8992.596     -1.356   1.160  6.16509E-01  7.80663E-01 -1.64154E-01
    8992.956     -0.997   1.200  6.27001E-01  7.93345E-01 -1.66344E-01
    8993.328     -0.625   1.240  6.44677E-01  8.05769E-01 -1.61092E-01
    8993.712     -0.241   1.280  6.72481E-01  8.17914E-01 -1.45432E-01
    8994.108      0.155   1.320  7.03326E-01  8.29782E-01 -1.26456E-01
    8994.517      0.564   1.360  7.26250E-01  8.41349E-01 -1.15099E-01
    8994.937      0.985   1.400  7.38958E-01  8.52591E-01 -1.13633E-01
    8995.370      1.417   1.440  7.57744E-01  8.63504E-01 -1.05761E-01
    8995.815      1.862   1.480  8.00698E-01  8.74045E-01 -7.33469E-02
    8996.272      2.320   1.520  8.66547E-01  8.84207E-01 -1.76596E-02
    8996.742      2.789   1.560  9.48195E-01  8.93988E-01  5.42075E-02
    8997.223      3.271   1.600  1.00911E+00  9.03385E-01  1.05722E-01
    8997.717      3.764   1.640  1.00238E+00  9.12353E-01  9.00233E-02
    8998.223      4.270   1.680  9.70637E-01  9.20911E-01  4.97266E-02
    8998.741      4.788   1.720  9.74007E-01  9.29038E-01  4.49696E-02
    8999.271      5.319   1.760  1.01476E+00  9.36731E-01  7.80307E-02
    8999.814      5.861   1.800  1.06913E+00  9.44013E-01  1.25120E-01
    9000.369      6.416   1.840  1.12216E+00  9.50842E-01  1.71319E-01
    9000.936      6.983   1.880  1.16561E+00  9.57242E-01  2.08366E-01
    9001.515      7.562   1.920  1.19342E+00  9.63216E-01  2.30200E-01
    9002.106      8.153   1.960  1.20579E+00  9.68747E-01  2.37039E-01
    9002.710      8.757   2.000  1.20707E+00  9.73899E-01  2.33173E-01
    9003.325      9.373   2.040  1.19817E+00  9.78618E-01  2.19551E-01
    9003.953     10.000   2.080  1.17966E+00  9.82950E-01  1.96707E-01
    9004.593     10.641   2.120  1.16319E+00  9.86902E-01  1.76291E-01
    9005.246     11.293   2.160  1.16863E+00  9.90478E-01  1.78148E-01
    9005.910     11.957   2.200  1.20068E+00  9.93688E-01  2.06995E-01
    9006.587     12.634   2.240  1.24486E+00  9.96558E-01  2.48307E-01
    9007.275     13.323   2.280  1.28688E+00  9.99098E-01  2.87781E-01
    9007.977     14.024   2.320  1.32452E+00  1.00133E+00  3.23182E-01
    9008.690     14.737   2.360  1.35257E+00  1.00328E+00  3.49289E-01
    9009.415     15.462   2.400  1.35483E+00  1.00494E+00  3.49891E-01
    9010.153     16.200   2.440  1.31991E+00  1.00632E+00  3.13591E-01
    9010.903     16.950   2.480  1.24963E+00  1.00747E+00  2.42165E-01
    9011.665     17.712   2.520  1.15488E+00  1.00838E+00  1.46503E-01
    9012.439     18.486   2.560  1.05708E+00  1.00908E+00  4.80010E-02
    9013.225     19.272   2.600  9.77342E-01  1.00957E+00 -3.22296E-02
    9014.024     20.071   2.640  9.21193E-01  1.00987E+00 -8.86766E-02
    9014.834     20.882   2.680  8.88317E-01  1.01002E+00 -1.21705E-01
    9015.657     21.705   2.720  8.71347E-01  1.01002E+00 -1.38668E-01
    9016.493     22.540   2.760  8.62688E-01  1.00988E+00 -1.47187E-01
    9017.340     23.387   2.800  8.57106E-01  1.00959E+00 -1.52484E-01
    9018.199     24.247   2.840  8.52789E-01  1.00921E+00 -1.56418E-01
    9019.071     25.118   2.880  8.49890E-01  1.00873E+00 -1.58845E-01
    9019.955     26.002   2.920  8.48309E-01  1.00818E+00 -1.59869E-01
    9020.851     26.898   2.960  8.47642E-01  1.00754E+00 -1.59900E-01
    9021.760     27.807   3.000  8.47575E-01  1.00685E+00 -1.59278E-01
    9022.680     28.727   3.040  8.47636E-01  1.00610E+00 -1.58461E-01
    9023.613     29.660   3.080  8.47713E-01  1.00532E+00 -1.57607E-01
    9024.558     30.605   3.120  8.48105E-01  1.00448E+00 -1.56379E-01
    9025.515     31.562   3.160  8.49318E-01  1.00366E+00 -1.54338E-01
    9026.484     32.531   3.200  8.52063E-01  1.00280E+00 -1.50736E-01
    9027.465     33.513   3.240  8.57405E-01  1.00194E+00 -1.44532E-01
    9028.459     34.506   3.280  8.66110E-01  1.00105E+00 -1.34943E-01
    9029.465     35.512   3.320  8.78666E-01  1.00021E+00 -1.21546E-01
    9030.483     36.530   3.360  8.95178E-01  9.99357E-01 -1.04179E-01
    9031.513     37.560   3.400  9.15324E-01  9.98532E-01 -8.32081E-02
    9032.555     38.603   3.440  9.37999E-01  9.97740E-01 -5.97414E-02
    9033.610     39.657   3.480  9.61827E-01  9.96982E-01 -3.51546E-02
    9034.677     40.724   3.520  9.85062E-01  9.96238E-01 -1.11758E-02
    9035.756     41.803   3.560  1.00564E+00  9.95552E-01  1.00924E-02
    9036.847     42.894   3.600  1.02177E+00  9.94886E-01  2.68795E-02
    9037.950     43.998   3.640  1.03254E+00  9.94259E-01  3.82854E-02
    9039.066     45.113   3.680  1.03804E+00  9.93695E-01  4.43484E-02
    9040.194     46.241   3.720  1.03924E+00  9.93175E-01  4.60627E-02
    9041.334     47.381   3.760  1.03766E+00  9.92698E-01  4.49629E-02
    9042.486     48.533   3.800  1.03486E+00  9.92266E-01  4.25906E-02
    9043.650     49.697   3.840  1.03200E+00  9.91900E-01  4.01017E-02
    9044.827     50.874   3.880  1.02973E+00  9.91578E-01  3.81493E-02
    9046.015     52.063   3.920  1.02828E+00  9.91301E-01  3.69810E-02
    9047.216     53.264   3.960  1.02761E+00  9.91091E-01  3.65212E-02
    9048.429     54.477   4.000  1.02745E+00  9.90905E-01  3.65481E-02
    9049.655     55.702   4.040  1.02768E+00  9.90804E-01  3.68773E-02
    9050.892     56.939   4.080  1.02807E+00  9.90727E-01  3.73397E-02
    9052.142     58.189   4.120  1.02858E+00  9.90693E-01  3.78873E-02
    9053.404     59.451   4.160  1.02931E+00  9.90723E-01  3.85911E-02
    9054.678     60.725   4.200  1.03035E+00  9.90797E-01  3.95514E-02
    9055.964     62.011   4.240  1.03177E+00  9.90912E-01  4.08596E-02
    9057.262     63.310   4.280  1.03368E+00  9.91067E-01  4.26088E-02
    9058.573     64.620   4.320  1.03616E+00  9.91262E-01  4.48993E-02
    9059.896     65.943   4.360  1.03923E+00  9.91496E-01  4.77338E-02
    9061.231     67.278   4.400  1.04267E+00  9.91767E-01  5.09056E-02
    9062.578     68.625   4.440  1.04621E+00  9.92073E-01  5.41343E-02
    9063.938     69.985   4.480  1.04968E+00  9.92392E-01  5.72889E-02
    9065.309     71.356   4.520  1.05321E+00  9.92745E-01  6.04618E-02
    9066.693     72.740   4.560  1.05681E+00  9.93130E-01  6.36780E-02
    9068.089     74.136   4.600  1.05996E+00  9.93526E-01  6.64372E-02
    9069.497     75.544   4.640  1.06155E+00  9.93951E-01  6.76030E-02
    9070.917     76.965   4.680  1.06012E+00  9.94383E-01  6.57336E-02
    9072.350     78.397   4.720  1.05450E+00  9.94840E-01  5.96560E-02
    9073.795     79.842   4.760  1.04433E+00  9.95280E-01  4.90541E-02
    9075.252     81.299   4.800  1.03050E+00  9.95743E-01  3.47551E-02
    9076.721     82.768   4.840  1.01456E+00  9.96207E-01  1.83563E-02
    9078.202     84.249   4.880  9.98250E-01  9.96671E-01  1.57859E-03
    9079.696     85.743   4.920  9.82905E-01  9.97133E-01 -1.42279E-02
    9081.201     87.249   4.960  9.69334E-01  9.97591E-01 -2.82571E-02
    9082.719     88.767   5.000  9.57864E-01  9.98021E-01 -4.01570E-02
    9084.249     90.297   5.040  9.48491E-01  9.98444E-01 -4.99524E-02
    9085.792     91.839   5.080  9.40900E-01  9.98860E-01 -5.79596E-02
    9087.346     93.393   5.120  9.34574E-01  9.99247E-01 -6.46725E-02
    9088.913     94.960   5.160  9.29134E-01  9.99624E-01 -7.04898E-02
    9090.492     96.539   5.200  9.24593E-01  9.99989E-01 -7.53958E-02
    9092.083     98.130   5.240  9.21316E-01  1.00030E+00 -7.89830E-02
    9093.686     99.733   5.280  9.19946E-01  1.00060E+00 -8.06500E-02
    9095.301    101.349   5.320  9.21006E-01  1.00088E+00 -7.98735E-02
    9096.929    102.976   5.360  9.24839E-01  1.00110E+00 -7.62653E-02
    9098.569    104.616   5.400  9.31715E-01  1.00132E+00 -6.95999E-02
    9100.221    106.268   5.440  9.41583E-01  1.00149E+00 -5.99062E-02
    9101.885    107.932   5.480  9.54025E-01  1.00165E+00 -4.76224E-02
    9103.561    109.609   5.520  9.68136E-01  1.00174E+00 -3.36083E-02
    9105.250    111.297   5.560  9.82879E-01  1.00180E+00 -1.89214E-02
    9106.951    112.998   5.600  9.97389E-01  1.00184E+00 -4.45039E-03
    9108.664    114.711   5.640  1.01098E+00  1.00182E+00  9.16326E-03
    9110.389    116.436   5.680  1.02314E+00  1.00178E+00  2.13589E-02
    9112.126    118.174   5.720  1.03315E+00  1.00170E+00  3.14469E-02
    9113.876    119.923   5.760  1.04015E+00  1.00156E+00  3.85878E-02
    9115.638    121.685   5.800  1.04333E+00  1.00141E+00  4.19229E-02
    9117.411    123.459   5.840  1.04201E+00  1.00121E+00  4.07956E-02
    9119.198    125.245   5.880  1.03599E+00  1.00098E+00  3.50069E-02
    9120.996    127.043   5.920  1.02585E+00  1.00072E+00  2.51305E-02
    9122.806    128.854   5.960  1.01316E+00  1.00041E+00  1.27506E-02
    9124.629    130.676   6.000  9.99955E-01  1.00005E+00 -9.24805E-05
