# # comment:                                                     FEFF 9.9.1  
# # Source:
# # Structure
# # Reduced
# # space
# # abc:
# # angles:
# # sites:
# # POT  SCF 100  7.0000   0, screened core-hole, AFOLP (folp(0)= 1.150)
# # Abs   Z=29 Rmt= 1.218 Rnm= 1.307 K  shell
# # Pot 1 Z=38 Rmt= 1.787 Rnm= 1.842
# # Pot 2 Z=29 Rmt= 1.218 Rnm= 1.307
# # Pot 3 Z= 8 Rmt= 1.074 Rnm= 1.124
# # Gam_ch=1.729E+00 H-L exch Vi= 0.000E+00 Vr= 0.000E+00
# # Mu=-8.778E+00eV kf=1.973E+00 Vint=-1.714E+01eV Rs_int= 1.838
# FMS rfms= 9.0000
# # PATH  Rmax=-1.000,  Keep_limit= 0.00, Heap_limit 0.00  Pwcrit= 2.50%
#  S02=0.950  Temp=   0.00  Debye_temp=   0.00  Global_sig2= 0.00000
#  Energy zero shift, vr, vi    0.00000E+00   0.00000E+00
#  Curved wave amplitude ratio filter   4.000%
#     file         sig2 tot  cw amp ratio   deg  nlegs   reff  inp sig2
#     0/   0 paths used
#  xsedge+ 50, used to normalize mu           2.4409E-04
#  -----------------------------------------------------------------------
#  omega    e    k    mu    mu0     chi     @#
    8984.860    -12.588  -1.000  4.31509E-02  5.82392E-02 -1.50883E-02
    8985.158    -12.289  -0.960  4.58449E-02  6.25534E-02 -1.67085E-02
    8985.445    -12.003  -0.920  4.88246E-02  6.73517E-02 -1.85271E-02
    8985.719    -11.728  -0.880  5.21354E-02  7.27055E-02 -2.05702E-02
    8985.981    -11.466  -0.840  5.58305E-02  7.86980E-02 -2.28675E-02
    8986.231    -11.216  -0.800  5.99727E-02  8.54254E-02 -2.54527E-02
    8986.469    -10.978  -0.760  6.46348E-02  9.29982E-02 -2.83634E-02
    8986.695    -10.753  -0.720  6.99003E-02  1.01541E-01 -3.16409E-02
    8986.908    -10.540  -0.680  7.58620E-02  1.11192E-01 -3.53296E-02
    8987.109    -10.338  -0.640  8.26198E-02  1.22095E-01 -3.94749E-02
    8987.298    -10.149  -0.600  9.02733E-02  1.34393E-01 -4.41194E-02
    8987.475     -9.973  -0.560  9.89115E-02  1.48207E-01 -4.92958E-02
    8987.639     -9.808  -0.520  1.08594E-01  1.63611E-01 -5.50168E-02
    8987.792     -9.656  -0.480  1.19327E-01  1.80588E-01 -6.12602E-02
    8987.932     -9.515  -0.440  1.31035E-01  1.98988E-01 -6.79533E-02
    8988.060     -9.387  -0.400  1.43533E-01  2.18493E-01 -7.49598E-02
    8988.176     -9.272  -0.360  1.56518E-01  2.38597E-01 -8.20787E-02
    8988.280     -9.168  -0.320  1.69585E-01  2.58647E-01 -8.90616E-02
    8988.371     -9.077  -0.280  1.82268E-01  2.77916E-01 -9.56476E-02
    8988.450     -8.997  -0.240  1.94100E-01  2.95704E-01 -1.01604E-01
    8988.517     -8.930  -0.200  2.04668E-01  3.11426E-01 -1.06758E-01
    8988.572     -8.875  -0.160  2.13649E-01  3.24653E-01 -1.11004E-01
    8988.615     -8.833  -0.120  2.20816E-01  3.35109E-01 -1.14293E-01
    8988.645     -8.802  -0.080  2.26024E-01  3.42643E-01 -1.16618E-01
    8988.670     -8.778   0.000  2.30254E-01  3.48696E-01 -1.18442E-01
    8988.725     -8.723   0.120  2.39570E-01  3.62344E-01 -1.22774E-01
    8988.767     -8.680   0.160  2.46880E-01  3.72944E-01 -1.26063E-01
    8988.822     -8.625   0.200  2.56290E-01  3.86502E-01 -1.30213E-01
    8988.889     -8.558   0.240  2.67630E-01  4.02798E-01 -1.35169E-01
    8988.968     -8.479   0.280  2.80581E-01  4.21509E-01 -1.40928E-01
    8989.060     -8.388   0.320  2.94592E-01  4.42185E-01 -1.47593E-01
    8989.163     -8.284   0.360  3.08661E-01  4.64195E-01 -1.55534E-01
    8989.279     -8.168   0.400  3.21341E-01  4.86915E-01 -1.65574E-01
    8989.407     -8.040   0.440  3.30785E-01  5.09751E-01 -1.78967E-01
    8989.548     -7.900   0.480  3.35131E-01  5.32281E-01 -1.97150E-01
    8989.700     -7.748   0.520  3.33184E-01  5.54158E-01 -2.20974E-01
    8989.865     -7.583   0.560  3.25225E-01  5.75272E-01 -2.50047E-01
    8990.041     -7.406   0.600  3.13048E-01  5.95584E-01 -2.82536E-01
    8990.230     -7.217   0.640  2.99116E-01  6.15091E-01 -3.15976E-01
    8990.431     -7.016   0.680  2.85680E-01  6.33934E-01 -3.48254E-01
    8990.645     -6.803   0.720  2.74080E-01  6.52142E-01 -3.78062E-01
    8990.870     -6.577   0.760  2.65049E-01  6.69848E-01 -4.04799E-01
    8991.108     -6.339   0.800  2.59024E-01  6.87110E-01 -4.28085E-01
    8991.358     -6.090   0.840  2.56548E-01  7.03974E-01 -4.47426E-01
    8991.620     -5.827   0.880  2.58455E-01  7.20511E-01 -4.62056E-01
    8991.894     -5.553   0.920  2.65739E-01  7.36736E-01 -4.70997E-01
    8992.181     -5.267   0.960  2.79333E-01  7.52673E-01 -4.73340E-01
    8992.480     -4.968   1.000  2.99931E-01  7.68312E-01 -4.68382E-01
    8992.791     -4.657   1.040  3.27704E-01  7.83636E-01 -4.55932E-01
    8993.114     -4.334   1.080  3.62204E-01  7.98679E-01 -4.36475E-01
    8993.449     -3.999   1.120  4.02316E-01  8.13367E-01 -4.11052E-01
    8993.796     -3.651   1.160  4.46875E-01  8.27727E-01 -3.80852E-01
    8994.156     -3.291   1.200  4.96539E-01  8.41695E-01 -3.45156E-01
    8994.528     -2.920   1.240  5.55478E-01  8.55249E-01 -2.99771E-01
    8994.912     -2.536   1.280  6.20856E-01  8.68384E-01 -2.47528E-01
    8995.308     -2.139   1.320  6.73404E-01  8.81075E-01 -2.07671E-01
    8995.717     -1.731   1.360  7.03504E-01  8.93254E-01 -1.89749E-01
    8996.137     -1.310   1.400  7.36395E-01  9.04936E-01 -1.68541E-01
    8996.570     -0.877   1.440  7.96114E-01  9.16095E-01 -1.19981E-01
    8997.015     -0.432   1.480  8.67281E-01  9.26706E-01 -5.94246E-02
    8997.472      0.025   1.520  9.20654E-01  9.36765E-01 -1.61106E-02
    8997.942      0.494   1.560  9.52239E-01  9.46249E-01  5.98987E-03
    8998.423      0.976   1.600  9.70316E-01  9.55160E-01  1.51562E-02
    8998.917      1.470   1.640  9.98900E-01  9.63495E-01  3.54046E-02
    8999.423      1.975   1.680  1.07589E+00  9.71237E-01  1.04650E-01
    8999.941      2.494   1.720  1.23087E+00  9.78408E-01  2.52461E-01
    9000.471      3.024   1.760  1.44610E+00  9.85015E-01  4.61088E-01
    9001.014      3.567   1.800  1.59023E+00  9.91062E-01  5.99169E-01
    9001.569      4.121   1.840  1.55647E+00  9.96538E-01  5.59927E-01
    9002.136      4.688   1.880  1.46312E+00  1.00149E+00  4.61633E-01
    9002.715      5.267   1.920  1.39920E+00  1.00593E+00  3.93270E-01
    9003.306      5.859   1.960  1.35873E+00  1.00986E+00  3.48863E-01
    9003.910      6.462   2.000  1.32950E+00  1.01333E+00  3.16170E-01
    9004.525      7.078   2.040  1.30062E+00  1.01631E+00  2.84309E-01
    9005.153      7.706   2.080  1.25899E+00  1.01888E+00  2.40104E-01
    9005.793      8.346   2.120  1.20536E+00  1.02102E+00  1.84344E-01
    9006.446      8.998   2.160  1.15723E+00  1.02279E+00  1.34438E-01
    9007.110      9.662   2.200  1.13101E+00  1.02420E+00  1.06814E-01
    9007.787     10.339   2.240  1.13116E+00  1.02524E+00  1.05920E-01
    9008.476     11.028   2.280  1.14781E+00  1.02598E+00  1.21830E-01
    9009.177     11.729   2.320  1.16264E+00  1.02645E+00  1.36188E-01
    9009.890     12.442   2.360  1.16538E+00  1.02664E+00  1.38740E-01
    9010.615     13.168   2.400  1.15319E+00  1.02658E+00  1.26604E-01
    9011.353     13.905   2.440  1.13055E+00  1.02631E+00  1.04238E-01
    9012.103     14.655   2.480  1.10908E+00  1.02583E+00  8.32488E-02
    9012.865     15.417   2.520  1.09541E+00  1.02521E+00  7.02037E-02
    9013.639     16.191   2.560  1.08742E+00  1.02440E+00  6.30266E-02
    9014.425     16.978   2.600  1.07909E+00  1.02345E+00  5.56410E-02
    9015.224     17.776   2.640  1.06410E+00  1.02241E+00  4.16914E-02
    9016.035     18.587   2.680  1.03884E+00  1.02125E+00  1.75926E-02
    9016.857     19.410   2.720  1.00439E+00  1.02001E+00 -1.56146E-02
    9017.693     20.245   2.760  9.65321E-01  1.01871E+00 -5.33865E-02
    9018.540     21.092   2.800  9.26187E-01  1.01734E+00 -9.11550E-02
    9019.399     21.952   2.840  8.90972E-01  1.01595E+00 -1.24982E-01
    9020.271     22.824   2.880  8.62424E-01  1.01453E+00 -1.52109E-01
    9021.155     23.708   2.920  8.42204E-01  1.01310E+00 -1.70899E-01
    9022.051     24.604   2.960  8.30974E-01  1.01167E+00 -1.80698E-01
    9022.960     25.512   3.000  8.28592E-01  1.01024E+00 -1.81651E-01
    9023.880     26.433   3.040  8.34206E-01  1.00884E+00 -1.74636E-01
    9024.813     27.365   3.080  8.46493E-01  1.00745E+00 -1.60960E-01
    9025.758     28.310   3.120  8.63663E-01  1.00610E+00 -1.42438E-01
    9026.715     29.267   3.160  8.83306E-01  1.00481E+00 -1.21505E-01
    9027.684     30.236   3.200  9.02658E-01  1.00354E+00 -1.00887E-01
    9028.665     31.218   3.240  9.19222E-01  1.00234E+00 -8.31226E-02
    9029.659     32.212   3.280  9.31330E-01  1.00122E+00 -6.98848E-02
    9030.665     33.217   3.320  9.39040E-01  1.00014E+00 -6.10993E-02
    9031.683     34.235   3.360  9.43788E-01  9.99138E-01 -5.53495E-02
    9032.713     35.266   3.400  9.47214E-01  9.98212E-01 -5.09980E-02
    9033.756     36.308   3.440  9.50396E-01  9.97363E-01 -4.69670E-02
    9034.810     37.363   3.480  9.53953E-01  9.96571E-01 -4.26174E-02
    9035.877     38.429   3.520  9.58020E-01  9.95858E-01 -3.78384E-02
    9036.956     39.508   3.560  9.62073E-01  9.95247E-01 -3.31742E-02
    9038.047     40.600   3.600  9.65354E-01  9.94695E-01 -2.93418E-02
    9039.150     41.703   3.640  9.67633E-01  9.94246E-01 -2.66133E-02
    9040.266     42.818   3.680  9.69257E-01  9.93857E-01 -2.45995E-02
    9041.394     43.946   3.720  9.70826E-01  9.93568E-01 -2.27420E-02
    9042.534     45.086   3.760  9.72762E-01  9.93339E-01 -2.05773E-02
    9043.686     46.238   3.800  9.75361E-01  9.93211E-01 -1.78500E-02
    9044.850     47.403   3.840  9.78794E-01  9.93139E-01 -1.43451E-02
    9046.027     48.579   3.880  9.83321E-01  9.93144E-01 -9.82295E-03
    9047.215     49.768   3.920  9.89305E-01  9.93227E-01 -3.92200E-03
    9048.416     50.969   3.960  9.97041E-01  9.93387E-01  3.65358E-03
    9049.629     52.182   4.000  1.00659E+00  9.93599E-01  1.29889E-02
    9050.855     53.407   4.040  1.01752E+00  9.93884E-01  2.36394E-02
    9052.092     54.645   4.080  1.02908E+00  9.94242E-01  3.48375E-02
    9053.342     55.894   4.120  1.04056E+00  9.94647E-01  4.59088E-02
    9054.604     57.156   4.160  1.05154E+00  9.95096E-01  5.64485E-02
    9055.878     58.430   4.200  1.06176E+00  9.95592E-01  6.61719E-02
    9057.164     59.717   4.240  1.07107E+00  9.96152E-01  7.49185E-02
    9058.463     61.015   4.280  1.07953E+00  9.96756E-01  8.27777E-02
    9059.773     62.326   4.320  1.08748E+00  9.97399E-01  9.00858E-02
    9061.096     63.648   4.360  1.09494E+00  9.98056E-01  9.68845E-02
    9062.431     64.983   4.400  1.10123E+00  9.98769E-01  1.02461E-01
    9063.778     66.331   4.440  1.10489E+00  9.99495E-01  1.05399E-01
    9065.138     67.690   4.480  1.10452E+00  1.00023E+00  1.04288E-01
    9066.509     69.062   4.520  1.09942E+00  1.00099E+00  9.84284E-02
    9067.893     70.445   4.560  1.09006E+00  1.00176E+00  8.83064E-02
    9069.289     71.841   4.600  1.07777E+00  1.00255E+00  7.52172E-02
    9070.697     73.250   4.640  1.06414E+00  1.00332E+00  6.08210E-02
    9072.117     74.670   4.680  1.05044E+00  1.00411E+00  4.63255E-02
    9073.550     76.103   4.720  1.03685E+00  1.00488E+00  3.19676E-02
    9074.995     77.547   4.760  1.02287E+00  1.00564E+00  1.72267E-02
    9076.452     79.004   4.800  1.00805E+00  1.00640E+00  1.65065E-03
    9077.921     80.473   4.840  9.92491E-01  1.00712E+00 -1.46276E-02
    9079.402     81.955   4.880  9.77025E-01  1.00783E+00 -3.08051E-02
    9080.896     83.448   4.920  9.62977E-01  1.00851E+00 -4.55309E-02
    9082.401     84.954   4.960  9.52159E-01  1.00917E+00 -5.70119E-02
    9083.919     86.472   5.000  9.46501E-01  1.00977E+00 -6.32727E-02
    9085.449     88.002   5.040  9.47533E-01  1.01036E+00 -6.28249E-02
    9086.992     89.544   5.080  9.55530E-01  1.01090E+00 -5.53724E-02
    9088.546     91.099   5.120  9.69027E-01  1.01138E+00 -4.23549E-02
    9090.113     92.665   5.160  9.85262E-01  1.01184E+00 -2.65785E-02
    9091.692     94.244   5.200  1.00103E+00  1.01226E+00 -1.12310E-02
    9093.283     95.835   5.240  1.01349E+00  1.01260E+00  8.86251E-04
    9094.886     97.438   5.280  1.02055E+00  1.01290E+00  7.64328E-03
    9096.501     99.054   5.320  1.02087E+00  1.01316E+00  7.70718E-03
    9098.129    100.681   5.360  1.01423E+00  1.01335E+00  8.82840E-04
    9099.769    102.321   5.400  1.00181E+00  1.01351E+00 -1.16947E-02
    9101.421    103.973   5.440  9.85929E-01  1.01360E+00 -2.76712E-02
    9103.085    105.638   5.480  9.69681E-01  1.01362E+00 -4.39379E-02
    9104.761    107.314   5.520  9.56244E-01  1.01359E+00 -5.73480E-02
    9106.450    109.002   5.560  9.47894E-01  1.01352E+00 -6.56258E-02
    9108.151    110.703   5.600  9.45451E-01  1.01340E+00 -6.79489E-02
    9109.864    112.416   5.640  9.48199E-01  1.01321E+00 -6.50127E-02
    9111.589    114.141   5.680  9.54502E-01  1.01298E+00 -5.84765E-02
    9113.326    115.879   5.720  9.62341E-01  1.01270E+00 -5.03611E-02
    9115.076    117.628   5.760  9.69544E-01  1.01238E+00 -4.28369E-02
    9116.838    119.390   5.800  9.73910E-01  1.01200E+00 -3.80856E-02
    9118.611    121.164   5.840  9.74430E-01  1.01159E+00 -3.71626E-02
    9120.398    122.950   5.880  9.72575E-01  1.01113E+00 -3.85518E-02
    9122.196    124.748   5.920  9.72223E-01  1.01063E+00 -3.84030E-02
    9124.006    126.559   5.960  9.77175E-01  1.01012E+00 -3.29421E-02
    9125.829    128.382   6.000  9.90019E-01  1.00951E+00 -1.94944E-02
