# # comment:                                                     FEFF 9.9.1  
# # Source:
# # Structure
# # Reduced
# # space
# # abc:
# # angles:
# # sites:
# # POT  SCF 100  7.0000   0, screened core-hole, AFOLP (folp(0)= 1.150)
# # Abs   Z=29 Rmt= 1.318 Rnm= 1.382 K  shell
# # Pot 1 Z= 3 Rmt= 1.324 Rnm= 1.378
# # Pot 2 Z=29 Rmt= 1.318 Rnm= 1.382
# # Pot 3 Z= 6 Rmt= 0.717 Rnm= 0.928
# # Pot 4 Z= 8 Rmt= 0.873 Rnm= 1.012
# # Gam_ch=1.729E+00 H-L exch Vi= 0.000E+00 Vr= 0.000E+00
# # Mu=-7.087E+00eV kf=2.541E+00 Vint=-1.821E+01eV Rs_int= 1.427
# FMS rfms= 9.0000
# # PATH  Rmax=-1.000,  Keep_limit= 0.00, Heap_limit 0.00  Pwcrit= 2.50%
#  S02=0.950  Temp=   0.00  Debye_temp=   0.00  Global_sig2= 0.00000
#  Energy zero shift, vr, vi    0.00000E+00   0.00000E+00
#  Curved wave amplitude ratio filter   4.000%
#     file         sig2 tot  cw amp ratio   deg  nlegs   reff  inp sig2
#     0/   0 paths used
#  xsedge+ 50, used to normalize mu           2.4705E-04
#  -----------------------------------------------------------------------
#  omega    e    k    mu    mu0     chi     @#
    8983.809    -10.897  -1.000  5.63079E-02  5.39291E-02  2.37883E-03
    8984.108    -10.598  -0.960  6.07281E-02  5.78502E-02  2.87782E-03
    8984.395    -10.312  -0.920  6.57059E-02  6.22098E-02  3.49608E-03
    8984.669    -10.037  -0.880  7.13352E-02  6.70727E-02  4.26255E-03
    8984.931     -9.775  -0.840  7.77273E-02  7.25146E-02  5.21277E-03
    8985.181     -9.525  -0.800  8.50133E-02  7.86233E-02  6.39002E-03
    8985.419     -9.288  -0.760  9.33460E-02  8.54996E-02  7.84635E-03
    8985.644     -9.062  -0.720  1.02901E-01  9.32576E-02  9.64330E-03
    8985.858     -8.849  -0.680  1.13875E-01  1.02023E-01  1.18519E-02
    8986.059     -8.648  -0.640  1.26480E-01  1.11929E-01  1.45513E-02
    8986.248     -8.459  -0.600  1.40930E-01  1.23105E-01  1.78253E-02
    8986.425     -8.282  -0.560  1.57419E-01  1.35664E-01  2.17557E-02
    8986.589     -8.117  -0.520  1.76083E-01  1.49672E-01  2.64109E-02
    8986.742     -7.965  -0.480  1.96946E-01  1.65115E-01  3.18308E-02
    8986.882     -7.825  -0.440  2.19864E-01  1.81857E-01  3.80069E-02
    8987.010     -7.697  -0.400  2.44467E-01  1.99605E-01  4.48618E-02
    8987.126     -7.581  -0.360  2.70133E-01  2.17899E-01  5.22340E-02
    8987.229     -7.477  -0.320  2.96016E-01  2.36140E-01  5.98762E-02
    8987.321     -7.386  -0.280  3.21137E-01  2.53664E-01  6.74735E-02
    8987.400     -7.306  -0.240  3.44515E-01  2.69833E-01  7.46817E-02
    8987.467     -7.239  -0.200  3.65294E-01  2.84116E-01  8.11777E-02
    8987.522     -7.185  -0.160  3.82831E-01  2.96125E-01  8.67062E-02
    8987.564     -7.142  -0.120  3.96719E-01  3.05613E-01  9.11059E-02
    8987.595     -7.111  -0.080  4.06743E-01  3.12446E-01  9.42969E-02
    8987.619     -7.087   0.000  4.14829E-01  3.17934E-01  9.68949E-02
    8987.674     -7.032   0.120  4.31827E-01  3.30304E-01  1.01523E-01
    8987.717     -6.989   0.160  4.45120E-01  3.39913E-01  1.05207E-01
    8987.772     -6.935   0.200  4.61838E-01  3.52146E-01  1.09692E-01
    8987.839     -6.868   0.240  4.81445E-01  3.66867E-01  1.14578E-01
    8987.918     -6.788   0.280  5.02856E-01  3.83724E-01  1.19132E-01
    8988.009     -6.697   0.320  5.24490E-01  4.02313E-01  1.22177E-01
    8988.113     -6.593   0.360  5.44096E-01  4.22016E-01  1.22081E-01
    8988.229     -6.477   0.400  5.59249E-01  4.42285E-01  1.16964E-01
    8988.357     -6.349   0.440  5.67798E-01  4.62586E-01  1.05212E-01
    8988.497     -6.209   0.480  5.68577E-01  4.82443E-01  8.61336E-02
    8988.650     -6.057   0.520  5.62039E-01  5.01657E-01  6.03827E-02
    8988.814     -5.892   0.560  5.49852E-01  5.20047E-01  2.98055E-02
    8988.991     -5.715   0.600  5.34459E-01  5.37646E-01 -3.18782E-03
    8989.180     -5.526   0.640  5.18158E-01  5.54457E-01 -3.62987E-02
    8989.381     -5.325   0.680  5.02966E-01  5.70621E-01 -6.76549E-02
    8989.594     -5.112   0.720  4.90529E-01  5.86217E-01 -9.56879E-02
    8989.820     -4.886   0.760  4.82436E-01  6.01358E-01 -1.18922E-01
    8990.058     -4.649   0.800  4.80039E-01  6.16152E-01 -1.36113E-01
    8990.308     -4.399   0.840  4.83973E-01  6.30652E-01 -1.46680E-01
    8990.570     -4.137   0.880  4.93985E-01  6.44938E-01 -1.50953E-01
    8990.844     -3.862   0.920  5.08986E-01  6.59075E-01 -1.50089E-01
    8991.131     -3.576   0.960  5.27636E-01  6.73097E-01 -1.45462E-01
    8991.429     -3.277   1.000  5.49056E-01  6.87027E-01 -1.37970E-01
    8991.740     -2.966   1.040  5.72747E-01  7.00876E-01 -1.28129E-01
    8992.063     -2.643   1.080  5.97545E-01  7.14671E-01 -1.17126E-01
    8992.399     -2.308   1.120  6.20523E-01  7.28388E-01 -1.07865E-01
    8992.746     -1.960   1.160  6.38607E-01  7.42040E-01 -1.03433E-01
    8993.106     -1.601   1.200  6.52529E-01  7.55613E-01 -1.03084E-01
    8993.478     -1.229   1.240  6.67480E-01  7.69090E-01 -1.01610E-01
    8993.862     -0.845   1.280  6.88357E-01  7.82451E-01 -9.40940E-02
    8994.258     -0.448   1.320  7.15885E-01  7.95673E-01 -7.97880E-02
    8994.666     -0.040   1.360  7.48314E-01  8.08751E-01 -6.04372E-02
    8995.087      0.381   1.400  7.84013E-01  8.21638E-01 -3.76248E-02
    8995.520      0.813   1.440  8.21333E-01  8.34326E-01 -1.29930E-02
    8995.965      1.258   1.480  8.59313E-01  8.46785E-01  1.25275E-02
    8996.422      1.716   1.520  8.97324E-01  8.58966E-01  3.83582E-02
    8996.891      2.185   1.560  9.33453E-01  8.70877E-01  6.25758E-02
    8997.373      2.667   1.600  9.64175E-01  8.82448E-01  8.17270E-02
    8997.867      3.160   1.640  9.82914E-01  8.93710E-01  8.92047E-02
    8998.373      3.666   1.680  9.89140E-01  9.04591E-01  8.45492E-02
    8998.891      4.184   1.720  9.88794E-01  9.15105E-01  7.36891E-02
    8999.421      4.715   1.760  9.85716E-01  9.25200E-01  6.05152E-02
    8999.964      5.257   1.800  9.87783E-01  9.34890E-01  5.28937E-02
    9000.518      5.812   1.840  1.00724E+00  9.44126E-01  6.31123E-02
    9001.085      6.379   1.880  1.04872E+00  9.52923E-01  9.57927E-02
    9001.664      6.958   1.920  1.10571E+00  9.61237E-01  1.44471E-01
    9002.256      7.549   1.960  1.16541E+00  9.69084E-01  1.96329E-01
    9002.859      8.153   2.000  1.22010E+00  9.76460E-01  2.43642E-01
    9003.475      8.769   2.040  1.25988E+00  9.83344E-01  2.76536E-01
    9004.103      9.397   2.080  1.27561E+00  9.89756E-01  2.85858E-01
    9004.743     10.037   2.120  1.26983E+00  9.95677E-01  2.74156E-01
    9005.395     10.689   2.160  1.24678E+00  1.00111E+00  2.45677E-01
    9006.060     11.353   2.200  1.20856E+00  1.00605E+00  2.02512E-01
    9006.736     12.030   2.240  1.16172E+00  1.01053E+00  1.51197E-01
    9007.425     12.719   2.280  1.11745E+00  1.01455E+00  1.02898E-01
    9008.126     13.420   2.320  1.08343E+00  1.01812E+00  6.53121E-02
    9008.839     14.133   2.360  1.06163E+00  1.02124E+00  4.03916E-02
    9009.565     14.859   2.400  1.05259E+00  1.02394E+00  2.86457E-02
    9010.302     15.596   2.440  1.05554E+00  1.02624E+00  2.93049E-02
    9011.052     16.346   2.480  1.06503E+00  1.02813E+00  3.68971E-02
    9011.814     17.108   2.520  1.07333E+00  1.02967E+00  4.36568E-02
    9012.588     17.882   2.560  1.07577E+00  1.03083E+00  4.49398E-02
    9013.375     18.668   2.600  1.07086E+00  1.03167E+00  3.91921E-02
    9014.173     19.467   2.640  1.05929E+00  1.03219E+00  2.70931E-02
    9014.984     20.278   2.680  1.04338E+00  1.03240E+00  1.09802E-02
    9015.807     21.101   2.720  1.02322E+00  1.03235E+00 -9.12605E-03
    9016.642     21.936   2.760  9.98000E-01  1.03202E+00 -3.40199E-02
    9017.490     22.783   2.800  9.70533E-01  1.03147E+00 -6.09409E-02
    9018.349     23.643   2.840  9.44675E-01  1.03072E+00 -8.60425E-02
    9019.221     24.515   2.880  9.22499E-01  1.02976E+00 -1.07262E-01
    9020.105     25.398   2.920  9.07388E-01  1.02863E+00 -1.21246E-01
    9021.001     26.295   2.960  9.01788E-01  1.02732E+00 -1.25537E-01
    9021.909     27.203   3.000  9.01652E-01  1.02591E+00 -1.24254E-01
    9022.830     28.123   3.040  9.04084E-01  1.02436E+00 -1.20280E-01
    9023.762     29.056   3.080  9.07757E-01  1.02271E+00 -1.14951E-01
    9024.707     30.001   3.120  9.11836E-01  1.02097E+00 -1.09134E-01
    9025.664     30.958   3.160  9.16411E-01  1.01918E+00 -1.02765E-01
    9026.634     31.927   3.200  9.21855E-01  1.01732E+00 -9.54602E-02
    9027.615     32.909   3.240  9.28483E-01  1.01543E+00 -8.69511E-02
    9028.609     33.902   3.280  9.36481E-01  1.01352E+00 -7.70389E-02
    9029.614     34.908   3.320  9.45916E-01  1.01160E+00 -6.56824E-02
    9030.633     35.926   3.360  9.56338E-01  1.00968E+00 -5.33388E-02
    9031.663     36.956   3.400  9.67239E-01  1.00776E+00 -4.05216E-02
    9032.705     37.999   3.440  9.77825E-01  1.00588E+00 -2.80515E-02
    9033.760     39.053   3.480  9.87090E-01  1.00403E+00 -1.69382E-02
    9034.827     40.120   3.520  9.94254E-01  1.00222E+00 -7.96644E-03
    9035.906     41.199   3.560  9.99089E-01  1.00046E+00 -1.37033E-03
    9036.997     42.290   3.600  1.00189E+00  9.98769E-01  3.11665E-03
    9038.100     43.394   3.640  1.00326E+00  9.97152E-01  6.10890E-03
    9039.216     44.509   3.680  1.00384E+00  9.95590E-01  8.24813E-03
    9040.343     45.637   3.720  1.00412E+00  9.94129E-01  9.99488E-03
    9041.483     46.777   3.760  1.00443E+00  9.92728E-01  1.17063E-02
    9042.635     47.929   3.800  1.00510E+00  9.91432E-01  1.36650E-02
    9043.800     49.093   3.840  1.00634E+00  9.90225E-01  1.61182E-02
    9044.976     50.270   3.880  1.00843E+00  9.89125E-01  1.93037E-02
    9046.165     51.459   3.920  1.01158E+00  9.88116E-01  2.34671E-02
    9047.366     52.660   3.960  1.01602E+00  9.87216E-01  2.88054E-02
    9048.579     53.873   4.000  1.02172E+00  9.86406E-01  3.53166E-02
    9049.804     55.098   4.040  1.02842E+00  9.85686E-01  4.27322E-02
    9051.042     56.336   4.080  1.03554E+00  9.85100E-01  5.04446E-02
    9052.292     57.585   4.120  1.04221E+00  9.84605E-01  5.76023E-02
    9053.553     58.847   4.160  1.04753E+00  9.84199E-01  6.33289E-02
    9054.827     60.121   4.200  1.05084E+00  9.83904E-01  6.69389E-02
    9056.114     61.407   4.240  1.05170E+00  9.83698E-01  6.80010E-02
    9057.412     62.706   4.280  1.04999E+00  9.83601E-01  6.63905E-02
    9058.723     64.016   4.320  1.04592E+00  9.83590E-01  6.23257E-02
    9060.046     65.339   4.360  1.03987E+00  9.83666E-01  5.62080E-02
    9061.381     66.674   4.400  1.03242E+00  9.83848E-01  4.85739E-02
    9062.728     68.021   4.440  1.02418E+00  9.84111E-01  4.00712E-02
    9064.087     69.381   4.480  1.01575E+00  9.84433E-01  3.13221E-02
    9065.459     70.752   4.520  1.00768E+00  9.84852E-01  2.28298E-02
    9066.843     72.136   4.560  1.00021E+00  9.85328E-01  1.48863E-02
    9068.239     73.532   4.600  9.93379E-01  9.85879E-01  7.50029E-03
    9069.647     74.940   4.640  9.87006E-01  9.86500E-01  5.05713E-04
    9071.067     76.361   4.680  9.80941E-01  9.87168E-01 -6.22720E-03
    9072.500     77.793   4.720  9.75180E-01  9.87879E-01 -1.26996E-02
    9073.944     79.238   4.760  9.69846E-01  9.88631E-01 -1.87848E-02
    9075.401     80.695   4.800  9.65144E-01  9.89421E-01 -2.42763E-02
    9076.870     82.164   4.840  9.61267E-01  9.90245E-01 -2.89780E-02
    9078.352     83.645   4.880  9.58439E-01  9.91082E-01 -3.26434E-02
    9079.845     85.139   4.920  9.56938E-01  9.91950E-01 -3.50124E-02
    9081.351     86.645   4.960  9.56942E-01  9.92844E-01 -3.59022E-02
    9082.869     88.163   5.000  9.58441E-01  9.93717E-01 -3.52761E-02
    9084.399     89.693   5.040  9.61272E-01  9.94589E-01 -3.33174E-02
    9085.941     91.235   5.080  9.65031E-01  9.95457E-01 -3.04260E-02
    9087.496     92.789   5.120  9.69192E-01  9.96318E-01 -2.71259E-02
    9089.062     94.356   5.160  9.73220E-01  9.97148E-01 -2.39285E-02
    9090.641     95.935   5.200  9.76774E-01  9.97967E-01 -2.11934E-02
    9092.232     97.526   5.240  9.79650E-01  9.98749E-01 -1.90996E-02
    9093.836     99.129   5.280  9.81805E-01  9.99492E-01 -1.76872E-02
    9095.451    100.745   5.320  9.83298E-01  1.00019E+00 -1.68928E-02
    9097.079    102.372   5.360  9.84257E-01  1.00082E+00 -1.65668E-02
    9098.718    104.012   5.400  9.84945E-01  1.00143E+00 -1.64878E-02
    9100.370    105.664   5.440  9.85564E-01  1.00197E+00 -1.64089E-02
    9102.035    107.328   5.480  9.86327E-01  1.00244E+00 -1.61126E-02
    9103.711    109.005   5.520  9.87407E-01  1.00286E+00 -1.54493E-02
    9105.400    110.693   5.560  9.88882E-01  1.00322E+00 -1.43392E-02
    9107.100    112.394   5.600  9.90737E-01  1.00349E+00 -1.27510E-02
    9108.813    114.107   5.640  9.93003E-01  1.00370E+00 -1.06964E-02
    9110.539    115.832   5.680  9.95611E-01  1.00383E+00 -8.22315E-03
    9112.276    117.570   5.720  9.98480E-01  1.00389E+00 -5.41143E-03
    9114.025    119.319   5.760  1.00152E+00  1.00387E+00 -2.35273E-03
    9115.787    121.081   5.800  1.00468E+00  1.00380E+00  8.86453E-04
    9117.561    122.855   5.840  1.00789E+00  1.00362E+00  4.27047E-03
    9119.347    124.641   5.880  1.01111E+00  1.00339E+00  7.71096E-03
    9121.146    126.439   5.920  1.01407E+00  1.00309E+00  1.09812E-02
    9122.956    128.250   5.960  1.01641E+00  1.00271E+00  1.37057E-02
    9124.779    130.072   6.000  1.01772E+00  1.00219E+00  1.55264E-02
