# # comment:                                                     FEFF 9.9.1  
# # Source:
# # Structure
# # Reduced
# # space
# # abc:
# # angles:
# # sites:
# # POT  SCF 100  7.0000   0, screened core-hole, AFOLP (folp(0)= 1.150)
# # Abs   Z=29 Rmt= 1.214 Rnm= 1.274 K  shell
# # Pot 1 Z= 3 Rmt= 1.240 Rnm= 1.292
# # Pot 2 Z=26 Rmt= 1.314 Rnm= 1.402
# # Pot 3 Z=29 Rmt= 1.213 Rnm= 1.274
# # Pot 4 Z= 8 Rmt= 1.047 Rnm= 1.101
# # Gam_ch=1.729E+00 H-L exch Vi= 0.000E+00 Vr= 0.000E+00
# # Mu=-1.058E+01eV kf=2.093E+00 Vint=-1.827E+01eV Rs_int= 1.733
# FMS rfms= 9.0000
# # PATH  Rmax=-1.000,  Keep_limit= 0.00, Heap_limit 0.00  Pwcrit= 2.50%
#  S02=0.950  Temp=   0.00  Debye_temp=   0.00  Global_sig2= 0.00000
#  Energy zero shift, vr, vi    0.00000E+00   0.00000E+00
#  Curved wave amplitude ratio filter   4.000%
#     file         sig2 tot  cw amp ratio   deg  nlegs   reff  inp sig2
#     0/   0 paths used
#  xsedge+ 50, used to normalize mu           2.4552E-04
#  -----------------------------------------------------------------------
#  omega    e    k    mu    mu0     chi     @#
    8985.091    -14.388  -1.000  3.03257E-02  5.38950E-02 -2.35694E-02
    8985.390    -14.089  -0.960  3.15273E-02  5.77656E-02 -2.62383E-02
    8985.676    -13.803  -0.920  3.27955E-02  6.20605E-02 -2.92650E-02
    8985.951    -13.528  -0.880  3.41380E-02  6.68413E-02 -3.27032E-02
    8986.213    -13.266  -0.840  3.55645E-02  7.21798E-02 -3.66153E-02
    8986.463    -13.016  -0.800  3.70863E-02  7.81589E-02 -4.10727E-02
    8986.700    -12.779  -0.760  3.87173E-02  8.48739E-02 -4.61566E-02
    8986.926    -12.553  -0.720  4.04737E-02  9.24320E-02 -5.19584E-02
    8987.139    -12.340  -0.680  4.23740E-02  1.00951E-01 -5.85772E-02
    8987.340    -12.138  -0.640  4.44385E-02  1.10556E-01 -6.61175E-02
    8987.529    -11.950  -0.600  4.66871E-02  1.21368E-01 -7.46812E-02
    8987.706    -11.773  -0.560  4.91363E-02  1.33492E-01 -8.43554E-02
    8987.871    -11.608  -0.520  5.17935E-02  1.46987E-01 -9.51938E-02
    8988.023    -11.456  -0.480  5.46495E-02  1.61840E-01 -1.07191E-01
    8988.163    -11.316  -0.440  5.76699E-02  1.77920E-01 -1.20250E-01
    8988.291    -11.188  -0.400  6.07890E-02  1.94949E-01 -1.34160E-01
    8988.407    -11.072  -0.360  6.39101E-02  2.12493E-01 -1.48583E-01
    8988.511    -10.968  -0.320  6.69170E-02  2.29984E-01 -1.63067E-01
    8988.602    -10.877  -0.280  6.96939E-02  2.46795E-01 -1.77101E-01
    8988.682    -10.797  -0.240  7.21472E-02  2.62317E-01 -1.90170E-01
    8988.749    -10.730  -0.200  7.42185E-02  2.76043E-01 -2.01825E-01
    8988.803    -10.675  -0.160  7.58852E-02  2.87598E-01 -2.11712E-01
    8988.846    -10.633  -0.120  7.71492E-02  2.96737E-01 -2.19588E-01
    8988.877    -10.602  -0.080  7.80241E-02  3.03327E-01 -2.25302E-01
    8988.901    -10.578   0.000  7.86875E-02  3.08624E-01 -2.29937E-01
    8988.956    -10.523   0.120  8.03432E-02  3.20569E-01 -2.40226E-01
    8988.999    -10.480   0.160  8.15501E-02  3.29871E-01 -2.48320E-01
    8989.053    -10.426   0.200  8.30225E-02  3.41757E-01 -2.58735E-01
    8989.120    -10.358   0.240  8.46287E-02  3.56061E-01 -2.71432E-01
    8989.200    -10.279   0.280  8.63302E-02  3.72556E-01 -2.86226E-01
    8989.291    -10.188   0.320  8.79926E-02  3.90810E-01 -3.02817E-01
    8989.395    -10.084   0.360  8.95348E-02  4.10329E-01 -3.20794E-01
    8989.511     -9.968   0.400  9.09440E-02  4.30587E-01 -3.39643E-01
    8989.639     -9.840   0.440  9.22602E-02  4.51105E-01 -3.58845E-01
    8989.779     -9.700   0.480  9.35521E-02  4.71468E-01 -3.77916E-01
    8989.931     -9.548   0.520  9.49714E-02  4.91438E-01 -3.96467E-01
    8990.096     -9.383   0.560  9.66562E-02  5.10905E-01 -4.14249E-01
    8990.273     -9.206   0.600  9.87321E-02  5.29835E-01 -4.31103E-01
    8990.462     -9.017   0.640  1.01239E-01  5.48259E-01 -4.47020E-01
    8990.663     -8.816   0.680  1.04160E-01  5.66239E-01 -4.62079E-01
    8990.876     -8.603   0.720  1.07400E-01  5.83871E-01 -4.76471E-01
    8991.102     -8.377   0.760  1.10897E-01  6.01207E-01 -4.90310E-01
    8991.339     -8.140   0.800  1.14818E-01  6.18310E-01 -5.03492E-01
    8991.589     -7.890   0.840  1.19519E-01  6.35231E-01 -5.15712E-01
    8991.851     -7.627   0.880  1.25539E-01  6.52008E-01 -5.26469E-01
    8992.126     -7.353   0.920  1.33352E-01  6.68643E-01 -5.35291E-01
    8992.412     -7.067   0.960  1.43576E-01  6.85150E-01 -5.41574E-01
    8992.711     -6.768   1.000  1.57087E-01  7.01552E-01 -5.44465E-01
    8993.022     -6.457   1.040  1.75103E-01  7.17782E-01 -5.42680E-01
    8993.345     -6.134   1.080  1.99351E-01  7.33868E-01 -5.34517E-01
    8993.680     -5.799   1.120  2.31603E-01  7.49772E-01 -5.18169E-01
    8994.028     -5.451   1.160  2.73167E-01  7.65448E-01 -4.92281E-01
    8994.387     -5.092   1.200  3.24434E-01  7.80850E-01 -4.56416E-01
    8994.759     -4.720   1.240  3.80999E-01  7.95991E-01 -4.14992E-01
    8995.143     -4.336   1.280  4.29948E-01  8.10798E-01 -3.80850E-01
    8995.540     -3.939   1.320  4.63872E-01  8.25238E-01 -3.61366E-01
    8995.948     -3.531   1.360  4.91502E-01  8.39260E-01 -3.47757E-01
    8996.369     -3.110   1.400  5.20763E-01  8.52871E-01 -3.32107E-01
    8996.801     -2.678   1.440  5.49258E-01  8.66019E-01 -3.16762E-01
    8997.246     -2.233   1.480  5.74293E-01  8.78673E-01 -3.04381E-01
    8997.704     -1.775   1.520  6.03727E-01  8.90825E-01 -2.87097E-01
    8998.173     -1.306   1.560  6.56272E-01  9.02423E-01 -2.46151E-01
    8998.655     -0.824   1.600  7.51163E-01  9.13461E-01 -1.62298E-01
    8999.148     -0.331   1.640  8.86386E-01  9.23934E-01 -3.75474E-02
    8999.654      0.175   1.680  1.01157E+00  9.33818E-01  7.77540E-02
    9000.172      0.694   1.720  1.09241E+00  9.43131E-01  1.49275E-01
    9000.703      1.224   1.760  1.20882E+00  9.51833E-01  2.56986E-01
    9001.245      1.766   1.800  1.42534E+00  9.59966E-01  4.65371E-01
    9001.800      2.321   1.840  1.71940E+00  9.67491E-01  7.51909E-01
    9002.367      2.888   1.880  1.99798E+00  9.74455E-01  1.02353E+00
    9002.946      3.467   1.920  2.13910E+00  9.80842E-01  1.15826E+00
    9003.537      4.059   1.960  2.09450E+00  9.86680E-01  1.10782E+00
    9004.141      4.662   2.000  1.93624E+00  9.91957E-01  9.44283E-01
    9004.757      5.278   2.040  1.75739E+00  9.96743E-01  7.60651E-01
    9005.385      5.906   2.080  1.58802E+00  1.00101E+00  5.87014E-01
    9006.025      6.546   2.120  1.41798E+00  1.00478E+00  4.13205E-01
    9006.677      7.198   2.160  1.25559E+00  1.00809E+00  2.47502E-01
    9007.341      7.862   2.200  1.12522E+00  1.01098E+00  1.14246E-01
    9008.018      8.539   2.240  1.02993E+00  1.01343E+00  1.65015E-02
    9008.707      9.228   2.280  9.58307E-01  1.01549E+00 -5.71847E-02
    9009.408      9.929   2.320  9.03866E-01  1.01719E+00 -1.13323E-01
    9010.121     10.642   2.360  8.68070E-01  1.01855E+00 -1.50478E-01
    9010.846     11.368   2.400  8.55098E-01  1.01958E+00 -1.64484E-01
    9011.584     12.105   2.440  8.63410E-01  1.02032E+00 -1.56914E-01
    9012.334     12.855   2.480  8.86171E-01  1.02081E+00 -1.34635E-01
    9013.096     13.617   2.520  9.26497E-01  1.02102E+00 -9.45204E-02
    9013.870     14.391   2.560  9.71029E-01  1.02101E+00 -4.99834E-02
    9014.656     15.178   2.600  1.01437E+00  1.02082E+00 -6.45395E-03
    9015.455     15.976   2.640  1.05172E+00  1.02041E+00  3.13094E-02
    9016.266     16.787   2.680  1.07905E+00  1.01986E+00  5.91851E-02
    9017.089     17.610   2.720  1.09154E+00  1.01915E+00  7.23885E-02
    9017.924     18.445   2.760  1.08660E+00  1.01832E+00  6.82840E-02
    9018.771     19.292   2.800  1.06454E+00  1.01739E+00  4.71512E-02
    9019.631     20.152   2.840  1.02908E+00  1.01635E+00  1.27313E-02
    9020.503     21.024   2.880  9.86082E-01  1.01525E+00 -2.91667E-02
    9021.386     21.908   2.920  9.39914E-01  1.01408E+00 -7.41625E-02
    9022.283     22.804   2.960  8.95635E-01  1.01286E+00 -1.17222E-01
    9023.191     23.712   3.000  8.57843E-01  1.01160E+00 -1.53755E-01
    9024.111     24.632   3.040  8.29323E-01  1.01033E+00 -1.81004E-01
    9025.044     25.565   3.080  8.10781E-01  1.00903E+00 -1.98247E-01
    9025.989     26.510   3.120  8.01397E-01  1.00775E+00 -2.06349E-01
    9026.946     27.467   3.160  7.98685E-01  1.00645E+00 -2.07762E-01
    9027.915     28.436   3.200  8.00810E-01  1.00518E+00 -2.04366E-01
    9028.897     29.418   3.240  8.06637E-01  1.00394E+00 -1.97300E-01
    9029.890     30.411   3.280  8.15426E-01  1.00273E+00 -1.87307E-01
    9030.896     31.417   3.320  8.26737E-01  1.00155E+00 -1.74809E-01
    9031.914     32.435   3.360  8.40379E-01  1.00042E+00 -1.60042E-01
    9032.944     33.465   3.400  8.56165E-01  9.99341E-01 -1.43175E-01
    9033.987     34.508   3.440  8.73578E-01  9.98306E-01 -1.24728E-01
    9035.041     35.563   3.480  8.92122E-01  9.97339E-01 -1.05217E-01
    9036.108     36.629   3.520  9.10903E-01  9.96422E-01 -8.55190E-02
    9037.187     37.708   3.560  9.29004E-01  9.95577E-01 -6.65722E-02
    9038.278     38.799   3.600  9.46156E-01  9.94783E-01 -4.86277E-02
    9039.382     39.903   3.640  9.62810E-01  9.94065E-01 -3.12545E-02
    9040.497     41.018   3.680  9.79506E-01  9.93422E-01 -1.39156E-02
    9041.625     42.146   3.720  9.96653E-01  9.92856E-01  3.79722E-03
    9042.765     43.286   3.760  1.01471E+00  9.92366E-01  2.23459E-02
    9043.917     44.438   3.800  1.03407E+00  9.91931E-01  4.21391E-02
    9045.081     45.603   3.840  1.05472E+00  9.91570E-01  6.31464E-02
    9046.258     46.779   3.880  1.07587E+00  9.91285E-01  8.45867E-02
    9047.447     47.968   3.920  1.09584E+00  9.91076E-01  1.04765E-01
    9048.648     49.169   3.960  1.11284E+00  9.90921E-01  1.21916E-01
    9049.861     50.382   4.000  1.12612E+00  9.90839E-01  1.35285E-01
    9051.086     51.607   4.040  1.13598E+00  9.90830E-01  1.45155E-01
    9052.324     52.845   4.080  1.14274E+00  9.90872E-01  1.51872E-01
    9053.573     54.094   4.120  1.14594E+00  9.90985E-01  1.54952E-01
    9054.835     55.356   4.160  1.14427E+00  9.91145E-01  1.53124E-01
    9056.109     56.630   4.200  1.13623E+00  9.91351E-01  1.44877E-01
    9057.395     57.916   4.240  1.12143E+00  9.91625E-01  1.29809E-01
    9058.694     59.215   4.280  1.10138E+00  9.91946E-01  1.09437E-01
    9060.004     60.526   4.320  1.07884E+00  9.92331E-01  8.65136E-02
    9061.327     61.848   4.360  1.05643E+00  9.92735E-01  6.36974E-02
    9062.662     63.183   4.400  1.03592E+00  9.93178E-01  4.27450E-02
    9064.009     64.531   4.440  1.01805E+00  9.93681E-01  2.43639E-02
    9065.369     65.890   4.480  1.00271E+00  9.94199E-01  8.50858E-03
    9066.740     67.262   4.520  9.89612E-01  9.94728E-01 -5.11588E-03
    9068.124     68.645   4.560  9.78610E-01  9.95312E-01 -1.67022E-02
    9069.520     70.041   4.600  9.69772E-01  9.95904E-01 -2.61319E-02
    9070.928     71.450   4.640  9.63604E-01  9.96501E-01 -3.28972E-02
    9072.349     72.870   4.680  9.60947E-01  9.97104E-01 -3.61569E-02
    9073.781     74.302   4.720  9.62560E-01  9.97732E-01 -3.51723E-02
    9075.226     75.747   4.760  9.68820E-01  9.98362E-01 -2.95421E-02
    9076.683     77.204   4.800  9.79392E-01  9.98992E-01 -1.96005E-02
    9078.152     78.673   4.840  9.92647E-01  9.99619E-01 -6.97195E-03
    9079.633     80.155   4.880  1.00558E+00  1.00022E+00  5.35650E-03
    9081.127     81.648   4.920  1.01459E+00  1.00084E+00  1.37527E-02
    9082.633     83.154   4.960  1.01670E+00  1.00143E+00  1.52745E-02
    9084.151     84.672   5.000  1.01095E+00  1.00198E+00  8.96883E-03
    9085.681     86.202   5.040  9.98893E-01  1.00253E+00 -3.63532E-03
    9087.223     87.744   5.080  9.83711E-01  1.00306E+00 -1.93522E-02
    9088.777     89.299   5.120  9.68676E-01  1.00356E+00 -3.48885E-02
    9090.344     90.865   5.160  9.56095E-01  1.00403E+00 -4.79321E-02
    9091.923     92.444   5.200  9.47201E-01  1.00445E+00 -5.72493E-02
    9093.514     94.035   5.240  9.42294E-01  1.00483E+00 -6.25402E-02
    9095.117     95.638   5.280  9.40997E-01  1.00518E+00 -6.41807E-02
    9096.733     97.254   5.320  9.42711E-01  1.00550E+00 -6.27941E-02
    9098.360     98.881   5.360  9.47022E-01  1.00577E+00 -5.87482E-02
    9100.000    100.521   5.400  9.53830E-01  1.00601E+00 -5.21837E-02
    9101.652    102.173   5.440  9.62693E-01  1.00619E+00 -4.34989E-02
    9103.316    103.837   5.480  9.72409E-01  1.00633E+00 -3.39173E-02
    9104.993    105.514   5.520  9.81093E-01  1.00642E+00 -2.53242E-02
    9106.681    107.202   5.560  9.87212E-01  1.00646E+00 -1.92514E-02
    9108.382    108.903   5.600  9.90460E-01  1.00645E+00 -1.59853E-02
    9110.095    110.616   5.640  9.91513E-01  1.00641E+00 -1.48927E-02
    9111.820    112.341   5.680  9.90986E-01  1.00630E+00 -1.53160E-02
    9113.558    114.079   5.720  9.89314E-01  1.00618E+00 -1.68641E-02
    9115.307    115.828   5.760  9.87092E-01  1.00599E+00 -1.88966E-02
    9117.069    117.590   5.800  9.85678E-01  1.00576E+00 -2.00798E-02
    9118.843    119.364   5.840  9.86646E-01  1.00548E+00 -1.88382E-02
    9120.629    121.150   5.880  9.90640E-01  1.00515E+00 -1.45074E-02
    9122.427    122.948   5.920  9.96847E-01  1.00480E+00 -7.95157E-03
    9124.238    124.759   5.960  1.00345E+00  1.00441E+00 -9.63687E-04
    9126.060    126.582   6.000  1.00906E+00  1.00396E+00  5.09694E-03
