# # comment:                                                     FEFF 9.9.1  
# # Source:
# # Structure
# # Reduced
# # space
# # abc:
# # angles:
# # sites:
# # POT  SCF 100  7.0000   0, screened core-hole, AFOLP (folp(0)= 1.150)
# # Abs   Z=29 Rmt= 1.200 Rnm= 1.285 K  shell
# # Pot 1 Z=56 Rmt= 1.925 Rnm= 1.976
# # Pot 2 Z=70 Rmt= 1.633 Rnm= 1.699
# # Pot 3 Z=29 Rmt= 1.200 Rnm= 1.285
# # Pot 4 Z= 8 Rmt= 1.050 Rnm= 1.102
# # Gam_ch=1.729E+00 H-L exch Vi= 0.000E+00 Vr= 0.000E+00
# # Mu=-7.894E+00eV kf=2.036E+00 Vint=-1.750E+01eV Rs_int= 1.781
# FMS rfms= 9.0000
# # PATH  Rmax=-1.000,  Keep_limit= 0.00, Heap_limit 0.00  Pwcrit= 2.50%
#  S02=0.950  Temp=   0.00  Debye_temp=   0.00  Global_sig2= 0.00000
#  Energy zero shift, vr, vi    0.00000E+00   0.00000E+00
#  Curved wave amplitude ratio filter   4.000%
#     file         sig2 tot  cw amp ratio   deg  nlegs   reff  inp sig2
#     0/   0 paths used
#  xsedge+ 50, used to normalize mu           2.4402E-04
#  -----------------------------------------------------------------------
#  omega    e    k    mu    mu0     chi     @#
    8984.922    -11.704  -1.000  4.20100E-02  5.97707E-02 -1.77607E-02
    8985.221    -11.405  -0.960  4.43486E-02  6.42781E-02 -1.99295E-02
    8985.508    -11.119  -0.920  4.68868E-02  6.93000E-02 -2.24132E-02
    8985.782    -10.845  -0.880  4.96504E-02  7.49134E-02 -2.52630E-02
    8986.044    -10.582  -0.840  5.26689E-02  8.12078E-02 -2.85388E-02
    8986.294    -10.332  -0.800  5.59766E-02  8.82869E-02 -3.23103E-02
    8986.532    -10.095  -0.760  5.96126E-02  9.62702E-02 -3.66576E-02
    8986.757     -9.869  -0.720  6.36210E-02  1.05293E-01 -4.16716E-02
    8986.971     -9.656  -0.680  6.80500E-02  1.15503E-01 -4.74530E-02
    8987.172     -9.455  -0.640  7.29501E-02  1.27059E-01 -5.41085E-02
    8987.361     -9.266  -0.600  7.83704E-02  1.40114E-01 -6.17439E-02
    8987.537     -9.089  -0.560  8.43514E-02  1.54802E-01 -7.04511E-02
    8987.702     -8.924  -0.520  9.09146E-02  1.71203E-01 -8.02883E-02
    8987.854     -8.772  -0.480  9.80480E-02  1.89300E-01 -9.12518E-02
    8987.995     -8.632  -0.440  1.05689E-01  2.08934E-01 -1.03245E-01
    8988.123     -8.504  -0.400  1.13712E-01  2.29760E-01 -1.16049E-01
    8988.239     -8.388  -0.360  1.21921E-01  2.51237E-01 -1.29316E-01
    8988.342     -8.284  -0.320  1.30066E-01  2.72658E-01 -1.42592E-01
    8988.434     -8.193  -0.280  1.37870E-01  2.93241E-01 -1.55371E-01
    8988.513     -8.114  -0.240  1.45068E-01  3.12236E-01 -1.67168E-01
    8988.580     -8.046  -0.200  1.51435E-01  3.29014E-01 -1.77579E-01
    8988.635     -7.992  -0.160  1.56804E-01  3.43121E-01 -1.86317E-01
    8988.677     -7.949  -0.120  1.61062E-01  3.54266E-01 -1.93204E-01
    8988.708     -7.918  -0.080  1.64136E-01  3.62290E-01 -1.98154E-01
    8988.732     -7.894   0.000  1.66605E-01  3.68734E-01 -2.02129E-01
    8988.787     -7.839   0.120  1.72274E-01  3.83255E-01 -2.10982E-01
    8988.830     -7.797   0.160  1.76696E-01  3.94531E-01 -2.17835E-01
    8988.885     -7.742   0.200  1.82362E-01  4.08901E-01 -2.26539E-01
    8988.952     -7.675   0.240  1.89262E-01  4.26177E-01 -2.36915E-01
    8989.031     -7.595   0.280  1.97261E-01  4.45952E-01 -2.48691E-01
    8989.122     -7.504   0.320  2.06239E-01  4.67719E-01 -2.61480E-01
    8989.226     -7.400   0.360  2.15953E-01  4.90821E-01 -2.74868E-01
    8989.342     -7.284   0.400  2.26044E-01  5.14502E-01 -2.88458E-01
    8989.470     -7.156   0.440  2.36159E-01  5.38167E-01 -3.02008E-01
    8989.610     -7.016   0.480  2.45845E-01  5.61305E-01 -3.15461E-01
    8989.762     -6.864   0.520  2.54763E-01  5.83562E-01 -3.28799E-01
    8989.927     -6.699   0.560  2.62983E-01  6.04790E-01 -3.41807E-01
    8990.104     -6.522   0.600  2.70919E-01  6.24954E-01 -3.54035E-01
    8990.293     -6.334   0.640  2.79267E-01  6.44120E-01 -3.64853E-01
    8990.494     -6.132   0.680  2.88662E-01  6.62361E-01 -3.73699E-01
    8990.707     -5.919   0.720  2.99842E-01  6.79785E-01 -3.79944E-01
    8990.933     -5.693   0.760  3.14031E-01  6.96542E-01 -3.82511E-01
    8991.171     -5.456   0.800  3.33116E-01  7.12666E-01 -3.79549E-01
    8991.421     -5.206   0.840  3.59027E-01  7.28279E-01 -3.69253E-01
    8991.683     -4.944   0.880  3.91716E-01  7.43430E-01 -3.51714E-01
    8991.957     -4.669   0.920  4.26917E-01  7.58167E-01 -3.31250E-01
    8992.244     -4.383   0.960  4.56287E-01  7.72524E-01 -3.16238E-01
    8992.542     -4.084   1.000  4.72569E-01  7.86528E-01 -3.13959E-01
    8992.853     -3.773   1.040  4.75833E-01  8.00193E-01 -3.24361E-01
    8993.176     -3.450   1.080  4.73130E-01  8.13502E-01 -3.40371E-01
    8993.512     -3.115   1.120  4.72864E-01  8.26472E-01 -3.53608E-01
    8993.859     -2.767   1.160  4.79908E-01  8.39097E-01 -3.59190E-01
    8994.219     -2.408   1.200  4.95075E-01  8.51346E-01 -3.56271E-01
    8994.591     -2.036   1.240  5.18197E-01  8.63202E-01 -3.45005E-01
    8994.975     -1.652   1.280  5.48724E-01  8.74668E-01 -3.25944E-01
    8995.371     -1.256   1.320  5.85795E-01  8.85724E-01 -2.99929E-01
    8995.779     -0.847   1.360  6.32347E-01  8.96371E-01 -2.64024E-01
    8996.200     -0.427   1.400  6.95269E-01  9.06547E-01 -2.11278E-01
    8996.633      0.006   1.440  7.82196E-01  9.16292E-01 -1.34096E-01
    8997.078      0.451   1.480  8.99322E-01  9.25542E-01 -2.62204E-02
    8997.535      0.909   1.520  1.04436E+00  9.34341E-01  1.10017E-01
    8998.004      1.378   1.560  1.19064E+00  9.42645E-01  2.47995E-01
    8998.486      1.859   1.600  1.28654E+00  9.50478E-01  3.36057E-01
    8998.980      2.353   1.640  1.29929E+00  9.57820E-01  3.41468E-01
    8999.486      2.859   1.680  1.29407E+00  9.64674E-01  3.29392E-01
    9000.004      3.377   1.720  1.37193E+00  9.71044E-01  4.00886E-01
    9000.534      3.908   1.760  1.54631E+00  9.76932E-01  5.69379E-01
    9001.077      4.450   1.800  1.69718E+00  9.82346E-01  7.14836E-01
    9001.631      5.005   1.840  1.69170E+00  9.87311E-01  7.04392E-01
    9002.198      5.572   1.880  1.57280E+00  9.91815E-01  5.80980E-01
    9002.777      6.151   1.920  1.43281E+00  9.95886E-01  4.36923E-01
    9003.369      6.742   1.960  1.31865E+00  9.99530E-01  3.19122E-01
    9003.972      7.346   2.000  1.22866E+00  1.00276E+00  2.25906E-01
    9004.588      7.962   2.040  1.15602E+00  1.00562E+00  1.50394E-01
    9005.216      8.589   2.080  1.11625E+00  1.00811E+00  1.08143E-01
    9005.856      9.230   2.120  1.11500E+00  1.01023E+00  1.04768E-01
    9006.508      9.882   2.160  1.13195E+00  1.01203E+00  1.19918E-01
    9007.173     10.546   2.200  1.12585E+00  1.01353E+00  1.12317E-01
    9007.849     11.223   2.240  1.07777E+00  1.01472E+00  6.30535E-02
    9008.538     11.912   2.280  1.01492E+00  1.01564E+00 -7.11314E-04
    9009.239     12.613   2.320  9.70308E-01  1.01630E+00 -4.59944E-02
    9009.952     13.326   2.360  9.57398E-01  1.01674E+00 -5.93472E-02
    9010.678     14.051   2.400  9.70404E-01  1.01695E+00 -4.65484E-02
    9011.415     14.789   2.440  1.00133E+00  1.01698E+00 -1.56493E-02
    9012.165     15.539   2.480  1.04694E+00  1.01683E+00  3.01051E-02
    9012.927     16.301   2.520  1.08669E+00  1.01652E+00  7.01703E-02
    9013.701     17.075   2.560  1.11201E+00  1.01605E+00  9.59675E-02
    9014.488     17.861   2.600  1.11979E+00  1.01547E+00  1.04313E-01
    9015.286     18.660   2.640  1.11227E+00  1.01478E+00  9.74878E-02
    9016.097     19.471   2.680  1.09458E+00  1.01400E+00  8.05799E-02
    9016.920     20.294   2.720  1.07261E+00  1.01313E+00  5.94781E-02
    9017.755     21.129   2.760  1.05065E+00  1.01221E+00  3.84423E-02
    9018.603     21.976   2.800  1.02980E+00  1.01124E+00  1.85529E-02
    9019.462     22.836   2.840  1.00925E+00  1.01021E+00 -9.57788E-04
    9020.334     23.707   2.880  9.87715E-01  1.00916E+00 -2.14466E-02
    9021.218     24.591   2.920  9.64120E-01  1.00810E+00 -4.39834E-02
    9022.114     25.487   2.960  9.38611E-01  1.00702E+00 -6.84076E-02
    9023.022     26.396   3.000  9.13051E-01  1.00596E+00 -9.29042E-02
    9023.943     27.316   3.040  8.90018E-01  1.00490E+00 -1.14878E-01
    9024.875     28.249   3.080  8.71572E-01  1.00386E+00 -1.32292E-01
    9025.820     29.194   3.120  8.59061E-01  1.00284E+00 -1.43783E-01
    9026.777     30.151   3.160  8.52213E-01  1.00186E+00 -1.49647E-01
    9027.747     31.120   3.200  8.49975E-01  1.00091E+00 -1.50939E-01
    9028.728     32.102   3.240  8.51180E-01  1.00001E+00 -1.48829E-01
    9029.722     33.095   3.280  8.54691E-01  9.99169E-01 -1.44479E-01
    9030.727     34.101   3.320  8.59597E-01  9.98376E-01 -1.38779E-01
    9031.745     35.119   3.360  8.65477E-01  9.97630E-01 -1.32152E-01
    9032.776     36.149   3.400  8.72608E-01  9.96952E-01 -1.24344E-01
    9033.818     37.192   3.440  8.81443E-01  9.96325E-01 -1.14883E-01
    9034.873     38.246   3.480  8.92599E-01  9.95771E-01 -1.03171E-01
    9035.940     39.313   3.520  9.06373E-01  9.95270E-01 -8.88962E-02
    9037.018     40.392   3.560  9.22621E-01  9.94864E-01 -7.22426E-02
    9038.110     41.483   3.600  9.40808E-01  9.94512E-01 -5.37040E-02
    9039.213     42.587   3.640  9.60266E-01  9.94234E-01 -3.39677E-02
    9040.329     43.702   3.680  9.80046E-01  9.94009E-01 -1.39631E-02
    9041.456     44.830   3.720  9.98999E-01  9.93859E-01  5.14006E-03
    9042.596     45.970   3.760  1.01598E+00  9.93784E-01  2.21968E-02
    9043.748     47.122   3.800  1.02996E+00  9.93785E-01  3.61764E-02
    9044.913     48.286   3.840  1.04002E+00  9.93837E-01  4.61825E-02
    9046.089     49.463   3.880  1.04581E+00  9.93961E-01  5.18464E-02
    9047.278     50.652   3.920  1.04744E+00  9.94135E-01  5.33060E-02
    9048.479     51.853   3.960  1.04555E+00  9.94379E-01  5.11698E-02
    9049.692     53.066   4.000  1.04117E+00  9.94673E-01  4.64991E-02
    9050.917     54.291   4.040  1.03566E+00  9.95035E-01  4.06280E-02
    9052.155     55.528   4.080  1.03034E+00  9.95441E-01  3.48969E-02
    9053.404     56.778   4.120  1.02619E+00  9.95892E-01  3.03025E-02
    9054.666     58.040   4.160  1.02373E+00  9.96385E-01  2.73437E-02
    9055.940     59.314   4.200  1.02274E+00  9.96918E-01  2.58249E-02
    9057.227     60.600   4.240  1.02259E+00  9.97513E-01  2.50806E-02
    9058.525     61.899   4.280  1.02274E+00  9.98125E-01  2.46193E-02
    9059.836     63.209   4.320  1.02343E+00  9.98770E-01  2.46582E-02
    9061.159     64.532   4.360  1.02520E+00  9.99429E-01  2.57695E-02
    9062.494     65.867   4.400  1.02841E+00  1.00014E+00  2.82724E-02
    9063.841     67.214   4.440  1.03294E+00  1.00084E+00  3.20978E-02
    9065.200     68.574   4.480  1.03859E+00  1.00157E+00  3.70271E-02
    9066.572     69.945   4.520  1.04551E+00  1.00232E+00  4.31909E-02
    9067.956     71.329   4.560  1.05413E+00  1.00305E+00  5.10776E-02
    9069.352     72.725   4.600  1.06464E+00  1.00381E+00  6.08337E-02
    9070.760     74.133   4.640  1.07606E+00  1.00457E+00  7.14956E-02
    9072.180     75.554   4.680  1.08616E+00  1.00529E+00  8.08620E-02
    9073.613     76.986   4.720  1.09231E+00  1.00602E+00  8.62926E-02
    9075.057     78.431   4.760  1.09268E+00  1.00674E+00  8.59396E-02
    9076.514     79.888   4.800  1.08688E+00  1.00745E+00  7.94368E-02
    9077.983     81.357   4.840  1.07581E+00  1.00812E+00  6.76884E-02
    9079.465     82.838   4.880  1.06110E+00  1.00876E+00  5.23312E-02
    9080.958     84.332   4.920  1.04469E+00  1.00939E+00  3.52958E-02
    9082.464     85.838   4.960  1.02836E+00  1.00998E+00  1.83755E-02
    9083.982     87.356   5.000  1.01342E+00  1.01054E+00  2.88627E-03
    9085.512     88.886   5.040  1.00063E+00  1.01105E+00 -1.04222E-02
    9087.054     90.428   5.080  9.90305E-01  1.01152E+00 -2.12156E-02
    9088.609     91.982   5.120  9.82509E-01  1.01197E+00 -2.94641E-02
    9090.175     93.549   5.160  9.76929E-01  1.01236E+00 -3.54309E-02
    9091.754     95.128   5.200  9.73169E-01  1.01270E+00 -3.95350E-02
    9093.345     96.719   5.240  9.70692E-01  1.01300E+00 -4.23121E-02
    9094.949     98.322   5.280  9.68941E-01  1.01326E+00 -4.43159E-02
    9096.564     99.938   5.320  9.67441E-01  1.01344E+00 -4.59995E-02
    9098.192    101.565   5.360  9.66025E-01  1.01358E+00 -4.75526E-02
    9099.831    103.205   5.400  9.64765E-01  1.01367E+00 -4.89066E-02
    9101.483    104.857   5.440  9.63886E-01  1.01372E+00 -4.98349E-02
    9103.148    106.521   5.480  9.63677E-01  1.01372E+00 -5.00465E-02
    9104.824    108.198   5.520  9.64334E-01  1.01366E+00 -4.93225E-02
    9106.513    109.886   5.560  9.65778E-01  1.01354E+00 -4.77639E-02
    9108.213    111.587   5.600  9.67696E-01  1.01336E+00 -4.56625E-02
    9109.926    113.300   5.640  9.69655E-01  1.01315E+00 -4.34985E-02
    9111.652    115.025   5.680  9.71335E-01  1.01288E+00 -4.15483E-02
    9113.389    116.763   5.720  9.72470E-01  1.01257E+00 -4.00986E-02
    9115.138    118.512   5.760  9.72917E-01  1.01221E+00 -3.92949E-02
    9116.900    120.274   5.800  9.72713E-01  1.01182E+00 -3.91026E-02
    9118.674    122.048   5.840  9.72088E-01  1.01138E+00 -3.92935E-02
    9120.460    123.834   5.880  9.71505E-01  1.01091E+00 -3.94049E-02
    9122.259    125.632   5.920  9.71968E-01  1.01041E+00 -3.84367E-02
    9124.069    127.443   5.960  9.74497E-01  1.00987E+00 -3.53710E-02
    9125.892    129.265   6.000  9.80148E-01  1.00930E+00 -2.91480E-02
