# # comment:                                                     FEFF 9.9.1  
# # Source:
# # Structure
# # Reduced
# # space
# # abc:
# # angles:
# # sites:
# # POT  SCF 100  7.0000   0, screened core-hole, AFOLP (folp(0)= 1.150)
# # Abs   Z=29 Rmt= 1.218 Rnm= 1.372 K  shell
# # Pot 1 Z=29 Rmt= 1.218 Rnm= 1.372
# # Pot 2 Z=33 Rmt= 1.094 Rnm= 1.294
# # Pot 3 Z=82 Rmt= 1.766 Rnm= 1.829
# # Pot 4 Z= 8 Rmt= 0.937 Rnm= 1.070
# # Gam_ch=1.729E+00 H-L exch Vi= 0.000E+00 Vr= 0.000E+00
# # Mu=-5.177E+00eV kf=2.231E+00 Vint=-1.543E+01eV Rs_int= 1.625
# FMS rfms= 9.0000
# # PATH  Rmax=-1.000,  Keep_limit= 0.00, Heap_limit 0.00  Pwcrit= 2.50%
#  S02=0.950  Temp=   0.00  Debye_temp=   0.00  Global_sig2= 0.00000
#  Energy zero shift, vr, vi    0.00000E+00   0.00000E+00
#  Curved wave amplitude ratio filter   4.000%
#     file         sig2 tot  cw amp ratio   deg  nlegs   reff  inp sig2
#     0/   0 paths used
#  xsedge+ 50, used to normalize mu           2.4583E-04
#  -----------------------------------------------------------------------
#  omega    e    k    mu    mu0     chi     @#
    8983.396     -8.987  -1.000  5.91345E-02  5.82419E-02  8.92523E-04
    8983.694     -8.688  -0.960  6.38850E-02  6.26110E-02  1.27397E-03
    8983.981     -8.401  -0.920  6.92452E-02  6.74782E-02  1.76699E-03
    8984.255     -8.127  -0.880  7.53194E-02  7.29179E-02  2.40149E-03
    8984.517     -7.865  -0.840  8.22319E-02  7.90169E-02  3.21494E-03
    8984.767     -7.615  -0.800  9.01298E-02  8.58759E-02  4.25392E-03
    8985.005     -7.377  -0.760  9.91861E-02  9.36105E-02  5.57562E-03
    8985.231     -7.152  -0.720  1.09601E-01  1.02352E-01  7.24902E-03
    8985.444     -6.938  -0.680  1.21599E-01  1.12244E-01  9.35504E-03
    8985.645     -6.737  -0.640  1.35424E-01  1.23439E-01  1.19847E-02
    8985.834     -6.548  -0.600  1.51322E-01  1.36088E-01  1.52337E-02
    8986.011     -6.371  -0.560  1.69510E-01  1.50319E-01  1.91908E-02
    8986.175     -6.207  -0.520  1.90129E-01  1.66210E-01  2.39195E-02
    8986.328     -6.054  -0.480  2.13175E-01  1.83745E-01  2.94298E-02
    8986.468     -5.914  -0.440  2.38418E-01  2.02770E-01  3.56472E-02
    8986.596     -5.786  -0.400  2.65337E-01  2.22951E-01  4.23858E-02
    8986.712     -5.670  -0.360  2.93105E-01  2.43761E-01  4.93440E-02
    8986.816     -5.567  -0.320  3.20654E-01  2.64516E-01  5.61372E-02
    8986.907     -5.475  -0.280  3.46826E-01  2.84458E-01  6.23677E-02
    8986.986     -5.396  -0.240  3.70570E-01  3.02859E-01  6.77108E-02
    8987.053     -5.329  -0.200  3.91091E-01  3.19110E-01  7.19810E-02
    8987.108     -5.274  -0.160  4.07924E-01  3.32772E-01  7.51523E-02
    8987.151     -5.231  -0.120  4.20890E-01  3.43563E-01  7.73275E-02
    8987.181     -5.201  -0.080  4.30003E-01  3.51332E-01  7.86711E-02
    8987.206     -5.177   0.000  4.37083E-01  3.57569E-01  7.95136E-02
    8987.261     -5.122   0.120  4.52243E-01  3.71623E-01  8.06201E-02
    8987.303     -5.079   0.160  4.63838E-01  3.82546E-01  8.12918E-02
    8987.358     -5.024   0.200  4.78029E-01  3.96445E-01  8.15842E-02
    8987.425     -4.957   0.240  4.94116E-01  4.13155E-01  8.09613E-02
    8987.504     -4.878   0.280  5.11064E-01  4.32298E-01  7.87660E-02
    8987.596     -4.786   0.320  5.27658E-01  4.53337E-01  7.43205E-02
    8987.699     -4.683   0.360  5.42741E-01  4.75632E-01  6.71088E-02
    8987.815     -4.567   0.400  5.55511E-01  4.98504E-01  5.70074E-02
    8987.943     -4.439   0.440  5.65717E-01  5.21314E-01  4.44033E-02
    8988.084     -4.299   0.480  5.73687E-01  5.43563E-01  3.01240E-02
    8988.236     -4.146   0.520  5.80143E-01  5.64968E-01  1.51755E-02
    8988.401     -3.982   0.560  5.85779E-01  5.85367E-01  4.11691E-04
    8988.577     -3.805   0.600  5.91012E-01  6.04706E-01 -1.36941E-02
    8988.766     -3.616   0.640  5.96022E-01  6.23073E-01 -2.70514E-02
    8988.967     -3.415   0.680  6.00810E-01  6.40540E-01 -3.97295E-02
    8989.181     -3.202   0.720  6.05588E-01  6.57235E-01 -5.16463E-02
    8989.406     -2.976   0.760  6.10636E-01  6.73245E-01 -6.26090E-02
    8989.644     -2.738   0.800  6.15635E-01  6.88710E-01 -7.30751E-02
    8989.894     -2.488   0.840  6.18810E-01  7.03672E-01 -8.48615E-02
    8990.156     -2.226   0.880  6.18065E-01  7.18237E-01 -1.00172E-01
    8990.430     -1.952   0.920  6.12761E-01  7.32416E-01 -1.19656E-01
    8990.717     -1.665   0.960  6.03862E-01  7.46289E-01 -1.42427E-01
    8991.016     -1.367   1.000  5.93100E-01  7.59859E-01 -1.66758E-01
    8991.327     -1.056   1.040  5.83903E-01  7.73143E-01 -1.89240E-01
    8991.650     -0.733   1.080  5.80893E-01  7.86150E-01 -2.05257E-01
    8991.985     -0.397   1.120  5.87297E-01  7.98877E-01 -2.11579E-01
    8992.332     -0.050   1.160  6.02561E-01  8.11338E-01 -2.08777E-01
    8992.692      0.310   1.200  6.20575E-01  8.23504E-01 -2.02929E-01
    8993.064      0.682   1.240  6.33909E-01  8.35359E-01 -2.01450E-01
    8993.448      1.066   1.280  6.45663E-01  8.46908E-01 -2.01245E-01
    8993.844      1.462   1.320  6.69118E-01  8.58132E-01 -1.89014E-01
    8994.253      1.870   1.360  7.13208E-01  8.69009E-01 -1.55801E-01
    8994.673      2.291   1.400  7.73747E-01  8.79518E-01 -1.05772E-01
    8995.106      2.724   1.440  8.36759E-01  8.89659E-01 -5.28998E-02
    8995.551      3.169   1.480  8.88387E-01  8.99427E-01 -1.10395E-02
    8996.008      3.626   1.520  9.24697E-01  9.08780E-01  1.59171E-02
    8996.478      4.095   1.560  9.52402E-01  9.17717E-01  3.46853E-02
    8996.959      4.577   1.600  9.80334E-01  9.26236E-01  5.40980E-02
    8997.453      5.071   1.640  1.00979E+00  9.34316E-01  7.54709E-02
    8997.959      5.577   1.680  1.03518E+00  9.41978E-01  9.32025E-02
    8998.477      6.095   1.720  1.05133E+00  9.49201E-01  1.02127E-01
    8999.008      6.625   1.760  1.05823E+00  9.55986E-01  1.02241E-01
    8999.550      7.168   1.800  1.06035E+00  9.62337E-01  9.80134E-02
    9000.105      7.722   1.840  1.06198E+00  9.68257E-01  9.37280E-02
    9000.672      8.289   1.880  1.06261E+00  9.73747E-01  8.88644E-02
    9001.251      8.868   1.920  1.05655E+00  9.78815E-01  7.77371E-02
    9001.842      9.460   1.960  1.04582E+00  9.83486E-01  6.23324E-02
    9002.446     10.063   2.000  1.04084E+00  9.87744E-01  5.30994E-02
    9003.061     10.679   2.040  1.05072E+00  9.91617E-01  5.91074E-02
    9003.689     11.307   2.080  1.07559E+00  9.95110E-01  8.04779E-02
    9004.329     11.947   2.120  1.10680E+00  9.98233E-01  1.08569E-01
    9004.982     12.599   2.160  1.13579E+00  1.00103E+00  1.34758E-01
    9005.646     13.264   2.200  1.16047E+00  1.00348E+00  1.56991E-01
    9006.323     13.940   2.240  1.18368E+00  1.00562E+00  1.78065E-01
    9007.012     14.629   2.280  1.20263E+00  1.00744E+00  1.95186E-01
    9007.713     15.330   2.320  1.20849E+00  1.00899E+00  1.99495E-01
    9008.426     16.043   2.360  1.19710E+00  1.01027E+00  1.86830E-01
    9009.151     16.769   2.400  1.17315E+00  1.01131E+00  1.61836E-01
    9009.889     17.506   2.440  1.14352E+00  1.01211E+00  1.31412E-01
    9010.639     18.256   2.480  1.11098E+00  1.01268E+00  9.83040E-02
    9011.401     19.018   2.520  1.07751E+00  1.01306E+00  6.44526E-02
    9012.175     19.792   2.560  1.04643E+00  1.01326E+00  3.31681E-02
    9012.961     20.579   2.600  1.01888E+00  1.01328E+00  5.60219E-03
    9013.760     21.377   2.640  9.97787E-01  1.01315E+00 -1.53680E-02
    9014.571     22.188   2.680  9.86075E-01  1.01288E+00 -2.68034E-02
    9015.394     23.011   2.720  9.81326E-01  1.01250E+00 -3.11715E-02
    9016.229     23.846   2.760  9.80084E-01  1.01200E+00 -3.19158E-02
    9017.076     24.694   2.800  9.80108E-01  1.01141E+00 -3.13035E-02
    9017.936     25.553   2.840  9.80695E-01  1.01074E+00 -3.00425E-02
    9018.807     26.425   2.880  9.81868E-01  1.00998E+00 -2.81173E-02
    9019.691     27.309   2.920  9.83636E-01  1.00918E+00 -2.55449E-02
    9020.587     28.205   2.960  9.85756E-01  1.00831E+00 -2.25543E-02
    9021.496     29.113   3.000  9.87748E-01  1.00742E+00 -1.96708E-02
    9022.416     30.034   3.040  9.89024E-01  1.00649E+00 -1.74669E-02
    9023.349     30.966   3.080  9.89235E-01  1.00555E+00 -1.63176E-02
    9024.294     31.911   3.120  9.88147E-01  1.00459E+00 -1.64397E-02
    9025.251     32.868   3.160  9.85707E-01  1.00364E+00 -1.79331E-02
    9026.220     33.838   3.200  9.81984E-01  1.00269E+00 -2.07103E-02
    9027.201     34.819   3.240  9.77273E-01  1.00175E+00 -2.44779E-02
    9028.195     35.813   3.280  9.71848E-01  1.00082E+00 -2.89688E-02
    9029.201     36.819   3.320  9.65884E-01  9.99933E-01 -3.40490E-02
    9030.219     37.837   3.360  9.59406E-01  9.99042E-01 -3.96353E-02
    9031.249     38.867   3.400  9.52711E-01  9.98208E-01 -4.54970E-02
    9032.292     39.909   3.440  9.45996E-01  9.97413E-01 -5.14167E-02
    9033.346     40.964   3.480  9.39583E-01  9.96658E-01 -5.70747E-02
    9034.413     42.031   3.520  9.33917E-01  9.95943E-01 -6.20256E-02
    9035.492     43.110   3.560  9.29489E-01  9.95271E-01 -6.57817E-02
    9036.583     44.201   3.600  9.26740E-01  9.94642E-01 -6.79024E-02
    9037.686     45.304   3.640  9.25961E-01  9.94081E-01 -6.81193E-02
    9038.802     46.420   3.680  9.27156E-01  9.93567E-01 -6.64101E-02
    9039.930     47.547   3.720  9.30021E-01  9.93120E-01 -6.30993E-02
    9041.070     48.687   3.760  9.34201E-01  9.92721E-01 -5.85197E-02
    9042.222     49.840   3.800  9.39480E-01  9.92368E-01 -5.28882E-02
    9043.386     51.004   3.840  9.45765E-01  9.92082E-01 -4.63176E-02
    9044.563     52.180   3.880  9.52944E-01  9.91844E-01 -3.88997E-02
    9045.751     53.369   3.920  9.60881E-01  9.91652E-01 -3.07712E-02
    9046.952     54.570   3.960  9.69311E-01  9.91529E-01 -2.22179E-02
    9048.165     55.783   4.000  9.77847E-01  9.91475E-01 -1.36275E-02
    9049.391     57.008   4.040  9.86164E-01  9.91444E-01 -5.27963E-03
    9050.628     58.246   4.080  9.94229E-01  9.91478E-01  2.75059E-03
    9051.878     59.496   4.120  1.00205E+00  9.91558E-01  1.04880E-02
    9053.140     60.757   4.160  1.00963E+00  9.91679E-01  1.79486E-02
    9054.414     62.031   4.200  1.01690E+00  9.91865E-01  2.50393E-02
    9055.700     63.318   4.240  1.02364E+00  9.92073E-01  3.15654E-02
    9056.999     64.616   4.280  1.02967E+00  9.92342E-01  3.73234E-02
    9058.309     65.927   4.320  1.03482E+00  9.92649E-01  4.21721E-02
    9059.632     67.250   4.360  1.03899E+00  9.92971E-01  4.60177E-02
    9060.967     68.585   4.400  1.04212E+00  9.93329E-01  4.87884E-02
    9062.314     69.932   4.440  1.04429E+00  9.93723E-01  5.05644E-02
    9063.674     71.291   4.480  1.04564E+00  9.94150E-01  5.14896E-02
    9065.045     72.663   4.520  1.04635E+00  9.94587E-01  5.17657E-02
    9066.429     74.047   4.560  1.04666E+00  9.95055E-01  5.16041E-02
    9067.825     75.443   4.600  1.04663E+00  9.95527E-01  5.11043E-02
    9069.233     76.851   4.640  1.04620E+00  9.96006E-01  5.01979E-02
    9070.654     78.271   4.680  1.04525E+00  9.96512E-01  4.87334E-02
    9072.086     79.704   4.720  1.04358E+00  9.97021E-01  4.65643E-02
    9073.531     81.148   4.760  1.04109E+00  9.97530E-01  4.35570E-02
    9074.988     82.605   4.800  1.03765E+00  9.98039E-01  3.96131E-02
    9076.457     84.075   4.840  1.03322E+00  9.98546E-01  3.46726E-02
    9077.938     85.556   4.880  1.02781E+00  9.99052E-01  2.87629E-02
    9079.432     87.049   4.920  1.02160E+00  9.99551E-01  2.20470E-02
    9080.937     88.555   4.960  1.01482E+00  1.00002E+00  1.47967E-02
    9082.455     90.073   5.000  1.00787E+00  1.00049E+00  7.38009E-03
    9083.985     91.603   5.040  1.00124E+00  1.00094E+00  2.94540E-04
    9085.528     93.145   5.080  9.95456E-01  1.00137E+00 -5.91296E-03
    9087.082     94.700   5.120  9.90983E-01  1.00178E+00 -1.08001E-02
    9088.649     96.266   5.160  9.87926E-01  1.00216E+00 -1.42366E-02
    9090.228     97.845   5.200  9.86094E-01  1.00251E+00 -1.64113E-02
    9091.819     99.436   5.240  9.85099E-01  1.00283E+00 -1.77343E-02
    9093.422    101.040   5.280  9.84401E-01  1.00310E+00 -1.87008E-02
    9095.037    102.655   5.320  9.83608E-01  1.00335E+00 -1.97468E-02
    9096.665    104.283   5.360  9.82461E-01  1.00357E+00 -2.11107E-02
    9098.305    105.922   5.400  9.80964E-01  1.00377E+00 -2.28078E-02
    9099.957    107.575   5.440  9.79172E-01  1.00391E+00 -2.47369E-02
    9101.621    109.239   5.480  9.77248E-01  1.00401E+00 -2.67580E-02
    9103.297    110.915   5.520  9.75402E-01  1.00408E+00 -2.86827E-02
    9104.986    112.604   5.560  9.73792E-01  1.00410E+00 -3.03084E-02
    9106.687    114.304   5.600  9.72634E-01  1.00408E+00 -3.14415E-02
    9108.400    116.017   5.640  9.72189E-01  1.00403E+00 -3.18430E-02
    9110.125    117.743   5.680  9.72788E-01  1.00393E+00 -3.11398E-02
    9111.862    119.480   5.720  9.74910E-01  1.00380E+00 -2.88948E-02
    9113.612    121.229   5.760  9.78759E-01  1.00362E+00 -2.48619E-02
    9115.374    122.991   5.800  9.84139E-01  1.00342E+00 -1.92800E-02
    9117.148    124.765   5.840  9.90209E-01  1.00316E+00 -1.29473E-02
    9118.934    126.551   5.880  9.95919E-01  1.00288E+00 -6.95930E-03
    9120.732    128.350   5.920  1.00029E+00  1.00254E+00 -2.24867E-03
    9122.542    130.160   5.960  1.00285E+00  1.00219E+00  6.58829E-04
    9124.365    131.983   6.000  1.00351E+00  1.00178E+00  1.72995E-03
