# # comment:                                                     FEFF 9.9.1  
# # Source:
# # Structure
# # Reduced
# # space
# # abc:
# # angles:
# # sites:
# # POT  SCF 100  7.0000   0, screened core-hole, AFOLP (folp(0)= 1.150)
# # Abs   Z=29 Rmt= 1.043 Rnm= 1.284 K  shell
# # Pot 1 Z=39 Rmt= 1.538 Rnm= 1.670
# # Pot 2 Z=29 Rmt= 1.022 Rnm= 1.269
# # Pot 3 Z= 8 Rmt= 0.917 Rnm= 1.148
# # Gam_ch=1.729E+00 H-L exch Vi= 0.000E+00 Vr= 0.000E+00
# # Mu=-7.901E+00eV kf=2.104E+00 Vint=-1.322E+01eV Rs_int= 1.723
# FMS rfms= 9.0000
# # PATH  Rmax=-1.000,  Keep_limit= 0.00, Heap_limit 0.00  Pwcrit= 2.50%
#  S02=0.950  Temp=   0.00  Debye_temp=   0.00  Global_sig2= 0.00000
#  Energy zero shift, vr, vi    0.00000E+00   0.00000E+00
#  Curved wave amplitude ratio filter   4.000%
#     file         sig2 tot  cw amp ratio   deg  nlegs   reff  inp sig2
#     0/   0 paths used
#  xsedge+ 50, used to normalize mu           2.4737E-04
#  -----------------------------------------------------------------------
#  omega    e    k    mu    mu0     chi     @#
    8983.488    -11.711  -1.000  3.13287E-02  4.58716E-02 -1.45429E-02
    8983.787    -11.412  -0.960  3.27445E-02  4.88476E-02 -1.61032E-02
    8984.073    -11.126  -0.920  3.42406E-02  5.21206E-02 -1.78800E-02
    8984.348    -10.851  -0.880  3.58215E-02  5.57312E-02 -1.99096E-02
    8984.610    -10.589  -0.840  3.74914E-02  5.97261E-02 -2.22347E-02
    8984.860    -10.339  -0.800  3.92543E-02  6.41594E-02 -2.49051E-02
    8985.098    -10.101  -0.760  4.11137E-02  6.90924E-02 -2.79787E-02
    8985.323     -9.876  -0.720  4.30724E-02  7.45942E-02 -3.15218E-02
    8985.536     -9.663  -0.680  4.51321E-02  8.07400E-02 -3.56079E-02
    8985.738     -9.461  -0.640  4.72930E-02  8.76087E-02 -4.03157E-02
    8985.927     -9.272  -0.600  4.95531E-02  9.52768E-02 -4.57237E-02
    8986.103     -9.096  -0.560  5.19070E-02  1.03808E-01 -5.19013E-02
    8986.268     -8.931  -0.520  5.43450E-02  1.13239E-01 -5.88938E-02
    8986.420     -8.779  -0.480  5.68519E-02  1.23554E-01 -6.67023E-02
    8986.561     -8.638  -0.440  5.94048E-02  1.34665E-01 -7.52607E-02
    8986.689     -8.510  -0.400  6.19727E-02  1.46388E-01 -8.44152E-02
    8986.804     -8.395  -0.360  6.45159E-02  1.58434E-01 -9.39179E-02
    8986.908     -8.291  -0.320  6.69879E-02  1.70430E-01 -1.03442E-01
    8987.000     -8.200  -0.280  6.93376E-02  1.81961E-01 -1.12623E-01
    8987.079     -8.120  -0.240  7.15135E-02  1.92620E-01 -1.21107E-01
    8987.146     -8.053  -0.200  7.34661E-02  2.02065E-01 -1.28599E-01
    8987.201     -7.998  -0.160  7.51501E-02  2.10034E-01 -1.34884E-01
    8987.243     -7.956  -0.120  7.65255E-02  2.16354E-01 -1.39829E-01
    8987.274     -7.925  -0.080  7.75602E-02  2.20921E-01 -1.43361E-01
    8987.298     -7.901   0.000  7.84778E-02  2.24601E-01 -1.46123E-01
    8987.353     -7.846   0.120  8.06883E-02  2.32920E-01 -1.52232E-01
    8987.396     -7.803   0.160  8.22905E-02  2.39421E-01 -1.57130E-01
    8987.451     -7.748   0.200  8.43374E-02  2.47772E-01 -1.63434E-01
    8987.518     -7.681   0.240  8.68496E-02  2.57904E-01 -1.71055E-01
    8987.597     -7.602   0.280  8.98577E-02  2.69678E-01 -1.79820E-01
    8987.688     -7.511   0.320  9.34251E-02  2.82882E-01 -1.89457E-01
    8987.792     -7.407   0.360  9.76358E-02  2.97236E-01 -1.99601E-01
    8987.908     -7.291   0.400  1.02623E-01  3.12445E-01 -2.09822E-01
    8988.036     -7.163   0.440  1.08576E-01  3.28230E-01 -2.19654E-01
    8988.176     -7.023   0.480  1.15772E-01  3.44378E-01 -2.28606E-01
    8988.328     -6.871   0.520  1.24602E-01  3.60753E-01 -2.36151E-01
    8988.493     -6.706   0.560  1.35592E-01  3.77290E-01 -2.41698E-01
    8988.670     -6.529   0.600  1.49536E-01  3.93981E-01 -2.44445E-01
    8988.859     -6.340   0.640  1.67501E-01  4.10858E-01 -2.43357E-01
    8989.060     -6.139   0.680  1.91013E-01  4.27954E-01 -2.36941E-01
    8989.273     -5.926   0.720  2.22065E-01  4.45325E-01 -2.23260E-01
    8989.499     -5.700   0.760  2.62820E-01  4.63003E-01 -2.00184E-01
    8989.737     -5.462   0.800  3.14218E-01  4.81017E-01 -1.66799E-01
    8989.987     -5.213   0.840  3.72313E-01  4.99402E-01 -1.27089E-01
    8990.249     -4.950   0.880  4.24071E-01  5.18144E-01 -9.40734E-02
    8990.523     -4.676   0.920  4.51991E-01  5.37241E-01 -8.52498E-02
    8990.810     -4.390   0.960  4.50694E-01  5.56682E-01 -1.05988E-01
    8991.108     -4.091   1.000  4.32460E-01  5.76446E-01 -1.43986E-01
    8991.419     -3.780   1.040  4.12299E-01  5.96487E-01 -1.84188E-01
    8991.742     -3.457   1.080  3.97156E-01  6.16751E-01 -2.19595E-01
    8992.077     -3.122   1.120  3.87792E-01  6.37201E-01 -2.49409E-01
    8992.425     -2.774   1.160  3.83448E-01  6.57774E-01 -2.74326E-01
    8992.785     -2.414   1.200  3.82815E-01  6.78404E-01 -2.95589E-01
    8993.156     -2.043   1.240  3.84977E-01  6.99022E-01 -3.14044E-01
    8993.541     -1.659   1.280  3.91726E-01  7.19577E-01 -3.27851E-01
    8993.937     -1.262   1.320  4.06110E-01  7.39956E-01 -3.33846E-01
    8994.345     -0.854   1.360  4.30527E-01  7.60147E-01 -3.29620E-01
    8994.766     -0.433   1.400  4.66631E-01  7.80035E-01 -3.13404E-01
    8995.199     -0.000   1.440  5.15559E-01  7.99547E-01 -2.83988E-01
    8995.644      0.445   1.480  5.75012E-01  8.18651E-01 -2.43639E-01
    8996.101      0.902   1.520  6.40803E-01  8.37256E-01 -1.96453E-01
    8996.570      1.371   1.560  7.14597E-01  8.55312E-01 -1.40715E-01
    8997.052      1.853   1.600  7.88455E-01  8.72752E-01 -8.42965E-02
    8997.546      2.346   1.640  8.31512E-01  8.89531E-01 -5.80189E-02
    8998.052      2.852   1.680  8.30984E-01  9.05607E-01 -7.46228E-02
    8998.570      3.371   1.720  8.18620E-01  9.20921E-01 -1.02301E-01
    8999.100      3.901   1.760  8.23824E-01  9.35479E-01 -1.11654E-01
    8999.643      4.443   1.800  8.47380E-01  9.49247E-01 -1.01866E-01
    9000.197      4.998   1.840  8.74911E-01  9.62173E-01 -8.72617E-02
    9000.764      5.565   1.880  8.91375E-01  9.74251E-01 -8.28759E-02
    9001.343      6.144   1.920  8.91560E-01  9.85499E-01 -9.39384E-02
    9001.935      6.736   1.960  8.79152E-01  9.95894E-01 -1.16742E-01
    9002.538      7.339   2.000  8.62531E-01  1.00544E+00 -1.42908E-01
    9003.154      7.955   2.040  8.51705E-01  1.01416E+00 -1.62456E-01
    9003.782      8.583   2.080  8.51967E-01  1.02204E+00 -1.70077E-01
    9004.422      9.223   2.120  8.62080E-01  1.02914E+00 -1.67055E-01
    9005.074      9.875   2.160  8.79550E-01  1.03545E+00 -1.55898E-01
    9005.739     10.539   2.200  9.04857E-01  1.04097E+00 -1.36117E-01
    9006.415     11.216   2.240  9.40174E-01  1.04579E+00 -1.05615E-01
    9007.104     11.905   2.280  9.86540E-01  1.04988E+00 -6.33440E-02
    9007.805     12.606   2.320  1.04226E+00  1.05332E+00 -1.10614E-02
    9008.518     13.319   2.360  1.10166E+00  1.05611E+00  4.55473E-02
    9009.244     14.045   2.400  1.15182E+00  1.05831E+00  9.35061E-02
    9009.981     14.782   2.440  1.18670E+00  1.05992E+00  1.26777E-01
    9010.731     15.532   2.480  1.22414E+00  1.06101E+00  1.63134E-01
    9011.493     16.294   2.520  1.26341E+00  1.06159E+00  2.01820E-01
    9012.267     17.068   2.560  1.27945E+00  1.06170E+00  2.17745E-01
    9013.054     17.855   2.600  1.27972E+00  1.06140E+00  2.18323E-01
    9013.852     18.653   2.640  1.27622E+00  1.06071E+00  2.15513E-01
    9014.663     19.464   2.680  1.27250E+00  1.05963E+00  2.12867E-01
    9015.486     20.287   2.720  1.26865E+00  1.05823E+00  2.10420E-01
    9016.321     21.122   2.760  1.26366E+00  1.05654E+00  2.07123E-01
    9017.169     21.969   2.800  1.25630E+00  1.05459E+00  2.01705E-01
    9018.028     22.829   2.840  1.24498E+00  1.05238E+00  1.92602E-01
    9018.900     23.701   2.880  1.22816E+00  1.04998E+00  1.78171E-01
    9019.784     24.585   2.920  1.20472E+00  1.04739E+00  1.57328E-01
    9020.680     25.481   2.960  1.17558E+00  1.04464E+00  1.30944E-01
    9021.588     26.389   3.000  1.14206E+00  1.04173E+00  1.00332E-01
    9022.509     27.309   3.040  1.10715E+00  1.03873E+00  6.84204E-02
    9023.441     28.242   3.080  1.07381E+00  1.03564E+00  3.81709E-02
    9024.386     29.187   3.120  1.04411E+00  1.03248E+00  1.16296E-02
    9025.343     30.144   3.160  1.01911E+00  1.02926E+00 -1.01558E-02
    9026.312     31.113   3.200  9.99370E-01  1.02601E+00 -2.66357E-02
    9027.294     32.095   3.240  9.84757E-01  1.02275E+00 -3.79930E-02
    9028.288     33.088   3.280  9.74824E-01  1.01949E+00 -4.46648E-02
    9029.293     34.094   3.320  9.69213E-01  1.01623E+00 -4.70134E-02
    9030.311     35.112   3.360  9.67558E-01  1.01298E+00 -4.54220E-02
    9031.342     36.143   3.400  9.69321E-01  1.00976E+00 -4.04401E-02
    9032.384     37.185   3.440  9.73689E-01  1.00661E+00 -3.29205E-02
    9033.439     38.240   3.480  9.79517E-01  1.00351E+00 -2.39971E-02
    9034.505     39.306   3.520  9.85292E-01  1.00049E+00 -1.51972E-02
    9035.584     40.385   3.560  9.89481E-01  9.97536E-01 -8.05494E-03
    9036.676     41.477   3.600  9.90859E-01  9.94644E-01 -3.78478E-03
    9037.779     42.580   3.640  9.88939E-01  9.91860E-01 -2.92098E-03
    9038.895     43.695   3.680  9.83685E-01  9.89180E-01 -5.49518E-03
    9040.022     44.823   3.720  9.75422E-01  9.86587E-01 -1.11647E-02
    9041.162     45.963   3.760  9.64728E-01  9.84096E-01 -1.93679E-02
    9042.314     47.115   3.800  9.52358E-01  9.81743E-01 -2.93856E-02
    9043.479     48.280   3.840  9.39063E-01  9.79477E-01 -4.04137E-02
    9044.655     49.456   3.880  9.25817E-01  9.77330E-01 -5.15133E-02
    9045.844     50.645   3.920  9.13688E-01  9.75303E-01 -6.16144E-02
    9047.045     51.846   3.960  9.03706E-01  9.73427E-01 -6.97213E-02
    9048.258     53.059   4.000  8.96498E-01  9.71651E-01 -7.51528E-02
    9049.483     54.284   4.040  8.92379E-01  9.70014E-01 -7.76351E-02
    9050.721     55.522   4.080  8.91203E-01  9.68487E-01 -7.72841E-02
    9051.970     56.771   4.120  8.92490E-01  9.67099E-01 -7.46095E-02
    9053.232     58.033   4.160  8.95764E-01  9.65860E-01 -7.00960E-02
    9054.506     59.307   4.200  9.00673E-01  9.64724E-01 -6.40511E-02
    9055.793     60.594   4.240  9.07127E-01  9.63733E-01 -5.66056E-02
    9057.091     61.892   4.280  9.14961E-01  9.62867E-01 -4.79062E-02
    9058.402     63.203   4.320  9.23836E-01  9.62124E-01 -3.82879E-02
    9059.725     64.525   4.360  9.33110E-01  9.61501E-01 -2.83910E-02
    9061.060     65.860   4.400  9.41979E-01  9.61002E-01 -1.90229E-02
    9062.407     67.208   4.440  9.49806E-01  9.60625E-01 -1.08191E-02
    9063.766     68.567   4.480  9.56356E-01  9.60389E-01 -4.03345E-03
    9065.138     69.939   4.520  9.61739E-01  9.60252E-01  1.48656E-03
    9066.522     71.322   4.560  9.66338E-01  9.60234E-01  6.10378E-03
    9067.917     72.718   4.600  9.70399E-01  9.60333E-01  1.00663E-02
    9069.326     74.127   4.640  9.73920E-01  9.60547E-01  1.33725E-02
    9070.746     75.547   4.680  9.76702E-01  9.60854E-01  1.58480E-02
    9072.179     76.979   4.720  9.78604E-01  9.61274E-01  1.73295E-02
    9073.623     78.424   4.760  9.79640E-01  9.61806E-01  1.78339E-02
    9075.080     79.881   4.800  9.80050E-01  9.62426E-01  1.76247E-02
    9076.549     81.350   4.840  9.80176E-01  9.63130E-01  1.70460E-02
    9078.031     82.832   4.880  9.80302E-01  9.63917E-01  1.63846E-02
    9079.524     84.325   4.920  9.80616E-01  9.64807E-01  1.58097E-02
    9081.030     85.831   4.960  9.81123E-01  9.65754E-01  1.53687E-02
    9082.548     87.349   5.000  9.81837E-01  9.66778E-01  1.50597E-02
    9084.078     88.879   5.040  9.82760E-01  9.67874E-01  1.48857E-02
    9085.620     90.421   5.080  9.83921E-01  9.69022E-01  1.48989E-02
    9087.175     91.976   5.120  9.85497E-01  9.70240E-01  1.52570E-02
    9088.741     93.542   5.160  9.87721E-01  9.71502E-01  1.62189E-02
    9090.320     95.121   5.200  9.90911E-01  9.72808E-01  1.81035E-02
    9091.911     96.712   5.240  9.95335E-01  9.74154E-01  2.11806E-02
    9093.514     98.315   5.280  1.00108E+00  9.75560E-01  2.55175E-02
    9095.130     99.931   5.320  1.00774E+00  9.76956E-01  3.07867E-02
    9096.758    101.558   5.360  1.01457E+00  9.78405E-01  3.61659E-02
    9098.397    103.198   5.400  1.02036E+00  9.79841E-01  4.05153E-02
    9100.049    104.850   5.440  1.02412E+00  9.81325E-01  4.27939E-02
    9101.714    106.514   5.480  1.02534E+00  9.82788E-01  4.25516E-02
    9103.390    108.191   5.520  1.02439E+00  9.84249E-01  4.01436E-02
    9105.079    109.879   5.560  1.02225E+00  9.85704E-01  3.65416E-02
    9106.779    111.580   5.600  1.01996E+00  9.87131E-01  3.28283E-02
    9108.492    113.293   5.640  1.01827E+00  9.88571E-01  2.96961E-02
    9110.217    115.018   5.680  1.01708E+00  9.89954E-01  2.71293E-02
    9111.955    116.756   5.720  1.01579E+00  9.91320E-01  2.44712E-02
    9113.704    118.505   5.760  1.01352E+00  9.92645E-01  2.08733E-02
    9115.466    120.267   5.800  1.00980E+00  9.93901E-01  1.58938E-02
    9117.240    122.041   5.840  1.00492E+00  9.95132E-01  9.78671E-03
    9119.026    123.827   5.880  9.99639E-01  9.96287E-01  3.35197E-03
    9120.824    125.625   5.920  9.94911E-01  9.97377E-01 -2.46588E-03
    9122.635    127.436   5.960  9.91420E-01  9.98362E-01 -6.94169E-03
    9124.458    129.259   6.000  9.89349E-01  9.99259E-01 -9.90992E-03
