# # comment:                                                     FEFF 9.9.1  
# # Source:
# # Structure
# # Reduced
# # space
# # abc:
# # angles:
# # sites:
# # POT  SCF 100  7.0000   0, screened core-hole, AFOLP (folp(0)= 1.150)
# # Abs   Z=29 Rmt= 1.221 Rnm= 1.325 K  shell
# # Pot 1 Z=29 Rmt= 1.222 Rnm= 1.326
# # Pot 2 Z=78 Rmt= 1.332 Rnm= 1.464
# # Pot 3 Z= 8 Rmt= 1.029 Rnm= 1.111
# # Gam_ch=1.729E+00 H-L exch Vi= 0.000E+00 Vr= 0.000E+00
# # Mu=-6.682E+00eV kf=2.157E+00 Vint=-1.486E+01eV Rs_int= 1.682
# FMS rfms= 9.0000
# # PATH  Rmax=-1.000,  Keep_limit= 0.00, Heap_limit 0.00  Pwcrit= 2.50%
#  S02=0.950  Temp=   0.00  Debye_temp=   0.00  Global_sig2= 0.00000
#  Energy zero shift, vr, vi    0.00000E+00   0.00000E+00
#  Curved wave amplitude ratio filter   4.000%
#     file         sig2 tot  cw amp ratio   deg  nlegs   reff  inp sig2
#     0/   0 paths used
#  xsedge+ 50, used to normalize mu           2.4394E-04
#  -----------------------------------------------------------------------
#  omega    e    k    mu    mu0     chi     @#
    8983.526    -10.492  -1.000  4.03630E-02  5.65222E-02 -1.61592E-02
    8983.825    -10.194  -0.960  4.26527E-02  6.06671E-02 -1.80145E-02
    8984.112     -9.907  -0.920  4.51363E-02  6.52739E-02 -2.01377E-02
    8984.386     -9.633  -0.880  4.78353E-02  7.04105E-02 -2.25751E-02
    8984.648     -9.371  -0.840  5.07736E-02  7.61557E-02 -2.53821E-02
    8984.898     -9.121  -0.800  5.39772E-02  8.26011E-02 -2.86239E-02
    8985.136     -8.883  -0.760  5.74742E-02  8.98514E-02 -3.23772E-02
    8985.361     -8.657  -0.720  6.12945E-02  9.80253E-02 -3.67308E-02
    8985.575     -8.444  -0.680  6.54682E-02  1.07253E-01 -4.17847E-02
    8985.776     -8.243  -0.640  7.00246E-02  1.17672E-01 -4.76473E-02
    8985.965     -8.054  -0.600  7.49889E-02  1.29417E-01 -5.44282E-02
    8986.142     -7.877  -0.560  8.03784E-02  1.42604E-01 -6.22256E-02
    8986.306     -7.713  -0.520  8.61959E-02  1.57301E-01 -7.11047E-02
    8986.459     -7.560  -0.480  9.24225E-02  1.73491E-01 -8.10689E-02
    8986.599     -7.420  -0.440  9.90087E-02  1.91035E-01 -9.20259E-02
    8986.727     -7.292  -0.400  1.05867E-01  2.09625E-01 -1.03758E-01
    8986.843     -7.176  -0.360  1.12868E-01  2.28785E-01 -1.15917E-01
    8986.946     -7.072  -0.320  1.19846E-01  2.47891E-01 -1.28045E-01
    8987.038     -6.981  -0.280  1.26609E-01  2.66253E-01 -1.39643E-01
    8987.117     -6.902  -0.240  1.32958E-01  2.83205E-01 -1.50247E-01
    8987.184     -6.835  -0.200  1.38698E-01  2.98190E-01 -1.59491E-01
    8987.239     -6.780  -0.160  1.43658E-01  3.10798E-01 -1.67140E-01
    8987.281     -6.737  -0.120  1.47687E-01  3.20768E-01 -1.73080E-01
    8987.312     -6.707  -0.080  1.50670E-01  3.27952E-01 -1.77282E-01
    8987.336     -6.682   0.000  1.53161E-01  3.33726E-01 -1.80564E-01
    8987.391     -6.627   0.120  1.58933E-01  3.46745E-01 -1.87812E-01
    8987.434     -6.585   0.160  1.63477E-01  3.56872E-01 -1.93395E-01
    8987.489     -6.530   0.200  1.69468E-01  3.69790E-01 -2.00322E-01
    8987.556     -6.463   0.240  1.77061E-01  3.85350E-01 -2.08289E-01
    8987.635     -6.384   0.280  1.86445E-01  4.03229E-01 -2.16784E-01
    8987.726     -6.292   0.320  1.97877E-01  4.23003E-01 -2.25126E-01
    8987.830     -6.189   0.360  2.11645E-01  4.44078E-01 -2.32432E-01
    8987.946     -6.073   0.400  2.28142E-01  4.65842E-01 -2.37700E-01
    8988.074     -5.945   0.440  2.47877E-01  4.87797E-01 -2.39920E-01
    8988.214     -5.805   0.480  2.71264E-01  5.09462E-01 -2.38198E-01
    8988.367     -5.652   0.520  2.98561E-01  5.30592E-01 -2.32031E-01
    8988.531     -5.488   0.560  3.29410E-01  5.51019E-01 -2.21609E-01
    8988.708     -5.311   0.600  3.62428E-01  5.70728E-01 -2.08299E-01
    8988.897     -5.122   0.640  3.94907E-01  5.89755E-01 -1.94848E-01
    8989.098     -4.921   0.680  4.23398E-01  6.08172E-01 -1.84773E-01
    8989.311     -4.707   0.720  4.45193E-01  6.26045E-01 -1.80852E-01
    8989.537     -4.482   0.760  4.59740E-01  6.43499E-01 -1.83759E-01
    8989.775     -4.244   0.800  4.68517E-01  6.60547E-01 -1.92030E-01
    8990.025     -3.994   0.840  4.73754E-01  6.77312E-01 -2.03557E-01
    8990.287     -3.732   0.880  4.75693E-01  6.93777E-01 -2.18084E-01
    8990.561     -3.458   0.920  4.70557E-01  7.09995E-01 -2.39438E-01
    8990.848     -3.171   0.960  4.51605E-01  7.25987E-01 -2.74382E-01
    8991.146     -2.872   1.000  4.17194E-01  7.41740E-01 -3.24546E-01
    8991.457     -2.561   1.040  3.77447E-01  7.57254E-01 -3.79807E-01
    8991.780     -2.238   1.080  3.45589E-01  7.72500E-01 -4.26911E-01
    8992.116     -1.903   1.120  3.27853E-01  7.87465E-01 -4.59612E-01
    8992.463     -1.556   1.160  3.24312E-01  8.02131E-01 -4.77819E-01
    8992.823     -1.196   1.200  3.33273E-01  8.16475E-01 -4.83202E-01
    8993.195     -0.824   1.240  3.53537E-01  8.30452E-01 -4.76915E-01
    8993.579     -0.440   1.280  3.84147E-01  8.44034E-01 -4.59886E-01
    8993.975     -0.044   1.320  4.22493E-01  8.57194E-01 -4.34701E-01
    8994.383      0.365   1.360  4.62663E-01  8.69905E-01 -4.07243E-01
    8994.804      0.785   1.400  4.98418E-01  8.82158E-01 -3.83740E-01
    8995.237      1.218   1.440  5.29915E-01  8.93905E-01 -3.63991E-01
    8995.682      1.663   1.480  5.64836E-01  9.05141E-01 -3.40304E-01
    8996.139      2.120   1.520  6.12654E-01  9.15838E-01 -3.03184E-01
    8996.608      2.590   1.560  6.79575E-01  9.25971E-01 -2.46396E-01
    8997.090      3.071   1.600  7.68202E-01  9.35560E-01 -1.67358E-01
    8997.584      3.565   1.640  8.82897E-01  9.44581E-01 -6.16831E-02
    8998.090      4.071   1.680  1.02947E+00  9.53035E-01  7.64384E-02
    8998.608      4.589   1.720  1.20571E+00  9.60904E-01  2.44802E-01
    8999.138      5.119   1.760  1.39196E+00  9.68210E-01  4.23748E-01
    8999.681      5.662   1.800  1.54859E+00  9.74980E-01  5.73606E-01
    9000.235      6.217   1.840  1.62938E+00  9.81175E-01  6.48204E-01
    9000.802      6.784   1.880  1.62522E+00  9.86825E-01  6.38394E-01
    9001.381      7.363   1.920  1.57957E+00  9.91958E-01  5.87613E-01
    9001.973      7.954   1.960  1.53335E+00  9.96583E-01  5.36770E-01
    9002.576      8.558   2.000  1.49720E+00  1.00071E+00  4.96491E-01
    9003.192      9.173   2.040  1.47278E+00  1.00437E+00  4.68416E-01
    9003.820      9.801   2.080  1.44430E+00  1.00757E+00  4.36728E-01
    9004.460     10.441   2.120  1.36061E+00  1.01035E+00  3.50259E-01
    9005.112     11.094   2.160  1.22949E+00  1.01271E+00  2.16780E-01
    9005.777     11.758   2.200  1.11790E+00  1.01472E+00  1.03179E-01
    9006.453     12.435   2.240  1.05235E+00  1.01634E+00  3.60175E-02
    9007.142     13.123   2.280  1.02884E+00  1.01764E+00  1.11965E-02
    9007.843     13.825   2.320  1.03935E+00  1.01862E+00  2.07260E-02
    9008.556     14.538   2.360  1.06684E+00  1.01933E+00  4.75043E-02
    9009.282     15.263   2.400  1.08720E+00  1.01977E+00  6.74284E-02
    9010.019     16.001   2.440  1.08808E+00  1.01997E+00  6.81104E-02
    9010.769     16.751   2.480  1.07365E+00  1.01995E+00  5.37033E-02
    9011.531     17.513   2.520  1.04935E+00  1.01972E+00  2.96299E-02
    9012.305     18.287   2.560  1.02673E+00  1.01933E+00  7.39555E-03
    9013.092     19.073   2.600  1.01831E+00  1.01876E+00 -4.53251E-04
    9013.890     19.872   2.640  1.01942E+00  1.01808E+00  1.33193E-03
    9014.701     20.683   2.680  1.02289E+00  1.01726E+00  5.62803E-03
    9015.524     21.505   2.720  1.02508E+00  1.01634E+00  8.73266E-03
    9016.359     22.341   2.760  1.02416E+00  1.01534E+00  8.81787E-03
    9017.207     23.188   2.800  1.01971E+00  1.01428E+00  5.42219E-03
    9018.066     24.047   2.840  1.01257E+00  1.01315E+00 -5.87287E-04
    9018.938     24.919   2.880  1.00392E+00  1.01198E+00 -8.06040E-03
    9019.822     25.803   2.920  9.93877E-01  1.01080E+00 -1.69189E-02
    9020.718     26.699   2.960  9.81937E-01  1.00958E+00 -2.76422E-02
    9021.626     27.608   3.000  9.67763E-01  1.00838E+00 -4.06155E-02
    9022.547     28.528   3.040  9.51609E-01  1.00716E+00 -5.55493E-02
    9023.479     29.461   3.080  9.34472E-01  1.00596E+00 -7.14912E-02
    9024.424     30.406   3.120  9.17496E-01  1.00478E+00 -8.72820E-02
    9025.381     31.363   3.160  9.01198E-01  1.00363E+00 -1.02430E-01
    9026.351     32.332   3.200  8.85682E-01  1.00254E+00 -1.16856E-01
    9027.332     33.313   3.240  8.71162E-01  1.00147E+00 -1.30307E-01
    9028.326     34.307   3.280  8.58206E-01  1.00047E+00 -1.42260E-01
    9029.332     35.313   3.320  8.47669E-01  9.99508E-01 -1.51839E-01
    9030.350     36.331   3.360  8.40520E-01  9.98599E-01 -1.58079E-01
    9031.380     37.361   3.400  8.37442E-01  9.97761E-01 -1.60319E-01
    9032.422     38.404   3.440  8.38546E-01  9.96997E-01 -1.58451E-01
    9033.477     39.458   3.480  8.43799E-01  9.96288E-01 -1.52489E-01
    9034.544     40.525   3.520  8.53161E-01  9.95676E-01 -1.42515E-01
    9035.623     41.604   3.560  8.66263E-01  9.95119E-01 -1.28857E-01
    9036.714     42.695   3.600  8.82731E-01  9.94640E-01 -1.11909E-01
    9037.817     43.798   3.640  9.01980E-01  9.94217E-01 -9.22368E-02
    9038.933     44.914   3.680  9.23349E-01  9.93893E-01 -7.05446E-02
    9040.060     46.042   3.720  9.46040E-01  9.93648E-01 -4.76081E-02
    9041.200     47.182   3.760  9.69390E-01  9.93459E-01 -2.40693E-02
    9042.353     48.334   3.800  9.92478E-01  9.93347E-01 -8.69373E-04
    9043.517     49.498   3.840  1.01403E+00  9.93313E-01  2.07174E-02
    9044.693     50.675   3.880  1.03281E+00  9.93356E-01  3.94528E-02
    9045.882     51.863   3.920  1.04791E+00  9.93475E-01  5.44320E-02
    9047.083     53.064   3.960  1.05890E+00  9.93646E-01  6.52517E-02
    9048.296     54.277   4.000  1.06608E+00  9.93890E-01  7.21893E-02
    9049.521     55.503   4.040  1.07035E+00  9.94184E-01  7.61623E-02
    9050.759     56.740   4.080  1.07302E+00  9.94550E-01  7.84746E-02
    9052.009     57.990   4.120  1.07532E+00  9.94985E-01  8.03346E-02
    9053.270     59.252   4.160  1.07787E+00  9.95445E-01  8.24236E-02
    9054.544     60.526   4.200  1.08054E+00  9.95969E-01  8.45752E-02
    9055.831     61.812   4.240  1.08271E+00  9.96537E-01  8.61761E-02
    9057.129     63.110   4.280  1.08400E+00  9.97146E-01  8.68522E-02
    9058.440     64.421   4.320  1.08464E+00  9.97795E-01  8.68404E-02
    9059.763     65.744   4.360  1.08508E+00  9.98481E-01  8.65978E-02
    9061.098     67.079   4.400  1.08539E+00  9.99202E-01  8.61898E-02
    9062.445     68.426   4.440  1.08493E+00  9.99935E-01  8.49930E-02
    9063.804     69.786   4.480  1.08242E+00  1.00070E+00  8.17193E-02
    9065.176     71.157   4.520  1.07653E+00  1.00147E+00  7.50588E-02
    9066.560     72.541   4.560  1.06664E+00  1.00226E+00  6.43790E-02
    9067.956     73.937   4.600  1.05314E+00  1.00304E+00  5.00949E-02
    9069.364     75.345   4.640  1.03751E+00  1.00384E+00  3.36652E-02
    9070.784     76.765   4.680  1.02169E+00  1.00464E+00  1.70526E-02
    9072.217     78.198   4.720  1.00756E+00  1.00544E+00  2.12122E-03
    9073.661     79.643   4.760  9.96486E-01  1.00621E+00 -9.72042E-03
    9075.118     81.100   4.800  9.89259E-01  1.00697E+00 -1.77101E-02
    9076.587     82.569   4.840  9.85918E-01  1.00772E+00 -2.18032E-02
    9078.069     84.050   4.880  9.85895E-01  1.00844E+00 -2.25465E-02
    9079.562     85.544   4.920  9.88365E-01  1.00915E+00 -2.07830E-02
    9081.068     87.049   4.960  9.92435E-01  1.00980E+00 -1.73620E-02
    9082.586     88.567   5.000  9.97278E-01  1.01043E+00 -1.31535E-02
    9084.116     90.097   5.040  1.00188E+00  1.01105E+00 -9.16576E-03
    9085.658     91.640   5.080  1.00523E+00  1.01160E+00 -6.37043E-03
    9087.213     93.194   5.120  1.00687E+00  1.01211E+00 -5.24316E-03
    9088.779     94.761   5.160  1.00687E+00  1.01258E+00 -5.71280E-03
    9090.358     96.340   5.200  1.00536E+00  1.01301E+00 -7.64984E-03
    9091.949     97.931   5.240  1.00217E+00  1.01339E+00 -1.12219E-02
    9093.553     99.534   5.280  9.97381E-01  1.01372E+00 -1.63427E-02
    9095.168    101.149   5.320  9.91721E-01  1.01399E+00 -2.22689E-02
    9096.796    102.777   5.360  9.86401E-01  1.01421E+00 -2.78080E-02
    9098.435    104.417   5.400  9.82435E-01  1.01438E+00 -3.19481E-02
    9100.087    106.069   5.440  9.80403E-01  1.01451E+00 -3.41069E-02
    9101.752    107.733   5.480  9.80429E-01  1.01457E+00 -3.41374E-02
    9103.428    109.409   5.520  9.82171E-01  1.01457E+00 -3.24018E-02
    9105.117    111.098   5.560  9.84640E-01  1.01451E+00 -2.98693E-02
    9106.817    112.799   5.600  9.86662E-01  1.01440E+00 -2.77372E-02
    9108.530    114.512   5.640  9.87307E-01  1.01424E+00 -2.69342E-02
    9110.256    116.237   5.680  9.86234E-01  1.01402E+00 -2.77832E-02
    9111.993    117.974   5.720  9.83834E-01  1.01377E+00 -2.99377E-02
    9113.742    119.724   5.760  9.80917E-01  1.01346E+00 -3.25425E-02
    9115.504    121.486   5.800  9.78303E-01  1.01310E+00 -3.47996E-02
    9117.278    123.259   5.840  9.76237E-01  1.01268E+00 -3.64436E-02
    9119.064    125.046   5.880  9.74474E-01  1.01224E+00 -3.77710E-02
    9120.863    126.844   5.920  9.72512E-01  1.01177E+00 -3.92620E-02
    9122.673    128.654   5.960  9.70296E-01  1.01124E+00 -4.09457E-02
    9124.496    130.477   6.000  9.68986E-01  1.01067E+00 -4.16806E-02
