# # comment:                                                     FEFF 9.9.1  
# # Source:
# # Structure
# # Reduced
# # space
# # abc:
# # angles:
# # sites:
# # POT  SCF 100  7.0000   0, screened core-hole, AFOLP (folp(0)= 1.150)
# # Abs   Z=29 Rmt= 1.249 Rnm= 1.317 K  shell
# # Pot 1 Z=27 Rmt= 1.280 Rnm= 1.385
# # Pot 2 Z=29 Rmt= 1.249 Rnm= 1.317
# # Pot 3 Z=15 Rmt= 0.938 Rnm= 1.154
# # Pot 4 Z= 8 Rmt= 0.886 Rnm= 1.044
# # Gam_ch=1.729E+00 H-L exch Vi= 0.000E+00 Vr= 0.000E+00
# # Mu=-8.469E+00eV kf=2.476E+00 Vint=-1.766E+01eV Rs_int= 1.464
# FMS rfms= 9.0000
# # PATH  Rmax=-1.000,  Keep_limit= 0.00, Heap_limit 0.00  Pwcrit= 2.50%
#  S02=0.950  Temp=   0.00  Debye_temp=   0.00  Global_sig2= 0.00000
#  Energy zero shift, vr, vi    0.00000E+00   0.00000E+00
#  Curved wave amplitude ratio filter   4.000%
#     file         sig2 tot  cw amp ratio   deg  nlegs   reff  inp sig2
#     0/   0 paths used
#  xsedge+ 50, used to normalize mu           2.5012E-04
#  -----------------------------------------------------------------------
#  omega    e    k    mu    mu0     chi     @#
    8983.439    -12.279  -1.000  3.00144E-02  4.73238E-02 -1.73094E-02
    8983.738    -11.981  -0.960  3.12782E-02  5.06201E-02 -1.93420E-02
    8984.024    -11.694  -0.920  3.26151E-02  5.42741E-02 -2.16590E-02
    8984.299    -11.420  -0.880  3.40329E-02  5.83379E-02 -2.43050E-02
    8984.561    -11.158  -0.840  3.55402E-02  6.28722E-02 -2.73320E-02
    8984.811    -10.908  -0.800  3.71475E-02  6.79473E-02 -3.07998E-02
    8985.049    -10.670  -0.760  3.88668E-02  7.36438E-02 -3.47770E-02
    8985.274    -10.445  -0.720  4.07121E-02  8.00529E-02 -3.93408E-02
    8985.488    -10.231  -0.680  4.26986E-02  8.72746E-02 -4.45760E-02
    8985.689    -10.030  -0.640  4.48428E-02  9.54148E-02 -5.05720E-02
    8985.878     -9.841  -0.600  4.71604E-02  1.04577E-01 -5.74166E-02
    8986.054     -9.664  -0.560  4.96639E-02  1.14850E-01 -6.51859E-02
    8986.219     -9.500  -0.520  5.23582E-02  1.26285E-01 -7.39270E-02
    8986.371     -9.347  -0.480  5.52344E-02  1.38871E-01 -8.36362E-02
    8986.512     -9.207  -0.440  5.82634E-02  1.52496E-01 -9.42323E-02
    8986.640     -9.079  -0.400  6.13902E-02  1.66924E-01 -1.05534E-01
    8986.755     -8.963  -0.360  6.45336E-02  1.81787E-01 -1.17253E-01
    8986.859     -8.860  -0.320  6.75933E-02  1.96601E-01 -1.29008E-01
    8986.951     -8.768  -0.280  7.04648E-02  2.10834E-01 -1.40369E-01
    8987.030     -8.689  -0.240  7.30557E-02  2.23971E-01 -1.50915E-01
    8987.097     -8.622  -0.200  7.52981E-02  2.35581E-01 -1.60283E-01
    8987.152     -8.567  -0.160  7.71518E-02  2.45349E-01 -1.68197E-01
    8987.194     -8.524  -0.120  7.85995E-02  2.53071E-01 -1.74472E-01
    8987.225     -8.494  -0.080  7.96375E-02  2.58636E-01 -1.78998E-01
    8987.249     -8.469   0.000  8.04805E-02  2.63106E-01 -1.82626E-01
    8987.304     -8.415   0.120  8.23058E-02  2.73186E-01 -1.90880E-01
    8987.347     -8.372   0.160  8.36969E-02  2.81032E-01 -1.97335E-01
    8987.402     -8.317   0.200  8.54094E-02  2.91046E-01 -2.05636E-01
    8987.469     -8.250   0.240  8.73923E-02  3.03093E-01 -2.15700E-01
    8987.548     -8.171   0.280  8.96248E-02  3.16959E-01 -2.27334E-01
    8987.639     -8.079   0.320  9.20297E-02  3.32277E-01 -2.40247E-01
    8987.743     -7.976   0.360  9.45844E-02  3.48620E-01 -2.54036E-01
    8987.859     -7.860   0.400  9.72252E-02  3.65510E-01 -2.68285E-01
    8987.987     -7.732   0.440  1.00027E-01  3.82551E-01 -2.82524E-01
    8988.127     -7.592   0.480  1.03051E-01  3.99421E-01 -2.96371E-01
    8988.279     -7.439   0.520  1.06407E-01  4.15878E-01 -3.09471E-01
    8988.444     -7.275   0.560  1.10287E-01  4.31870E-01 -3.21583E-01
    8988.621     -7.098   0.600  1.14841E-01  4.47352E-01 -3.32511E-01
    8988.810     -6.909   0.640  1.20312E-01  4.62394E-01 -3.42082E-01
    8989.011     -6.708   0.680  1.26794E-01  4.77033E-01 -3.50240E-01
    8989.224     -6.494   0.720  1.34310E-01  4.91384E-01 -3.57073E-01
    8989.450     -6.269   0.760  1.42529E-01  5.05513E-01 -3.62983E-01
    8989.688     -6.031   0.800  1.50965E-01  5.19485E-01 -3.68519E-01
    8989.938     -5.781   0.840  1.59550E-01  5.33391E-01 -3.73841E-01
    8990.200     -5.519   0.880  1.69120E-01  5.47231E-01 -3.78111E-01
    8990.474     -5.245   0.920  1.81098E-01  5.61096E-01 -3.79998E-01
    8990.761     -4.958   0.960  1.96386E-01  5.74984E-01 -3.78598E-01
    8991.059     -4.659   1.000  2.15026E-01  5.88907E-01 -3.73880E-01
    8991.370     -4.349   1.040  2.36892E-01  6.02889E-01 -3.65997E-01
    8991.693     -4.025   1.080  2.62186E-01  6.16925E-01 -3.54739E-01
    8992.029     -3.690   1.120  2.91304E-01  6.31007E-01 -3.39703E-01
    8992.376     -3.343   1.160  3.24702E-01  6.45141E-01 -3.20439E-01
    8992.736     -2.983   1.200  3.62809E-01  6.59310E-01 -2.96501E-01
    8993.107     -2.611   1.240  4.07245E-01  6.73473E-01 -2.66228E-01
    8993.492     -2.227   1.280  4.61787E-01  6.87625E-01 -2.25839E-01
    8993.888     -1.831   1.320  5.25202E-01  7.01741E-01 -1.76540E-01
    8994.296     -1.422   1.360  5.85714E-01  7.15793E-01 -1.30079E-01
    8994.717     -1.002   1.400  6.33717E-01  7.29753E-01 -9.60363E-02
    8995.150     -0.569   1.440  6.67773E-01  7.43611E-01 -7.58383E-02
    8995.595     -0.124   1.480  6.91342E-01  7.57315E-01 -6.59733E-02
    8996.052      0.333   1.520  7.18770E-01  7.70873E-01 -5.21023E-02
    8996.521      0.803   1.560  7.61939E-01  7.84192E-01 -2.22533E-02
    8997.003      1.284   1.600  8.25485E-01  7.97303E-01  2.81825E-02
    8997.497      1.778   1.640  9.16525E-01  8.10172E-01  1.06352E-01
    8998.003      2.284   1.680  1.02846E+00  8.22728E-01  2.05734E-01
    8998.521      2.802   1.720  1.12522E+00  8.34999E-01  2.90219E-01
    8999.051      3.332   1.760  1.16945E+00  8.46933E-01  3.22518E-01
    8999.594      3.875   1.800  1.16255E+00  8.58502E-01  3.04049E-01
    9000.148      4.430   1.840  1.13741E+00  8.69695E-01  2.67712E-01
    9000.715      4.997   1.880  1.12434E+00  8.80507E-01  2.43835E-01
    9001.294      5.576   1.920  1.15357E+00  8.90906E-01  2.62667E-01
    9001.886      6.167   1.960  1.22793E+00  9.00887E-01  3.27039E-01
    9002.489      6.771   2.000  1.29842E+00  9.10424E-01  3.87996E-01
    9003.105      7.386   2.040  1.30655E+00  9.19513E-01  3.87041E-01
    9003.733      8.014   2.080  1.25609E+00  9.28150E-01  3.27939E-01
    9004.373      8.654   2.120  1.19053E+00  9.36333E-01  2.54192E-01
    9005.025      9.306   2.160  1.13534E+00  9.44040E-01  1.91298E-01
    9005.690      9.971   2.200  1.09969E+00  9.51289E-01  1.48396E-01
    9006.366     10.648   2.240  1.08403E+00  9.58062E-01  1.25964E-01
    9007.055     11.336   2.280  1.07984E+00  9.64381E-01  1.15460E-01
    9007.756     12.037   2.320  1.08114E+00  9.70227E-01  1.10915E-01
    9008.469     12.751   2.360  1.08773E+00  9.75645E-01  1.12085E-01
    9009.195     13.476   2.400  1.09784E+00  9.80598E-01  1.17241E-01
    9009.932     14.214   2.440  1.10524E+00  9.85131E-01  1.20113E-01
    9010.682     14.964   2.480  1.09845E+00  9.89229E-01  1.09220E-01
    9011.444     15.726   2.520  1.07166E+00  9.92918E-01  7.87398E-02
    9012.218     16.500   2.560  1.03862E+00  9.96205E-01  4.24184E-02
    9013.005     17.286   2.600  1.01737E+00  9.99098E-01  1.82711E-02
    9013.803     18.085   2.640  1.01285E+00  1.00164E+00  1.12079E-02
    9014.614     18.895   2.680  1.01682E+00  1.00381E+00  1.30065E-02
    9015.437     19.718   2.720  1.01678E+00  1.00567E+00  1.11150E-02
    9016.272     20.554   2.760  1.00550E+00  1.00718E+00 -1.67660E-03
    9017.120     21.401   2.800  9.87966E-01  1.00840E+00 -2.04337E-02
    9017.979     22.260   2.840  9.71068E-01  1.00931E+00 -3.82464E-02
    9018.851     23.132   2.880  9.59580E-01  1.00997E+00 -5.03914E-02
    9019.735     24.016   2.920  9.52034E-01  1.01038E+00 -5.83491E-02
    9020.631     24.912   2.960  9.45671E-01  1.01056E+00 -6.48857E-02
    9021.539     25.820   3.000  9.39476E-01  1.01052E+00 -7.10439E-02
    9022.460     26.741   3.040  9.32996E-01  1.01028E+00 -7.72853E-02
    9023.392     27.674   3.080  9.25826E-01  1.00985E+00 -8.40247E-02
    9024.337     28.619   3.120  9.18036E-01  1.00925E+00 -9.12190E-02
    9025.294     29.576   3.160  9.10027E-01  1.00850E+00 -9.84750E-02
    9026.263     30.545   3.200  9.02453E-01  1.00764E+00 -1.05188E-01
    9027.245     31.526   3.240  8.96207E-01  1.00664E+00 -1.10433E-01
    9028.239     32.520   3.280  8.92366E-01  1.00552E+00 -1.13157E-01
    9029.244     33.526   3.320  8.91246E-01  1.00434E+00 -1.13095E-01
    9030.262     34.544   3.360  8.92764E-01  1.00306E+00 -1.10294E-01
    9031.293     35.574   3.400  8.96739E-01  1.00172E+00 -1.04984E-01
    9032.335     36.616   3.440  9.02701E-01  1.00034E+00 -9.76412E-02
    9033.390     37.671   3.480  9.10278E-01  9.98920E-01 -8.86421E-02
    9034.456     38.738   3.520  9.19234E-01  9.97462E-01 -7.82281E-02
    9035.535     39.817   3.560  9.29262E-01  9.95994E-01 -6.67322E-02
    9036.627     40.908   3.600  9.39741E-01  9.94500E-01 -5.47588E-02
    9037.730     42.011   3.640  9.50227E-01  9.93026E-01 -4.27989E-02
    9038.846     43.127   3.680  9.60328E-01  9.91555E-01 -3.12270E-02
    9039.973     44.255   3.720  9.70011E-01  9.90092E-01 -2.00808E-02
    9041.113     45.395   3.760  9.79581E-01  9.88660E-01 -9.07900E-03
    9042.265     46.547   3.800  9.89326E-01  9.87265E-01  2.06166E-03
    9043.430     47.711   3.840  9.99085E-01  9.85908E-01  1.31772E-02
    9044.606     48.888   3.880  1.00824E+00  9.84591E-01  2.36513E-02
    9045.795     50.076   3.920  1.01591E+00  9.83318E-01  3.25868E-02
    9046.996     51.277   3.960  1.02119E+00  9.82113E-01  3.90755E-02
    9048.209     52.490   4.000  1.02361E+00  9.80955E-01  4.26570E-02
    9049.434     53.716   4.040  1.02338E+00  9.79868E-01  4.35072E-02
    9050.672     54.953   4.080  1.02116E+00  9.78832E-01  4.23322E-02
    9051.921     56.203   4.120  1.01799E+00  9.77870E-01  4.01164E-02
    9053.183     57.465   4.160  1.01491E+00  9.76983E-01  3.79282E-02
    9054.457     58.739   4.200  1.01268E+00  9.76171E-01  3.65104E-02
    9055.744     60.025   4.240  1.01163E+00  9.75436E-01  3.61918E-02
    9057.042     61.323   4.280  1.01177E+00  9.74757E-01  3.70162E-02
    9058.353     62.634   4.320  1.01305E+00  9.74176E-01  3.88777E-02
    9059.676     63.957   4.360  1.01523E+00  9.73649E-01  4.15839E-02
    9061.011     65.292   4.400  1.01806E+00  9.73199E-01  4.48649E-02
    9062.358     66.639   4.440  1.02116E+00  9.72826E-01  4.83372E-02
    9063.717     67.998   4.480  1.02396E+00  9.72531E-01  5.14244E-02
    9065.089     69.370   4.520  1.02563E+00  9.72313E-01  5.33201E-02
    9066.473     70.754   4.560  1.02538E+00  9.72169E-01  5.32091E-02
    9067.869     72.150   4.600  1.02263E+00  9.72079E-01  5.05507E-02
    9069.277     73.558   4.640  1.01735E+00  9.72062E-01  4.52862E-02
    9070.697     74.978   4.680  1.00993E+00  9.72116E-01  3.78181E-02
    9072.130     76.411   4.720  1.00100E+00  9.72223E-01  2.87759E-02
    9073.574     77.856   4.760  9.91261E-01  9.72400E-01  1.88607E-02
    9075.031     79.313   4.800  9.81468E-01  9.72645E-01  8.82306E-03
    9076.500     80.782   4.840  9.72351E-01  9.72914E-01 -5.62505E-04
    9077.982     82.263   4.880  9.64728E-01  9.73247E-01 -8.51899E-03
    9079.475     83.757   4.920  9.59244E-01  9.73623E-01 -1.43791E-02
    9080.981     85.262   4.960  9.56289E-01  9.74039E-01 -1.77505E-02
    9082.499     86.780   5.000  9.55868E-01  9.74494E-01 -1.86258E-02
    9084.029     88.310   5.040  9.57527E-01  9.74987E-01 -1.74597E-02
    9085.571     89.853   5.080  9.60516E-01  9.75515E-01 -1.49988E-02
    9087.126     91.407   5.120  9.63950E-01  9.76054E-01 -1.21041E-02
    9088.692     92.974   5.160  9.67010E-01  9.76623E-01 -9.61225E-03
    9090.271     94.553   5.200  9.68992E-01  9.77201E-01 -8.20841E-03
    9091.862     96.144   5.240  9.69521E-01  9.77805E-01 -8.28425E-03
    9093.466     97.747   5.280  9.68622E-01  9.78413E-01 -9.79122E-03
    9095.081     99.362   5.320  9.66734E-01  9.79022E-01 -1.22881E-02
    9096.709    100.990   5.360  9.64464E-01  9.79629E-01 -1.51654E-02
    9098.348    102.630   5.400  9.62324E-01  9.80210E-01 -1.78863E-02
    9100.000    104.282   5.440  9.60717E-01  9.80808E-01 -2.00906E-02
    9101.665    105.946   5.480  9.59770E-01  9.81376E-01 -2.16068E-02
    9103.341    107.622   5.520  9.59491E-01  9.81913E-01 -2.24217E-02
    9105.030    109.311   5.560  9.59725E-01  9.82442E-01 -2.27169E-02
    9106.730    111.012   5.600  9.60174E-01  9.82961E-01 -2.27863E-02
    9108.443    112.725   5.640  9.60569E-01  9.83442E-01 -2.28725E-02
    9110.168    114.450   5.680  9.60895E-01  9.83863E-01 -2.29672E-02
    9111.906    116.187   5.720  9.61460E-01  9.84266E-01 -2.28059E-02
    9113.655    117.937   5.760  9.62586E-01  9.84631E-01 -2.20459E-02
    9115.417    119.698   5.800  9.64414E-01  9.84957E-01 -2.05423E-02
    9117.191    121.472   5.840  9.66769E-01  9.85238E-01 -1.84689E-02
    9118.977    123.259   5.880  9.69210E-01  9.85453E-01 -1.62431E-02
    9120.775    125.057   5.920  9.71308E-01  9.85646E-01 -1.43377E-02
    9122.586    126.867   5.960  9.72611E-01  9.85761E-01 -1.31502E-02
    9124.409    128.690   6.000  9.72773E-01  9.85773E-01 -1.29994E-02
