# # comment:                                                     FEFF 9.9.1  
# # Source:
# # Structure
# # Reduced
# # space
# # abc:
# # angles:
# # sites:
# # POT  SCF 100  7.0000   0, screened core-hole, AFOLP (folp(0)= 1.150)
# # Abs   Z=29 Rmt= 1.248 Rnm= 1.363 K  shell
# # Pot 1 Z=29 Rmt= 1.296 Rnm= 1.366
# # Pot 2 Z= 1 Rmt= 0.692 Rnm= 0.837
# # Pot 3 Z=17 Rmt= 1.126 Rnm= 1.405
# # Pot 4 Z= 8 Rmt= 1.049 Rnm= 1.144
# # Gam_ch=1.729E+00 H-L exch Vi= 0.000E+00 Vr= 0.000E+00
# # Mu=-5.954E+00eV kf=2.045E+00 Vint=-1.355E+01eV Rs_int= 1.773
# FMS rfms= 9.0000
# # PATH  Rmax=-1.000,  Keep_limit= 0.00, Heap_limit 0.00  Pwcrit= 2.50%
#  S02=0.950  Temp=   0.00  Debye_temp=   0.00  Global_sig2= 0.00000
#  Energy zero shift, vr, vi    0.00000E+00   0.00000E+00
#  Curved wave amplitude ratio filter   4.000%
#     file         sig2 tot  cw amp ratio   deg  nlegs   reff  inp sig2
#     0/   0 paths used
#  xsedge+ 50, used to normalize mu           2.4320E-04
#  -----------------------------------------------------------------------
#  omega    e    k    mu    mu0     chi     @#
    8983.320     -9.764  -1.000  4.15593E-02  5.84434E-02 -1.68841E-02
    8983.618     -9.466  -0.960  4.37472E-02  6.27805E-02 -1.90333E-02
    8983.905     -9.179  -0.920  4.60866E-02  6.76039E-02 -2.15174E-02
    8984.179     -8.905  -0.880  4.85900E-02  7.29851E-02 -2.43951E-02
    8984.441     -8.643  -0.840  5.12711E-02  7.90072E-02 -2.77361E-02
    8984.691     -8.393  -0.800  5.41445E-02  8.57665E-02 -3.16220E-02
    8984.929     -8.155  -0.760  5.72257E-02  9.33736E-02 -3.61479E-02
    8985.154     -7.930  -0.720  6.05308E-02  1.01953E-01 -4.14223E-02
    8985.368     -7.716  -0.680  6.40758E-02  1.11642E-01 -4.75665E-02
    8985.569     -7.515  -0.640  6.78755E-02  1.22586E-01 -5.47105E-02
    8985.758     -7.326  -0.600  7.19417E-02  1.34926E-01 -6.29847E-02
    8985.935     -7.149  -0.560  7.62798E-02  1.48784E-01 -7.25047E-02
    8986.099     -6.985  -0.520  8.08846E-02  1.64232E-01 -8.33477E-02
    8986.252     -6.832  -0.480  8.57341E-02  1.81254E-01 -9.55196E-02
    8986.392     -6.692  -0.440  9.07828E-02  1.99700E-01 -1.08917E-01
    8986.520     -6.564  -0.400  9.59564E-02  2.19250E-01 -1.23293E-01
    8986.636     -6.448  -0.360  1.01150E-01  2.39400E-01 -1.38250E-01
    8986.739     -6.345  -0.320  1.06236E-01  2.59498E-01 -1.53262E-01
    8986.831     -6.253  -0.280  1.11072E-01  2.78815E-01 -1.67743E-01
    8986.910     -6.174  -0.240  1.15524E-01  2.96652E-01 -1.81128E-01
    8986.977     -6.107  -0.200  1.19471E-01  3.12421E-01 -1.92950E-01
    8987.032     -6.052  -0.160  1.22818E-01  3.25690E-01 -2.02873E-01
    8987.075     -6.009  -0.120  1.25493E-01  3.36184E-01 -2.10691E-01
    8987.105     -5.979  -0.080  1.27445E-01  3.43746E-01 -2.16300E-01
    8987.130     -5.954   0.000  1.29047E-01  3.49822E-01 -2.20775E-01
    8987.184     -5.900   0.120  1.32755E-01  3.63529E-01 -2.30774E-01
    8987.227     -5.857   0.160  1.35617E-01  3.74197E-01 -2.38580E-01
    8987.282     -5.802   0.200  1.39307E-01  3.87812E-01 -2.48505E-01
    8987.349     -5.735   0.240  1.43870E-01  4.04199E-01 -2.60329E-01
    8987.428     -5.656   0.280  1.49349E-01  4.23043E-01 -2.73694E-01
    8987.520     -5.564   0.320  1.55826E-01  4.43881E-01 -2.88055E-01
    8987.623     -5.461   0.360  1.63404E-01  4.66116E-01 -3.02712E-01
    8987.739     -5.345   0.400  1.72235E-01  4.89108E-01 -3.16873E-01
    8987.867     -5.217   0.440  1.82647E-01  5.12292E-01 -3.29645E-01
    8988.007     -5.077   0.480  1.95029E-01  5.35187E-01 -3.40159E-01
    8988.160     -4.924   0.520  2.10027E-01  5.57532E-01 -3.47506E-01
    8988.324     -4.760   0.560  2.28375E-01  5.79131E-01 -3.50756E-01
    8988.501     -4.583   0.600  2.51061E-01  5.99963E-01 -3.48903E-01
    8988.690     -4.394   0.640  2.79045E-01  6.20041E-01 -3.40996E-01
    8988.891     -4.193   0.680  3.12956E-01  6.39457E-01 -3.26500E-01
    8989.105     -3.979   0.720  3.52271E-01  6.58296E-01 -3.06025E-01
    8989.330     -3.754   0.760  3.94429E-01  6.76579E-01 -2.82150E-01
    8989.568     -3.516   0.800  4.35418E-01  6.94421E-01 -2.59002E-01
    8989.818     -3.266   0.840  4.72719E-01  7.11838E-01 -2.39119E-01
    8990.080     -3.004   0.880  5.08735E-01  7.28895E-01 -2.20160E-01
    8990.354     -2.730   0.920  5.49382E-01  7.45559E-01 -1.96177E-01
    8990.641     -2.443   0.960  5.98138E-01  7.61887E-01 -1.63749E-01
    8990.940     -2.144   1.000  6.50763E-01  7.77845E-01 -1.27082E-01
    8991.250     -1.834   1.040  6.96628E-01  7.93407E-01 -9.67796E-02
    8991.573     -1.510   1.080  7.26150E-01  8.08587E-01 -8.24366E-02
    8991.909     -1.175   1.120  7.36892E-01  8.23326E-01 -8.64337E-02
    8992.256     -0.828   1.160  7.28657E-01  8.37603E-01 -1.08946E-01
    8992.616     -0.468   1.200  7.01074E-01  8.51397E-01 -1.50324E-01
    8992.988     -0.096   1.240  6.61195E-01  8.64685E-01 -2.03490E-01
    8993.372      0.288   1.280  6.22185E-01  8.77442E-01 -2.55256E-01
    8993.768      0.684   1.320  5.95965E-01  8.89620E-01 -2.93655E-01
    8994.176      1.093   1.360  5.89374E-01  9.01217E-01 -3.11843E-01
    8994.597      1.513   1.400  6.04327E-01  9.12230E-01 -3.07902E-01
    8995.030      1.946   1.440  6.41682E-01  9.22612E-01 -2.80930E-01
    8995.475      2.391   1.480  7.01510E-01  9.32366E-01 -2.30856E-01
    8995.932      2.848   1.520  7.78894E-01  9.41490E-01 -1.62595E-01
    8996.402      3.318   1.560  8.66945E-01  9.49988E-01 -8.30435E-02
    8996.883      3.799   1.600  9.60495E-01  9.57844E-01  2.65040E-03
    8997.377      4.293   1.640  1.05356E+00  9.65083E-01  8.84741E-02
    8997.883      4.799   1.680  1.13728E+00  9.71713E-01  1.65565E-01
    8998.401      5.317   1.720  1.20476E+00  9.77742E-01  2.27013E-01
    8998.931      5.847   1.760  1.26155E+00  9.83202E-01  2.78346E-01
    8999.474      6.390   1.800  1.32109E+00  9.88083E-01  3.33011E-01
    9000.029      6.945   1.840  1.39260E+00  9.92438E-01  4.00161E-01
    9000.596      7.512   1.880  1.47650E+00  9.96281E-01  4.80217E-01
    9001.175      8.091   1.920  1.54836E+00  9.99626E-01  5.48737E-01
    9001.766      8.682   1.960  1.56271E+00  1.00253E+00  5.60181E-01
    9002.369      9.285   2.000  1.50441E+00  1.00498E+00  4.99437E-01
    9002.985      9.901   2.040  1.41134E+00  1.00704E+00  4.04305E-01
    9003.613     10.529   2.080  1.32793E+00  1.00871E+00  3.19218E-01
    9004.253     11.169   2.120  1.27151E+00  1.01003E+00  2.61480E-01
    9004.905     11.821   2.160  1.23342E+00  1.01105E+00  2.22365E-01
    9005.570     12.486   2.200  1.19242E+00  1.01177E+00  1.80655E-01
    9006.247     13.163   2.240  1.13932E+00  1.01222E+00  1.27099E-01
    9006.935     13.851   2.280  1.08396E+00  1.01242E+00  7.15393E-02
    9007.636     14.552   2.320  1.03962E+00  1.01241E+00  2.72131E-02
    9008.350     15.266   2.360  1.01022E+00  1.01222E+00 -2.00388E-03
    9009.075     15.991   2.400  9.92924E-01  1.01186E+00 -1.89408E-02
    9009.813     16.729   2.440  9.86230E-01  1.01135E+00 -2.51194E-02
    9010.562     17.478   2.480  9.90249E-01  1.01073E+00 -2.04805E-02
    9011.324     18.240   2.520  9.95291E-01  1.00999E+00 -1.47040E-02
    9012.099     19.015   2.560  9.98478E-01  1.00918E+00 -1.06970E-02
    9012.885     19.801   2.600  9.98907E-01  1.00830E+00 -9.39357E-03
    9013.684     20.600   2.640  9.96959E-01  1.00738E+00 -1.04186E-02
    9014.494     21.410   2.680  9.93177E-01  1.00641E+00 -1.32379E-02
    9015.317     22.233   2.720  9.87468E-01  1.00542E+00 -1.79514E-02
    9016.152     23.068   2.760  9.79107E-01  1.00444E+00 -2.53312E-02
    9017.000     23.916   2.800  9.67528E-01  1.00344E+00 -3.59099E-02
    9017.859     24.775   2.840  9.53213E-01  1.00246E+00 -4.92515E-02
    9018.731     25.647   2.880  9.37257E-01  1.00152E+00 -6.42645E-02
    9019.615     26.531   2.920  9.21073E-01  1.00060E+00 -7.95225E-02
    9020.511     27.427   2.960  9.06379E-01  9.99730E-01 -9.33515E-02
    9021.419     28.335   3.000  8.94381E-01  9.98908E-01 -1.04527E-01
    9022.340     29.256   3.040  8.85722E-01  9.98134E-01 -1.12412E-01
    9023.273     30.189   3.080  8.80806E-01  9.97430E-01 -1.16624E-01
    9024.217     31.133   3.120  8.78851E-01  9.96800E-01 -1.17949E-01
    9025.175     32.091   3.160  8.78698E-01  9.96223E-01 -1.17525E-01
    9026.144     33.060   3.200  8.79488E-01  9.95721E-01 -1.16233E-01
    9027.125     34.041   3.240  8.80877E-01  9.95296E-01 -1.14420E-01
    9028.119     35.035   3.280  8.83045E-01  9.94929E-01 -1.11884E-01
    9029.125     36.041   3.320  8.86597E-01  9.94664E-01 -1.08067E-01
    9030.143     37.059   3.360  8.92046E-01  9.94479E-01 -1.02432E-01
    9031.173     38.089   3.400  8.99306E-01  9.94373E-01 -9.50666E-02
    9032.215     39.131   3.440  9.08080E-01  9.94326E-01 -8.62456E-02
    9033.270     40.186   3.480  9.18059E-01  9.94379E-01 -7.63198E-02
    9034.337     41.253   3.520  9.28842E-01  9.94490E-01 -6.56483E-02
    9035.416     42.332   3.560  9.40075E-01  9.94702E-01 -5.46268E-02
    9036.507     43.423   3.600  9.51278E-01  9.94970E-01 -4.36919E-02
    9037.610     44.526   3.640  9.61938E-01  9.95313E-01 -3.33753E-02
    9038.726     45.642   3.680  9.71587E-01  9.95732E-01 -2.41444E-02
    9039.854     46.770   3.720  9.80193E-01  9.96202E-01 -1.60093E-02
    9040.994     47.910   3.760  9.88293E-01  9.96743E-01 -8.45007E-03
    9042.146     49.062   3.800  9.96597E-01  9.97334E-01 -7.36850E-04
    9043.310     50.226   3.840  1.00585E+00  9.97993E-01  7.85303E-03
    9044.487     51.403   3.880  1.01657E+00  9.98699E-01  1.78690E-02
    9045.675     52.591   3.920  1.02893E+00  9.99445E-01  2.94871E-02
    9046.876     53.792   3.960  1.04271E+00  1.00023E+00  4.24815E-02
    9048.089     55.005   4.000  1.05728E+00  1.00106E+00  5.62236E-02
    9049.315     56.231   4.040  1.07160E+00  1.00193E+00  6.96723E-02
    9050.552     57.468   4.080  1.08442E+00  1.00282E+00  8.15945E-02
    9051.802     58.718   4.120  1.09486E+00  1.00373E+00  9.11259E-02
    9053.064     59.980   4.160  1.10265E+00  1.00467E+00  9.79756E-02
    9054.338     61.254   4.200  1.10780E+00  1.00562E+00  1.02188E-01
    9055.624     62.540   4.240  1.11040E+00  1.00656E+00  1.03836E-01
    9056.922     63.838   4.280  1.11038E+00  1.00753E+00  1.02845E-01
    9058.233     65.149   4.320  1.10755E+00  1.00848E+00  9.90728E-02
    9059.556     66.472   4.360  1.10201E+00  1.00942E+00  9.25958E-02
    9060.891     67.807   4.400  1.09419E+00  1.01035E+00  8.38325E-02
    9062.238     69.154   4.440  1.08471E+00  1.01128E+00  7.34238E-02
    9063.597     70.513   4.480  1.07426E+00  1.01218E+00  6.20800E-02
    9064.969     71.885   4.520  1.06361E+00  1.01303E+00  5.05757E-02
    9066.353     73.269   4.560  1.05354E+00  1.01388E+00  3.96644E-02
    9067.749     74.665   4.600  1.04463E+00  1.01466E+00  2.99753E-02
    9069.157     76.073   4.640  1.03735E+00  1.01542E+00  2.19290E-02
    9070.577     77.493   4.680  1.03184E+00  1.01615E+00  1.56903E-02
    9072.010     78.926   4.720  1.02786E+00  1.01683E+00  1.10366E-02
    9073.455     80.371   4.760  1.02481E+00  1.01746E+00  7.34492E-03
    9074.912     81.828   4.800  1.02170E+00  1.01803E+00  3.67070E-03
    9076.381     83.297   4.840  1.01749E+00  1.01857E+00 -1.08038E-03
    9077.862     84.778   4.880  1.01124E+00  1.01904E+00 -7.79909E-03
    9079.356     86.272   4.920  1.00260E+00  1.01944E+00 -1.68400E-02
    9080.861     87.777   4.960  9.92015E-01  1.01979E+00 -2.77772E-02
    9082.379     89.295   5.000  9.80608E-01  1.02009E+00 -3.94838E-02
    9083.909     90.825   5.040  9.69793E-01  1.02032E+00 -5.05250E-02
    9085.451     92.368   5.080  9.60937E-01  1.02049E+00 -5.95559E-02
    9087.006     93.922   5.120  9.54962E-01  1.02060E+00 -6.56335E-02
    9088.573     95.489   5.160  9.52335E-01  1.02065E+00 -6.83111E-02
    9090.151     97.068   5.200  9.52967E-01  1.02062E+00 -6.76570E-02
    9091.743     98.659   5.240  9.56355E-01  1.02055E+00 -6.41954E-02
    9093.346    100.262   5.280  9.61683E-01  1.02040E+00 -5.87217E-02
    9094.961    101.877   5.320  9.68041E-01  1.02021E+00 -5.21699E-02
    9096.589    103.505   5.360  9.74597E-01  1.01997E+00 -4.53717E-02
    9098.229    105.145   5.400  9.80721E-01  1.01965E+00 -3.89339E-02
    9099.881    106.797   5.440  9.86268E-01  1.01929E+00 -3.30259E-02
    9101.545    108.461   5.480  9.91303E-01  1.01889E+00 -2.75861E-02
    9103.221    110.137   5.520  9.95608E-01  1.01842E+00 -2.28095E-02
    9104.910    111.826   5.560  9.98602E-01  1.01793E+00 -1.93244E-02
    9106.611    113.527   5.600  9.99622E-01  1.01739E+00 -1.77710E-02
    9108.324    115.240   5.640  9.98527E-01  1.01680E+00 -1.82713E-02
    9110.049    116.965   5.680  9.95947E-01  1.01619E+00 -2.02397E-02
    9111.786    118.702   5.720  9.93051E-01  1.01554E+00 -2.24886E-02
    9113.536    120.452   5.760  9.91320E-01  1.01486E+00 -2.35378E-02
    9115.297    122.213   5.800  9.92026E-01  1.01417E+00 -2.21420E-02
    9117.071    123.987   5.840  9.95647E-01  1.01345E+00 -1.78027E-02
    9118.857    125.773   5.880  1.00169E+00  1.01273E+00 -1.10432E-02
    9120.656    127.572   5.920  1.00880E+00  1.01199E+00 -3.18445E-03
    9122.466    129.382   5.960  1.01562E+00  1.01125E+00  4.36936E-03
    9124.289    131.205   6.000  1.02160E+00  1.01048E+00  1.11259E-02
