# # comment:                                                     FEFF 9.9.1  
# # Source:
# # Structure
# # Reduced
# # space
# # abc:
# # angles:
# # sites:
# # POT  SCF 100  7.0000   0, screened core-hole, AFOLP (folp(0)= 1.150)
# # Abs   Z=29 Rmt= 1.058 Rnm= 1.232 K  shell
# # Pot 1 Z=23 Rmt= 1.054 Rnm= 1.304
# # Pot 2 Z=29 Rmt= 1.058 Rnm= 1.233
# # Pot 3 Z= 8 Rmt= 0.980 Rnm= 1.169
# # Gam_ch=1.729E+00 H-L exch Vi= 0.000E+00 Vr= 0.000E+00
# # Mu=-9.468E+00eV kf=2.106E+00 Vint=-1.374E+01eV Rs_int= 1.722
# FMS rfms= 9.0000
# # PATH  Rmax=-1.000,  Keep_limit= 0.00, Heap_limit 0.00  Pwcrit= 2.50%
#  S02=0.950  Temp=   0.00  Debye_temp=   0.00  Global_sig2= 0.00000
#  Energy zero shift, vr, vi    0.00000E+00   0.00000E+00
#  Curved wave amplitude ratio filter   4.000%
#     file         sig2 tot  cw amp ratio   deg  nlegs   reff  inp sig2
#     0/   0 paths used
#  xsedge+ 50, used to normalize mu           2.4768E-04
#  -----------------------------------------------------------------------
#  omega    e    k    mu    mu0     chi     @#
    8983.744    -13.278  -1.000  2.45955E-02  4.36792E-02 -1.90837E-02
    8984.043    -12.980  -0.960  2.54561E-02  4.63845E-02 -2.09285E-02
    8984.329    -12.693  -0.920  2.63536E-02  4.93459E-02 -2.29923E-02
    8984.604    -12.419  -0.880  2.72902E-02  5.25968E-02 -2.53067E-02
    8984.866    -12.157  -0.840  2.82683E-02  5.61759E-02 -2.79077E-02
    8985.116    -11.907  -0.800  2.92905E-02  6.01274E-02 -3.08369E-02
    8985.353    -11.669  -0.760  3.03595E-02  6.45015E-02 -3.41420E-02
    8985.579    -11.443  -0.720  3.14781E-02  6.93542E-02 -3.78761E-02
    8985.792    -11.230  -0.680  3.26489E-02  7.47465E-02 -4.20976E-02
    8985.993    -11.029  -0.640  3.38742E-02  8.07419E-02 -4.68677E-02
    8986.182    -10.840  -0.600  3.51555E-02  8.74015E-02 -5.22460E-02
    8986.359    -10.663  -0.560  3.64927E-02  9.47757E-02 -5.82829E-02
    8986.524    -10.499  -0.520  3.78833E-02  1.02891E-01 -6.50081E-02
    8986.676    -10.346  -0.480  3.93207E-02  1.11734E-01 -7.24137E-02
    8986.816    -10.206  -0.440  4.07932E-02  1.21229E-01 -8.04359E-02
    8986.944    -10.078  -0.400  4.22827E-02  1.31222E-01 -8.89389E-02
    8987.060     -9.962  -0.360  4.37643E-02  1.41473E-01 -9.77089E-02
    8987.164     -9.859  -0.320  4.52082E-02  1.51675E-01 -1.06467E-01
    8987.255     -9.767  -0.280  4.65819E-02  1.61481E-01 -1.14899E-01
    8987.335     -9.688  -0.240  4.78541E-02  1.70554E-01 -1.22700E-01
    8987.402     -9.621  -0.200  4.89963E-02  1.78603E-01 -1.29606E-01
    8987.456     -9.566  -0.160  4.99832E-02  1.85405E-01 -1.35422E-01
    8987.499     -9.523  -0.120  5.07927E-02  1.90808E-01 -1.40015E-01
    8987.530     -9.493  -0.080  5.14077E-02  1.94719E-01 -1.43311E-01
    8987.554     -9.468   0.000  5.19789E-02  1.97875E-01 -1.45896E-01
    8987.609     -9.414   0.120  5.36695E-02  2.05021E-01 -1.51352E-01
    8987.652     -9.371   0.160  5.47848E-02  2.10617E-01 -1.55833E-01
    8987.706     -9.316   0.200  5.61444E-02  2.17829E-01 -1.61685E-01
    8987.773     -9.249   0.240  5.77168E-02  2.26614E-01 -1.68898E-01
    8987.853     -9.170   0.280  5.94859E-02  2.36888E-01 -1.77402E-01
    8987.944     -9.078   0.320  6.14107E-02  2.48493E-01 -1.87083E-01
    8988.048     -8.975   0.360  6.34792E-02  2.61236E-01 -1.97756E-01
    8988.164     -8.859   0.400  6.56936E-02  2.74898E-01 -2.09204E-01
    8988.292     -8.731   0.440  6.80901E-02  2.89278E-01 -2.21188E-01
    8988.432     -8.591   0.480  7.07530E-02  3.04225E-01 -2.33472E-01
    8988.584     -8.438   0.520  7.38081E-02  3.19640E-01 -2.45831E-01
    8988.749     -8.274   0.560  7.74427E-02  3.35484E-01 -2.58042E-01
    8988.926     -8.097   0.600  8.18862E-02  3.51761E-01 -2.69875E-01
    8989.115     -7.908   0.640  8.73978E-02  3.68492E-01 -2.81094E-01
    8989.316     -7.707   0.680  9.42462E-02  3.85704E-01 -2.91458E-01
    8989.529     -7.493   0.720  1.02685E-01  4.03463E-01 -3.00778E-01
    8989.755     -7.268   0.760  1.12675E-01  4.21767E-01 -3.09092E-01
    8989.992     -7.030   0.800  1.23777E-01  4.40651E-01 -3.16874E-01
    8990.242     -6.780   0.840  1.35054E-01  4.60120E-01 -3.25065E-01
    8990.504     -6.518   0.880  1.45722E-01  4.80149E-01 -3.34427E-01
    8990.779     -6.244   0.920  1.55843E-01  5.00764E-01 -3.44921E-01
    8991.065     -5.957   0.960  1.66136E-01  5.21881E-01 -3.55745E-01
    8991.364     -5.658   1.000  1.77300E-01  5.43512E-01 -3.66212E-01
    8991.675     -5.347   1.040  1.88380E-01  5.65580E-01 -3.77200E-01
    8991.998     -5.024   1.080  1.96377E-01  5.88020E-01 -3.91642E-01
    8992.333     -4.689   1.120  1.99782E-01  6.10764E-01 -4.10983E-01
    8992.681     -4.342   1.160  2.01125E-01  6.33741E-01 -4.32616E-01
    8993.040     -3.982   1.200  2.04020E-01  6.56889E-01 -4.52869E-01
    8993.412     -3.610   1.240  2.10364E-01  6.80092E-01 -4.69728E-01
    8993.796     -3.226   1.280  2.22295E-01  7.03265E-01 -4.80970E-01
    8994.193     -2.830   1.320  2.42735E-01  7.26324E-01 -4.83588E-01
    8994.601     -2.421   1.360  2.73705E-01  7.49163E-01 -4.75458E-01
    8995.022     -2.001   1.400  3.16078E-01  7.71697E-01 -4.55620E-01
    8995.454     -1.568   1.440  3.71119E-01  7.93843E-01 -4.22724E-01
    8995.899     -1.123   1.480  4.39720E-01  8.15496E-01 -3.75776E-01
    8996.357     -0.666   1.520  5.14119E-01  8.36575E-01 -3.22456E-01
    8996.826     -0.196   1.560  5.73665E-01  8.57022E-01 -2.83357E-01
    8997.308      0.285   1.600  6.03245E-01  8.76741E-01 -2.73496E-01
    8997.801      0.779   1.640  6.17638E-01  8.95679E-01 -2.78041E-01
    8998.307      1.285   1.680  6.39296E-01  9.13788E-01 -2.74492E-01
    8998.825      1.803   1.720  6.70568E-01  9.30983E-01 -2.60415E-01
    8999.356      2.333   1.760  6.97356E-01  9.47264E-01 -2.49908E-01
    8999.898      2.876   1.800  7.08166E-01  9.62575E-01 -2.54409E-01
    9000.453      3.431   1.840  7.06956E-01  9.76882E-01 -2.69927E-01
    9001.020      3.998   1.880  7.00659E-01  9.90201E-01 -2.89541E-01
    9001.599      4.577   1.920  6.98999E-01  1.00251E+00 -3.03506E-01
    9002.190      5.168   1.960  7.13348E-01  1.01380E+00 -3.00448E-01
    9002.794      5.772   2.000  7.49422E-01  1.02408E+00 -2.74655E-01
    9003.410      6.387   2.040  8.07678E-01  1.03336E+00 -2.25677E-01
    9004.038      7.015   2.080  8.89433E-01  1.04168E+00 -1.52249E-01
    9004.678      7.655   2.120  9.92741E-01  1.04907E+00 -5.63283E-02
    9005.330      8.307   2.160  1.09877E+00  1.05553E+00  4.32390E-02
    9005.994      8.972   2.200  1.18398E+00  1.06111E+00  1.22874E-01
    9006.671      9.649   2.240  1.24972E+00  1.06583E+00  1.83891E-01
    9007.360     10.337   2.280  1.32086E+00  1.06975E+00  2.51112E-01
    9008.061     11.038   2.320  1.40602E+00  1.07289E+00  3.33124E-01
    9008.774     11.752   2.360  1.48332E+00  1.07534E+00  4.07980E-01
    9009.500     12.477   2.400  1.52373E+00  1.07709E+00  4.46636E-01
    9010.237     13.215   2.440  1.51101E+00  1.07821E+00  4.32799E-01
    9010.987     13.965   2.480  1.45126E+00  1.07874E+00  3.72513E-01
    9011.749     14.727   2.520  1.36869E+00  1.07872E+00  2.89963E-01
    9012.523     15.501   2.560  1.30567E+00  1.07821E+00  2.27460E-01
    9013.310     16.287   2.600  1.27215E+00  1.07721E+00  1.94938E-01
    9014.108     17.086   2.640  1.25826E+00  1.07581E+00  1.82452E-01
    9014.919     17.896   2.680  1.25573E+00  1.07403E+00  1.81702E-01
    9015.742     18.719   2.720  1.25783E+00  1.07189E+00  1.85937E-01
    9016.577     19.555   2.760  1.25957E+00  1.06946E+00  1.90104E-01
    9017.424     20.402   2.800  1.25741E+00  1.06676E+00  1.90655E-01
    9018.284     21.261   2.840  1.24930E+00  1.06381E+00  1.85495E-01
    9019.156     22.133   2.880  1.23468E+00  1.06065E+00  1.74023E-01
    9020.039     23.017   2.920  1.21481E+00  1.05733E+00  1.57475E-01
    9020.936     23.913   2.960  1.19114E+00  1.05385E+00  1.37290E-01
    9021.844     24.821   3.000  1.16507E+00  1.05027E+00  1.14794E-01
    9022.764     25.742   3.040  1.13795E+00  1.04658E+00  9.13715E-02
    9023.697     26.675   3.080  1.11085E+00  1.04282E+00  6.80315E-02
    9024.642     27.620   3.120  1.08453E+00  1.03900E+00  4.55279E-02
    9025.599     28.577   3.160  1.05989E+00  1.03514E+00  2.47495E-02
    9026.568     29.546   3.200  1.03759E+00  1.03128E+00  6.30854E-03
    9027.550     30.527   3.240  1.01764E+00  1.02742E+00 -9.78018E-03
    9028.543     31.521   3.280  9.99703E-01  1.02357E+00 -2.38619E-02
    9029.549     32.527   3.320  9.83405E-01  1.01977E+00 -3.63693E-02
    9030.567     33.545   3.360  9.68183E-01  1.01600E+00 -4.78175E-02
    9031.597     34.575   3.400  9.53589E-01  1.01228E+00 -5.86950E-02
    9032.640     35.617   3.440  9.39207E-01  1.00866E+00 -6.94492E-02
    9033.694     36.672   3.480  9.24666E-01  1.00511E+00 -8.04452E-02
    9034.761     37.739   3.520  9.09733E-01  1.00164E+00 -9.19057E-02
    9035.840     38.818   3.560  8.94619E-01  9.98261E-01 -1.03643E-01
    9036.931     39.909   3.600  8.80003E-01  9.94998E-01 -1.14995E-01
    9038.035     41.012   3.640  8.66642E-01  9.91841E-01 -1.25199E-01
    9039.150     42.128   3.680  8.55144E-01  9.88810E-01 -1.33666E-01
    9040.278     43.256   3.720  8.45880E-01  9.85903E-01 -1.40023E-01
    9041.418     44.396   3.760  8.39142E-01  9.83108E-01 -1.43966E-01
    9042.570     45.548   3.800  8.34983E-01  9.80447E-01 -1.45464E-01
    9043.735     46.712   3.840  8.33427E-01  9.77936E-01 -1.44508E-01
    9044.911     47.889   3.880  8.34471E-01  9.75544E-01 -1.41073E-01
    9046.100     49.077   3.920  8.38112E-01  9.73310E-01 -1.35198E-01
    9047.301     50.278   3.960  8.44027E-01  9.71203E-01 -1.27176E-01
    9048.514     51.491   4.000  8.51975E-01  9.69228E-01 -1.17253E-01
    9049.739     52.717   4.040  8.61820E-01  9.67423E-01 -1.05603E-01
    9050.977     53.954   4.080  8.73345E-01  9.65728E-01 -9.23823E-02
    9052.226     55.204   4.120  8.86466E-01  9.64213E-01 -7.77477E-02
    9053.488     56.466   4.160  9.00967E-01  9.62824E-01 -6.18570E-02
    9054.762     57.740   4.200  9.16501E-01  9.61566E-01 -4.50655E-02
    9056.048     59.026   4.240  9.32466E-01  9.60461E-01 -2.79948E-02
    9057.347     60.324   4.280  9.48096E-01  9.59509E-01 -1.14138E-02
    9058.657     61.635   4.320  9.62484E-01  9.58688E-01  3.79617E-03
    9059.980     62.958   4.360  9.74810E-01  9.58016E-01  1.67937E-02
    9061.315     64.293   4.400  9.84560E-01  9.57472E-01  2.70875E-02
    9062.663     65.640   4.440  9.91803E-01  9.57056E-01  3.47472E-02
    9064.022     67.000   4.480  9.97183E-01  9.56786E-01  4.03968E-02
    9065.394     68.371   4.520  1.00176E+00  9.56642E-01  4.51169E-02
    9066.777     69.755   4.560  1.00650E+00  9.56620E-01  4.98833E-02
    9068.173     71.151   4.600  1.01186E+00  9.56718E-01  5.51462E-02
    9069.581     72.559   4.640  1.01772E+00  9.56938E-01  6.07866E-02
    9071.002     73.979   4.680  1.02360E+00  9.57276E-01  6.63197E-02
    9072.434     75.412   4.720  1.02885E+00  9.57729E-01  7.11249E-02
    9073.879     76.857   4.760  1.03289E+00  9.58276E-01  7.46133E-02
    9075.336     78.314   4.800  1.03523E+00  9.58937E-01  7.62920E-02
    9076.805     79.783   4.840  1.03553E+00  9.59709E-01  7.58189E-02
    9078.287     81.264   4.880  1.03374E+00  9.60568E-01  7.31734E-02
    9079.780     82.758   4.920  1.03022E+00  9.61509E-01  6.87131E-02
    9081.286     84.263   4.960  1.02558E+00  9.62532E-01  6.30434E-02
    9082.804     85.781   5.000  1.02045E+00  9.63634E-01  5.68131E-02
    9084.334     87.311   5.040  1.01525E+00  9.64813E-01  5.04379E-02
    9085.876     88.854   5.080  1.01022E+00  9.66068E-01  4.41483E-02
    9087.430     90.408   5.120  1.00553E+00  9.67371E-01  3.81591E-02
    9088.997     91.975   5.160  1.00146E+00  9.68720E-01  3.27370E-02
    9090.576     93.554   5.200  9.98310E-01  9.70137E-01  2.81734E-02
    9092.167     95.145   5.240  9.96250E-01  9.71596E-01  2.46536E-02
    9093.770     96.748   5.280  9.95212E-01  9.73095E-01  2.21166E-02
    9095.386     98.363   5.320  9.94732E-01  9.74628E-01  2.01039E-02
    9097.013     99.991   5.360  9.94102E-01  9.76171E-01  1.79304E-02
    9098.653    101.631   5.400  9.92862E-01  9.77720E-01  1.51420E-02
    9100.305    103.283   5.440  9.91177E-01  9.79296E-01  1.18815E-02
    9101.969    104.947   5.480  9.89598E-01  9.80877E-01  8.72105E-03
    9103.646    106.623   5.520  9.88635E-01  9.82479E-01  6.15597E-03
    9105.334    108.312   5.560  9.88297E-01  9.84031E-01  4.26590E-03
    9107.035    110.013   5.600  9.88365E-01  9.85597E-01  2.76791E-03
    9108.748    111.726   5.640  9.88402E-01  9.87131E-01  1.27124E-03
    9110.473    113.451   5.680  9.88158E-01  9.88629E-01 -4.71506E-04
    9112.211    115.188   5.720  9.87651E-01  9.90111E-01 -2.46024E-03
    9113.960    116.938   5.760  9.86998E-01  9.91529E-01 -4.53004E-03
    9115.722    118.699   5.800  9.86376E-01  9.92922E-01 -6.54595E-03
    9117.496    120.473   5.840  9.85708E-01  9.94243E-01 -8.53523E-03
    9119.282    122.260   5.880  9.84830E-01  9.95506E-01 -1.06764E-02
    9121.080    124.058   5.920  9.83517E-01  9.96679E-01 -1.31624E-02
    9122.891    125.868   5.960  9.81675E-01  9.97767E-01 -1.60921E-02
    9124.713    127.691   6.000  9.79127E-01  9.98706E-01 -1.95788E-02
