# # comment:                                                     FEFF 9.9.1  
# # Source:
# # Structure
# # Reduced
# # space
# # abc:
# # angles:102.097937
# # sites:
# # POT  SCF 100  7.0000   0, screened core-hole, AFOLP (folp(0)= 1.150)
# # Abs   Z=29 Rmt= 1.250 Rnm= 1.325 K  shell
# # Pot 1 Z=29 Rmt= 1.270 Rnm= 1.337
# # Pot 2 Z=15 Rmt= 0.941 Rnm= 1.156
# # Pot 3 Z= 1 Rmt= 0.669 Rnm= 0.790
# # Pot 4 Z= 8 Rmt= 0.896 Rnm= 1.043
# # Gam_ch=1.729E+00 H-L exch Vi= 0.000E+00 Vr= 0.000E+00
# # Mu=-6.679E+00eV kf=2.441E+00 Vint=-1.681E+01eV Rs_int= 1.485
# FMS rfms= 9.0000
# # PATH  Rmax=-1.000,  Keep_limit= 0.00, Heap_limit 0.00  Pwcrit= 2.50%
#  S02=0.950  Temp=   0.00  Debye_temp=   0.00  Global_sig2= 0.00000
#  Energy zero shift, vr, vi    0.00000E+00   0.00000E+00
#  Curved wave amplitude ratio filter   4.000%
#     file         sig2 tot  cw amp ratio   deg  nlegs   reff  inp sig2
#     0/   0 paths used
#  xsedge+ 50, used to normalize mu           2.4789E-04
#  -----------------------------------------------------------------------
#  omega    e    k    mu    mu0     chi     @#
    8983.412    -10.489  -1.000  3.56570E-02  5.18402E-02 -1.61831E-02
    8983.711    -10.190  -0.960  3.74993E-02  5.55911E-02 -1.80918E-02
    8983.997     -9.904  -0.920  3.94905E-02  5.97603E-02 -2.02698E-02
    8984.272     -9.629  -0.880  4.16494E-02  6.44097E-02 -2.27603E-02
    8984.534     -9.367  -0.840  4.39977E-02  6.96114E-02 -2.56137E-02
    8984.784     -9.117  -0.800  4.65605E-02  7.54489E-02 -2.88884E-02
    8985.021     -8.879  -0.760  4.93668E-02  8.20183E-02 -3.26516E-02
    8985.247     -8.654  -0.720  5.24489E-02  8.94282E-02 -3.69793E-02
    8985.460     -8.441  -0.680  5.58428E-02  9.77981E-02 -4.19553E-02
    8985.661     -8.239  -0.640  5.95858E-02  1.07254E-01 -4.76686E-02
    8985.850     -8.050  -0.600  6.37140E-02  1.17921E-01 -5.42072E-02
    8986.027     -7.874  -0.560  6.82564E-02  1.29905E-01 -6.16484E-02
    8986.192     -7.709  -0.520  7.32264E-02  1.43268E-01 -7.00420E-02
    8986.344     -7.557  -0.480  7.86095E-02  1.57999E-01 -7.93891E-02
    8986.484     -7.416  -0.440  8.43498E-02  1.73966E-01 -8.96158E-02
    8986.612     -7.288  -0.400  9.03395E-02  1.90891E-01 -1.00551E-01
    8986.728     -7.173  -0.360  9.64173E-02  2.08335E-01 -1.11918E-01
    8986.832     -7.069  -0.320  1.02382E-01  2.25729E-01 -1.23347E-01
    8986.923     -6.977  -0.280  1.08022E-01  2.42440E-01 -1.34418E-01
    8987.003     -6.898  -0.240  1.13145E-01  2.57861E-01 -1.44716E-01
    8987.070     -6.831  -0.200  1.17602E-01  2.71484E-01 -1.53882E-01
    8987.125     -6.776  -0.160  1.21299E-01  2.82940E-01 -1.61641E-01
    8987.167     -6.734  -0.120  1.24180E-01  2.91992E-01 -1.67812E-01
    8987.198     -6.703  -0.080  1.26218E-01  2.98511E-01 -1.72294E-01
    8987.222     -6.679   0.000  1.27785E-01  3.03749E-01 -1.75963E-01
    8987.277     -6.624   0.120  1.31750E-01  3.15557E-01 -1.83808E-01
    8987.320     -6.581   0.160  1.34793E-01  3.24716E-01 -1.89923E-01
    8987.374     -6.526   0.200  1.38677E-01  3.36421E-01 -1.97744E-01
    8987.442     -6.459   0.240  1.43319E-01  3.50463E-01 -2.07145E-01
    8987.521     -6.380   0.280  1.48649E-01  3.66592E-01 -2.17942E-01
    8987.612     -6.289   0.320  1.54539E-01  3.84345E-01 -2.29806E-01
    8987.716     -6.185   0.360  1.60919E-01  4.03218E-01 -2.42299E-01
    8987.832     -6.069   0.400  1.67728E-01  4.22632E-01 -2.54904E-01
    8987.960     -5.941   0.440  1.75061E-01  4.42083E-01 -2.67022E-01
    8988.100     -5.801   0.480  1.83109E-01  4.61179E-01 -2.78069E-01
    8988.252     -5.649   0.520  1.92187E-01  4.79649E-01 -2.87462E-01
    8988.417     -5.484   0.560  2.02667E-01  4.97402E-01 -2.94736E-01
    8988.594     -5.307   0.600  2.14815E-01  5.14369E-01 -2.99554E-01
    8988.783     -5.118   0.640  2.28616E-01  5.30648E-01 -3.02032E-01
    8988.984     -4.917   0.680  2.43318E-01  5.46293E-01 -3.02976E-01
    8989.197     -4.704   0.720  2.57406E-01  5.61413E-01 -3.04007E-01
    8989.423     -4.478   0.760  2.69315E-01  5.76097E-01 -3.06782E-01
    8989.660     -4.240   0.800  2.78882E-01  5.90463E-01 -3.11581E-01
    8989.910     -3.990   0.840  2.87841E-01  6.04538E-01 -3.16697E-01
    8990.172     -3.728   0.880  2.98760E-01  6.18414E-01 -3.19654E-01
    8990.447     -3.454   0.920  3.12796E-01  6.32134E-01 -3.19338E-01
    8990.733     -3.167   0.960  3.29084E-01  6.45707E-01 -3.16623E-01
    8991.032     -2.869   1.000  3.46060E-01  6.59188E-01 -3.13129E-01
    8991.343     -2.558   1.040  3.62734E-01  6.72570E-01 -3.09835E-01
    8991.666     -2.235   1.080  3.79288E-01  6.85853E-01 -3.06565E-01
    8992.001     -1.900   1.120  3.97205E-01  6.99075E-01 -3.01870E-01
    8992.349     -1.552   1.160  4.18077E-01  7.12184E-01 -2.94107E-01
    8992.708     -1.192   1.200  4.42652E-01  7.25189E-01 -2.82537E-01
    8993.080     -0.821   1.240  4.70901E-01  7.38091E-01 -2.67190E-01
    8993.464     -0.436   1.280  5.02858E-01  7.50850E-01 -2.47992E-01
    8993.861     -0.040   1.320  5.37268E-01  7.63446E-01 -2.26178E-01
    8994.269      0.368   1.360  5.69009E-01  7.75892E-01 -2.06883E-01
    8994.690      0.789   1.400  5.93135E-01  7.88122E-01 -1.94987E-01
    8995.122      1.222   1.440  6.10138E-01  8.00153E-01 -1.90015E-01
    8995.567      1.667   1.480  6.26815E-01  8.11935E-01 -1.85120E-01
    8996.025      2.124   1.520  6.49979E-01  8.23462E-01 -1.73483E-01
    8996.494      2.593   1.560  6.84277E-01  8.34705E-01 -1.50429E-01
    8996.976      3.075   1.600  7.32145E-01  8.45638E-01 -1.13493E-01
    8997.469      3.569   1.640  7.89349E-01  8.56275E-01 -6.69261E-02
    8997.975      4.075   1.680  8.54950E-01  8.66569E-01 -1.16189E-02
    8998.494      4.593   1.720  9.41361E-01  8.76511E-01  6.48503E-02
    8999.024      5.123   1.760  1.06261E+00  8.86099E-01  1.76510E-01
    8999.566      5.666   1.800  1.21272E+00  8.95307E-01  3.17411E-01
    9000.121      6.220   1.840  1.36012E+00  9.04132E-01  4.55984E-01
    9000.688      6.787   1.880  1.46745E+00  9.12569E-01  5.54881E-01
    9001.267      7.366   1.920  1.51441E+00  9.20616E-01  5.93792E-01
    9001.858      7.958   1.960  1.50372E+00  9.28233E-01  5.75488E-01
    9002.462      8.561   2.000  1.45016E+00  9.35459E-01  5.14705E-01
    9003.078      9.177   2.040  1.37259E+00  9.42273E-01  4.30314E-01
    9003.706      9.805   2.080  1.29202E+00  9.48698E-01  3.43325E-01
    9004.346     10.445   2.120  1.21761E+00  9.54714E-01  2.62898E-01
    9004.998     11.097   2.160  1.14513E+00  9.60324E-01  1.84809E-01
    9005.662     11.762   2.200  1.07951E+00  9.65531E-01  1.13979E-01
    9006.339     12.438   2.240  1.03519E+00  9.70380E-01  6.48104E-02
    9007.028     13.127   2.280  1.01545E+00  9.74835E-01  4.06183E-02
    9007.729     13.828   2.320  1.01065E+00  9.78922E-01  3.17262E-02
    9008.442     14.541   2.360  1.01341E+00  9.82645E-01  3.07621E-02
    9009.168     15.267   2.400  1.02171E+00  9.86052E-01  3.56537E-02
    9009.905     16.004   2.440  1.02903E+00  9.89106E-01  3.99269E-02
    9010.655     16.754   2.480  1.02982E+00  9.91837E-01  3.79800E-02
    9011.417     17.516   2.520  1.02773E+00  9.94270E-01  3.34576E-02
    9012.191     18.290   2.560  1.02890E+00  9.96393E-01  3.25059E-02
    9012.978     19.077   2.600  1.03635E+00  9.98255E-01  3.80969E-02
    9013.776     19.875   2.640  1.05338E+00  9.99861E-01  5.35158E-02
    9014.587     20.686   2.680  1.08225E+00  1.00120E+00  8.10508E-02
    9015.410     21.509   2.720  1.11666E+00  1.00232E+00  1.14336E-01
    9016.245     22.344   2.760  1.14181E+00  1.00321E+00  1.38608E-01
    9017.092     23.191   2.800  1.14155E+00  1.00391E+00  1.37644E-01
    9017.952     24.051   2.840  1.10571E+00  1.00439E+00  1.01316E-01
    9018.824     24.923   2.880  1.05564E+00  1.00473E+00  5.09103E-02
    9019.707     25.807   2.920  1.00843E+00  1.00490E+00  3.53659E-03
    9020.604     26.703   2.960  9.68567E-01  1.00491E+00 -3.63451E-02
    9021.512     27.611   3.000  9.35718E-01  1.00478E+00 -6.90582E-02
    9022.432     28.532   3.040  9.08622E-01  1.00454E+00 -9.59147E-02
    9023.365     29.464   3.080  8.86433E-01  1.00418E+00 -1.17749E-01
    9024.310     30.409   3.120  8.68726E-01  1.00374E+00 -1.35012E-01
    9025.267     31.366   3.160  8.55084E-01  1.00321E+00 -1.48125E-01
    9026.236     32.335   3.200  8.44927E-01  1.00260E+00 -1.57674E-01
    9027.218     33.317   3.240  8.37923E-01  1.00192E+00 -1.63998E-01
    9028.211     34.311   3.280  8.34276E-01  1.00121E+00 -1.66937E-01
    9029.217     35.316   3.320  8.33562E-01  1.00044E+00 -1.66879E-01
    9030.235     36.334   3.360  8.35591E-01  9.99629E-01 -1.64038E-01
    9031.265     37.365   3.400  8.40261E-01  9.98802E-01 -1.58542E-01
    9032.308     38.407   3.440  8.47329E-01  9.97946E-01 -1.50617E-01
    9033.362     39.462   3.480  8.56680E-01  9.97085E-01 -1.40404E-01
    9034.429     40.528   3.520  8.68313E-01  9.96241E-01 -1.27928E-01
    9035.508     41.607   3.560  8.82149E-01  9.95376E-01 -1.13227E-01
    9036.599     42.699   3.600  8.97688E-01  9.94515E-01 -9.68271E-02
    9037.703     43.802   3.640  9.14450E-01  9.93682E-01 -7.92315E-02
    9038.818     44.918   3.680  9.31905E-01  9.92878E-01 -6.09734E-02
    9039.946     46.045   3.720  9.49527E-01  9.92086E-01 -4.25596E-02
    9041.086     47.185   3.760  9.66973E-01  9.91328E-01 -2.43546E-02
    9042.238     48.337   3.800  9.84131E-01  9.90605E-01 -6.47372E-03
    9043.403     49.502   3.840  1.00090E+00  9.89898E-01  1.10019E-02
    9044.579     50.678   3.880  1.01714E+00  9.89251E-01  2.78852E-02
    9045.768     51.867   3.920  1.03244E+00  9.88646E-01  4.37961E-02
    9046.969     53.068   3.960  1.04610E+00  9.88082E-01  5.80144E-02
    9048.182     54.281   4.000  1.05712E+00  9.87558E-01  6.95666E-02
    9049.407     55.506   4.040  1.06481E+00  9.87077E-01  7.77307E-02
    9050.645     56.744   4.080  1.06892E+00  9.86639E-01  8.22841E-02
    9051.894     57.993   4.120  1.06983E+00  9.86268E-01  8.35600E-02
    9053.156     59.255   4.160  1.06818E+00  9.85943E-01  8.22378E-02
    9054.430     60.529   4.200  1.06468E+00  9.85681E-01  7.89977E-02
    9055.716     61.816   4.240  1.05978E+00  9.85443E-01  7.43411E-02
    9057.015     63.114   4.280  1.05394E+00  9.85270E-01  6.86748E-02
    9058.325     64.425   4.320  1.04770E+00  9.85140E-01  6.25553E-02
    9059.648     65.747   4.360  1.04156E+00  9.85055E-01  5.65081E-02
    9060.983     67.083   4.400  1.03596E+00  9.85036E-01  5.09198E-02
    9062.331     68.430   4.440  1.03101E+00  9.85058E-01  4.59487E-02
    9063.690     69.789   4.480  1.02661E+00  9.85098E-01  4.15076E-02
    9065.062     71.161   4.520  1.02267E+00  9.85201E-01  3.74738E-02
    9066.445     72.545   4.560  1.01925E+00  9.85345E-01  3.39010E-02
    9067.841     73.940   4.600  1.01650E+00  9.85528E-01  3.09752E-02
    9069.249     75.349   4.640  1.01453E+00  9.85748E-01  2.87776E-02
    9070.670     76.769   4.680  1.01316E+00  9.85983E-01  2.71806E-02
    9072.102     78.202   4.720  1.01218E+00  9.86277E-01  2.59056E-02
    9073.547     79.646   4.760  1.01128E+00  9.86582E-01  2.46988E-02
    9075.004     81.103   4.800  1.01039E+00  9.86919E-01  2.34693E-02
    9076.473     82.572   4.840  1.00951E+00  9.87266E-01  2.22417E-02
    9077.955     84.054   4.880  1.00863E+00  9.87642E-01  2.09840E-02
    9079.448     85.547   4.920  1.00753E+00  9.88024E-01  1.95052E-02
    9080.954     87.053   4.960  1.00585E+00  9.88411E-01  1.74392E-02
    9082.472     88.571   5.000  1.00316E+00  9.88825E-01  1.43306E-02
    9084.002     90.101   5.040  9.99053E-01  9.89242E-01  9.81075E-03
    9085.544     91.643   5.080  9.93508E-01  9.89661E-01  3.84754E-03
    9087.098     93.198   5.120  9.86991E-01  9.90079E-01 -3.08832E-03
    9088.665     94.764   5.160  9.80312E-01  9.90496E-01 -1.01840E-02
    9090.244     96.343   5.200  9.74259E-01  9.90910E-01 -1.66511E-02
    9091.835     97.934   5.240  9.69221E-01  9.91319E-01 -2.20983E-02
    9093.438     99.537   5.280  9.65114E-01  9.91700E-01 -2.65859E-02
    9095.054    101.153   5.320  9.61639E-01  9.92074E-01 -3.04354E-02
    9096.681    102.781   5.360  9.58426E-01  9.92441E-01 -3.40148E-02
    9098.321    104.420   5.400  9.55164E-01  9.92774E-01 -3.76096E-02
    9099.973    106.072   5.440  9.51666E-01  9.93074E-01 -4.14079E-02
    9101.637    107.737   5.480  9.47842E-01  9.93362E-01 -4.55195E-02
    9103.314    109.413   5.520  9.43584E-01  9.93616E-01 -5.00322E-02
    9105.002    111.102   5.560  9.38871E-01  9.93856E-01 -5.49845E-02
    9106.703    112.802   5.600  9.33837E-01  9.94037E-01 -6.02002E-02
    9108.416    114.515   5.640  9.29000E-01  9.94203E-01 -6.52033E-02
    9110.141    116.240   5.680  9.25057E-01  9.94331E-01 -6.92744E-02
    9111.879    117.978   5.720  9.22836E-01  9.94422E-01 -7.15853E-02
    9113.628    119.727   5.760  9.23157E-01  9.94475E-01 -7.13180E-02
    9115.390    121.489   5.800  9.26705E-01  9.94512E-01 -6.78070E-02
    9117.164    123.263   5.840  9.33794E-01  9.94486E-01 -6.06923E-02
    9118.950    125.049   5.880  9.44342E-01  9.94419E-01 -5.00764E-02
    9120.748    126.847   5.920  9.57735E-01  9.94311E-01 -3.65764E-02
    9122.559    128.658   5.960  9.72946E-01  9.94162E-01 -2.12158E-02
    9124.381    130.481   6.000  9.89100E-01  9.93946E-01 -4.84629E-03
