# # comment:                                                     FEFF 9.9.1  
# # Source:
# # Structure
# # Reduced
# # space
# # abc:
# # angles:
# # sites:
# # POT  SCF 100  7.0000   0, screened core-hole, AFOLP (folp(0)= 1.150)
# # Abs   Z=29 Rmt= 1.315 Rnm= 1.386 K  shell
# # Pot 1 Z= 3 Rmt= 1.285 Rnm= 1.341
# # Pot 2 Z=73 Rmt= 1.329 Rnm= 1.469
# # Pot 3 Z=29 Rmt= 1.315 Rnm= 1.386
# # Pot 4 Z= 8 Rmt= 0.995 Rnm= 1.077
# # Gam_ch=1.729E+00 H-L exch Vi= 0.000E+00 Vr= 0.000E+00
# # Mu=-5.725E+00eV kf=2.216E+00 Vint=-1.676E+01eV Rs_int= 1.637
# FMS rfms= 9.0000
# # PATH  Rmax=-1.000,  Keep_limit= 0.00, Heap_limit 0.00  Pwcrit= 2.50%
#  S02=0.950  Temp=   0.00  Debye_temp=   0.00  Global_sig2= 0.00000
#  Energy zero shift, vr, vi    0.00000E+00   0.00000E+00
#  Curved wave amplitude ratio filter   4.000%
#     file         sig2 tot  cw amp ratio   deg  nlegs   reff  inp sig2
#     0/   0 paths used
#  xsedge+ 50, used to normalize mu           2.4562E-04
#  -----------------------------------------------------------------------
#  omega    e    k    mu    mu0     chi     @#
    8983.687     -9.535  -1.000  6.15659E-02  5.90948E-02  2.47117E-03
    8983.986     -9.236  -0.960  6.59555E-02  6.35430E-02  2.41246E-03
    8984.272     -8.950  -0.920  7.07820E-02  6.85000E-02  2.28199E-03
    8984.546     -8.676  -0.880  7.60991E-02  7.40419E-02  2.05723E-03
    8984.809     -8.413  -0.840  8.19675E-02  8.02575E-02  1.70995E-03
    8985.058     -8.163  -0.800  8.84553E-02  8.72501E-02  1.20517E-03
    8985.296     -7.926  -0.760  9.56382E-02  9.51381E-02  5.00114E-04
    8985.522     -7.700  -0.720  1.03599E-01  1.04056E-01 -4.56496E-04
    8985.735     -7.487  -0.680  1.12426E-01  1.14151E-01 -1.72449E-03
    8985.936     -7.286  -0.640  1.22209E-01  1.25580E-01 -3.37088E-03
    8986.125     -7.097  -0.600  1.33032E-01  1.38498E-01 -5.46603E-03
    8986.302     -6.920  -0.560  1.44959E-01  1.53036E-01 -8.07612E-03
    8986.467     -6.755  -0.520  1.58023E-01  1.69273E-01 -1.12506E-02
    8986.619     -6.603  -0.480  1.72191E-01  1.87195E-01 -1.50044E-02
    8986.759     -6.463  -0.440  1.87347E-01  2.06644E-01 -1.92972E-02
    8986.887     -6.335  -0.400  2.03260E-01  2.27277E-01 -2.40168E-02
    8987.003     -6.219  -0.360  2.19580E-01  2.48555E-01 -2.89753E-02
    8987.107     -6.115  -0.320  2.35848E-01  2.69777E-01 -3.39287E-02
    8987.198     -6.024  -0.280  2.51548E-01  2.90166E-01 -3.86182E-02
    8987.277     -5.945  -0.240  2.66158E-01  3.08977E-01 -4.28190E-02
    8987.344     -5.877  -0.200  2.79212E-01  3.25589E-01 -4.63773E-02
    8987.399     -5.823  -0.160  2.90330E-01  3.39552E-01 -4.92214E-02
    8987.442     -5.780  -0.120  2.99230E-01  3.50579E-01 -5.13491E-02
    8987.472     -5.749  -0.080  3.05716E-01  3.58517E-01 -5.28016E-02
    8987.497     -5.725   0.000  3.10987E-01  3.64891E-01 -5.39046E-02
    8987.552     -5.670   0.120  3.22793E-01  3.79257E-01 -5.64633E-02
    8987.594     -5.628   0.160  3.32114E-01  3.90383E-01 -5.82690E-02
    8987.649     -5.573   0.200  3.44268E-01  4.04600E-01 -6.03320E-02
    8987.716     -5.506   0.240  3.59259E-01  4.21631E-01 -6.23722E-02
    8987.796     -5.426   0.280  3.77090E-01  4.41147E-01 -6.40568E-02
    8987.887     -5.335   0.320  3.97662E-01  4.62592E-01 -6.49301E-02
    8987.991     -5.231   0.360  4.20780E-01  4.85285E-01 -6.45054E-02
    8988.106     -5.115   0.400  4.46273E-01  5.08525E-01 -6.22526E-02
    8988.234     -4.987   0.440  4.74076E-01  5.31674E-01 -5.75977E-02
    8988.375     -4.847   0.480  5.04264E-01  5.54219E-01 -4.99544E-02
    8988.527     -4.695   0.520  5.37172E-01  5.75845E-01 -3.86736E-02
    8988.692     -4.530   0.560  5.73475E-01  5.96410E-01 -2.29357E-02
    8988.868     -4.353   0.600  6.14353E-01  6.15839E-01 -1.48550E-03
    8989.057     -4.164   0.640  6.61907E-01  6.34244E-01  2.76635E-02
    8989.259     -3.963   0.680  7.18516E-01  6.51702E-01  6.68146E-02
    8989.472     -3.750   0.720  7.85144E-01  6.68347E-01  1.16797E-01
    8989.698     -3.524   0.760  8.58483E-01  6.84294E-01  1.74189E-01
    8989.935     -3.287   0.800  9.29325E-01  6.99624E-01  2.29701E-01
    8990.185     -3.037   0.840  9.86394E-01  7.14467E-01  2.71927E-01
    8990.447     -2.775   0.880  1.02573E+00  7.28875E-01  2.96855E-01
    8990.722     -2.500   0.920  1.05469E+00  7.42904E-01  3.11784E-01
    8991.008     -2.214   0.960  1.08223E+00  7.56616E-01  3.25617E-01
    8991.307     -1.915   1.000  1.10663E+00  7.70040E-01  3.36593E-01
    8991.618     -1.604   1.040  1.11726E+00  7.83175E-01  3.34080E-01
    8991.941     -1.281   1.080  1.11061E+00  7.96052E-01  3.14554E-01
    8992.276     -0.946   1.120  1.09670E+00  8.08672E-01  2.88029E-01
    8992.624     -0.598   1.160  1.08541E+00  8.21030E-01  2.64376E-01
    8992.983     -0.239   1.200  1.07599E+00  8.33119E-01  2.42869E-01
    8993.355      0.133   1.240  1.06687E+00  8.44924E-01  2.21950E-01
    8993.739      0.517   1.280  1.06097E+00  8.56431E-01  2.04538E-01
    8994.135      0.913   1.320  1.04570E+00  8.67641E-01  1.78062E-01
    8994.544      1.322   1.360  9.94057E-01  8.78533E-01  1.15524E-01
    8994.964      1.743   1.400  9.02878E-01  8.89087E-01  1.37909E-02
    8995.397      2.175   1.440  8.05317E-01  8.99279E-01 -9.39615E-02
    8995.842      2.620   1.480  7.37942E-01  9.09106E-01 -1.71165E-01
    8996.299      3.078   1.520  7.11135E-01  9.18547E-01 -2.07412E-01
    8996.769      3.547   1.560  7.14628E-01  9.27577E-01 -2.12949E-01
    8997.250      4.028   1.600  7.38097E-01  9.36214E-01 -1.98117E-01
    8997.744      4.522   1.640  7.77765E-01  9.44437E-01 -1.66672E-01
    8998.250      5.028   1.680  8.28883E-01  9.52245E-01 -1.23362E-01
    8998.768      5.546   1.720  8.88265E-01  9.59615E-01 -7.13502E-02
    8999.299      6.077   1.760  9.59750E-01  9.66527E-01 -6.77720E-03
    8999.841      6.619   1.800  1.04280E+00  9.73024E-01  6.97717E-02
    9000.396      7.174   1.840  1.12106E+00  9.79085E-01  1.41976E-01
    9000.963      7.741   1.880  1.17102E+00  9.84716E-01  1.86302E-01
    9001.542      8.320   1.920  1.18693E+00  9.89917E-01  1.97016E-01
    9002.133      8.911   1.960  1.18243E+00  9.94693E-01  1.87733E-01
    9002.737      9.515   2.000  1.17093E+00  9.99050E-01  1.71881E-01
    9003.353     10.131   2.040  1.15549E+00  1.00301E+00  1.52474E-01
    9003.980     10.758   2.080  1.13616E+00  1.00656E+00  1.29595E-01
    9004.620     11.399   2.120  1.11901E+00  1.00974E+00  1.09278E-01
    9005.273     12.051   2.160  1.11894E+00  1.01255E+00  1.06384E-01
    9005.937     12.715   2.200  1.15183E+00  1.01501E+00  1.36823E-01
    9006.614     13.392   2.240  1.21668E+00  1.01712E+00  1.99562E-01
    9007.303     14.081   2.280  1.28426E+00  1.01890E+00  2.65364E-01
    9008.004     14.782   2.320  1.31620E+00  1.02038E+00  2.95821E-01
    9008.717     15.495   2.360  1.30081E+00  1.02157E+00  2.79238E-01
    9009.442     16.220   2.400  1.24682E+00  1.02247E+00  2.24347E-01
    9010.180     16.958   2.440  1.16074E+00  1.02312E+00  1.37617E-01
    9010.930     17.708   2.480  1.05427E+00  1.02355E+00  3.07230E-02
    9011.692     18.470   2.520  9.53049E-01  1.02373E+00 -7.06836E-02
    9012.466     19.244   2.560  8.77871E-01  1.02371E+00 -1.45842E-01
    9013.252     20.030   2.600  8.34455E-01  1.02352E+00 -1.89061E-01
    9014.051     20.829   2.640  8.30094E-01  1.02315E+00 -1.93054E-01
    9014.862     21.640   2.680  8.38552E-01  1.02262E+00 -1.84066E-01
    9015.685     22.463   2.720  8.47961E-01  1.02195E+00 -1.73993E-01
    9016.520     23.298   2.760  8.55174E-01  1.02114E+00 -1.65971E-01
    9017.367     24.145   2.800  8.61407E-01  1.02024E+00 -1.58831E-01
    9018.227     25.005   2.840  8.68892E-01  1.01924E+00 -1.50348E-01
    9019.098     25.876   2.880  8.78388E-01  1.01816E+00 -1.39773E-01
    9019.982     26.760   2.920  8.89420E-01  1.01703E+00 -1.27606E-01
    9020.878     27.656   2.960  9.01340E-01  1.01582E+00 -1.14482E-01
    9021.787     28.565   3.000  9.13658E-01  1.01457E+00 -1.00915E-01
    9022.707     29.485   3.040  9.26327E-01  1.01331E+00 -8.69811E-02
    9023.640     30.418   3.080  9.39809E-01  1.01201E+00 -7.22006E-02
    9024.585     31.363   3.120  9.54684E-01  1.01070E+00 -5.60210E-02
    9025.542     32.320   3.160  9.70764E-01  1.00940E+00 -3.86331E-02
    9026.511     33.289   3.200  9.86991E-01  1.00809E+00 -2.11005E-02
    9027.493     34.271   3.240  1.00177E+00  1.00679E+00 -5.02094E-03
    9028.486     35.264   3.280  1.01368E+00  1.00555E+00  8.13625E-03
    9029.492     36.270   3.320  1.02211E+00  1.00431E+00  1.77942E-02
    9030.510     37.288   3.360  1.02720E+00  1.00312E+00  2.40875E-02
    9031.540     38.318   3.400  1.02953E+00  1.00196E+00  2.75679E-02
    9032.583     39.361   3.440  1.02986E+00  1.00085E+00  2.90148E-02
    9033.637     40.415   3.480  1.02894E+00  9.99802E-01  2.91371E-02
    9034.704     41.482   3.520  1.02721E+00  9.98803E-01  2.84063E-02
    9035.783     42.561   3.560  1.02477E+00  9.97854E-01  2.69190E-02
    9036.874     43.652   3.600  1.02154E+00  9.96998E-01  2.45461E-02
    9037.978     44.756   3.640  1.01735E+00  9.96194E-01  2.11593E-02
    9039.093     45.871   3.680  1.01236E+00  9.95442E-01  1.69157E-02
    9040.221     46.999   3.720  1.00712E+00  9.94765E-01  1.23539E-02
    9041.361     48.139   3.760  1.00228E+00  9.94186E-01  8.09195E-03
    9042.513     49.291   3.800  9.98155E-01  9.93663E-01  4.49282E-03
    9043.677     50.455   3.840  9.94812E-01  9.93194E-01  1.61842E-03
    9044.854     51.632   3.880  9.92209E-01  9.92824E-01 -6.15223E-04
    9046.043     52.821   3.920  9.90524E-01  9.92531E-01 -2.00775E-03
    9047.244     54.022   3.960  9.90249E-01  9.92293E-01 -2.04400E-03
    9048.457     55.235   4.000  9.91974E-01  9.92130E-01 -1.55767E-04
    9049.682     56.460   4.040  9.96106E-01  9.92041E-01  4.06507E-03
    9050.919     57.697   4.080  1.00273E+00  9.92006E-01  1.07206E-02
    9052.169     58.947   4.120  1.01157E+00  9.92043E-01  1.95240E-02
    9053.431     60.209   4.160  1.02194E+00  9.92153E-01  2.97842E-02
    9054.705     61.483   4.200  1.03266E+00  9.92315E-01  4.03495E-02
    9055.991     62.769   4.240  1.04235E+00  9.92547E-01  4.98022E-02
    9057.290     64.068   4.280  1.04979E+00  9.92826E-01  5.69681E-02
    9058.600     65.378   4.320  1.05462E+00  9.93172E-01  6.14432E-02
    9059.923     66.701   4.360  1.05693E+00  9.93542E-01  6.33847E-02
    9061.258     68.036   4.400  1.05719E+00  9.93974E-01  6.32186E-02
    9062.605     69.383   4.440  1.05577E+00  9.94448E-01  6.13232E-02
    9063.965     70.743   4.480  1.05293E+00  9.94962E-01  5.79638E-02
    9065.336     72.114   4.520  1.04892E+00  9.95512E-01  5.34041E-02
    9066.720     73.498   4.560  1.04395E+00  9.96074E-01  4.78782E-02
    9068.116     74.894   4.600  1.03802E+00  9.96669E-01  4.13538E-02
    9069.524     76.302   4.640  1.03082E+00  9.97295E-01  3.35274E-02
    9070.945     77.723   4.680  1.02202E+00  9.97928E-01  2.40949E-02
    9072.377     79.155   4.720  1.01165E+00  9.98565E-01  1.30831E-02
    9073.822     80.600   4.760  1.00020E+00  9.99206E-01  9.92351E-04
    9075.279     82.057   4.800  9.88538E-01  9.99869E-01 -1.13313E-02
    9076.748     83.526   4.840  9.77539E-01  1.00053E+00 -2.29939E-02
    9078.229     85.007   4.880  9.67933E-01  1.00117E+00 -3.32372E-02
    9079.723     86.501   4.920  9.60306E-01  1.00180E+00 -4.14955E-02
    9081.229     88.007   4.960  9.54983E-01  1.00243E+00 -4.74453E-02
    9082.746     89.525   5.000  9.51959E-01  1.00304E+00 -5.10858E-02
    9084.277     91.055   5.040  9.50727E-01  1.00361E+00 -5.28796E-02
    9085.819     92.597   5.080  9.50544E-01  1.00418E+00 -5.36342E-02
    9087.373     94.151   5.120  9.50522E-01  1.00469E+00 -5.41696E-02
    9088.940     95.718   5.160  9.50119E-01  1.00519E+00 -5.50695E-02
    9090.519     97.297   5.200  9.49062E-01  1.00565E+00 -5.65855E-02
    9092.110     98.888   5.240  9.47370E-01  1.00606E+00 -5.86941E-02
    9093.713    100.491   5.280  9.45338E-01  1.00642E+00 -6.10784E-02
    9095.329    102.107   5.320  9.43636E-01  1.00675E+00 -6.31132E-02
    9096.956    103.734   5.360  9.43102E-01  1.00704E+00 -6.39364E-02
    9098.596    105.374   5.400  9.44649E-01  1.00726E+00 -6.26111E-02
    9100.248    107.026   5.440  9.49054E-01  1.00744E+00 -5.83821E-02
    9101.912    108.690   5.480  9.56720E-01  1.00757E+00 -5.08469E-02
    9103.589    110.367   5.520  9.67604E-01  1.00765E+00 -4.00484E-02
    9105.277    112.055   5.560  9.81226E-01  1.00767E+00 -2.64396E-02
    9106.978    113.756   5.600  9.96821E-01  1.00763E+00 -1.08112E-02
    9108.691    115.469   5.640  1.01338E+00  1.00753E+00  5.84626E-03
    9110.416    117.194   5.680  1.02984E+00  1.00738E+00  2.24589E-02
    9112.153    118.932   5.720  1.04517E+00  1.00719E+00  3.79880E-02
    9113.903    120.681   5.760  1.05850E+00  1.00695E+00  5.15481E-02
    9115.665    122.443   5.800  1.06906E+00  1.00664E+00  6.24149E-02
    9117.439    124.217   5.840  1.07626E+00  1.00629E+00  6.99624E-02
    9119.225    126.003   5.880  1.07960E+00  1.00590E+00  7.36934E-02
    9121.023    127.801   5.920  1.07890E+00  1.00548E+00  7.34218E-02
    9122.834    129.612   5.960  1.07436E+00  1.00498E+00  6.93730E-02
    9124.656    131.434   6.000  1.06622E+00  1.00445E+00  6.17785E-02
