# # comment:                                                     FEFF 9.9.1  
# # Source:
# # Structure
# # Reduced
# # space
# # abc:
# # angles:
# # sites:
# # POT  SCF 100  7.0000   0, screened core-hole, AFOLP (folp(0)= 1.150)
# # Abs   Z=29 Rmt= 1.239 Rnm= 1.332 K  shell
# # Pot 1 Z=20 Rmt= 1.667 Rnm= 1.745
# # Pot 2 Z=59 Rmt= 1.705 Rnm= 1.790
# # Pot 3 Z=29 Rmt= 1.213 Rnm= 1.311
# # Pot 4 Z= 8 Rmt= 1.060 Rnm= 1.127
# # Gam_ch=1.729E+00 H-L exch Vi= 0.000E+00 Vr= 0.000E+00
# # Mu=-9.049E+00eV kf=2.019E+00 Vint=-1.691E+01eV Rs_int= 1.796
# FMS rfms= 9.0000
# # PATH  Rmax=-1.000,  Keep_limit= 0.00, Heap_limit 0.00  Pwcrit= 2.50%
#  S02=0.950  Temp=   0.00  Debye_temp=   0.00  Global_sig2= 0.00000
#  Energy zero shift, vr, vi    0.00000E+00   0.00000E+00
#  Curved wave amplitude ratio filter   4.000%
#     file         sig2 tot  cw amp ratio   deg  nlegs   reff  inp sig2
#     0/   0 paths used
#  xsedge+ 50, used to normalize mu           2.4642E-04
#  -----------------------------------------------------------------------
#  omega    e    k    mu    mu0     chi     @#
    8984.503    -12.859  -1.000  3.68167E-02  4.99712E-02 -1.31545E-02
    8984.802    -12.560  -0.960  3.88390E-02  5.34865E-02 -1.46475E-02
    8985.088    -12.273  -0.920  4.10306E-02  5.73830E-02 -1.63524E-02
    8985.363    -11.999  -0.880  4.34113E-02  6.17160E-02 -1.83047E-02
    8985.625    -11.737  -0.840  4.60032E-02  6.65496E-02 -2.05464E-02
    8985.875    -11.487  -0.800  4.88312E-02  7.19583E-02 -2.31271E-02
    8986.113    -11.249  -0.760  5.19228E-02  7.80272E-02 -2.61044E-02
    8986.338    -11.024  -0.720  5.53080E-02  8.48524E-02 -2.95444E-02
    8986.551    -10.810  -0.680  5.90181E-02  9.25396E-02 -3.35215E-02
    8986.753    -10.609  -0.640  6.30847E-02  1.01200E-01 -3.81154E-02
    8986.942    -10.420  -0.600  6.75364E-02  1.10943E-01 -4.34068E-02
    8987.118    -10.243  -0.560  7.23939E-02  1.21861E-01 -4.94675E-02
    8987.283    -10.079  -0.520  7.76630E-02  1.34009E-01 -5.63463E-02
    8987.435     -9.926  -0.480  8.33249E-02  1.47373E-01 -6.40482E-02
    8987.576     -9.786  -0.440  8.93251E-02  1.61836E-01 -7.25108E-02
    8987.704     -9.658  -0.400  9.55652E-02  1.77148E-01 -8.15831E-02
    8987.819     -9.542  -0.360  1.01901E-01  1.92919E-01 -9.10182E-02
    8987.923     -9.439  -0.320  1.08153E-01  2.08641E-01 -1.00488E-01
    8988.015     -9.347  -0.280  1.14125E-01  2.23749E-01 -1.09624E-01
    8988.094     -9.268  -0.240  1.19632E-01  2.37698E-01 -1.18067E-01
    8988.161     -9.201  -0.200  1.24515E-01  2.50032E-01 -1.25518E-01
    8988.216     -9.146  -0.160  1.28654E-01  2.60414E-01 -1.31761E-01
    8988.258     -9.104  -0.120  1.31961E-01  2.68627E-01 -1.36666E-01
    8988.289     -9.073  -0.080  1.34376E-01  2.74547E-01 -1.40171E-01
    8988.313     -9.049   0.000  1.36363E-01  2.79306E-01 -1.42943E-01
    8988.368     -8.994   0.120  1.40810E-01  2.90040E-01 -1.49230E-01
    8988.411     -8.951   0.160  1.44290E-01  2.98400E-01 -1.54111E-01
    8988.466     -8.896   0.200  1.48815E-01  3.09082E-01 -1.60267E-01
    8988.533     -8.829   0.240  1.54471E-01  3.21954E-01 -1.67483E-01
    8988.612     -8.750   0.280  1.61359E-01  3.36778E-01 -1.75419E-01
    8988.703     -8.659   0.320  1.69653E-01  3.53179E-01 -1.83526E-01
    8988.807     -8.555   0.360  1.79722E-01  3.70757E-01 -1.91035E-01
    8988.923     -8.439   0.400  1.91972E-01  3.88979E-01 -1.97008E-01
    8989.051     -8.311   0.440  2.07121E-01  4.07436E-01 -2.00315E-01
    8989.191     -8.171   0.480  2.26006E-01  4.25795E-01 -1.99789E-01
    8989.343     -8.018   0.520  2.49365E-01  4.43823E-01 -1.94458E-01
    8989.508     -7.854   0.560  2.77449E-01  4.61423E-01 -1.83974E-01
    8989.685     -7.677   0.600  3.09225E-01  4.78565E-01 -1.69340E-01
    8989.874     -7.488   0.640  3.41238E-01  4.95277E-01 -1.54039E-01
    8990.075     -7.287   0.680  3.67172E-01  5.11636E-01 -1.44464E-01
    8990.288     -7.074   0.720  3.80097E-01  5.27731E-01 -1.47634E-01
    8990.514     -6.848   0.760  3.77684E-01  5.43609E-01 -1.65925E-01
    8990.752     -6.610   0.800  3.64951E-01  5.59348E-01 -1.94397E-01
    8991.002     -6.360   0.840  3.49887E-01  5.74973E-01 -2.25086E-01
    8991.264     -6.098   0.880  3.38218E-01  5.90562E-01 -2.52344E-01
    8991.538     -5.824   0.920  3.32621E-01  6.06096E-01 -2.73475E-01
    8991.825     -5.537   0.960  3.34377E-01  6.21609E-01 -2.87233E-01
    8992.123     -5.239   1.000  3.43571E-01  6.37104E-01 -2.93533E-01
    8992.434     -4.928   1.040  3.58103E-01  6.52555E-01 -2.94452E-01
    8992.757     -4.605   1.080  3.73962E-01  6.67973E-01 -2.94010E-01
    8993.092     -4.269   1.120  3.88606E-01  6.83341E-01 -2.94735E-01
    8993.440     -3.922   1.160  4.02385E-01  6.98597E-01 -2.96213E-01
    8993.800     -3.562   1.200  4.15116E-01  7.13757E-01 -2.98641E-01
    8994.171     -3.190   1.240  4.26064E-01  7.28751E-01 -3.02687E-01
    8994.556     -2.806   1.280  4.36806E-01  7.43573E-01 -3.06767E-01
    8994.952     -2.410   1.320  4.52362E-01  7.58191E-01 -3.05829E-01
    8995.360     -2.002   1.360  4.79073E-01  7.72552E-01 -2.93479E-01
    8995.781     -1.581   1.400  5.17770E-01  7.86642E-01 -2.68872E-01
    8996.214     -1.148   1.440  5.57699E-01  8.00409E-01 -2.42710E-01
    8996.659     -0.703   1.480  5.86011E-01  8.13842E-01 -2.27830E-01
    8997.116     -0.246   1.520  6.07050E-01  8.26908E-01 -2.19857E-01
    8997.585      0.223   1.560  6.37654E-01  8.39575E-01 -2.01920E-01
    8998.067      0.705   1.600  6.92050E-01  8.51812E-01 -1.59762E-01
    8998.561      1.199   1.640  7.73684E-01  8.63610E-01 -8.99257E-02
    8999.067      1.705   1.680  8.73554E-01  8.74942E-01 -1.38753E-03
    8999.585      2.223   1.720  9.77222E-01  8.85798E-01  9.14242E-02
    9000.115      2.753   1.760  1.07977E+00  8.96156E-01  1.83613E-01
    9000.658      3.296   1.800  1.18124E+00  9.06010E-01  2.75228E-01
    9001.212      3.850   1.840  1.26378E+00  9.15356E-01  3.48427E-01
    9001.779      4.417   1.880  1.30364E+00  9.24175E-01  3.79469E-01
    9002.358      4.996   1.920  1.30926E+00  9.32487E-01  3.76775E-01
    9002.950      5.588   1.960  1.31698E+00  9.40292E-01  3.76686E-01
    9003.553      6.191   2.000  1.33989E+00  9.47573E-01  3.92322E-01
    9004.169      6.807   2.040  1.35996E+00  9.54374E-01  4.05590E-01
    9004.797      7.435   2.080  1.36346E+00  9.60660E-01  4.02804E-01
    9005.437      8.075   2.120  1.34311E+00  9.66458E-01  3.76653E-01
    9006.089      8.727   2.160  1.29775E+00  9.71812E-01  3.25942E-01
    9006.754      9.392   2.200  1.24391E+00  9.76690E-01  2.67218E-01
    9007.430     10.068   2.240  1.20129E+00  9.81122E-01  2.20167E-01
    9008.119     10.757   2.280  1.17785E+00  9.85135E-01  1.92720E-01
    9008.820     11.458   2.320  1.16465E+00  9.88738E-01  1.75910E-01
    9009.533     12.171   2.360  1.13898E+00  9.91962E-01  1.47019E-01
    9010.259     12.897   2.400  1.08635E+00  9.94816E-01  9.15299E-02
    9010.996     13.634   2.440  1.02758E+00  9.97308E-01  3.02748E-02
    9011.746     14.384   2.480  9.90726E-01  9.99470E-01 -8.74334E-03
    9012.508     15.146   2.520  9.72479E-01  1.00131E+00 -2.88325E-02
    9013.282     15.920   2.560  9.63580E-01  1.00288E+00 -3.93032E-02
    9014.069     16.707   2.600  9.58856E-01  1.00417E+00 -4.53183E-02
    9014.867     17.505   2.640  9.55976E-01  1.00519E+00 -4.92183E-02
    9015.678     18.316   2.680  9.54613E-01  1.00600E+00 -5.13831E-02
    9016.501     19.139   2.720  9.54484E-01  1.00659E+00 -5.21023E-02
    9017.336     19.974   2.760  9.54829E-01  1.00697E+00 -5.21457E-02
    9018.183     20.822   2.800  9.54771E-01  1.00719E+00 -5.24200E-02
    9019.043     21.681   2.840  9.53666E-01  1.00722E+00 -5.35556E-02
    9019.915     22.553   2.880  9.51736E-01  1.00714E+00 -5.54007E-02
    9020.799     23.437   2.920  9.49306E-01  1.00688E+00 -5.75782E-02
    9021.695     24.333   2.960  9.46431E-01  1.00655E+00 -6.01215E-02
    9022.603     25.241   3.000  9.42362E-01  1.00609E+00 -6.37244E-02
    9023.524     26.162   3.040  9.36413E-01  1.00555E+00 -6.91405E-02
    9024.456     27.094   3.080  9.28574E-01  1.00494E+00 -7.63686E-02
    9025.401     28.039   3.120  9.19604E-01  1.00426E+00 -8.46536E-02
    9026.358     28.996   3.160  9.10514E-01  1.00353E+00 -9.30107E-02
    9027.327     29.966   3.200  9.02105E-01  1.00275E+00 -1.00646E-01
    9028.309     30.947   3.240  8.94934E-01  1.00196E+00 -1.07028E-01
    9029.303     31.941   3.280  8.89221E-01  1.00114E+00 -1.11920E-01
    9030.308     32.947   3.320  8.85318E-01  1.00029E+00 -1.14971E-01
    9031.326     33.965   3.360  8.83929E-01  9.99456E-01 -1.15527E-01
    9032.357     34.995   3.400  8.85803E-01  9.98624E-01 -1.12821E-01
    9033.399     36.037   3.440  8.91266E-01  9.97795E-01 -1.06528E-01
    9034.454     37.092   3.480  9.00162E-01  9.96971E-01 -9.68086E-02
    9035.520     38.159   3.520  9.11708E-01  9.96178E-01 -8.44699E-02
    9036.599     39.238   3.560  9.24446E-01  9.95419E-01 -7.09722E-02
    9037.691     40.329   3.600  9.36756E-01  9.94673E-01 -5.79172E-02
    9038.794     41.432   3.640  9.47371E-01  9.93985E-01 -4.66136E-02
    9039.910     42.548   3.680  9.55543E-01  9.93315E-01 -3.77725E-02
    9041.037     43.675   3.720  9.61481E-01  9.92685E-01 -3.12041E-02
    9042.177     44.815   3.760  9.66403E-01  9.92119E-01 -2.57160E-02
    9043.329     45.968   3.800  9.71842E-01  9.91596E-01 -1.97540E-02
    9044.494     47.132   3.840  9.79093E-01  9.91116E-01 -1.20231E-02
    9045.670     48.308   3.880  9.88878E-01  9.90680E-01 -1.80233E-03
    9046.859     49.497   3.920  1.00113E+00  9.90309E-01  1.08221E-02
    9048.060     50.698   3.960  1.01479E+00  9.89962E-01  2.48325E-02
    9049.273     51.911   4.000  1.02838E+00  9.89704E-01  3.86744E-02
    9050.498     53.136   4.040  1.04038E+00  9.89470E-01  5.09135E-02
    9051.736     54.374   4.080  1.05008E+00  9.89301E-01  6.07810E-02
    9052.985     55.624   4.120  1.05749E+00  9.89177E-01  6.83103E-02
    9054.247     56.885   4.160  1.06344E+00  9.89097E-01  7.43440E-02
    9055.521     58.159   4.200  1.06894E+00  9.89083E-01  7.98595E-02
    9056.808     59.446   4.240  1.07477E+00  9.89090E-01  8.56780E-02
    9058.106     60.744   4.280  1.08133E+00  9.89160E-01  9.21710E-02
    9059.417     62.055   4.320  1.08825E+00  9.89274E-01  9.89721E-02
    9060.739     63.378   4.360  1.09429E+00  9.89430E-01  1.04855E-01
    9062.075     64.713   4.400  1.09778E+00  9.89648E-01  1.08134E-01
    9063.422     66.060   4.440  1.09748E+00  9.89883E-01  1.07594E-01
    9064.781     67.419   4.480  1.09341E+00  9.90152E-01  1.03257E-01
    9066.153     68.791   4.520  1.08691E+00  9.90437E-01  9.64709E-02
    9067.537     70.175   4.560  1.07961E+00  9.90778E-01  8.88284E-02
    9068.932     71.571   4.600  1.07207E+00  9.91132E-01  8.09380E-02
    9070.341     72.979   4.640  1.06365E+00  9.91518E-01  7.21311E-02
    9071.761     74.399   4.680  1.05300E+00  9.91913E-01  6.10873E-02
    9073.194     75.832   4.720  1.03911E+00  9.92340E-01  4.67726E-02
    9074.638     77.276   4.760  1.02187E+00  9.92795E-01  2.90714E-02
    9076.095     78.733   4.800  1.00208E+00  9.93232E-01  8.84611E-03
    9077.564     80.202   4.840  9.81305E-01  9.93696E-01 -1.23904E-02
    9079.046     81.684   4.880  9.61264E-01  9.94161E-01 -3.28961E-02
    9080.539     83.177   4.920  9.43420E-01  9.94626E-01 -5.12054E-02
    9082.045     84.683   4.960  9.28658E-01  9.95090E-01 -6.64323E-02
    9083.563     86.201   5.000  9.17192E-01  9.95553E-01 -7.83608E-02
    9085.093     87.731   5.040  9.08736E-01  9.96011E-01 -8.72757E-02
    9086.635     89.273   5.080  9.02919E-01  9.96445E-01 -9.35262E-02
    9088.190     90.828   5.120  8.99739E-01  9.96894E-01 -9.71552E-02
    9089.756     92.394   5.160  8.99580E-01  9.97312E-01 -9.77320E-02
    9091.335     93.973   5.200  9.03171E-01  9.97700E-01 -9.45290E-02
    9092.926     95.564   5.240  9.10960E-01  9.98079E-01 -8.71191E-02
    9094.529     97.168   5.280  9.22785E-01  9.98448E-01 -7.56632E-02
    9096.145     98.783   5.320  9.37817E-01  9.98784E-01 -6.09667E-02
    9097.773    100.411   5.360  9.54879E-01  9.99084E-01 -4.42054E-02
    9099.412    102.050   5.400  9.72653E-01  9.99371E-01 -2.67182E-02
    9101.064    103.702   5.440  9.89885E-01  9.99600E-01 -9.71545E-03
    9102.729    105.367   5.480  1.00580E+00  9.99836E-01  5.96731E-03
    9104.405    107.043   5.520  1.01978E+00  1.00001E+00  1.97724E-02
    9106.094    108.732   5.560  1.03116E+00  1.00015E+00  3.10075E-02
    9107.794    110.432   5.600  1.03902E+00  1.00027E+00  3.87504E-02
    9109.507    112.145   5.640  1.04243E+00  1.00033E+00  4.20999E-02
    9111.232    113.871   5.680  1.04088E+00  1.00038E+00  4.05043E-02
    9112.970    115.608   5.720  1.03437E+00  1.00038E+00  3.39822E-02
    9114.719    117.357   5.760  1.02374E+00  1.00035E+00  2.33881E-02
    9116.481    119.119   5.800  1.01069E+00  1.00027E+00  1.04196E-02
    9118.255    120.893   5.840  9.97268E-01  1.00014E+00 -2.87054E-03
    9120.041    122.679   5.880  9.85237E-01  9.99990E-01 -1.47528E-02
    9121.839    124.478   5.920  9.75698E-01  9.99829E-01 -2.41312E-02
    9123.650    126.288   5.960  9.69097E-01  9.99606E-01 -3.05091E-02
    9125.473    128.111   6.000  9.65399E-01  9.99319E-01 -3.39202E-02
