# # comment:                                                     FEFF 9.9.1  
# # Source:
# # Structure
# # Reduced
# # space
# # abc:
# # angles:
# # sites:
# # POT  SCF 100  7.0000   0, screened core-hole, AFOLP (folp(0)= 1.150)
# # Abs   Z=29 Rmt= 1.228 Rnm= 1.298 K  shell
# # Pot 1 Z= 3 Rmt= 1.249 Rnm= 1.298
# # Pot 2 Z=27 Rmt= 1.201 Rnm= 1.315
# # Pot 3 Z=29 Rmt= 1.239 Rnm= 1.306
# # Pot 4 Z= 8 Rmt= 1.040 Rnm= 1.097
# # Gam_ch=1.729E+00 H-L exch Vi= 0.000E+00 Vr= 0.000E+00
# # Mu=-9.441E+00eV kf=2.140E+00 Vint=-1.743E+01eV Rs_int= 1.695
# FMS rfms= 9.0000
# # PATH  Rmax=-1.000,  Keep_limit= 0.00, Heap_limit 0.00  Pwcrit= 2.50%
#  S02=0.950  Temp=   0.00  Debye_temp=   0.00  Global_sig2= 0.00000
#  Energy zero shift, vr, vi    0.00000E+00   0.00000E+00
#  Curved wave amplitude ratio filter   4.000%
#     file         sig2 tot  cw amp ratio   deg  nlegs   reff  inp sig2
#     0/   0 paths used
#  xsedge+ 50, used to normalize mu           2.4629E-04
#  -----------------------------------------------------------------------
#  omega    e    k    mu    mu0     chi     @#
    8984.555    -13.251  -1.000  3.18886E-02  5.05564E-02 -1.86678E-02
    8984.854    -12.953  -0.960  3.32864E-02  5.41312E-02 -2.08449E-02
    8985.140    -12.666  -0.920  3.47714E-02  5.80953E-02 -2.33239E-02
    8985.414    -12.392  -0.880  3.63533E-02  6.25050E-02 -2.61517E-02
    8985.677    -12.130  -0.840  3.80435E-02  6.74263E-02 -2.93828E-02
    8985.927    -11.880  -0.800  3.98554E-02  7.29352E-02 -3.30798E-02
    8986.164    -11.642  -0.760  4.18047E-02  7.91189E-02 -3.73142E-02
    8986.390    -11.416  -0.720  4.39092E-02  8.60758E-02 -4.21667E-02
    8986.603    -11.203  -0.680  4.61889E-02  9.39143E-02 -4.77254E-02
    8986.804    -11.002  -0.640  4.86653E-02  1.02748E-01 -5.40832E-02
    8986.993    -10.813  -0.600  5.13591E-02  1.12690E-01 -6.13309E-02
    8987.170    -10.636  -0.560  5.42881E-02  1.23834E-01 -6.95461E-02
    8987.335    -10.472  -0.520  5.74616E-02  1.36237E-01 -7.87753E-02
    8987.487    -10.319  -0.480  6.08741E-02  1.49884E-01 -8.90102E-02
    8987.627    -10.179  -0.440  6.44976E-02  1.64657E-01 -1.00159E-01
    8987.755    -10.051  -0.400  6.82745E-02  1.80300E-01 -1.12025E-01
    8987.871     -9.935  -0.360  7.21157E-02  1.96413E-01 -1.24297E-01
    8987.975     -9.831  -0.320  7.59060E-02  2.12476E-01 -1.36570E-01
    8988.066     -9.740  -0.280  7.95180E-02  2.27912E-01 -1.48394E-01
    8988.145     -9.661  -0.240  8.28299E-02  2.42164E-01 -1.59334E-01
    8988.213     -9.594  -0.200  8.57411E-02  2.54765E-01 -1.69024E-01
    8988.267     -9.539  -0.160  8.81806E-02  2.65370E-01 -1.77189E-01
    8988.310     -9.496  -0.120  9.01067E-02  2.73758E-01 -1.83651E-01
    8988.341     -9.466  -0.080  9.14994E-02  2.79803E-01 -1.88303E-01
    8988.365     -9.441   0.000  9.26431E-02  2.84661E-01 -1.92018E-01
    8988.420     -9.386   0.120  9.51720E-02  2.95641E-01 -2.00469E-01
    8988.462     -9.344   0.160  9.70523E-02  3.04156E-01 -2.07104E-01
    8988.517     -9.289   0.200  9.94192E-02  3.15061E-01 -2.15642E-01
    8988.584     -9.222   0.240  1.02185E-01  3.28200E-01 -2.26015E-01
    8988.664     -9.143   0.280  1.05242E-01  3.43325E-01 -2.38083E-01
    8988.755     -9.051   0.320  1.08470E-01  3.60052E-01 -2.51582E-01
    8988.859     -8.948   0.360  1.11724E-01  3.77948E-01 -2.66223E-01
    8988.975     -8.832   0.400  1.14816E-01  3.96507E-01 -2.81691E-01
    8989.103     -8.704   0.440  1.17605E-01  4.15289E-01 -2.97684E-01
    8989.243     -8.563   0.480  1.19962E-01  4.33928E-01 -3.13966E-01
    8989.395     -8.411   0.520  1.21822E-01  4.52207E-01 -3.30385E-01
    8989.560     -8.246   0.560  1.23193E-01  4.70026E-01 -3.46833E-01
    8989.737     -8.070   0.600  1.24199E-01  4.87354E-01 -3.63155E-01
    8989.925     -7.881   0.640  1.25073E-01  5.04221E-01 -3.79148E-01
    8990.127     -7.680   0.680  1.26335E-01  5.20708E-01 -3.94373E-01
    8990.340     -7.466   0.720  1.28575E-01  5.36882E-01 -4.08307E-01
    8990.566     -7.241   0.760  1.32408E-01  5.52814E-01 -4.20406E-01
    8990.803     -7.003   0.800  1.38435E-01  5.68585E-01 -4.30150E-01
    8991.053     -6.753   0.840  1.47173E-01  5.84224E-01 -4.37051E-01
    8991.315     -6.491   0.880  1.59368E-01  5.99765E-01 -4.40397E-01
    8991.590     -6.217   0.920  1.76170E-01  6.15277E-01 -4.39107E-01
    8991.876     -5.930   0.960  1.98993E-01  6.30712E-01 -4.31719E-01
    8992.175     -5.631   1.000  2.29760E-01  6.46113E-01 -4.16353E-01
    8992.486     -5.320   1.040  2.70273E-01  6.61478E-01 -3.91204E-01
    8992.809     -4.997   1.080  3.21715E-01  6.76757E-01 -3.55042E-01
    8993.144     -4.662   1.120  3.83486E-01  6.91974E-01 -3.08489E-01
    8993.492     -4.315   1.160  4.48880E-01  7.07090E-01 -2.58210E-01
    8993.851     -3.955   1.200  5.05179E-01  7.22058E-01 -2.16879E-01
    8994.223     -3.583   1.240  5.47792E-01  7.36872E-01 -1.89080E-01
    8994.607     -3.199   1.280  5.83810E-01  7.51485E-01 -1.67675E-01
    8995.003     -2.803   1.320  6.19323E-01  7.65885E-01 -1.46562E-01
    8995.412     -2.394   1.360  6.52103E-01  7.80021E-01 -1.27918E-01
    8995.832     -1.974   1.400  6.77665E-01  7.93860E-01 -1.16194E-01
    8996.265     -1.541   1.440  6.94051E-01  8.07389E-01 -1.13338E-01
    8996.710     -1.096   1.480  6.98806E-01  8.20559E-01 -1.21754E-01
    8997.168     -0.639   1.520  7.02595E-01  8.33336E-01 -1.30741E-01
    8997.637     -0.169   1.560  7.27580E-01  8.45730E-01 -1.18150E-01
    8998.118      0.312   1.600  7.80376E-01  8.57692E-01 -7.73165E-02
    8998.612      0.806   1.640  8.47745E-01  8.69193E-01 -2.14488E-02
    8999.118      1.312   1.680  9.23143E-01  8.80245E-01  4.28972E-02
    8999.636      1.830   1.720  9.97201E-01  8.90803E-01  1.06398E-01
    9000.167      2.361   1.760  1.05237E+00  9.00881E-01  1.51488E-01
    9000.709      2.903   1.800  1.11093E+00  9.10455E-01  2.00472E-01
    9001.264      3.458   1.840  1.20243E+00  9.19504E-01  2.82931E-01
    9001.831      4.025   1.880  1.32346E+00  9.28067E-01  3.95398E-01
    9002.410      4.604   1.920  1.44786E+00  9.36105E-01  5.11756E-01
    9003.001      5.195   1.960  1.54824E+00  9.43639E-01  6.04602E-01
    9003.605      5.799   2.000  1.60433E+00  9.50673E-01  6.53659E-01
    9004.221      6.414   2.040  1.60774E+00  9.57209E-01  6.50527E-01
    9004.848      7.042   2.080  1.56564E+00  9.63255E-01  6.02389E-01
    9005.489      7.682   2.120  1.48504E+00  9.68836E-01  5.16206E-01
    9006.141      8.335   2.160  1.37655E+00  9.73937E-01  4.02617E-01
    9006.805      8.999   2.200  1.25993E+00  9.78608E-01  2.81323E-01
    9007.482      9.676   2.240  1.15184E+00  9.82837E-01  1.69001E-01
    9008.171     10.365   2.280  1.05561E+00  9.86653E-01  6.89556E-02
    9008.872     11.066   2.320  9.72859E-01  9.90084E-01 -1.72250E-02
    9009.585     11.779   2.360  9.07680E-01  9.93119E-01 -8.54390E-02
    9010.310     12.504   2.400  8.60309E-01  9.95788E-01 -1.35479E-01
    9011.048     13.242   2.440  8.27413E-01  9.98143E-01 -1.70730E-01
    9011.798     13.992   2.480  8.06458E-01  1.00015E+00 -1.93695E-01
    9012.560     14.754   2.520  8.00104E-01  1.00187E+00 -2.01764E-01
    9013.334     15.528   2.560  8.21723E-01  1.00332E+00 -1.81596E-01
    9014.120     16.314   2.600  8.60772E-01  1.00449E+00 -1.43722E-01
    9014.919     17.113   2.640  9.04366E-01  1.00542E+00 -1.01057E-01
    9015.730     17.924   2.680  9.45767E-01  1.00611E+00 -6.03474E-02
    9016.553     18.746   2.720  9.80944E-01  1.00662E+00 -2.56774E-02
    9017.388     19.582   2.760  1.00863E+00  1.00693E+00  1.69713E-03
    9018.235     20.429   2.800  1.02898E+00  1.00707E+00  2.19054E-02
    9019.095     21.289   2.840  1.04204E+00  1.00705E+00  3.49854E-02
    9019.966     22.160   2.880  1.04892E+00  1.00690E+00  4.20218E-02
    9020.850     23.044   2.920  1.05098E+00  1.00662E+00  4.43568E-02
    9021.746     23.940   2.960  1.04894E+00  1.00623E+00  4.27061E-02
    9022.655     24.849   3.000  1.04212E+00  1.00575E+00  3.63693E-02
    9023.575     25.769   3.040  1.02874E+00  1.00518E+00  2.35511E-02
    9024.508     26.702   3.080  1.00762E+00  1.00454E+00  3.07610E-03
    9025.453     27.647   3.120  9.80160E-01  1.00385E+00 -2.36899E-02
    9026.410     28.604   3.160  9.49972E-01  1.00311E+00 -5.31424E-02
    9027.379     29.573   3.200  9.21074E-01  1.00234E+00 -8.12664E-02
    9028.361     30.554   3.240  8.96685E-01  1.00155E+00 -1.04867E-01
    9029.354     31.548   3.280  8.78423E-01  1.00073E+00 -1.22310E-01
    9030.360     32.554   3.320  8.66740E-01  9.99908E-01 -1.33168E-01
    9031.378     33.572   3.360  8.61374E-01  9.99080E-01 -1.37706E-01
    9032.408     34.602   3.400  8.61611E-01  9.98254E-01 -1.36643E-01
    9033.451     35.645   3.440  8.66140E-01  9.97434E-01 -1.31294E-01
    9034.505     36.699   3.480  8.74014E-01  9.96642E-01 -1.22628E-01
    9035.572     37.766   3.520  8.84623E-01  9.95884E-01 -1.11261E-01
    9036.651     38.845   3.560  8.97579E-01  9.95138E-01 -9.75590E-02
    9037.742     39.936   3.600  9.12493E-01  9.94451E-01 -8.19571E-02
    9038.846     41.039   3.640  9.28557E-01  9.93779E-01 -6.52227E-02
    9039.961     42.155   3.680  9.44719E-01  9.93147E-01 -4.84277E-02
    9041.089     43.283   3.720  9.60014E-01  9.92555E-01 -3.25416E-02
    9042.229     44.423   3.760  9.74083E-01  9.92029E-01 -1.79458E-02
    9043.381     45.575   3.800  9.86991E-01  9.91545E-01 -4.55467E-03
    9044.545     46.739   3.840  9.99164E-01  9.91105E-01  8.05891E-03
    9045.722     47.916   3.880  1.01127E+00  9.90708E-01  2.05651E-02
    9046.911     49.104   3.920  1.02388E+00  9.90357E-01  3.35215E-02
    9048.112     50.305   3.960  1.03702E+00  9.90074E-01  4.69447E-02
    9049.325     51.518   4.000  1.04995E+00  9.89857E-01  6.00945E-02
    9050.550     52.744   4.040  1.06139E+00  9.89665E-01  7.17303E-02
    9051.787     53.981   4.080  1.07019E+00  9.89538E-01  8.06565E-02
    9053.037     55.231   4.120  1.07558E+00  9.89455E-01  8.61207E-02
    9054.299     56.493   4.160  1.07744E+00  9.89418E-01  8.80254E-02
    9055.573     57.767   4.200  1.07602E+00  9.89447E-01  8.65773E-02
    9056.859     59.053   4.240  1.07172E+00  9.89520E-01  8.22022E-02
    9058.158     60.352   4.280  1.06527E+00  9.89633E-01  7.56339E-02
    9059.468     61.662   4.320  1.05761E+00  9.89788E-01  6.78168E-02
    9060.791     62.985   4.360  1.04954E+00  9.89983E-01  5.95529E-02
    9062.126     64.320   4.400  1.04145E+00  9.90217E-01  5.12367E-02
    9063.473     65.667   4.440  1.03350E+00  9.90490E-01  4.30118E-02
    9064.833     67.027   4.480  1.02559E+00  9.90798E-01  3.47944E-02
    9066.204     68.398   4.520  1.01759E+00  9.91121E-01  2.64691E-02
    9067.588     69.782   4.560  1.00948E+00  9.91499E-01  1.79856E-02
    9068.984     71.178   4.600  1.00137E+00  9.91890E-01  9.48164E-03
    9070.392     72.586   4.640  9.93696E-01  9.92290E-01  1.40659E-03
    9071.813     74.006   4.680  9.87162E-01  9.92719E-01 -5.55712E-03
    9073.245     75.439   4.720  9.82414E-01  9.93177E-01 -1.07636E-02
    9074.690     76.884   4.760  9.79929E-01  9.93621E-01 -1.36922E-02
    9076.147     78.341   4.800  9.80232E-01  9.94112E-01 -1.38803E-02
    9077.616     79.810   4.840  9.83501E-01  9.94584E-01 -1.10827E-02
    9079.097     81.291   4.880  9.89456E-01  9.95057E-01 -5.60058E-03
    9080.591     82.785   4.920  9.97173E-01  9.95551E-01  1.62201E-03
    9082.097     84.290   4.960  1.00543E+00  9.96021E-01  9.40546E-03
    9083.615     85.808   5.000  1.01338E+00  9.96488E-01  1.68892E-02
    9085.145     87.338   5.040  1.02047E+00  9.96950E-01  2.35166E-02
    9086.687     88.881   5.080  1.02603E+00  9.97407E-01  2.86277E-02
    9088.241     90.435   5.120  1.02921E+00  9.97835E-01  3.13794E-02
    9089.808     92.002   5.160  1.02939E+00  9.98256E-01  3.11328E-02
    9091.387     93.581   5.200  1.02650E+00  9.98668E-01  2.78351E-02
    9092.978     95.172   5.240  1.02091E+00  9.99046E-01  2.18689E-02
    9094.581     96.775   5.280  1.01310E+00  9.99390E-01  1.37122E-02
    9096.197     98.390   5.320  1.00356E+00  9.99722E-01  3.83689E-03
    9097.824    100.018   5.360  9.92934E-01  1.00002E+00 -7.08785E-03
    9099.464    101.658   5.400  9.82130E-01  1.00031E+00 -1.81751E-02
    9101.116    103.310   5.440  9.71935E-01  1.00053E+00 -2.85939E-02
    9102.780    104.974   5.480  9.62833E-01  1.00074E+00 -3.79036E-02
    9104.457    106.650   5.520  9.54793E-01  1.00091E+00 -4.61152E-02
    9106.145    108.339   5.560  9.47499E-01  1.00104E+00 -5.35396E-02
    9107.846    110.040   5.600  9.40597E-01  1.00113E+00 -6.05336E-02
    9109.559    111.753   5.640  9.33987E-01  1.00118E+00 -6.71939E-02
    9111.284    113.478   5.680  9.28110E-01  1.00119E+00 -7.30806E-02
    9113.022    115.215   5.720  9.23873E-01  1.00116E+00 -7.72886E-02
    9114.771    116.965   5.760  9.22228E-01  1.00109E+00 -7.88658E-02
    9116.533    118.727   5.800  9.23718E-01  1.00101E+00 -7.72927E-02
    9118.307    120.500   5.840  9.28195E-01  1.00087E+00 -7.26721E-02
    9120.093    122.287   5.880  9.35006E-01  1.00068E+00 -6.56776E-02
    9121.891    124.085   5.920  9.43229E-01  1.00049E+00 -5.72589E-02
    9123.702    125.895   5.960  9.52053E-01  1.00023E+00 -4.81764E-02
    9125.524    127.718   6.000  9.61636E-01  9.99935E-01 -3.82987E-02
