# # comment:                                                     FEFF 9.9.1  
# # Source:
# # Structure
# # Reduced
# # space
# # abc:
# # angles:
# # sites:
# # POT  SCF 100  7.0000   0, screened core-hole, AFOLP (folp(0)= 1.150)
# # Abs   Z=29 Rmt= 1.158 Rnm= 1.282 K  shell
# # Pot 1 Z=11 Rmt= 1.498 Rnm= 1.555
# # Pot 2 Z=29 Rmt= 1.173 Rnm= 1.290
# # Pot 3 Z= 8 Rmt= 1.063 Rnm= 1.128
# # Gam_ch=1.729E+00 H-L exch Vi= 0.000E+00 Vr= 0.000E+00
# # Mu=-7.881E+00eV kf=1.974E+00 Vint=-1.493E+01eV Rs_int= 1.837
# FMS rfms= 9.0000
# # PATH  Rmax=-1.000,  Keep_limit= 0.00, Heap_limit 0.00  Pwcrit= 2.50%
#  S02=0.950  Temp=   0.00  Debye_temp=   0.00  Global_sig2= 0.00000
#  Energy zero shift, vr, vi    0.00000E+00   0.00000E+00
#  Curved wave amplitude ratio filter   4.000%
#     file         sig2 tot  cw amp ratio   deg  nlegs   reff  inp sig2
#     0/   0 paths used
#  xsedge+ 50, used to normalize mu           2.4274E-04
#  -----------------------------------------------------------------------
#  omega    e    k    mu    mu0     chi     @#
    8984.109    -11.691  -1.000  3.55919E-02  5.51683E-02 -1.95764E-02
    8984.407    -11.392  -0.960  3.74497E-02  5.91161E-02 -2.16664E-02
    8984.694    -11.106  -0.920  3.94617E-02  6.34931E-02 -2.40314E-02
    8984.968    -10.831  -0.880  4.16473E-02  6.83611E-02 -2.67138E-02
    8985.230    -10.569  -0.840  4.40289E-02  7.37922E-02 -2.97633E-02
    8985.480    -10.319  -0.800  4.66319E-02  7.98693E-02 -3.32375E-02
    8985.718    -10.082  -0.760  4.94850E-02  8.66877E-02 -3.72027E-02
    8985.944     -9.856  -0.720  5.26202E-02  9.43546E-02 -4.17344E-02
    8986.157     -9.643  -0.680  5.60718E-02  1.02988E-01 -4.69160E-02
    8986.358     -9.442  -0.640  5.98755E-02  1.12711E-01 -5.28359E-02
    8986.547     -9.253  -0.600  6.40653E-02  1.23647E-01 -5.95815E-02
    8986.724     -9.076  -0.560  6.86694E-02  1.35897E-01 -6.72276E-02
    8986.888     -8.911  -0.520  7.37034E-02  1.49522E-01 -7.58190E-02
    8987.041     -8.759  -0.480  7.91617E-02  1.64507E-01 -8.53452E-02
    8987.181     -8.619  -0.440  8.50068E-02  1.80720E-01 -9.57130E-02
    8987.309     -8.491  -0.400  9.11605E-02  1.97883E-01 -1.06722E-01
    8987.425     -8.375  -0.360  9.74989E-02  2.15559E-01 -1.18060E-01
    8987.529     -8.271  -0.320  1.03857E-01  2.33183E-01 -1.29326E-01
    8987.620     -8.180  -0.280  1.10040E-01  2.50122E-01 -1.40082E-01
    8987.699     -8.100  -0.240  1.15846E-01  2.65769E-01 -1.49923E-01
    8987.766     -8.033  -0.200  1.21086E-01  2.79610E-01 -1.58524E-01
    8987.821     -7.979  -0.160  1.25596E-01  2.91266E-01 -1.65670E-01
    8987.864     -7.936  -0.120  1.29247E-01  3.00491E-01 -1.71243E-01
    8987.894     -7.905  -0.080  1.31945E-01  3.07143E-01 -1.75199E-01
    8987.919     -7.881   0.000  1.34199E-01  3.12493E-01 -1.78295E-01
    8987.974     -7.826   0.120  1.39152E-01  3.24580E-01 -1.85428E-01
    8988.016     -7.783   0.160  1.43031E-01  3.33986E-01 -1.90955E-01
    8988.071     -7.729   0.200  1.48090E-01  3.46016E-01 -1.97926E-01
    8988.138     -7.662   0.240  1.54358E-01  3.60531E-01 -2.06173E-01
    8988.217     -7.582   0.280  1.61833E-01  3.77254E-01 -2.15421E-01
    8988.309     -7.491   0.320  1.70514E-01  3.95844E-01 -2.25330E-01
    8988.412     -7.387   0.360  1.80205E-01  4.15759E-01 -2.35554E-01
    8988.528     -7.271   0.400  1.90699E-01  4.36505E-01 -2.45805E-01
    8988.656     -7.143   0.440  2.01583E-01  4.57590E-01 -2.56007E-01
    8988.796     -7.003   0.480  2.12317E-01  4.78669E-01 -2.66352E-01
    8988.949     -6.851   0.520  2.22206E-01  4.99446E-01 -2.77240E-01
    8989.113     -6.686   0.560  2.30579E-01  5.19832E-01 -2.89253E-01
    8989.290     -6.509   0.600  2.36867E-01  5.39771E-01 -3.02904E-01
    8989.479     -6.320   0.640  2.40811E-01  5.59310E-01 -3.18499E-01
    8989.680     -6.119   0.680  2.42759E-01  5.78509E-01 -3.35750E-01
    8989.894     -5.906   0.720  2.43714E-01  5.97415E-01 -3.53701E-01
    8990.119     -5.680   0.760  2.44937E-01  6.16115E-01 -3.71178E-01
    8990.357     -5.443   0.800  2.47216E-01  6.34625E-01 -3.87410E-01
    8990.607     -5.193   0.840  2.51123E-01  6.53030E-01 -4.01908E-01
    8990.869     -4.931   0.880  2.57565E-01  6.71319E-01 -4.13754E-01
    8991.143     -4.656   0.920  2.68216E-01  6.89487E-01 -4.21271E-01
    8991.430     -4.370   0.960  2.85117E-01  7.07540E-01 -4.22423E-01
    8991.729     -4.071   1.000  3.09799E-01  7.25472E-01 -4.15673E-01
    8992.040     -3.760   1.040  3.41765E-01  7.43250E-01 -4.01486E-01
    8992.363     -3.437   1.080  3.77976E-01  7.60833E-01 -3.82857E-01
    8992.698     -3.102   1.120  4.15545E-01  7.78194E-01 -3.62649E-01
    8993.045     -2.754   1.160  4.53217E-01  7.95261E-01 -3.42044E-01
    8993.405     -2.395   1.200  4.85950E-01  8.12000E-01 -3.26051E-01
    8993.777     -2.023   1.240  5.03486E-01  8.28378E-01 -3.24892E-01
    8994.161     -1.639   1.280  5.03769E-01  8.44335E-01 -3.40566E-01
    8994.557     -1.243   1.320  4.97421E-01  8.59813E-01 -3.62393E-01
    8994.966     -0.834   1.360  4.94091E-01  8.74797E-01 -3.80706E-01
    8995.386     -0.413   1.400  4.98665E-01  8.89229E-01 -3.90564E-01
    8995.819      0.019   1.440  5.14822E-01  9.03075E-01 -3.88253E-01
    8996.264      0.464   1.480  5.42613E-01  9.16321E-01 -3.73708E-01
    8996.721      0.922   1.520  5.77928E-01  9.28893E-01 -3.50965E-01
    8997.191      1.391   1.560  6.18566E-01  9.40804E-01 -3.22238E-01
    8997.672      1.873   1.600  6.68717E-01  9.52047E-01 -2.83330E-01
    8998.166      2.366   1.640  7.32976E-01  9.62555E-01 -2.29579E-01
    8998.672      2.872   1.680  8.05415E-01  9.72387E-01 -1.66972E-01
    8999.190      3.390   1.720  8.70441E-01  9.81482E-01 -1.11041E-01
    8999.720      3.921   1.760  9.26413E-01  9.89884E-01 -6.34718E-02
    9000.263      4.463   1.800  9.85863E-01  9.97597E-01 -1.17342E-02
    9000.818      5.018   1.840  1.06149E+00  1.00461E+00  5.68863E-02
    9001.385      5.585   1.880  1.15698E+00  1.01094E+00  1.46044E-01
    9001.964      6.164   1.920  1.26641E+00  1.01661E+00  2.49798E-01
    9002.555      6.755   1.960  1.37714E+00  1.02164E+00  3.55500E-01
    9003.159      7.359   2.000  1.47442E+00  1.02605E+00  4.48367E-01
    9003.774      7.975   2.040  1.54477E+00  1.02990E+00  5.14875E-01
    9004.402      8.602   2.080  1.57892E+00  1.03317E+00  5.45746E-01
    9005.042      9.243   2.120  1.57291E+00  1.03590E+00  5.37006E-01
    9005.695      9.895   2.160  1.53378E+00  1.03813E+00  4.95643E-01
    9006.359     10.559   2.200  1.48041E+00  1.03990E+00  4.40510E-01
    9007.036     11.236   2.240  1.42881E+00  1.04123E+00  3.87577E-01
    9007.724     11.925   2.280  1.38336E+00  1.04213E+00  3.41233E-01
    9008.426     12.626   2.320  1.33900E+00  1.04267E+00  2.96333E-01
    9009.139     13.339   2.360  1.28921E+00  1.04285E+00  2.46363E-01
    9009.864     14.064   2.400  1.23184E+00  1.04270E+00  1.89139E-01
    9010.602     14.802   2.440  1.17640E+00  1.04228E+00  1.34124E-01
    9011.352     15.552   2.480  1.12932E+00  1.04158E+00  8.77373E-02
    9012.114     16.314   2.520  1.09218E+00  1.04065E+00  5.15290E-02
    9012.888     17.088   2.560  1.06446E+00  1.03950E+00  2.49619E-02
    9013.674     17.874   2.600  1.04502E+00  1.03817E+00  6.85414E-03
    9014.473     18.673   2.640  1.03240E+00  1.03670E+00 -4.30135E-03
    9015.283     19.484   2.680  1.02511E+00  1.03507E+00 -9.96691E-03
    9016.106     20.307   2.720  1.02176E+00  1.03335E+00 -1.15919E-02
    9016.942     21.142   2.760  1.02075E+00  1.03151E+00 -1.07553E-02
    9017.789     21.989   2.800  1.02039E+00  1.02959E+00 -9.19966E-03
    9018.648     22.849   2.840  1.01908E+00  1.02762E+00 -8.53959E-03
    9019.520     23.721   2.880  1.01558E+00  1.02561E+00 -1.00297E-02
    9020.404     24.604   2.920  1.00924E+00  1.02358E+00 -1.43448E-02
    9021.300     25.501   2.960  1.00014E+00  1.02153E+00 -2.13926E-02
    9022.209     26.409   3.000  9.88826E-01  1.01950E+00 -3.06717E-02
    9023.129     27.329   3.040  9.75789E-01  1.01747E+00 -4.16814E-02
    9024.062     28.262   3.080  9.61706E-01  1.01546E+00 -5.37501E-02
    9025.007     29.207   3.120  9.47201E-01  1.01350E+00 -6.63003E-02
    9025.964     30.164   3.160  9.32480E-01  1.01159E+00 -7.91081E-02
    9026.933     31.133   3.200  9.17868E-01  1.00972E+00 -9.18541E-02
    9027.914     32.115   3.240  9.03982E-01  1.00791E+00 -1.03925E-01
    9028.908     33.108   3.280  8.91464E-01  1.00619E+00 -1.14725E-01
    9029.914     34.114   3.320  8.80893E-01  1.00453E+00 -1.23635E-01
    9030.932     35.132   3.360  8.72962E-01  1.00297E+00 -1.30010E-01
    9031.962     36.162   3.400  8.67982E-01  1.00148E+00 -1.33494E-01
    9033.004     37.205   3.440  8.66013E-01  1.00009E+00 -1.34075E-01
    9034.059     38.259   3.480  8.66920E-01  9.98789E-01 -1.31869E-01
    9035.126     39.326   3.520  8.70432E-01  9.97600E-01 -1.27167E-01
    9036.205     40.405   3.560  8.75743E-01  9.96501E-01 -1.20758E-01
    9037.296     41.496   3.600  8.81983E-01  9.95494E-01 -1.13511E-01
    9038.399     42.600   3.640  8.88497E-01  9.94622E-01 -1.06125E-01
    9039.515     43.715   3.680  8.94967E-01  9.93821E-01 -9.88535E-02
    9040.643     44.843   3.720  9.01634E-01  9.93156E-01 -9.15218E-02
    9041.783     45.983   3.760  9.09008E-01  9.92583E-01 -8.35750E-02
    9042.935     47.135   3.800  9.17526E-01  9.92102E-01 -7.45763E-02
    9044.099     48.299   3.840  9.27293E-01  9.91737E-01 -6.44433E-02
    9045.276     49.476   3.880  9.38212E-01  9.91485E-01 -5.32723E-02
    9046.464     50.665   3.920  9.50093E-01  9.91324E-01 -4.12316E-02
    9047.665     51.866   3.960  9.62713E-01  9.91276E-01 -2.85628E-02
    9048.878     53.079   4.000  9.75830E-01  9.91316E-01 -1.54859E-02
    9050.104     54.304   4.040  9.89272E-01  9.91444E-01 -2.17144E-03
    9051.341     55.541   4.080  1.00290E+00  9.91681E-01  1.12175E-02
    9052.591     56.791   4.120  1.01649E+00  9.92003E-01  2.44833E-02
    9053.853     58.053   4.160  1.02994E+00  9.92408E-01  3.75294E-02
    9055.127     59.327   4.200  1.04311E+00  9.92894E-01  5.02114E-02
    9056.413     60.613   4.240  1.05572E+00  9.93438E-01  6.22860E-02
    9057.711     61.912   4.280  1.06746E+00  9.94083E-01  7.33790E-02
    9059.022     63.222   4.320  1.07780E+00  9.94805E-01  8.29966E-02
    9060.345     64.545   4.360  1.08619E+00  9.95577E-01  9.06174E-02
    9061.680     65.880   4.400  1.09228E+00  9.96399E-01  9.58801E-02
    9063.027     67.227   4.440  1.09611E+00  9.97291E-01  9.88215E-02
    9064.387     68.587   4.480  1.09788E+00  9.98229E-01  9.96471E-02
    9065.758     69.958   4.520  1.09776E+00  9.99233E-01  9.85226E-02
    9067.142     71.342   4.560  1.09567E+00  1.00026E+00  9.54188E-02
    9068.538     72.738   4.600  1.09153E+00  1.00131E+00  9.02202E-02
    9069.946     74.146   4.640  1.08547E+00  1.00241E+00  8.30598E-02
    9071.366     75.567   4.680  1.07811E+00  1.00354E+00  7.45700E-02
    9072.799     76.999   4.720  1.07030E+00  1.00467E+00  6.56298E-02
    9074.244     78.444   4.760  1.06271E+00  1.00581E+00  5.69015E-02
    9075.701     79.901   4.800  1.05558E+00  1.00695E+00  4.86272E-02
    9077.170     81.370   4.840  1.04888E+00  1.00812E+00  4.07595E-02
    9078.651     82.851   4.880  1.04246E+00  1.00926E+00  3.32074E-02
    9080.145     84.345   4.920  1.03633E+00  1.01039E+00  2.59401E-02
    9081.650     85.851   4.960  1.03044E+00  1.01152E+00  1.89271E-02
    9083.168     87.369   5.000  1.02475E+00  1.01261E+00  1.21381E-02
    9084.698     88.899   5.040  1.01935E+00  1.01370E+00  5.65512E-03
    9086.241     90.441   5.080  1.01437E+00  1.01474E+00 -3.75679E-04
    9087.795     91.995   5.120  1.00987E+00  1.01575E+00 -5.88208E-03
    9089.362     93.562   5.160  1.00575E+00  1.01671E+00 -1.09588E-02
    9090.941     95.141   5.200  1.00193E+00  1.01761E+00 -1.56784E-02
    9092.532     96.732   5.240  9.98587E-01  1.01848E+00 -1.98948E-02
    9094.135     98.335   5.280  9.95976E-01  1.01931E+00 -2.33357E-02
    9095.750     99.951   5.320  9.94195E-01  1.02007E+00 -2.58737E-02
    9097.378    101.578   5.360  9.93130E-01  1.02075E+00 -2.76207E-02
    9099.018    103.218   5.400  9.92569E-01  1.02138E+00 -2.88144E-02
    9100.670    104.870   5.440  9.92331E-01  1.02196E+00 -2.96319E-02
    9102.334    106.534   5.480  9.92293E-01  1.02244E+00 -3.01489E-02
    9104.010    108.211   5.520  9.92420E-01  1.02287E+00 -3.04489E-02
    9105.699    109.899   5.560  9.92556E-01  1.02324E+00 -3.06848E-02
    9107.400    111.600   5.600  9.92633E-01  1.02351E+00 -3.08792E-02
    9109.113    113.313   5.640  9.92866E-01  1.02373E+00 -3.08608E-02
    9110.838    115.038   5.680  9.93459E-01  1.02386E+00 -3.04035E-02
    9112.575    116.776   5.720  9.94388E-01  1.02392E+00 -2.95300E-02
    9114.325    118.525   5.760  9.95391E-01  1.02389E+00 -2.85026E-02
    9116.087    120.287   5.800  9.96154E-01  1.02379E+00 -2.76361E-02
    9117.860    122.061   5.840  9.96516E-01  1.02361E+00 -2.70934E-02
    9119.647    123.847   5.880  9.96497E-01  1.02338E+00 -2.68798E-02
    9121.445    125.645   5.920  9.96149E-01  1.02307E+00 -2.69177E-02
    9123.255    127.456   5.960  9.95600E-01  1.02267E+00 -2.70715E-02
    9125.078    129.278   6.000  9.94919E-01  1.02214E+00 -2.72209E-02
