# # comment:                                                     FEFF 9.9.1  
# # Source:
# # Structure
# # Reduced
# # space
# # abc:
# # angles:
# # sites:
# # POT  SCF 100  7.0000   0, screened core-hole, AFOLP (folp(0)= 1.150)
# # Abs   Z=29 Rmt= 1.337 Rnm= 1.397 K  shell
# # Pot 1 Z= 3 Rmt= 1.266 Rnm= 1.324
# # Pot 2 Z=29 Rmt= 1.336 Rnm= 1.396
# # Pot 3 Z=15 Rmt= 0.948 Rnm= 1.157
# # Pot 4 Z= 8 Rmt= 0.938 Rnm= 1.038
# # Gam_ch=1.729E+00 H-L exch Vi= 0.000E+00 Vr= 0.000E+00
# # Mu=-6.456E+00eV kf=2.366E+00 Vint=-1.741E+01eV Rs_int= 1.533
# FMS rfms= 9.0000
# # PATH  Rmax=-1.000,  Keep_limit= 0.00, Heap_limit 0.00  Pwcrit= 2.50%
#  S02=0.950  Temp=   0.00  Debye_temp=   0.00  Global_sig2= 0.00000
#  Energy zero shift, vr, vi    0.00000E+00   0.00000E+00
#  Curved wave amplitude ratio filter   4.000%
#     file         sig2 tot  cw amp ratio   deg  nlegs   reff  inp sig2
#     0/   0 paths used
#  xsedge+ 50, used to normalize mu           2.4677E-04
#  -----------------------------------------------------------------------
#  omega    e    k    mu    mu0     chi     @#
    8983.684    -10.266  -1.000  4.82889E-02  5.46278E-02 -6.33889E-03
    8983.983     -9.968  -0.960  5.13288E-02  5.86255E-02 -7.29673E-03
    8984.269     -9.681  -0.920  5.46567E-02  6.30721E-02 -8.41546E-03
    8984.544     -9.407  -0.880  5.83102E-02  6.80342E-02 -9.72406E-03
    8984.806     -9.145  -0.840  6.23327E-02  7.35895E-02 -1.12568E-02
    8985.056     -8.895  -0.800  6.67739E-02  7.98280E-02 -1.30541E-02
    8985.294     -8.657  -0.760  7.16901E-02  8.68533E-02 -1.51631E-02
    8985.519     -8.432  -0.720  7.71444E-02  9.47823E-02 -1.76378E-02
    8985.732     -8.218  -0.680  8.32051E-02  1.03744E-01 -2.05389E-02
    8985.934     -8.017  -0.640  8.99434E-02  1.13875E-01 -2.39316E-02
    8986.123     -7.828  -0.600  9.74277E-02  1.25309E-01 -2.78814E-02
    8986.299     -7.651  -0.560  1.05714E-01  1.38161E-01 -3.24467E-02
    8986.464     -7.487  -0.520  1.14834E-01  1.52500E-01 -3.76659E-02
    8986.616     -7.334  -0.480  1.24770E-01  1.68311E-01 -4.35408E-02
    8986.757     -7.194  -0.440  1.35439E-01  1.85455E-01 -5.00161E-02
    8986.885     -7.066  -0.400  1.46668E-01  2.03631E-01 -5.69633E-02
    8987.000     -6.950  -0.360  1.58193E-01  2.22369E-01 -6.41758E-02
    8987.104     -6.847  -0.320  1.69668E-01  2.41053E-01 -7.13849E-02
    8987.195     -6.755  -0.280  1.80707E-01  2.59003E-01 -7.82960E-02
    8987.275     -6.676  -0.240  1.90932E-01  2.75566E-01 -8.46339E-02
    8987.342     -6.609  -0.200  2.00015E-01  2.90196E-01 -9.01806E-02
    8987.397     -6.554  -0.160  2.07703E-01  3.02496E-01 -9.47925E-02
    8987.439     -6.511  -0.120  2.13817E-01  3.12213E-01 -9.83961E-02
    8987.470     -6.481  -0.080  2.18243E-01  3.19211E-01 -1.00968E-01
    8987.494     -6.456   0.000  2.21807E-01  3.24832E-01 -1.03025E-01
    8987.549     -6.402   0.120  2.29966E-01  3.37481E-01 -1.07515E-01
    8987.592     -6.359   0.160  2.36378E-01  3.47326E-01 -1.10949E-01
    8987.647     -6.304   0.200  2.44617E-01  3.59857E-01 -1.15240E-01
    8987.714     -6.237   0.240  2.54705E-01  3.74928E-01 -1.20222E-01
    8987.793     -6.158   0.280  2.66550E-01  3.92201E-01 -1.25651E-01
    8987.884     -6.066   0.320  2.80014E-01  4.11198E-01 -1.31184E-01
    8987.988     -5.963   0.360  2.94975E-01  4.31366E-01 -1.36391E-01
    8988.104     -5.847   0.400  3.11296E-01  4.52081E-01 -1.40786E-01
    8988.232     -5.719   0.440  3.28873E-01  4.72793E-01 -1.43920E-01
    8988.372     -5.579   0.480  3.47649E-01  4.93076E-01 -1.45427E-01
    8988.524     -5.426   0.520  3.67431E-01  5.12661E-01 -1.45230E-01
    8988.689     -5.262   0.560  3.87681E-01  5.31386E-01 -1.43705E-01
    8988.866     -5.085   0.600  4.07379E-01  5.49262E-01 -1.41883E-01
    8989.055     -4.896   0.640  4.25011E-01  5.66330E-01 -1.41319E-01
    8989.256     -4.695   0.680  4.39163E-01  5.82697E-01 -1.43534E-01
    8989.469     -4.481   0.720  4.49249E-01  5.98439E-01 -1.49191E-01
    8989.695     -4.256   0.760  4.56132E-01  6.13717E-01 -1.57585E-01
    8989.933     -4.018   0.800  4.61949E-01  6.28577E-01 -1.66627E-01
    8990.182     -3.768   0.840  4.70030E-01  6.43114E-01 -1.73083E-01
    8990.445     -3.506   0.880  4.84349E-01  6.57410E-01 -1.73061E-01
    8990.719     -3.232   0.920  5.08186E-01  6.71511E-01 -1.63326E-01
    8991.005     -2.945   0.960  5.42325E-01  6.85452E-01 -1.43128E-01
    8991.304     -2.646   1.000  5.83491E-01  6.99255E-01 -1.15764E-01
    8991.615     -2.336   1.040  6.23989E-01  7.12934E-01 -8.89453E-02
    8991.938     -2.012   1.080  6.55588E-01  7.26513E-01 -7.09247E-02
    8992.273     -1.677   1.120  6.75851E-01  7.39991E-01 -6.41402E-02
    8992.621     -1.330   1.160  6.89432E-01  7.53360E-01 -6.39280E-02
    8992.981     -0.970   1.200  7.05492E-01  7.66588E-01 -6.10964E-02
    8993.352     -0.598   1.240  7.32894E-01  7.79698E-01 -4.68034E-02
    8993.736     -0.214   1.280  7.73891E-01  7.92649E-01 -1.87587E-02
    8994.133      0.182   1.320  8.23032E-01  8.05441E-01  1.75906E-02
    8994.541      0.590   1.360  8.73375E-01  8.18027E-01  5.53480E-02
    8994.962      1.011   1.400  9.22755E-01  8.30383E-01  9.23722E-02
    8995.395      1.444   1.440  9.71997E-01  8.42500E-01  1.29498E-01
    8995.840      1.889   1.480  1.02346E+00  8.54372E-01  1.69087E-01
    8996.297      2.346   1.520  1.08365E+00  8.65931E-01  2.17720E-01
    8996.766      2.816   1.560  1.15255E+00  8.77186E-01  2.75366E-01
    8997.248      3.297   1.600  1.21705E+00  8.88111E-01  3.28943E-01
    8997.741      3.791   1.640  1.26901E+00  8.98676E-01  3.70330E-01
    8998.247      4.297   1.680  1.31198E+00  9.08874E-01  4.03110E-01
    8998.766      4.815   1.720  1.34849E+00  9.18678E-01  4.29816E-01
    8999.296      5.345   1.760  1.37056E+00  9.28060E-01  4.42504E-01
    8999.839      5.888   1.800  1.35561E+00  9.37036E-01  4.18571E-01
    9000.393      6.443   1.840  1.28938E+00  9.45560E-01  3.43818E-01
    9000.960      7.010   1.880  1.19773E+00  9.53648E-01  2.44080E-01
    9001.539      7.589   1.920  1.11508E+00  9.61279E-01  1.53797E-01
    9002.131      8.180   1.960  1.05841E+00  9.68449E-01  8.99567E-02
    9002.734      8.783   2.000  1.02856E+00  9.75179E-01  5.33805E-02
    9003.350      9.399   2.040  1.02010E+00  9.81430E-01  3.86683E-02
    9003.978     10.027   2.080  1.02374E+00  9.87222E-01  3.65215E-02
    9004.618     10.667   2.120  1.03000E+00  9.92577E-01  3.74246E-02
    9005.270     11.319   2.160  1.03419E+00  9.97479E-01  3.67076E-02
    9005.934     11.984   2.200  1.03356E+00  1.00193E+00  3.16294E-02
    9006.611     12.661   2.240  1.02712E+00  1.00594E+00  2.11753E-02
    9007.300     13.349   2.280  1.01957E+00  1.00953E+00  1.00371E-02
    9008.001     14.050   2.320  1.01773E+00  1.01273E+00  4.99998E-03
    9008.714     14.764   2.360  1.02188E+00  1.01553E+00  6.35412E-03
    9009.440     15.489   2.400  1.02507E+00  1.01793E+00  7.14343E-03
    9010.177     16.227   2.440  1.02056E+00  1.01998E+00  5.86959E-04
    9010.927     16.976   2.480  1.00813E+00  1.02167E+00 -1.35401E-02
    9011.689     17.738   2.520  9.93546E-01  1.02305E+00 -2.95025E-02
    9012.463     18.513   2.560  9.81078E-01  1.02409E+00 -4.30103E-02
    9013.250     19.299   2.600  9.71337E-01  1.02486E+00 -5.35186E-02
    9014.048     20.098   2.640  9.64292E-01  1.02534E+00 -6.10482E-02
    9014.859     20.908   2.680  9.59354E-01  1.02555E+00 -6.61968E-02
    9015.682     21.731   2.720  9.52207E-01  1.02554E+00 -7.33328E-02
    9016.517     22.566   2.760  9.39117E-01  1.02531E+00 -8.61970E-02
    9017.364     23.414   2.800  9.25256E-01  1.02486E+00 -9.96069E-02
    9018.224     24.273   2.840  9.15711E-01  1.02424E+00 -1.08525E-01
    9019.096     25.145   2.880  9.11438E-01  1.02344E+00 -1.12007E-01
    9019.980     26.029   2.920  9.11241E-01  1.02252E+00 -1.11277E-01
    9020.876     26.925   2.960  9.12834E-01  1.02144E+00 -1.08608E-01
    9021.784     27.833   3.000  9.15209E-01  1.02027E+00 -1.05057E-01
    9022.705     28.754   3.040  9.18153E-01  1.01898E+00 -1.00826E-01
    9023.637     29.687   3.080  9.21793E-01  1.01761E+00 -9.58138E-02
    9024.582     30.631   3.120  9.26431E-01  1.01618E+00 -8.97494E-02
    9025.539     31.589   3.160  9.32234E-01  1.01469E+00 -8.24513E-02
    9026.508     32.558   3.200  9.39059E-01  1.01317E+00 -7.41091E-02
    9027.490     33.539   3.240  9.46814E-01  1.01162E+00 -6.48016E-02
    9028.483     34.533   3.280  9.55306E-01  1.01003E+00 -5.47259E-02
    9029.489     35.539   3.320  9.64183E-01  1.00844E+00 -4.42601E-02
    9030.507     36.557   3.360  9.73177E-01  1.00688E+00 -3.37003E-02
    9031.538     37.587   3.400  9.81927E-01  1.00532E+00 -2.33909E-02
    9032.580     38.629   3.440  9.89955E-01  1.00377E+00 -1.38139E-02
    9033.635     39.684   3.480  9.97005E-01  1.00228E+00 -5.27095E-03
    9034.701     40.751   3.520  1.00315E+00  1.00080E+00  2.35126E-03
    9035.780     41.830   3.560  1.00898E+00  9.99393E-01  9.58962E-03
    9036.872     42.921   3.600  1.01519E+00  9.98031E-01  1.71580E-02
    9037.975     44.024   3.640  1.02233E+00  9.96739E-01  2.55897E-02
    9039.090     45.140   3.680  1.03058E+00  9.95496E-01  3.50874E-02
    9040.218     46.268   3.720  1.03981E+00  9.94329E-01  4.54857E-02
    9041.358     47.408   3.760  1.04968E+00  9.93239E-01  5.64439E-02
    9042.510     48.560   3.800  1.05974E+00  9.92226E-01  6.75098E-02
    9043.675     49.724   3.840  1.06933E+00  9.91272E-01  7.80536E-02
    9044.851     50.901   3.880  1.07781E+00  9.90421E-01  8.73881E-02
    9046.040     52.089   3.920  1.08448E+00  9.89653E-01  9.48300E-02
    9047.241     53.290   3.960  1.08874E+00  9.88989E-01  9.97548E-02
    9048.454     54.503   4.000  1.09004E+00  9.88388E-01  1.01652E-01
    9049.679     55.729   4.040  1.08820E+00  9.87890E-01  1.00310E-01
    9050.917     56.966   4.080  1.08318E+00  9.87454E-01  9.57214E-02
    9052.166     58.216   4.120  1.07519E+00  9.87122E-01  8.80656E-02
    9053.428     59.478   4.160  1.06454E+00  9.86875E-01  7.76619E-02
    9054.702     60.752   4.200  1.05171E+00  9.86731E-01  6.49819E-02
    9055.989     62.038   4.240  1.03716E+00  9.86646E-01  5.05173E-02
    9057.287     63.336   4.280  1.02149E+00  9.86639E-01  3.48557E-02
    9058.598     64.647   4.320  1.00539E+00  9.86711E-01  1.86811E-02
    9059.920     65.970   4.360  9.89561E-01  9.86861E-01  2.70061E-03
    9061.255     67.305   4.400  9.74749E-01  9.87087E-01 -1.23377E-02
    9062.603     68.652   4.440  9.61677E-01  9.87365E-01 -2.56878E-02
    9063.962     70.011   4.480  9.50951E-01  9.87717E-01 -3.67658E-02
    9065.334     71.383   4.520  9.42918E-01  9.88140E-01 -4.52215E-02
    9066.717     72.767   4.560  9.37615E-01  9.88610E-01 -5.09947E-02
    9068.113     74.163   4.600  9.34748E-01  9.89125E-01 -5.43768E-02
    9069.522     75.571   4.640  9.33776E-01  9.89703E-01 -5.59272E-02
    9070.942     76.991   4.680  9.34078E-01  9.90300E-01 -5.62216E-02
    9072.375     78.424   4.720  9.35220E-01  9.90934E-01 -5.57143E-02
    9073.819     79.869   4.760  9.37088E-01  9.91605E-01 -5.45164E-02
    9075.276     81.326   4.800  9.39883E-01  9.92309E-01 -5.24257E-02
    9076.745     82.795   4.840  9.43869E-01  9.93022E-01 -4.91534E-02
    9078.227     84.276   4.880  9.49281E-01  9.93764E-01 -4.44831E-02
    9079.720     85.770   4.920  9.56155E-01  9.94511E-01 -3.83551E-02
    9081.226     87.275   4.960  9.64290E-01  9.95257E-01 -3.09671E-02
    9082.744     88.793   5.000  9.73287E-01  9.96001E-01 -2.27137E-02
    9084.274     90.323   5.040  9.82508E-01  9.96720E-01 -1.42119E-02
    9085.816     91.866   5.080  9.91267E-01  9.97453E-01 -6.18646E-03
    9087.371     93.420   5.120  9.98876E-01  9.98157E-01  7.19014E-04
    9088.937     94.987   5.160  1.00492E+00  9.98828E-01  6.09625E-03
    9090.516     96.566   5.200  1.00930E+00  9.99486E-01  9.81195E-03
    9092.107     98.157   5.240  1.01204E+00  1.00011E+00  1.19319E-02
    9093.710     99.760   5.280  1.01327E+00  1.00069E+00  1.25780E-02
    9095.326    101.375   5.320  1.01309E+00  1.00123E+00  1.18624E-02
    9096.953    103.003   5.360  1.01159E+00  1.00172E+00  9.86431E-03
    9098.593    104.643   5.400  1.00879E+00  1.00215E+00  6.63442E-03
    9100.245    106.295   5.440  1.00478E+00  1.00256E+00  2.21971E-03
    9101.910    107.959   5.480  9.99677E-01  1.00290E+00 -3.21960E-03
    9103.586    109.635   5.520  9.93847E-01  1.00316E+00 -9.31551E-03
    9105.274    111.324   5.560  9.87882E-01  1.00340E+00 -1.55204E-02
    9106.975    113.025   5.600  9.82352E-01  1.00355E+00 -2.11939E-02
    9108.688    114.738   5.640  9.77945E-01  1.00364E+00 -2.56956E-02
    9110.413    116.463   5.680  9.75278E-01  1.00369E+00 -2.84085E-02
    9112.151    118.200   5.720  9.74914E-01  1.00366E+00 -2.87435E-02
    9113.900    119.950   5.760  9.77329E-01  1.00355E+00 -2.62228E-02
    9115.662    121.711   5.800  9.82723E-01  1.00337E+00 -2.06506E-02
    9117.436    123.485   5.840  9.90889E-01  1.00315E+00 -1.22591E-02
    9119.222    125.271   5.880  1.00114E+00  1.00288E+00 -1.73768E-03
    9121.020    127.070   5.920  1.01244E+00  1.00253E+00  9.90103E-03
    9122.831    128.880   5.960  1.02360E+00  1.00212E+00  2.14851E-02
    9124.654    130.703   6.000  1.03357E+00  1.00161E+00  3.19594E-02
