# # comment:                                                     FEFF 9.9.1  
# # Source:
# # Structure
# # Reduced
# # space
# # abc:
# # angles:
# # sites:
# # POT  SCF 100  7.0000   0, screened core-hole, AFOLP (folp(0)= 1.150)
# # Abs   Z=29 Rmt= 1.336 Rnm= 1.398 K  shell
# # Pot 1 Z= 3 Rmt= 1.262 Rnm= 1.322
# # Pot 2 Z=29 Rmt= 1.335 Rnm= 1.394
# # Pot 3 Z=15 Rmt= 0.946 Rnm= 1.156
# # Pot 4 Z= 8 Rmt= 0.940 Rnm= 1.039
# # Gam_ch=1.729E+00 H-L exch Vi= 0.000E+00 Vr= 0.000E+00
# # Mu=-6.345E+00eV kf=2.373E+00 Vint=-1.746E+01eV Rs_int= 1.528
# FMS rfms= 9.0000
# # PATH  Rmax=-1.000,  Keep_limit= 0.00, Heap_limit 0.00  Pwcrit= 2.50%
#  S02=0.950  Temp=   0.00  Debye_temp=   0.00  Global_sig2= 0.00000
#  Energy zero shift, vr, vi    0.00000E+00   0.00000E+00
#  Curved wave amplitude ratio filter   4.000%
#     file         sig2 tot  cw amp ratio   deg  nlegs   reff  inp sig2
#     0/   0 paths used
#  xsedge+ 50, used to normalize mu           2.4670E-04
#  -----------------------------------------------------------------------
#  omega    e    k    mu    mu0     chi     @#
    8983.733    -10.155  -1.000  5.04726E-02  5.51035E-02 -4.63085E-03
    8984.032     -9.857  -0.960  5.37842E-02  5.91497E-02 -5.36544E-03
    8984.318     -9.570  -0.920  5.74251E-02  6.36513E-02 -6.22621E-03
    8984.593     -9.296  -0.880  6.14398E-02  6.86761E-02 -7.23623E-03
    8984.855     -9.034  -0.840  6.58799E-02  7.43029E-02 -8.42297E-03
    8985.105     -8.784  -0.800  7.08044E-02  8.06233E-02 -9.81891E-03
    8985.342     -8.546  -0.760  7.62805E-02  8.77426E-02 -1.14621E-02
    8985.568     -8.320  -0.720  8.23831E-02  9.57796E-02 -1.33965E-02
    8985.781     -8.107  -0.680  8.91939E-02  1.04866E-01 -1.56716E-02
    8985.983     -7.906  -0.640  9.67981E-02  1.15139E-01 -1.83410E-02
    8986.172     -7.717  -0.600  1.05278E-01  1.26737E-01 -2.14588E-02
    8986.348     -7.540  -0.560  1.14701E-01  1.39775E-01 -2.50735E-02
    8986.513     -7.376  -0.520  1.25106E-01  1.54323E-01 -2.92175E-02
    8986.665     -7.223  -0.480  1.36476E-01  1.70368E-01 -3.38926E-02
    8986.806     -7.083  -0.440  1.48714E-01  1.87768E-01 -3.90536E-02
    8986.934     -6.955  -0.400  1.61623E-01  2.06218E-01 -4.45943E-02
    8987.049     -6.839  -0.360  1.74894E-01  2.25237E-01 -5.03436E-02
    8987.153     -6.736  -0.320  1.88124E-01  2.44203E-01 -5.60794E-02
    8987.244     -6.644  -0.280  2.00865E-01  2.62424E-01 -6.15596E-02
    8987.324     -6.565  -0.240  2.12675E-01  2.79236E-01 -6.65613E-02
    8987.391     -6.498  -0.200  2.23173E-01  2.94085E-01 -7.09119E-02
    8987.446     -6.443  -0.160  2.32064E-01  3.06568E-01 -7.45042E-02
    8987.488     -6.400  -0.120  2.39138E-01  3.16430E-01 -7.72921E-02
    8987.519     -6.370  -0.080  2.44258E-01  3.23530E-01 -7.92728E-02
    8987.543     -6.345   0.000  2.48370E-01  3.29233E-01 -8.08624E-02
    8987.598     -6.291   0.120  2.57793E-01  3.42075E-01 -8.42816E-02
    8987.641     -6.248   0.160  2.65211E-01  3.52050E-01 -8.68390E-02
    8987.696     -6.193   0.200  2.74832E-01  3.64790E-01 -8.99579E-02
    8987.763     -6.126   0.240  2.86602E-01  3.80067E-01 -9.34650E-02
    8987.842     -6.047   0.280  3.00498E-01  3.97577E-01 -9.70790E-02
    8987.933     -5.955   0.320  3.16386E-01  4.16829E-01 -1.00442E-01
    8988.037     -5.852   0.360  3.34164E-01  4.37262E-01 -1.03098E-01
    8988.153     -5.736   0.400  3.53674E-01  4.58241E-01 -1.04567E-01
    8988.281     -5.608   0.440  3.74795E-01  4.79204E-01 -1.04409E-01
    8988.421     -5.468   0.480  3.97308E-01  4.99718E-01 -1.02409E-01
    8988.573     -5.315   0.520  4.20729E-01  5.19488E-01 -9.87592E-02
    8988.738     -5.151   0.560  4.44049E-01  5.38390E-01 -9.43409E-02
    8988.915     -4.974   0.600  4.65504E-01  5.56393E-01 -9.08884E-02
    8989.104     -4.785   0.640  4.82838E-01  5.73563E-01 -9.07246E-02
    8989.305     -4.584   0.680  4.94153E-01  5.90005E-01 -9.58521E-02
    8989.518     -4.370   0.720  4.99024E-01  6.05801E-01 -1.06776E-01
    8989.744     -4.145   0.760  4.99147E-01  6.21090E-01 -1.21943E-01
    8989.982     -3.907   0.800  4.97802E-01  6.35963E-01 -1.38162E-01
    8990.231     -3.657   0.840  4.99214E-01  6.50477E-01 -1.51263E-01
    8990.494     -3.395   0.880  5.07579E-01  6.64735E-01 -1.57155E-01
    8990.768     -3.121   0.920  5.24983E-01  6.78785E-01 -1.53802E-01
    8991.054     -2.834   0.960  5.49461E-01  6.92641E-01 -1.43180E-01
    8991.353     -2.535   1.000  5.75467E-01  7.06369E-01 -1.30903E-01
    8991.664     -2.225   1.040  5.98059E-01  7.19963E-01 -1.21904E-01
    8991.987     -1.901   1.080  6.18045E-01  7.33428E-01 -1.15383E-01
    8992.322     -1.566   1.120  6.41480E-01  7.46763E-01 -1.05283E-01
    8992.670     -1.219   1.160  6.75041E-01  7.60002E-01 -8.49610E-02
    8993.030     -0.859   1.200  7.22717E-01  7.73093E-01 -5.03759E-02
    8993.401     -0.487   1.240  7.83138E-01  7.86059E-01 -2.92092E-03
    8993.785     -0.103   1.280  8.47082E-01  7.98840E-01  4.82415E-02
    8994.182      0.293   1.320  9.03924E-01  8.11436E-01  9.24874E-02
    8994.590      0.702   1.360  9.51026E-01  8.23844E-01  1.27183E-01
    8995.011      1.122   1.400  9.90213E-01  8.36035E-01  1.54178E-01
    8995.444      1.555   1.440  1.02208E+00  8.47965E-01  1.74112E-01
    8995.889      2.000   1.480  1.05232E+00  8.59626E-01  1.92694E-01
    8996.346      2.457   1.520  1.09301E+00  8.70991E-01  2.22022E-01
    8996.815      2.927   1.560  1.14585E+00  8.82051E-01  2.63795E-01
    8997.297      3.408   1.600  1.19974E+00  8.92757E-01  3.06985E-01
    8997.790      3.902   1.640  1.24887E+00  9.03124E-01  3.45746E-01
    8998.296      4.408   1.680  1.28535E+00  9.13102E-01  3.72251E-01
    8998.815      4.926   1.720  1.29145E+00  9.22706E-01  3.68741E-01
    8999.345      5.456   1.760  1.26324E+00  9.31888E-01  3.31356E-01
    8999.887      5.999   1.800  1.21024E+00  9.40643E-01  2.69594E-01
    9000.442      6.554   1.840  1.14717E+00  9.48968E-01  1.98207E-01
    9001.009      7.121   1.880  1.09031E+00  9.56859E-01  1.33452E-01
    9001.588      7.700   1.920  1.05183E+00  9.64293E-01  8.75378E-02
    9002.180      8.291   1.960  1.03747E+00  9.71268E-01  6.62021E-02
    9002.783      8.895   2.000  1.04795E+00  9.77807E-01  7.01396E-02
    9003.399      9.510   2.040  1.07638E+00  9.83887E-01  9.24901E-02
    9004.027     10.138   2.080  1.10771E+00  9.89512E-01  1.18201E-01
    9004.667     10.778   2.120  1.12829E+00  9.94682E-01  1.33610E-01
    9005.319     11.430   2.160  1.13134E+00  9.99402E-01  1.31938E-01
    9005.983     12.095   2.200  1.11637E+00  1.00370E+00  1.12668E-01
    9006.660     12.772   2.240  1.09048E+00  1.00757E+00  8.29086E-02
    9007.349     13.460   2.280  1.06370E+00  1.01103E+00  5.26642E-02
    9008.050     14.161   2.320  1.04151E+00  1.01408E+00  2.74291E-02
    9008.763     14.875   2.360  1.02250E+00  1.01673E+00  5.76441E-03
    9009.489     15.600   2.400  1.00271E+00  1.01903E+00 -1.63226E-02
    9010.226     16.338   2.440  9.80758E-01  1.02097E+00 -4.02083E-02
    9010.976     17.088   2.480  9.60217E-01  1.02254E+00 -6.23280E-02
    9011.738     17.850   2.520  9.46685E-01  1.02382E+00 -7.71307E-02
    9012.512     18.624   2.560  9.41538E-01  1.02479E+00 -8.32502E-02
    9013.299     19.410   2.600  9.41750E-01  1.02545E+00 -8.37027E-02
    9014.097     20.209   2.640  9.43390E-01  1.02586E+00 -8.24693E-02
    9014.908     21.019   2.680  9.44350E-01  1.02601E+00 -8.16638E-02
    9015.731     21.842   2.720  9.43153E-01  1.02593E+00 -8.27750E-02
    9016.566     22.678   2.760  9.36906E-01  1.02563E+00 -8.87259E-02
    9017.413     23.525   2.800  9.27398E-01  1.02513E+00 -9.77351E-02
    9018.273     24.384   2.840  9.20240E-01  1.02446E+00 -1.04223E-01
    9019.145     25.256   2.880  9.18137E-01  1.02363E+00 -1.05492E-01
    9020.029     26.140   2.920  9.20532E-01  1.02264E+00 -1.02108E-01
    9020.925     27.036   2.960  9.25351E-01  1.02155E+00 -9.61950E-02
    9021.833     27.944   3.000  9.31291E-01  1.02034E+00 -8.90450E-02
    9022.753     28.865   3.040  9.37560E-01  1.01902E+00 -8.14554E-02
    9023.686     29.798   3.080  9.43624E-01  1.01763E+00 -7.40093E-02
    9024.631     30.743   3.120  9.49169E-01  1.01618E+00 -6.70084E-02
    9025.588     31.700   3.160  9.54117E-01  1.01470E+00 -6.05795E-02
    9026.557     32.669   3.200  9.58328E-01  1.01315E+00 -5.48258E-02
    9027.539     33.650   3.240  9.62022E-01  1.01158E+00 -4.95537E-02
    9028.532     34.644   3.280  9.65497E-01  1.01001E+00 -4.45128E-02
    9029.538     35.650   3.320  9.68947E-01  1.00842E+00 -3.94731E-02
    9030.556     36.668   3.360  9.72668E-01  1.00683E+00 -3.41649E-02
    9031.587     37.698   3.400  9.76949E-01  1.00527E+00 -2.83242E-02
    9032.629     38.740   3.440  9.81994E-01  1.00375E+00 -2.17530E-02
    9033.684     39.795   3.480  9.88010E-01  1.00226E+00 -1.42487E-02
    9034.750     40.862   3.520  9.95117E-01  1.00079E+00 -5.67136E-03
    9035.829     41.941   3.560  1.00339E+00  9.99384E-01  4.01008E-03
    9036.921     43.032   3.600  1.01276E+00  9.98048E-01  1.47135E-02
    9038.024     44.135   3.640  1.02302E+00  9.96760E-01  2.62626E-02
    9039.139     45.251   3.680  1.03389E+00  9.95526E-01  3.83658E-02
    9040.267     46.379   3.720  1.04491E+00  9.94386E-01  5.05257E-02
    9041.407     47.519   3.760  1.05548E+00  9.93302E-01  6.21832E-02
    9042.559     48.671   3.800  1.06504E+00  9.92297E-01  7.27454E-02
    9043.724     49.835   3.840  1.07293E+00  9.91373E-01  8.15519E-02
    9044.900     51.012   3.880  1.07857E+00  9.90551E-01  8.80226E-02
    9046.089     52.200   3.920  1.08151E+00  9.89790E-01  9.17183E-02
    9047.290     53.401   3.960  1.08148E+00  9.89132E-01  9.23474E-02
    9048.503     54.614   4.000  1.07833E+00  9.88537E-01  8.97898E-02
    9049.728     55.840   4.040  1.07235E+00  9.88047E-01  8.43064E-02
    9050.966     57.077   4.080  1.06408E+00  9.87662E-01  7.64224E-02
    9052.215     58.327   4.120  1.05422E+00  9.87338E-01  6.68848E-02
    9053.477     59.589   4.160  1.04357E+00  9.87096E-01  5.64733E-02
    9054.751     60.863   4.200  1.03281E+00  9.86956E-01  4.58513E-02
    9056.038     62.149   4.240  1.02225E+00  9.86877E-01  3.53758E-02
    9057.336     63.447   4.280  1.01205E+00  9.86899E-01  2.51535E-02
    9058.647     64.758   4.320  1.00208E+00  9.86980E-01  1.51021E-02
    9059.969     66.081   4.360  9.92228E-01  9.87159E-01  5.06958E-03
    9061.304     67.416   4.400  9.82427E-01  9.87392E-01 -4.96536E-03
    9062.652     68.763   4.440  9.72925E-01  9.87699E-01 -1.47739E-02
    9064.011     70.123   4.480  9.64082E-01  9.88056E-01 -2.39735E-02
    9065.383     71.494   4.520  9.56337E-01  9.88482E-01 -3.21445E-02
    9066.766     72.878   4.560  9.50016E-01  9.88954E-01 -3.89376E-02
    9068.162     74.274   4.600  9.45326E-01  9.89472E-01 -4.41463E-02
    9069.571     75.682   4.640  9.42376E-01  9.90055E-01 -4.76792E-02
    9070.991     77.102   4.680  9.41165E-01  9.90678E-01 -4.95129E-02
    9072.423     78.535   4.720  9.41546E-01  9.91316E-01 -4.97707E-02
    9073.868     79.980   4.760  9.43342E-01  9.91990E-01 -4.86476E-02
    9075.325     81.437   4.800  9.46305E-01  9.92697E-01 -4.63916E-02
    9076.794     82.906   4.840  9.50145E-01  9.93434E-01 -4.32890E-02
    9078.276     84.387   4.880  9.54561E-01  9.94154E-01 -3.95922E-02
    9079.769     85.881   4.920  9.59434E-01  9.94899E-01 -3.54655E-02
    9081.275     87.386   4.960  9.64679E-01  9.95647E-01 -3.09680E-02
    9082.793     88.904   5.000  9.70430E-01  9.96393E-01 -2.59623E-02
    9084.323     90.434   5.040  9.76829E-01  9.97133E-01 -2.03042E-02
    9085.865     91.977   5.080  9.83785E-01  9.97846E-01 -1.40614E-02
    9087.420     93.531   5.120  9.90941E-01  9.98551E-01 -7.60915E-03
    9088.986     95.098   5.160  9.97728E-01  9.99243E-01 -1.51486E-03
    9090.565     96.677   5.200  1.00357E+00  9.99878E-01  3.69073E-03
    9092.156     98.268   5.240  1.00816E+00  1.00050E+00  7.66388E-03
    9093.759     99.871   5.280  1.01137E+00  1.00108E+00  1.02945E-02
    9095.375    101.486   5.320  1.01329E+00  1.00162E+00  1.16684E-02
    9097.002    103.114   5.360  1.01406E+00  1.00212E+00  1.19438E-02
    9098.642    104.754   5.400  1.01376E+00  1.00257E+00  1.11889E-02
    9100.294    106.406   5.440  1.01226E+00  1.00295E+00  9.31163E-03
    9101.958    108.070   5.480  1.00947E+00  1.00329E+00  6.17993E-03
    9103.635    109.746   5.520  1.00542E+00  1.00358E+00  1.84015E-03
    9105.323    111.435   5.560  1.00043E+00  1.00379E+00 -3.36007E-03
    9107.024    113.136   5.600  9.95152E-01  1.00393E+00 -8.78060E-03
    9108.737    114.849   5.640  9.90412E-01  1.00402E+00 -1.36105E-02
    9110.462    116.574   5.680  9.87018E-01  1.00404E+00 -1.70236E-02
    9112.200    118.311   5.720  9.85670E-01  1.00401E+00 -1.83394E-02
    9113.949    120.061   5.760  9.86715E-01  1.00391E+00 -1.71899E-02
    9115.711    121.822   5.800  9.90099E-01  1.00375E+00 -1.36528E-02
    9117.485    123.596   5.840  9.95288E-01  1.00353E+00 -8.23799E-03
    9119.271    125.383   5.880  1.00153E+00  1.00323E+00 -1.69530E-03
    9121.069    127.181   5.920  1.00815E+00  1.00288E+00  5.26902E-03
    9122.880    128.991   5.960  1.01460E+00  1.00246E+00  1.21370E-02
    9124.703    130.814   6.000  1.02058E+00  1.00196E+00  1.86259E-02
