# # comment:                                                     FEFF 9.9.1  
# # Source:
# # Structure
# # Reduced
# # space
# # abc:
# # angles:
# # sites:
# # POT  SCF 100  7.0000   0, screened core-hole, AFOLP (folp(0)= 1.150)
# # Abs   Z=29 Rmt= 1.239 Rnm= 1.302 K  shell
# # Pot 1 Z=56 Rmt= 1.920 Rnm= 1.977
# # Pot 2 Z=69 Rmt= 1.553 Rnm= 1.628
# # Pot 3 Z=29 Rmt= 1.239 Rnm= 1.302
# # Pot 4 Z= 8 Rmt= 1.051 Rnm= 1.105
# # Gam_ch=1.729E+00 H-L exch Vi= 0.000E+00 Vr= 0.000E+00
# # Mu=-7.813E+00eV kf=2.020E+00 Vint=-1.806E+01eV Rs_int= 1.796
# FMS rfms= 9.0000
# # PATH  Rmax=-1.000,  Keep_limit= 0.00, Heap_limit 0.00  Pwcrit= 2.50%
#  S02=0.950  Temp=   0.00  Debye_temp=   0.00  Global_sig2= 0.00000
#  Energy zero shift, vr, vi    0.00000E+00   0.00000E+00
#  Curved wave amplitude ratio filter   4.000%
#     file         sig2 tot  cw amp ratio   deg  nlegs   reff  inp sig2
#     0/   0 paths used
#  xsedge+ 50, used to normalize mu           2.4475E-04
#  -----------------------------------------------------------------------
#  omega    e    k    mu    mu0     chi     @#
    8985.216    -11.623  -1.000  4.69753E-02  5.99597E-02 -1.29844E-02
    8985.515    -11.324  -0.960  4.98426E-02  6.45216E-02 -1.46790E-02
    8985.801    -11.038  -0.920  5.29799E-02  6.96091E-02 -1.66291E-02
    8986.076    -10.763  -0.880  5.64241E-02  7.53010E-02 -1.88769E-02
    8986.338    -10.501  -0.840  6.02182E-02  8.16895E-02 -2.14713E-02
    8986.588    -10.251  -0.800  6.44123E-02  8.88815E-02 -2.44691E-02
    8986.826    -10.014  -0.760  6.90641E-02  9.69998E-02 -2.79357E-02
    8987.051     -9.788  -0.720  7.42388E-02  1.06184E-01 -3.19449E-02
    8987.264     -9.575  -0.680  8.00084E-02  1.16586E-01 -3.65781E-02
    8987.466     -9.374  -0.640  8.64491E-02  1.28371E-01 -4.19216E-02
    8987.655     -9.185  -0.600  9.36352E-02  1.41696E-01 -4.80607E-02
    8987.831     -9.008  -0.560  1.01630E-01  1.56699E-01 -5.50699E-02
    8987.996     -8.843  -0.520  1.10467E-01  1.73464E-01 -6.29969E-02
    8988.148     -8.691  -0.480  1.20133E-01  1.91974E-01 -7.18412E-02
    8988.289     -8.551  -0.440  1.30538E-01  2.12067E-01 -8.15291E-02
    8988.417     -8.423  -0.400  1.41496E-01  2.33388E-01 -9.18923E-02
    8988.532     -8.307  -0.360  1.52719E-01  2.55379E-01 -1.02660E-01
    8988.636     -8.203  -0.320  1.63841E-01  2.77315E-01 -1.13474E-01
    8988.727     -8.112  -0.280  1.74460E-01  2.98391E-01 -1.23931E-01
    8988.807     -8.032  -0.240  1.84198E-01  3.17837E-01 -1.33639E-01
    8988.874     -7.965  -0.200  1.92749E-01  3.35009E-01 -1.42260E-01
    8988.929     -7.911  -0.160  1.99901E-01  3.49441E-01 -1.49540E-01
    8988.971     -7.868  -0.120  2.05529E-01  3.60839E-01 -1.55311E-01
    8989.002     -7.837  -0.080  2.09567E-01  3.69043E-01 -1.59476E-01
    8989.026     -7.813   0.000  2.12792E-01  3.75629E-01 -1.62837E-01
    8989.081     -7.758   0.120  2.19948E-01  3.90481E-01 -1.70533E-01
    8989.124     -7.715   0.160  2.25479E-01  4.01981E-01 -1.76502E-01
    8989.179     -7.661   0.200  2.32549E-01  4.16662E-01 -1.84113E-01
    8989.246     -7.594   0.240  2.41005E-01  4.34261E-01 -1.93257E-01
    8989.325     -7.514   0.280  2.50682E-01  4.54417E-01 -2.03734E-01
    8989.416     -7.423   0.320  2.61342E-01  4.76551E-01 -2.15209E-01
    8989.520     -7.319   0.360  2.72720E-01  4.99959E-01 -2.27240E-01
    8989.636     -7.203   0.400  2.84616E-01  5.23935E-01 -2.39319E-01
    8989.764     -7.075   0.440  2.96815E-01  5.47775E-01 -2.50960E-01
    8989.904     -6.935   0.480  3.09252E-01  5.70965E-01 -2.61713E-01
    8990.056     -6.783   0.520  3.21950E-01  5.93182E-01 -2.71232E-01
    8990.221     -6.618   0.560  3.34969E-01  6.14231E-01 -2.79263E-01
    8990.398     -6.441   0.600  3.48436E-01  6.34076E-01 -2.85640E-01
    8990.587     -6.252   0.640  3.62402E-01  6.52807E-01 -2.90406E-01
    8990.788     -6.051   0.680  3.76562E-01  6.70505E-01 -2.93942E-01
    8991.001     -5.838   0.720  3.90531E-01  6.87284E-01 -2.96753E-01
    8991.227     -5.612   0.760  4.04159E-01  7.03282E-01 -2.99123E-01
    8991.465     -5.375   0.800  4.17807E-01  7.18582E-01 -3.00774E-01
    8991.714     -5.125   0.840  4.32499E-01  7.33273E-01 -3.00774E-01
    8991.977     -4.863   0.880  4.49874E-01  7.47450E-01 -2.97577E-01
    8992.251     -4.588   0.920  4.71509E-01  7.61149E-01 -2.89640E-01
    8992.537     -4.302   0.960  4.97395E-01  7.74434E-01 -2.77038E-01
    8992.836     -4.003   1.000  5.24953E-01  7.87292E-01 -2.62339E-01
    8993.147     -3.692   1.040  5.50779E-01  7.99805E-01 -2.49026E-01
    8993.470     -3.369   1.080  5.73522E-01  8.11943E-01 -2.38420E-01
    8993.805     -3.034   1.120  5.95489E-01  8.23708E-01 -2.28218E-01
    8994.153     -2.686   1.160  6.20393E-01  8.35119E-01 -2.14726E-01
    8994.513     -2.327   1.200  6.48075E-01  8.46169E-01 -1.98094E-01
    8994.884     -1.955   1.240  6.72686E-01  8.56848E-01 -1.84162E-01
    8995.268     -1.571   1.280  6.89550E-01  8.67163E-01 -1.77614E-01
    8995.665     -1.174   1.320  7.05266E-01  8.77079E-01 -1.71812E-01
    8996.073     -0.766   1.360  7.34784E-01  8.86596E-01 -1.51813E-01
    8996.494     -0.345   1.400  7.83591E-01  8.95701E-01 -1.12110E-01
    8996.927      0.087   1.440  8.48013E-01  9.04415E-01 -5.64030E-02
    8997.372      0.532   1.480  9.36781E-01  9.12701E-01  2.40800E-02
    8997.829      0.990   1.520  1.06470E+00  9.20578E-01  1.44121E-01
    8998.298      1.459   1.560  1.22692E+00  9.28031E-01  2.98890E-01
    8998.780      1.941   1.600  1.39233E+00  9.35043E-01  4.57285E-01
    8999.273      2.434   1.640  1.52807E+00  9.41656E-01  5.86411E-01
    8999.779      2.940   1.680  1.61475E+00  9.47835E-01  6.66910E-01
    9000.298      3.458   1.720  1.63530E+00  9.53604E-01  6.81697E-01
    9000.828      3.989   1.760  1.60428E+00  9.58969E-01  6.45309E-01
    9001.371      4.531   1.800  1.56923E+00  9.63935E-01  6.05295E-01
    9001.925      5.086   1.840  1.53826E+00  9.68510E-01  5.69746E-01
    9002.492      5.653   1.880  1.49219E+00  9.72721E-01  5.19473E-01
    9003.071      6.232   1.920  1.42722E+00  9.76531E-01  4.50686E-01
    9003.663      6.823   1.960  1.34936E+00  9.80014E-01  3.69348E-01
    9004.266      7.427   2.000  1.26489E+00  9.83154E-01  2.81736E-01
    9004.882      8.043   2.040  1.18141E+00  9.85981E-01  1.95432E-01
    9005.510      8.671   2.080  1.10987E+00  9.88483E-01  1.21385E-01
    9006.150      9.311   2.120  1.06019E+00  9.90690E-01  6.95001E-02
    9006.802      9.963   2.160  1.03009E+00  9.92631E-01  3.74547E-02
    9007.466     10.627   2.200  1.01121E+00  9.94314E-01  1.68986E-02
    9008.143     11.304   2.240  9.98390E-01  9.95770E-01  2.61981E-03
    9008.832     11.993   2.280  9.86271E-01  9.96986E-01 -1.07156E-02
    9009.533     12.694   2.320  9.68838E-01  9.97992E-01 -2.91548E-02
    9010.246     13.407   2.360  9.48187E-01  9.98816E-01 -5.06292E-02
    9010.972     14.132   2.400  9.33867E-01  9.99467E-01 -6.56002E-02
    9011.709     14.870   2.440  9.35071E-01  9.99953E-01 -6.48819E-02
    9012.459     15.620   2.480  9.43792E-01  1.00028E+00 -5.64907E-02
    9013.221     16.382   2.520  9.49495E-01  1.00050E+00 -5.10072E-02
    9013.995     17.156   2.560  9.50407E-01  1.00060E+00 -5.01950E-02
    9014.782     17.942   2.600  9.47917E-01  1.00061E+00 -5.26894E-02
    9015.580     18.741   2.640  9.43267E-01  1.00050E+00 -5.72366E-02
    9016.391     19.552   2.680  9.37288E-01  1.00034E+00 -6.30514E-02
    9017.214     20.375   2.720  9.30628E-01  1.00012E+00 -6.94941E-02
    9018.049     21.210   2.760  9.23603E-01  9.99834E-01 -7.62313E-02
    9018.896     22.057   2.800  9.16614E-01  9.99502E-01 -8.28882E-02
    9019.756     22.917   2.840  9.10625E-01  9.99152E-01 -8.85270E-02
    9020.628     23.789   2.880  9.06025E-01  9.98768E-01 -9.27429E-02
    9021.512     24.672   2.920  9.02762E-01  9.98374E-01 -9.56126E-02
    9022.408     25.569   2.960  9.00299E-01  9.97954E-01 -9.76551E-02
    9023.316     26.477   3.000  8.98106E-01  9.97555E-01 -9.94490E-02
    9024.237     27.397   3.040  8.95702E-01  9.97158E-01 -1.01455E-01
    9025.169     28.330   3.080  8.93036E-01  9.96786E-01 -1.03751E-01
    9026.114     29.275   3.120  8.90668E-01  9.96422E-01 -1.05753E-01
    9027.071     30.232   3.160  8.89032E-01  9.96067E-01 -1.07035E-01
    9028.040     31.201   3.200  8.88868E-01  9.95767E-01 -1.06899E-01
    9029.022     32.183   3.240  8.90532E-01  9.95482E-01 -1.04950E-01
    9030.015     33.176   3.280  8.94069E-01  9.95232E-01 -1.01163E-01
    9031.021     34.182   3.320  8.99361E-01  9.95021E-01 -9.56594E-02
    9032.039     35.200   3.360  9.06346E-01  9.94850E-01 -8.85045E-02
    9033.070     36.230   3.400  9.15042E-01  9.94741E-01 -7.96989E-02
    9034.112     37.273   3.440  9.25142E-01  9.94651E-01 -6.95099E-02
    9035.167     38.327   3.480  9.36473E-01  9.94603E-01 -5.81300E-02
    9036.233     39.394   3.520  9.48823E-01  9.94617E-01 -4.57938E-02
    9037.312     40.473   3.560  9.61935E-01  9.94675E-01 -3.27395E-02
    9038.404     41.564   3.600  9.75737E-01  9.94774E-01 -1.90376E-02
    9039.507     42.668   3.640  9.90365E-01  9.94914E-01 -4.54937E-03
    9040.622     43.783   3.680  1.00587E+00  9.95094E-01  1.07777E-02
    9041.750     44.911   3.720  1.02225E+00  9.95315E-01  2.69330E-02
    9042.890     46.051   3.760  1.03928E+00  9.95577E-01  4.37066E-02
    9044.042     47.203   3.800  1.05642E+00  9.95901E-01  6.05164E-02
    9045.207     48.367   3.840  1.07241E+00  9.96242E-01  7.61708E-02
    9046.383     49.544   3.880  1.08592E+00  9.96621E-01  8.93003E-02
    9047.572     50.733   3.920  1.09558E+00  9.97036E-01  9.85402E-02
    9048.773     51.934   3.960  1.10038E+00  9.97489E-01  1.02892E-01
    9049.986     53.147   4.000  1.10003E+00  9.97976E-01  1.02054E-01
    9051.211     54.372   4.040  1.09504E+00  9.98474E-01  9.65642E-02
    9052.449     55.610   4.080  1.08669E+00  9.99004E-01  8.76858E-02
    9053.698     56.859   4.120  1.07678E+00  9.99565E-01  7.72142E-02
    9054.960     58.121   4.160  1.06722E+00  1.00011E+00  6.71091E-02
    9056.234     59.395   4.200  1.05945E+00  1.00070E+00  5.87466E-02
    9057.521     60.681   4.240  1.05396E+00  1.00128E+00  5.26773E-02
    9058.819     61.980   4.280  1.05052E+00  1.00189E+00  4.86340E-02
    9060.130     63.290   4.320  1.04823E+00  1.00249E+00  4.57398E-02
    9061.452     64.613   4.360  1.04597E+00  1.00309E+00  4.28733E-02
    9062.787     65.948   4.400  1.04278E+00  1.00369E+00  3.90890E-02
    9064.135     67.295   4.440  1.03822E+00  1.00427E+00  3.39549E-02
    9065.494     68.655   4.480  1.03246E+00  1.00486E+00  2.76014E-02
    9066.866     70.026   4.520  1.02601E+00  1.00542E+00  2.05821E-02
    9068.249     71.410   4.560  1.01957E+00  1.00598E+00  1.35857E-02
    9069.645     72.806   4.600  1.01372E+00  1.00653E+00  7.19340E-03
    9071.054     74.214   4.640  1.00881E+00  1.00705E+00  1.76382E-03
    9072.474     75.635   4.680  1.00496E+00  1.00753E+00 -2.57393E-03
    9073.907     77.067   4.720  1.00208E+00  1.00800E+00 -5.91833E-03
    9075.351     78.512   4.760  9.99935E-01  1.00843E+00 -8.49715E-03
    9076.808     79.969   4.800  9.98281E-01  1.00885E+00 -1.05701E-02
    9078.277     81.438   4.840  9.96773E-01  1.00921E+00 -1.24372E-02
    9079.759     82.919   4.880  9.95080E-01  1.00955E+00 -1.44727E-02
    9081.252     84.413   4.920  9.92686E-01  1.00986E+00 -1.71701E-02
    9082.758     85.919   4.960  9.89076E-01  1.01012E+00 -2.10445E-02
    9084.276     87.437   5.000  9.83975E-01  1.01035E+00 -2.63707E-02
    9085.806     88.967   5.040  9.77570E-01  1.01055E+00 -3.29816E-02
    9087.348     90.509   5.080  9.70453E-01  1.01069E+00 -4.02400E-02
    9088.903     92.063   5.120  9.63577E-01  1.01079E+00 -4.72143E-02
    9090.469     93.630   5.160  9.57896E-01  1.01085E+00 -5.29512E-02
    9092.048     95.209   5.200  9.54264E-01  1.01086E+00 -5.65974E-02
    9093.639     96.800   5.240  9.53265E-01  1.01083E+00 -5.75693E-02
    9095.242     98.403   5.280  9.55168E-01  1.01077E+00 -5.55995E-02
    9096.858    100.019   5.320  9.59924E-01  1.01068E+00 -5.07578E-02
    9098.485    101.646   5.360  9.67086E-01  1.01053E+00 -4.34465E-02
    9100.125    103.286   5.400  9.75907E-01  1.01034E+00 -3.44325E-02
    9101.777    104.938   5.440  9.85356E-01  1.01010E+00 -2.47487E-02
    9103.442    106.602   5.480  9.94388E-01  1.00983E+00 -1.54429E-02
    9105.118    108.279   5.520  1.00218E+00  1.00952E+00 -7.33900E-03
    9106.806    109.967   5.560  1.00825E+00  1.00919E+00 -9.42417E-04
    9108.507    111.668   5.600  1.01231E+00  1.00883E+00  3.48227E-03
    9110.220    113.381   5.640  1.01417E+00  1.00843E+00  5.74287E-03
    9111.945    115.106   5.680  1.01370E+00  1.00799E+00  5.71457E-03
    9113.683    116.844   5.720  1.01095E+00  1.00751E+00  3.43547E-03
    9115.432    118.593   5.760  1.00639E+00  1.00703E+00 -6.41446E-04
    9117.194    120.355   5.800  1.00098E+00  1.00652E+00 -5.53386E-03
    9118.968    122.129   5.840  9.96055E-01  1.00599E+00 -9.93944E-03
    9120.754    123.915   5.880  9.92755E-01  1.00545E+00 -1.26904E-02
    9122.552    125.713   5.920  9.91802E-01  1.00490E+00 -1.30945E-02
    9124.363    127.524   5.960  9.93292E-01  1.00433E+00 -1.10349E-02
    9126.186    129.346   6.000  9.97139E-01  1.00374E+00 -6.60427E-03
