# # comment:                                                     FEFF 9.9.1  
# # Source:
# # Structure
# # Reduced
# # space
# # abc:
# # angles:
# # sites:
# # POT  SCF 100  7.0000   0, screened core-hole, AFOLP (folp(0)= 1.150)
# # Abs   Z=29 Rmt= 1.244 Rnm= 1.329 K  shell
# # Pot 1 Z= 3 Rmt= 1.283 Rnm= 1.348
# # Pot 2 Z=41 Rmt= 1.223 Rnm= 1.419
# # Pot 3 Z=29 Rmt= 1.244 Rnm= 1.329
# # Pot 4 Z= 8 Rmt= 0.993 Rnm= 1.100
# # Gam_ch=1.729E+00 H-L exch Vi= 0.000E+00 Vr= 0.000E+00
# # Mu=-5.587E+00eV kf=2.163E+00 Vint=-1.610E+01eV Rs_int= 1.677
# FMS rfms= 9.0000
# # PATH  Rmax=-1.000,  Keep_limit= 0.00, Heap_limit 0.00  Pwcrit= 2.50%
#  S02=0.950  Temp=   0.00  Debye_temp=   0.00  Global_sig2= 0.00000
#  Energy zero shift, vr, vi    0.00000E+00   0.00000E+00
#  Curved wave amplitude ratio filter   4.000%
#     file         sig2 tot  cw amp ratio   deg  nlegs   reff  inp sig2
#     0/   0 paths used
#  xsedge+ 50, used to normalize mu           2.4500E-04
#  -----------------------------------------------------------------------
#  omega    e    k    mu    mu0     chi     @#
    8983.875     -9.397  -1.000  5.37032E-02  6.09558E-02 -7.25264E-03
    8984.173     -9.098  -0.960  5.73921E-02  6.56132E-02 -8.22108E-03
    8984.460     -8.811  -0.920  6.14776E-02  7.08086E-02 -9.33103E-03
    8984.734     -8.537  -0.880  6.60200E-02  7.66230E-02 -1.06030E-02
    8984.996     -8.275  -0.840  7.10909E-02  8.31508E-02 -1.20600E-02
    8985.246     -8.025  -0.800  7.67744E-02  9.05018E-02 -1.37274E-02
    8985.484     -7.787  -0.760  8.31689E-02  9.88020E-02 -1.56331E-02
    8985.710     -7.562  -0.720  9.03876E-02  1.08194E-01 -1.78065E-02
    8985.923     -7.348  -0.680  9.85572E-02  1.18836E-01 -2.02785E-02
    8986.124     -7.147  -0.640  1.07814E-01  1.30893E-01 -2.30792E-02
    8986.313     -6.958  -0.600  1.18294E-01  1.44531E-01 -2.62372E-02
    8986.490     -6.781  -0.560  1.30114E-01  1.59890E-01 -2.97764E-02
    8986.654     -6.617  -0.520  1.43342E-01  1.77055E-01 -3.37136E-02
    8986.807     -6.464  -0.480  1.57956E-01  1.96011E-01 -3.80550E-02
    8986.947     -6.324  -0.440  1.73798E-01  2.16591E-01 -4.27923E-02
    8987.075     -6.196  -0.400  1.90533E-01  2.38430E-01 -4.78973E-02
    8987.191     -6.080  -0.360  2.07642E-01  2.60957E-01 -5.33152E-02
    8987.294     -5.977  -0.320  2.24472E-01  2.83428E-01 -5.89560E-02
    8987.386     -5.885  -0.280  2.40331E-01  3.05018E-01 -6.46871E-02
    8987.465     -5.806  -0.240  2.54607E-01  3.24937E-01 -7.03304E-02
    8987.532     -5.739  -0.200  2.66856E-01  3.42526E-01 -7.56698E-02
    8987.587     -5.684  -0.160  2.76841E-01  3.57307E-01 -8.04662E-02
    8987.630     -5.641  -0.120  2.84496E-01  3.68980E-01 -8.44832E-02
    8987.660     -5.611  -0.080  2.89862E-01  3.77380E-01 -8.75182E-02
    8987.685     -5.587   0.000  2.94032E-01  3.84123E-01 -9.00912E-02
    8987.740     -5.532   0.120  3.02750E-01  3.99324E-01 -9.65735E-02
    8987.782     -5.489   0.160  3.09370E-01  4.11107E-01 -1.01737E-01
    8987.837     -5.434   0.200  3.17433E-01  4.26128E-01 -1.08695E-01
    8987.904     -5.367   0.240  3.26483E-01  4.44136E-01 -1.17653E-01
    8987.983     -5.288   0.280  3.35995E-01  4.64754E-01 -1.28759E-01
    8988.075     -5.196   0.320  3.45327E-01  4.87371E-01 -1.42044E-01
    8988.178     -5.093   0.360  3.54115E-01  5.11320E-01 -1.57205E-01
    8988.294     -4.977   0.400  3.62346E-01  5.35791E-01 -1.73446E-01
    8988.422     -4.849   0.440  3.70774E-01  5.60104E-01 -1.89331E-01
    8988.562     -4.709   0.480  3.80849E-01  5.83731E-01 -2.02882E-01
    8988.715     -4.556   0.520  3.94468E-01  6.06316E-01 -2.11848E-01
    8988.879     -4.392   0.560  4.13398E-01  6.27701E-01 -2.14304E-01
    8989.056     -4.215   0.600  4.38599E-01  6.47830E-01 -2.09231E-01
    8989.245     -4.026   0.640  4.69421E-01  6.66798E-01 -1.97377E-01
    8989.446     -3.825   0.680  5.02917E-01  6.84666E-01 -1.81749E-01
    8989.660     -3.611   0.720  5.34453E-01  7.01574E-01 -1.67122E-01
    8989.885     -3.386   0.760  5.60151E-01  7.17666E-01 -1.57515E-01
    8990.123     -3.148   0.800  5.79535E-01  7.33027E-01 -1.53492E-01
    8990.373     -2.898   0.840  5.95296E-01  7.47753E-01 -1.52457E-01
    8990.635     -2.636   0.880  6.10414E-01  7.61918E-01 -1.51504E-01
    8990.909     -2.362   0.920  6.26694E-01  7.75585E-01 -1.48891E-01
    8991.196     -2.075   0.960  6.45353E-01  7.88819E-01 -1.43466E-01
    8991.495     -1.777   1.000  6.65189E-01  8.01651E-01 -1.36462E-01
    8991.806     -1.466   1.040  6.78728E-01  8.14063E-01 -1.35335E-01
    8992.129     -1.143   1.080  6.78461E-01  8.26108E-01 -1.47647E-01
    8992.464     -0.807   1.120  6.69592E-01  8.37770E-01 -1.68179E-01
    8992.811     -0.460   1.160  6.66930E-01  8.49070E-01 -1.82141E-01
    8993.171     -0.100   1.200  6.80957E-01  8.60001E-01 -1.79043E-01
    8993.543      0.272   1.240  7.13150E-01  8.70553E-01 -1.57402E-01
    8993.927      0.656   1.280  7.59429E-01  8.80715E-01 -1.21285E-01
    8994.323      1.052   1.320  8.12192E-01  8.90491E-01 -7.82986E-02
    8994.732      1.460   1.360  8.59925E-01  8.99844E-01 -3.99192E-02
    8995.152      1.881   1.400  8.95154E-01  9.08821E-01 -1.36670E-02
    8995.585      2.314   1.440  9.26151E-01  9.17363E-01  8.78714E-03
    8996.030      2.759   1.480  9.68670E-01  9.25493E-01  4.31768E-02
    8996.487      3.216   1.520  1.02973E+00  9.33190E-01  9.65406E-02
    8996.957      3.685   1.560  1.11007E+00  9.40461E-01  1.69606E-01
    8997.438      4.167   1.600  1.21579E+00  9.47306E-01  2.68481E-01
    8997.932      4.661   1.640  1.35371E+00  9.53730E-01  3.99980E-01
    8998.438      5.167   1.680  1.50198E+00  9.59718E-01  5.42265E-01
    8998.956      5.685   1.720  1.61287E+00  9.65294E-01  6.47573E-01
    8999.486      6.215   1.760  1.65689E+00  9.70462E-01  6.86425E-01
    9000.029      6.758   1.800  1.63386E+00  9.75230E-01  6.58635E-01
    9000.584      7.313   1.840  1.55748E+00  9.79604E-01  5.77878E-01
    9001.151      7.879   1.880  1.45430E+00  9.83590E-01  4.70706E-01
    9001.730      8.459   1.920  1.34835E+00  9.87216E-01  3.61130E-01
    9002.321      9.050   1.960  1.24943E+00  9.90469E-01  2.58959E-01
    9002.925      9.653   2.000  1.15783E+00  9.93400E-01  1.64433E-01
    9003.540     10.269   2.040  1.07728E+00  9.95995E-01  8.12886E-02
    9004.168     10.897   2.080  1.01209E+00  9.98263E-01  1.38276E-02
    9004.808     11.537   2.120  9.61300E-01  1.00025E+00 -3.89538E-02
    9005.461     12.189   2.160  9.24177E-01  1.00196E+00 -7.77792E-02
    9006.125     12.854   2.200  9.02495E-01  1.00342E+00 -1.00924E-01
    9006.802     13.530   2.240  8.96418E-01  1.00461E+00 -1.08194E-01
    9007.490     14.219   2.280  9.01834E-01  1.00558E+00 -1.03749E-01
    9008.191     14.920   2.320  9.14409E-01  1.00634E+00 -9.19337E-02
    9008.905     15.634   2.360  9.32913E-01  1.00692E+00 -7.40050E-02
    9009.630     16.359   2.400  9.57798E-01  1.00730E+00 -4.95021E-02
    9010.368     17.097   2.440  9.88974E-01  1.00753E+00 -1.85600E-02
    9011.118     17.846   2.480  1.02862E+00  1.00761E+00  2.10100E-02
    9011.880     18.608   2.520  1.08456E+00  1.00756E+00  7.70017E-02
    9012.654     19.383   2.560  1.15405E+00  1.00740E+00  1.46650E-01
    9013.440     20.169   2.600  1.19627E+00  1.00713E+00  1.89143E-01
    9014.239     20.967   2.640  1.19574E+00  1.00677E+00  1.88969E-01
    9015.049     21.778   2.680  1.16275E+00  1.00633E+00  1.56425E-01
    9015.872     22.601   2.720  1.11031E+00  1.00583E+00  1.04473E-01
    9016.708     23.436   2.760  1.05088E+00  1.00529E+00  4.55931E-02
    9017.555     24.284   2.800  9.93456E-01  1.00468E+00 -1.12207E-02
    9018.414     25.143   2.840  9.44103E-01  1.00405E+00 -5.99465E-02
    9019.286     26.015   2.880  9.05261E-01  1.00341E+00 -9.81475E-02
    9020.170     26.899   2.920  8.76414E-01  1.00274E+00 -1.26323E-01
    9021.066     27.795   2.960  8.56548E-01  1.00206E+00 -1.45514E-01
    9021.974     28.703   3.000  8.44206E-01  1.00141E+00 -1.57200E-01
    9022.895     29.624   3.040  8.38083E-01  1.00073E+00 -1.62649E-01
    9023.828     30.556   3.080  8.37578E-01  1.00009E+00 -1.62508E-01
    9024.773     31.501   3.120  8.41866E-01  9.99467E-01 -1.57602E-01
    9025.730     32.458   3.160  8.49676E-01  9.98860E-01 -1.49184E-01
    9026.699     33.428   3.200  8.59940E-01  9.98287E-01 -1.38347E-01
    9027.680     34.409   3.240  8.71673E-01  9.97751E-01 -1.26078E-01
    9028.674     35.403   3.280  8.83774E-01  9.97254E-01 -1.13480E-01
    9029.680     36.409   3.320  8.95679E-01  9.96795E-01 -1.01116E-01
    9030.698     37.427   3.360  9.07298E-01  9.96379E-01 -8.90805E-02
    9031.728     38.457   3.400  9.18561E-01  9.96026E-01 -7.74654E-02
    9032.770     39.499   3.440  9.29047E-01  9.95696E-01 -6.66484E-02
    9033.825     40.554   3.480  9.38329E-01  9.95429E-01 -5.71006E-02
    9034.892     41.621   3.520  9.46095E-01  9.95207E-01 -4.91122E-02
    9035.971     42.700   3.560  9.52515E-01  9.95052E-01 -4.25368E-02
    9037.062     43.791   3.600  9.58338E-01  9.94921E-01 -3.65822E-02
    9038.165     44.894   3.640  9.64844E-01  9.94855E-01 -3.00111E-02
    9039.281     46.010   3.680  9.73074E-01  9.94855E-01 -2.17803E-02
    9040.409     47.138   3.720  9.83312E-01  9.94878E-01 -1.15658E-02
    9041.549     48.277   3.760  9.95167E-01  9.94967E-01  2.00180E-04
    9042.701     49.430   3.800  1.00775E+00  9.95099E-01  1.26494E-02
    9043.865     50.594   3.840  1.01998E+00  9.95276E-01  2.47020E-02
    9045.042     51.770   3.880  1.03093E+00  9.95514E-01  3.54164E-02
    9046.230     52.959   3.920  1.03993E+00  9.95772E-01  4.41552E-02
    9047.431     54.160   3.960  1.04660E+00  9.96091E-01  5.05108E-02
    9048.644     55.373   4.000  1.05081E+00  9.96426E-01  5.43828E-02
    9049.870     56.598   4.040  1.05282E+00  9.96798E-01  5.60194E-02
    9051.107     57.836   4.080  1.05312E+00  9.97207E-01  5.59155E-02
    9052.357     59.086   4.120  1.05232E+00  9.97652E-01  5.46696E-02
    9053.619     60.347   4.160  1.05111E+00  9.98131E-01  5.29801E-02
    9054.893     61.622   4.200  1.05015E+00  9.98620E-01  5.15258E-02
    9056.179     62.908   4.240  1.05004E+00  9.99138E-01  5.09025E-02
    9057.477     64.206   4.280  1.05118E+00  9.99664E-01  5.15171E-02
    9058.788     65.517   4.320  1.05373E+00  1.00020E+00  5.35324E-02
    9060.111     66.840   4.360  1.05767E+00  1.00075E+00  5.69219E-02
    9061.446     68.175   4.400  1.06295E+00  1.00131E+00  6.16395E-02
    9062.793     69.522   4.440  1.06943E+00  1.00187E+00  6.75576E-02
    9064.153     70.881   4.480  1.07659E+00  1.00243E+00  7.41583E-02
    9065.524     72.253   4.520  1.08338E+00  1.00299E+00  8.03857E-02
    9066.908     73.637   4.560  1.08836E+00  1.00355E+00  8.48067E-02
    9068.304     75.033   4.600  1.09009E+00  1.00410E+00  8.59886E-02
    9069.712     76.441   4.640  1.08754E+00  1.00462E+00  8.29161E-02
    9071.132     77.861   4.680  1.08043E+00  1.00514E+00  7.52943E-02
    9072.565     79.294   4.720  1.06921E+00  1.00564E+00  6.35679E-02
    9074.010     80.739   4.760  1.05485E+00  1.00612E+00  4.87336E-02
    9075.467     82.195   4.800  1.03865E+00  1.00658E+00  3.20727E-02
    9076.936     83.665   4.840  1.02179E+00  1.00701E+00  1.47881E-02
    9078.417     85.146   4.880  1.00526E+00  1.00740E+00 -2.13756E-03
    9079.911     86.639   4.920  9.89859E-01  1.00778E+00 -1.79161E-02
    9081.416     88.145   4.960  9.76083E-01  1.00809E+00 -3.20087E-02
    9082.934     89.663   5.000  9.64152E-01  1.00839E+00 -4.42418E-02
    9084.464     91.193   5.040  9.53862E-01  1.00868E+00 -5.48189E-02
    9086.007     92.735   5.080  9.44980E-01  1.00890E+00 -6.39247E-02
    9087.561     94.290   5.120  9.37765E-01  1.00909E+00 -7.13232E-02
    9089.128     95.857   5.160  9.32864E-01  1.00925E+00 -7.63903E-02
    9090.707     97.435   5.200  9.30917E-01  1.00935E+00 -7.84378E-02
    9092.298     99.026   5.240  9.32219E-01  1.00941E+00 -7.71945E-02
    9093.901    100.630   5.280  9.36448E-01  1.00946E+00 -7.30071E-02
    9095.516    102.245   5.320  9.42601E-01  1.00944E+00 -6.68336E-02
    9097.144    103.873   5.360  9.49410E-01  1.00939E+00 -5.99846E-02
    9098.784    105.513   5.400  9.55532E-01  1.00929E+00 -5.37583E-02
    9100.436    107.165   5.440  9.60077E-01  1.00917E+00 -4.90904E-02
    9102.100    108.829   5.480  9.62682E-01  1.00898E+00 -4.63015E-02
    9103.776    110.505   5.520  9.63792E-01  1.00878E+00 -4.49891E-02
    9105.465    112.194   5.560  9.64409E-01  1.00854E+00 -4.41291E-02
    9107.166    113.895   5.600  9.65866E-01  1.00823E+00 -4.23657E-02
    9108.879    115.607   5.640  9.69402E-01  1.00791E+00 -3.85087E-02
    9110.604    117.333   5.680  9.75629E-01  1.00755E+00 -3.19233E-02
    9112.341    119.070   5.720  9.84458E-01  1.00716E+00 -2.27011E-02
    9114.091    120.820   5.760  9.95168E-01  1.00675E+00 -1.15865E-02
    9115.853    122.581   5.800  1.00656E+00  1.00631E+00  2.46295E-04
    9117.626    124.355   5.840  1.01739E+00  1.00584E+00  1.15477E-02
    9119.413    126.141   5.880  1.02658E+00  1.00533E+00  2.12453E-02
    9121.211    127.940   5.920  1.03337E+00  1.00483E+00  2.85449E-02
    9123.021    129.750   5.960  1.03720E+00  1.00429E+00  3.29021E-02
    9124.844    131.573   6.000  1.03773E+00  1.00374E+00  3.39922E-02
