# # comment:                                                     FEFF 9.9.1  
# # Source:
# # Structure
# # Reduced
# # space
# # abc:
# # angles:
# # sites:
# # POT  SCF 100  7.0000   0, screened core-hole, AFOLP (folp(0)= 1.150)
# # Abs   Z=29 Rmt= 1.200 Rnm= 1.305 K  shell
# # Pot 1 Z=38 Rmt= 1.758 Rnm= 1.825
# # Pot 2 Z=29 Rmt= 1.187 Rnm= 1.295
# # Pot 3 Z=28 Rmt= 1.219 Rnm= 1.378
# # Pot 4 Z= 8 Rmt= 1.086 Rnm= 1.137
# # Gam_ch=1.729E+00 H-L exch Vi= 0.000E+00 Vr= 0.000E+00
# # Mu=-9.047E+00eV kf=1.959E+00 Vint=-1.737E+01eV Rs_int= 1.851
# FMS rfms= 9.0000
# # PATH  Rmax=-1.000,  Keep_limit= 0.00, Heap_limit 0.00  Pwcrit= 2.50%
#  S02=0.950  Temp=   0.00  Debye_temp=   0.00  Global_sig2= 0.00000
#  Energy zero shift, vr, vi    0.00000E+00   0.00000E+00
#  Curved wave amplitude ratio filter   4.000%
#     file         sig2 tot  cw amp ratio   deg  nlegs   reff  inp sig2
#     0/   0 paths used
#  xsedge+ 50, used to normalize mu           2.4611E-04
#  -----------------------------------------------------------------------
#  omega    e    k    mu    mu0     chi     @#
    8984.517    -12.857  -1.000  4.09673E-02  5.49822E-02 -1.40149E-02
    8984.816    -12.559  -0.960  4.35265E-02  5.89770E-02 -1.54505E-02
    8985.102    -12.272  -0.920  4.63656E-02  6.34145E-02 -1.70488E-02
    8985.376    -11.998  -0.880  4.95313E-02  6.83594E-02 -1.88281E-02
    8985.639    -11.736  -0.840  5.30793E-02  7.38874E-02 -2.08081E-02
    8985.888    -11.486  -0.800  5.70757E-02  8.00858E-02 -2.30101E-02
    8986.126    -11.248  -0.760  6.15984E-02  8.70549E-02 -2.54565E-02
    8986.352    -11.022  -0.720  6.67377E-02  9.49079E-02 -2.81703E-02
    8986.565    -10.809  -0.680  7.25955E-02  1.03769E-01 -3.11740E-02
    8986.766    -10.608  -0.640  7.92823E-02  1.13771E-01 -3.44887E-02
    8986.955    -10.419  -0.600  8.69097E-02  1.25041E-01 -3.81317E-02
    8987.132    -10.242  -0.560  9.55768E-02  1.37691E-01 -4.21139E-02
    8987.297    -10.077  -0.520  1.05348E-01  1.51784E-01 -4.64359E-02
    8987.449     -9.925  -0.480  1.16223E-01  1.67306E-01 -5.10832E-02
    8987.589     -9.785  -0.440  1.28100E-01  1.84122E-01 -5.60214E-02
    8987.717     -9.657  -0.400  1.40747E-01  2.01938E-01 -6.11908E-02
    8987.833     -9.541  -0.360  1.53793E-01  2.20297E-01 -6.65039E-02
    8987.937     -9.437  -0.320  1.66757E-01  2.38603E-01 -7.18457E-02
    8988.028     -9.346  -0.280  1.79117E-01  2.56195E-01 -7.70781E-02
    8988.107     -9.267  -0.240  1.90388E-01  2.72436E-01 -8.20480E-02
    8988.174     -9.200  -0.200  2.00196E-01  2.86792E-01 -8.65965E-02
    8988.229     -9.145  -0.160  2.08304E-01  2.98872E-01 -9.05675E-02
    8988.272     -9.102  -0.120  2.14604E-01  3.08423E-01 -9.38186E-02
    8988.302     -9.072  -0.080  2.19070E-01  3.15305E-01 -9.62346E-02
    8988.327     -9.047   0.000  2.22577E-01  3.20835E-01 -9.82579E-02
    8988.382     -8.992   0.120  2.30048E-01  3.33303E-01 -1.03255E-01
    8988.424     -8.950   0.160  2.35830E-01  3.43011E-01 -1.07181E-01
    8988.479     -8.895   0.200  2.43000E-01  3.55405E-01 -1.12404E-01
    8988.546     -8.828   0.240  2.51216E-01  3.70303E-01 -1.19087E-01
    8988.626     -8.749   0.280  2.60043E-01  3.87458E-01 -1.27415E-01
    8988.717     -8.657   0.320  2.68837E-01  4.06403E-01 -1.37566E-01
    8988.821     -8.554   0.360  2.76893E-01  4.26610E-01 -1.49717E-01
    8988.936     -8.438   0.400  2.83557E-01  4.47515E-01 -1.63958E-01
    8989.064     -8.310   0.440  2.88323E-01  4.68581E-01 -1.80258E-01
    8989.205     -8.169   0.480  2.90917E-01  4.89430E-01 -1.98513E-01
    8989.357     -8.017   0.520  2.91076E-01  5.09745E-01 -2.18670E-01
    8989.522     -7.852   0.560  2.88614E-01  5.29430E-01 -2.40816E-01
    8989.698     -7.676   0.600  2.83325E-01  5.48451E-01 -2.65126E-01
    8989.887     -7.487   0.640  2.75500E-01  5.66842E-01 -2.91342E-01
    8990.089     -7.286   0.680  2.66319E-01  5.84674E-01 -3.18355E-01
    8990.302     -7.072   0.720  2.57562E-01  6.02030E-01 -3.44468E-01
    8990.527     -6.847   0.760  2.50861E-01  6.19013E-01 -3.68152E-01
    8990.765     -6.609   0.800  2.47195E-01  6.35694E-01 -3.88499E-01
    8991.015     -6.359   0.840  2.46835E-01  6.52091E-01 -4.05256E-01
    8991.277     -6.097   0.880  2.49999E-01  6.68292E-01 -4.18293E-01
    8991.552     -5.823   0.920  2.56985E-01  6.84306E-01 -4.27321E-01
    8991.838     -5.536   0.960  2.68125E-01  7.00132E-01 -4.32008E-01
    8992.137     -5.237   1.000  2.83770E-01  7.15801E-01 -4.32031E-01
    8992.448     -4.926   1.040  3.04647E-01  7.31291E-01 -4.26643E-01
    8992.771     -4.603   1.080  3.32229E-01  7.46595E-01 -4.14365E-01
    8993.106     -4.268   1.120  3.67883E-01  7.61700E-01 -3.93816E-01
    8993.454     -3.921   1.160  4.11592E-01  7.76566E-01 -3.64973E-01
    8993.813     -3.561   1.200  4.60902E-01  7.91170E-01 -3.30268E-01
    8994.185     -3.189   1.240  5.12468E-01  8.05509E-01 -2.93041E-01
    8994.569     -2.805   1.280  5.64615E-01  8.19515E-01 -2.54900E-01
    8994.965     -2.409   1.320  6.15021E-01  8.33159E-01 -2.18138E-01
    8995.374     -2.000   1.360  6.61878E-01  8.46453E-01 -1.84575E-01
    8995.794     -1.580   1.400  7.10460E-01  8.59326E-01 -1.48866E-01
    8996.227     -1.147   1.440  7.65240E-01  8.71768E-01 -1.06528E-01
    8996.672     -0.702   1.480  8.12941E-01  8.83772E-01 -7.08314E-02
    8997.129     -0.245   1.520  8.34319E-01  8.95269E-01 -6.09500E-02
    8997.599      0.225   1.560  8.33269E-01  9.06271E-01 -7.30013E-02
    8998.080      0.706   1.600  8.31624E-01  9.16773E-01 -8.51492E-02
    8998.574      1.200   1.640  8.47757E-01  9.26730E-01 -7.89736E-02
    8999.080      1.706   1.680  8.98495E-01  9.36160E-01 -3.76645E-02
    8999.598      2.224   1.720  1.00044E+00  9.45039E-01  5.54054E-02
    9000.129      2.755   1.760  1.15368E+00  9.53369E-01  2.00310E-01
    9000.671      3.297   1.800  1.30652E+00  9.61149E-01  3.45373E-01
    9001.226      3.852   1.840  1.38578E+00  9.68384E-01  4.17395E-01
    9001.793      4.419   1.880  1.39519E+00  9.75095E-01  4.20098E-01
    9002.372      4.998   1.920  1.37699E+00  9.81248E-01  3.95738E-01
    9002.963      5.589   1.960  1.35125E+00  9.86892E-01  3.64359E-01
    9003.567      6.193   2.000  1.31539E+00  9.92031E-01  3.23359E-01
    9004.182      6.808   2.040  1.27612E+00  9.96674E-01  2.79442E-01
    9004.810      7.436   2.080  1.25402E+00  1.00085E+00  2.53167E-01
    9005.450      8.076   2.120  1.25533E+00  1.00457E+00  2.50760E-01
    9006.103      8.729   2.160  1.27392E+00  1.00784E+00  2.66082E-01
    9006.767      9.393   2.200  1.30007E+00  1.01070E+00  2.89376E-01
    9007.444     10.070   2.240  1.31729E+00  1.01314E+00  3.04144E-01
    9008.133     10.759   2.280  1.30517E+00  1.01522E+00  2.89955E-01
    9008.834     11.460   2.320  1.25927E+00  1.01695E+00  2.42322E-01
    9009.547     12.173   2.360  1.19536E+00  1.01835E+00  1.77011E-01
    9010.272     12.898   2.400  1.13846E+00  1.01943E+00  1.19029E-01
    9011.010     13.636   2.440  1.10205E+00  1.02022E+00  8.18312E-02
    9011.760     14.386   2.480  1.07552E+00  1.02075E+00  5.47710E-02
    9012.522     15.148   2.520  1.05535E+00  1.02104E+00  3.43110E-02
    9013.296     15.922   2.560  1.03897E+00  1.02111E+00  1.78596E-02
    9014.082     16.708   2.600  1.02396E+00  1.02095E+00  3.01361E-03
    9014.881     17.507   2.640  1.00867E+00  1.02064E+00 -1.19702E-02
    9015.692     18.318   2.680  9.92817E-01  1.02014E+00 -2.73259E-02
    9016.515     19.141   2.720  9.77275E-01  1.01951E+00 -4.22343E-02
    9017.350     19.976   2.760  9.62740E-01  1.01873E+00 -5.59869E-02
    9018.197     20.823   2.800  9.49301E-01  1.01784E+00 -6.85435E-02
    9019.057     21.683   2.840  9.36488E-01  1.01685E+00 -8.03633E-02
    9019.928     22.554   2.880  9.23689E-01  1.01580E+00 -9.21065E-02
    9020.812     23.438   2.920  9.10685E-01  1.01466E+00 -1.03978E-01
    9021.708     24.334   2.960  8.98234E-01  1.01348E+00 -1.15248E-01
    9022.617     25.243   3.000  8.87278E-01  1.01224E+00 -1.24959E-01
    9023.537     26.163   3.040  8.78866E-01  1.01098E+00 -1.32109E-01
    9024.470     27.096   3.080  8.73812E-01  1.00970E+00 -1.35890E-01
    9025.415     28.041   3.120  8.72328E-01  1.00840E+00 -1.36075E-01
    9026.372     28.998   3.160  8.74096E-01  1.00710E+00 -1.33004E-01
    9027.341     29.967   3.200  8.78591E-01  1.00582E+00 -1.27233E-01
    9028.323     30.948   3.240  8.85358E-01  1.00455E+00 -1.19196E-01
    9029.316     31.942   3.280  8.93620E-01  1.00331E+00 -1.09694E-01
    9030.322     32.948   3.320  9.02315E-01  1.00209E+00 -9.97751E-02
    9031.340     33.966   3.360  9.10476E-01  1.00092E+00 -9.04465E-02
    9032.370     34.996   3.400  9.17428E-01  9.99775E-01 -8.23469E-02
    9033.413     36.039   3.440  9.22946E-01  9.98690E-01 -7.57442E-02
    9034.467     37.093   3.480  9.27192E-01  9.97649E-01 -7.04572E-02
    9035.534     38.160   3.520  9.30627E-01  9.96656E-01 -6.60294E-02
    9036.613     39.239   3.560  9.33734E-01  9.95731E-01 -6.19977E-02
    9037.704     40.330   3.600  9.37057E-01  9.94856E-01 -5.77991E-02
    9038.808     41.433   3.640  9.41184E-01  9.94052E-01 -5.28677E-02
    9039.923     42.549   3.680  9.46551E-01  9.93321E-01 -4.67705E-02
    9041.051     43.677   3.720  9.53216E-01  9.92643E-01 -3.94276E-02
    9042.191     44.817   3.760  9.60921E-01  9.92036E-01 -3.11153E-02
    9043.343     45.969   3.800  9.69056E-01  9.91484E-01 -2.24279E-02
    9044.507     47.133   3.840  9.77171E-01  9.91027E-01 -1.38559E-02
    9045.684     48.310   3.880  9.85381E-01  9.90620E-01 -5.23899E-03
    9046.873     49.498   3.920  9.94597E-01  9.90266E-01  4.33162E-03
    9048.073     50.699   3.960  1.00596E+00  9.89984E-01  1.59751E-02
    9049.287     51.912   4.000  1.02020E+00  9.89777E-01  3.04248E-02
    9050.512     53.138   4.040  1.03707E+00  9.89643E-01  4.74293E-02
    9051.749     54.375   4.080  1.05513E+00  9.89558E-01  6.55696E-02
    9052.999     55.625   4.120  1.07209E+00  9.89521E-01  8.25664E-02
    9054.261     56.887   4.160  1.08538E+00  9.89552E-01  9.58273E-02
    9055.535     58.161   4.200  1.09280E+00  9.89631E-01  1.03164E-01
    9056.821     59.447   4.240  1.09348E+00  9.89779E-01  1.03699E-01
    9058.120     60.746   4.280  1.08838E+00  9.89971E-01  9.84069E-02
    9059.430     62.056   4.320  1.07980E+00  9.90205E-01  8.95905E-02
    9060.753     63.379   4.360  1.07021E+00  9.90480E-01  7.97320E-02
    9062.088     64.714   4.400  1.06147E+00  9.90795E-01  7.06730E-02
    9063.435     66.061   4.440  1.05453E+00  9.91148E-01  6.33776E-02
    9064.795     67.421   4.480  1.04959E+00  9.91540E-01  5.80455E-02
    9066.166     68.792   4.520  1.04628E+00  9.91968E-01  5.43089E-02
    9067.550     70.176   4.560  1.04381E+00  9.92408E-01  5.13977E-02
    9068.946     71.572   4.600  1.04106E+00  9.92902E-01  4.81580E-02
    9070.354     72.980   4.640  1.03682E+00  9.93383E-01  4.34386E-02
    9071.775     74.401   4.680  1.03044E+00  9.93891E-01  3.65538E-02
    9073.207     75.833   4.720  1.02216E+00  9.94405E-01  2.77522E-02
    9074.652     77.278   4.760  1.01316E+00  9.94946E-01  1.82128E-02
    9076.109     78.735   4.800  1.00486E+00  9.95488E-01  9.37527E-03
    9077.578     80.204   4.840  9.98043E-01  9.96008E-01  2.03465E-03
    9079.059     81.685   4.880  9.92555E-01  9.96550E-01 -3.99498E-03
    9080.553     83.179   4.920  9.87616E-01  9.97088E-01 -9.47241E-03
    9082.059     84.684   4.960  9.82594E-01  9.97600E-01 -1.50061E-02
    9083.576     86.202   5.000  9.77580E-01  9.98106E-01 -2.05264E-02
    9085.107     87.732   5.040  9.73237E-01  9.98605E-01 -2.53689E-02
    9086.649     89.275   5.080  9.70542E-01  9.99096E-01 -2.85544E-02
    9088.203     90.829   5.120  9.70285E-01  9.99533E-01 -2.92481E-02
    9089.770     92.396   5.160  9.72740E-01  9.99978E-01 -2.72381E-02
    9091.349     93.975   5.200  9.77197E-01  1.00037E+00 -2.31711E-02
    9092.940     95.566   5.240  9.82256E-01  1.00074E+00 -1.84871E-02
    9094.543     97.169   5.280  9.86111E-01  1.00108E+00 -1.49725E-02
    9096.159     98.784   5.320  9.87153E-01  1.00141E+00 -1.42561E-02
    9097.786    100.412   5.360  9.84428E-01  1.00167E+00 -1.72457E-02
    9099.426    102.052   5.400  9.78099E-01  1.00192E+00 -2.38223E-02
    9101.078    103.704   5.440  9.69340E-01  1.00213E+00 -3.27879E-02
    9102.742    105.368   5.480  9.60072E-01  1.00227E+00 -4.22010E-02
    9104.419    107.044   5.520  9.52446E-01  1.00240E+00 -4.99540E-02
    9106.107    108.733   5.560  9.47963E-01  1.00249E+00 -5.45225E-02
    9107.808    110.434   5.600  9.47083E-01  1.00253E+00 -5.54472E-02
    9109.521    112.147   5.640  9.49255E-01  1.00251E+00 -5.32562E-02
    9111.246    113.872   5.680  9.53747E-01  1.00247E+00 -4.87267E-02
    9112.983    115.609   5.720  9.59970E-01  1.00240E+00 -4.24256E-02
    9114.733    117.359   5.760  9.67491E-01  1.00225E+00 -3.47630E-02
    9116.495    119.121   5.800  9.75954E-01  1.00209E+00 -2.61393E-02
    9118.269    120.895   5.840  9.85079E-01  1.00187E+00 -1.67936E-02
    9120.055    122.681   5.880  9.94839E-01  1.00164E+00 -6.79813E-03
    9121.853    124.479   5.920  1.00503E+00  1.00137E+00  3.66586E-03
    9123.664    126.289   5.960  1.01433E+00  1.00103E+00  1.33027E-02
    9125.486    128.112   6.000  1.02071E+00  1.00066E+00  2.00545E-02
