# # comment:                                                     FEFF 9.9.1  
# # Source:
# # Structure
# # Reduced
# # space
# # abc:
# # angles:
# # sites:
# # POT  SCF 100  7.0000   0, screened core-hole, AFOLP (folp(0)= 1.150)
# # Abs   Z=29 Rmt= 1.268 Rnm= 1.352 K  shell
# # Pot 1 Z=29 Rmt= 1.225 Rnm= 1.323
# # Pot 2 Z=42 Rmt= 1.151 Rnm= 1.359
# # Pot 3 Z= 8 Rmt= 0.951 Rnm= 1.088
# # Gam_ch=1.729E+00 H-L exch Vi= 0.000E+00 Vr= 0.000E+00
# # Mu=-5.429E+00eV kf=2.274E+00 Vint=-1.549E+01eV Rs_int= 1.595
# FMS rfms= 9.0000
# # PATH  Rmax=-1.000,  Keep_limit= 0.00, Heap_limit 0.00  Pwcrit= 2.50%
#  S02=0.950  Temp=   0.00  Debye_temp=   0.00  Global_sig2= 0.00000
#  Energy zero shift, vr, vi    0.00000E+00   0.00000E+00
#  Curved wave amplitude ratio filter   4.000%
#     file         sig2 tot  cw amp ratio   deg  nlegs   reff  inp sig2
#     0/   0 paths used
#  xsedge+ 50, used to normalize mu           2.4552E-04
#  -----------------------------------------------------------------------
#  omega    e    k    mu    mu0     chi     @#
    8983.409     -9.239  -1.000  4.71139E-02  5.89021E-02 -1.17883E-02
    8983.708     -8.940  -0.960  4.99864E-02  6.33441E-02 -1.33577E-02
    8983.995     -8.654  -0.920  5.31274E-02  6.82943E-02 -1.51668E-02
    8984.269     -8.379  -0.880  5.65736E-02  7.38286E-02 -1.72551E-02
    8984.531     -8.117  -0.840  6.03677E-02  8.00359E-02 -1.96683E-02
    8984.781     -7.867  -0.800  6.45596E-02  8.70190E-02 -2.24595E-02
    8985.019     -7.630  -0.760  6.92067E-02  9.48961E-02 -2.56895E-02
    8985.244     -7.404  -0.720  7.43742E-02  1.03801E-01 -2.94268E-02
    8985.458     -7.191  -0.680  8.01343E-02  1.13881E-01 -3.37470E-02
    8985.659     -6.990  -0.640  8.65634E-02  1.25293E-01 -3.87295E-02
    8985.848     -6.801  -0.600  9.37364E-02  1.38189E-01 -4.44531E-02
    8986.025     -6.624  -0.560  1.01716E-01  1.52702E-01 -5.09860E-02
    8986.189     -6.459  -0.520  1.10539E-01  1.68911E-01 -5.83720E-02
    8986.342     -6.307  -0.480  1.20189E-01  1.86800E-01 -6.66108E-02
    8986.482     -6.167  -0.440  1.30577E-01  2.06212E-01 -7.56349E-02
    8986.610     -6.039  -0.400  1.41515E-01  2.26805E-01 -8.52900E-02
    8986.726     -5.923  -0.360  1.52714E-01  2.48042E-01 -9.53277E-02
    8986.829     -5.819  -0.320  1.63806E-01  2.69225E-01 -1.05419E-01
    8986.921     -5.728  -0.280  1.74386E-01  2.89577E-01 -1.15191E-01
    8987.000     -5.648  -0.240  1.84080E-01  3.08357E-01 -1.24276E-01
    8987.067     -5.581  -0.200  1.92585E-01  3.24943E-01 -1.32358E-01
    8987.122     -5.527  -0.160  1.99692E-01  3.38886E-01 -1.39194E-01
    8987.164     -5.484  -0.120  2.05281E-01  3.49900E-01 -1.44619E-01
    8987.195     -5.453  -0.080  2.09292E-01  3.57829E-01 -1.48537E-01
    8987.219     -5.429   0.000  2.12497E-01  3.64196E-01 -1.51699E-01
    8987.274     -5.374   0.120  2.19518E-01  3.78537E-01 -1.59020E-01
    8987.317     -5.331   0.160  2.24990E-01  3.89666E-01 -1.64676E-01
    8987.372     -5.277   0.200  2.31956E-01  4.03868E-01 -1.71911E-01
    8987.439     -5.210   0.240  2.40298E-01  4.20910E-01 -1.80612E-01
    8987.518     -5.130   0.280  2.49845E-01  4.40429E-01 -1.90584E-01
    8987.609     -5.039   0.320  2.60368E-01  4.61874E-01 -2.01506E-01
    8987.713     -4.935   0.360  2.71649E-01  4.84612E-01 -2.12963E-01
    8987.829     -4.819   0.400  2.83440E-01  5.07907E-01 -2.24467E-01
    8987.957     -4.691   0.440  2.95602E-01  5.31147E-01 -2.35546E-01
    8988.097     -4.551   0.480  3.07876E-01  5.53801E-01 -2.45925E-01
    8988.250     -4.399   0.520  3.19925E-01  5.75558E-01 -2.55633E-01
    8988.414     -4.234   0.560  3.31141E-01  5.96272E-01 -2.65132E-01
    8988.591     -4.057   0.600  3.40695E-01  6.15888E-01 -2.75193E-01
    8988.780     -3.868   0.640  3.48035E-01  6.34474E-01 -2.86439E-01
    8988.981     -3.667   0.680  3.53449E-01  6.52124E-01 -2.98675E-01
    8989.194     -3.454   0.720  3.58483E-01  6.68948E-01 -3.10465E-01
    8989.420     -3.228   0.760  3.65615E-01  6.85076E-01 -3.19460E-01
    8989.658     -2.991   0.800  3.77347E-01  7.00565E-01 -3.23218E-01
    8989.908     -2.741   0.840  3.95636E-01  7.15542E-01 -3.19906E-01
    8990.170     -2.479   0.880  4.21712E-01  7.30074E-01 -3.08362E-01
    8990.444     -2.204   0.920  4.56437E-01  7.44172E-01 -2.87735E-01
    8990.731     -1.918   0.960  5.00191E-01  7.57917E-01 -2.57725E-01
    8991.029     -1.619   1.000  5.51364E-01  7.71314E-01 -2.19950E-01
    8991.340     -1.308   1.040  6.04957E-01  7.84400E-01 -1.79443E-01
    8991.663     -0.985   1.080  6.53128E-01  7.97140E-01 -1.44012E-01
    8991.999     -0.650   1.120  6.89790E-01  8.09576E-01 -1.19786E-01
    8992.346     -0.302   1.160  7.16761E-01  8.21684E-01 -1.04923E-01
    8992.706      0.057   1.200  7.45235E-01  8.33474E-01 -8.82395E-02
    8993.078      0.429   1.240  7.85598E-01  8.44912E-01 -5.93140E-02
    8993.462      0.813   1.280  8.37193E-01  8.56002E-01 -1.88082E-02
    8993.858      1.210   1.320  8.93540E-01  8.66727E-01  2.68134E-02
    8994.266      1.618   1.360  9.52452E-01  8.77067E-01  7.53845E-02
    8994.687      2.039   1.400  1.01257E+00  8.87022E-01  1.25547E-01
    8995.120      2.471   1.440  1.06628E+00  8.96574E-01  1.69706E-01
    8995.565      2.916   1.480  1.09880E+00  9.05721E-01  1.93082E-01
    8996.022      3.374   1.520  1.10733E+00  9.14442E-01  1.92888E-01
    8996.491      3.843   1.560  1.11454E+00  9.22716E-01  1.91821E-01
    8996.973      4.325   1.600  1.13979E+00  9.30587E-01  2.09205E-01
    8997.467      4.818   1.640  1.17546E+00  9.37994E-01  2.37465E-01
    8997.973      5.324   1.680  1.20429E+00  9.44980E-01  2.59311E-01
    8998.491      5.842   1.720  1.22745E+00  9.51526E-01  2.75921E-01
    8999.021      6.373   1.760  1.25684E+00  9.57657E-01  2.99186E-01
    8999.564      6.915   1.800  1.29592E+00  9.63338E-01  3.32585E-01
    9000.118      7.470   1.840  1.34279E+00  9.68612E-01  3.74174E-01
    9000.685      8.037   1.880  1.38876E+00  9.73465E-01  4.15294E-01
    9001.264      8.616   1.920  1.40983E+00  9.77926E-01  4.31908E-01
    9001.856      9.207   1.960  1.38410E+00  9.81998E-01  4.02101E-01
    9002.459      9.811   2.000  1.32226E+00  9.85691E-01  3.36574E-01
    9003.075     10.427   2.040  1.25448E+00  9.89012E-01  2.65464E-01
    9003.703     11.055   2.080  1.19973E+00  9.92011E-01  2.07720E-01
    9004.343     11.695   2.120  1.15588E+00  9.94675E-01  1.61204E-01
    9004.995     12.347   2.160  1.10994E+00  9.97012E-01  1.12932E-01
    9005.660     13.011   2.200  1.06005E+00  9.99052E-01  6.10006E-02
    9006.336     13.688   2.240  1.01912E+00  1.00080E+00  1.83158E-02
    9007.025     14.377   2.280  9.98153E-01  1.00232E+00 -4.16364E-03
    9007.726     15.078   2.320  9.96673E-01  1.00356E+00 -6.88747E-03
    9008.439     15.791   2.360  1.00320E+00  1.00458E+00 -1.38636E-03
    9009.165     16.517   2.400  1.00861E+00  1.00539E+00  3.21437E-03
    9009.902     17.254   2.440  1.01332E+00  1.00600E+00  7.31727E-03
    9010.652     18.004   2.480  1.01523E+00  1.00644E+00  8.79619E-03
    9011.414     18.766   2.520  1.01328E+00  1.00673E+00  6.55854E-03
    9012.188     19.540   2.560  1.01090E+00  1.00684E+00  4.06696E-03
    9012.975     20.326   2.600  1.01197E+00  1.00684E+00  5.13526E-03
    9013.773     21.125   2.640  1.01391E+00  1.00672E+00  7.19214E-03
    9014.584     21.936   2.680  1.00594E+00  1.00648E+00 -5.41292E-04
    9015.407     22.759   2.720  9.89107E-01  1.00617E+00 -1.70663E-02
    9016.242     23.594   2.760  9.71686E-01  1.00577E+00 -3.40797E-02
    9017.090     24.441   2.800  9.55488E-01  1.00530E+00 -4.98126E-02
    9017.949     25.301   2.840  9.40076E-01  1.00479E+00 -6.47116E-02
    9018.821     26.173   2.880  9.24739E-01  1.00421E+00 -7.94681E-02
    9019.705     27.056   2.920  9.09503E-01  1.00361E+00 -9.41054E-02
    9020.601     27.953   2.960  8.95201E-01  1.00298E+00 -1.07774E-01
    9021.509     28.861   3.000  8.82865E-01  1.00233E+00 -1.19468E-01
    9022.430     29.781   3.040  8.73531E-01  1.00169E+00 -1.28154E-01
    9023.362     30.714   3.080  8.68038E-01  1.00104E+00 -1.33000E-01
    9024.307     31.659   3.120  8.66514E-01  1.00039E+00 -1.33878E-01
    9025.264     32.616   3.160  8.68623E-01  9.99771E-01 -1.31148E-01
    9026.234     33.585   3.200  8.73968E-01  9.99158E-01 -1.25190E-01
    9027.215     34.567   3.240  8.82050E-01  9.98575E-01 -1.16524E-01
    9028.209     35.560   3.280  8.92194E-01  9.98003E-01 -1.05809E-01
    9029.214     36.566   3.320  9.03878E-01  9.97468E-01 -9.35901E-02
    9030.233     37.584   3.360  9.16476E-01  9.96969E-01 -8.04938E-02
    9031.263     38.614   3.400  9.29198E-01  9.96532E-01 -6.73334E-02
    9032.305     39.657   3.440  9.41327E-01  9.96113E-01 -5.47860E-02
    9033.360     40.711   3.480  9.52530E-01  9.95733E-01 -4.32034E-02
    9034.427     41.778   3.520  9.62746E-01  9.95417E-01 -3.26711E-02
    9035.506     42.857   3.560  9.72092E-01  9.95122E-01 -2.30298E-02
    9036.597     43.948   3.600  9.80998E-01  9.94891E-01 -1.38937E-02
    9037.700     45.052   3.640  9.89830E-01  9.94705E-01 -4.87508E-03
    9038.816     46.167   3.680  9.98829E-01  9.94584E-01  4.24523E-03
    9039.943     47.295   3.720  1.00801E+00  9.94484E-01  1.35284E-02
    9041.083     48.435   3.760  1.01735E+00  9.94449E-01  2.29016E-02
    9042.235     49.587   3.800  1.02646E+00  9.94456E-01  3.20030E-02
    9043.400     50.751   3.840  1.03472E+00  9.94506E-01  4.02096E-02
    9044.576     51.928   3.880  1.04142E+00  9.94598E-01  4.68170E-02
    9045.765     53.117   3.920  1.04600E+00  9.94752E-01  5.12476E-02
    9046.966     54.318   3.960  1.04816E+00  9.94926E-01  5.32372E-02
    9048.179     55.531   4.000  1.04826E+00  9.95139E-01  5.31164E-02
    9049.404     56.756   4.040  1.04713E+00  9.95412E-01  5.17172E-02
    9050.642     57.994   4.080  1.04580E+00  9.95701E-01  5.00973E-02
    9051.892     59.243   4.120  1.04522E+00  9.96027E-01  4.91972E-02
    9053.153     60.505   4.160  1.04598E+00  9.96388E-01  4.95951E-02
    9054.427     61.779   4.200  1.04810E+00  9.96784E-01  5.13202E-02
    9055.714     63.065   4.240  1.05104E+00  9.97191E-01  5.38509E-02
    9057.012     64.364   4.280  1.05393E+00  9.97627E-01  5.62995E-02
    9058.323     65.674   4.320  1.05578E+00  9.98073E-01  5.77050E-02
    9059.646     66.997   4.360  1.05595E+00  9.98546E-01  5.73996E-02
    9060.981     68.332   4.400  1.05426E+00  9.99024E-01  5.52345E-02
    9062.328     69.679   4.440  1.05105E+00  9.99504E-01  5.15449E-02
    9063.687     71.039   4.480  1.04678E+00  9.99987E-01  4.67907E-02
    9065.059     72.410   4.520  1.04184E+00  1.00049E+00  4.13518E-02
    9066.443     73.794   4.560  1.03645E+00  1.00098E+00  3.54697E-02
    9067.839     75.190   4.600  1.03079E+00  1.00148E+00  2.93087E-02
    9069.247     76.598   4.640  1.02503E+00  1.00196E+00  2.30722E-02
    9070.667     78.019   4.680  1.01947E+00  1.00243E+00  1.70393E-02
    9072.100     79.451   4.720  1.01439E+00  1.00290E+00  1.14859E-02
    9073.544     80.896   4.760  1.00996E+00  1.00336E+00  6.59913E-03
    9075.001     82.353   4.800  1.00618E+00  1.00379E+00  2.39448E-03
    9076.470     83.822   4.840  1.00283E+00  1.00419E+00 -1.35517E-03
    9077.952     85.303   4.880  9.99536E-01  1.00457E+00 -5.03611E-03
    9079.445     86.797   4.920  9.95883E-01  1.00495E+00 -9.06553E-03
    9080.951     88.303   4.960  9.91628E-01  1.00529E+00 -1.36601E-02
    9082.469     89.821   5.000  9.86924E-01  1.00559E+00 -1.86677E-02
    9083.999     91.351   5.040  9.82174E-01  1.00586E+00 -2.36830E-02
    9085.541     92.893   5.080  9.77789E-01  1.00611E+00 -2.83178E-02
    9087.096     94.447   5.120  9.73889E-01  1.00630E+00 -3.24074E-02
    9088.662     96.014   5.160  9.70455E-01  1.00647E+00 -3.60132E-02
    9090.241     97.593   5.200  9.67395E-01  1.00660E+00 -3.92063E-02
    9091.832     99.184   5.240  9.64732E-01  1.00670E+00 -4.19653E-02
    9093.436    100.787   5.280  9.62613E-01  1.00675E+00 -4.41413E-02
    9095.051    102.403   5.320  9.61289E-01  1.00679E+00 -4.55035E-02
    9096.679    104.030   5.360  9.61012E-01  1.00677E+00 -4.57558E-02
    9098.318    105.670   5.400  9.61959E-01  1.00670E+00 -4.47436E-02
    9099.970    107.322   5.440  9.63968E-01  1.00662E+00 -4.26508E-02
    9101.635    108.986   5.480  9.66456E-01  1.00647E+00 -4.00186E-02
    9103.311    110.663   5.520  9.68890E-01  1.00631E+00 -3.74216E-02
    9105.000    112.351   5.560  9.70932E-01  1.00609E+00 -3.51548E-02
    9106.700    114.052   5.600  9.72745E-01  1.00585E+00 -3.31002E-02
    9108.413    115.765   5.640  9.74654E-01  1.00557E+00 -3.09127E-02
    9110.139    117.490   5.680  9.76988E-01  1.00525E+00 -2.82624E-02
    9111.876    119.228   5.720  9.79890E-01  1.00490E+00 -2.50080E-02
    9113.625    120.977   5.760  9.83330E-01  1.00453E+00 -2.11998E-02
    9115.387    122.739   5.800  9.87078E-01  1.00411E+00 -1.70268E-02
    9117.161    124.513   5.840  9.91009E-01  1.00367E+00 -1.26609E-02
    9118.947    126.299   5.880  9.95110E-01  1.00320E+00 -8.09369E-03
    9120.746    128.097   5.920  9.99635E-01  1.00273E+00 -3.10009E-03
    9122.556    129.908   5.960  1.00473E+00  1.00224E+00  2.48670E-03
    9124.379    131.730   6.000  1.01032E+00  1.00173E+00  8.59401E-03
