# # comment:                                                     FEFF 9.9.1  
# # Source:
# # Structure
# # Reduced
# # space
# # abc:
# # angles:122.650328
# # sites:
# # POT  SCF 100  7.0000   0, screened core-hole, AFOLP (folp(0)= 1.150)
# # Abs   Z=29 Rmt= 1.241 Rnm= 1.304 K  shell
# # Pot 1 Z=13 Rmt= 1.239 Rnm= 1.339
# # Pot 2 Z=29 Rmt= 1.241 Rnm= 1.304
# # Pot 3 Z= 8 Rmt= 0.985 Rnm= 1.076
# # Gam_ch=1.729E+00 H-L exch Vi= 0.000E+00 Vr= 0.000E+00
# # Mu=-7.363E+00eV kf=2.260E+00 Vint=-1.792E+01eV Rs_int= 1.605
# FMS rfms= 9.0000
# # PATH  Rmax=-1.000,  Keep_limit= 0.00, Heap_limit 0.00  Pwcrit= 2.50%
#  S02=0.950  Temp=   0.00  Debye_temp=   0.00  Global_sig2= 0.00000
#  Energy zero shift, vr, vi    0.00000E+00   0.00000E+00
#  Curved wave amplitude ratio filter   4.000%
#     file         sig2 tot  cw amp ratio   deg  nlegs   reff  inp sig2
#     0/   0 paths used
#  xsedge+ 50, used to normalize mu           2.4835E-04
#  -----------------------------------------------------------------------
#  omega    e    k    mu    mu0     chi     @#
    8983.856    -11.173  -1.000  3.34018E-02  4.95234E-02 -1.61216E-02
    8984.154    -10.875  -0.960  3.48756E-02  5.30686E-02 -1.81931E-02
    8984.441    -10.588  -0.920  3.64271E-02  5.70076E-02 -2.05805E-02
    8984.715    -10.314  -0.880  3.80609E-02  6.13984E-02 -2.33375E-02
    8984.977    -10.052  -0.840  3.97820E-02  6.63090E-02 -2.65270E-02
    8985.227     -9.802  -0.800  4.15956E-02  7.18180E-02 -3.02224E-02
    8985.465     -9.564  -0.760  4.35069E-02  7.80158E-02 -3.45089E-02
    8985.690     -9.338  -0.720  4.55214E-02  8.50046E-02 -3.94832E-02
    8985.904     -9.125  -0.680  4.76442E-02  9.28969E-02 -4.52526E-02
    8986.105     -8.924  -0.640  4.98798E-02  1.01812E-01 -5.19319E-02
    8986.294     -8.735  -0.600  5.22310E-02  1.11866E-01 -5.96350E-02
    8986.471     -8.558  -0.560  5.46977E-02  1.23160E-01 -6.84619E-02
    8986.635     -8.393  -0.520  5.72749E-02  1.35752E-01 -7.84773E-02
    8986.788     -8.241  -0.480  5.99503E-02  1.49631E-01 -8.96808E-02
    8986.928     -8.101  -0.440  6.27009E-02  1.64674E-01 -1.01973E-01
    8987.056     -7.973  -0.400  6.54912E-02  1.80618E-01 -1.15127E-01
    8987.172     -7.857  -0.360  6.82722E-02  1.97051E-01 -1.28778E-01
    8987.275     -7.753  -0.320  7.09834E-02  2.13434E-01 -1.42451E-01
    8987.367     -7.662  -0.280  7.35586E-02  2.29173E-01 -1.55615E-01
    8987.446     -7.583  -0.240  7.59317E-02  2.43696E-01 -1.67765E-01
    8987.513     -7.516  -0.200  7.80429E-02  2.56526E-01 -1.78483E-01
    8987.568     -7.461  -0.160  7.98420E-02  2.67312E-01 -1.87470E-01
    8987.611     -7.418  -0.120  8.12891E-02  2.75836E-01 -1.94547E-01
    8987.641     -7.388  -0.080  8.23535E-02  2.81974E-01 -1.99621E-01
    8987.666     -7.363   0.000  8.32411E-02  2.86905E-01 -2.03664E-01
    8987.720     -7.308   0.120  8.52484E-02  2.98010E-01 -2.12761E-01
    8987.763     -7.266   0.160  8.68001E-02  3.06635E-01 -2.19835E-01
    8987.818     -7.211   0.200  8.88088E-02  3.17659E-01 -2.28850E-01
    8987.885     -7.144   0.240  9.12814E-02  3.30882E-01 -2.39601E-01
    8987.964     -7.065   0.280  9.42442E-02  3.46051E-01 -2.51806E-01
    8988.056     -6.973   0.320  9.77372E-02  3.62763E-01 -2.65026E-01
    8988.159     -6.870   0.360  1.01760E-01  3.80505E-01 -2.78745E-01
    8988.275     -6.754   0.400  1.06394E-01  3.98771E-01 -2.92377E-01
    8988.403     -6.626   0.440  1.11682E-01  4.17060E-01 -3.05378E-01
    8988.543     -6.485   0.480  1.17696E-01  4.34985E-01 -3.17289E-01
    8988.696     -6.333   0.520  1.24548E-01  4.52352E-01 -3.27804E-01
    8988.860     -6.168   0.560  1.32294E-01  4.68995E-01 -3.36701E-01
    8989.037     -5.992   0.600  1.41150E-01  4.84947E-01 -3.43797E-01
    8989.226     -5.803   0.640  1.51397E-01  5.00223E-01 -3.48827E-01
    8989.427     -5.602   0.680  1.63674E-01  5.14936E-01 -3.51262E-01
    8989.641     -5.388   0.720  1.78924E-01  5.29150E-01 -3.50226E-01
    8989.866     -5.163   0.760  1.98300E-01  5.42969E-01 -3.44669E-01
    8990.104     -4.925   0.800  2.22662E-01  5.56507E-01 -3.33845E-01
    8990.354     -4.675   0.840  2.52019E-01  5.69810E-01 -3.17791E-01
    8990.616     -4.413   0.880  2.85566E-01  5.82929E-01 -2.97363E-01
    8990.890     -4.139   0.920  3.22130E-01  5.95941E-01 -2.73811E-01
    8991.177     -3.852   0.960  3.59207E-01  6.08858E-01 -2.49651E-01
    8991.476     -3.553   1.000  3.91916E-01  6.21737E-01 -2.29821E-01
    8991.786     -3.242   1.040  4.15743E-01  6.34549E-01 -2.18806E-01
    8992.110     -2.919   1.080  4.32428E-01  6.47356E-01 -2.14927E-01
    8992.445     -2.584   1.120  4.49329E-01  6.60115E-01 -2.10786E-01
    8992.792     -2.237   1.160  4.72795E-01  6.72838E-01 -2.00043E-01
    8993.152     -1.877   1.200  5.04582E-01  6.85555E-01 -1.80972E-01
    8993.524     -1.505   1.240  5.43532E-01  6.98207E-01 -1.54675E-01
    8993.908     -1.121   1.280  5.88476E-01  7.10796E-01 -1.22320E-01
    8994.304     -0.725   1.320  6.34130E-01  7.23300E-01 -8.91704E-02
    8994.713     -0.316   1.360  6.68147E-01  7.35717E-01 -6.75709E-02
    8995.133      0.104   1.400  6.87604E-01  7.48023E-01 -6.04192E-02
    8995.566      0.537   1.440  7.04597E-01  7.60192E-01 -5.55947E-02
    8996.011      0.982   1.480  7.24642E-01  7.72217E-01 -4.75746E-02
    8996.468      1.439   1.520  7.40192E-01  7.84070E-01 -4.38784E-02
    8996.938      1.909   1.560  7.56465E-01  7.95704E-01 -3.92390E-02
    8997.419      2.390   1.600  7.89503E-01  8.07152E-01 -1.76486E-02
    8997.913      2.884   1.640  8.41337E-01  8.18342E-01  2.29945E-02
    8998.419      3.390   1.680  9.16021E-01  8.29290E-01  8.67308E-02
    8998.937      3.908   1.720  1.02348E+00  8.39946E-01  1.83534E-01
    8999.467      4.439   1.760  1.15546E+00  8.50325E-01  3.05139E-01
    9000.010      4.981   1.800  1.29959E+00  8.60400E-01  4.39187E-01
    9000.565      5.536   1.840  1.44823E+00  8.70163E-01  5.78064E-01
    9001.132      6.103   1.880  1.58146E+00  8.79569E-01  7.01894E-01
    9001.711      6.682   1.920  1.68579E+00  8.88654E-01  7.97133E-01
    9002.302      7.273   1.960  1.73194E+00  8.97351E-01  8.34586E-01
    9002.906      7.877   2.000  1.67243E+00  9.05719E-01  7.66712E-01
    9003.521      8.492   2.040  1.51905E+00  9.13693E-01  6.05355E-01
    9004.149      9.120   2.080  1.32930E+00  9.21292E-01  4.08012E-01
    9004.789      9.760   2.120  1.16206E+00  9.28515E-01  2.33546E-01
    9005.441     10.413   2.160  1.04360E+00  9.35361E-01  1.08236E-01
    9006.106     11.077   2.200  9.72018E-01  9.41810E-01  3.02083E-02
    9006.783     11.754   2.240  9.29123E-01  9.47883E-01 -1.87591E-02
    9007.471     12.443   2.280  8.93445E-01  9.53582E-01 -6.01370E-02
    9008.172     13.144   2.320  8.57003E-01  9.58911E-01 -1.01908E-01
    9008.886     13.857   2.360  8.27917E-01  9.63870E-01 -1.35953E-01
    9009.611     14.582   2.400  8.18920E-01  9.68464E-01 -1.49543E-01
    9010.349     15.320   2.440  8.38313E-01  9.72716E-01 -1.34403E-01
    9011.099     16.070   2.480  8.81871E-01  9.76611E-01 -9.47397E-02
    9011.861     16.832   2.520  9.30234E-01  9.80153E-01 -4.99194E-02
    9012.635     17.606   2.560  9.68887E-01  9.83389E-01 -1.45023E-02
    9013.421     18.392   2.600  1.00022E+00  9.86304E-01  1.39136E-02
    9014.220     19.191   2.640  1.02564E+00  9.88925E-01  3.67160E-02
    9015.030     20.002   2.680  1.02973E+00  9.91235E-01  3.84939E-02
    9015.853     20.825   2.720  1.00885E+00  9.93283E-01  1.55629E-02
    9016.689     21.660   2.760  9.73761E-01  9.95056E-01 -2.12954E-02
    9017.536     22.507   2.800  9.36541E-01  9.96580E-01 -6.00385E-02
    9018.395     23.367   2.840  9.04659E-01  9.97862E-01 -9.32030E-02
    9019.267     24.238   2.880  8.81701E-01  9.98929E-01 -1.17228E-01
    9020.151     25.122   2.920  8.67566E-01  9.99767E-01 -1.32201E-01
    9021.047     26.018   2.960  8.60393E-01  1.00042E+00 -1.40031E-01
    9021.955     26.927   3.000  8.58686E-01  1.00089E+00 -1.42201E-01
    9022.876     27.847   3.040  8.60741E-01  1.00118E+00 -1.40441E-01
    9023.809     28.780   3.080  8.65471E-01  1.00132E+00 -1.35844E-01
    9024.753     29.725   3.120  8.72243E-01  1.00132E+00 -1.29073E-01
    9025.711     30.682   3.160  8.80340E-01  1.00117E+00 -1.20826E-01
    9026.680     31.651   3.200  8.89135E-01  1.00089E+00 -1.11760E-01
    9027.661     32.632   3.240  8.98260E-01  1.00053E+00 -1.02269E-01
    9028.655     33.626   3.280  9.07558E-01  1.00007E+00 -9.25160E-02
    9029.661     34.632   3.320  9.16693E-01  9.99515E-01 -8.28221E-02
    9030.679     35.650   3.360  9.25641E-01  9.98898E-01 -7.32572E-02
    9031.709     36.680   3.400  9.34433E-01  9.98208E-01 -6.37748E-02
    9032.751     37.723   3.440  9.43186E-01  9.97470E-01 -5.42839E-02
    9033.806     38.777   3.480  9.52043E-01  9.96689E-01 -4.46461E-02
    9034.873     39.844   3.520  9.61270E-01  9.95870E-01 -3.46008E-02
    9035.952     40.923   3.560  9.71061E-01  9.95036E-01 -2.39752E-02
    9037.043     42.014   3.600  9.81370E-01  9.94170E-01 -1.28001E-02
    9038.146     43.117   3.640  9.92086E-01  9.93277E-01 -1.19061E-03
    9039.262     44.233   3.680  1.00291E+00  9.92403E-01  1.05106E-02
    9040.390     45.361   3.720  1.01351E+00  9.91529E-01  2.19819E-02
    9041.530     46.501   3.760  1.02376E+00  9.90659E-01  3.30961E-02
    9042.682     47.653   3.800  1.03357E+00  9.89818E-01  4.37490E-02
    9043.846     48.817   3.840  1.04249E+00  9.88985E-01  5.35032E-02
    9045.023     49.994   3.880  1.04968E+00  9.88183E-01  6.14940E-02
    9046.211     51.182   3.920  1.05397E+00  9.87416E-01  6.65559E-02
    9047.412     52.383   3.960  1.05444E+00  9.86664E-01  6.77751E-02
    9048.625     53.596   4.000  1.05127E+00  9.85950E-01  6.53219E-02
    9049.851     54.822   4.040  1.04590E+00  9.85298E-01  6.06017E-02
    9051.088     56.059   4.080  1.03997E+00  9.84685E-01  5.52857E-02
    9052.338     57.309   4.120  1.03466E+00  9.84092E-01  5.05707E-02
    9053.600     58.571   4.160  1.03062E+00  9.83563E-01  4.70609E-02
    9054.874     59.845   4.200  1.02800E+00  9.83080E-01  4.49241E-02
    9056.160     61.131   4.240  1.02664E+00  9.82663E-01  4.39741E-02
    9057.458     62.430   4.280  1.02606E+00  9.82292E-01  4.37637E-02
    9058.769     63.740   4.320  1.02580E+00  9.81964E-01  4.38370E-02
    9060.092     65.063   4.360  1.02555E+00  9.81680E-01  4.38695E-02
    9061.427     66.398   4.400  1.02513E+00  9.81464E-01  4.36695E-02
    9062.774     67.745   4.440  1.02422E+00  9.81296E-01  4.29284E-02
    9064.133     69.105   4.480  1.02237E+00  9.81194E-01  4.11729E-02
    9065.505     70.476   4.520  1.01921E+00  9.81137E-01  3.80686E-02
    9066.889     71.860   4.560  1.01478E+00  9.81122E-01  3.36575E-02
    9068.285     73.256   4.600  1.00946E+00  9.81149E-01  2.83117E-02
    9069.693     74.664   4.640  1.00376E+00  9.81219E-01  2.25390E-02
    9071.113     76.085   4.680  9.98059E-01  9.81352E-01  1.67071E-02
    9072.546     77.517   4.720  9.92437E-01  9.81506E-01  1.09307E-02
    9073.991     78.962   4.760  9.86843E-01  9.81719E-01  5.12411E-03
    9075.448     80.419   4.800  9.81043E-01  9.81950E-01 -9.07012E-04
    9076.917     81.888   4.840  9.74873E-01  9.82241E-01 -7.36742E-03
    9078.398     83.369   4.880  9.68230E-01  9.82547E-01 -1.43169E-02
    9079.892     84.863   4.920  9.61360E-01  9.82886E-01 -2.15260E-02
    9081.397     86.368   4.960  9.54693E-01  9.83261E-01 -2.85674E-02
    9082.915     87.886   5.000  9.48679E-01  9.83646E-01 -3.49668E-02
    9084.445     89.416   5.040  9.43820E-01  9.84062E-01 -4.02424E-02
    9085.988     90.959   5.080  9.40744E-01  9.84508E-01 -4.37635E-02
    9087.542     92.513   5.120  9.40183E-01  9.84936E-01 -4.47533E-02
    9089.109     94.080   5.160  9.42763E-01  9.85390E-01 -4.26274E-02
    9090.688     95.659   5.200  9.48377E-01  9.85850E-01 -3.74730E-02
    9092.279     97.250   5.240  9.56007E-01  9.86332E-01 -3.03252E-02
    9093.882     98.853   5.280  9.63945E-01  9.86792E-01 -2.28465E-02
    9095.497    100.468   5.320  9.70583E-01  9.87248E-01 -1.66654E-02
    9097.125    102.096   5.360  9.74928E-01  9.87701E-01 -1.27732E-02
    9098.765    103.736   5.400  9.76722E-01  9.88149E-01 -1.14275E-02
    9100.417    105.388   5.440  9.76258E-01  9.88568E-01 -1.23099E-02
    9102.081    107.052   5.480  9.74381E-01  9.88980E-01 -1.45992E-02
    9103.757    108.728   5.520  9.72198E-01  9.89385E-01 -1.71872E-02
    9105.446    110.417   5.560  9.70597E-01  9.89757E-01 -1.91601E-02
    9107.147    112.118   5.600  9.69902E-01  9.90093E-01 -2.01910E-02
    9108.860    113.831   5.640  9.69914E-01  9.90418E-01 -2.05039E-02
    9110.585    115.556   5.680  9.70228E-01  9.90708E-01 -2.04795E-02
    9112.322    117.293   5.720  9.70615E-01  9.90962E-01 -2.03469E-02
    9114.072    119.043   5.760  9.71095E-01  9.91199E-01 -2.01041E-02
    9115.833    120.805   5.800  9.71829E-01  9.91374E-01 -1.95446E-02
    9117.607    122.579   5.840  9.73258E-01  9.91509E-01 -1.82511E-02
    9119.394    124.365   5.880  9.75980E-01  9.91628E-01 -1.56480E-02
    9121.192    126.163   5.920  9.80408E-01  9.91683E-01 -1.12751E-02
    9123.002    127.973   5.960  9.86564E-01  9.91716E-01 -5.15230E-03
    9124.825    129.796   6.000  9.93811E-01  9.91660E-01  2.15081E-03
