# # comment:                                                     FEFF 9.9.1  
# # Source:
# # Structure
# # Reduced
# # space
# # abc:
# # angles:
# # sites:
# # POT  SCF 100  7.0000   0, screened core-hole, AFOLP (folp(0)= 1.150)
# # Abs   Z=29 Rmt= 1.221 Rnm= 1.435 K  shell
# # Pot 1 Z=37 Rmt= 2.127 Rnm= 2.196
# # Pot 2 Z=29 Rmt= 1.156 Rnm= 1.321
# # Pot 3 Z=17 Rmt= 1.475 Rnm= 1.559
# # Pot 4 Z= 8 Rmt= 0.972 Rnm= 1.138
# # Gam_ch=1.729E+00 H-L exch Vi= 0.000E+00 Vr= 0.000E+00
# # Mu=-5.020E+00eV kf=1.744E+00 Vint=-1.189E+01eV Rs_int= 2.079
# FMS rfms= 9.0000
# # PATH  Rmax=-1.000,  Keep_limit= 0.00, Heap_limit 0.00  Pwcrit= 2.50%
#  S02=0.950  Temp=   0.00  Debye_temp=   0.00  Global_sig2= 0.00000
#  Energy zero shift, vr, vi    0.00000E+00   0.00000E+00
#  Curved wave amplitude ratio filter   4.000%
#     file         sig2 tot  cw amp ratio   deg  nlegs   reff  inp sig2
#     0/   0 paths used
#  xsedge+ 50, used to normalize mu           2.3760E-04
#  -----------------------------------------------------------------------
#  omega    e    k    mu    mu0     chi     @#
    8983.883     -8.830  -1.000  7.29651E-02  7.05797E-02  2.38541E-03
    8984.182     -8.531  -0.960  7.86842E-02  7.60663E-02  2.61792E-03
    8984.468     -8.245  -0.920  8.50417E-02  8.21833E-02  2.85837E-03
    8984.742     -7.970  -0.880  9.21249E-02  8.90240E-02  3.10091E-03
    8985.004     -7.708  -0.840  1.00034E-01  9.66972E-02  3.33669E-03
    8985.254     -7.458  -0.800  1.08882E-01  1.05329E-01  3.55291E-03
    8985.492     -7.220  -0.760  1.18795E-01  1.15063E-01  3.73183E-03
    8985.718     -6.995  -0.720  1.29913E-01  1.26064E-01  3.84974E-03
    8985.931     -6.782  -0.680  1.42386E-01  1.38509E-01  3.87639E-03
    8986.132     -6.580  -0.640  1.56365E-01  1.52590E-01  3.77539E-03
    8986.321     -6.391  -0.600  1.71998E-01  1.68492E-01  3.50663E-03
    8986.498     -6.215  -0.560  1.89405E-01  1.86373E-01  3.03196E-03
    8986.663     -6.050  -0.520  2.08654E-01  2.06329E-01  2.32544E-03
    8986.815     -5.898  -0.480  2.29728E-01  2.28339E-01  1.38845E-03
    8986.955     -5.757  -0.440  2.52479E-01  2.52212E-01  2.66882E-04
    8987.083     -5.629  -0.400  2.76595E-01  2.77531E-01 -9.36477E-04
    8987.199     -5.514  -0.360  3.01578E-01  3.03643E-01 -2.06538E-03
    8987.303     -5.410  -0.320  3.26759E-01  3.29697E-01 -2.93776E-03
    8987.394     -5.319  -0.280  3.51352E-01  3.54746E-01 -3.39470E-03
    8987.473     -5.239  -0.240  3.74529E-01  3.77882E-01 -3.35264E-03
    8987.540     -5.172  -0.200  3.95503E-01  3.98338E-01 -2.83458E-03
    8987.595     -5.117  -0.160  4.13589E-01  4.15554E-01 -1.96547E-03
    8987.638     -5.075  -0.120  4.28234E-01  4.29170E-01 -9.35410E-04
    8987.668     -5.044  -0.080  4.39029E-01  4.38982E-01  4.71745E-05
    8987.693     -5.020   0.000  4.47960E-01  4.46866E-01  1.09398E-03
    8987.748     -4.965   0.120  4.67860E-01  4.64656E-01  3.20472E-03
    8987.790     -4.922   0.160  4.83705E-01  4.78467E-01  5.23791E-03
    8987.845     -4.867   0.200  5.04573E-01  4.96134E-01  8.43945E-03
    8987.912     -4.800   0.240  5.30740E-01  5.17413E-01  1.33265E-02
    8987.992     -4.721   0.280  5.62388E-01  5.41857E-01  2.05302E-02
    8988.083     -4.630   0.320  5.99592E-01  5.68866E-01  3.07258E-02
    8988.187     -4.526   0.360  6.42132E-01  5.97669E-01  4.44628E-02
    8988.302     -4.410   0.400  6.89318E-01  6.27421E-01  6.18964E-02
    8988.430     -4.282   0.440  7.39878E-01  6.57385E-01  8.24935E-02
    8988.571     -4.142   0.480  7.91739E-01  6.86918E-01  1.04822E-01
    8988.723     -3.990   0.520  8.42282E-01  7.15624E-01  1.26658E-01
    8988.888     -3.825   0.560  8.88811E-01  7.43254E-01  1.45557E-01
    8989.064     -3.648   0.600  9.29284E-01  7.69746E-01  1.59537E-01
    8989.253     -3.459   0.640  9.62213E-01  7.95113E-01  1.67100E-01
    8989.455     -3.258   0.680  9.85915E-01  8.19393E-01  1.66522E-01
    8989.668     -3.045   0.720  9.98867E-01  8.42647E-01  1.56220E-01
    8989.893     -2.819   0.760  1.00236E+00  8.64969E-01  1.37389E-01
    8990.131     -2.581   0.800  1.00217E+00  8.86379E-01  1.15787E-01
    8990.381     -2.331   0.840  1.00491E+00  9.06925E-01  9.79876E-02
    8990.643     -2.069   0.880  1.01004E+00  9.26590E-01  8.34522E-02
    8990.918     -1.795   0.920  1.00688E+00  9.45425E-01  6.14589E-02
    8991.204     -1.509   0.960  9.86127E-01  9.63386E-01  2.27412E-02
    8991.503     -1.210   1.000  9.55428E-01  9.80458E-01 -2.50304E-02
    8991.814     -0.899   1.040  9.33226E-01  9.96595E-01 -6.33691E-02
    8992.137     -0.576   1.080  9.31935E-01  1.01179E+00 -7.98533E-02
    8992.472     -0.241   1.120  9.51998E-01  1.02600E+00 -7.40052E-02
    8992.820      0.107   1.160  9.82875E-01  1.03923E+00 -5.63506E-02
    8993.179      0.467   1.200  1.01025E+00  1.05142E+00 -4.11707E-02
    8993.551      0.838   1.240  1.03123E+00  1.06257E+00 -3.13409E-02
    8993.935      1.222   1.280  1.05585E+00  1.07266E+00 -1.68059E-02
    8994.331      1.619   1.320  1.09342E+00  1.08172E+00  1.16997E-02
    8994.740      2.027   1.360  1.14584E+00  1.08972E+00  5.61198E-02
    8995.160      2.448   1.400  1.20780E+00  1.09672E+00  1.11080E-01
    8995.593      2.881   1.440  1.25934E+00  1.10270E+00  1.56641E-01
    8996.038      3.326   1.480  1.27438E+00  1.10771E+00  1.66672E-01
    8996.495      3.783   1.520  1.24331E+00  1.11177E+00  1.31537E-01
    8996.965      4.252   1.560  1.18027E+00  1.11494E+00  6.53227E-02
    8997.446      4.734   1.600  1.11227E+00  1.11726E+00 -4.98684E-03
    8997.940      5.228   1.640  1.05721E+00  1.11878E+00 -6.15655E-02
    8998.446      5.733   1.680  1.01927E+00  1.11954E+00 -1.00261E-01
    8998.964      6.252   1.720  9.97876E-01  1.11959E+00 -1.21717E-01
    8999.495      6.782   1.760  9.92735E-01  1.11900E+00 -1.26261E-01
    9000.037      7.325   1.800  1.00202E+00  1.11784E+00 -1.15815E-01
    9000.592      7.879   1.840  1.01944E+00  1.11610E+00 -9.66649E-02
    9001.159      8.446   1.880  1.04191E+00  1.11390E+00 -7.19890E-02
    9001.738      9.025   1.920  1.07116E+00  1.11127E+00 -4.01160E-02
    9002.329      9.617   1.960  1.10424E+00  1.10827E+00 -4.03279E-03
    9002.933     10.220   2.000  1.13251E+00  1.10493E+00  2.75808E-02
    9003.548     10.836   2.040  1.15161E+00  1.10131E+00  5.02986E-02
    9004.176     11.464   2.080  1.16214E+00  1.09744E+00  6.47043E-02
    9004.816     12.104   2.120  1.16622E+00  1.09335E+00  7.28634E-02
    9005.469     12.756   2.160  1.16206E+00  1.08914E+00  7.29145E-02
    9006.133     13.421   2.200  1.14540E+00  1.08478E+00  6.06242E-02
    9006.810     14.097   2.240  1.12674E+00  1.08035E+00  4.63922E-02
    9007.499     14.786   2.280  1.11188E+00  1.07584E+00  3.60378E-02
    9008.200     15.487   2.320  1.10145E+00  1.07132E+00  3.01363E-02
    9008.913     16.200   2.360  1.09449E+00  1.06679E+00  2.77014E-02
    9009.638     16.926   2.400  1.09020E+00  1.06229E+00  2.79076E-02
    9010.376     17.663   2.440  1.08861E+00  1.05783E+00  3.07859E-02
    9011.126     18.413   2.480  1.08970E+00  1.05345E+00  3.62530E-02
    9011.888     19.175   2.520  1.09313E+00  1.04913E+00  4.40043E-02
    9012.662     19.949   2.560  1.09757E+00  1.04493E+00  5.26404E-02
    9013.448     20.736   2.600  1.10083E+00  1.04083E+00  6.00015E-02
    9014.247     21.534   2.640  1.10081E+00  1.03686E+00  6.39524E-02
    9015.058     22.345   2.680  1.09669E+00  1.03304E+00  6.36507E-02
    9015.881     23.168   2.720  1.08894E+00  1.02935E+00  5.95873E-02
    9016.716     24.003   2.760  1.07895E+00  1.02583E+00  5.31207E-02
    9017.563     24.850   2.800  1.06825E+00  1.02247E+00  4.57730E-02
    9018.423     25.710   2.840  1.05799E+00  1.01929E+00  3.87040E-02
    9019.294     26.582   2.880  1.04855E+00  1.01629E+00  3.22518E-02
    9020.178     27.466   2.920  1.03936E+00  1.01347E+00  2.58879E-02
    9021.074     28.362   2.960  1.02933E+00  1.01083E+00  1.85074E-02
    9021.983     29.270   3.000  1.01752E+00  1.00838E+00  9.13916E-03
    9022.903     30.191   3.040  1.00363E+00  1.00614E+00 -2.50898E-03
    9023.836     31.123   3.080  9.88069E-01  1.00407E+00 -1.59984E-02
    9024.781     32.068   3.120  9.71858E-01  1.00220E+00 -3.03448E-02
    9025.738     33.025   3.160  9.56336E-01  1.00055E+00 -4.42118E-02
    9026.707     33.994   3.200  9.42684E-01  9.99059E-01 -5.63753E-02
    9027.688     34.976   3.240  9.31798E-01  9.97749E-01 -6.59511E-02
    9028.682     35.970   3.280  9.24357E-01  9.96668E-01 -7.23105E-02
    9029.688     36.975   3.320  9.20449E-01  9.95736E-01 -7.52871E-02
    9030.706     37.993   3.360  9.19898E-01  9.95024E-01 -7.51261E-02
    9031.736     39.024   3.400  9.22138E-01  9.94465E-01 -7.23269E-02
    9032.779     40.066   3.440  9.26485E-01  9.94101E-01 -6.76154E-02
    9033.833     41.121   3.480  9.32083E-01  9.93907E-01 -6.18240E-02
    9034.900     42.187   3.520  9.38252E-01  9.93881E-01 -5.56287E-02
    9035.979     43.266   3.560  9.44687E-01  9.94023E-01 -4.93353E-02
    9037.070     44.358   3.600  9.51518E-01  9.94329E-01 -4.28106E-02
    9038.174     45.461   3.640  9.59109E-01  9.94796E-01 -3.56870E-02
    9039.289     46.577   3.680  9.67642E-01  9.95398E-01 -2.77567E-02
    9040.417     47.704   3.720  9.77149E-01  9.96156E-01 -1.90068E-02
    9041.557     48.844   3.760  9.87200E-01  9.97021E-01 -9.82126E-03
    9042.709     49.996   3.800  9.97271E-01  9.98036E-01 -7.65360E-04
    9043.873     51.161   3.840  1.00666E+00  9.99176E-01  7.48891E-03
    9045.050     52.337   3.880  1.01479E+00  1.00044E+00  1.43502E-02
    9046.239     53.526   3.920  1.02123E+00  1.00179E+00  1.94376E-02
    9047.439     54.727   3.960  1.02597E+00  1.00326E+00  2.27049E-02
    9048.653     55.940   4.000  1.02923E+00  1.00482E+00  2.44147E-02
    9049.878     57.165   4.040  1.03150E+00  1.00643E+00  2.50635E-02
    9051.115     58.403   4.080  1.03325E+00  1.00815E+00  2.51008E-02
    9052.365     59.652   4.120  1.03481E+00  1.00992E+00  2.48959E-02
    9053.627     60.914   4.160  1.03659E+00  1.01176E+00  2.48355E-02
    9054.901     62.188   4.200  1.03908E+00  1.01362E+00  2.54616E-02
    9056.187     63.475   4.240  1.04295E+00  1.01554E+00  2.74057E-02
    9057.486     64.773   4.280  1.04859E+00  1.01748E+00  3.11093E-02
    9058.796     66.084   4.320  1.05598E+00  1.01945E+00  3.65348E-02
    9060.119     67.406   4.360  1.06455E+00  1.02142E+00  4.31333E-02
    9061.454     68.741   4.400  1.07340E+00  1.02339E+00  5.00128E-02
    9062.801     70.089   4.440  1.08167E+00  1.02535E+00  5.63189E-02
    9064.161     71.448   4.480  1.08886E+00  1.02729E+00  6.15680E-02
    9065.532     72.820   4.520  1.09478E+00  1.02921E+00  6.55630E-02
    9066.916     74.203   4.560  1.09896E+00  1.03110E+00  6.78570E-02
    9068.312     75.599   4.600  1.10029E+00  1.03296E+00  6.73311E-02
    9069.720     77.008   4.640  1.09703E+00  1.03474E+00  6.22955E-02
    9071.141     78.428   4.680  1.08793E+00  1.03648E+00  5.14496E-02
    9072.573     79.861   4.720  1.07321E+00  1.03815E+00  3.50613E-02
    9074.018     81.305   4.760  1.05509E+00  1.03973E+00  1.53531E-02
    9075.475     82.762   4.800  1.03667E+00  1.04124E+00 -4.56582E-03
    9076.944     84.231   4.840  1.02033E+00  1.04265E+00 -2.23281E-02
    9078.425     85.713   4.880  1.00695E+00  1.04398E+00 -3.70299E-02
    9079.919     87.206   4.920  9.96310E-01  1.04522E+00 -4.89107E-02
    9081.425     88.712   4.960  9.87827E-01  1.04634E+00 -5.85155E-02
    9082.942     90.230   5.000  9.81473E-01  1.04737E+00 -6.58962E-02
    9084.472     91.760   5.040  9.78133E-01  1.04828E+00 -7.01424E-02
    9086.015     93.302   5.080  9.79141E-01  1.04906E+00 -6.99205E-02
    9087.569     94.857   5.120  9.85538E-01  1.04975E+00 -6.42092E-02
    9089.136     96.423   5.160  9.96235E-01  1.05031E+00 -5.40770E-02
    9090.715     98.002   5.200  1.00880E+00  1.05075E+00 -4.19555E-02
    9092.306     99.593   5.240  1.02043E+00  1.05107E+00 -3.06391E-02
    9093.909    101.196   5.280  1.02911E+00  1.05126E+00 -2.21481E-02
    9095.524    102.812   5.320  1.03409E+00  1.05135E+00 -1.72653E-02
    9097.152    104.440   5.360  1.03557E+00  1.05133E+00 -1.57555E-02
    9098.792    106.079   5.400  1.03463E+00  1.05117E+00 -1.65429E-02
    9100.444    107.731   5.440  1.03264E+00  1.05090E+00 -1.82614E-02
    9102.108    109.396   5.480  1.03044E+00  1.05054E+00 -2.00947E-02
    9103.785    111.072   5.520  1.02873E+00  1.05008E+00 -2.13521E-02
    9105.473    112.761   5.560  1.02823E+00  1.04951E+00 -2.12766E-02
    9107.174    114.461   5.600  1.02950E+00  1.04882E+00 -1.93228E-02
    9108.887    116.174   5.640  1.03272E+00  1.04808E+00 -1.53549E-02
    9110.612    117.899   5.680  1.03788E+00  1.04724E+00 -9.36665E-03
    9112.349    119.637   5.720  1.04537E+00  1.04631E+00 -9.34125E-04
    9114.099    121.386   5.760  1.05559E+00  1.04532E+00  1.02764E-02
    9115.861    123.148   5.800  1.06775E+00  1.04425E+00  2.34975E-02
    9117.635    124.922   5.840  1.07967E+00  1.04315E+00  3.65275E-02
    9119.421    126.708   5.880  1.08859E+00  1.04200E+00  4.65885E-02
    9121.219    128.506   5.920  1.09237E+00  1.04080E+00  5.15624E-02
    9123.030    130.317   5.960  1.09039E+00  1.03960E+00  5.07865E-02
    9124.852    132.140   6.000  1.08345E+00  1.03830E+00  4.51481E-02
