# # comment:                                                     FEFF 9.9.1  
# # Source:
# # Structure
# # Reduced
# # space
# # abc:
# # angles:145.216252
# # sites:
# # POT  SCF 100  7.0000   0, screened core-hole, AFOLP (folp(0)= 1.150)
# # Abs   Z=29 Rmt= 1.199 Rnm= 1.288 K  shell
# # Pot 1 Z=66 Rmt= 1.580 Rnm= 1.672
# # Pot 2 Z=29 Rmt= 1.199 Rnm= 1.288
# # Pot 3 Z= 8 Rmt= 1.051 Rnm= 1.105
# # Gam_ch=1.729E+00 H-L exch Vi= 0.000E+00 Vr= 0.000E+00
# # Mu=-7.310E+00eV kf=2.138E+00 Vint=-1.747E+01eV Rs_int= 1.696
# FMS rfms= 9.0000
# # PATH  Rmax=-1.000,  Keep_limit= 0.00, Heap_limit 0.00  Pwcrit= 2.50%
#  S02=0.950  Temp=   0.00  Debye_temp=   0.00  Global_sig2= 0.00000
#  Energy zero shift, vr, vi    0.00000E+00   0.00000E+00
#  Curved wave amplitude ratio filter   4.000%
#     file         sig2 tot  cw amp ratio   deg  nlegs   reff  inp sig2
#     0/   0 paths used
#  xsedge+ 50, used to normalize mu           2.4535E-04
#  -----------------------------------------------------------------------
#  omega    e    k    mu    mu0     chi     @#
    8984.411    -11.120  -1.000  4.35662E-02  5.84013E-02 -1.48351E-02
    8984.709    -10.821  -0.960  4.63774E-02  6.27881E-02 -1.64107E-02
    8984.996    -10.535  -0.920  4.95081E-02  6.76754E-02 -1.81673E-02
    8985.270    -10.260  -0.880  5.30131E-02  7.31380E-02 -2.01249E-02
    8985.532     -9.998  -0.840  5.69583E-02  7.92631E-02 -2.23048E-02
    8985.782     -9.748  -0.800  6.14221E-02  8.61520E-02 -2.47299E-02
    8986.020     -9.511  -0.760  6.64973E-02  9.39208E-02 -2.74236E-02
    8986.246     -9.285  -0.720  7.22919E-02  1.02701E-01 -3.04093E-02
    8986.459     -9.072  -0.680  7.89285E-02  1.12638E-01 -3.37097E-02
    8986.660     -8.870  -0.640  8.65406E-02  1.23885E-01 -3.73446E-02
    8986.849     -8.681  -0.600  9.52637E-02  1.36593E-01 -4.13294E-02
    8987.026     -8.505  -0.560  1.05219E-01  1.50891E-01 -4.56721E-02
    8987.190     -8.340  -0.520  1.16487E-01  1.66857E-01 -5.03704E-02
    8987.343     -8.188  -0.480  1.29069E-01  1.84476E-01 -5.54074E-02
    8987.483     -8.048  -0.440  1.42845E-01  2.03593E-01 -6.07482E-02
    8987.611     -7.919  -0.400  1.57535E-01  2.23871E-01 -6.63360E-02
    8987.727     -7.804  -0.360  1.72692E-01  2.44782E-01 -7.20896E-02
    8987.831     -7.700  -0.320  1.87736E-01  2.65638E-01 -7.79018E-02
    8987.922     -7.609  -0.280  2.02037E-01  2.85677E-01 -8.36402E-02
    8988.001     -7.529  -0.240  2.15017E-01  3.04167E-01 -8.91495E-02
    8988.068     -7.462  -0.200  2.26242E-01  3.20498E-01 -9.42564E-02
    8988.123     -7.407  -0.160  2.35448E-01  3.34226E-01 -9.87780E-02
    8988.166     -7.365  -0.120  2.42535E-01  3.45070E-01 -1.02535E-01
    8988.196     -7.334  -0.080  2.47508E-01  3.52877E-01 -1.05369E-01
    8988.221     -7.310   0.000  2.51365E-01  3.59145E-01 -1.07780E-01
    8988.276     -7.255   0.120  2.59809E-01  3.73279E-01 -1.13470E-01
    8988.318     -7.212   0.160  2.66174E-01  3.84249E-01 -1.18075E-01
    8988.373     -7.157   0.200  2.73889E-01  3.98228E-01 -1.24339E-01
    8988.440     -7.090   0.240  2.82454E-01  4.15010E-01 -1.32556E-01
    8988.519     -7.011   0.280  2.91114E-01  4.34235E-01 -1.43121E-01
    8988.611     -6.920   0.320  2.98907E-01  4.55384E-01 -1.56477E-01
    8988.714     -6.816   0.360  3.04708E-01  4.77773E-01 -1.73065E-01
    8988.830     -6.700   0.400  3.07588E-01  5.00762E-01 -1.93174E-01
    8988.958     -6.572   0.440  3.06957E-01  5.23687E-01 -2.16730E-01
    8989.099     -6.432   0.480  3.03035E-01  5.46047E-01 -2.43012E-01
    8989.251     -6.280   0.520  2.96912E-01  5.67556E-01 -2.70644E-01
    8989.416     -6.115   0.560  2.90221E-01  5.88033E-01 -2.97812E-01
    8989.592     -5.938   0.600  2.84673E-01  6.07463E-01 -3.22790E-01
    8989.781     -5.749   0.640  2.81511E-01  6.25893E-01 -3.44382E-01
    8989.982     -5.548   0.680  2.81305E-01  6.43416E-01 -3.62111E-01
    8990.196     -5.335   0.720  2.84032E-01  6.60160E-01 -3.76128E-01
    8990.421     -5.109   0.760  2.89143E-01  6.76233E-01 -3.87090E-01
    8990.659     -4.872   0.800  2.95589E-01  6.91713E-01 -3.96123E-01
    8990.909     -4.622   0.840  3.01904E-01  7.06702E-01 -4.04798E-01
    8991.171     -4.359   0.880  3.06957E-01  7.21268E-01 -4.14311E-01
    8991.445     -4.085   0.920  3.11239E-01  7.35462E-01 -4.24223E-01
    8991.732     -3.799   0.960  3.16756E-01  7.49302E-01 -4.32546E-01
    8992.031     -3.500   1.000  3.25833E-01  7.62853E-01 -4.37020E-01
    8992.342     -3.189   1.040  3.39690E-01  7.76090E-01 -4.36401E-01
    8992.665     -2.866   1.080  3.57267E-01  7.89042E-01 -4.31775E-01
    8993.000     -2.531   1.120  3.77177E-01  8.01707E-01 -4.24530E-01
    8993.347     -2.183   1.160  4.02709E-01  8.14080E-01 -4.11370E-01
    8993.707     -1.824   1.200  4.37035E-01  8.26150E-01 -3.89115E-01
    8994.079     -1.452   1.240  4.72227E-01  8.37923E-01 -3.65696E-01
    8994.463     -1.068   1.280  4.96070E-01  8.49342E-01 -3.53271E-01
    8994.859     -0.671   1.320  5.10957E-01  8.60428E-01 -3.49471E-01
    8995.268     -0.263   1.360  5.30523E-01  8.71162E-01 -3.40639E-01
    8995.688      0.158   1.400  5.65726E-01  8.81523E-01 -3.15798E-01
    8996.121      0.590   1.440  6.20643E-01  8.91488E-01 -2.70844E-01
    8996.566      1.035   1.480  6.95561E-01  9.01075E-01 -2.05513E-01
    8997.023      1.493   1.520  7.92981E-01  9.10243E-01 -1.17262E-01
    8997.493      1.962   1.560  9.14182E-01  9.18991E-01 -4.80880E-03
    8997.974      2.444   1.600  1.04755E+00  9.27297E-01  1.20253E-01
    8998.468      2.937   1.640  1.17668E+00  9.35202E-01  2.41478E-01
    8998.974      3.443   1.680  1.30014E+00  9.42646E-01  3.57499E-01
    8999.492      3.962   1.720  1.42895E+00  9.49650E-01  4.79298E-01
    9000.023      4.492   1.760  1.55013E+00  9.56237E-01  5.93894E-01
    9000.565      5.034   1.800  1.60471E+00  9.62388E-01  6.42320E-01
    9001.120      5.589   1.840  1.58140E+00  9.68087E-01  6.13310E-01
    9001.687      6.156   1.880  1.54111E+00  9.73381E-01  5.67725E-01
    9002.266      6.735   1.920  1.50864E+00  9.78253E-01  5.30389E-01
    9002.857      7.327   1.960  1.46363E+00  9.82729E-01  4.80901E-01
    9003.461      7.930   2.000  1.40827E+00  9.86797E-01  4.21476E-01
    9004.076      8.546   2.040  1.37232E+00  9.90503E-01  3.81812E-01
    9004.704      9.174   2.080  1.35788E+00  9.93813E-01  3.64065E-01
    9005.344      9.814   2.120  1.33071E+00  9.96798E-01  3.33913E-01
    9005.997     10.466   2.160  1.27213E+00  9.99424E-01  2.72706E-01
    9006.661     11.130   2.200  1.19263E+00  1.00174E+00  1.90885E-01
    9007.338     11.807   2.240  1.09974E+00  1.00374E+00  9.59988E-02
    9008.027     12.496   2.280  1.00138E+00  1.00546E+00 -4.07565E-03
    9008.728     13.197   2.320  9.14903E-01  1.00690E+00 -9.19964E-02
    9009.441     13.910   2.360  8.59458E-01  1.00809E+00 -1.48627E-01
    9010.166     14.636   2.400  8.45655E-01  1.00903E+00 -1.63370E-01
    9010.904     15.373   2.440  8.74205E-01  1.00975E+00 -1.35545E-01
    9011.654     16.123   2.480  9.37855E-01  1.01027E+00 -7.24122E-02
    9012.416     16.885   2.520  1.01792E+00  1.01061E+00  7.30930E-03
    9013.190     17.659   2.560  1.07872E+00  1.01077E+00  6.79490E-02
    9013.976     18.446   2.600  1.09955E+00  1.01078E+00  8.87716E-02
    9014.775     19.244   2.640  1.09930E+00  1.01063E+00  8.86662E-02
    9015.586     20.055   2.680  1.09152E+00  1.01038E+00  8.11416E-02
    9016.408     20.878   2.720  1.08059E+00  1.01000E+00  7.05851E-02
    9017.244     21.713   2.760  1.06697E+00  1.00951E+00  5.74578E-02
    9018.091     22.560   2.800  1.05117E+00  1.00896E+00  4.22048E-02
    9018.951     23.420   2.840  1.03342E+00  1.00833E+00  2.50857E-02
    9019.822     24.292   2.880  1.01348E+00  1.00762E+00  5.85370E-03
    9020.706     25.176   2.920  9.90857E-01  1.00689E+00 -1.60369E-02
    9021.602     26.072   2.960  9.66242E-01  1.00610E+00 -3.98579E-02
    9022.511     26.980   3.000  9.41923E-01  1.00529E+00 -6.33667E-02
    9023.431     27.900   3.040  9.20362E-01  1.00445E+00 -8.40869E-02
    9024.364     28.833   3.080  9.02640E-01  1.00362E+00 -1.00980E-01
    9025.309     29.778   3.120  8.88197E-01  1.00277E+00 -1.14573E-01
    9026.266     30.735   3.160  8.75568E-01  1.00192E+00 -1.26351E-01
    9027.235     31.704   3.200  8.63714E-01  1.00109E+00 -1.37377E-01
    9028.216     32.686   3.240  8.52875E-01  1.00027E+00 -1.47398E-01
    9029.210     33.679   3.280  8.44041E-01  9.99484E-01 -1.55443E-01
    9030.216     34.685   3.320  8.38343E-01  9.98708E-01 -1.60365E-01
    9031.234     35.703   3.360  8.36752E-01  9.97990E-01 -1.61238E-01
    9032.264     36.734   3.400  8.39791E-01  9.97287E-01 -1.57497E-01
    9033.307     37.776   3.440  8.47264E-01  9.96625E-01 -1.49361E-01
    9034.361     38.831   3.480  8.58961E-01  9.96026E-01 -1.37065E-01
    9035.428     39.897   3.520  8.74670E-01  9.95470E-01 -1.20800E-01
    9036.507     40.976   3.560  8.93947E-01  9.94957E-01 -1.01010E-01
    9037.598     42.067   3.600  9.15718E-01  9.94487E-01 -7.87694E-02
    9038.701     43.171   3.640  9.37994E-01  9.94064E-01 -5.60696E-02
    9039.817     44.286   3.680  9.58230E-01  9.93709E-01 -3.54788E-02
    9040.945     45.414   3.720  9.74526E-01  9.93422E-01 -1.88962E-02
    9042.085     46.554   3.760  9.86968E-01  9.93184E-01 -6.21567E-03
    9043.237     47.706   3.800  9.97101E-01  9.92990E-01  4.11044E-03
    9044.401     48.871   3.840  1.00668E+00  9.92842E-01  1.38424E-02
    9045.578     50.047   3.880  1.01679E+00  9.92762E-01  2.40270E-02
    9046.766     51.236   3.920  1.02748E+00  9.92729E-01  3.47487E-02
    9047.967     52.437   3.960  1.03842E+00  9.92764E-01  4.56539E-02
    9049.180     53.650   4.000  1.04932E+00  9.92845E-01  5.64769E-02
    9050.406     54.875   4.040  1.06001E+00  9.92968E-01  6.70382E-02
    9051.643     56.113   4.080  1.06984E+00  9.93135E-01  7.67018E-02
    9052.893     57.362   4.120  1.07737E+00  9.93365E-01  8.40064E-02
    9054.155     58.624   4.160  1.08099E+00  9.93615E-01  8.73784E-02
    9055.429     59.898   4.200  1.07976E+00  9.93927E-01  8.58300E-02
    9056.715     61.184   4.240  1.07392E+00  9.94257E-01  7.96668E-02
    9058.014     62.483   4.280  1.06496E+00  9.94647E-01  7.03181E-02
    9059.324     63.794   4.320  1.05478E+00  9.95050E-01  5.97335E-02
    9060.647     65.116   4.360  1.04523E+00  9.95488E-01  4.97452E-02
    9061.982     66.451   4.400  1.03751E+00  9.95959E-01  4.15493E-02
    9063.329     67.799   4.440  1.03199E+00  9.96439E-01  3.55492E-02
    9064.689     69.158   4.480  1.02835E+00  9.96929E-01  3.14244E-02
    9066.060     70.530   4.520  1.02624E+00  9.97469E-01  2.87664E-02
    9067.444     71.913   4.560  1.02558E+00  9.97994E-01  2.75882E-02
    9068.840     73.309   4.600  1.02691E+00  9.98543E-01  2.83698E-02
    9070.248     74.718   4.640  1.03084E+00  9.99096E-01  3.17412E-02
    9071.668     76.138   4.680  1.03749E+00  9.99650E-01  3.78404E-02
    9073.101     77.570   4.720  1.04589E+00  1.00020E+00  4.56868E-02
    9074.546     79.015   4.760  1.05401E+00  1.00075E+00  5.32531E-02
    9076.003     80.472   4.800  1.05945E+00  1.00130E+00  5.81562E-02
    9077.472     81.941   4.840  1.06017E+00  1.00182E+00  5.83566E-02
    9078.953     83.423   4.880  1.05495E+00  1.00233E+00  5.26238E-02
    9080.447     84.916   4.920  1.04385E+00  1.00283E+00  4.10167E-02
    9081.952     86.422   4.960  1.02852E+00  1.00333E+00  2.51944E-02
    9083.470     87.940   5.000  1.01180E+00  1.00379E+00  8.01061E-03
    9085.000     89.470   5.040  9.96721E-01  1.00422E+00 -7.49638E-03
    9086.543     91.012   5.080  9.85420E-01  1.00461E+00 -1.91886E-02
    9088.097     92.567   5.120  9.78763E-01  1.00499E+00 -2.62227E-02
    9089.664     94.133   5.160  9.76402E-01  1.00533E+00 -2.89275E-02
    9091.243     95.712   5.200  9.77269E-01  1.00566E+00 -2.83864E-02
    9092.834     97.303   5.240  9.79805E-01  1.00592E+00 -2.61175E-02
    9094.437     98.906   5.280  9.82362E-01  1.00617E+00 -2.38067E-02
    9096.052    100.522   5.320  9.83197E-01  1.00635E+00 -2.31566E-02
    9097.680    102.149   5.360  9.80951E-01  1.00652E+00 -2.55689E-02
    9099.320    103.789   5.400  9.74950E-01  1.00662E+00 -3.16726E-02
    9100.972    105.441   5.440  9.65715E-01  1.00671E+00 -4.09929E-02
    9102.636    107.105   5.480  9.54670E-01  1.00675E+00 -5.20811E-02
    9104.312    108.782   5.520  9.43710E-01  1.00673E+00 -6.30200E-02
    9106.001    110.470   5.560  9.34659E-01  1.00669E+00 -7.20317E-02
    9107.702    112.171   5.600  9.28790E-01  1.00659E+00 -7.77963E-02
    9109.415    113.884   5.640  9.26937E-01  1.00646E+00 -7.95248E-02
    9111.140    115.609   5.680  9.29315E-01  1.00627E+00 -7.69601E-02
    9112.877    117.347   5.720  9.35570E-01  1.00605E+00 -7.04771E-02
    9114.627    119.096   5.760  9.44862E-01  1.00580E+00 -6.09392E-02
    9116.389    120.858   5.800  9.55940E-01  1.00550E+00 -4.95564E-02
    9118.162    122.632   5.840  9.67373E-01  1.00518E+00 -3.78028E-02
    9119.949    124.418   5.880  9.77573E-01  1.00480E+00 -2.72228E-02
    9121.747    126.216   5.920  9.85623E-01  1.00441E+00 -1.87835E-02
    9123.557    128.027   5.960  9.91757E-01  1.00398E+00 -1.22272E-02
    9125.380    129.850   6.000  9.97549E-01  1.00350E+00 -5.95164E-03
