# # comment:                                                     FEFF 9.9.1  
# # Source:
# # Structure
# # Reduced
# # space
# # abc:
# # angles:
# # sites:
# # POT  SCF 100  7.0000   0, screened core-hole, AFOLP (folp(0)= 1.150)
# # Abs   Z=29 Rmt= 1.313 Rnm= 1.385 K  shell
# # Pot 1 Z= 3 Rmt= 1.335 Rnm= 1.389
# # Pot 2 Z=29 Rmt= 1.313 Rnm= 1.385
# # Pot 3 Z= 6 Rmt= 0.710 Rnm= 0.924
# # Pot 4 Z= 8 Rmt= 0.832 Rnm= 1.011
# # Gam_ch=1.729E+00 H-L exch Vi= 0.000E+00 Vr= 0.000E+00
# # Mu=-6.889E+00eV kf=2.607E+00 Vint=-1.783E+01eV Rs_int= 1.391
# FMS rfms= 9.0000
# # PATH  Rmax=-1.000,  Keep_limit= 0.00, Heap_limit 0.00  Pwcrit= 2.50%
#  S02=0.950  Temp=   0.00  Debye_temp=   0.00  Global_sig2= 0.00000
#  Energy zero shift, vr, vi    0.00000E+00   0.00000E+00
#  Curved wave amplitude ratio filter   4.000%
#     file         sig2 tot  cw amp ratio   deg  nlegs   reff  inp sig2
#     0/   0 paths used
#  xsedge+ 50, used to normalize mu           2.4785E-04
#  -----------------------------------------------------------------------
#  omega    e    k    mu    mu0     chi     @#
    8983.347    -10.699  -1.000  4.32952E-02  5.10479E-02 -7.75270E-03
    8983.645    -10.400  -0.960  4.59269E-02  5.46857E-02 -8.75886E-03
    8983.932    -10.113  -0.920  4.88040E-02  5.87250E-02 -9.92101E-03
    8984.206     -9.839  -0.880  5.19583E-02  6.32249E-02 -1.12665E-02
    8984.468     -9.577  -0.840  5.54263E-02  6.82542E-02 -1.28279E-02
    8984.718     -9.327  -0.800  5.92493E-02  7.38928E-02 -1.46435E-02
    8984.956     -9.089  -0.760  6.34741E-02  8.02324E-02 -1.67583E-02
    8985.182     -8.864  -0.720  6.81524E-02  8.73766E-02 -1.92242E-02
    8985.395     -8.650  -0.680  7.33400E-02  9.54397E-02 -2.20997E-02
    8985.596     -8.449  -0.640  7.90944E-02  1.04542E-01 -2.54478E-02
    8985.785     -8.260  -0.600  8.54709E-02  1.14803E-01 -2.93317E-02
    8985.962     -8.084  -0.560  9.25149E-02  1.26322E-01 -3.38072E-02
    8986.127     -7.919  -0.520  1.00251E-01  1.39161E-01 -3.89094E-02
    8986.279     -7.767  -0.480  1.08671E-01  1.53305E-01 -4.46345E-02
    8986.419     -7.626  -0.440  1.17712E-01  1.68632E-01 -5.09197E-02
    8986.547     -7.498  -0.400  1.27247E-01  1.84872E-01 -5.76256E-02
    8986.663     -7.382  -0.360  1.37073E-01  2.01607E-01 -6.45341E-02
    8986.767     -7.279  -0.320  1.46923E-01  2.18291E-01 -7.13678E-02
    8986.858     -7.187  -0.280  1.56486E-01  2.34318E-01 -7.78323E-02
    8986.937     -7.108  -0.240  1.65441E-01  2.49107E-01 -8.36662E-02
    8987.004     -7.041  -0.200  1.73493E-01  2.62172E-01 -8.86797E-02
    8987.059     -6.986  -0.160  1.80392E-01  2.73159E-01 -9.27672E-02
    8987.102     -6.944  -0.120  1.85946E-01  2.81841E-01 -9.58947E-02
    8987.132     -6.913  -0.080  1.90020E-01  2.88094E-01 -9.80741E-02
    8987.157     -6.889   0.000  1.93375E-01  2.93117E-01 -9.97421E-02
    8987.212     -6.834   0.120  2.00864E-01  3.04439E-01 -1.03575E-01
    8987.254     -6.791   0.160  2.06748E-01  3.13227E-01 -1.06479E-01
    8987.309     -6.736   0.200  2.14428E-01  3.24451E-01 -1.10023E-01
    8987.376     -6.669   0.240  2.23927E-01  3.37949E-01 -1.14022E-01
    8987.455     -6.590   0.280  2.35213E-01  3.53424E-01 -1.18210E-01
    8987.547     -6.499   0.320  2.48218E-01  3.70493E-01 -1.22275E-01
    8987.651     -6.395   0.360  2.62730E-01  3.88635E-01 -1.25905E-01
    8987.766     -6.279   0.400  2.78423E-01  4.07318E-01 -1.28896E-01
    8987.894     -6.151   0.440  2.94865E-01  4.26059E-01 -1.31194E-01
    8988.035     -6.011   0.480  3.11582E-01  4.44487E-01 -1.32905E-01
    8988.187     -5.859   0.520  3.28161E-01  4.62364E-01 -1.34203E-01
    8988.352     -5.694   0.560  3.44282E-01  4.79567E-01 -1.35285E-01
    8988.528     -5.517   0.600  3.59751E-01  4.96087E-01 -1.36336E-01
    8988.717     -5.328   0.640  3.74335E-01  5.11984E-01 -1.37649E-01
    8988.918     -5.127   0.680  3.87583E-01  5.27332E-01 -1.39749E-01
    8989.132     -4.914   0.720  3.98773E-01  5.42257E-01 -1.43484E-01
    8989.357     -4.688   0.760  4.07025E-01  5.56825E-01 -1.49799E-01
    8989.595     -4.450   0.800  4.12188E-01  5.71135E-01 -1.58947E-01
    8989.845     -4.200   0.840  4.15189E-01  5.85272E-01 -1.70083E-01
    8990.107     -3.938   0.880  4.17491E-01  5.99308E-01 -1.81817E-01
    8990.382     -3.664   0.920  4.20821E-01  6.13266E-01 -1.92445E-01
    8990.668     -3.377   0.960  4.27317E-01  6.27195E-01 -1.99878E-01
    8990.967     -3.079   1.000  4.38988E-01  6.41133E-01 -2.02145E-01
    8991.278     -2.768   1.040  4.56832E-01  6.55070E-01 -1.98238E-01
    8991.601     -2.445   1.080  4.80497E-01  6.69049E-01 -1.88552E-01
    8991.936     -2.109   1.120  5.08854E-01  6.83047E-01 -1.74192E-01
    8992.283     -1.762   1.160  5.41709E-01  6.97054E-01 -1.55345E-01
    8992.643     -1.402   1.200  5.78851E-01  7.11097E-01 -1.32246E-01
    8993.015     -1.030   1.240  6.18533E-01  7.25116E-01 -1.06584E-01
    8993.399     -0.646   1.280  6.60041E-01  7.39112E-01 -7.90715E-02
    8993.795     -0.250   1.320  7.06970E-01  7.53082E-01 -4.61120E-02
    8994.204      0.158   1.360  7.66153E-01  7.66975E-01 -8.22334E-04
    8994.624      0.579   1.400  8.41228E-01  7.80765E-01  6.04631E-02
    8995.057      1.012   1.440  9.23565E-01  7.94443E-01  1.29122E-01
    8995.502      1.457   1.480  9.92867E-01  8.07978E-01  1.84889E-01
    8995.959      1.914   1.520  1.03665E+00  8.21316E-01  2.15334E-01
    8996.429      2.383   1.560  1.05665E+00  8.34445E-01  2.22207E-01
    8996.910      2.865   1.600  1.05934E+00  8.47312E-01  2.12028E-01
    8997.404      3.359   1.640  1.05002E+00  8.59923E-01  1.90094E-01
    8997.910      3.865   1.680  1.02640E+00  8.72227E-01  1.54173E-01
    8998.428      4.383   1.720  9.90683E-01  8.84210E-01  1.06473E-01
    8998.959      4.913   1.760  9.53895E-01  8.95819E-01  5.80766E-02
    8999.501      5.456   1.800  9.28506E-01  9.07041E-01  2.14652E-02
    9000.056      6.010   1.840  9.23138E-01  9.17847E-01  5.29074E-03
    9000.623      6.577   1.880  9.38969E-01  9.28247E-01  1.07219E-02
    9001.202      7.156   1.920  9.70448E-01  9.38168E-01  3.22796E-02
    9001.793      7.748   1.960  1.00625E+00  9.47626E-01  5.86190E-02
    9002.397      8.351   2.000  1.04086E+00  9.56593E-01  8.42645E-02
    9003.012      8.967   2.040  1.07705E+00  9.65081E-01  1.11966E-01
    9003.640      9.595   2.080  1.11378E+00  9.73049E-01  1.40733E-01
    9004.280     10.235   2.120  1.15532E+00  9.80490E-01  1.74835E-01
    9004.933     10.887   2.160  1.20704E+00  9.87424E-01  2.19621E-01
    9005.597     11.552   2.200  1.26467E+00  9.93832E-01  2.70835E-01
    9006.274     12.228   2.240  1.31111E+00  9.99732E-01  3.11380E-01
    9006.963     12.917   2.280  1.32668E+00  1.00509E+00  3.21590E-01
    9007.664     13.618   2.320  1.31064E+00  1.00996E+00  3.00673E-01
    9008.377     14.331   2.360  1.27478E+00  1.01432E+00  2.60463E-01
    9009.102     15.057   2.400  1.22681E+00  1.01819E+00  2.08626E-01
    9009.840     15.794   2.440  1.17396E+00  1.02157E+00  1.52390E-01
    9010.590     16.544   2.480  1.11901E+00  1.02449E+00  9.45217E-02
    9011.352     17.306   2.520  1.06168E+00  1.02697E+00  3.47125E-02
    9012.126     18.080   2.560  1.00988E+00  1.02902E+00 -1.91414E-02
    9012.912     18.867   2.600  9.72348E-01  1.03065E+00 -5.83032E-02
    9013.711     19.665   2.640  9.49556E-01  1.03190E+00 -8.23426E-02
    9014.522     20.476   2.680  9.37763E-01  1.03277E+00 -9.50114E-02
    9015.345     21.299   2.720  9.34846E-01  1.03329E+00 -9.84438E-02
    9016.180     22.134   2.760  9.38598E-01  1.03348E+00 -9.48808E-02
    9017.027     22.982   2.800  9.43976E-01  1.03335E+00 -8.93739E-02
    9017.887     23.841   2.840  9.42623E-01  1.03296E+00 -9.03344E-02
    9018.758     24.713   2.880  9.29024E-01  1.03229E+00 -1.03268E-01
    9019.642     25.597   2.920  9.08871E-01  1.03138E+00 -1.22513E-01
    9020.538     26.493   2.960  8.91312E-01  1.03029E+00 -1.38975E-01
    9021.447     27.401   3.000  8.84386E-01  1.02897E+00 -1.44585E-01
    9022.367     28.322   3.040  8.83290E-01  1.02748E+00 -1.44194E-01
    9023.300     29.254   3.080  8.85737E-01  1.02586E+00 -1.40126E-01
    9024.245     30.199   3.120  8.91526E-01  1.02409E+00 -1.32569E-01
    9025.202     31.156   3.160  9.00662E-01  1.02223E+00 -1.21566E-01
    9026.171     32.126   3.200  9.12641E-01  1.02028E+00 -1.07635E-01
    9027.152     33.107   3.240  9.26632E-01  1.01825E+00 -9.16132E-02
    9028.146     34.101   3.280  9.41997E-01  1.01615E+00 -7.41483E-02
    9029.152     35.106   3.320  9.58221E-01  1.01402E+00 -5.58022E-02
    9030.170     36.124   3.360  9.74868E-01  1.01187E+00 -3.70003E-02
    9031.200     37.155   3.400  9.91582E-01  1.00971E+00 -1.81266E-02
    9032.243     38.197   3.440  1.00775E+00  1.00755E+00  1.98630E-04
    9033.297     39.252   3.480  1.02256E+00  1.00540E+00  1.71575E-02
    9034.364     40.319   3.520  1.03525E+00  1.00330E+00  3.19478E-02
    9035.443     41.397   3.560  1.04480E+00  1.00123E+00  4.35778E-02
    9036.534     42.489   3.600  1.05046E+00  9.99218E-01  5.12414E-02
    9037.638     43.592   3.640  1.05197E+00  9.97279E-01  5.46929E-02
    9038.753     44.708   3.680  1.04973E+00  9.95395E-01  5.43324E-02
    9039.881     45.835   3.720  1.04477E+00  9.93587E-01  5.11856E-02
    9041.021     46.975   3.760  1.03839E+00  9.91862E-01  4.65298E-02
    9042.173     48.127   3.800  1.03155E+00  9.90243E-01  4.13106E-02
    9043.337     49.292   3.840  1.02476E+00  9.88712E-01  3.60471E-02
    9044.514     50.468   3.880  1.01823E+00  9.87272E-01  3.09536E-02
    9045.702     51.657   3.920  1.01208E+00  9.85965E-01  2.61100E-02
    9046.903     52.858   3.960  1.00633E+00  9.84752E-01  2.15735E-02
    9048.116     54.071   4.000  1.00105E+00  9.83633E-01  1.74144E-02
    9049.342     55.296   4.040  9.96345E-01  9.82654E-01  1.36908E-02
    9050.579     56.534   4.080  9.92181E-01  9.81792E-01  1.03894E-02
    9051.829     57.783   4.120  9.88474E-01  9.81028E-01  7.44590E-03
    9053.091     59.045   4.160  9.85215E-01  9.80404E-01  4.81191E-03
    9054.365     60.319   4.200  9.82433E-01  9.79875E-01  2.55722E-03
    9055.651     61.606   4.240  9.80366E-01  9.79464E-01  9.02412E-04
    9056.950     62.904   4.280  9.79331E-01  9.79170E-01  1.61281E-04
    9058.260     64.215   4.320  9.79644E-01  9.78990E-01  6.53596E-04
    9059.583     65.538   4.360  9.81497E-01  9.78905E-01  2.59292E-03
    9060.918     66.873   4.400  9.84923E-01  9.78932E-01  5.99068E-03
    9062.265     68.220   4.440  9.89663E-01  9.79072E-01  1.05911E-02
    9063.625     69.579   4.480  9.95166E-01  9.79299E-01  1.58671E-02
    9064.996     70.951   4.520  1.00070E+00  9.79612E-01  2.10930E-02
    9066.380     72.335   4.560  1.00556E+00  9.80030E-01  2.55256E-02
    9067.776     73.731   4.600  1.00909E+00  9.80509E-01  2.85814E-02
    9069.184     75.139   4.640  1.01102E+00  9.81087E-01  2.99292E-02
    9070.605     76.559   4.680  1.01117E+00  9.81721E-01  2.94536E-02
    9072.037     77.992   4.720  1.00957E+00  9.82429E-01  2.71370E-02
    9073.482     79.436   4.760  1.00620E+00  9.83210E-01  2.29912E-02
    9074.939     80.893   4.800  1.00118E+00  9.84035E-01  1.71452E-02
    9076.408     82.362   4.840  9.94819E-01  9.84903E-01  9.91591E-03
    9077.889     83.844   4.880  9.87629E-01  9.85811E-01  1.81787E-03
    9079.383     85.337   4.920  9.80256E-01  9.86753E-01 -6.49645E-03
    9080.888     86.843   4.960  9.73356E-01  9.87706E-01 -1.43501E-02
    9082.406     88.361   5.000  9.67553E-01  9.88689E-01 -2.11356E-02
    9083.936     89.891   5.040  9.63239E-01  9.89676E-01 -2.64372E-02
    9085.479     91.433   5.080  9.60574E-01  9.90665E-01 -3.00913E-02
    9087.033     92.988   5.120  9.59536E-01  9.91674E-01 -3.21381E-02
    9088.600     94.554   5.160  9.59885E-01  9.92634E-01 -3.27489E-02
    9090.179     96.133   5.200  9.61541E-01  9.93604E-01 -3.20629E-02
    9091.770     97.724   5.240  9.64337E-01  9.94518E-01 -3.01814E-02
    9093.373     99.328   5.280  9.68212E-01  9.95419E-01 -2.72063E-02
    9094.988    100.943   5.320  9.72953E-01  9.96280E-01 -2.33273E-02
    9096.616    102.571   5.360  9.78267E-01  9.97100E-01 -1.88322E-02
    9098.256    104.210   5.400  9.83810E-01  9.97874E-01 -1.40636E-02
    9099.908    105.862   5.440  9.89246E-01  9.98575E-01 -9.32943E-03
    9101.572    107.527   5.480  9.94366E-01  9.99204E-01 -4.83753E-03
    9103.248    109.203   5.520  9.99084E-01  9.99782E-01 -6.98474E-04
    9104.937    110.892   5.560  1.00330E+00  1.00031E+00  2.98995E-03
    9106.638    112.592   5.600  1.00680E+00  1.00073E+00  6.06759E-03
    9108.351    114.305   5.640  1.00940E+00  1.00108E+00  8.32348E-03
    9110.076    116.031   5.680  1.01095E+00  1.00136E+00  9.58577E-03
    9111.813    117.768   5.720  1.01139E+00  1.00155E+00  9.83971E-03
    9113.563    119.517   5.760  1.01098E+00  1.00168E+00  9.30389E-03
    9115.325    121.279   5.800  1.01010E+00  1.00170E+00  8.40358E-03
    9117.099    123.053   5.840  1.00925E+00  1.00164E+00  7.60813E-03
    9118.885    124.839   5.880  1.00869E+00  1.00150E+00  7.19333E-03
    9120.683    126.638   5.920  1.00836E+00  1.00128E+00  7.08794E-03
    9122.493    128.448   5.960  1.00788E+00  1.00096E+00  6.91726E-03
    9124.316    130.271   6.000  1.00665E+00  1.00048E+00  6.16415E-03
