# # comment:                                                     FEFF 9.9.1  
# # Source:
# # Structure
# # Reduced
# # space
# # abc:
# # angles:
# # sites:
# # POT  SCF 100  7.0000   0, screened core-hole, AFOLP (folp(0)= 1.150)
# # Abs   Z=29 Rmt= 1.236 Rnm= 1.324 K  shell
# # Pot 1 Z=23 Rmt= 1.117 Rnm= 1.319
# # Pot 2 Z=29 Rmt= 1.257 Rnm= 1.325
# # Pot 3 Z= 1 Rmt= 0.876 Rnm= 0.976
# # Pot 4 Z= 8 Rmt= 0.877 Rnm= 1.069
# # Gam_ch=1.729E+00 H-L exch Vi= 0.000E+00 Vr= 0.000E+00
# # Mu=-7.432E+00eV kf=2.257E+00 Vint=-1.668E+01eV Rs_int= 1.607
# FMS rfms= 9.0000
# # PATH  Rmax=-1.000,  Keep_limit= 0.00, Heap_limit 0.00  Pwcrit= 2.50%
#  S02=0.950  Temp=   0.00  Debye_temp=   0.00  Global_sig2= 0.00000
#  Energy zero shift, vr, vi    0.00000E+00   0.00000E+00
#  Curved wave amplitude ratio filter   4.000%
#     file         sig2 tot  cw amp ratio   deg  nlegs   reff  inp sig2
#     0/   0 paths used
#  xsedge+ 50, used to normalize mu           2.4618E-04
#  -----------------------------------------------------------------------
#  omega    e    k    mu    mu0     chi     @#
    8983.858    -11.242  -1.000  4.26614E-02  5.53496E-02 -1.26883E-02
    8984.157    -10.943  -0.960  4.52145E-02  5.94136E-02 -1.41991E-02
    8984.444    -10.657  -0.920  4.80089E-02  6.39331E-02 -1.59242E-02
    8984.718    -10.383  -0.880  5.10777E-02  6.89755E-02 -1.78978E-02
    8984.980    -10.120  -0.840  5.44598E-02  7.46193E-02 -2.01595E-02
    8985.230     -9.870  -0.800  5.82001E-02  8.09554E-02 -2.27553E-02
    8985.468     -9.633  -0.760  6.23504E-02  8.80882E-02 -2.57378E-02
    8985.693     -9.407  -0.720  6.69693E-02  9.61357E-02 -2.91664E-02
    8985.907     -9.194  -0.680  7.21211E-02  1.05228E-01 -3.31067E-02
    8986.108     -8.993  -0.640  7.78740E-02  1.15502E-01 -3.76280E-02
    8986.297     -8.804  -0.600  8.42942E-02  1.27093E-01 -4.27988E-02
    8986.473     -8.627  -0.560  9.14374E-02  1.40116E-01 -4.86788E-02
    8986.638     -8.462  -0.520  9.93336E-02  1.54640E-01 -5.53065E-02
    8986.790     -8.310  -0.480  1.07968E-01  1.70650E-01 -6.26822E-02
    8986.931     -8.170  -0.440  1.17258E-01  1.88006E-01 -7.07481E-02
    8987.059     -8.042  -0.400  1.27033E-01  2.06404E-01 -7.93708E-02
    8987.175     -7.926  -0.360  1.37033E-01  2.25368E-01 -8.83345E-02
    8987.278     -7.822  -0.320  1.46927E-01  2.44279E-01 -9.73524E-02
    8987.370     -7.731  -0.280  1.56354E-01  2.62451E-01 -1.06097E-01
    8987.449     -7.652  -0.240  1.64980E-01  2.79223E-01 -1.14242E-01
    8987.516     -7.584  -0.200  1.72539E-01  2.94042E-01 -1.21503E-01
    8987.571     -7.530  -0.160  1.78850E-01  3.06505E-01 -1.27654E-01
    8987.613     -7.487  -0.120  1.83813E-01  3.16355E-01 -1.32541E-01
    8987.644     -7.456  -0.080  1.87381E-01  3.23449E-01 -1.36068E-01
    8987.668     -7.432   0.000  1.90257E-01  3.29148E-01 -1.38891E-01
    8987.723     -7.377   0.120  1.96468E-01  3.41993E-01 -1.45524E-01
    8987.766     -7.335   0.160  2.01271E-01  3.51967E-01 -1.50697E-01
    8987.821     -7.280   0.200  2.07380E-01  3.64712E-01 -1.57332E-01
    8987.888     -7.213   0.240  2.14710E-01  3.80029E-01 -1.65319E-01
    8987.967     -7.133   0.280  2.23145E-01  3.97607E-01 -1.74462E-01
    8988.058     -7.042   0.320  2.32609E-01  4.16991E-01 -1.84382E-01
    8988.162     -6.938   0.360  2.43025E-01  4.37596E-01 -1.94571E-01
    8988.278     -6.822   0.400  2.54455E-01  4.58823E-01 -2.04368E-01
    8988.406     -6.694   0.440  2.67016E-01  4.80103E-01 -2.13088E-01
    8988.546     -6.554   0.480  2.80801E-01  5.01035E-01 -2.20233E-01
    8988.699     -6.402   0.520  2.95590E-01  5.21307E-01 -2.25716E-01
    8988.863     -6.237   0.560  3.10852E-01  5.40815E-01 -2.29963E-01
    8989.040     -6.060   0.600  3.25731E-01  5.59485E-01 -2.33754E-01
    8989.229     -5.871   0.640  3.39789E-01  5.77419E-01 -2.37629E-01
    8989.430     -5.670   0.680  3.53534E-01  5.94654E-01 -2.41120E-01
    8989.643     -5.457   0.720  3.68420E-01  6.11303E-01 -2.42883E-01
    8989.869     -5.231   0.760  3.85034E-01  6.27477E-01 -2.42443E-01
    8990.107     -4.994   0.800  4.01077E-01  6.43218E-01 -2.42141E-01
    8990.357     -4.744   0.840  4.12564E-01  6.58655E-01 -2.46091E-01
    8990.619     -4.482   0.880  4.17651E-01  6.73800E-01 -2.56150E-01
    8990.893     -4.207   0.920  4.18205E-01  6.88695E-01 -2.70490E-01
    8991.180     -3.921   0.960  4.16557E-01  7.03366E-01 -2.86810E-01
    8991.478     -3.622   1.000  4.14580E-01  7.17851E-01 -3.03271E-01
    8991.789     -3.311   1.040  4.16093E-01  7.32135E-01 -3.16042E-01
    8992.112     -2.988   1.080  4.26298E-01  7.46218E-01 -3.19920E-01
    8992.448     -2.653   1.120  4.48485E-01  7.60115E-01 -3.11630E-01
    8992.795     -2.305   1.160  4.82664E-01  7.73770E-01 -2.91106E-01
    8993.155     -1.946   1.200  5.26002E-01  7.87209E-01 -2.61207E-01
    8993.527     -1.574   1.240  5.73459E-01  8.00371E-01 -2.26911E-01
    8993.911     -1.190   1.280  6.20715E-01  8.13254E-01 -1.92539E-01
    8994.307     -0.794   1.320  6.64595E-01  8.25854E-01 -1.61259E-01
    8994.715     -0.385   1.360  7.01255E-01  8.38126E-01 -1.36870E-01
    8995.136      0.036   1.400  7.31751E-01  8.50043E-01 -1.18292E-01
    8995.569      0.468   1.440  7.65628E-01  8.61579E-01 -9.59516E-02
    8996.014      0.913   1.480  8.08438E-01  8.72748E-01 -6.43108E-02
    8996.471      1.371   1.520  8.55460E-01  8.83484E-01 -2.80239E-02
    8996.940      1.840   1.560  9.03733E-01  8.93822E-01  9.91045E-03
    8997.422      2.322   1.600  9.56652E-01  9.03697E-01  5.29552E-02
    8997.916      2.815   1.640  1.01740E+00  9.13146E-01  1.04251E-01
    8998.422      3.321   1.680  1.08750E+00  9.22124E-01  1.65376E-01
    8998.940      3.839   1.720  1.16774E+00  9.30632E-01  2.37104E-01
    8999.470      4.370   1.760  1.24691E+00  9.38667E-01  3.08244E-01
    9000.013      4.912   1.800  1.30606E+00  9.46229E-01  3.59828E-01
    9000.567      5.467   1.840  1.34412E+00  9.53322E-01  3.90802E-01
    9001.134      6.034   1.880  1.37286E+00  9.59948E-01  4.12917E-01
    9001.713      6.613   1.920  1.39851E+00  9.66108E-01  4.32399E-01
    9002.305      7.204   1.960  1.42024E+00  9.71808E-01  4.48436E-01
    9002.908      7.808   2.000  1.43130E+00  9.77052E-01  4.54248E-01
    9003.524      8.424   2.040  1.42016E+00  9.81869E-01  4.38295E-01
    9004.152      9.051   2.080  1.37843E+00  9.86263E-01  3.92166E-01
    9004.792      9.692   2.120  1.31272E+00  9.90222E-01  3.22493E-01
    9005.444     10.344   2.160  1.24274E+00  9.93815E-01  2.48925E-01
    9006.109     11.008   2.200  1.18124E+00  9.97009E-01  1.84233E-01
    9006.785     11.685   2.240  1.12329E+00  9.99834E-01  1.23458E-01
    9007.474     12.374   2.280  1.06399E+00  1.00232E+00  6.16721E-02
    9008.175     13.075   2.320  1.01325E+00  1.00447E+00  8.77940E-03
    9008.888     13.788   2.360  9.81070E-01  1.00630E+00 -2.52285E-02
    9009.614     14.513   2.400  9.67985E-01  1.00784E+00 -3.98511E-02
    9010.351     15.251   2.440  9.70297E-01  1.00911E+00 -3.88157E-02
    9011.101     16.001   2.480  9.82819E-01  1.01014E+00 -2.73186E-02
    9011.863     16.763   2.520  9.99114E-01  1.01092E+00 -1.18020E-02
    9012.637     17.537   2.560  1.01329E+00  1.01146E+00  1.82873E-03
    9013.424     18.323   2.600  1.01838E+00  1.01182E+00  6.56100E-03
    9014.222     19.122   2.640  1.00587E+00  1.01198E+00 -6.11306E-03
    9015.033     19.933   2.680  9.80715E-01  1.01198E+00 -3.12604E-02
    9015.856     20.756   2.720  9.59621E-01  1.01181E+00 -5.21890E-02
    9016.691     21.591   2.760  9.44368E-01  1.01151E+00 -6.71445E-02
    9017.539     22.438   2.800  9.34620E-01  1.01111E+00 -7.64927E-02
    9018.398     23.298   2.840  9.29694E-01  1.01058E+00 -8.08823E-02
    9019.270     24.169   2.880  9.28756E-01  1.00997E+00 -8.12143E-02
    9020.154     25.053   2.920  9.30276E-01  1.00926E+00 -7.89856E-02
    9021.050     25.949   2.960  9.32561E-01  1.00850E+00 -7.59358E-02
    9021.958     26.858   3.000  9.33783E-01  1.00768E+00 -7.38990E-02
    9022.879     27.778   3.040  9.33258E-01  1.00680E+00 -7.35441E-02
    9023.811     28.711   3.080  9.31551E-01  1.00590E+00 -7.43532E-02
    9024.756     29.656   3.120  9.29740E-01  1.00497E+00 -7.52324E-02
    9025.713     30.613   3.160  9.28877E-01  1.00403E+00 -7.51548E-02
    9026.683     31.582   3.200  9.29556E-01  1.00309E+00 -7.35293E-02
    9027.664     32.564   3.240  9.32022E-01  1.00212E+00 -7.00967E-02
    9028.658     33.557   3.280  9.35822E-01  1.00120E+00 -6.53728E-02
    9029.663     34.563   3.320  9.40414E-01  1.00026E+00 -5.98442E-02
    9030.682     35.581   3.360  9.45471E-01  9.99350E-01 -5.38790E-02
    9031.712     36.611   3.400  9.50756E-01  9.98473E-01 -4.77170E-02
    9032.754     37.654   3.440  9.56130E-01  9.97612E-01 -4.14820E-02
    9033.809     38.708   3.480  9.61616E-01  9.96810E-01 -3.51941E-02
    9034.876     39.775   3.520  9.66998E-01  9.96026E-01 -2.90275E-02
    9035.955     40.854   3.560  9.71991E-01  9.95304E-01 -2.33131E-02
    9037.046     41.945   3.600  9.76299E-01  9.94625E-01 -1.83261E-02
    9038.149     43.049   3.640  9.79773E-01  9.93989E-01 -1.42165E-02
    9039.265     44.164   3.680  9.82402E-01  9.93398E-01 -1.09962E-02
    9040.392     45.292   3.720  9.84424E-01  9.92873E-01 -8.44904E-03
    9041.532     46.432   3.760  9.86293E-01  9.92394E-01 -6.10128E-03
    9042.684     47.584   3.800  9.88633E-01  9.91963E-01 -3.32942E-03
    9043.849     48.748   3.840  9.92057E-01  9.91601E-01  4.56209E-04
    9045.025     49.925   3.880  9.96938E-01  9.91307E-01  5.63065E-03
    9046.214     51.114   3.920  1.00317E+00  9.91040E-01  1.21289E-02
    9047.415     52.315   3.960  1.01025E+00  9.90840E-01  1.94088E-02
    9048.628     53.528   4.000  1.01730E+00  9.90709E-01  2.65867E-02
    9049.853     54.753   4.040  1.02335E+00  9.90626E-01  3.27239E-02
    9051.091     55.990   4.080  1.02761E+00  9.90587E-01  3.70224E-02
    9052.341     57.240   4.120  1.02961E+00  9.90615E-01  3.89930E-02
    9053.602     58.502   4.160  1.02929E+00  9.90666E-01  3.86214E-02
    9054.876     59.776   4.200  1.02700E+00  9.90781E-01  3.62221E-02
    9056.163     61.062   4.240  1.02328E+00  9.90961E-01  3.23190E-02
    9057.461     62.361   4.280  1.01871E+00  9.91161E-01  2.75451E-02
    9058.772     63.671   4.320  1.01401E+00  9.91400E-01  2.26141E-02
    9060.095     64.994   4.360  1.00996E+00  9.91676E-01  1.82867E-02
    9061.430     66.329   4.400  1.00728E+00  9.91992E-01  1.52915E-02
    9062.777     67.676   4.440  1.00647E+00  9.92345E-01  1.41261E-02
    9064.136     69.036   4.480  1.00763E+00  9.92735E-01  1.48935E-02
    9065.508     70.407   4.520  1.01044E+00  9.93159E-01  1.72809E-02
    9066.892     71.791   4.560  1.01434E+00  9.93592E-01  2.07447E-02
    9068.288     73.187   4.600  1.01878E+00  9.94032E-01  2.47480E-02
    9069.696     74.595   4.640  1.02332E+00  9.94501E-01  2.88224E-02
    9071.116     76.016   4.680  1.02750E+00  9.94999E-01  3.24992E-02
    9072.549     77.448   4.720  1.03073E+00  9.95480E-01  3.52479E-02
    9073.993     78.893   4.760  1.03249E+00  9.95985E-01  3.65092E-02
    9075.450     80.350   4.800  1.03234E+00  9.96490E-01  3.58520E-02
    9076.919     81.819   4.840  1.03010E+00  9.96996E-01  3.31030E-02
    9078.401     83.300   4.880  1.02583E+00  9.97499E-01  2.83264E-02
    9079.894     84.794   4.920  1.01979E+00  9.97977E-01  2.18142E-02
    9081.400     86.300   4.960  1.01257E+00  9.98471E-01  1.40963E-02
    9082.918     87.818   5.000  1.00488E+00  9.98937E-01  5.94447E-03
    9084.448     89.348   5.040  9.97639E-01  9.99396E-01 -1.75736E-03
    9085.990     90.890   5.080  9.91462E-01  9.99825E-01 -8.36291E-03
    9087.545     92.444   5.120  9.86444E-01  1.00024E+00 -1.38004E-02
    9089.111     94.011   5.160  9.82075E-01  1.00065E+00 -1.85772E-02
    9090.690     95.590   5.200  9.77758E-01  1.00100E+00 -2.32456E-02
    9092.281     97.181   5.240  9.73541E-01  1.00134E+00 -2.78002E-02
    9093.885     98.784   5.280  9.70010E-01  1.00167E+00 -3.16563E-02
    9095.500    100.400   5.320  9.67752E-01  1.00193E+00 -3.41795E-02
    9097.128    102.027   5.360  9.67018E-01  1.00218E+00 -3.51641E-02
    9098.767    103.667   5.400  9.67547E-01  1.00239E+00 -3.48468E-02
    9100.419    105.319   5.440  9.68952E-01  1.00257E+00 -3.36133E-02
    9102.084    106.983   5.480  9.70959E-01  1.00270E+00 -3.17384E-02
    9103.760    108.660   5.520  9.73513E-01  1.00279E+00 -2.92758E-02
    9105.449    110.348   5.560  9.76858E-01  1.00284E+00 -2.59801E-02
    9107.149    112.049   5.600  9.81447E-01  1.00285E+00 -2.14007E-02
    9108.862    113.762   5.640  9.87600E-01  1.00282E+00 -1.52161E-02
    9110.588    115.487   5.680  9.95130E-01  1.00274E+00 -7.61427E-03
    9112.325    117.225   5.720  1.00322E+00  1.00263E+00  5.86612E-04
    9114.074    118.974   5.760  1.01065E+00  1.00247E+00  8.17862E-03
    9115.836    120.736   5.800  1.01624E+00  1.00226E+00  1.39888E-02
    9117.610    122.510   5.840  1.01922E+00  1.00202E+00  1.71997E-02
    9119.396    124.296   5.880  1.01921E+00  1.00175E+00  1.74512E-02
    9121.195    126.094   5.920  1.01638E+00  1.00145E+00  1.49259E-02
    9123.005    127.905   5.960  1.01150E+00  1.00114E+00  1.03608E-02
    9124.828    129.727   6.000  1.00527E+00  1.00073E+00  4.53617E-03
