# # comment:                                                     FEFF 9.9.1  
# # Source:
# # Structure
# # Reduced
# # space
# # abc:
# # angles:
# # sites:
# # POT  SCF 100  7.0000   0, screened core-hole, AFOLP (folp(0)= 1.150)
# # Abs   Z=29 Rmt= 1.088 Rnm= 1.245 K  shell
# # Pot 1 Z=57 Rmt= 1.719 Rnm= 1.803
# # Pot 2 Z=29 Rmt= 1.176 Rnm= 1.283
# # Pot 3 Z= 8 Rmt= 1.014 Rnm= 1.110
# # Gam_ch=1.729E+00 H-L exch Vi= 0.000E+00 Vr= 0.000E+00
# # Mu=-8.554E+00eV kf=2.065E+00 Vint=-1.677E+01eV Rs_int= 1.756
# FMS rfms= 9.0000
# # PATH  Rmax=-1.000,  Keep_limit= 0.00, Heap_limit 0.00  Pwcrit= 2.50%
#  S02=0.950  Temp=   0.00  Debye_temp=   0.00  Global_sig2= 0.00000
#  Energy zero shift, vr, vi    0.00000E+00   0.00000E+00
#  Curved wave amplitude ratio filter   4.000%
#     file         sig2 tot  cw amp ratio   deg  nlegs   reff  inp sig2
#     0/   0 paths used
#  xsedge+ 50, used to normalize mu           2.4424E-04
#  -----------------------------------------------------------------------
#  omega    e    k    mu    mu0     chi     @#
    8984.827    -12.364  -1.000  4.14337E-02  5.68567E-02 -1.54230E-02
    8985.126    -12.065  -0.960  4.40521E-02  6.09877E-02 -1.69355E-02
    8985.412    -11.779  -0.920  4.69413E-02  6.55748E-02 -1.86335E-02
    8985.687    -11.505  -0.880  5.01403E-02  7.06849E-02 -2.05446E-02
    8985.949    -11.242  -0.840  5.36942E-02  7.63954E-02 -2.27012E-02
    8986.199    -10.993  -0.800  5.76552E-02  8.27961E-02 -2.51408E-02
    8986.436    -10.755  -0.760  6.20827E-02  8.99899E-02 -2.79072E-02
    8986.662    -10.529  -0.720  6.70431E-02  9.80930E-02 -3.10499E-02
    8986.875    -10.316  -0.680  7.26092E-02  1.07233E-01 -3.46240E-02
    8987.076    -10.115  -0.640  7.88572E-02  1.17545E-01 -3.86881E-02
    8987.265     -9.926  -0.600  8.58619E-02  1.29162E-01 -4.32998E-02
    8987.442     -9.749  -0.560  9.36875E-02  1.42195E-01 -4.85071E-02
    8987.607     -9.584  -0.520  1.02375E-01  1.56711E-01 -5.43359E-02
    8987.759     -9.432  -0.480  1.11924E-01  1.72695E-01 -6.07708E-02
    8987.899     -9.292  -0.440  1.22271E-01  1.90006E-01 -6.77353E-02
    8988.027     -9.164  -0.400  1.33270E-01  2.08345E-01 -7.50747E-02
    8988.143     -9.048  -0.360  1.44685E-01  2.27240E-01 -8.25550E-02
    8988.247     -8.944  -0.320  1.56195E-01  2.46081E-01 -8.98856E-02
    8988.338     -8.853  -0.280  1.67423E-01  2.64187E-01 -9.67641E-02
    8988.418     -8.774  -0.240  1.77975E-01  2.80903E-01 -1.02929E-01
    8988.485     -8.707  -0.200  1.87486E-01  2.95682E-01 -1.08195E-01
    8988.540     -8.652  -0.160  1.95651E-01  3.08118E-01 -1.12467E-01
    8988.582     -8.609  -0.120  2.02235E-01  3.17953E-01 -1.15718E-01
    8988.613     -8.579  -0.080  2.07077E-01  3.25040E-01 -1.17964E-01
    8988.637     -8.554   0.000  2.11093E-01  3.30737E-01 -1.19644E-01
    8988.692     -8.499   0.120  2.19789E-01  3.43590E-01 -1.23801E-01
    8988.735     -8.457   0.160  2.26639E-01  3.53580E-01 -1.26940E-01
    8988.789     -8.402   0.200  2.35532E-01  3.66361E-01 -1.30829E-01
    8988.856     -8.335   0.240  2.46413E-01  3.81730E-01 -1.35317E-01
    8988.936     -8.255   0.280  2.59179E-01  3.99412E-01 -1.40232E-01
    8989.027     -8.164   0.320  2.73549E-01  4.18975E-01 -1.45426E-01
    8989.131     -8.060   0.360  2.88979E-01  4.39859E-01 -1.50879E-01
    8989.247     -7.945   0.400  3.04649E-01  4.61489E-01 -1.56840E-01
    8989.375     -7.817   0.440  3.19441E-01  4.83318E-01 -1.63877E-01
    8989.515     -7.676   0.480  3.32157E-01  5.04938E-01 -1.72781E-01
    8989.667     -7.524   0.520  3.41849E-01  5.26091E-01 -1.84242E-01
    8989.832     -7.359   0.560  3.48263E-01  5.46614E-01 -1.98351E-01
    8990.009     -7.183   0.600  3.52270E-01  5.66495E-01 -2.14225E-01
    8990.198     -6.994   0.640  3.55538E-01  5.85769E-01 -2.30231E-01
    8990.399     -6.792   0.680  3.59928E-01  6.04529E-01 -2.44601E-01
    8990.612     -6.579   0.720  3.66758E-01  6.22839E-01 -2.56082E-01
    8990.838     -6.354   0.760  3.76238E-01  6.40783E-01 -2.64545E-01
    8991.075     -6.116   0.800  3.86978E-01  6.58454E-01 -2.71476E-01
    8991.325     -5.866   0.840  3.96633E-01  6.75871E-01 -2.79238E-01
    8991.587     -5.604   0.880  4.03760E-01  6.93120E-01 -2.89360E-01
    8991.862     -5.329   0.920  4.08618E-01  7.10191E-01 -3.01573E-01
    8992.148     -5.043   0.960  4.12688E-01  7.27123E-01 -3.14435E-01
    8992.447     -4.744   1.000  4.17503E-01  7.43903E-01 -3.26400E-01
    8992.758     -4.433   1.040  4.24291E-01  7.60509E-01 -3.36218E-01
    8993.081     -4.110   1.080  4.33482E-01  7.76931E-01 -3.43449E-01
    8993.416     -3.775   1.120  4.44959E-01  7.93152E-01 -3.48193E-01
    8993.764     -3.427   1.160  4.59784E-01  8.09152E-01 -3.49368E-01
    8994.123     -3.068   1.200  4.78719E-01  8.24885E-01 -3.46166E-01
    8994.495     -2.696   1.240  4.98028E-01  8.40302E-01 -3.42274E-01
    8994.879     -2.312   1.280  5.11621E-01  8.55393E-01 -3.43772E-01
    8995.276     -1.916   1.320  5.18113E-01  8.70084E-01 -3.51971E-01
    8995.684     -1.507   1.360  5.21232E-01  8.84385E-01 -3.63153E-01
    8996.105     -1.087   1.400  5.24900E-01  8.98223E-01 -3.73323E-01
    8996.537     -0.654   1.440  5.31356E-01  9.11605E-01 -3.80249E-01
    8996.982     -0.209   1.480  5.43897E-01  9.24456E-01 -3.80559E-01
    8997.440      0.248   1.520  5.65952E-01  9.36767E-01 -3.70815E-01
    8997.909      0.718   1.560  5.94824E-01  9.48509E-01 -3.53685E-01
    8998.391      1.199   1.600  6.24405E-01  9.59672E-01 -3.35267E-01
    8998.884      1.693   1.640  6.51451E-01  9.70209E-01 -3.18757E-01
    8999.390      2.199   1.680  6.79680E-01  9.80156E-01 -3.00476E-01
    8999.908      2.717   1.720  7.17005E-01  9.89470E-01 -2.72464E-01
    9000.439      3.248   1.760  7.67219E-01  9.98148E-01 -2.30930E-01
    9000.981      3.790   1.800  8.32341E-01  1.00619E+00 -1.73849E-01
    9001.536      4.345   1.840  9.15189E-01  1.01360E+00 -9.84104E-02
    9002.103      4.912   1.880  1.01161E+00  1.02038E+00 -8.77109E-03
    9002.682      5.491   1.920  1.10952E+00  1.02653E+00  8.29892E-02
    9003.273      6.082   1.960  1.20193E+00  1.03209E+00  1.69842E-01
    9003.877      6.686   2.000  1.28983E+00  1.03706E+00  2.52775E-01
    9004.493      7.301   2.040  1.36396E+00  1.04144E+00  3.22514E-01
    9005.121      7.929   2.080  1.41419E+00  1.04526E+00  3.68934E-01
    9005.761      8.569   2.120  1.44833E+00  1.04855E+00  3.99778E-01
    9006.413      9.222   2.160  1.46940E+00  1.05131E+00  4.18084E-01
    9007.077      9.886   2.200  1.46686E+00  1.05358E+00  4.13279E-01
    9007.754     10.563   2.240  1.42805E+00  1.05538E+00  3.72661E-01
    9008.443     11.252   2.280  1.35823E+00  1.05676E+00  3.01473E-01
    9009.144     11.953   2.320  1.27868E+00  1.05769E+00  2.20982E-01
    9009.857     12.666   2.360  1.21153E+00  1.05824E+00  1.53290E-01
    9010.583     13.391   2.400  1.17165E+00  1.05843E+00  1.13220E-01
    9011.320     14.129   2.440  1.16114E+00  1.05827E+00  1.02872E-01
    9012.070     14.879   2.480  1.16959E+00  1.05779E+00  1.11802E-01
    9012.832     15.641   2.520  1.17818E+00  1.05704E+00  1.21146E-01
    9013.606     16.415   2.560  1.18081E+00  1.05601E+00  1.24797E-01
    9014.393     17.201   2.600  1.17916E+00  1.05474E+00  1.24428E-01
    9015.191     18.000   2.640  1.17420E+00  1.05325E+00  1.20952E-01
    9016.002     18.811   2.680  1.16618E+00  1.05156E+00  1.14626E-01
    9016.825     19.634   2.720  1.15530E+00  1.04972E+00  1.05583E-01
    9017.660     20.469   2.760  1.14270E+00  1.04770E+00  9.49942E-02
    9018.507     21.316   2.800  1.12915E+00  1.04558E+00  8.35767E-02
    9019.367     22.176   2.840  1.11550E+00  1.04333E+00  7.21705E-02
    9020.239     23.047   2.880  1.10248E+00  1.04098E+00  6.15071E-02
    9021.122     23.931   2.920  1.09058E+00  1.03856E+00  5.20135E-02
    9022.019     24.827   2.960  1.07948E+00  1.03610E+00  4.33872E-02
    9022.927     25.736   3.000  1.06858E+00  1.03356E+00  3.50177E-02
    9023.847     26.656   3.040  1.05715E+00  1.03102E+00  2.61349E-02
    9024.780     27.589   3.080  1.04471E+00  1.02846E+00  1.62410E-02
    9025.725     28.534   3.120  1.03126E+00  1.02589E+00  5.37029E-03
    9026.682     29.491   3.160  1.01718E+00  1.02333E+00 -6.14625E-03
    9027.651     30.460   3.200  1.00274E+00  1.02081E+00 -1.80725E-02
    9028.633     31.442   3.240  9.88093E-01  1.01830E+00 -3.02097E-02
    9029.626     32.435   3.280  9.73419E-01  1.01583E+00 -4.24085E-02
    9030.632     33.441   3.320  9.58925E-01  1.01340E+00 -5.44730E-02
    9031.650     34.459   3.360  9.45082E-01  1.01103E+00 -6.59530E-02
    9032.680     35.489   3.400  9.32555E-01  1.00875E+00 -7.61924E-02
    9033.723     36.532   3.440  9.21722E-01  1.00652E+00 -8.47968E-02
    9034.777     37.586   3.480  9.12813E-01  1.00437E+00 -9.15566E-02
    9035.844     38.653   3.520  9.05879E-01  1.00229E+00 -9.64135E-02
    9036.923     39.732   3.560  9.00795E-01  1.00032E+00 -9.95275E-02
    9038.014     40.823   3.600  8.97192E-01  9.98421E-01 -1.01229E-01
    9039.118     41.927   3.640  8.94915E-01  9.96632E-01 -1.01717E-01
    9040.233     43.042   3.680  8.93899E-01  9.94947E-01 -1.01048E-01
    9041.361     44.170   3.720  8.93949E-01  9.93348E-01 -9.93989E-02
    9042.501     45.310   3.760  8.94844E-01  9.91847E-01 -9.70026E-02
    9043.653     46.462   3.800  8.96391E-01  9.90458E-01 -9.40664E-02
    9044.818     47.626   3.840  8.98481E-01  9.89186E-01 -9.07054E-02
    9045.994     48.803   3.880  9.01115E-01  9.88029E-01 -8.69137E-02
    9047.183     49.992   3.920  9.04640E-01  9.86965E-01 -8.23255E-02
    9048.384     51.192   3.960  9.09659E-01  9.86016E-01 -7.63573E-02
    9049.597     52.406   4.000  9.16634E-01  9.85160E-01 -6.85257E-02
    9050.822     53.631   4.040  9.25703E-01  9.84420E-01 -5.87168E-02
    9052.060     54.868   4.080  9.36456E-01  9.83796E-01 -4.73402E-02
    9053.309     56.118   4.120  9.47909E-01  9.83288E-01 -3.53789E-02
    9054.571     57.380   4.160  9.58853E-01  9.82874E-01 -2.40201E-02
    9055.845     58.654   4.200  9.68466E-01  9.82570E-01 -1.41040E-02
    9057.131     59.940   4.240  9.76463E-01  9.82357E-01 -5.89395E-03
    9058.430     61.239   4.280  9.83037E-01  9.82234E-01  8.02910E-04
    9059.740     62.549   4.320  9.88651E-01  9.82243E-01  6.40742E-03
    9061.063     63.872   4.360  9.93648E-01  9.82319E-01  1.13296E-02
    9062.398     65.207   4.400  9.98388E-01  9.82500E-01  1.58887E-02
    9063.746     66.554   4.440  1.00308E+00  9.82744E-01  2.03332E-02
    9065.105     67.914   4.480  1.00788E+00  9.83093E-01  2.47844E-02
    9066.477     69.285   4.520  1.01267E+00  9.83524E-01  2.91433E-02
    9067.860     70.669   4.560  1.01720E+00  9.84035E-01  3.31673E-02
    9069.256     72.065   4.600  1.02125E+00  9.84623E-01  3.66223E-02
    9070.664     73.473   4.640  1.02468E+00  9.85264E-01  3.94147E-02
    9072.085     74.894   4.680  1.02767E+00  9.85978E-01  4.16973E-02
    9073.517     76.326   4.720  1.03056E+00  9.86741E-01  4.38152E-02
    9074.962     77.771   4.760  1.03369E+00  9.87574E-01  4.61204E-02
    9076.419     79.228   4.800  1.03728E+00  9.88451E-01  4.88327E-02
    9077.888     80.697   4.840  1.04131E+00  9.89370E-01  5.19443E-02
    9079.370     82.178   4.880  1.04538E+00  9.90330E-01  5.50516E-02
    9080.863     83.672   4.920  1.04874E+00  9.91329E-01  5.74096E-02
    9082.369     85.178   4.960  1.05061E+00  9.92363E-01  5.82500E-02
    9083.887     86.695   5.000  1.05058E+00  9.93408E-01  5.71700E-02
    9085.417     88.226   5.040  1.04883E+00  9.94484E-01  5.43442E-02
    9086.959     89.768   5.080  1.04587E+00  9.95566E-01  5.03067E-02
    9088.513     91.322   5.120  1.04234E+00  9.96674E-01  4.56695E-02
    9090.080     92.889   5.160  1.03871E+00  9.97763E-01  4.09513E-02
    9091.659     94.468   5.200  1.03533E+00  9.98871E-01  3.64568E-02
    9093.250     96.059   5.240  1.03227E+00  9.99953E-01  3.23153E-02
    9094.853     97.662   5.280  1.02955E+00  1.00103E+00  2.85188E-02
    9096.469     99.278   5.320  1.02715E+00  1.00210E+00  2.50504E-02
    9098.096    100.905   5.360  1.02512E+00  1.00313E+00  2.19847E-02
    9099.736    102.545   5.400  1.02366E+00  1.00413E+00  1.95265E-02
    9101.388    104.197   5.440  1.02302E+00  1.00512E+00  1.79048E-02
    9103.052    105.861   5.480  1.02317E+00  1.00604E+00  1.71358E-02
    9104.729    107.538   5.520  1.02372E+00  1.00694E+00  1.67785E-02
    9106.417    109.226   5.560  1.02375E+00  1.00780E+00  1.59409E-02
    9108.118    110.927   5.600  1.02222E+00  1.00860E+00  1.36234E-02
    9109.831    112.640   5.640  1.01852E+00  1.00934E+00  9.17273E-03
    9111.556    114.365   5.680  1.01254E+00  1.01004E+00  2.49343E-03
    9113.294    116.102   5.720  1.00468E+00  1.01067E+00 -5.99436E-03
    9115.043    117.852   5.760  9.95780E-01  1.01125E+00 -1.54671E-02
    9116.805    119.614   5.800  9.86924E-01  1.01175E+00 -2.48251E-02
    9118.579    121.388   5.840  9.79249E-01  1.01220E+00 -3.29498E-02
    9120.365    123.174   5.880  9.73549E-01  1.01257E+00 -3.90205E-02
    9122.163    124.972   5.920  9.70144E-01  1.01286E+00 -4.27116E-02
    9123.974    126.783   5.960  9.68949E-01  1.01304E+00 -4.40949E-02
    9125.796    128.605   6.000  9.69821E-01  1.01313E+00 -4.33097E-02
