# # comment:                                                     FEFF 9.9.1  
# # Source:
# # Structure
# # Reduced
# # space
# # abc:
# # angles:
# # sites:
# # POT  SCF 100  7.0000   0, screened core-hole, AFOLP (folp(0)= 1.150)
# # Abs   Z=29 Rmt= 1.343 Rnm= 1.405 K  shell
# # Pot 1 Z= 3 Rmt= 1.262 Rnm= 1.320
# # Pot 2 Z=29 Rmt= 1.345 Rnm= 1.403
# # Pot 3 Z=15 Rmt= 0.948 Rnm= 1.156
# # Pot 4 Z= 8 Rmt= 0.937 Rnm= 1.034
# # Gam_ch=1.729E+00 H-L exch Vi= 0.000E+00 Vr= 0.000E+00
# # Mu=-6.057E+00eV kf=2.386E+00 Vint=-1.725E+01eV Rs_int= 1.520
# FMS rfms= 9.0000
# # PATH  Rmax=-1.000,  Keep_limit= 0.00, Heap_limit 0.00  Pwcrit= 2.50%
#  S02=0.950  Temp=   0.00  Debye_temp=   0.00  Global_sig2= 0.00000
#  Energy zero shift, vr, vi    0.00000E+00   0.00000E+00
#  Curved wave amplitude ratio filter   4.000%
#     file         sig2 tot  cw amp ratio   deg  nlegs   reff  inp sig2
#     0/   0 paths used
#  xsedge+ 50, used to normalize mu           2.4677E-04
#  -----------------------------------------------------------------------
#  omega    e    k    mu    mu0     chi     @#
    8983.627     -9.867  -1.000  5.15608E-02  5.52822E-02 -3.72140E-03
    8983.926     -9.568  -0.960  5.50573E-02  5.93486E-02 -4.29130E-03
    8984.212     -9.281  -0.920  5.89229E-02  6.38732E-02 -4.95029E-03
    8984.487     -9.007  -0.880  6.32119E-02  6.89244E-02 -5.71251E-03
    8984.749     -8.745  -0.840  6.79872E-02  7.45816E-02 -6.59432E-03
    8984.999     -8.495  -0.800  7.33224E-02  8.09370E-02 -7.61460E-03
    8985.236     -8.257  -0.760  7.93016E-02  8.80965E-02 -8.79490E-03
    8985.462     -8.032  -0.720  8.60207E-02  9.61801E-02 -1.01595E-02
    8985.675     -7.818  -0.680  9.35849E-02  1.05320E-01 -1.17350E-02
    8985.876     -7.617  -0.640  1.02106E-01  1.15656E-01 -1.35495E-02
    8986.065     -7.428  -0.600  1.11694E-01  1.27325E-01 -1.56305E-02
    8986.242     -7.252  -0.560  1.22443E-01  1.40445E-01 -1.80016E-02
    8986.407     -7.087  -0.520  1.34409E-01  1.55086E-01 -2.06767E-02
    8986.559     -6.935  -0.480  1.47581E-01  1.71234E-01 -2.36529E-02
    8986.699     -6.794  -0.440  1.61846E-01  1.88747E-01 -2.69015E-02
    8986.827     -6.666  -0.400  1.76957E-01  2.07318E-01 -3.03610E-02
    8986.943     -6.550  -0.360  1.92528E-01  2.26463E-01 -3.39352E-02
    8987.047     -6.447  -0.320  2.08055E-01  2.45555E-01 -3.74998E-02
    8987.138     -6.355  -0.280  2.22977E-01  2.63896E-01 -4.09187E-02
    8987.218     -6.276  -0.240  2.36755E-01  2.80819E-01 -4.40633E-02
    8987.285     -6.209  -0.200  2.48936E-01  2.95765E-01 -4.68289E-02
    8987.339     -6.154  -0.160  2.59187E-01  3.08329E-01 -4.91423E-02
    8987.382     -6.112  -0.120  2.67294E-01  3.18255E-01 -5.09606E-02
    8987.413     -6.081  -0.080  2.73135E-01  3.25401E-01 -5.22658E-02
    8987.437     -6.057   0.000  2.77815E-01  3.31139E-01 -5.33240E-02
    8987.492     -6.002   0.120  2.88262E-01  3.44070E-01 -5.58080E-02
    8987.535     -5.959   0.160  2.96448E-01  3.54114E-01 -5.76654E-02
    8987.589     -5.904   0.200  3.06922E-01  3.66920E-01 -5.99974E-02
    8987.656     -5.837   0.240  3.19578E-01  3.82299E-01 -6.27205E-02
    8987.736     -5.758   0.280  3.34188E-01  3.99904E-01 -6.57154E-02
    8987.827     -5.667   0.320  3.50476E-01  4.19281E-01 -6.88051E-02
    8987.931     -5.563   0.360  3.68053E-01  4.39823E-01 -7.17699E-02
    8988.047     -5.447   0.400  3.86550E-01  4.60928E-01 -7.43787E-02
    8988.175     -5.319   0.440  4.05520E-01  4.81990E-01 -7.64702E-02
    8988.315     -5.179   0.480  4.24427E-01  5.02593E-01 -7.81652E-02
    8988.467     -5.026   0.520  4.42352E-01  5.22418E-01 -8.00658E-02
    8988.632     -4.862   0.560  4.57974E-01  5.41381E-01 -8.34076E-02
    8988.809     -4.685   0.600  4.69675E-01  5.59432E-01 -8.97570E-02
    8988.998     -4.496   0.640  4.76385E-01  5.76636E-01 -1.00250E-01
    8989.199     -4.295   0.680  4.78353E-01  5.93079E-01 -1.14726E-01
    8989.412     -4.082   0.720  4.77159E-01  6.08862E-01 -1.31703E-01
    8989.638     -3.856   0.760  4.74864E-01  6.24149E-01 -1.49285E-01
    8989.875     -3.618   0.800  4.73079E-01  6.38970E-01 -1.65890E-01
    8990.125     -3.368   0.840  4.73700E-01  6.53463E-01 -1.79762E-01
    8990.387     -3.106   0.880  4.79410E-01  6.67650E-01 -1.88240E-01
    8990.662     -2.832   0.920  4.92921E-01  6.81643E-01 -1.88722E-01
    8990.948     -2.545   0.960  5.14644E-01  6.95437E-01 -1.80793E-01
    8991.247     -2.247   1.000  5.42271E-01  7.09077E-01 -1.66805E-01
    8991.558     -1.936   1.040  5.72607E-01  7.22576E-01 -1.49969E-01
    8991.881     -1.613   1.080  6.03751E-01  7.35941E-01 -1.32190E-01
    8992.216     -1.277   1.120  6.34386E-01  7.49193E-01 -1.14806E-01
    8992.564     -0.930   1.160  6.63089E-01  7.62325E-01 -9.92350E-02
    8992.923     -0.570   1.200  6.92533E-01  7.75302E-01 -8.27687E-02
    8993.295     -0.198   1.240  7.30446E-01  7.88133E-01 -5.76872E-02
    8993.679      0.186   1.280  7.82574E-01  8.00797E-01 -1.82230E-02
    8994.076      0.582   1.320  8.48600E-01  8.13273E-01  3.53266E-02
    8994.484      0.990   1.360  9.25167E-01  8.25559E-01  9.96082E-02
    8994.905      1.411   1.400  1.00902E+00  8.37608E-01  1.71413E-01
    8995.337      1.844   1.440  1.09243E+00  8.49414E-01  2.43015E-01
    8995.782      2.289   1.480  1.16158E+00  8.60950E-01  3.00626E-01
    8996.240      2.746   1.520  1.20838E+00  8.72168E-01  3.36208E-01
    8996.709      3.215   1.560  1.23984E+00  8.83101E-01  3.56738E-01
    8997.191      3.697   1.600  1.26909E+00  8.93682E-01  3.75408E-01
    8997.684      4.191   1.640  1.30065E+00  9.03902E-01  3.96743E-01
    8998.190      4.697   1.680  1.32792E+00  9.13756E-01  4.14163E-01
    8998.708      5.215   1.720  1.33736E+00  9.23236E-01  4.14122E-01
    8999.239      5.745   1.760  1.31508E+00  9.32297E-01  3.82779E-01
    8999.781      6.288   1.800  1.26338E+00  9.40933E-01  3.22444E-01
    9000.336      6.842   1.840  1.19898E+00  9.49140E-01  2.49838E-01
    9000.903      7.409   1.880  1.13738E+00  9.56916E-01  1.80467E-01
    9001.482      7.988   1.920  1.08905E+00  9.64257E-01  1.24797E-01
    9002.073      8.580   1.960  1.05923E+00  9.71143E-01  8.80912E-02
    9002.677      9.183   2.000  1.04545E+00  9.77575E-01  6.78730E-02
    9003.293      9.799   2.040  1.04049E+00  9.83571E-01  5.69189E-02
    9003.921     10.427   2.080  1.03745E+00  9.89115E-01  4.83304E-02
    9004.561     11.067   2.120  1.03291E+00  9.94208E-01  3.86976E-02
    9005.213     11.719   2.160  1.02442E+00  9.98874E-01  2.55437E-02
    9005.877     12.384   2.200  1.01019E+00  1.00310E+00  7.09568E-03
    9006.554     13.060   2.240  9.95296E-01  1.00693E+00 -1.16291E-02
    9007.243     13.749   2.280  9.87985E-01  1.01032E+00 -2.23355E-02
    9007.944     14.450   2.320  9.88974E-01  1.01333E+00 -2.43588E-02
    9008.657     15.163   2.360  9.91163E-01  1.01597E+00 -2.48043E-02
    9009.383     15.889   2.400  9.89521E-01  1.01823E+00 -2.87101E-02
    9010.120     16.626   2.440  9.84929E-01  1.02014E+00 -3.52068E-02
    9010.870     17.376   2.480  9.78728E-01  1.02173E+00 -4.29982E-02
    9011.632     18.138   2.520  9.70196E-01  1.02297E+00 -5.27744E-02
    9012.406     18.912   2.560  9.59725E-01  1.02392E+00 -6.41960E-02
    9013.193     19.699   2.600  9.51922E-01  1.02461E+00 -7.26832E-02
    9013.991     20.497   2.640  9.52010E-01  1.02501E+00 -7.30034E-02
    9014.802     21.308   2.680  9.59414E-01  1.02517E+00 -6.57601E-02
    9015.625     22.131   2.720  9.66919E-01  1.02510E+00 -5.81759E-02
    9016.460     22.966   2.760  9.66310E-01  1.02483E+00 -5.85176E-02
    9017.307     23.814   2.800  9.57884E-01  1.02434E+00 -6.64550E-02
    9018.167     24.673   2.840  9.50548E-01  1.02370E+00 -7.31532E-02
    9019.039     25.545   2.880  9.45922E-01  1.02288E+00 -7.69597E-02
    9019.922     26.429   2.920  9.42958E-01  1.02195E+00 -7.89921E-02
    9020.819     27.325   2.960  9.40515E-01  1.02087E+00 -8.03587E-02
    9021.727     28.233   3.000  9.38693E-01  1.01970E+00 -8.10068E-02
    9022.647     29.154   3.040  9.37729E-01  1.01842E+00 -8.06884E-02
    9023.580     30.086   3.080  9.37710E-01  1.01707E+00 -7.93640E-02
    9024.525     31.031   3.120  9.38724E-01  1.01566E+00 -7.69331E-02
    9025.482     31.988   3.160  9.40822E-01  1.01419E+00 -7.33711E-02
    9026.451     32.958   3.200  9.43754E-01  1.01269E+00 -6.89338E-02
    9027.433     33.939   3.240  9.47369E-01  1.01115E+00 -6.37804E-02
    9028.426     34.933   3.280  9.51578E-01  1.00962E+00 -5.80442E-02
    9029.432     35.938   3.320  9.56369E-01  1.00807E+00 -5.17042E-02
    9030.450     36.957   3.360  9.62032E-01  1.00653E+00 -4.44940E-02
    9031.480     37.987   3.400  9.68865E-01  1.00501E+00 -3.61416E-02
    9032.523     39.029   3.440  9.77023E-01  1.00352E+00 -2.64956E-02
    9033.577     40.084   3.480  9.86558E-01  1.00205E+00 -1.54874E-02
    9034.644     41.151   3.520  9.97521E-01  1.00063E+00 -3.11420E-03
    9035.723     42.230   3.560  1.00972E+00  9.99246E-01  1.04704E-02
    9036.814     43.321   3.600  1.02286E+00  9.97944E-01  2.49171E-02
    9037.918     44.424   3.640  1.03637E+00  9.96669E-01  3.97002E-02
    9039.033     45.540   3.680  1.04961E+00  9.95467E-01  5.41420E-02
    9040.161     46.667   3.720  1.06176E+00  9.94340E-01  6.74239E-02
    9041.301     47.807   3.760  1.07213E+00  9.93291E-01  7.88407E-02
    9042.453     48.959   3.800  1.08015E+00  9.92321E-01  8.78254E-02
    9043.618     50.124   3.840  1.08532E+00  9.91430E-01  9.38859E-02
    9044.794     51.300   3.880  1.08735E+00  9.90619E-01  9.67354E-02
    9045.983     52.489   3.920  1.08619E+00  9.89890E-01  9.62977E-02
    9047.184     53.690   3.960  1.08191E+00  9.89240E-01  9.26742E-02
    9048.397     54.903   4.000  1.07484E+00  9.88673E-01  8.61658E-02
    9049.622     56.128   4.040  1.06558E+00  9.88186E-01  7.73929E-02
    9050.860     57.366   4.080  1.05481E+00  9.87783E-01  6.70232E-02
    9052.109     58.615   4.120  1.04315E+00  9.87482E-01  5.56645E-02
    9053.371     59.877   4.160  1.03103E+00  9.87244E-01  4.37827E-02
    9054.645     61.151   4.200  1.01888E+00  9.87108E-01  3.17754E-02
    9055.931     62.438   4.240  1.00704E+00  9.87051E-01  1.99876E-02
    9057.230     63.736   4.280  9.95792E-01  9.87050E-01  8.74149E-03
    9058.540     65.047   4.320  9.85357E-01  9.87128E-01 -1.77124E-03
    9059.863     66.370   4.360  9.75777E-01  9.87304E-01 -1.15278E-02
    9061.198     67.705   4.400  9.66984E-01  9.87533E-01 -2.05491E-02
    9062.546     69.052   4.440  9.59032E-01  9.87814E-01 -2.87818E-02
    9063.905     70.411   4.480  9.52088E-01  9.88166E-01 -3.60780E-02
    9065.277     71.783   4.520  9.46415E-01  9.88589E-01 -4.21742E-02
    9066.660     73.167   4.560  9.42322E-01  9.89056E-01 -4.67341E-02
    9068.056     74.563   4.600  9.40138E-01  9.89568E-01 -4.94294E-02
    9069.464     75.971   4.640  9.40102E-01  9.90120E-01 -5.00179E-02
    9070.885     77.391   4.680  9.42318E-01  9.90711E-01 -4.83933E-02
    9072.317     78.824   4.720  9.46591E-01  9.91340E-01 -4.47491E-02
    9073.762     80.268   4.760  9.52556E-01  9.92005E-01 -3.94495E-02
    9075.219     81.725   4.800  9.59741E-01  9.92681E-01 -3.29401E-02
    9076.688     83.194   4.840  9.67688E-01  9.93385E-01 -2.56975E-02
    9078.169     84.676   4.880  9.75914E-01  9.94096E-01 -1.81813E-02
    9079.663     86.169   4.920  9.84013E-01  9.94832E-01 -1.08186E-02
    9081.169     87.675   4.960  9.91566E-01  9.95546E-01 -3.98023E-03
    9082.687     89.193   5.000  9.98340E-01  9.96259E-01  2.08067E-03
    9084.217     90.723   5.040  1.00413E+00  9.96989E-01  7.14184E-03
    9085.759     92.265   5.080  1.00859E+00  9.97670E-01  1.09171E-02
    9087.313     93.820   5.120  1.01139E+00  9.98363E-01  1.30246E-02
    9088.880     95.386   5.160  1.01210E+00  9.99024E-01  1.30744E-02
    9090.459     96.965   5.200  1.01047E+00  9.99649E-01  1.08239E-02
    9092.050     98.556   5.240  1.00660E+00  1.00024E+00  6.36787E-03
    9093.653    100.160   5.280  1.00092E+00  1.00081E+00  1.16452E-04
    9095.269    101.775   5.320  9.94027E-01  1.00131E+00 -7.28494E-03
    9096.896    103.403   5.360  9.86710E-01  1.00178E+00 -1.50670E-02
    9098.536    105.042   5.400  9.79796E-01  1.00222E+00 -2.24219E-02
    9100.188    106.694   5.440  9.73946E-01  1.00257E+00 -2.86242E-02
    9101.852    108.359   5.480  9.69824E-01  1.00290E+00 -3.30748E-02
    9103.529    110.035   5.520  9.67836E-01  1.00316E+00 -3.53212E-02
    9105.217    111.724   5.560  9.68266E-01  1.00337E+00 -3.50998E-02
    9106.918    113.424   5.600  9.71132E-01  1.00350E+00 -3.23718E-02
    9108.631    115.137   5.640  9.76272E-01  1.00359E+00 -2.73185E-02
    9110.356    116.863   5.680  9.83322E-01  1.00360E+00 -2.02826E-02
    9112.094    118.600   5.720  9.91824E-01  1.00354E+00 -1.17207E-02
    9113.843    120.349   5.760  1.00125E+00  1.00344E+00 -2.19062E-03
    9115.605    122.111   5.800  1.01095E+00  1.00328E+00  7.66470E-03
    9117.379    123.885   5.840  1.02021E+00  1.00305E+00  1.71521E-02
    9119.165    125.671   5.880  1.02834E+00  1.00276E+00  2.55878E-02
    9120.963    127.470   5.920  1.03486E+00  1.00241E+00  3.24491E-02
    9122.774    129.280   5.960  1.03948E+00  1.00199E+00  3.74875E-02
    9124.596    131.103   6.000  1.04224E+00  1.00149E+00  4.07554E-02
