# # comment:                                                     FEFF 9.9.1  
# # Source:
# # Structure
# # Reduced
# # space
# # abc:
# # angles:
# # sites:
# # POT  SCF 100  7.0000   0, screened core-hole, AFOLP (folp(0)= 1.150)
# # Abs   Z=29 Rmt= 1.245 Rnm= 1.323 K  shell
# # Pot 1 Z=12 Rmt= 1.329 Rnm= 1.436
# # Pot 2 Z=23 Rmt= 1.092 Rnm= 1.304
# # Pot 3 Z=29 Rmt= 1.243 Rnm= 1.323
# # Pot 4 Z= 8 Rmt= 0.928 Rnm= 1.092
# # Gam_ch=1.729E+00 H-L exch Vi= 0.000E+00 Vr= 0.000E+00
# # Mu=-8.968E+00eV kf=2.259E+00 Vint=-1.742E+01eV Rs_int= 1.605
# FMS rfms= 9.0000
# # PATH  Rmax=-1.000,  Keep_limit= 0.00, Heap_limit 0.00  Pwcrit= 2.50%
#  S02=0.950  Temp=   0.00  Debye_temp=   0.00  Global_sig2= 0.00000
#  Energy zero shift, vr, vi    0.00000E+00   0.00000E+00
#  Curved wave amplitude ratio filter   4.000%
#     file         sig2 tot  cw amp ratio   deg  nlegs   reff  inp sig2
#     0/   0 paths used
#  xsedge+ 50, used to normalize mu           2.4745E-04
#  -----------------------------------------------------------------------
#  omega    e    k    mu    mu0     chi     @#
    8984.193    -12.778  -1.000  3.66387E-02  5.09432E-02 -1.43045E-02
    8984.492    -12.480  -0.960  3.86406E-02  5.45614E-02 -1.59209E-02
    8984.778    -12.193  -0.920  4.08208E-02  5.85755E-02 -1.77547E-02
    8985.053    -11.919  -0.880  4.32039E-02  6.30430E-02 -1.98391E-02
    8985.315    -11.657  -0.840  4.58189E-02  6.80313E-02 -2.22124E-02
    8985.565    -11.407  -0.800  4.86991E-02  7.36180E-02 -2.49189E-02
    8985.802    -11.169  -0.760  5.18833E-02  7.98923E-02 -2.80090E-02
    8986.028    -10.943  -0.720  5.54150E-02  8.69549E-02 -3.15398E-02
    8986.241    -10.730  -0.680  5.93428E-02  9.49165E-02 -3.55737E-02
    8986.442    -10.529  -0.640  6.37176E-02  1.03894E-01 -4.01764E-02
    8986.631    -10.340  -0.600  6.85895E-02  1.14002E-01 -4.54124E-02
    8986.808    -10.163  -0.560  7.40012E-02  1.25338E-01 -5.13366E-02
    8986.973     -9.999  -0.520  7.99773E-02  1.37959E-01 -5.79820E-02
    8987.125     -9.846  -0.480  8.65101E-02  1.51852E-01 -6.53422E-02
    8987.265     -9.706  -0.440  9.35436E-02  1.66895E-01 -7.33518E-02
    8987.393     -9.578  -0.400  1.00959E-01  1.82828E-01 -8.18694E-02
    8987.509     -9.462  -0.360  1.08569E-01  1.99242E-01 -9.06725E-02
    8987.613     -9.358  -0.320  1.16133E-01  2.15605E-01 -9.94720E-02
    8987.704     -9.267  -0.280  1.23382E-01  2.31328E-01 -1.07946E-01
    8987.784     -9.188  -0.240  1.30058E-01  2.45844E-01 -1.15786E-01
    8987.851     -9.121  -0.200  1.35947E-01  2.58675E-01 -1.22728E-01
    8987.905     -9.066  -0.160  1.40894E-01  2.69472E-01 -1.28578E-01
    8987.948     -9.023  -0.120  1.44805E-01  2.78010E-01 -1.33205E-01
    8987.979     -8.993  -0.080  1.47628E-01  2.84162E-01 -1.36534E-01
    8988.003     -8.968   0.000  1.49915E-01  2.89107E-01 -1.39192E-01
    8988.058     -8.913   0.120  1.54866E-01  3.00269E-01 -1.45403E-01
    8988.101     -8.871   0.160  1.58685E-01  3.08928E-01 -1.50243E-01
    8988.155     -8.816   0.200  1.63549E-01  3.20004E-01 -1.56455E-01
    8988.222     -8.749   0.240  1.69380E-01  3.33354E-01 -1.63974E-01
    8988.302     -8.670   0.280  1.76051E-01  3.48702E-01 -1.72651E-01
    8988.393     -8.578   0.320  1.83377E-01  3.65669E-01 -1.82292E-01
    8988.497     -8.475   0.360  1.91231E-01  3.83786E-01 -1.92554E-01
    8988.613     -8.359   0.400  1.99502E-01  4.02553E-01 -2.03051E-01
    8988.741     -8.231   0.440  2.08159E-01  4.21494E-01 -2.13335E-01
    8988.881     -8.090   0.480  2.17305E-01  4.40254E-01 -2.22949E-01
    8989.033     -7.938   0.520  2.26977E-01  4.58589E-01 -2.31612E-01
    8989.198     -7.773   0.560  2.37073E-01  4.76416E-01 -2.39343E-01
    8989.375     -7.597   0.600  2.47104E-01  4.93686E-01 -2.46582E-01
    8989.564     -7.408   0.640  2.56336E-01  5.10450E-01 -2.54113E-01
    8989.765     -7.207   0.680  2.64103E-01  5.26791E-01 -2.62688E-01
    8989.978     -6.993   0.720  2.70098E-01  5.42764E-01 -2.72666E-01
    8990.204     -6.768   0.760  2.74399E-01  5.58464E-01 -2.84065E-01
    8990.441     -6.530   0.800  2.77141E-01  5.73975E-01 -2.96834E-01
    8990.691     -6.280   0.840  2.78629E-01  5.89330E-01 -3.10701E-01
    8990.953     -6.018   0.880  2.79816E-01  6.04590E-01 -3.24773E-01
    8991.228     -5.744   0.920  2.81825E-01  6.19763E-01 -3.37938E-01
    8991.514     -5.457   0.960  2.85447E-01  6.34868E-01 -3.49422E-01
    8991.813     -5.158   1.000  2.91387E-01  6.49953E-01 -3.58567E-01
    8992.124     -4.847   1.040  3.00826E-01  6.64977E-01 -3.64151E-01
    8992.447     -4.524   1.080  3.15202E-01  6.79933E-01 -3.64730E-01
    8992.782     -4.189   1.120  3.34737E-01  6.94828E-01 -3.60090E-01
    8993.130     -3.842   1.160  3.58495E-01  7.09643E-01 -3.51149E-01
    8993.489     -3.482   1.200  3.86199E-01  7.24339E-01 -3.38140E-01
    8993.861     -3.110   1.240  4.18928E-01  7.38889E-01 -3.19961E-01
    8994.245     -2.726   1.280  4.57335E-01  7.53266E-01 -2.95931E-01
    8994.642     -2.330   1.320  5.00818E-01  7.67442E-01 -2.66624E-01
    8995.050     -1.921   1.360  5.49533E-01  7.81388E-01 -2.31855E-01
    8995.471     -1.501   1.400  6.03797E-01  7.95070E-01 -1.91272E-01
    8995.903     -1.068   1.440  6.60319E-01  8.08477E-01 -1.48158E-01
    8996.348     -0.623   1.480  7.15721E-01  8.21560E-01 -1.05840E-01
    8996.806     -0.166   1.520  7.75061E-01  8.34287E-01 -5.92256E-02
    8997.275      0.304   1.560  8.47962E-01  8.46646E-01  1.31531E-03
    8997.757      0.785   1.600  9.36177E-01  8.58589E-01  7.75882E-02
    8998.250      1.279   1.640  1.02507E+00  8.70145E-01  1.54928E-01
    8998.756      1.785   1.680  1.09277E+00  8.81246E-01  2.11521E-01
    8999.274      2.303   1.720  1.13860E+00  8.91887E-01  2.46711E-01
    8999.805      2.834   1.760  1.17205E+00  9.02059E-01  2.69992E-01
    9000.347      3.376   1.800  1.19327E+00  9.11760E-01  2.81509E-01
    9000.902      3.931   1.840  1.20194E+00  9.20966E-01  2.80974E-01
    9001.469      4.498   1.880  1.20312E+00  9.29675E-01  2.73449E-01
    9002.048      5.077   1.920  1.20749E+00  9.37906E-01  2.69587E-01
    9002.639      5.668   1.960  1.22648E+00  9.45620E-01  2.80862E-01
    9003.243      6.272   2.000  1.25817E+00  9.52839E-01  3.05330E-01
    9003.859      6.887   2.040  1.28915E+00  9.59584E-01  3.29562E-01
    9004.487      7.515   2.080  1.31225E+00  9.65839E-01  3.46409E-01
    9005.127      8.155   2.120  1.32163E+00  9.71611E-01  3.50017E-01
    9005.779      8.808   2.160  1.31245E+00  9.76922E-01  3.35523E-01
    9006.443      9.472   2.200  1.28937E+00  9.81781E-01  3.07592E-01
    9007.120     10.149   2.240  1.26240E+00  9.86194E-01  2.76202E-01
    9007.809     10.838   2.280  1.23865E+00  9.90188E-01  2.48461E-01
    9008.510     11.539   2.320  1.21638E+00  9.93753E-01  2.22623E-01
    9009.223     12.252   2.360  1.19014E+00  9.96958E-01  1.93181E-01
    9009.949     12.977   2.400  1.15709E+00  9.99771E-01  1.57318E-01
    9010.686     13.715   2.440  1.11758E+00  1.00222E+00  1.15359E-01
    9011.436     14.465   2.480  1.07443E+00  1.00436E+00  7.00731E-02
    9012.198     15.227   2.520  1.03094E+00  1.00615E+00  2.47929E-02
    9012.972     16.001   2.560  9.89489E-01  1.00765E+00 -1.81594E-02
    9013.759     16.787   2.600  9.53367E-01  1.00886E+00 -5.54955E-02
    9014.557     17.586   2.640  9.25710E-01  1.00982E+00 -8.41113E-02
    9015.368     18.397   2.680  9.12508E-01  1.01054E+00 -9.80279E-02
    9016.191     19.219   2.720  9.05635E-01  1.01101E+00 -1.05379E-01
    9017.026     20.055   2.760  9.01559E-01  1.01131E+00 -1.09749E-01
    9017.873     20.902   2.800  8.99899E-01  1.01138E+00 -1.11483E-01
    9018.733     21.762   2.840  9.00403E-01  1.01131E+00 -1.10904E-01
    9019.605     22.633   2.880  9.02257E-01  1.01105E+00 -1.08793E-01
    9020.488     23.517   2.920  9.04900E-01  1.01068E+00 -1.05781E-01
    9021.385     24.413   2.960  9.08022E-01  1.01017E+00 -1.02146E-01
    9022.293     25.322   3.000  9.11448E-01  1.00954E+00 -9.80877E-02
    9023.213     26.242   3.040  9.15154E-01  1.00881E+00 -9.36594E-02
    9024.146     27.175   3.080  9.19285E-01  1.00803E+00 -8.87436E-02
    9025.091     28.120   3.120  9.23474E-01  1.00715E+00 -8.36721E-02
    9026.048     29.077   3.160  9.27400E-01  1.00621E+00 -7.88125E-02
    9027.017     30.046   3.200  9.30710E-01  1.00523E+00 -7.45230E-02
    9027.999     31.027   3.240  9.33125E-01  1.00421E+00 -7.10881E-02
    9028.992     32.021   3.280  9.34514E-01  1.00316E+00 -6.86444E-02
    9029.998     33.027   3.320  9.34963E-01  1.00209E+00 -6.71306E-02
    9031.016     34.045   3.360  9.34808E-01  1.00102E+00 -6.62166E-02
    9032.046     35.075   3.400  9.34352E-01  9.99954E-01 -6.56018E-02
    9033.089     36.118   3.440  9.34058E-01  9.98884E-01 -6.48268E-02
    9034.143     37.172   3.480  9.34381E-01  9.97821E-01 -6.34399E-02
    9035.210     38.239   3.520  9.35687E-01  9.96788E-01 -6.11014E-02
    9036.289     39.318   3.560  9.38138E-01  9.95789E-01 -5.76509E-02
    9037.380     40.409   3.600  9.41690E-01  9.94824E-01 -5.31340E-02
    9038.484     41.512   3.640  9.46190E-01  9.93874E-01 -4.76840E-02
    9039.599     42.628   3.680  9.51538E-01  9.92963E-01 -4.14254E-02
    9040.727     43.756   3.720  9.57855E-01  9.92116E-01 -3.42611E-02
    9041.867     44.896   3.760  9.65390E-01  9.91312E-01 -2.59222E-02
    9043.019     46.048   3.800  9.74282E-01  9.90551E-01 -1.62688E-02
    9044.184     47.212   3.840  9.84398E-01  9.89835E-01 -5.43694E-03
    9045.360     48.389   3.880  9.95365E-01  9.89185E-01  6.18031E-03
    9046.549     49.577   3.920  1.00657E+00  9.88582E-01  1.79858E-02
    9047.750     50.778   3.960  1.01736E+00  9.88027E-01  2.93366E-02
    9048.963     51.991   4.000  1.02735E+00  9.87541E-01  3.98075E-02
    9050.188     53.217   4.040  1.03630E+00  9.87126E-01  4.91709E-02
    9051.426     54.454   4.080  1.04399E+00  9.86758E-01  5.72330E-02
    9052.675     55.704   4.120  1.05029E+00  9.86438E-01  6.38472E-02
    9053.937     56.966   4.160  1.05512E+00  9.86187E-01  6.89295E-02
    9055.211     58.240   4.200  1.05837E+00  9.85984E-01  7.23840E-02
    9056.497     59.526   4.240  1.05988E+00  9.85849E-01  7.40336E-02
    9057.796     60.825   4.280  1.05950E+00  9.85762E-01  7.37391E-02
    9059.106     62.135   4.320  1.05712E+00  9.85740E-01  7.13820E-02
    9060.429     63.458   4.360  1.05282E+00  9.85743E-01  6.70738E-02
    9061.764     64.793   4.400  1.04707E+00  9.85809E-01  6.12598E-02
    9063.112     66.140   4.440  1.04052E+00  9.85918E-01  5.45975E-02
    9064.471     67.500   4.480  1.03387E+00  9.86071E-01  4.77991E-02
    9065.843     68.871   4.520  1.02785E+00  9.86285E-01  4.15691E-02
    9067.226     70.255   4.560  1.02299E+00  9.86517E-01  3.64747E-02
    9068.622     71.651   4.600  1.01956E+00  9.86787E-01  3.27722E-02
    9070.030     73.059   4.640  1.01739E+00  9.87095E-01  3.02942E-02
    9071.451     74.480   4.680  1.01590E+00  9.87438E-01  2.84587E-02
    9072.883     75.912   4.720  1.01429E+00  9.87816E-01  2.64776E-02
    9074.328     77.357   4.760  1.01188E+00  9.88204E-01  2.36708E-02
    9075.785     78.814   4.800  1.00830E+00  9.88622E-01  1.96757E-02
    9077.254     80.283   4.840  1.00356E+00  9.89047E-01  1.45137E-02
    9078.735     81.764   4.880  9.97964E-01  9.89478E-01  8.48687E-03
    9080.229     83.258   4.920  9.91914E-01  9.89935E-01  1.97971E-03
    9081.735     84.763   4.960  9.85723E-01  9.90395E-01 -4.67247E-03
    9083.253     86.281   5.000  9.79606E-01  9.90856E-01 -1.12508E-02
    9084.783     87.811   5.040  9.73652E-01  9.91317E-01 -1.76647E-02
    9086.325     89.354   5.080  9.67880E-01  9.91778E-01 -2.38984E-02
    9087.879     90.908   5.120  9.62278E-01  9.92237E-01 -2.99589E-02
    9089.446     92.475   5.160  9.56881E-01  9.92692E-01 -3.58111E-02
    9091.025     94.054   5.200  9.51799E-01  9.93141E-01 -4.13418E-02
    9092.616     95.645   5.240  9.47222E-01  9.93557E-01 -4.63360E-02
    9094.219     97.248   5.280  9.43514E-01  9.93943E-01 -5.04295E-02
    9095.835     98.863   5.320  9.41146E-01  9.94320E-01 -5.31735E-02
    9097.462    100.491   5.360  9.40565E-01  9.94686E-01 -5.41218E-02
    9099.102    102.131   5.400  9.41943E-01  9.95019E-01 -5.30761E-02
    9100.754    103.783   5.440  9.45140E-01  9.95317E-01 -5.01766E-02
    9102.418    105.447   5.480  9.49714E-01  9.95599E-01 -4.58855E-02
    9104.095    107.123   5.520  9.55018E-01  9.95822E-01 -4.08040E-02
    9105.783    108.812   5.560  9.60559E-01  9.96029E-01 -3.54695E-02
    9107.484    110.513   5.600  9.66122E-01  9.96198E-01 -3.00759E-02
    9109.197    112.226   5.640  9.71952E-01  9.96328E-01 -2.43762E-02
    9110.922    113.951   5.680  9.78506E-01  9.96418E-01 -1.79116E-02
    9112.660    115.688   5.720  9.85965E-01  9.96469E-01 -1.05035E-02
    9114.409    117.438   5.760  9.93887E-01  9.96480E-01 -2.59344E-03
    9116.171    119.200   5.800  1.00126E+00  9.96452E-01  4.80977E-03
    9117.945    120.974   5.840  1.00699E+00  9.96410E-01  1.05847E-02
    9119.731    122.760   5.880  1.01030E+00  9.96306E-01  1.39973E-02
    9121.529    124.558   5.920  1.01114E+00  9.96160E-01  1.49780E-02
    9123.340    126.368   5.960  1.00995E+00  9.95971E-01  1.39765E-02
    9125.162    128.191   6.000  1.00726E+00  9.95716E-01  1.15397E-02
