# # comment:                                                     FEFF 9.9.1  
# # Source:
# # Structure
# # Reduced
# # space
# # abc:
# # angles:123.968477
# # sites:
# # POT  SCF 100  7.0000   0, screened core-hole, AFOLP (folp(0)= 1.150)
# # Abs   Z=29 Rmt= 1.264 Rnm= 1.334 K  shell
# # Pot 1 Z= 3 Rmt= 1.316 Rnm= 1.364
# # Pot 2 Z=29 Rmt= 1.264 Rnm= 1.334
# # Pot 3 Z=50 Rmt= 1.384 Rnm= 1.489
# # Pot 4 Z= 8 Rmt= 1.055 Rnm= 1.110
# # Gam_ch=1.729E+00 H-L exch Vi= 0.000E+00 Vr= 0.000E+00
# # Mu=-7.160E+00eV kf=2.086E+00 Vint=-1.609E+01eV Rs_int= 1.739
# FMS rfms= 9.0000
# # PATH  Rmax=-1.000,  Keep_limit= 0.00, Heap_limit 0.00  Pwcrit= 2.50%
#  S02=0.950  Temp=   0.00  Debye_temp=   0.00  Global_sig2= 0.00000
#  Energy zero shift, vr, vi    0.00000E+00   0.00000E+00
#  Curved wave amplitude ratio filter   4.000%
#     file         sig2 tot  cw amp ratio   deg  nlegs   reff  inp sig2
#     0/   0 paths used
#  xsedge+ 50, used to normalize mu           2.4541E-04
#  -----------------------------------------------------------------------
#  omega    e    k    mu    mu0     chi     @#
    8984.027    -10.970  -1.000  3.65926E-02  5.21786E-02 -1.55859E-02
    8984.326    -10.671  -0.960  3.83336E-02  5.59472E-02 -1.76135E-02
    8984.612    -10.385  -0.920  4.01764E-02  6.01341E-02 -1.99577E-02
    8984.887    -10.110  -0.880  4.21271E-02  6.48009E-02 -2.26737E-02
    8985.149     -9.848  -0.840  4.41926E-02  7.00191E-02 -2.58266E-02
    8985.399     -9.598  -0.800  4.63793E-02  7.58720E-02 -2.94927E-02
    8985.636     -9.361  -0.760  4.86939E-02  8.24547E-02 -3.37607E-02
    8985.862     -9.135  -0.720  5.11429E-02  8.98749E-02 -3.87321E-02
    8986.075     -8.922  -0.680  5.37316E-02  9.82513E-02 -4.45197E-02
    8986.276     -8.721  -0.640  5.64643E-02  1.07709E-01 -5.12446E-02
    8986.465     -8.532  -0.600  5.93427E-02  1.18371E-01 -5.90281E-02
    8986.642     -8.355  -0.560  6.23647E-02  1.30342E-01 -6.79771E-02
    8986.807     -8.190  -0.520  6.55220E-02  1.43684E-01 -7.81622E-02
    8986.959     -8.038  -0.480  6.87977E-02  1.58384E-01 -8.95863E-02
    8987.099     -7.898  -0.440  7.21635E-02  1.74312E-01 -1.02149E-01
    8987.227     -7.770  -0.400  7.55768E-02  1.91192E-01 -1.15615E-01
    8987.343     -7.654  -0.360  7.89804E-02  2.08587E-01 -1.29607E-01
    8987.447     -7.550  -0.320  8.23044E-02  2.25932E-01 -1.43627E-01
    8987.538     -7.459  -0.280  8.54710E-02  2.42598E-01 -1.57127E-01
    8987.618     -7.379  -0.240  8.84010E-02  2.57981E-01 -1.69580E-01
    8987.685     -7.312  -0.200  9.10200E-02  2.71575E-01 -1.80555E-01
    8987.739     -7.258  -0.160  9.32626E-02  2.83009E-01 -1.89747E-01
    8987.782     -7.215  -0.120  9.50738E-02  2.92048E-01 -1.96974E-01
    8987.813     -7.184  -0.080  9.64098E-02  2.98559E-01 -2.02149E-01
    8987.837     -7.160   0.000  9.75248E-02  3.03791E-01 -2.06266E-01
    8987.892     -7.105   0.120  1.00108E-01  3.15602E-01 -2.15494E-01
    8987.935     -7.062   0.160  1.02085E-01  3.24767E-01 -2.22682E-01
    8987.989     -7.008   0.200  1.04653E-01  3.36453E-01 -2.31800E-01
    8988.056     -6.941   0.240  1.07894E-01  3.50542E-01 -2.42648E-01
    8988.136     -6.861   0.280  1.11823E-01  3.66712E-01 -2.54889E-01
    8988.227     -6.770   0.320  1.16523E-01  3.84551E-01 -2.68028E-01
    8988.331     -6.666   0.360  1.22092E-01  4.03549E-01 -2.81456E-01
    8988.447     -6.550   0.400  1.28666E-01  4.23162E-01 -2.94495E-01
    8988.575     -6.422   0.440  1.36432E-01  4.42874E-01 -3.06442E-01
    8988.715     -6.282   0.480  1.45669E-01  4.62301E-01 -3.16632E-01
    8988.867     -6.130   0.520  1.56779E-01  4.81177E-01 -3.24398E-01
    8989.032     -5.965   0.560  1.70298E-01  4.99392E-01 -3.29094E-01
    8989.209     -5.788   0.600  1.86992E-01  5.16915E-01 -3.29923E-01
    8989.398     -5.599   0.640  2.07773E-01  5.33820E-01 -3.26046E-01
    8989.599     -5.398   0.680  2.33469E-01  5.50136E-01 -3.16667E-01
    8989.812     -5.185   0.720  2.64491E-01  5.65968E-01 -3.01476E-01
    8990.038     -4.959   0.760  2.99950E-01  5.81414E-01 -2.81464E-01
    8990.275     -4.722   0.800  3.36667E-01  5.96549E-01 -2.59882E-01
    8990.525     -4.472   0.840  3.69590E-01  6.11433E-01 -2.41842E-01
    8990.787     -4.210   0.880  3.94667E-01  6.26092E-01 -2.31425E-01
    8991.062     -3.935   0.920  4.12256E-01  6.40600E-01 -2.28344E-01
    8991.348     -3.649   0.960  4.27641E-01  6.54961E-01 -2.27320E-01
    8991.647     -3.350   1.000  4.47399E-01  6.69207E-01 -2.21807E-01
    8991.958     -3.039   1.040  4.73663E-01  6.83302E-01 -2.09639E-01
    8992.281     -2.716   1.080  5.01364E-01  6.97284E-01 -1.95919E-01
    8992.616     -2.381   1.120  5.22233E-01  7.11121E-01 -1.88888E-01
    8992.964     -2.033   1.160  5.33887E-01  7.24801E-01 -1.90914E-01
    8993.323     -1.674   1.200  5.42673E-01  7.38305E-01 -1.95632E-01
    8993.695     -1.302   1.240  5.56116E-01  7.51633E-01 -1.95518E-01
    8994.079     -0.918   1.280  5.76371E-01  7.64741E-01 -1.88370E-01
    8994.476     -0.522   1.320  6.01097E-01  7.77603E-01 -1.76506E-01
    8994.884     -0.113   1.360  6.27888E-01  7.90215E-01 -1.62328E-01
    8995.305      0.308   1.400  6.61374E-01  8.02549E-01 -1.41175E-01
    8995.737      0.740   1.440  7.11418E-01  8.14557E-01 -1.03139E-01
    8996.182      1.185   1.480  7.86380E-01  8.26250E-01 -3.98703E-02
    8996.640      1.643   1.520  8.85870E-01  8.37604E-01  4.82656E-02
    8997.109      2.112   1.560  9.94601E-01  8.48571E-01  1.46030E-01
    8997.591      2.594   1.600  1.09453E+00  8.59163E-01  2.35368E-01
    8998.084      3.087   1.640  1.18506E+00  8.69356E-01  3.15703E-01
    8998.590      3.593   1.680  1.27795E+00  8.79147E-01  3.98801E-01
    8999.108      4.111   1.720  1.36311E+00  8.88489E-01  4.74625E-01
    8999.639      4.642   1.760  1.43144E+00  8.97422E-01  5.34023E-01
    9000.181      5.184   1.800  1.49933E+00  9.05924E-01  5.93407E-01
    9000.736      5.739   1.840  1.53792E+00  9.13995E-01  6.23922E-01
    9001.303      6.306   1.880  1.49828E+00  9.21614E-01  5.76664E-01
    9001.882      6.885   1.920  1.39769E+00  9.28801E-01  4.68888E-01
    9002.473      7.476   1.960  1.28531E+00  9.35542E-01  3.49764E-01
    9003.077      8.080   2.000  1.18435E+00  9.41880E-01  2.42471E-01
    9003.693      8.696   2.040  1.09710E+00  9.47777E-01  1.49320E-01
    9004.321      9.323   2.080  1.02065E+00  9.53259E-01  6.73879E-02
    9004.961      9.964   2.120  9.55176E-01  9.58352E-01 -3.17620E-03
    9005.613     10.616   2.160  9.04282E-01  9.63063E-01 -5.87810E-02
    9006.277     11.280   2.200  8.70734E-01  9.67397E-01 -9.66636E-02
    9006.954     11.957   2.240  8.54315E-01  9.71343E-01 -1.17028E-01
    9007.643     12.646   2.280  8.53990E-01  9.74968E-01 -1.20978E-01
    9008.344     13.347   2.320  8.70089E-01  9.78239E-01 -1.08150E-01
    9009.057     14.060   2.360  9.03937E-01  9.81204E-01 -7.72668E-02
    9009.783     14.785   2.400  9.52443E-01  9.83852E-01 -3.14088E-02
    9010.520     15.523   2.440  1.00592E+00  9.86233E-01  1.96893E-02
    9011.270     16.273   2.480  1.05681E+00  9.88333E-01  6.84793E-02
    9012.032     17.035   2.520  1.09090E+00  9.90182E-01  1.00720E-01
    9012.806     17.809   2.560  1.09761E+00  9.91788E-01  1.05825E-01
    9013.593     18.595   2.600  1.08693E+00  9.93180E-01  9.37505E-02
    9014.391     19.394   2.640  1.06457E+00  9.94387E-01  7.01836E-02
    9015.202     20.205   2.680  1.03527E+00  9.95375E-01  3.98915E-02
    9016.025     21.028   2.720  1.00462E+00  9.96190E-01  8.42667E-03
    9016.860     21.863   2.760  9.76961E-01  9.96864E-01 -1.99031E-02
    9017.707     22.710   2.800  9.52816E-01  9.97384E-01 -4.45675E-02
    9018.567     23.570   2.840  9.31196E-01  9.97774E-01 -6.65783E-02
    9019.439     24.442   2.880  9.11150E-01  9.98042E-01 -8.68916E-02
    9020.322     25.325   2.920  8.92916E-01  9.98216E-01 -1.05300E-01
    9021.219     26.222   2.960  8.78189E-01  9.98280E-01 -1.20091E-01
    9022.127     27.130   3.000  8.68649E-01  9.98282E-01 -1.29634E-01
    9023.047     28.050   3.040  8.64686E-01  9.98185E-01 -1.33500E-01
    9023.980     28.983   3.080  8.65758E-01  9.98058E-01 -1.32299E-01
    9024.925     29.928   3.120  8.70708E-01  9.97863E-01 -1.27155E-01
    9025.882     30.885   3.160  8.78080E-01  9.97626E-01 -1.19546E-01
    9026.851     31.854   3.200  8.87244E-01  9.97373E-01 -1.10129E-01
    9027.833     32.836   3.240  8.98073E-01  9.97085E-01 -9.90127E-02
    9028.826     33.829   3.280  9.10290E-01  9.96788E-01 -8.64984E-02
    9029.832     34.835   3.320  9.23161E-01  9.96464E-01 -7.33021E-02
    9030.850     35.853   3.360  9.35701E-01  9.96135E-01 -6.04346E-02
    9031.880     36.883   3.400  9.46881E-01  9.95829E-01 -4.89478E-02
    9032.923     37.926   3.440  9.55973E-01  9.95526E-01 -3.95527E-02
    9033.977     38.980   3.480  9.63088E-01  9.95226E-01 -3.21378E-02
    9035.044     40.047   3.520  9.69162E-01  9.94931E-01 -2.57686E-02
    9036.123     41.126   3.560  9.75536E-01  9.94667E-01 -1.91316E-02
    9037.214     42.217   3.600  9.83232E-01  9.94435E-01 -1.12028E-02
    9038.318     43.321   3.640  9.92570E-01  9.94214E-01 -1.64328E-03
    9039.433     44.436   3.680  1.00330E+00  9.94026E-01  9.27394E-03
    9040.561     45.564   3.720  1.01452E+00  9.93872E-01  2.06434E-02
    9041.701     46.704   3.760  1.02472E+00  9.93734E-01  3.09852E-02
    9042.853     47.856   3.800  1.03224E+00  9.93653E-01  3.85887E-02
    9044.018     49.020   3.840  1.03584E+00  9.93588E-01  4.22511E-02
    9045.194     50.197   3.880  1.03547E+00  9.93559E-01  4.19069E-02
    9046.383     51.386   3.920  1.03185E+00  9.93569E-01  3.82794E-02
    9047.584     52.587   3.960  1.02600E+00  9.93639E-01  3.23631E-02
    9048.797     53.800   4.000  1.01905E+00  9.93724E-01  2.53250E-02
    9050.022     55.025   4.040  1.01249E+00  9.93824E-01  1.86699E-02
    9051.260     56.262   4.080  1.00814E+00  9.93980E-01  1.41623E-02
    9052.509     57.512   4.120  1.00746E+00  9.94152E-01  1.33080E-02
    9053.771     58.774   4.160  1.01121E+00  9.94383E-01  1.68298E-02
    9055.045     60.048   4.200  1.01891E+00  9.94627E-01  2.42873E-02
    9056.331     61.334   4.240  1.02922E+00  9.94905E-01  3.43138E-02
    9057.630     62.633   4.280  1.04042E+00  9.95193E-01  4.52303E-02
    9058.940     63.943   4.320  1.05106E+00  9.95515E-01  5.55453E-02
    9060.263     65.266   4.360  1.06010E+00  9.95867E-01  6.42339E-02
    9061.598     66.601   4.400  1.06704E+00  9.96230E-01  7.08072E-02
    9062.946     67.948   4.440  1.07193E+00  9.96622E-01  7.53058E-02
    9064.305     69.308   4.480  1.07492E+00  9.97020E-01  7.78968E-02
    9065.677     70.679   4.520  1.07596E+00  9.97423E-01  7.85377E-02
    9067.060     72.063   4.560  1.07463E+00  9.97853E-01  7.67802E-02
    9068.456     73.459   4.600  1.07011E+00  9.98287E-01  7.18234E-02
    9069.864     74.867   4.640  1.06173E+00  9.98723E-01  6.30042E-02
    9071.285     76.288   4.680  1.04960E+00  9.99160E-01  5.04371E-02
    9072.717     77.720   4.720  1.03487E+00  9.99618E-01  3.52565E-02
    9074.162     79.165   4.760  1.01930E+00  1.00005E+00  1.92512E-02
    9075.619     80.622   4.800  1.00474E+00  1.00048E+00  4.25852E-03
    9077.088     82.091   4.840  9.92492E-01  1.00091E+00 -8.41792E-03
    9078.570     83.572   4.880  9.83001E-01  1.00131E+00 -1.83085E-02
    9080.063     85.066   4.920  9.75974E-01  1.00172E+00 -2.57503E-02
    9081.569     86.572   4.960  9.70547E-01  1.00211E+00 -3.15653E-02
    9083.087     88.090   5.000  9.65911E-01  1.00249E+00 -3.65811E-02
    9084.617     89.620   5.040  9.61450E-01  1.00284E+00 -4.13902E-02
    9086.159     91.162   5.080  9.56945E-01  1.00318E+00 -4.62312E-02
    9087.713     92.716   5.120  9.52517E-01  1.00348E+00 -5.09617E-02
    9089.280     94.283   5.160  9.48591E-01  1.00375E+00 -5.51554E-02
    9090.859     95.862   5.200  9.45799E-01  1.00400E+00 -5.82049E-02
    9092.450     97.453   5.240  9.44651E-01  1.00425E+00 -5.95977E-02
    9094.053     99.056   5.280  9.45313E-01  1.00444E+00 -5.91225E-02
    9095.669    100.672   5.320  9.47598E-01  1.00461E+00 -5.70084E-02
    9097.296    102.299   5.360  9.50943E-01  1.00474E+00 -5.37968E-02
    9098.936    103.939   5.400  9.54742E-01  1.00484E+00 -5.00946E-02
    9100.588    105.591   5.440  9.58621E-01  1.00492E+00 -4.62966E-02
    9102.252    107.255   5.480  9.62488E-01  1.00494E+00 -4.24522E-02
    9103.929    108.932   5.520  9.66648E-01  1.00495E+00 -3.82979E-02
    9105.617    110.620   5.560  9.71398E-01  1.00491E+00 -3.35150E-02
    9107.318    112.321   5.600  9.76863E-01  1.00484E+00 -2.79783E-02
    9109.031    114.034   5.640  9.82864E-01  1.00473E+00 -2.18702E-02
    9110.756    115.759   5.680  9.89011E-01  1.00461E+00 -1.56029E-02
    9112.494    117.497   5.720  9.94764E-01  1.00445E+00 -9.69022E-03
    9114.243    119.246   5.760  9.99634E-01  1.00423E+00 -4.60017E-03
    9116.005    121.008   5.800  1.00333E+00  1.00400E+00 -6.67076E-04
    9117.779    122.782   5.840  1.00582E+00  1.00376E+00  2.06016E-03
    9119.565    124.568   5.880  1.00734E+00  1.00346E+00  3.88366E-03
    9121.363    126.366   5.920  1.00850E+00  1.00315E+00  5.35077E-03
    9123.174    128.177   5.960  1.00982E+00  1.00281E+00  7.01070E-03
    9124.996    129.999   6.000  1.01167E+00  1.00241E+00  9.26158E-03
