# # comment:                                                     FEFF 9.9.1  
# # Source:
# # Structure
# # Reduced
# # space
# # abc:
# # angles:
# # sites:
# # POT  SCF 100  7.0000   0, screened core-hole, AFOLP (folp(0)= 1.150)
# # Abs   Z=29 Rmt= 1.245 Rnm= 1.319 K  shell
# # Pot 1 Z=62 Rmt= 1.673 Rnm= 1.759
# # Pot 2 Z=29 Rmt= 1.245 Rnm= 1.320
# # Pot 3 Z=32 Rmt= 1.166 Rnm= 1.322
# # Pot 4 Z= 8 Rmt= 1.016 Rnm= 1.085
# # Gam_ch=1.729E+00 H-L exch Vi= 0.000E+00 Vr= 0.000E+00
# # Mu=-7.725E+00eV kf=2.167E+00 Vint=-1.784E+01eV Rs_int= 1.674
# FMS rfms= 9.0000
# # PATH  Rmax=-1.000,  Keep_limit= 0.00, Heap_limit 0.00  Pwcrit= 2.50%
#  S02=0.950  Temp=   0.00  Debye_temp=   0.00  Global_sig2= 0.00000
#  Energy zero shift, vr, vi    0.00000E+00   0.00000E+00
#  Curved wave amplitude ratio filter   4.000%
#     file         sig2 tot  cw amp ratio   deg  nlegs   reff  inp sig2
#     0/   0 paths used
#  xsedge+ 50, used to normalize mu           2.4773E-04
#  -----------------------------------------------------------------------
#  omega    e    k    mu    mu0     chi     @#
    8984.054    -11.535  -1.000  4.10030E-02  5.32653E-02 -1.22624E-02
    8984.353    -11.237  -0.960  4.33078E-02  5.71452E-02 -1.38374E-02
    8984.639    -10.950  -0.920  4.58045E-02  6.14592E-02 -1.56547E-02
    8984.914    -10.676  -0.880  4.85157E-02  6.62716E-02 -1.77559E-02
    8985.176    -10.414  -0.840  5.14674E-02  7.16574E-02 -2.01900E-02
    8985.426    -10.164  -0.800  5.46891E-02  7.77034E-02 -2.30143E-02
    8985.664     -9.926  -0.760  5.82141E-02  8.45094E-02 -2.62953E-02
    8985.889     -9.700  -0.720  6.20792E-02  9.21882E-02 -3.01090E-02
    8986.102     -9.487  -0.680  6.63242E-02  1.00864E-01 -3.45399E-02
    8986.304     -9.286  -0.640  7.09901E-02  1.10669E-01 -3.96784E-02
    8986.493     -9.097  -0.600  7.61159E-02  1.21731E-01 -4.56146E-02
    8986.669     -8.920  -0.560  8.17333E-02  1.34160E-01 -5.24271E-02
    8986.834     -8.755  -0.520  8.78581E-02  1.48024E-01 -6.01661E-02
    8986.986     -8.603  -0.480  9.44792E-02  1.63308E-01 -6.88286E-02
    8987.127     -8.463  -0.440  1.01546E-01  1.79877E-01 -7.83313E-02
    8987.255     -8.335  -0.400  1.08955E-01  1.97442E-01 -8.84871E-02
    8987.370     -8.219  -0.360  1.16547E-01  2.15547E-01 -9.89998E-02
    8987.474     -8.115  -0.320  1.24114E-01  2.33601E-01 -1.09487E-01
    8987.566     -8.024  -0.280  1.31415E-01  2.50946E-01 -1.19531E-01
    8987.645     -7.945  -0.240  1.38209E-01  2.66952E-01 -1.28743E-01
    8987.712     -7.878  -0.200  1.44278E-01  2.81092E-01 -1.36814E-01
    8987.767     -7.823  -0.160  1.49445E-01  2.92981E-01 -1.43536E-01
    8987.809     -7.780  -0.120  1.53582E-01  3.02376E-01 -1.48794E-01
    8987.840     -7.750  -0.080  1.56603E-01  3.09141E-01 -1.52539E-01
    8987.864     -7.725   0.000  1.59079E-01  3.14575E-01 -1.55497E-01
    8987.919     -7.670   0.120  1.64545E-01  3.26828E-01 -1.62283E-01
    8987.962     -7.628   0.160  1.68812E-01  3.36322E-01 -1.67510E-01
    8988.017     -7.573   0.200  1.74328E-01  3.48467E-01 -1.74138E-01
    8988.084     -7.506   0.240  1.81060E-01  3.63050E-01 -1.81990E-01
    8988.163     -7.427   0.280  1.88933E-01  3.79768E-01 -1.90835E-01
    8988.254     -7.335   0.320  1.97814E-01  3.98199E-01 -2.00386E-01
    8988.358     -7.231   0.360  2.07464E-01  4.17759E-01 -2.10295E-01
    8988.474     -7.116   0.400  2.17612E-01  4.37890E-01 -2.20278E-01
    8988.602     -6.988   0.440  2.27978E-01  4.58064E-01 -2.30085E-01
    8988.742     -6.847   0.480  2.38336E-01  4.77831E-01 -2.39495E-01
    8988.894     -6.695   0.520  2.48735E-01  4.96956E-01 -2.48220E-01
    8989.059     -6.530   0.560  2.59592E-01  5.15299E-01 -2.55707E-01
    8989.236     -6.354   0.600  2.71710E-01  5.32830E-01 -2.61120E-01
    8989.425     -6.165   0.640  2.86214E-01  5.49629E-01 -2.63415E-01
    8989.626     -5.964   0.680  3.03952E-01  5.65755E-01 -2.61803E-01
    8989.839     -5.750   0.720  3.25073E-01  5.81340E-01 -2.56267E-01
    8990.065     -5.525   0.760  3.48605E-01  5.96436E-01 -2.47830E-01
    8990.303     -5.287   0.800  3.72850E-01  6.11164E-01 -2.38314E-01
    8990.553     -5.037   0.840  3.96036E-01  6.25613E-01 -2.29577E-01
    8990.815     -4.775   0.880  4.17288E-01  6.39801E-01 -2.22513E-01
    8991.089     -4.500   0.920  4.37421E-01  6.53810E-01 -2.16389E-01
    8991.376     -4.214   0.960  4.58475E-01  6.67669E-01 -2.09194E-01
    8991.674     -3.915   1.000  4.81946E-01  6.81378E-01 -1.99432E-01
    8991.985     -3.604   1.040  5.06949E-01  6.94966E-01 -1.88016E-01
    8992.308     -3.281   1.080  5.31101E-01  7.08457E-01 -1.77356E-01
    8992.643     -2.946   1.120  5.55078E-01  7.21808E-01 -1.66730E-01
    8992.991     -2.599   1.160  5.84548E-01  7.35048E-01 -1.50499E-01
    8993.351     -2.239   1.200  6.23371E-01  7.48163E-01 -1.24793E-01
    8993.722     -1.867   1.240  6.65797E-01  7.61098E-01 -9.53010E-02
    8994.107     -1.483   1.280  7.00245E-01  7.73890E-01 -7.36449E-02
    8994.503     -1.087   1.320  7.22535E-01  7.86478E-01 -6.39425E-02
    8994.911     -0.678   1.360  7.41647E-01  7.98878E-01 -5.72317E-02
    8995.332     -0.258   1.400  7.69938E-01  8.11024E-01 -4.10860E-02
    8995.765      0.175   1.440  8.12597E-01  8.22930E-01 -1.03337E-02
    8996.210      0.620   1.480  8.63958E-01  8.34569E-01  2.93895E-02
    8996.667      1.077   1.520  9.08071E-01  8.45914E-01  6.21571E-02
    8997.136      1.547   1.560  9.37038E-01  8.56936E-01  8.01017E-02
    8997.618      2.028   1.600  9.64265E-01  8.67630E-01  9.66351E-02
    8998.112      2.522   1.640  1.00789E+00  8.77969E-01  1.29920E-01
    8998.618      3.028   1.680  1.07113E+00  8.87926E-01  1.83205E-01
    8999.136      3.546   1.720  1.13918E+00  8.97518E-01  2.41659E-01
    8999.666      4.077   1.760  1.19276E+00  9.06719E-01  2.86045E-01
    9000.209      4.619   1.800  1.22834E+00  9.15524E-01  3.12816E-01
    9000.763      5.174   1.840  1.25388E+00  9.23912E-01  3.29964E-01
    9001.330      5.741   1.880  1.26495E+00  9.31880E-01  3.33074E-01
    9001.909      6.320   1.920  1.25694E+00  9.39427E-01  3.17510E-01
    9002.501      6.911   1.960  1.23565E+00  9.46550E-01  2.89102E-01
    9003.104      7.515   2.000  1.20616E+00  9.53232E-01  2.52923E-01
    9003.720      8.130   2.040  1.17492E+00  9.59515E-01  2.15401E-01
    9004.348      8.758   2.080  1.14851E+00  9.65361E-01  1.83147E-01
    9004.988      9.398   2.120  1.12797E+00  9.70813E-01  1.57159E-01
    9005.640     10.051   2.160  1.10965E+00  9.75854E-01  1.33794E-01
    9006.305     10.715   2.200  1.08557E+00  9.80488E-01  1.05081E-01
    9006.981     11.392   2.240  1.05239E+00  9.84721E-01  6.76734E-02
    9007.670     12.081   2.280  1.01798E+00  9.88600E-01  2.93797E-02
    9008.371     12.782   2.320  9.93863E-01  9.92088E-01  1.77466E-03
    9009.084     13.495   2.360  9.86273E-01  9.95233E-01 -8.95999E-03
    9009.810     14.220   2.400  9.94748E-01  9.98022E-01 -3.27461E-03
    9010.547     14.958   2.440  1.01480E+00  1.00050E+00  1.42986E-02
    9011.297     15.708   2.480  1.03992E+00  1.00266E+00  3.72558E-02
    9012.059     16.470   2.520  1.06198E+00  1.00451E+00  5.74736E-02
    9012.833     17.244   2.560  1.07434E+00  1.00609E+00  6.82436E-02
    9013.620     18.030   2.600  1.07206E+00  1.00742E+00  6.46416E-02
    9014.418     18.829   2.640  1.06057E+00  1.00847E+00  5.21024E-02
    9015.229     19.640   2.680  1.04534E+00  1.00928E+00  3.60551E-02
    9016.052     20.463   2.720  1.02872E+00  1.00988E+00  1.88387E-02
    9016.887     21.298   2.760  1.01168E+00  1.01028E+00  1.39828E-03
    9017.735     22.145   2.800  9.94127E-01  1.01050E+00 -1.63707E-02
    9018.594     23.005   2.840  9.75952E-01  1.01052E+00 -3.45728E-02
    9019.466     23.876   2.880  9.58209E-01  1.01039E+00 -5.21798E-02
    9020.350     24.760   2.920  9.42111E-01  1.01012E+00 -6.80070E-02
    9021.246     25.656   2.960  9.28558E-01  1.00972E+00 -8.11630E-02
    9022.154     26.565   3.000  9.18032E-01  1.00918E+00 -9.11491E-02
    9023.075     27.485   3.040  9.10480E-01  1.00857E+00 -9.80872E-02
    9024.007     28.418   3.080  9.05505E-01  1.00785E+00 -1.02341E-01
    9024.952     29.363   3.120  9.02755E-01  1.00704E+00 -1.04286E-01
    9025.909     30.320   3.160  9.01494E-01  1.00616E+00 -1.04664E-01
    9026.878     31.289   3.200  9.01336E-01  1.00523E+00 -1.03891E-01
    9027.860     32.270   3.240  9.02103E-01  1.00425E+00 -1.02148E-01
    9028.854     33.264   3.280  9.03640E-01  1.00324E+00 -9.95954E-02
    9029.859     34.270   3.320  9.05738E-01  1.00220E+00 -9.64667E-02
    9030.877     35.288   3.360  9.08271E-01  1.00114E+00 -9.28717E-02
    9031.908     36.318   3.400  9.11363E-01  1.00007E+00 -8.87112E-02
    9032.950     37.361   3.440  9.15006E-01  9.98982E-01 -8.39760E-02
    9034.005     38.415   3.480  9.19321E-01  9.97911E-01 -7.85905E-02
    9035.071     39.482   3.520  9.24387E-01  9.96866E-01 -7.24786E-02
    9036.150     40.561   3.560  9.30202E-01  9.95807E-01 -6.56055E-02
    9037.242     41.652   3.600  9.36881E-01  9.94800E-01 -5.79184E-02
    9038.345     42.755   3.640  9.44567E-01  9.93804E-01 -4.92363E-02
    9039.461     43.871   3.680  9.53417E-01  9.92822E-01 -3.94047E-02
    9040.588     44.999   3.720  9.63452E-01  9.91899E-01 -2.84468E-02
    9041.728     46.139   3.760  9.74498E-01  9.91016E-01 -1.65176E-02
    9042.880     47.291   3.800  9.86341E-01  9.90174E-01 -3.83329E-03
    9044.045     48.455   3.840  9.98617E-01  9.89376E-01  9.24080E-03
    9045.221     49.632   3.880  1.01094E+00  9.88641E-01  2.22980E-02
    9046.410     50.820   3.920  1.02283E+00  9.87931E-01  3.48967E-02
    9047.611     52.021   3.960  1.03386E+00  9.87287E-01  4.65743E-02
    9048.824     53.234   4.000  1.04368E+00  9.86712E-01  5.69704E-02
    9050.049     54.460   4.040  1.05209E+00  9.86185E-01  6.59069E-02
    9051.287     55.697   4.080  1.05896E+00  9.85704E-01  7.32547E-02
    9052.536     56.947   4.120  1.06406E+00  9.85292E-01  7.87719E-02
    9053.798     58.209   4.160  1.06715E+00  9.84929E-01  8.22222E-02
    9055.072     59.483   4.200  1.06803E+00  9.84634E-01  8.33984E-02
    9056.359     60.769   4.240  1.06662E+00  9.84387E-01  8.22372E-02
    9057.657     62.068   4.280  1.06312E+00  9.84209E-01  7.89130E-02
    9058.968     63.378   4.320  1.05792E+00  9.84077E-01  7.38459E-02
    9060.291     64.701   4.360  1.05144E+00  9.83988E-01  6.74496E-02
    9061.626     66.036   4.400  1.04399E+00  9.83945E-01  6.00433E-02
    9062.973     67.383   4.440  1.03596E+00  9.83968E-01  5.19919E-02
    9064.332     68.743   4.480  1.02780E+00  9.84038E-01  4.37605E-02
    9065.704     70.114   4.520  1.02012E+00  9.84172E-01  3.59453E-02
    9067.088     71.498   4.560  1.01349E+00  9.84327E-01  2.91628E-02
    9068.483     72.894   4.600  1.00836E+00  9.84542E-01  2.38209E-02
    9069.892     74.302   4.640  1.00471E+00  9.84777E-01  1.99350E-02
    9071.312     75.723   4.680  1.00219E+00  9.85070E-01  1.71206E-02
    9072.745     77.155   4.720  1.00005E+00  9.85378E-01  1.46720E-02
    9074.189     78.600   4.760  9.97487E-01  9.85722E-01  1.17648E-02
    9075.646     80.057   4.800  9.93825E-01  9.86099E-01  7.72593E-03
    9077.115     81.526   4.840  9.88734E-01  9.86486E-01  2.24743E-03
    9078.597     83.007   4.880  9.82436E-01  9.86904E-01 -4.46839E-03
    9080.090     84.501   4.920  9.75607E-01  9.87331E-01 -1.17235E-02
    9081.596     86.006   4.960  9.69165E-01  9.87786E-01 -1.86210E-02
    9083.114     87.524   5.000  9.63828E-01  9.88246E-01 -2.44172E-02
    9084.644     89.054   5.040  9.59895E-01  9.88709E-01 -2.88142E-02
    9086.186     90.597   5.080  9.57184E-01  9.89196E-01 -3.20128E-02
    9087.741     92.151   5.120  9.55209E-01  9.89661E-01 -3.44516E-02
    9089.307     93.718   5.160  9.53602E-01  9.90124E-01 -3.65213E-02
    9090.886     95.297   5.200  9.52319E-01  9.90607E-01 -3.82879E-02
    9092.477     96.888   5.240  9.51508E-01  9.91063E-01 -3.95550E-02
    9094.080     98.491   5.280  9.51489E-01  9.91490E-01 -4.00017E-02
    9095.696    100.106   5.320  9.52642E-01  9.91934E-01 -3.92918E-02
    9097.324    101.734   5.360  9.55167E-01  9.92346E-01 -3.71794E-02
    9098.963    103.374   5.400  9.59062E-01  9.92726E-01 -3.36639E-02
    9100.615    105.026   5.440  9.63966E-01  9.93095E-01 -2.91286E-02
    9102.280    106.690   5.480  9.69142E-01  9.93431E-01 -2.42886E-02
    9103.956    108.366   5.520  9.73771E-01  9.93752E-01 -1.99813E-02
    9105.645    110.055   5.560  9.77115E-01  9.94014E-01 -1.68992E-02
    9107.345    111.756   5.600  9.78918E-01  9.94262E-01 -1.53444E-02
    9109.058    113.469   5.640  9.79347E-01  9.94475E-01 -1.51276E-02
    9110.783    115.194   5.680  9.79001E-01  9.94671E-01 -1.56703E-02
    9112.521    116.931   5.720  9.78529E-01  9.94804E-01 -1.62754E-02
    9114.270    118.681   5.760  9.78504E-01  9.94897E-01 -1.63931E-02
    9116.032    120.443   5.800  9.79152E-01  9.94949E-01 -1.57968E-02
    9117.806    122.217   5.840  9.80402E-01  9.94962E-01 -1.45596E-02
    9119.592    124.003   5.880  9.82096E-01  9.94960E-01 -1.28644E-02
    9121.390    125.801   5.920  9.84097E-01  9.94894E-01 -1.07969E-02
    9123.201    127.611   5.960  9.86477E-01  9.94782E-01 -8.30499E-03
    9125.024    129.434   6.000  9.89411E-01  9.94602E-01 -5.19124E-03
