# # comment:                                                     FEFF 9.9.1  
# # Source:
# # Structure
# # Reduced
# # space
# # abc:
# # angles:
# # sites:
# # POT  SCF 100  7.0000   0, screened core-hole, AFOLP (folp(0)= 1.150)
# # Abs   Z=29 Rmt= 1.325 Rnm= 1.374 K  shell
# # Pot 1 Z= 3 Rmt= 1.270 Rnm= 1.310
# # Pot 2 Z=29 Rmt= 1.325 Rnm= 1.374
# # Pot 3 Z= 8 Rmt= 1.075 Rnm= 1.121
# # Gam_ch=1.729E+00 H-L exch Vi= 0.000E+00 Vr= 0.000E+00
# # Mu=-7.781E+00eV kf=1.961E+00 Vint=-1.692E+01eV Rs_int= 1.849
# FMS rfms= 9.0000
# # PATH  Rmax=-1.000,  Keep_limit= 0.00, Heap_limit 0.00  Pwcrit= 2.50%
#  S02=0.950  Temp=   0.00  Debye_temp=   0.00  Global_sig2= 0.00000
#  Energy zero shift, vr, vi    0.00000E+00   0.00000E+00
#  Curved wave amplitude ratio filter   4.000%
#     file         sig2 tot  cw amp ratio   deg  nlegs   reff  inp sig2
#     0/   0 paths used
#  xsedge+ 50, used to normalize mu           2.4482E-04
#  -----------------------------------------------------------------------
#  omega    e    k    mu    mu0     chi     @#
    8985.254    -11.591  -1.000  5.68910E-02  6.36628E-02 -6.77176E-03
    8985.553    -11.292  -0.960  6.07311E-02  6.86008E-02 -7.86965E-03
    8985.839    -11.005  -0.920  6.49533E-02  7.41135E-02 -9.16017E-03
    8986.114    -10.731  -0.880  6.96102E-02  8.02877E-02 -1.06775E-02
    8986.376    -10.469  -0.840  7.47631E-02  8.72245E-02 -1.24614E-02
    8986.626    -10.219  -0.800  8.04830E-02  9.50412E-02 -1.45582E-02
    8986.864     -9.981  -0.760  8.68519E-02  1.03873E-01 -1.70208E-02
    8987.089     -9.756  -0.720  9.39626E-02  1.13872E-01 -1.99092E-02
    8987.303     -9.542  -0.680  1.01918E-01  1.25207E-01 -2.32890E-02
    8987.504     -9.341  -0.640  1.10827E-01  1.38056E-01 -2.72296E-02
    8987.693     -9.152  -0.600  1.20797E-01  1.52596E-01 -3.17989E-02
    8987.869     -8.976  -0.560  1.31921E-01  1.68976E-01 -3.70554E-02
    8988.034     -8.811  -0.520  1.44253E-01  1.87288E-01 -4.30346E-02
    8988.186     -8.659  -0.480  1.57784E-01  2.07515E-01 -4.97316E-02
    8988.327     -8.518  -0.440  1.72399E-01  2.29480E-01 -5.70810E-02
    8988.455     -8.390  -0.400  1.87853E-01  2.52794E-01 -6.49403E-02
    8988.570     -8.274  -0.360  2.03759E-01  2.76846E-01 -7.30868E-02
    8988.674     -8.171  -0.320  2.19606E-01  3.00842E-01 -8.12356E-02
    8988.766     -8.079  -0.280  2.34825E-01  3.23901E-01 -8.90764E-02
    8988.845     -8.000  -0.240  2.48860E-01  3.45178E-01 -9.63184E-02
    8988.912     -7.933  -0.200  2.61245E-01  3.63969E-01 -1.02723E-01
    8988.967     -7.878  -0.160  2.71645E-01  3.79762E-01 -1.08116E-01
    8989.009     -7.836  -0.120  2.79854E-01  3.92235E-01 -1.12381E-01
    8989.040     -7.805  -0.080  2.85766E-01  4.01213E-01 -1.15448E-01
    8989.064     -7.781   0.000  2.90526E-01  4.08421E-01 -1.17895E-01
    8989.119     -7.726   0.120  3.00779E-01  4.24666E-01 -1.23887E-01
    8989.162     -7.683   0.160  3.08721E-01  4.37253E-01 -1.28533E-01
    8989.217     -7.628   0.200  3.18775E-01  4.53319E-01 -1.34544E-01
    8989.284     -7.561   0.240  3.30651E-01  4.72580E-01 -1.41929E-01
    8989.363     -7.482   0.280  3.43961E-01  4.94639E-01 -1.50678E-01
    8989.454     -7.391   0.320  3.58046E-01  5.18848E-01 -1.60803E-01
    8989.558     -7.287   0.360  3.72157E-01  5.44439E-01 -1.72282E-01
    8989.674     -7.171   0.400  3.85550E-01  5.70634E-01 -1.85085E-01
    8989.802     -7.043   0.440  3.97634E-01  5.96668E-01 -1.99035E-01
    8989.942     -6.903   0.480  4.08247E-01  6.21978E-01 -2.13730E-01
    8990.094     -6.750   0.520  4.17598E-01  6.46160E-01 -2.28562E-01
    8990.259     -6.586   0.560  4.26300E-01  6.69026E-01 -2.42726E-01
    8990.436     -6.409   0.600  4.35201E-01  6.90530E-01 -2.55329E-01
    8990.625     -6.220   0.640  4.45411E-01  7.10725E-01 -2.65315E-01
    8990.826     -6.019   0.680  4.58522E-01  7.29716E-01 -2.71194E-01
    8991.039     -5.806   0.720  4.76694E-01  7.47604E-01 -2.70910E-01
    8991.265     -5.580   0.760  5.02436E-01  7.64533E-01 -2.62097E-01
    8991.503     -5.342   0.800  5.37604E-01  7.80572E-01 -2.42969E-01
    8991.753     -5.092   0.840  5.82184E-01  7.95818E-01 -2.13634E-01
    8992.015     -4.830   0.880  6.33258E-01  8.10366E-01 -1.77107E-01
    8992.289     -4.556   0.920  6.85867E-01  8.24234E-01 -1.38368E-01
    8992.576     -4.269   0.960  7.36852E-01  8.37513E-01 -1.00661E-01
    8992.874     -3.971   1.000  7.87579E-01  8.50169E-01 -6.25896E-02
    8993.185     -3.660   1.040  8.43978E-01  8.62266E-01 -1.82879E-02
    8993.508     -3.337   1.080  9.16557E-01  8.73820E-01  4.27375E-02
    8993.844     -3.001   1.120  1.02216E+00  8.84792E-01  1.37368E-01
    8994.191     -2.654   1.160  1.18143E+00  8.95225E-01  2.86204E-01
    8994.551     -2.294   1.200  1.39927E+00  9.05117E-01  4.94150E-01
    8994.922     -1.922   1.240  1.62414E+00  9.14462E-01  7.09678E-01
    8995.307     -1.538   1.280  1.74354E+00  9.23252E-01  8.20288E-01
    8995.703     -1.142   1.320  1.68297E+00  9.31496E-01  7.51474E-01
    8996.111     -0.734   1.360  1.48284E+00  9.39206E-01  5.43638E-01
    8996.532     -0.313   1.400  1.23516E+00  9.46369E-01  2.88790E-01
    8996.965      0.120   1.440  1.01031E+00  9.53018E-01  5.72940E-02
    8997.410      0.565   1.480  8.54128E-01  9.59120E-01 -1.04992E-01
    8997.867      1.022   1.520  7.74199E-01  9.64728E-01 -1.90529E-01
    8998.336      1.491   1.560  7.51522E-01  9.69831E-01 -2.18309E-01
    8998.818      1.973   1.600  7.64176E-01  9.74461E-01 -2.10285E-01
    8999.312      2.467   1.640  7.98905E-01  9.78608E-01 -1.79704E-01
    8999.818      2.973   1.680  8.53024E-01  9.82327E-01 -1.29303E-01
    9000.336      3.491   1.720  9.28320E-01  9.85608E-01 -5.72879E-02
    9000.866      4.021   1.760  1.01792E+00  9.88486E-01  2.94388E-02
    9001.409      4.564   1.800  1.09105E+00  9.90993E-01  1.00057E-01
    9001.963      5.118   1.840  1.11085E+00  9.93121E-01  1.17727E-01
    9002.530      5.685   1.880  1.09320E+00  9.94924E-01  9.82743E-02
    9003.109      6.264   1.920  1.07773E+00  9.96396E-01  8.13328E-02
    9003.701      6.856   1.960  1.08701E+00  9.97591E-01  8.94236E-02
    9004.304      7.459   2.000  1.12951E+00  9.98520E-01  1.30986E-01
    9004.920      8.075   2.040  1.20632E+00  9.99197E-01  2.07128E-01
    9005.548      8.703   2.080  1.31278E+00  9.99673E-01  3.13103E-01
    9006.188      9.343   2.120  1.43084E+00  9.99921E-01  4.30917E-01
    9006.840      9.995   2.160  1.51724E+00  1.00001E+00  5.17224E-01
    9007.505     10.660   2.200  1.52042E+00  9.99961E-01  5.20457E-01
    9008.181     11.336   2.240  1.43406E+00  9.99754E-01  4.34303E-01
    9008.870     12.025   2.280  1.30231E+00  9.99421E-01  3.02887E-01
    9009.571     12.726   2.320  1.17026E+00  9.99014E-01  1.71244E-01
    9010.284     13.439   2.360  1.04765E+00  9.98500E-01  4.91502E-02
    9011.010     14.165   2.400  9.53585E-01  9.97929E-01 -4.43441E-02
    9011.747     14.902   2.440  8.95799E-01  9.97329E-01 -1.01529E-01
    9012.497     15.652   2.480  8.59469E-01  9.96666E-01 -1.37197E-01
    9013.259     16.414   2.520  8.35354E-01  9.95988E-01 -1.60635E-01
    9014.033     17.188   2.560  8.17957E-01  9.95282E-01 -1.77325E-01
    9014.820     17.975   2.600  8.04887E-01  9.94592E-01 -1.89704E-01
    9015.618     18.773   2.640  7.94276E-01  9.93924E-01 -1.99648E-01
    9016.429     19.584   2.680  7.85621E-01  9.93243E-01 -2.07622E-01
    9017.252     20.407   2.720  7.80032E-01  9.92615E-01 -2.12583E-01
    9018.087     21.242   2.760  7.77677E-01  9.92002E-01 -2.14325E-01
    9018.935     22.090   2.800  7.78783E-01  9.91447E-01 -2.12665E-01
    9019.794     22.949   2.840  7.83041E-01  9.90935E-01 -2.07894E-01
    9020.666     23.821   2.880  7.89542E-01  9.90466E-01 -2.00924E-01
    9021.550     24.705   2.920  7.97632E-01  9.90043E-01 -1.92411E-01
    9022.446     25.601   2.960  8.07270E-01  9.89688E-01 -1.82418E-01
    9023.354     26.509   3.000  8.18622E-01  9.89405E-01 -1.70783E-01
    9024.275     27.430   3.040  8.32410E-01  9.89174E-01 -1.56764E-01
    9025.207     28.362   3.080  8.49640E-01  9.89016E-01 -1.39376E-01
    9026.152     29.307   3.120  8.71165E-01  9.88931E-01 -1.17766E-01
    9027.109     30.264   3.160  8.97318E-01  9.88920E-01 -9.16023E-02
    9028.078     31.234   3.200  9.27990E-01  9.88959E-01 -6.09693E-02
    9029.060     32.215   3.240  9.61847E-01  9.89051E-01 -2.72041E-02
    9030.054     33.209   3.280  9.96248E-01  9.89238E-01  7.01009E-03
    9031.059     34.214   3.320  1.02791E+00  9.89476E-01  3.84350E-02
    9032.077     35.232   3.360  1.05341E+00  9.89784E-01  6.36233E-02
    9033.108     36.263   3.400  1.06997E+00  9.90139E-01  7.98310E-02
    9034.150     37.305   3.440  1.07700E+00  9.90543E-01  8.64563E-02
    9035.205     38.360   3.480  1.07595E+00  9.91016E-01  8.49303E-02
    9036.271     39.427   3.520  1.06941E+00  9.91556E-01  7.78543E-02
    9037.350     40.506   3.560  1.06035E+00  9.92120E-01  6.82266E-02
    9038.442     41.597   3.600  1.05134E+00  9.92745E-01  5.85908E-02
    9039.545     42.700   3.640  1.04399E+00  9.93410E-01  5.05829E-02
    9040.661     43.816   3.680  1.03912E+00  9.94114E-01  4.50101E-02
    9041.788     44.943   3.720  1.03694E+00  9.94831E-01  4.21127E-02
    9042.928     46.083   3.760  1.03732E+00  9.95580E-01  4.17434E-02
    9044.080     47.235   3.800  1.03980E+00  9.96363E-01  4.34365E-02
    9045.245     48.400   3.840  1.04369E+00  9.97154E-01  4.65351E-02
    9046.421     49.576   3.880  1.04863E+00  9.97973E-01  5.06561E-02
    9047.610     50.765   3.920  1.05468E+00  9.98796E-01  5.58864E-02
    9048.811     51.966   3.960  1.06230E+00  9.99623E-01  6.26806E-02
    9050.024     53.179   4.000  1.07191E+00  1.00047E+00  7.14419E-02
    9051.249     54.404   4.040  1.08320E+00  1.00129E+00  8.19104E-02
    9052.487     55.642   4.080  1.09492E+00  1.00211E+00  9.28119E-02
    9053.736     56.891   4.120  1.10461E+00  1.00292E+00  1.01687E-01
    9054.998     58.153   4.160  1.10929E+00  1.00370E+00  1.05588E-01
    9056.272     59.427   4.200  1.10679E+00  1.00447E+00  1.02315E-01
    9057.559     60.714   4.240  1.09683E+00  1.00521E+00  9.16259E-02
    9058.857     62.012   4.280  1.08134E+00  1.00593E+00  7.54057E-02
    9060.168     63.323   4.320  1.06305E+00  1.00661E+00  5.64334E-02
    9061.491     64.646   4.360  1.04429E+00  1.00726E+00  3.70292E-02
    9062.826     65.981   4.400  1.02633E+00  1.00787E+00  1.84615E-02
    9064.173     67.328   4.440  1.00943E+00  1.00843E+00  9.99421E-04
    9065.532     68.687   4.480  9.93262E-01  1.00895E+00 -1.56857E-02
    9066.904     70.059   4.520  9.77591E-01  1.00943E+00 -3.18340E-02
    9068.288     71.443   4.560  9.62637E-01  1.00986E+00 -4.72214E-02
    9069.684     72.839   4.600  9.49024E-01  1.01025E+00 -6.12227E-02
    9071.092     74.247   4.640  9.37237E-01  1.01057E+00 -7.33307E-02
    9072.512     75.667   4.680  9.27409E-01  1.01086E+00 -8.34546E-02
    9073.945     77.100   4.720  9.19383E-01  1.01109E+00 -9.17080E-02
    9075.389     78.544   4.760  9.13140E-01  1.01127E+00 -9.81311E-02
    9076.846     80.001   4.800  9.08682E-01  1.01138E+00 -1.02700E-01
    9078.315     81.470   4.840  9.06267E-01  1.01144E+00 -1.05178E-01
    9079.797     82.952   4.880  9.06663E-01  1.01146E+00 -1.04799E-01
    9081.290     84.445   4.920  9.11001E-01  1.01144E+00 -1.00435E-01
    9082.796     85.951   4.960  9.20006E-01  1.01137E+00 -9.13604E-02
    9084.314     87.469   5.000  9.33115E-01  1.01125E+00 -7.81353E-02
    9085.844     88.999   5.040  9.48476E-01  1.01107E+00 -6.25914E-02
    9087.386     90.541   5.080  9.64111E-01  1.01084E+00 -4.67306E-02
    9088.941     92.096   5.120  9.79074E-01  1.01059E+00 -3.15204E-02
    9090.507     93.662   5.160  9.93454E-01  1.01029E+00 -1.68320E-02
    9092.086     95.241   5.200  1.00729E+00  1.00994E+00 -2.64924E-03
    9093.677     96.832   5.240  1.01981E+00  1.00957E+00  1.02422E-02
    9095.281     98.436   5.280  1.03016E+00  1.00917E+00  2.09924E-02
    9096.896    100.051   5.320  1.03851E+00  1.00873E+00  2.97856E-02
    9098.524    101.679   5.360  1.04611E+00  1.00825E+00  3.78660E-02
    9100.163    103.318   5.400  1.05423E+00  1.00776E+00  4.64756E-02
    9101.815    104.970   5.440  1.06312E+00  1.00724E+00  5.58867E-02
    9103.480    106.635   5.480  1.07222E+00  1.00671E+00  6.55166E-02
    9105.156    108.311   5.520  1.08054E+00  1.00615E+00  7.43915E-02
    9106.845    110.000   5.560  1.08649E+00  1.00558E+00  8.09134E-02
    9108.545    111.700   5.600  1.08737E+00  1.00501E+00  8.23651E-02
    9110.258    113.413   5.640  1.08027E+00  1.00441E+00  7.58604E-02
    9111.983    115.139   5.680  1.06424E+00  1.00383E+00  6.04137E-02
    9113.721    116.876   5.720  1.04102E+00  1.00323E+00  3.77841E-02
    9115.470    118.625   5.760  1.01388E+00  1.00266E+00  1.12204E-02
    9117.232    120.387   5.800  9.86050E-01  1.00206E+00 -1.60086E-02
    9119.006    122.161   5.840  9.60641E-01  1.00149E+00 -4.08486E-02
    9120.792    123.947   5.880  9.40663E-01  1.00090E+00 -6.02392E-02
    9122.590    125.746   5.920  9.28779E-01  1.00035E+00 -7.15745E-02
    9124.401    127.556   5.960  9.26626E-01  9.99852E-01 -7.32260E-02
    9126.224    129.379   6.000  9.35412E-01  9.99338E-01 -6.39260E-02
