# # comment:                                                     FEFF 9.9.1  
# # Source:
# # Structure
# # Reduced
# # space
# # abc:
# # angles:
# # sites:
# # POT  SCF 100  7.0000   0, screened core-hole, AFOLP (folp(0)= 1.150)
# # Abs   Z=29 Rmt= 1.182 Rnm= 1.337 K  shell
# # Pot 1 Z=23 Rmt= 1.344 Rnm= 1.433
# # Pot 2 Z=26 Rmt= 1.288 Rnm= 1.373
# # Pot 3 Z=29 Rmt= 1.182 Rnm= 1.337
# # Pot 4 Z= 8 Rmt= 0.989 Rnm= 1.076
# # Gam_ch=1.729E+00 H-L exch Vi= 0.000E+00 Vr= 0.000E+00
# # Mu=-9.598E+00eV kf=2.172E+00 Vint=-1.860E+01eV Rs_int= 1.670
# FMS rfms= 9.0000
# # PATH  Rmax=-1.000,  Keep_limit= 0.00, Heap_limit 0.00  Pwcrit= 2.50%
#  S02=0.950  Temp=   0.00  Debye_temp=   0.00  Global_sig2= 0.00000
#  Energy zero shift, vr, vi    0.00000E+00   0.00000E+00
#  Curved wave amplitude ratio filter   4.000%
#     file         sig2 tot  cw amp ratio   deg  nlegs   reff  inp sig2
#     0/   0 paths used
#  xsedge+ 50, used to normalize mu           2.5054E-04
#  -----------------------------------------------------------------------
#  omega    e    k    mu    mu0     chi     @#
    8984.212    -13.408  -1.000  4.65250E-02  4.98855E-02 -3.36053E-03
    8984.511    -13.110  -0.960  4.99732E-02  5.34157E-02 -3.44244E-03
    8984.797    -12.823  -0.920  5.38492E-02  5.73320E-02 -3.48284E-03
    8985.072    -12.549  -0.880  5.82248E-02  6.16910E-02 -3.46620E-03
    8985.334    -12.287  -0.840  6.31852E-02  6.65582E-02 -3.37300E-03
    8985.584    -12.037  -0.800  6.88308E-02  7.20098E-02 -3.17903E-03
    8985.821    -11.799  -0.760  7.52783E-02  7.81330E-02 -2.85471E-03
    8986.047    -11.573  -0.720  8.26618E-02  8.50264E-02 -2.36461E-03
    8986.260    -11.360  -0.680  9.11312E-02  9.27985E-02 -1.66735E-03
    8986.461    -11.159  -0.640  1.00847E-01  1.01564E-01 -7.16277E-04
    8986.650    -10.970  -0.600  1.11973E-01  1.11434E-01  5.38664E-04
    8986.827    -10.793  -0.560  1.24653E-01  1.22506E-01  2.14719E-03
    8986.992    -10.628  -0.520  1.38988E-01  1.34835E-01  4.15258E-03
    8987.144    -10.476  -0.480  1.54991E-01  1.48408E-01  6.58283E-03
    8987.284    -10.336  -0.440  1.72547E-01  1.63107E-01  9.43974E-03
    8987.412    -10.208  -0.400  1.91363E-01  1.78676E-01  1.26874E-02
    8987.528    -10.092  -0.360  2.10959E-01  1.94715E-01  1.62441E-02
    8987.632     -9.988  -0.320  2.30685E-01  2.10705E-01  1.99808E-02
    8987.723     -9.897  -0.280  2.49799E-01  2.26067E-01  2.37322E-02
    8987.803     -9.818  -0.240  2.67565E-01  2.40248E-01  2.73169E-02
    8987.870     -9.751  -0.200  2.83345E-01  2.52781E-01  3.05645E-02
    8987.925     -9.696  -0.160  2.96665E-01  2.63325E-01  3.33400E-02
    8987.967     -9.653  -0.120  3.07219E-01  2.71661E-01  3.55575E-02
    8987.998     -9.623  -0.080  3.14841E-01  2.77668E-01  3.71726E-02
    8988.022     -9.598   0.000  3.20990E-01  2.82495E-01  3.84947E-02
    8988.077     -9.543   0.120  3.34160E-01  2.93382E-01  4.07775E-02
    8988.120     -9.501   0.160  3.44467E-01  3.01842E-01  4.26247E-02
    8988.174     -9.446   0.200  3.57549E-01  3.12658E-01  4.48910E-02
    8988.242     -9.379   0.240  3.73054E-01  3.25664E-01  4.73896E-02
    8988.321     -9.300   0.280  3.90396E-01  3.40627E-01  4.97684E-02
    8988.412     -9.208   0.320  4.08595E-01  3.57154E-01  5.14407E-02
    8988.516     -9.104   0.360  4.26292E-01  3.74761E-01  5.15305E-02
    8988.632     -8.989   0.400  4.41871E-01  3.92994E-01  4.88768E-02
    8988.760     -8.861   0.440  4.53494E-01  4.11362E-01  4.21327E-02
    8988.900     -8.720   0.480  4.59514E-01  4.29516E-01  2.99982E-02
    8989.052     -8.568   0.520  4.58847E-01  4.47258E-01  1.15889E-02
    8989.217     -8.403   0.560  4.51309E-01  4.64424E-01 -1.31151E-02
    8989.394     -8.227   0.600  4.38073E-01  4.81049E-01 -4.29764E-02
    8989.583     -8.038   0.640  4.21333E-01  4.97165E-01 -7.58325E-02
    8989.784     -7.836   0.680  4.03948E-01  5.12816E-01 -1.08868E-01
    8989.997     -7.623   0.720  3.88860E-01  5.28118E-01 -1.39258E-01
    8990.223     -7.398   0.760  3.78082E-01  5.43165E-01 -1.65083E-01
    8990.460     -7.160   0.800  3.71647E-01  5.57985E-01 -1.86338E-01
    8990.710     -6.910   0.840  3.67777E-01  5.72672E-01 -2.04895E-01
    8990.973     -6.648   0.880  3.64816E-01  5.87270E-01 -2.22454E-01
    8991.247     -6.373   0.920  3.63995E-01  6.01811E-01 -2.37815E-01
    8991.533     -6.087   0.960  3.68534E-01  6.16333E-01 -2.47800E-01
    8991.832     -5.788   1.000  3.79458E-01  6.30830E-01 -2.51372E-01
    8992.143     -5.477   1.040  3.93794E-01  6.45302E-01 -2.51508E-01
    8992.466     -5.154   1.080  4.07115E-01  6.59766E-01 -2.52651E-01
    8992.801     -4.819   1.120  4.16848E-01  6.74212E-01 -2.57365E-01
    8993.149     -4.472   1.160  4.22906E-01  6.88627E-01 -2.65721E-01
    8993.508     -4.112   1.200  4.26790E-01  7.02969E-01 -2.76179E-01
    8993.880     -3.740   1.240  4.32045E-01  7.17237E-01 -2.85192E-01
    8994.264     -3.356   1.280  4.43280E-01  7.31407E-01 -2.88127E-01
    8994.661     -2.960   1.320  4.63132E-01  7.45452E-01 -2.82321E-01
    8995.069     -2.551   1.360  4.91462E-01  7.59324E-01 -2.67861E-01
    8995.490     -2.131   1.400  5.29926E-01  7.73031E-01 -2.43106E-01
    8995.922     -1.698   1.440  5.84131E-01  7.86525E-01 -2.02394E-01
    8996.367     -1.253   1.480  6.56989E-01  7.99753E-01 -1.42764E-01
    8996.825     -0.796   1.520  7.41075E-01  8.12726E-01 -7.16506E-02
    8997.294     -0.326   1.560  8.19698E-01  8.25413E-01 -5.71462E-03
    8997.776      0.155   1.600  8.79960E-01  8.37763E-01  4.21977E-02
    8998.269      0.649   1.640  9.25911E-01  8.49785E-01  7.61259E-02
    8998.775      1.155   1.680  9.66361E-01  8.61430E-01  1.04931E-01
    8999.294      1.673   1.720  9.95880E-01  8.72669E-01  1.23211E-01
    8999.824      2.204   1.760  1.00088E+00  8.83516E-01  1.17364E-01
    9000.366      2.746   1.800  9.77200E-01  8.93941E-01  8.32586E-02
    9000.921      3.301   1.840  9.52368E-01  9.03940E-01  4.84281E-02
    9001.488      3.868   1.880  9.57782E-01  9.13468E-01  4.43138E-02
    9002.067      4.447   1.920  1.00206E+00  9.22560E-01  7.95021E-02
    9002.658      5.038   1.960  1.07582E+00  9.31173E-01  1.44645E-01
    9003.262      5.642   2.000  1.16018E+00  9.39308E-01  2.20867E-01
    9003.878      6.257   2.040  1.23218E+00  9.47002E-01  2.85182E-01
    9004.506      6.885   2.080  1.26954E+00  9.54196E-01  3.15345E-01
    9005.146      7.525   2.120  1.27111E+00  9.60933E-01  3.10181E-01
    9005.798      8.178   2.160  1.24051E+00  9.67215E-01  2.73293E-01
    9006.462      8.842   2.200  1.17730E+00  9.73044E-01  2.04253E-01
    9007.139      9.519   2.240  1.09984E+00  9.78404E-01  1.21431E-01
    9007.828     10.208   2.280  1.03188E+00  9.83321E-01  4.85640E-02
    9008.529     10.909   2.320  9.85528E-01  9.87820E-01 -2.29206E-03
    9009.242     11.622   2.360  9.61367E-01  9.91908E-01 -3.05405E-02
    9009.968     12.347   2.400  9.48438E-01  9.95570E-01 -4.71323E-02
    9010.705     13.085   2.440  9.26871E-01  9.98856E-01 -7.19847E-02
    9011.455     13.835   2.480  8.91481E-01  1.00177E+00 -1.10289E-01
    9012.217     14.597   2.520  8.63898E-01  1.00430E+00 -1.40403E-01
    9012.991     15.371   2.560  8.66236E-01  1.00650E+00 -1.40261E-01
    9013.778     16.157   2.600  9.14111E-01  1.00837E+00 -9.42576E-02
    9014.576     16.956   2.640  9.75220E-01  1.00992E+00 -3.47024E-02
    9015.387     17.767   2.680  1.03533E+00  1.01119E+00  2.41402E-02
    9016.210     18.590   2.720  1.08756E+00  1.01217E+00  7.53903E-02
    9017.045     19.425   2.760  1.13007E+00  1.01291E+00  1.17161E-01
    9017.892     20.272   2.800  1.16391E+00  1.01340E+00  1.50507E-01
    9018.752     21.132   2.840  1.18929E+00  1.01366E+00  1.75632E-01
    9019.624     22.003   2.880  1.20385E+00  1.01371E+00  1.90141E-01
    9020.508     22.887   2.920  1.20302E+00  1.01356E+00  1.89458E-01
    9021.404     23.783   2.960  1.18332E+00  1.01324E+00  1.70078E-01
    9022.312     24.692   3.000  1.14736E+00  1.01274E+00  1.34622E-01
    9023.232     25.612   3.040  1.10292E+00  1.01210E+00  9.08186E-02
    9024.165     26.545   3.080  1.05758E+00  1.01134E+00  4.62349E-02
    9025.110     27.490   3.120  1.01690E+00  1.01046E+00  6.44146E-03
    9026.067     28.447   3.160  9.83020E-01  1.00948E+00 -2.64621E-02
    9027.036     29.416   3.200  9.55446E-01  1.00840E+00 -5.29507E-02
    9028.018     30.397   3.240  9.33150E-01  1.00723E+00 -7.40792E-02
    9029.011     31.391   3.280  9.14988E-01  1.00599E+00 -9.09992E-02
    9030.017     32.397   3.320  9.00114E-01  1.00470E+00 -1.04581E-01
    9031.035     33.415   3.360  8.88195E-01  1.00336E+00 -1.15164E-01
    9032.065     34.445   3.400  8.79256E-01  1.00199E+00 -1.22730E-01
    9033.108     35.488   3.440  8.73328E-01  1.00060E+00 -1.27270E-01
    9034.162     36.542   3.480  8.70509E-01  9.99180E-01 -1.28672E-01
    9035.229     37.609   3.520  8.70998E-01  9.97756E-01 -1.26758E-01
    9036.308     38.688   3.560  8.74833E-01  9.96331E-01 -1.21498E-01
    9037.399     39.779   3.600  8.81967E-01  9.94906E-01 -1.12939E-01
    9038.503     40.883   3.640  8.92253E-01  9.93486E-01 -1.01233E-01
    9039.618     41.998   3.680  9.05378E-01  9.92094E-01 -8.67163E-02
    9040.746     43.126   3.720  9.20705E-01  9.90735E-01 -7.00300E-02
    9041.886     44.266   3.760  9.37323E-01  9.89390E-01 -5.20677E-02
    9043.038     45.418   3.800  9.54095E-01  9.88082E-01 -3.39861E-02
    9044.203     46.582   3.840  9.69701E-01  9.86831E-01 -1.71293E-02
    9045.379     47.759   3.880  9.82995E-01  9.85599E-01 -2.60437E-03
    9046.568     48.948   3.920  9.93293E-01  9.84410E-01  8.88294E-03
    9047.769     50.148   3.960  1.00034E+00  9.83286E-01  1.70562E-02
    9048.982     51.362   4.000  1.00442E+00  9.82208E-01  2.22111E-02
    9050.207     52.587   4.040  1.00641E+00  9.81196E-01  2.52154E-02
    9051.445     53.824   4.080  1.00739E+00  9.80232E-01  2.71623E-02
    9052.694     55.074   4.120  1.00829E+00  9.79315E-01  2.89702E-02
    9053.956     56.336   4.160  1.00957E+00  9.78468E-01  3.11023E-02
    9055.230     57.610   4.200  1.01105E+00  9.77693E-01  3.33590E-02
    9056.516     58.896   4.240  1.01187E+00  9.76966E-01  3.49035E-02
    9057.815     60.195   4.280  1.01111E+00  9.76310E-01  3.47996E-02
    9059.126     61.505   4.320  1.00832E+00  9.75704E-01  3.26120E-02
    9060.448     62.828   4.360  1.00383E+00  9.75167E-01  2.86617E-02
    9061.783     64.163   4.400  9.98316E-01  9.74680E-01  2.36368E-02
    9063.131     65.510   4.440  9.92259E-01  9.74264E-01  1.79946E-02
    9064.490     66.870   4.480  9.85783E-01  9.73919E-01  1.18643E-02
    9065.862     68.241   4.520  9.79151E-01  9.73620E-01  5.53047E-03
    9067.245     69.625   4.560  9.73189E-01  9.73369E-01 -1.79721E-04
    9068.641     71.021   4.600  9.69084E-01  9.73185E-01 -4.10126E-03
    9070.049     72.429   4.640  9.67853E-01  9.73048E-01 -5.19491E-03
    9071.470     73.850   4.680  9.70086E-01  9.72976E-01 -2.89009E-03
    9072.902     75.282   4.720  9.75659E-01  9.72927E-01  2.73183E-03
    9074.347     76.727   4.760  9.83851E-01  9.72942E-01  1.09091E-02
    9075.804     78.184   4.800  9.93400E-01  9.73001E-01  2.03990E-02
    9077.273     79.653   4.840  1.00288E+00  9.73123E-01  2.97550E-02
    9078.755     81.134   4.880  1.01072E+00  9.73262E-01  3.74566E-02
    9080.248     82.628   4.920  1.01557E+00  9.73438E-01  4.21277E-02
    9081.754     84.133   4.960  1.01671E+00  9.73652E-01  4.30545E-02
    9083.272     85.651   5.000  1.01447E+00  9.73903E-01  4.05681E-02
    9084.802     87.181   5.040  1.01008E+00  9.74189E-01  3.58958E-02
    9086.344     88.724   5.080  1.00509E+00  9.74486E-01  3.06058E-02
    9087.899     90.278   5.120  1.00096E+00  9.74816E-01  2.61401E-02
    9089.465     91.845   5.160  9.98692E-01  9.75177E-01  2.35156E-02
    9091.044     93.424   5.200  9.98699E-01  9.75543E-01  2.31552E-02
    9092.635     95.015   5.240  1.00075E+00  9.75915E-01  2.48355E-02
    9094.238     96.618   5.280  1.00382E+00  9.76289E-01  2.75261E-02
    9095.854     98.233   5.320  1.00634E+00  9.76688E-01  2.96562E-02
    9097.481     99.861   5.360  1.00695E+00  9.77090E-01  2.98556E-02
    9099.121    101.501   5.400  1.00515E+00  9.77469E-01  2.76795E-02
    9100.773    103.153   5.440  1.00132E+00  9.77869E-01  2.34467E-02
    9102.437    104.817   5.480  9.95667E-01  9.78267E-01  1.74003E-02
    9104.114    106.494   5.520  9.87914E-01  9.78638E-01  9.27567E-03
    9105.802    108.182   5.560  9.77843E-01  9.79003E-01 -1.16011E-03
    9107.503    109.883   5.600  9.65875E-01  9.79361E-01 -1.34860E-02
    9109.216    111.596   5.640  9.52780E-01  9.79690E-01 -2.69105E-02
    9110.941    113.321   5.680  9.39220E-01  9.80009E-01 -4.07893E-02
    9112.679    115.058   5.720  9.25797E-01  9.80297E-01 -5.44996E-02
    9114.428    116.808   5.760  9.13698E-01  9.80575E-01 -6.68769E-02
    9116.190    118.570   5.800  9.04525E-01  9.80817E-01 -7.62922E-02
    9117.964    120.344   5.840  8.99475E-01  9.81025E-01 -8.15499E-02
    9119.750    122.130   5.880  8.98728E-01  9.81217E-01 -8.24890E-02
    9121.548    123.928   5.920  9.01555E-01  9.81347E-01 -7.97927E-02
    9123.359    125.738   5.960  9.07228E-01  9.81459E-01 -7.42314E-02
    9125.181    127.561   6.000  9.15808E-01  9.81518E-01 -6.57099E-02
