# # comment:                                                     FEFF 9.9.1  
# # Source:
# # Structure
# # Reduced
# # space
# # abc:
# # angles:
# # sites:
# # POT  SCF 100  7.0000   0, screened core-hole, AFOLP (folp(0)= 1.150)
# # Abs   Z=29 Rmt= 1.237 Rnm= 1.320 K  shell
# # Pot 1 Z= 3 Rmt= 1.239 Rnm= 1.285
# # Pot 2 Z=24 Rmt= 1.236 Rnm= 1.357
# # Pot 3 Z=29 Rmt= 1.238 Rnm= 1.321
# # Pot 4 Z= 8 Rmt= 1.022 Rnm= 1.096
# # Gam_ch=1.729E+00 H-L exch Vi= 0.000E+00 Vr= 0.000E+00
# # Mu=-1.096E+01eV kf=2.189E+00 Vint=-1.867E+01eV Rs_int= 1.656
# FMS rfms= 9.0000
# # PATH  Rmax=-1.000,  Keep_limit= 0.00, Heap_limit 0.00  Pwcrit= 2.50%
#  S02=0.950  Temp=   0.00  Debye_temp=   0.00  Global_sig2= 0.00000
#  Energy zero shift, vr, vi    0.00000E+00   0.00000E+00
#  Curved wave amplitude ratio filter   4.000%
#     file         sig2 tot  cw amp ratio   deg  nlegs   reff  inp sig2
#     0/   0 paths used
#  xsedge+ 50, used to normalize mu           2.5094E-04
#  -----------------------------------------------------------------------
#  omega    e    k    mu    mu0     chi     @#
    8984.337    -14.766  -1.000  3.13286E-02  4.52356E-02 -1.39070E-02
    8984.636    -14.467  -0.960  3.29279E-02  4.83064E-02 -1.53786E-02
    8984.922    -14.181  -0.920  3.46697E-02  5.17026E-02 -1.70329E-02
    8985.197    -13.906  -0.880  3.65759E-02  5.54709E-02 -1.88949E-02
    8985.459    -13.644  -0.840  3.86730E-02  5.96654E-02 -2.09924E-02
    8985.709    -13.394  -0.800  4.09922E-02  6.43489E-02 -2.33567E-02
    8985.947    -13.157  -0.760  4.35709E-02  6.95933E-02 -2.60224E-02
    8986.172    -12.931  -0.720  4.64526E-02  7.54795E-02 -2.90269E-02
    8986.385    -12.718  -0.680  4.96867E-02  8.20965E-02 -3.24099E-02
    8986.587    -12.516  -0.640  5.33269E-02  8.95381E-02 -3.62112E-02
    8986.776    -12.327  -0.600  5.74271E-02  9.78959E-02 -4.04688E-02
    8986.952    -12.151  -0.560  6.20336E-02  1.07248E-01 -4.52140E-02
    8987.117    -11.986  -0.520  6.71725E-02  1.17639E-01 -5.04662E-02
    8987.269    -11.834  -0.480  7.28315E-02  1.29057E-01 -5.62250E-02
    8987.410    -11.693  -0.440  7.89405E-02  1.41401E-01 -6.24609E-02
    8987.538    -11.565  -0.400  8.53553E-02  1.54462E-01 -6.91067E-02
    8987.653    -11.450  -0.360  9.18573E-02  1.67907E-01 -7.60492E-02
    8987.757    -11.346  -0.320  9.81777E-02  1.81305E-01 -8.31272E-02
    8987.849    -11.255  -0.280  1.04042E-01  1.94178E-01 -9.01360E-02
    8987.928    -11.175  -0.240  1.09224E-01  2.06066E-01 -9.68412E-02
    8987.995    -11.108  -0.200  1.13579E-01  2.16578E-01 -1.02999E-01
    8988.050    -11.053  -0.160  1.17053E-01  2.25429E-01 -1.08376E-01
    8988.092    -11.011  -0.120  1.19662E-01  2.32432E-01 -1.12770E-01
    8988.123    -10.980  -0.080  1.21455E-01  2.37481E-01 -1.16025E-01
    8988.147    -10.956   0.000  1.22818E-01  2.41541E-01 -1.18723E-01
    8988.202    -10.901   0.120  1.25719E-01  2.50713E-01 -1.24994E-01
    8988.245    -10.858   0.160  1.27853E-01  2.57853E-01 -1.30000E-01
    8988.300    -10.803   0.200  1.30341E-01  2.66970E-01 -1.36628E-01
    8988.367    -10.736   0.240  1.33003E-01  2.77973E-01 -1.44970E-01
    8988.446    -10.657   0.280  1.35582E-01  2.90664E-01 -1.55082E-01
    8988.537    -10.566   0.320  1.37842E-01  3.04751E-01 -1.66909E-01
    8988.641    -10.462   0.360  1.39618E-01  3.19846E-01 -1.80227E-01
    8988.757    -10.346   0.400  1.40965E-01  3.35554E-01 -1.94589E-01
    8988.885    -10.218   0.440  1.42220E-01  3.51519E-01 -2.09299E-01
    8989.025    -10.078   0.480  1.43989E-01  3.67483E-01 -2.23494E-01
    8989.177     -9.926   0.520  1.46952E-01  3.83231E-01 -2.36279E-01
    8989.342     -9.761   0.560  1.51789E-01  3.98682E-01 -2.46894E-01
    8989.519     -9.584   0.600  1.58909E-01  4.13853E-01 -2.54944E-01
    8989.708     -9.395   0.640  1.68103E-01  4.28747E-01 -2.60643E-01
    8989.909     -9.194   0.680  1.78507E-01  4.43450E-01 -2.64943E-01
    8990.122     -8.981   0.720  1.88455E-01  4.58000E-01 -2.69545E-01
    8990.348     -8.755   0.760  1.96367E-01  4.72494E-01 -2.76127E-01
    8990.586     -8.517   0.800  2.01507E-01  4.86980E-01 -2.85474E-01
    8990.836     -8.268   0.840  2.04143E-01  5.01496E-01 -2.97353E-01
    8991.098     -8.005   0.880  2.05263E-01  5.16071E-01 -3.10808E-01
    8991.372     -7.731   0.920  2.07207E-01  5.30744E-01 -3.23537E-01
    8991.659     -7.445   0.960  2.13804E-01  5.45545E-01 -3.31741E-01
    8991.957     -7.146   1.000  2.28953E-01  5.60437E-01 -3.31484E-01
    8992.268     -6.835   1.040  2.55746E-01  5.75454E-01 -3.19708E-01
    8992.591     -6.512   1.080  2.95415E-01  5.90565E-01 -2.95149E-01
    8992.926     -6.177   1.120  3.43662E-01  6.05774E-01 -2.62113E-01
    8993.274     -5.829   1.160  3.87765E-01  6.21062E-01 -2.33297E-01
    8993.634     -5.469   1.200  4.15612E-01  6.36382E-01 -2.20771E-01
    8994.005     -5.098   1.240  4.26900E-01  6.51711E-01 -2.24811E-01
    8994.390     -4.714   1.280  4.23002E-01  6.67038E-01 -2.44036E-01
    8994.786     -4.317   1.320  4.08614E-01  6.82334E-01 -2.73720E-01
    8995.194     -3.909   1.360  3.99867E-01  6.97545E-01 -2.97677E-01
    8995.615     -3.488   1.400  4.06269E-01  7.12658E-01 -3.06389E-01
    8996.048     -3.055   1.440  4.29272E-01  7.27598E-01 -2.98326E-01
    8996.493     -2.610   1.480  4.73666E-01  7.42391E-01 -2.68725E-01
    8996.950     -2.153   1.520  5.45439E-01  7.56964E-01 -2.11524E-01
    8997.419     -1.684   1.560  6.41708E-01  7.71279E-01 -1.29572E-01
    8997.901     -1.202   1.600  7.51112E-01  7.85323E-01 -3.42109E-02
    8998.395     -0.709   1.640  8.52198E-01  7.99063E-01  5.31350E-02
    8998.901     -0.203   1.680  9.02715E-01  8.12444E-01  9.02713E-02
    8999.419      0.316   1.720  8.91299E-01  8.25475E-01  6.58247E-02
    8999.949      0.846   1.760  8.60731E-01  8.38124E-01  2.26065E-02
    9000.492      1.388   1.800  8.43206E-01  8.50362E-01 -7.15608E-03
    9001.046      1.943   1.840  8.46375E-01  8.62158E-01 -1.57826E-02
    9001.613      2.510   1.880  8.74914E-01  8.73503E-01  1.41037E-03
    9002.192      3.089   1.920  9.31796E-01  8.84390E-01  4.74052E-02
    9002.784      3.681   1.960  1.00825E+00  8.94795E-01  1.13452E-01
    9003.387      4.284   2.000  1.09594E+00  9.04693E-01  1.91250E-01
    9004.003      4.900   2.040  1.19343E+00  9.14120E-01  2.79314E-01
    9004.631      5.528   2.080  1.28314E+00  9.23055E-01  3.60084E-01
    9005.271      6.168   2.120  1.33233E+00  9.31477E-01  4.00853E-01
    9005.923      6.820   2.160  1.33636E+00  9.39384E-01  3.96973E-01
    9006.588      7.484   2.200  1.32992E+00  9.46800E-01  3.83123E-01
    9007.264      8.161   2.240  1.34147E+00  9.53727E-01  3.87747E-01
    9007.953      8.850   2.280  1.36534E+00  9.60169E-01  4.05166E-01
    9008.654      9.551   2.320  1.37071E+00  9.66130E-01  4.04577E-01
    9009.367     10.264   2.360  1.32264E+00  9.71614E-01  3.51025E-01
    9010.093     10.990   2.400  1.22082E+00  9.76648E-01  2.44167E-01
    9010.830     11.727   2.440  1.09811E+00  9.81238E-01  1.16877E-01
    9011.580     12.477   2.480  9.92421E-01  9.85389E-01  7.03160E-03
    9012.342     13.239   2.520  9.28838E-01  9.89111E-01 -6.02730E-02
    9013.116     14.013   2.560  9.10462E-01  9.92452E-01 -8.19895E-02
    9013.903     14.800   2.600  9.29425E-01  9.95400E-01 -6.59745E-02
    9014.701     15.598   2.640  9.58920E-01  9.97984E-01 -3.90635E-02
    9015.512     16.409   2.680  9.78567E-01  1.00023E+00 -2.16659E-02
    9016.335     17.232   2.720  9.85269E-01  1.00214E+00 -1.68661E-02
    9017.170     18.067   2.760  9.82658E-01  1.00372E+00 -2.10603E-02
    9018.018     18.914   2.800  9.74862E-01  1.00501E+00 -3.01524E-02
    9018.877     19.774   2.840  9.65279E-01  1.00605E+00 -4.07713E-02
    9019.749     20.646   2.880  9.56391E-01  1.00680E+00 -5.04048E-02
    9020.633     21.530   2.920  9.49058E-01  1.00732E+00 -5.82618E-02
    9021.529     22.426   2.960  9.43605E-01  1.00761E+00 -6.40062E-02
    9022.437     23.334   3.000  9.39749E-01  1.00770E+00 -6.79488E-02
    9023.358     24.254   3.040  9.36625E-01  1.00761E+00 -7.09840E-02
    9024.290     25.187   3.080  9.33297E-01  1.00733E+00 -7.40367E-02
    9025.235     26.132   3.120  9.28856E-01  1.00690E+00 -7.80396E-02
    9026.192     27.089   3.160  9.22783E-01  1.00633E+00 -8.35432E-02
    9027.161     28.058   3.200  9.15661E-01  1.00561E+00 -8.99509E-02
    9028.143     29.040   3.240  9.09084E-01  1.00480E+00 -9.57158E-02
    9029.137     30.033   3.280  9.04409E-01  1.00387E+00 -9.94655E-02
    9030.142     31.039   3.320  9.02332E-01  1.00287E+00 -1.00533E-01
    9031.160     32.057   3.360  9.02695E-01  1.00178E+00 -9.90819E-02
    9032.191     33.088   3.400  9.04683E-01  1.00064E+00 -9.59532E-02
    9033.233     34.130   3.440  9.07214E-01  9.99428E-01 -9.22141E-02
    9034.288     35.185   3.480  9.09340E-01  9.98178E-01 -8.88383E-02
    9035.354     36.251   3.520  9.10509E-01  9.96913E-01 -8.64033E-02
    9036.433     37.330   3.560  9.10743E-01  9.95615E-01 -8.48724E-02
    9037.525     38.422   3.600  9.11013E-01  9.94309E-01 -8.32964E-02
    9038.628     39.525   3.640  9.12622E-01  9.93000E-01 -8.03777E-02
    9039.744     40.640   3.680  9.16461E-01  9.91670E-01 -7.52087E-02
    9040.871     41.768   3.720  9.22703E-01  9.90363E-01 -6.76606E-02
    9042.011     42.908   3.760  9.31108E-01  9.89085E-01 -5.79770E-02
    9043.163     44.060   3.800  9.41234E-01  9.87817E-01 -4.65827E-02
    9044.328     45.225   3.840  9.52554E-01  9.86582E-01 -3.40276E-02
    9045.504     46.401   3.880  9.64372E-01  9.85360E-01 -2.09883E-02
    9046.693     47.590   3.920  9.76104E-01  9.84197E-01 -8.09318E-03
    9047.894     48.791   3.960  9.87508E-01  9.83073E-01  4.43500E-03
    9049.107     50.004   4.000  9.98903E-01  9.81968E-01  1.69346E-02
    9050.332     51.229   4.040  1.01079E+00  9.80927E-01  2.98604E-02
    9051.570     52.467   4.080  1.02303E+00  9.79931E-01  4.31019E-02
    9052.819     53.716   4.120  1.03489E+00  9.79002E-01  5.58902E-02
    9054.081     54.978   4.160  1.04548E+00  9.78120E-01  6.73636E-02
    9055.355     56.252   4.200  1.05433E+00  9.77304E-01  7.70283E-02
    9056.642     57.539   4.240  1.06164E+00  9.76515E-01  8.51239E-02
    9057.940     58.837   4.280  1.06829E+00  9.75816E-01  9.24769E-02
    9059.251     60.148   4.320  1.07506E+00  9.75166E-01  9.98925E-02
    9060.574     61.470   4.360  1.08215E+00  9.74564E-01  1.07583E-01
    9061.909     62.805   4.400  1.08900E+00  9.74033E-01  1.14966E-01
    9063.256     64.153   4.440  1.09445E+00  9.73573E-01  1.20873E-01
    9064.615     65.512   4.480  1.09689E+00  9.73162E-01  1.23725E-01
    9065.987     66.884   4.520  1.09456E+00  9.72819E-01  1.21746E-01
    9067.371     68.267   4.560  1.08584E+00  9.72523E-01  1.13316E-01
    9068.766     69.663   4.600  1.06990E+00  9.72274E-01  9.76239E-02
    9070.175     71.072   4.640  1.04751E+00  9.72092E-01  7.54142E-02
    9071.595     72.492   4.680  1.02108E+00  9.71958E-01  4.91216E-02
    9073.028     73.924   4.720  9.94001E-01  9.71889E-01  2.21118E-02
    9074.472     75.369   4.760  9.69306E-01  9.71865E-01 -2.55954E-03
    9075.929     76.826   4.800  9.48930E-01  9.71884E-01 -2.29538E-02
    9077.398     78.295   4.840  9.33437E-01  9.71945E-01 -3.85081E-02
    9078.880     79.777   4.880  9.22427E-01  9.72067E-01 -4.96403E-02
    9080.373     81.270   4.920  9.15083E-01  9.72207E-01 -5.71241E-02
    9081.879     82.776   4.960  9.10877E-01  9.72385E-01 -6.15076E-02
    9083.397     84.294   5.000  9.09612E-01  9.72599E-01 -6.29871E-02
    9084.927     85.824   5.040  9.11171E-01  9.72852E-01 -6.16808E-02
    9086.469     87.366   5.080  9.15239E-01  9.73140E-01 -5.79013E-02
    9088.024     88.921   5.120  9.21211E-01  9.73461E-01 -5.22505E-02
    9089.590     90.487   5.160  9.28282E-01  9.73792E-01 -4.55096E-02
    9091.169     92.066   5.200  9.35726E-01  9.74128E-01 -3.84024E-02
    9092.760     93.657   5.240  9.43185E-01  9.74493E-01 -3.13079E-02
    9094.363     95.260   5.280  9.50640E-01  9.74865E-01 -2.42256E-02
    9095.979     96.876   5.320  9.58206E-01  9.75263E-01 -1.70572E-02
    9097.607     98.503   5.360  9.65815E-01  9.75641E-01 -9.82601E-03
    9099.246    100.143   5.400  9.73082E-01  9.76042E-01 -2.95996E-03
    9100.898    101.795   5.440  9.79129E-01  9.76445E-01  2.68492E-03
    9102.563    103.459   5.480  9.82896E-01  9.76844E-01  6.05205E-03
    9104.239    105.136   5.520  9.83476E-01  9.77218E-01  6.25877E-03
    9105.928    106.824   5.560  9.80624E-01  9.77587E-01  3.03702E-03
    9107.628    108.525   5.600  9.75114E-01  9.77974E-01 -2.85957E-03
    9109.341    110.238   5.640  9.68409E-01  9.78308E-01 -9.89934E-03
    9111.066    111.963   5.680  9.62132E-01  9.78634E-01 -1.65028E-02
    9112.804    113.701   5.720  9.57162E-01  9.78951E-01 -2.17891E-02
    9114.553    115.450   5.760  9.53450E-01  9.79237E-01 -2.57865E-02
    9116.315    117.212   5.800  9.50426E-01  9.79510E-01 -2.90838E-02
    9118.089    118.986   5.840  9.47397E-01  9.79724E-01 -3.23270E-02
    9119.875    120.772   5.880  9.43902E-01  9.79924E-01 -3.60217E-02
    9121.673    122.570   5.920  9.39623E-01  9.80087E-01 -4.04638E-02
    9123.484    124.381   5.960  9.34780E-01  9.80233E-01 -4.54527E-02
    9125.307    126.204   6.000  9.30503E-01  9.80298E-01 -4.97955E-02
