# # comment:                                                     FEFF 9.9.1  
# # Source:
# # Structure
# # Reduced
# # space
# # abc:
# # angles:
# # sites:
# # POT  SCF 100  7.0000   0, screened core-hole, AFOLP (folp(0)= 1.150)
# # Abs   Z=29 Rmt= 1.224 Rnm= 1.318 K  shell
# # Pot 1 Z=23 Rmt= 1.102 Rnm= 1.315
# # Pot 2 Z=29 Rmt= 1.203 Rnm= 1.304
# # Pot 3 Z= 8 Rmt= 0.922 Rnm= 1.092
# # Gam_ch=1.729E+00 H-L exch Vi= 0.000E+00 Vr= 0.000E+00
# # Mu=-7.954E+00eV kf=2.249E+00 Vint=-1.665E+01eV Rs_int= 1.612
# FMS rfms= 9.0000
# # PATH  Rmax=-1.000,  Keep_limit= 0.00, Heap_limit 0.00  Pwcrit= 2.50%
#  S02=0.950  Temp=   0.00  Debye_temp=   0.00  Global_sig2= 0.00000
#  Energy zero shift, vr, vi    0.00000E+00   0.00000E+00
#  Curved wave amplitude ratio filter   4.000%
#     file         sig2 tot  cw amp ratio   deg  nlegs   reff  inp sig2
#     0/   0 paths used
#  xsedge+ 50, used to normalize mu           2.4640E-04
#  -----------------------------------------------------------------------
#  omega    e    k    mu    mu0     chi     @#
    8983.826    -11.764  -1.000  4.01182E-02  5.31746E-02 -1.30564E-02
    8984.124    -11.466  -0.960  4.24571E-02  5.70155E-02 -1.45584E-02
    8984.411    -11.179  -0.920  4.50087E-02  6.12816E-02 -1.62729E-02
    8984.685    -10.905  -0.880  4.78005E-02  6.60353E-02 -1.82347E-02
    8984.947    -10.643  -0.840  5.08642E-02  7.13492E-02 -2.04850E-02
    8985.197    -10.393  -0.800  5.42357E-02  7.73075E-02 -2.30718E-02
    8985.435    -10.155  -0.760  5.79556E-02  8.40066E-02 -2.60510E-02
    8985.661     -9.929  -0.720  6.20690E-02  9.15557E-02 -2.94867E-02
    8985.874     -9.716  -0.680  6.66248E-02  1.00075E-01 -3.34498E-02
    8986.075     -9.515  -0.640  7.16734E-02  1.09690E-01 -3.80168E-02
    8986.264     -9.326  -0.600  7.72635E-02  1.20527E-01 -4.32631E-02
    8986.441     -9.149  -0.560  8.34355E-02  1.32690E-01 -4.92544E-02
    8986.605     -8.985  -0.520  9.02126E-02  1.46243E-01 -5.60304E-02
    8986.758     -8.832  -0.480  9.75877E-02  1.61171E-01 -6.35838E-02
    8986.898     -8.692  -0.440  1.05509E-01  1.77344E-01 -7.18353E-02
    8987.026     -8.564  -0.400  1.13867E-01  1.94481E-01 -8.06140E-02
    8987.142     -8.448  -0.360  1.22485E-01  2.12139E-01 -8.96544E-02
    8987.246     -8.344  -0.320  1.31127E-01  2.29746E-01 -9.86188E-02
    8987.337     -8.253  -0.280  1.39518E-01  2.46664E-01 -1.07146E-01
    8987.416     -8.174  -0.240  1.47371E-01  2.62282E-01 -1.14910E-01
    8987.483     -8.107  -0.200  1.54423E-01  2.76085E-01 -1.21662E-01
    8987.538     -8.052  -0.160  1.60453E-01  2.87697E-01 -1.27244E-01
    8987.581     -8.009  -0.120  1.65298E-01  2.96877E-01 -1.31579E-01
    8987.611     -7.979  -0.080  1.68848E-01  3.03491E-01 -1.34643E-01
    8987.636     -7.954   0.000  1.71777E-01  3.08805E-01 -1.37028E-01
    8987.691     -7.899   0.120  1.78161E-01  3.20795E-01 -1.42634E-01
    8987.733     -7.857   0.160  1.83165E-01  3.30121E-01 -1.46956E-01
    8987.788     -7.802   0.200  1.89613E-01  3.42011E-01 -1.52397E-01
    8987.855     -7.735   0.240  1.97500E-01  3.56328E-01 -1.58828E-01
    8987.934     -7.656   0.280  2.06775E-01  3.72791E-01 -1.66016E-01
    8988.026     -7.564   0.320  2.17264E-01  3.90947E-01 -1.73683E-01
    8988.129     -7.461   0.360  2.28812E-01  4.10322E-01 -1.81509E-01
    8988.245     -7.345   0.400  2.41235E-01  4.30329E-01 -1.89094E-01
    8988.373     -7.217   0.440  2.54457E-01  4.50491E-01 -1.96033E-01
    8988.513     -7.076   0.480  2.68427E-01  4.70377E-01 -2.01950E-01
    8988.666     -6.924   0.520  2.82966E-01  4.89744E-01 -2.06777E-01
    8988.830     -6.759   0.560  2.97410E-01  5.08479E-01 -2.11069E-01
    8989.007     -6.583   0.600  3.10459E-01  5.26548E-01 -2.16089E-01
    8989.196     -6.394   0.640  3.20744E-01  5.44007E-01 -2.23263E-01
    8989.397     -6.193   0.680  3.27951E-01  5.60927E-01 -2.32976E-01
    8989.611     -5.979   0.720  3.33954E-01  5.77369E-01 -2.43416E-01
    8989.836     -5.754   0.760  3.42584E-01  5.93455E-01 -2.50871E-01
    8990.074     -5.516   0.800  3.57725E-01  6.09236E-01 -2.51511E-01
    8990.324     -5.266   0.840  3.81112E-01  6.24791E-01 -2.43679E-01
    8990.586     -5.004   0.880  4.10346E-01  6.40127E-01 -2.29782E-01
    8990.860     -4.730   0.920  4.38278E-01  6.55337E-01 -2.17059E-01
    8991.147     -4.443   0.960  4.56221E-01  6.70382E-01 -2.14161E-01
    8991.446     -4.144   1.000  4.61856E-01  6.85313E-01 -2.23457E-01
    8991.757     -3.833   1.040  4.60985E-01  7.00111E-01 -2.39127E-01
    8992.080     -3.510   1.080  4.60705E-01  7.14793E-01 -2.54089E-01
    8992.415     -3.175   1.120  4.64527E-01  7.29306E-01 -2.64780E-01
    8992.762     -2.828   1.160  4.74170E-01  7.43656E-01 -2.69487E-01
    8993.122     -2.468   1.200  4.90013E-01  7.57821E-01 -2.67808E-01
    8993.494     -2.096   1.240  5.09808E-01  7.71777E-01 -2.61969E-01
    8993.878     -1.712   1.280  5.30826E-01  7.85481E-01 -2.54654E-01
    8994.274     -1.316   1.320  5.50489E-01  7.98924E-01 -2.48435E-01
    8994.683     -0.907   1.360  5.64181E-01  8.12080E-01 -2.47899E-01
    8995.103     -0.487   1.400  5.71493E-01  8.24899E-01 -2.53406E-01
    8995.536     -0.054   1.440  5.81863E-01  8.37371E-01 -2.55508E-01
    8995.981      0.391   1.480  6.05971E-01  8.49488E-01 -2.43517E-01
    8996.438      0.848   1.520  6.45722E-01  8.61202E-01 -2.15480E-01
    8996.908      1.318   1.560  6.94467E-01  8.72483E-01 -1.78016E-01
    8997.389      1.799   1.600  7.45091E-01  8.83348E-01 -1.38257E-01
    8997.883      2.293   1.640  7.99210E-01  8.93767E-01 -9.45577E-02
    8998.389      2.799   1.680  8.63475E-01  9.03697E-01 -4.02216E-02
    8998.907      3.317   1.720  9.43690E-01  9.13172E-01  3.05180E-02
    8999.437      3.848   1.760  1.04405E+00  9.22151E-01  1.21902E-01
    8999.980      4.390   1.800  1.16147E+00  9.30653E-01  2.30820E-01
    9000.535      4.945   1.840  1.28457E+00  9.38677E-01  3.45891E-01
    9001.102      5.512   1.880  1.40419E+00  9.46185E-01  4.58009E-01
    9001.681      6.091   1.920  1.50657E+00  9.53218E-01  5.53349E-01
    9002.272      6.682   1.960  1.56473E+00  9.59779E-01  6.04946E-01
    9002.876      7.286   2.000  1.55934E+00  9.65853E-01  5.93485E-01
    9003.491      7.901   2.040  1.49737E+00  9.71443E-01  5.25931E-01
    9004.119      8.529   2.080  1.40675E+00  9.76598E-01  4.30148E-01
    9004.759      9.169   2.120  1.31704E+00  9.81324E-01  3.35715E-01
    9005.412      9.822   2.160  1.24139E+00  9.85587E-01  2.55804E-01
    9006.076     10.486   2.200  1.17854E+00  9.89457E-01  1.89080E-01
    9006.753     11.163   2.240  1.12396E+00  9.92942E-01  1.31019E-01
    9007.441     11.852   2.280  1.07558E+00  9.96030E-01  7.95544E-02
    9008.143     12.553   2.320  1.03449E+00  9.98751E-01  3.57347E-02
    9008.856     13.266   2.360  1.00185E+00  1.00114E+00  7.13079E-04
    9009.581     13.991   2.400  9.80521E-01  1.00319E+00 -2.26682E-02
    9010.319     14.729   2.440  9.74370E-01  1.00495E+00 -3.05768E-02
    9011.069     15.479   2.480  9.84668E-01  1.00642E+00 -2.17479E-02
    9011.831     16.241   2.520  1.00860E+00  1.00761E+00  9.98460E-04
    9012.605     17.015   2.560  1.03785E+00  1.00855E+00  2.92987E-02
    9013.391     17.801   2.600  1.06311E+00  1.00927E+00  5.38435E-02
    9014.190     18.600   2.640  1.08067E+00  1.00976E+00  7.09166E-02
    9015.000     19.411   2.680  1.08604E+00  1.01006E+00  7.59727E-02
    9015.823     20.234   2.720  1.08198E+00  1.01018E+00  7.18030E-02
    9016.659     21.069   2.760  1.07104E+00  1.01013E+00  6.09124E-02
    9017.506     21.916   2.800  1.05454E+00  1.00994E+00  4.45936E-02
    9018.365     22.776   2.840  1.03365E+00  1.00963E+00  2.40201E-02
    9019.237     23.647   2.880  1.01006E+00  1.00920E+00  8.62170E-04
    9020.121     24.531   2.920  9.85275E-01  1.00868E+00 -2.34034E-02
    9021.017     25.427   2.960  9.60924E-01  1.00805E+00 -4.71221E-02
    9021.926     26.336   3.000  9.38460E-01  1.00736E+00 -6.88963E-02
    9022.846     27.256   3.040  9.18786E-01  1.00659E+00 -8.78067E-02
    9023.779     28.189   3.080  9.02642E-01  1.00578E+00 -1.03141E-01
    9024.724     29.134   3.120  8.90343E-01  1.00493E+00 -1.14588E-01
    9025.681     30.091   3.160  8.81731E-01  1.00406E+00 -1.22333E-01
    9026.650     31.060   3.200  8.76417E-01  1.00316E+00 -1.26745E-01
    9027.631     32.041   3.240  8.73886E-01  1.00223E+00 -1.28347E-01
    9028.625     33.035   3.280  8.73598E-01  1.00132E+00 -1.27725E-01
    9029.631     34.041   3.320  8.75187E-01  1.00041E+00 -1.25226E-01
    9030.649     35.059   3.360  8.78387E-01  9.99505E-01 -1.21118E-01
    9031.679     36.089   3.400  8.82657E-01  9.98605E-01 -1.15948E-01
    9032.721     37.132   3.440  8.87486E-01  9.97736E-01 -1.10250E-01
    9033.776     38.186   3.480  8.92723E-01  9.96901E-01 -1.04178E-01
    9034.843     39.253   3.520  8.98497E-01  9.96103E-01 -9.76063E-02
    9035.922     40.332   3.560  9.05056E-01  9.95342E-01 -9.02867E-02
    9037.013     41.423   3.600  9.12631E-01  9.94600E-01 -8.19695E-02
    9038.116     42.526   3.640  9.21345E-01  9.93919E-01 -7.25743E-02
    9039.232     43.642   3.680  9.31070E-01  9.93283E-01 -6.22132E-02
    9040.360     44.770   3.720  9.41644E-01  9.92712E-01 -5.10679E-02
    9041.500     45.910   3.760  9.52980E-01  9.92163E-01 -3.91827E-02
    9042.652     47.062   3.800  9.65080E-01  9.91681E-01 -2.66006E-02
    9043.816     48.226   3.840  9.77843E-01  9.91245E-01 -1.34024E-02
    9044.993     49.403   3.880  9.91188E-01  9.90876E-01  3.12046E-04
    9046.181     50.591   3.920  1.00486E+00  9.90553E-01  1.43111E-02
    9047.382     51.792   3.960  1.01838E+00  9.90277E-01  2.81008E-02
    9048.595     53.005   4.000  1.03104E+00  9.90070E-01  4.09679E-02
    9049.821     54.231   4.040  1.04214E+00  9.89907E-01  5.22364E-02
    9051.058     55.468   4.080  1.05118E+00  9.89791E-01  6.13852E-02
    9052.308     56.718   4.120  1.05796E+00  9.89741E-01  6.82177E-02
    9053.570     57.980   4.160  1.06263E+00  9.89737E-01  7.28926E-02
    9054.844     59.254   4.200  1.06538E+00  9.89777E-01  7.56011E-02
    9056.130     60.540   4.240  1.06631E+00  9.89884E-01  7.64213E-02
    9057.428     61.839   4.280  1.06547E+00  9.90032E-01  7.54395E-02
    9058.739     63.149   4.320  1.06308E+00  9.90198E-01  7.28835E-02
    9060.062     64.472   4.360  1.05960E+00  9.90426E-01  6.91777E-02
    9061.397     65.807   4.400  1.05552E+00  9.90694E-01  6.48278E-02
    9062.744     67.154   4.440  1.05127E+00  9.90977E-01  6.02967E-02
    9064.104     68.514   4.480  1.04712E+00  9.91318E-01  5.58066E-02
    9065.475     69.885   4.520  1.04307E+00  9.91673E-01  5.14002E-02
    9066.859     71.269   4.560  1.03915E+00  9.92060E-01  4.70935E-02
    9068.255     72.665   4.600  1.03542E+00  9.92458E-01  4.29608E-02
    9069.663     74.073   4.640  1.03207E+00  9.92889E-01  3.91834E-02
    9071.083     75.494   4.680  1.02937E+00  9.93350E-01  3.60248E-02
    9072.516     76.926   4.720  1.02749E+00  9.93816E-01  3.36754E-02
    9073.961     78.371   4.760  1.02649E+00  9.94286E-01  3.22066E-02
    9075.418     79.828   4.800  1.02626E+00  9.94759E-01  3.14968E-02
    9076.887     81.297   4.840  1.02635E+00  9.95255E-01  3.10952E-02
    9078.368     82.778   4.880  1.02594E+00  9.95730E-01  3.02100E-02
    9079.862     84.272   4.920  1.02412E+00  9.96224E-01  2.78912E-02
    9081.367     85.777   4.960  1.02010E+00  9.96694E-01  2.34045E-02
    9082.885     87.295   5.000  1.01372E+00  9.97160E-01  1.65580E-02
    9084.415     88.825   5.040  1.00533E+00  9.97621E-01  7.71172E-03
    9085.958     90.368   5.080  9.95631E-01  9.98074E-01 -2.44339E-03
    9087.512     91.922   5.120  9.85359E-01  9.98496E-01 -1.31372E-02
    9089.079     93.489   5.160  9.75197E-01  9.98888E-01 -2.36915E-02
    9090.658     95.068   5.200  9.65772E-01  9.99291E-01 -3.35194E-02
    9092.249     96.659   5.240  9.57491E-01  9.99639E-01 -4.21484E-02
    9093.852     98.262   5.280  9.50673E-01  9.99973E-01 -4.93001E-02
    9095.467     99.877   5.320  9.45343E-01  1.00027E+00 -5.49304E-02
    9097.095    101.505   5.360  9.41527E-01  1.00056E+00 -5.90319E-02
    9098.735    103.145   5.400  9.39292E-01  1.00081E+00 -6.15141E-02
    9100.387    104.797   5.440  9.38748E-01  1.00099E+00 -6.22453E-02
    9102.051    106.461   5.480  9.39897E-01  1.00116E+00 -6.12656E-02
    9103.727    108.137   5.520  9.42435E-01  1.00129E+00 -5.88597E-02
    9105.416    109.826   5.560  9.45862E-01  1.00139E+00 -5.55255E-02
    9107.117    111.527   5.600  9.49716E-01  1.00146E+00 -5.17484E-02
    9108.830    113.240   5.640  9.53662E-01  1.00148E+00 -4.78162E-02
    9110.555    114.965   5.680  9.57691E-01  1.00145E+00 -4.37575E-02
    9112.292    116.702   5.720  9.61864E-01  1.00138E+00 -3.95144E-02
    9114.042    118.452   5.760  9.66239E-01  1.00127E+00 -3.50298E-02
    9115.804    120.214   5.800  9.70924E-01  1.00112E+00 -3.01977E-02
    9117.577    121.988   5.840  9.76195E-01  1.00096E+00 -2.47638E-02
    9119.364    123.774   5.880  9.82304E-01  1.00073E+00 -1.84311E-02
    9121.162    125.572   5.920  9.89326E-01  1.00047E+00 -1.11453E-02
    9122.972    127.382   5.960  9.96799E-01  1.00017E+00 -3.37038E-03
    9124.795    129.205   6.000  1.00397E+00  9.99833E-01  4.14040E-03
