# # comment:                                                     FEFF 9.9.1  
# # Source:
# # Structure
# # Reduced
# # space
# # abc:
# # angles:
# # sites:
# # POT  SCF 100  7.0000   0, screened core-hole, AFOLP (folp(0)= 1.150)
# # Abs   Z=29 Rmt= 1.323 Rnm= 1.389 K  shell
# # Pot 1 Z= 3 Rmt= 1.313 Rnm= 1.367
# # Pot 2 Z=29 Rmt= 1.326 Rnm= 1.392
# # Pot 3 Z= 6 Rmt= 0.714 Rnm= 0.926
# # Pot 4 Z= 8 Rmt= 0.863 Rnm= 1.009
# # Gam_ch=1.729E+00 H-L exch Vi= 0.000E+00 Vr= 0.000E+00
# # Mu=-6.441E+00eV kf=2.570E+00 Vint=-1.832E+01eV Rs_int= 1.411
# FMS rfms= 9.0000
# # PATH  Rmax=-1.000,  Keep_limit= 0.00, Heap_limit 0.00  Pwcrit= 2.50%
#  S02=0.950  Temp=   0.00  Debye_temp=   0.00  Global_sig2= 0.00000
#  Energy zero shift, vr, vi    0.00000E+00   0.00000E+00
#  Curved wave amplitude ratio filter   4.000%
#     file         sig2 tot  cw amp ratio   deg  nlegs   reff  inp sig2
#     0/   0 paths used
#  xsedge+ 50, used to normalize mu           2.4752E-04
#  -----------------------------------------------------------------------
#  omega    e    k    mu    mu0     chi     @#
    8983.597    -10.251  -1.000  4.94128E-02  5.34369E-02 -4.02413E-03
    8983.896     -9.952  -0.960  5.27195E-02  5.73154E-02 -4.59591E-03
    8984.182     -9.665  -0.920  5.63741E-02  6.16277E-02 -5.25355E-03
    8984.457     -9.391  -0.880  6.04281E-02  6.64381E-02 -6.00995E-03
    8984.719     -9.129  -0.840  6.49419E-02  7.18217E-02 -6.87975E-03
    8984.969     -8.879  -0.800  6.99860E-02  7.78655E-02 -7.87945E-03
    8985.206     -8.641  -0.760  7.56420E-02  8.46694E-02 -9.02739E-03
    8985.432     -8.416  -0.720  8.20031E-02  9.23467E-02 -1.03436E-02
    8985.645     -8.202  -0.680  8.91725E-02  1.01022E-01 -1.18494E-02
    8985.847     -8.001  -0.640  9.72604E-02  1.10827E-01 -1.35666E-02
    8986.035     -7.812  -0.600  1.06375E-01  1.21891E-01 -1.55160E-02
    8986.212     -7.635  -0.560  1.16610E-01  1.34326E-01 -1.77155E-02
    8986.377     -7.471  -0.520  1.28020E-01  1.48197E-01 -2.01772E-02
    8986.529     -7.318  -0.480  1.40588E-01  1.63491E-01 -2.29031E-02
    8986.669     -7.178  -0.440  1.54192E-01  1.80073E-01 -2.58812E-02
    8986.797     -7.050  -0.400  1.68573E-01  1.97653E-01 -2.90802E-02
    8986.913     -6.934  -0.360  1.83326E-01  2.15773E-01 -3.24468E-02
    8987.017     -6.831  -0.320  1.97937E-01  2.33841E-01 -3.59040E-02
    8987.108     -6.739  -0.280  2.11844E-01  2.51197E-01 -3.93531E-02
    8987.188     -6.660  -0.240  2.24531E-01  2.67211E-01 -4.26796E-02
    8987.255     -6.593  -0.200  2.35593E-01  2.81354E-01 -4.57608E-02
    8987.310     -6.538  -0.160  2.44767E-01  2.93243E-01 -4.84756E-02
    8987.352     -6.495  -0.120  2.51920E-01  3.02635E-01 -5.07150E-02
    8987.383     -6.465  -0.080  2.57003E-01  3.09397E-01 -5.23934E-02
    8987.407     -6.441   0.000  2.61000E-01  3.14826E-01 -5.38261E-02
    8987.462     -6.386   0.120  2.69854E-01  3.27076E-01 -5.72212E-02
    8987.505     -6.343   0.160  2.76702E-01  3.36578E-01 -5.98756E-02
    8987.559     -6.288   0.200  2.85317E-01  3.48690E-01 -6.33729E-02
    8987.627     -6.221   0.240  2.95466E-01  3.63233E-01 -6.77672E-02
    8987.706     -6.142   0.280  3.06861E-01  3.79918E-01 -7.30571E-02
    8987.797     -6.050   0.320  3.19085E-01  3.98258E-01 -7.91731E-02
    8987.901     -5.947   0.360  3.31879E-01  4.17739E-01 -8.58596E-02
    8988.017     -5.831   0.400  3.45100E-01  4.37732E-01 -9.26318E-02
    8988.145     -5.703   0.440  3.58940E-01  4.57706E-01 -9.87662E-02
    8988.285     -5.563   0.480  3.73861E-01  4.77268E-01 -1.03408E-01
    8988.437     -5.410   0.520  3.90325E-01  4.96137E-01 -1.05813E-01
    8988.602     -5.246   0.560  4.08465E-01  5.14198E-01 -1.05734E-01
    8988.779     -5.069   0.600  4.27729E-01  5.31422E-01 -1.03693E-01
    8988.968     -4.880   0.640  4.46812E-01  5.47873E-01 -1.01061E-01
    8989.169     -4.679   0.680  4.63912E-01  5.63654E-01 -9.97411E-02
    8989.382     -4.465   0.720  4.77375E-01  5.78863E-01 -1.01488E-01
    8989.608     -4.240   0.760  4.86338E-01  5.93616E-01 -1.07279E-01
    8989.845     -4.002   0.800  4.90717E-01  6.08022E-01 -1.17305E-01
    8990.095     -3.752   0.840  4.90768E-01  6.22135E-01 -1.31367E-01
    8990.358     -3.490   0.880  4.87599E-01  6.36078E-01 -1.48479E-01
    8990.632     -3.216   0.920  4.84117E-01  6.49837E-01 -1.65720E-01
    8990.918     -2.929   0.960  4.85269E-01  6.63508E-01 -1.78239E-01
    8991.217     -2.631   1.000  4.95978E-01  6.77116E-01 -1.81138E-01
    8991.528     -2.320   1.040  5.19512E-01  6.90676E-01 -1.71164E-01
    8991.851     -1.997   1.080  5.56397E-01  7.04174E-01 -1.47777E-01
    8992.186     -1.661   1.120  6.04012E-01  7.17670E-01 -1.13657E-01
    8992.534     -1.314   1.160  6.56963E-01  7.31116E-01 -7.41530E-02
    8992.893     -0.954   1.200  7.09310E-01  7.44522E-01 -3.52124E-02
    8993.265     -0.582   1.240  7.58118E-01  7.57873E-01  2.44754E-04
    8993.649     -0.198   1.280  8.06571E-01  7.71149E-01  3.54223E-02
    8994.046      0.198   1.320  8.62342E-01  7.84329E-01  7.80130E-02
    8994.454      0.606   1.360  9.30472E-01  7.97428E-01  1.33043E-01
    8994.875      1.027   1.400  1.00449E+00  8.10361E-01  1.94130E-01
    8995.307      1.460   1.440  1.07117E+00  8.23159E-01  2.48013E-01
    8995.752      1.905   1.480  1.11997E+00  8.35774E-01  2.84195E-01
    8996.210      2.362   1.520  1.14307E+00  8.48175E-01  2.94897E-01
    8996.679      2.831   1.560  1.14014E+00  8.60331E-01  2.79813E-01
    8997.161      3.313   1.600  1.11616E+00  8.72232E-01  2.43927E-01
    8997.654      3.807   1.640  1.07532E+00  8.83827E-01  1.91491E-01
    8998.160      4.313   1.680  1.03129E+00  8.95124E-01  1.36168E-01
    8998.679      4.831   1.720  9.99728E-01  9.06052E-01  9.36751E-02
    8999.209      5.361   1.760  9.78384E-01  9.16643E-01  6.17410E-02
    8999.751      5.904   1.800  9.61867E-01  9.26824E-01  3.50429E-02
    9000.306      6.459   1.840  9.58655E-01  9.36607E-01  2.20472E-02
    9000.873      7.025   1.880  9.70605E-01  9.45965E-01  2.46401E-02
    9001.452      7.605   1.920  9.88241E-01  9.54869E-01  3.33719E-02
    9002.044      8.196   1.960  1.00973E+00  9.63314E-01  4.64144E-02
    9002.647      8.799   2.000  1.04054E+00  9.71295E-01  6.92460E-02
    9003.263      9.415   2.040  1.07820E+00  9.78806E-01  9.93964E-02
    9003.891     10.043   2.080  1.11092E+00  9.85826E-01  1.25098E-01
    9004.531     10.683   2.120  1.13209E+00  9.92353E-01  1.39738E-01
    9005.183     11.335   2.160  1.15106E+00  9.98385E-01  1.52672E-01
    9005.847     12.000   2.200  1.17752E+00  1.00393E+00  1.73598E-01
    9006.524     12.676   2.240  1.20832E+00  1.00899E+00  1.99328E-01
    9007.213     13.365   2.280  1.23207E+00  1.01355E+00  2.18520E-01
    9007.914     14.066   2.320  1.24248E+00  1.01767E+00  2.24812E-01
    9008.627     14.780   2.360  1.23538E+00  1.02129E+00  2.14092E-01
    9009.353     15.505   2.400  1.20170E+00  1.02448E+00  1.77225E-01
    9010.090     16.243   2.440  1.14503E+00  1.02721E+00  1.17813E-01
    9010.840     16.992   2.480  1.08202E+00  1.02954E+00  5.24809E-02
    9011.602     17.754   2.520  1.02529E+00  1.03145E+00 -6.16247E-03
    9012.376     18.529   2.560  9.81662E-01  1.03296E+00 -5.12981E-02
    9013.163     19.315   2.600  9.53958E-01  1.03410E+00 -8.01410E-02
    9013.961     20.114   2.640  9.39838E-01  1.03488E+00 -9.50374E-02
    9014.772     20.924   2.680  9.34699E-01  1.03532E+00 -1.00623E-01
    9015.595     21.747   2.720  9.33862E-01  1.03547E+00 -1.01606E-01
    9016.430     22.582   2.760  9.33824E-01  1.03530E+00 -1.01478E-01
    9017.277     23.430   2.800  9.34097E-01  1.03488E+00 -1.00782E-01
    9018.137     24.289   2.840  9.36057E-01  1.03421E+00 -9.81496E-02
    9019.009     25.161   2.880  9.38857E-01  1.03330E+00 -9.44390E-02
    9019.893     26.045   2.920  9.37824E-01  1.03218E+00 -9.43547E-02
    9020.789     26.941   2.960  9.32098E-01  1.03087E+00 -9.87673E-02
    9021.697     27.849   3.000  9.26245E-01  1.02941E+00 -1.03162E-01
    9022.617     28.770   3.040  9.21862E-01  1.02779E+00 -1.05931E-01
    9023.550     29.702   3.080  9.18486E-01  1.02603E+00 -1.07546E-01
    9024.495     30.647   3.120  9.16469E-01  1.02420E+00 -1.07727E-01
    9025.452     31.604   3.160  9.16649E-01  1.02225E+00 -1.05603E-01
    9026.421     32.574   3.200  9.19489E-01  1.02023E+00 -1.00741E-01
    9027.403     33.555   3.240  9.24650E-01  1.01816E+00 -9.35102E-02
    9028.396     34.549   3.280  9.31592E-01  1.01605E+00 -8.44566E-02
    9029.402     35.555   3.320  9.39903E-01  1.01392E+00 -7.40220E-02
    9030.420     36.573   3.360  9.49473E-01  1.01177E+00 -6.23004E-02
    9031.450     37.603   3.400  9.60505E-01  1.00964E+00 -4.91392E-02
    9032.493     38.645   3.440  9.72976E-01  1.00752E+00 -3.45463E-02
    9033.548     39.700   3.480  9.86525E-01  1.00543E+00 -1.89071E-02
    9034.614     40.767   3.520  1.00062E+00  1.00336E+00 -2.74132E-03
    9035.693     41.846   3.560  1.01471E+00  1.00135E+00  1.33531E-02
    9036.784     42.937   3.600  1.02829E+00  9.99414E-01  2.88776E-02
    9037.888     44.040   3.640  1.04083E+00  9.97529E-01  4.32984E-02
    9039.003     45.156   3.680  1.05164E+00  9.95720E-01  5.59196E-02
    9040.131     46.284   3.720  1.05992E+00  9.93992E-01  6.59324E-02
    9041.271     47.423   3.760  1.06527E+00  9.92369E-01  7.28992E-02
    9042.423     48.576   3.800  1.06752E+00  9.90812E-01  7.67092E-02
    9043.588     49.740   3.840  1.06690E+00  9.89385E-01  7.75157E-02
    9044.764     50.916   3.880  1.06379E+00  9.88049E-01  7.57427E-02
    9045.953     52.105   3.920  1.05884E+00  9.86803E-01  7.20390E-02
    9047.154     53.306   3.960  1.05277E+00  9.85673E-01  6.71009E-02
    9048.367     54.519   4.000  1.04616E+00  9.84659E-01  6.14969E-02
    9049.592     55.744   4.040  1.03935E+00  9.83762E-01  5.55866E-02
    9050.830     56.982   4.080  1.03234E+00  9.82982E-01  4.93550E-02
    9052.079     58.232   4.120  1.02485E+00  9.82299E-01  4.25469E-02
    9053.341     59.494   4.160  1.01665E+00  9.81754E-01  3.48915E-02
    9054.615     60.768   4.200  1.00763E+00  9.81304E-01  2.63307E-02
    9055.901     62.054   4.240  9.98054E-01  9.80968E-01  1.70862E-02
    9057.200     63.352   4.280  9.88365E-01  9.80727E-01  7.63825E-03
    9058.511     64.663   4.320  9.79192E-01  9.80621E-01 -1.42962E-03
    9059.833     65.986   4.360  9.71078E-01  9.80608E-01 -9.52909E-03
    9061.168     67.321   4.400  9.64596E-01  9.80682E-01 -1.60864E-02
    9062.516     68.668   4.440  9.60215E-01  9.80867E-01 -2.06522E-02
    9063.875     70.027   4.480  9.58111E-01  9.81139E-01 -2.30282E-02
    9065.247     71.399   4.520  9.58233E-01  9.81517E-01 -2.32839E-02
    9066.630     72.783   4.560  9.60266E-01  9.81955E-01 -2.16886E-02
    9068.026     74.179   4.600  9.63876E-01  9.82493E-01 -1.86175E-02
    9069.435     75.587   4.640  9.68586E-01  9.83088E-01 -1.45014E-02
    9070.855     77.007   4.680  9.73960E-01  9.83756E-01 -9.79611E-03
    9072.287     78.440   4.720  9.79487E-01  9.84497E-01 -5.01056E-03
    9073.732     79.885   4.760  9.84617E-01  9.85285E-01 -6.67876E-04
    9075.189     81.341   4.800  9.88829E-01  9.86115E-01  2.71364E-03
    9076.658     82.811   4.840  9.91655E-01  9.86984E-01  4.67044E-03
    9078.140     84.292   4.880  9.92771E-01  9.87892E-01  4.87860E-03
    9079.633     85.785   4.920  9.92080E-01  9.88833E-01  3.24658E-03
    9081.139     87.291   4.960  9.89733E-01  9.89784E-01 -5.03543E-05
    9082.657     88.809   5.000  9.86163E-01  9.90739E-01 -4.57577E-03
    9084.187     90.339   5.040  9.81996E-01  9.91719E-01 -9.72355E-03
    9085.729     91.881   5.080  9.77833E-01  9.92699E-01 -1.48657E-02
    9087.284     93.436   5.120  9.74192E-01  9.93653E-01 -1.94603E-02
    9088.850     95.003   5.160  9.71493E-01  9.94599E-01 -2.31058E-02
    9090.429     96.581   5.200  9.70065E-01  9.95536E-01 -2.54712E-02
    9092.020     98.172   5.240  9.70163E-01  9.96439E-01 -2.62764E-02
    9093.623     99.776   5.280  9.71946E-01  9.97301E-01 -2.53555E-02
    9095.239    101.391   5.320  9.75372E-01  9.98121E-01 -2.27489E-02
    9096.866    103.019   5.360  9.80106E-01  9.98875E-01 -1.87691E-02
    9098.506    104.659   5.400  9.85655E-01  9.99606E-01 -1.39504E-02
    9100.158    106.311   5.440  9.91339E-01  1.00027E+00 -8.92597E-03
    9101.822    107.975   5.480  9.96581E-01  1.00085E+00 -4.26999E-03
    9103.499    109.651   5.520  1.00099E+00  1.00138E+00 -3.98191E-04
    9105.187    111.340   5.560  1.00431E+00  1.00184E+00  2.46458E-03
    9106.888    113.041   5.600  1.00652E+00  1.00222E+00  4.29498E-03
    9108.601    114.754   5.640  1.00779E+00  1.00252E+00  5.26787E-03
    9110.326    116.479   5.680  1.00842E+00  1.00274E+00  5.67493E-03
    9112.064    118.216   5.720  1.00869E+00  1.00291E+00  5.78089E-03
    9113.813    119.966   5.760  1.00871E+00  1.00297E+00  5.74276E-03
    9115.575    121.727   5.800  1.00858E+00  1.00295E+00  5.63641E-03
    9117.349    123.501   5.840  1.00836E+00  1.00284E+00  5.51463E-03
    9119.135    125.287   5.880  1.00809E+00  1.00266E+00  5.42952E-03
    9120.933    127.086   5.920  1.00783E+00  1.00240E+00  5.43643E-03
    9122.744    128.896   5.960  1.00758E+00  1.00202E+00  5.55579E-03
    9124.567    130.719   6.000  1.00725E+00  1.00153E+00  5.71446E-03
