# # comment:                                                     FEFF 9.9.1  
# # Source:
# # Structure
# # Reduced
# # space
# # abc:
# # angles:
# # sites:
# # POT  SCF 100  7.0000   0, screened core-hole, AFOLP (folp(0)= 1.150)
# # Abs   Z=29 Rmt= 1.147 Rnm= 1.259 K  shell
# # Pot 1 Z=62 Rmt= 1.679 Rnm= 1.757
# # Pot 2 Z=29 Rmt= 1.147 Rnm= 1.259
# # Pot 3 Z= 8 Rmt= 1.064 Rnm= 1.119
# # Gam_ch=1.729E+00 H-L exch Vi= 0.000E+00 Vr= 0.000E+00
# # Mu=-8.567E+00eV kf=2.084E+00 Vint=-1.713E+01eV Rs_int= 1.740
# FMS rfms= 9.0000
# # PATH  Rmax=-1.000,  Keep_limit= 0.00, Heap_limit 0.00  Pwcrit= 2.50%
#  S02=0.950  Temp=   0.00  Debye_temp=   0.00  Global_sig2= 0.00000
#  Energy zero shift, vr, vi    0.00000E+00   0.00000E+00
#  Curved wave amplitude ratio filter   4.000%
#     file         sig2 tot  cw amp ratio   deg  nlegs   reff  inp sig2
#     0/   0 paths used
#  xsedge+ 50, used to normalize mu           2.4461E-04
#  -----------------------------------------------------------------------
#  omega    e    k    mu    mu0     chi     @#
    8984.569    -12.377  -1.000  3.36928E-02  5.51212E-02 -2.14285E-02
    8984.867    -12.078  -0.960  3.52546E-02  5.91330E-02 -2.38783E-02
    8985.154    -11.791  -0.920  3.69230E-02  6.35902E-02 -2.66673E-02
    8985.428    -11.517  -0.880  3.87101E-02  6.85584E-02 -2.98484E-02
    8985.690    -11.255  -0.840  4.06305E-02  7.41137E-02 -3.34832E-02
    8985.940    -11.005  -0.800  4.27013E-02  8.03442E-02 -3.76429E-02
    8986.178    -10.767  -0.760  4.49424E-02  8.73511E-02 -4.24088E-02
    8986.403    -10.542  -0.720  4.73766E-02  9.52487E-02 -4.78721E-02
    8986.617    -10.328  -0.680  5.00297E-02  1.04163E-01 -5.41330E-02
    8986.818    -10.127  -0.640  5.29288E-02  1.14226E-01 -6.12971E-02
    8987.007     -9.938  -0.600  5.61005E-02  1.25568E-01 -6.94680E-02
    8987.184     -9.761  -0.560  5.95665E-02  1.38302E-01 -7.87351E-02
    8987.348     -9.597  -0.520  6.33359E-02  1.52491E-01 -8.91553E-02
    8987.501     -9.444  -0.480  6.73962E-02  1.68122E-01 -1.00726E-01
    8987.641     -9.304  -0.440  7.17014E-02  1.85057E-01 -1.13356E-01
    8987.769     -9.176  -0.400  7.61638E-02  2.03003E-01 -1.26839E-01
    8987.885     -9.060  -0.360  8.06538E-02  2.21496E-01 -1.40842E-01
    8987.988     -8.957  -0.320  8.50122E-02  2.39936E-01 -1.54924E-01
    8988.080     -8.865  -0.280  8.90758E-02  2.57656E-01 -1.68580E-01
    8988.159     -8.786  -0.240  9.27055E-02  2.74014E-01 -1.81309E-01
    8988.226     -8.719  -0.200  9.58062E-02  2.88472E-01 -1.92666E-01
    8988.281     -8.664  -0.160  9.83311E-02  3.00636E-01 -2.02305E-01
    8988.324     -8.621  -0.120  1.00272E-01  3.10253E-01 -2.09981E-01
    8988.354     -8.591  -0.080  1.01642E-01  3.17181E-01 -2.15539E-01
    8988.379     -8.567   0.000  1.02733E-01  3.22747E-01 -2.20014E-01
    8988.433     -8.512   0.120  1.05101E-01  3.35304E-01 -2.30203E-01
    8988.476     -8.469   0.160  1.06846E-01  3.45071E-01 -2.38225E-01
    8988.531     -8.414   0.200  1.08953E-01  3.57529E-01 -2.48576E-01
    8988.598     -8.347   0.240  1.11326E-01  3.72534E-01 -2.61208E-01
    8988.677     -8.268   0.280  1.13852E-01  3.89772E-01 -2.75920E-01
    8988.769     -8.176   0.320  1.16424E-01  4.08831E-01 -2.92408E-01
    8988.872     -8.073   0.360  1.18915E-01  4.29114E-01 -3.10199E-01
    8988.988     -7.957   0.400  1.21409E-01  4.50088E-01 -3.28679E-01
    8989.116     -7.829   0.440  1.24031E-01  4.71211E-01 -3.47180E-01
    8989.256     -7.689   0.480  1.27125E-01  4.92079E-01 -3.64954E-01
    8989.409     -7.536   0.520  1.31103E-01  5.12393E-01 -3.81291E-01
    8989.573     -7.372   0.560  1.36539E-01  5.32033E-01 -3.95495E-01
    8989.750     -7.195   0.600  1.44015E-01  5.50987E-01 -4.06972E-01
    8989.939     -7.006   0.640  1.54101E-01  5.69270E-01 -4.15169E-01
    8990.140     -6.805   0.680  1.67262E-01  5.86994E-01 -4.19732E-01
    8990.354     -6.591   0.720  1.83417E-01  6.04227E-01 -4.20809E-01
    8990.579     -6.366   0.760  2.01736E-01  6.21029E-01 -4.19293E-01
    8990.817     -6.128   0.800  2.20876E-01  6.37518E-01 -4.16642E-01
    8991.067     -5.878   0.840  2.39993E-01  6.53755E-01 -4.13762E-01
    8991.329     -5.616   0.880  2.59498E-01  6.69744E-01 -4.10246E-01
    8991.603     -5.342   0.920  2.80390E-01  6.85541E-01 -4.05151E-01
    8991.890     -5.055   0.960  3.02278E-01  7.01166E-01 -3.98888E-01
    8992.189     -4.757   1.000  3.23275E-01  7.16610E-01 -3.93335E-01
    8992.499     -4.446   1.040  3.41895E-01  7.31895E-01 -3.90000E-01
    8992.822     -4.123   1.080  3.58114E-01  7.46993E-01 -3.88879E-01
    8993.158     -3.787   1.120  3.74056E-01  7.61895E-01 -3.87839E-01
    8993.505     -3.440   1.160  3.92419E-01  7.76580E-01 -3.84160E-01
    8993.865     -3.080   1.200  4.12680E-01  7.91006E-01 -3.78327E-01
    8994.237     -2.708   1.240  4.34698E-01  8.05173E-01 -3.70475E-01
    8994.621     -2.324   1.280  4.65909E-01  8.19032E-01 -3.53123E-01
    8995.017     -1.928   1.320  5.17042E-01  8.32555E-01 -3.15513E-01
    8995.425     -1.520   1.360  5.90534E-01  8.45712E-01 -2.55178E-01
    8995.846     -1.099   1.400  6.76487E-01  8.58475E-01 -1.81987E-01
    8996.279     -0.666   1.440  7.61823E-01  8.70835E-01 -1.09012E-01
    8996.724     -0.221   1.480  8.41524E-01  8.82743E-01 -4.12193E-02
    8997.181      0.236   1.520  9.05800E-01  8.94190E-01  1.16098E-02
    8997.651      0.705   1.560  9.30955E-01  9.05170E-01  2.57856E-02
    8998.132      1.187   1.600  9.19434E-01  9.15636E-01  3.79815E-03
    8998.626      1.681   1.640  9.00996E-01  9.25584E-01 -2.45888E-02
    8999.132      2.187   1.680  9.00854E-01  9.35030E-01 -3.41757E-02
    8999.650      2.705   1.720  9.24392E-01  9.43930E-01 -1.95377E-02
    9000.180      3.235   1.760  9.61061E-01  9.52285E-01  8.77590E-03
    9000.723      3.778   1.800  1.01116E+00  9.60115E-01  5.10406E-02
    9001.278      4.333   1.840  1.09784E+00  9.67400E-01  1.30444E-01
    9001.845      4.899   1.880  1.23674E+00  9.74166E-01  2.62571E-01
    9002.424      5.479   1.920  1.39510E+00  9.80397E-01  4.14700E-01
    9003.015      6.070   1.960  1.48757E+00  9.86118E-01  5.01454E-01
    9003.618      6.673   2.000  1.46290E+00  9.91335E-01  4.71561E-01
    9004.234      7.289   2.040  1.37234E+00  9.96055E-01  3.76283E-01
    9004.862      7.917   2.080  1.29062E+00  1.00031E+00  2.90314E-01
    9005.502      8.557   2.120  1.24300E+00  1.00410E+00  2.38894E-01
    9006.154      9.209   2.160  1.21646E+00  1.00747E+00  2.08987E-01
    9006.819      9.874   2.200  1.19490E+00  1.01040E+00  1.84501E-01
    9007.496     10.550   2.240  1.17084E+00  1.01294E+00  1.57906E-01
    9008.184     11.239   2.280  1.14973E+00  1.01510E+00  1.34632E-01
    9008.885     11.940   2.320  1.13663E+00  1.01689E+00  1.19740E-01
    9009.599     12.654   2.360  1.13065E+00  1.01835E+00  1.12302E-01
    9010.324     13.379   2.400  1.12936E+00  1.01951E+00  1.09854E-01
    9011.062     14.117   2.440  1.13416E+00  1.02035E+00  1.13808E-01
    9011.811     14.866   2.480  1.14884E+00  1.02094E+00  1.27902E-01
    9012.573     15.628   2.520  1.16347E+00  1.02127E+00  1.42207E-01
    9013.348     16.403   2.560  1.16306E+00  1.02138E+00  1.41678E-01
    9014.134     17.189   2.600  1.15024E+00  1.02126E+00  1.28973E-01
    9014.933     17.987   2.640  1.13183E+00  1.02097E+00  1.10861E-01
    9015.743     18.798   2.680  1.11205E+00  1.02050E+00  9.15479E-02
    9016.566     19.621   2.720  1.09302E+00  1.01987E+00  7.31452E-02
    9017.401     20.456   2.760  1.07522E+00  1.01912E+00  5.61048E-02
    9018.249     21.304   2.800  1.05774E+00  1.01824E+00  3.95051E-02
    9019.108     22.163   2.840  1.03951E+00  1.01726E+00  2.22506E-02
    9019.980     23.035   2.880  1.02044E+00  1.01618E+00  4.25545E-03
    9020.864     23.919   2.920  1.00135E+00  1.01505E+00 -1.37021E-02
    9021.760     24.815   2.960  9.83648E-01  1.01386E+00 -3.02089E-02
    9022.668     25.723   3.000  9.68157E-01  1.01260E+00 -4.44452E-02
    9023.589     26.644   3.040  9.54911E-01  1.01133E+00 -5.64183E-02
    9024.522     27.576   3.080  9.43618E-01  1.01002E+00 -6.64066E-02
    9025.466     28.521   3.120  9.34274E-01  1.00871E+00 -7.44393E-02
    9026.424     29.478   3.160  9.26716E-01  1.00740E+00 -8.06836E-02
    9027.393     30.448   3.200  9.20575E-01  1.00611E+00 -8.55360E-02
    9028.374     31.429   3.240  9.15332E-01  1.00481E+00 -8.94757E-02
    9029.368     32.423   3.280  9.10421E-01  1.00356E+00 -9.31362E-02
    9030.374     33.429   3.320  9.05359E-01  1.00232E+00 -9.69618E-02
    9031.392     34.447   3.360  9.00040E-01  1.00112E+00 -1.01083E-01
    9032.422     35.477   3.400  8.94828E-01  9.99988E-01 -1.05161E-01
    9033.464     36.519   3.440  8.90226E-01  9.98878E-01 -1.08652E-01
    9034.519     37.574   3.480  8.86910E-01  9.97855E-01 -1.10946E-01
    9035.586     38.641   3.520  8.85305E-01  9.96861E-01 -1.11556E-01
    9036.665     39.720   3.560  8.85648E-01  9.95938E-01 -1.10290E-01
    9037.756     40.811   3.600  8.87954E-01  9.95087E-01 -1.07133E-01
    9038.859     41.914   3.640  8.92204E-01  9.94291E-01 -1.02088E-01
    9039.975     43.030   3.680  8.98385E-01  9.93591E-01 -9.52066E-02
    9041.103     44.158   3.720  9.06014E-01  9.92945E-01 -8.69313E-02
    9042.243     45.297   3.760  9.14590E-01  9.92356E-01 -7.77659E-02
    9043.395     46.450   3.800  9.23731E-01  9.91866E-01 -6.81354E-02
    9044.559     47.614   3.840  9.33002E-01  9.91455E-01 -5.84525E-02
    9045.736     48.790   3.880  9.42005E-01  9.91100E-01 -4.90950E-02
    9046.924     49.979   3.920  9.50592E-01  9.90845E-01 -4.02538E-02
    9048.125     51.180   3.960  9.58615E-01  9.90647E-01 -3.20326E-02
    9049.338     52.393   4.000  9.66121E-01  9.90526E-01 -2.44046E-02
    9050.564     53.618   4.040  9.73296E-01  9.90482E-01 -1.71856E-02
    9051.801     54.856   4.080  9.80436E-01  9.90514E-01 -1.00780E-02
    9053.051     56.106   4.120  9.87799E-01  9.90602E-01 -2.80327E-03
    9054.313     57.367   4.160  9.95775E-01  9.90785E-01  4.98923E-03
    9055.587     58.642   4.200  1.00462E+00  9.91000E-01  1.36239E-02
    9056.873     59.928   4.240  1.01451E+00  9.91309E-01  2.32050E-02
    9058.171     61.226   4.280  1.02519E+00  9.91667E-01  3.35243E-02
    9059.482     62.537   4.320  1.03611E+00  9.92073E-01  4.40363E-02
    9060.805     63.860   4.360  1.04654E+00  9.92546E-01  5.39906E-02
    9062.140     65.195   4.400  1.05569E+00  9.93065E-01  6.26287E-02
    9063.487     66.542   4.440  1.06323E+00  9.93627E-01  6.96066E-02
    9064.846     67.901   4.480  1.06901E+00  9.94229E-01  7.47787E-02
    9066.218     69.273   4.520  1.07291E+00  9.94872E-01  7.80340E-02
    9067.602     70.657   4.560  1.07481E+00  9.95553E-01  7.92579E-02
    9068.998     72.053   4.600  1.07470E+00  9.96271E-01  7.84329E-02
    9070.406     73.461   4.640  1.07282E+00  9.97025E-01  7.57908E-02
    9071.826     74.881   4.680  1.06974E+00  9.97789E-01  7.19548E-02
    9073.259     76.314   4.720  1.06631E+00  9.98583E-01  6.77267E-02
    9074.704     77.759   4.760  1.06312E+00  9.99383E-01  6.37336E-02
    9076.161     79.215   4.800  1.06048E+00  1.00019E+00  6.02917E-02
    9077.630     80.685   4.840  1.05854E+00  1.00101E+00  5.75290E-02
    9079.111     82.166   4.880  1.05735E+00  1.00182E+00  5.55329E-02
    9080.605     83.659   4.920  1.05696E+00  1.00265E+00  5.43147E-02
    9082.110     85.165   4.960  1.05709E+00  1.00345E+00  5.36448E-02
    9083.628     86.683   5.000  1.05739E+00  1.00424E+00  5.31470E-02
    9085.158     88.213   5.040  1.05747E+00  1.00503E+00  5.24407E-02
    9086.701     89.755   5.080  1.05686E+00  1.00579E+00  5.10661E-02
    9088.255     91.310   5.120  1.05486E+00  1.00654E+00  4.83206E-02
    9089.822     92.877   5.160  1.05051E+00  1.00725E+00  4.32631E-02
    9091.400     94.455   5.200  1.04304E+00  1.00792E+00  3.51165E-02
    9092.992     96.046   5.240  1.03235E+00  1.00858E+00  2.37635E-02
    9094.595     97.650   5.280  1.01904E+00  1.00920E+00  9.83592E-03
    9096.210     99.265   5.320  1.00419E+00  1.00976E+00 -5.56672E-03
    9097.838    100.893   5.360  9.89040E-01  1.01030E+00 -2.12550E-02
    9099.478    102.533   5.400  9.74514E-01  1.01076E+00 -3.62503E-02
    9101.130    104.185   5.440  9.61176E-01  1.01119E+00 -5.00152E-02
    9102.794    105.849   5.480  9.49141E-01  1.01159E+00 -6.24527E-02
    9104.470    107.525   5.520  9.38334E-01  1.01191E+00 -7.35727E-02
    9106.159    109.214   5.560  9.29061E-01  1.01219E+00 -8.31333E-02
    9107.860    110.915   5.600  9.21996E-01  1.01241E+00 -9.04135E-02
    9109.573    112.628   5.640  9.18215E-01  1.01255E+00 -9.43403E-02
    9111.298    114.353   5.680  9.18845E-01  1.01267E+00 -9.38292E-02
    9113.035    116.090   5.720  9.24391E-01  1.01270E+00 -8.83111E-02
    9114.785    117.840   5.760  9.34618E-01  1.01270E+00 -7.80854E-02
    9116.546    119.601   5.800  9.48203E-01  1.01263E+00 -6.44316E-02
    9118.320    121.375   5.840  9.63181E-01  1.01249E+00 -4.93130E-02
    9120.106    123.161   5.880  9.77459E-01  1.01231E+00 -3.48472E-02
    9121.905    124.960   5.920  9.89295E-01  1.01207E+00 -2.27794E-02
    9123.715    126.770   5.960  9.97599E-01  1.01176E+00 -1.41659E-02
    9125.538    128.593   6.000  1.00212E+00  1.01137E+00 -9.24100E-03
