# # comment:                                                     FEFF 9.9.1  
# # Source:
# # Structure
# # Reduced
# # space
# # abc:
# # angles:
# # sites:
# # POT  SCF 100  7.0000   0, screened core-hole, AFOLP (folp(0)= 1.150)
# # Abs   Z=29 Rmt= 1.137 Rnm= 1.261 K  shell
# # Pot 1 Z=12 Rmt= 1.337 Rnm= 1.426
# # Pot 2 Z=29 Rmt= 1.156 Rnm= 1.260
# # Pot 3 Z=28 Rmt= 1.163 Rnm= 1.338
# # Pot 4 Z= 8 Rmt= 0.983 Rnm= 1.103
# # Gam_ch=1.729E+00 H-L exch Vi= 0.000E+00 Vr= 0.000E+00
# # Mu=-1.034E+01eV kf=2.168E+00 Vint=-1.682E+01eV Rs_int= 1.673
# FMS rfms= 9.0000
# # PATH  Rmax=-1.000,  Keep_limit= 0.00, Heap_limit 0.00  Pwcrit= 2.50%
#  S02=0.950  Temp=   0.00  Debye_temp=   0.00  Global_sig2= 0.00000
#  Energy zero shift, vr, vi    0.00000E+00   0.00000E+00
#  Curved wave amplitude ratio filter   4.000%
#     file         sig2 tot  cw amp ratio   deg  nlegs   reff  inp sig2
#     0/   0 paths used
#  xsedge+ 50, used to normalize mu           2.4677E-04
#  -----------------------------------------------------------------------
#  omega    e    k    mu    mu0     chi     @#
    8984.019    -14.147  -1.000  2.95291E-02  4.88890E-02 -1.93599E-02
    8984.318    -13.848  -0.960  3.08654E-02  5.22283E-02 -2.13629E-02
    8984.604    -13.562  -0.920  3.23028E-02  5.59182E-02 -2.36154E-02
    8984.878    -13.288  -0.880  3.38558E-02  6.00085E-02 -2.61527E-02
    8985.141    -13.026  -0.840  3.55416E-02  6.45567E-02 -2.90151E-02
    8985.390    -12.776  -0.800  3.73808E-02  6.96292E-02 -3.22484E-02
    8985.628    -12.538  -0.760  3.93976E-02  7.53019E-02 -3.59043E-02
    8985.854    -12.312  -0.720  4.16207E-02  8.16604E-02 -4.00397E-02
    8986.067    -12.099  -0.680  4.40822E-02  8.87984E-02 -4.47162E-02
    8986.268    -11.898  -0.640  4.68172E-02  9.68143E-02 -4.99971E-02
    8986.457    -11.709  -0.600  4.98608E-02  1.05804E-01 -5.59435E-02
    8986.634    -11.532  -0.560  5.32433E-02  1.15850E-01 -6.26064E-02
    8986.799    -11.367  -0.520  5.69818E-02  1.26997E-01 -7.00154E-02
    8986.951    -11.215  -0.480  6.10689E-02  1.39232E-01 -7.81635E-02
    8987.091    -11.075  -0.440  6.54597E-02  1.52449E-01 -8.69893E-02
    8987.219    -10.947  -0.400  7.00616E-02  1.66423E-01 -9.63610E-02
    8987.335    -10.831  -0.360  7.47329E-02  1.80802E-01 -1.06069E-01
    8987.439    -10.727  -0.320  7.92970E-02  1.95132E-01 -1.15835E-01
    8987.530    -10.636  -0.280  8.35702E-02  2.08905E-01 -1.25334E-01
    8987.609    -10.557  -0.240  8.73941E-02  2.21629E-01 -1.34235E-01
    8987.676    -10.490  -0.200  9.06590E-02  2.32891E-01 -1.42232E-01
    8987.731    -10.435  -0.160  9.33102E-02  2.42382E-01 -1.49071E-01
    8987.774    -10.392  -0.120  9.53365E-02  2.49898E-01 -1.54561E-01
    8987.804    -10.362  -0.080  9.67506E-02  2.55322E-01 -1.58571E-01
    8987.829    -10.337   0.000  9.78385E-02  2.59688E-01 -1.61849E-01
    8987.884    -10.282   0.120  1.00393E-01  2.69538E-01 -1.69145E-01
    8987.926    -10.240   0.160  1.02283E-01  2.77232E-01 -1.74948E-01
    8987.981    -10.185   0.200  1.04559E-01  2.87070E-01 -1.82511E-01
    8988.048    -10.118   0.240  1.07098E-01  2.98970E-01 -1.91872E-01
    8988.128    -10.039   0.280  1.09715E-01  3.12736E-01 -2.03021E-01
    8988.219     -9.947   0.320  1.12210E-01  3.28055E-01 -2.15845E-01
    8988.323     -9.843   0.360  1.14383E-01  3.44557E-01 -2.30175E-01
    8988.438     -9.728   0.400  1.16119E-01  3.61864E-01 -2.45745E-01
    8988.566     -9.600   0.440  1.17312E-01  3.79571E-01 -2.62259E-01
    8988.707     -9.459   0.480  1.17988E-01  3.97415E-01 -2.79426E-01
    8988.859     -9.307   0.520  1.18136E-01  4.15196E-01 -2.97060E-01
    8989.024     -9.142   0.560  1.17916E-01  4.32853E-01 -3.14936E-01
    8989.200     -8.966   0.600  1.17512E-01  4.50316E-01 -3.32804E-01
    8989.389     -8.777   0.640  1.17481E-01  4.67645E-01 -3.50165E-01
    8989.591     -8.575   0.680  1.18489E-01  4.84886E-01 -3.66397E-01
    8989.804     -8.362   0.720  1.21229E-01  5.02110E-01 -3.80881E-01
    8990.030     -8.137   0.760  1.26216E-01  5.19327E-01 -3.93111E-01
    8990.267     -7.899   0.800  1.33941E-01  5.36639E-01 -4.02698E-01
    8990.517     -7.649   0.840  1.44699E-01  5.54016E-01 -4.09317E-01
    8990.779     -7.387   0.880  1.58795E-01  5.71519E-01 -4.12724E-01
    8991.054     -7.112   0.920  1.76568E-01  5.89156E-01 -4.12588E-01
    8991.340     -6.826   0.960  1.98645E-01  6.06865E-01 -4.08220E-01
    8991.639     -6.527   1.000  2.25682E-01  6.24697E-01 -3.99016E-01
    8991.950     -6.216   1.040  2.56713E-01  6.42575E-01 -3.85862E-01
    8992.273     -5.893   1.080  2.88882E-01  6.60493E-01 -3.71611E-01
    8992.608     -5.558   1.120  3.18490E-01  6.78405E-01 -3.59915E-01
    8992.956     -5.210   1.160  3.42327E-01  6.96256E-01 -3.53929E-01
    8993.315     -4.851   1.200  3.63445E-01  7.14010E-01 -3.50565E-01
    8993.687     -4.479   1.240  3.93055E-01  7.31608E-01 -3.38554E-01
    8994.071     -4.095   1.280  4.35344E-01  7.49010E-01 -3.13666E-01
    8994.467     -3.699   1.320  4.80657E-01  7.66155E-01 -2.85497E-01
    8994.876     -3.290   1.360  5.21348E-01  7.82999E-01 -2.61651E-01
    8995.296     -2.870   1.400  5.59219E-01  7.99502E-01 -2.40283E-01
    8995.729     -2.437   1.440  5.96892E-01  8.15580E-01 -2.18688E-01
    8996.174     -1.992   1.480  6.31663E-01  8.31215E-01 -1.99552E-01
    8996.631     -1.535   1.520  6.51794E-01  8.46367E-01 -1.94573E-01
    8997.101     -1.065   1.560  6.49633E-01  8.60977E-01 -2.11343E-01
    8997.582     -0.584   1.600  6.35819E-01  8.75029E-01 -2.39210E-01
    8998.076     -0.090   1.640  6.24895E-01  8.88492E-01 -2.63596E-01
    8998.582      0.416   1.680  6.24001E-01  9.01333E-01 -2.77331E-01
    8999.100      0.934   1.720  6.36921E-01  9.13541E-01 -2.76620E-01
    8999.631      1.465   1.760  6.62600E-01  9.25090E-01 -2.62490E-01
    9000.173      2.007   1.800  7.00974E-01  9.35974E-01 -2.35001E-01
    9000.728      2.562   1.840  7.56415E-01  9.46173E-01 -1.89758E-01
    9001.295      3.129   1.880  8.26873E-01  9.55704E-01 -1.28831E-01
    9001.874      3.708   1.920  9.00442E-01  9.64569E-01 -6.41269E-02
    9002.465      4.299   1.960  9.72954E-01  9.72772E-01  1.81914E-04
    9003.069      4.903   2.000  1.05306E+00  9.80299E-01  7.27647E-02
    9003.684      5.518   2.040  1.14112E+00  9.87194E-01  1.53922E-01
    9004.312      6.146   2.080  1.22232E+00  9.93469E-01  2.28850E-01
    9004.952      6.786   2.120  1.27842E+00  9.99110E-01  2.79309E-01
    9005.605      7.439   2.160  1.30889E+00  1.00417E+00  3.04719E-01
    9006.269      8.103   2.200  1.32912E+00  1.00868E+00  3.20443E-01
    9006.946      8.780   2.240  1.35071E+00  1.01263E+00  3.38076E-01
    9007.635      9.469   2.280  1.37476E+00  1.01606E+00  3.58698E-01
    9008.336     10.170   2.320  1.38968E+00  1.01901E+00  3.70661E-01
    9009.049     10.883   2.360  1.37556E+00  1.02149E+00  3.54065E-01
    9009.774     11.608   2.400  1.33196E+00  1.02353E+00  3.08437E-01
    9010.512     12.346   2.440  1.28280E+00  1.02517E+00  2.57627E-01
    9011.262     13.096   2.480  1.24410E+00  1.02642E+00  2.17684E-01
    9012.024     13.858   2.520  1.21449E+00  1.02730E+00  1.87184E-01
    9012.798     14.632   2.560  1.19483E+00  1.02786E+00  1.66968E-01
    9013.584     15.418   2.600  1.18725E+00  1.02812E+00  1.59125E-01
    9014.383     16.217   2.640  1.18348E+00  1.02810E+00  1.55377E-01
    9015.194     17.028   2.680  1.17837E+00  1.02783E+00  1.50536E-01
    9016.017     17.851   2.720  1.17062E+00  1.02733E+00  1.43294E-01
    9016.852     18.686   2.760  1.16008E+00  1.02664E+00  1.33443E-01
    9017.699     19.533   2.800  1.14668E+00  1.02576E+00  1.20925E-01
    9018.559     20.393   2.840  1.13054E+00  1.02471E+00  1.05827E-01
    9019.430     21.264   2.880  1.11168E+00  1.02353E+00  8.81456E-02
    9020.314     22.148   2.920  1.09020E+00  1.02221E+00  6.79954E-02
    9021.210     23.044   2.960  1.06680E+00  1.02081E+00  4.59880E-02
    9022.119     23.953   3.000  1.04225E+00  1.01931E+00  2.29440E-02
    9023.039     24.873   3.040  1.01706E+00  1.01773E+00 -6.68737E-04
    9023.972     25.806   3.080  9.91945E-01  1.01610E+00 -2.41560E-02
    9024.917     26.751   3.120  9.67749E-01  1.01443E+00 -4.66816E-02
    9025.874     27.708   3.160  9.45095E-01  1.01275E+00 -6.76520E-02
    9026.843     28.677   3.200  9.24626E-01  1.01103E+00 -8.64086E-02
    9027.825     29.658   3.240  9.06913E-01  1.00932E+00 -1.02407E-01
    9028.818     30.652   3.280  8.92056E-01  1.00763E+00 -1.15571E-01
    9029.824     31.658   3.320  8.79997E-01  1.00592E+00 -1.25922E-01
    9030.842     32.676   3.360  8.70841E-01  1.00426E+00 -1.33424E-01
    9031.872     33.706   3.400  8.64444E-01  1.00263E+00 -1.38181E-01
    9032.915     34.749   3.440  8.60587E-01  1.00103E+00 -1.40439E-01
    9033.969     35.803   3.480  8.58906E-01  9.99491E-01 -1.40585E-01
    9035.036     36.870   3.520  8.58966E-01  9.98002E-01 -1.39036E-01
    9036.115     37.949   3.560  8.60230E-01  9.96560E-01 -1.36330E-01
    9037.206     39.040   3.600  8.62483E-01  9.95190E-01 -1.32707E-01
    9038.310     40.144   3.640  8.65719E-01  9.93895E-01 -1.28176E-01
    9039.425     41.259   3.680  8.69996E-01  9.92653E-01 -1.22658E-01
    9040.553     42.387   3.720  8.75474E-01  9.91489E-01 -1.16014E-01
    9041.693     43.527   3.760  8.82441E-01  9.90424E-01 -1.07983E-01
    9042.845     44.679   3.800  8.91140E-01  9.89417E-01 -9.82770E-02
    9044.009     45.843   3.840  9.01577E-01  9.88489E-01 -8.69127E-02
    9045.186     47.020   3.880  9.13503E-01  9.87643E-01 -7.41400E-02
    9046.375     48.209   3.920  9.26439E-01  9.86899E-01 -6.04594E-02
    9047.576     49.409   3.960  9.39588E-01  9.86214E-01 -4.66254E-02
    9048.789     50.623   4.000  9.52139E-01  9.85610E-01 -3.34712E-02
    9050.014     51.848   4.040  9.63460E-01  9.85109E-01 -2.16487E-02
    9051.251     53.085   4.080  9.73091E-01  9.84666E-01 -1.15754E-02
    9052.501     54.335   4.120  9.80960E-01  9.84326E-01 -3.36622E-03
    9053.763     55.597   4.160  9.87191E-01  9.84045E-01  3.14642E-03
    9055.037     56.871   4.200  9.92184E-01  9.83863E-01  8.32114E-03
    9056.323     58.157   4.240  9.96339E-01  9.83737E-01  1.26027E-02
    9057.622     59.456   4.280  1.00032E+00  9.83688E-01  1.66360E-02
    9058.932     60.766   4.320  1.00480E+00  9.83716E-01  2.10873E-02
    9060.255     62.089   4.360  1.01030E+00  9.83818E-01  2.64861E-02
    9061.590     63.424   4.400  1.01712E+00  9.83973E-01  3.31449E-02
    9062.937     64.771   4.440  1.02532E+00  9.84199E-01  4.11164E-02
    9064.297     66.131   4.480  1.03461E+00  9.84473E-01  5.01409E-02
    9065.668     67.502   4.520  1.04446E+00  9.84817E-01  5.96399E-02
    9067.052     68.886   4.560  1.05419E+00  9.85208E-01  6.89799E-02
    9068.448     70.282   4.600  1.06316E+00  9.85664E-01  7.74952E-02
    9069.856     71.690   4.640  1.07073E+00  9.86139E-01  8.45915E-02
    9071.277     73.111   4.680  1.07650E+00  9.86654E-01  8.98429E-02
    9072.709     74.543   4.720  1.08021E+00  9.87230E-01  9.29767E-02
    9074.154     75.988   4.760  1.08166E+00  9.87821E-01  9.38380E-02
    9075.611     77.445   4.800  1.08091E+00  9.88445E-01  9.24619E-02
    9077.080     78.914   4.840  1.07802E+00  9.89080E-01  8.89396E-02
    9078.561     80.395   4.880  1.07323E+00  9.89746E-01  8.34815E-02
    9080.055     81.889   4.920  1.06687E+00  9.90442E-01  7.64248E-02
    9081.561     83.394   4.960  1.05925E+00  9.91142E-01  6.81061E-02
    9083.078     84.912   5.000  1.05059E+00  9.91821E-01  5.87705E-02
    9084.609     86.442   5.040  1.04112E+00  9.92523E-01  4.85982E-02
    9086.151     87.985   5.080  1.03109E+00  9.93225E-01  3.78695E-02
    9087.705     89.539   5.120  1.02108E+00  9.93926E-01  2.71580E-02
    9089.272     91.106   5.160  1.01180E+00  9.94623E-01  1.71778E-02
    9090.851     92.685   5.200  1.00379E+00  9.95290E-01  8.49531E-03
    9092.442     94.276   5.240  9.97186E-01  9.95949E-01  1.23672E-03
    9094.045     95.879   5.280  9.91636E-01  9.96599E-01 -4.96215E-03
    9095.661     97.494   5.320  9.86477E-01  9.97191E-01 -1.07147E-02
    9097.288     99.122   5.360  9.81290E-01  9.97771E-01 -1.64815E-02
    9098.928    100.762   5.400  9.76027E-01  9.98337E-01 -2.23099E-02
    9100.580    102.414   5.440  9.70990E-01  9.98842E-01 -2.78526E-02
    9102.244    104.078   5.480  9.66693E-01  9.99330E-01 -3.26367E-02
    9103.921    105.755   5.520  9.63456E-01  9.99755E-01 -3.62995E-02
    9105.609    107.443   5.560  9.61497E-01  1.00016E+00 -3.86642E-02
    9107.310    109.144   5.600  9.60858E-01  1.00050E+00 -3.96460E-02
    9109.023    110.857   5.640  9.61519E-01  1.00083E+00 -3.93077E-02
    9110.748    112.582   5.680  9.63110E-01  1.00108E+00 -3.79717E-02
    9112.485    114.319   5.720  9.65012E-01  1.00129E+00 -3.62784E-02
    9114.235    116.069   5.760  9.66494E-01  1.00143E+00 -3.49390E-02
    9115.997    117.831   5.800  9.67148E-01  1.00155E+00 -3.44045E-02
    9117.771    119.605   5.840  9.66952E-01  1.00160E+00 -3.46529E-02
    9119.557    121.391   5.880  9.66318E-01  1.00159E+00 -3.52682E-02
    9121.355    123.189   5.920  9.65888E-01  1.00155E+00 -3.56579E-02
    9123.166    125.000   5.960  9.66169E-01  1.00143E+00 -3.52614E-02
    9124.988    126.822   6.000  9.67539E-01  1.00123E+00 -3.36928E-02
