# # comment:                                                     FEFF 9.9.1  
# # Source:
# # Structure
# # Reduced
# # space
# # abc:
# # angles:
# # sites:
# # POT  SCF 100  7.0000   0, screened core-hole, AFOLP (folp(0)= 1.150)
# # Abs   Z=29 Rmt= 1.334 Rnm= 1.408 K  shell
# # Pot 1 Z= 3 Rmt= 1.264 Rnm= 1.325
# # Pot 2 Z=29 Rmt= 1.356 Rnm= 1.414
# # Pot 3 Z=15 Rmt= 0.949 Rnm= 1.158
# # Pot 4 Z= 8 Rmt= 0.926 Rnm= 1.037
# # Gam_ch=1.729E+00 H-L exch Vi= 0.000E+00 Vr= 0.000E+00
# # Mu=-5.880E+00eV kf=2.380E+00 Vint=-1.693E+01eV Rs_int= 1.524
# FMS rfms= 9.0000
# # PATH  Rmax=-1.000,  Keep_limit= 0.00, Heap_limit 0.00  Pwcrit= 2.50%
#  S02=0.950  Temp=   0.00  Debye_temp=   0.00  Global_sig2= 0.00000
#  Energy zero shift, vr, vi    0.00000E+00   0.00000E+00
#  Curved wave amplitude ratio filter   4.000%
#     file         sig2 tot  cw amp ratio   deg  nlegs   reff  inp sig2
#     0/   0 paths used
#  xsedge+ 50, used to normalize mu           2.4636E-04
#  -----------------------------------------------------------------------
#  omega    e    k    mu    mu0     chi     @#
    8983.635     -9.690  -1.000  5.68194E-02  5.63271E-02  4.92227E-04
    8983.934     -9.391  -0.960  6.10687E-02  6.04932E-02  5.75465E-04
    8984.220     -9.104  -0.920  6.58183E-02  6.51303E-02  6.88073E-04
    8984.495     -8.830  -0.880  7.11477E-02  7.03084E-02  8.39219E-04
    8984.757     -8.568  -0.840  7.71500E-02  7.61096E-02  1.04042E-03
    8985.007     -8.318  -0.800  8.39344E-02  8.26284E-02  1.30598E-03
    8985.245     -8.080  -0.760  9.16275E-02  8.99742E-02  1.65335E-03
    8985.470     -7.855  -0.720  1.00373E-01  9.82700E-02  2.10345E-03
    8985.683     -7.641  -0.680  1.10333E-01  1.07652E-01  2.68065E-03
    8985.885     -7.440  -0.640  1.21676E-01  1.18264E-01  3.41232E-03
    8986.074     -7.251  -0.600  1.34574E-01  1.30247E-01  4.32757E-03
    8986.250     -7.074  -0.560  1.49177E-01  1.43722E-01  5.45475E-03
    8986.415     -6.910  -0.520  1.65580E-01  1.58763E-01  6.81745E-03
    8986.567     -6.757  -0.480  1.83782E-01  1.75353E-01  8.42880E-03
    8986.708     -6.617  -0.440  2.03633E-01  1.93348E-01  1.02845E-02
    8986.836     -6.489  -0.400  2.24788E-01  2.12432E-01  1.23564E-02
    8986.951     -6.373  -0.360  2.46695E-01  2.32106E-01  1.45885E-02
    8987.055     -6.270  -0.320  2.68626E-01  2.51727E-01  1.68989E-02
    8987.146     -6.178  -0.280  2.89765E-01  2.70577E-01  1.91886E-02
    8987.226     -6.099  -0.240  3.09323E-01  2.87969E-01  2.13543E-02
    8987.293     -6.032  -0.200  3.26633E-01  3.03330E-01  2.33032E-02
    8987.348     -5.977  -0.160  3.41205E-01  3.16242E-01  2.49630E-02
    8987.390     -5.934  -0.120  3.52727E-01  3.26442E-01  2.62848E-02
    8987.421     -5.904  -0.080  3.61022E-01  3.33786E-01  2.72368E-02
    8987.445     -5.880   0.000  3.67655E-01  3.39682E-01  2.79735E-02
    8987.500     -5.825   0.120  3.82333E-01  3.52978E-01  2.93557E-02
    8987.543     -5.782   0.160  3.93858E-01  3.63295E-01  3.05636E-02
    8987.598     -5.727   0.200  4.08586E-01  3.76443E-01  3.21424E-02
    8987.665     -5.660   0.240  4.26312E-01  3.92249E-01  3.40633E-02
    8987.744     -5.581   0.280  4.46590E-01  4.10335E-01  3.62550E-02
    8987.835     -5.489   0.320  4.68787E-01  4.30232E-01  3.85552E-02
    8987.939     -5.386   0.360  4.92008E-01  4.51338E-01  4.06706E-02
    8988.055     -5.270   0.400  5.15075E-01  4.72992E-01  4.20839E-02
    8988.183     -5.142   0.440  5.36534E-01  4.94631E-01  4.19028E-02
    8988.323     -5.002   0.480  5.54491E-01  5.15747E-01  3.87445E-02
    8988.475     -4.849   0.520  5.66867E-01  5.36092E-01  3.07758E-02
    8988.640     -4.685   0.560  5.71703E-01  5.55517E-01  1.61864E-02
    8988.817     -4.508   0.600  5.68087E-01  5.73989E-01 -5.90251E-03
    8989.006     -4.319   0.640  5.56990E-01  5.91578E-01 -3.45887E-02
    8989.207     -4.118   0.680  5.41209E-01  6.08373E-01 -6.71640E-02
    8989.420     -3.904   0.720  5.24438E-01  6.24495E-01 -1.00057E-01
    8989.646     -3.679   0.760  5.10238E-01  6.40049E-01 -1.29812E-01
    8989.884     -3.441   0.800  5.01834E-01  6.55131E-01 -1.53297E-01
    8990.134     -3.191   0.840  5.02241E-01  6.69820E-01 -1.67578E-01
    8990.396     -2.929   0.880  5.13426E-01  6.84220E-01 -1.70794E-01
    8990.670     -2.655   0.920  5.34417E-01  6.98342E-01 -1.63926E-01
    8990.956     -2.368   0.960  5.60939E-01  7.12263E-01 -1.51324E-01
    8991.255     -2.070   1.000  5.88056E-01  7.25989E-01 -1.37933E-01
    8991.566     -1.759   1.040  6.14307E-01  7.39554E-01 -1.25247E-01
    8991.889     -1.436   1.080  6.41866E-01  7.52946E-01 -1.11080E-01
    8992.224     -1.100   1.120  6.72696E-01  7.66182E-01 -9.34864E-02
    8992.572     -0.753   1.160  7.06498E-01  7.79257E-01 -7.27594E-02
    8992.932     -0.393   1.200  7.42506E-01  7.92161E-01 -4.96552E-02
    8993.303     -0.021   1.240  7.79409E-01  8.04876E-01 -2.54667E-02
    8993.687      0.363   1.280  8.16534E-01  8.17404E-01 -8.70062E-04
    8994.084      0.759   1.320  8.56952E-01  8.29685E-01  2.72673E-02
    8994.492      1.167   1.360  9.04184E-01  8.41735E-01  6.24486E-02
    8994.913      1.588   1.400  9.57073E-01  8.53529E-01  1.03543E-01
    8995.346      2.021   1.440  1.01056E+00  8.65041E-01  1.45517E-01
    8995.791      2.466   1.480  1.06096E+00  8.76245E-01  1.84710E-01
    8996.248      2.923   1.520  1.10560E+00  8.87115E-01  2.18487E-01
    8996.717      3.392   1.560  1.13950E+00  8.97642E-01  2.41859E-01
    8997.199      3.874   1.600  1.16273E+00  9.07801E-01  2.54930E-01
    8997.693      4.368   1.640  1.18128E+00  9.17587E-01  2.63696E-01
    8998.198      4.874   1.680  1.19342E+00  9.26971E-01  2.66448E-01
    8998.717      5.392   1.720  1.18686E+00  9.35929E-01  2.50926E-01
    8999.247      5.922   1.760  1.15744E+00  9.44477E-01  2.12958E-01
    8999.790      6.465   1.800  1.11957E+00  9.52592E-01  1.66979E-01
    9000.344      7.020   1.840  1.09011E+00  9.60251E-01  1.29854E-01
    9000.911      7.586   1.880  1.07383E+00  9.67472E-01  1.06357E-01
    9001.490      8.166   1.920  1.07198E+00  9.74254E-01  9.77287E-02
    9002.082      8.757   1.960  1.08307E+00  9.80558E-01  1.02517E-01
    9002.685      9.360   2.000  1.09856E+00  9.86426E-01  1.12134E-01
    9003.301      9.976   2.040  1.10783E+00  9.91840E-01  1.15990E-01
    9003.929     10.604   2.080  1.10649E+00  9.96822E-01  1.09663E-01
    9004.569     11.244   2.120  1.09519E+00  1.00138E+00  9.38104E-02
    9005.221     11.896   2.160  1.07530E+00  1.00549E+00  6.98084E-02
    9005.886     12.561   2.200  1.05047E+00  1.00919E+00  4.12814E-02
    9006.562     13.237   2.240  1.02774E+00  1.01247E+00  1.52682E-02
    9007.251     13.926   2.280  1.01380E+00  1.01537E+00 -1.56681E-03
    9007.952     14.627   2.320  1.01030E+00  1.01790E+00 -7.59076E-03
    9008.665     15.341   2.360  1.01299E+00  1.02005E+00 -7.06239E-03
    9009.391     16.066   2.400  1.01496E+00  1.02187E+00 -6.91080E-03
    9010.128     16.804   2.440  1.01076E+00  1.02334E+00 -1.25782E-02
    9010.878     17.553   2.480  9.99234E-01  1.02452E+00 -2.52887E-02
    9011.640     18.315   2.520  9.83472E-01  1.02539E+00 -4.19214E-02
    9012.414     19.090   2.560  9.68853E-01  1.02598E+00 -5.71281E-02
    9013.201     19.876   2.600  9.60226E-01  1.02631E+00 -6.60889E-02
    9013.999     20.675   2.640  9.58607E-01  1.02640E+00 -6.77952E-02
    9014.810     21.485   2.680  9.60597E-01  1.02628E+00 -6.56783E-02
    9015.633     22.308   2.720  9.63306E-01  1.02594E+00 -6.26381E-02
    9016.468     23.143   2.760  9.69282E-01  1.02544E+00 -5.61549E-02
    9017.315     23.991   2.800  9.80859E-01  1.02474E+00 -4.38810E-02
    9018.175     24.850   2.840  9.90232E-01  1.02390E+00 -3.36723E-02
    9019.047     25.722   2.880  9.95138E-01  1.02294E+00 -2.78004E-02
    9019.931     26.606   2.920  9.96496E-01  1.02183E+00 -2.53345E-02
    9020.827     27.502   2.960  9.95936E-01  1.02065E+00 -2.47134E-02
    9021.735     28.410   3.000  9.94206E-01  1.01936E+00 -2.51540E-02
    9022.656     29.331   3.040  9.91431E-01  1.01799E+00 -2.65607E-02
    9023.588     30.263   3.080  9.87621E-01  1.01657E+00 -2.89496E-02
    9024.533     31.208   3.120  9.83099E-01  1.01511E+00 -3.20073E-02
    9025.490     32.165   3.160  9.78457E-01  1.01360E+00 -3.51463E-02
    9026.459     33.135   3.200  9.74210E-01  1.01209E+00 -3.78772E-02
    9027.441     34.116   3.240  9.70761E-01  1.01054E+00 -3.97834E-02
    9028.435     35.110   3.280  9.68402E-01  1.00902E+00 -4.06191E-02
    9029.440     36.116   3.320  9.67201E-01  1.00750E+00 -4.03003E-02
    9030.458     37.134   3.360  9.67272E-01  1.00599E+00 -3.87174E-02
    9031.489     38.164   3.400  9.68820E-01  1.00451E+00 -3.56901E-02
    9032.531     39.206   3.440  9.72037E-01  1.00307E+00 -3.10301E-02
    9033.586     40.261   3.480  9.76926E-01  1.00166E+00 -2.47376E-02
    9034.652     41.328   3.520  9.83190E-01  1.00030E+00 -1.71146E-02
    9035.731     42.407   3.560  9.90203E-01  9.99013E-01 -8.81005E-03
    9036.823     43.498   3.600  9.97099E-01  9.97771E-01 -6.72413E-04
    9037.926     44.601   3.640  1.00313E+00  9.96600E-01  6.52828E-03
    9039.042     45.717   3.680  1.00776E+00  9.95482E-01  1.22773E-02
    9040.169     46.845   3.720  1.01086E+00  9.94440E-01  1.64175E-02
    9041.309     47.984   3.760  1.01271E+00  9.93498E-01  1.92155E-02
    9042.461     49.137   3.800  1.01376E+00  9.92614E-01  2.11504E-02
    9043.626     50.301   3.840  1.01444E+00  9.91809E-01  2.26357E-02
    9044.802     51.477   3.880  1.01499E+00  9.91086E-01  2.39056E-02
    9045.991     52.666   3.920  1.01548E+00  9.90465E-01  2.50157E-02
    9047.192     53.867   3.960  1.01582E+00  9.89907E-01  2.59174E-02
    9048.405     55.080   4.000  1.01597E+00  9.89451E-01  2.65226E-02
    9049.630     56.305   4.040  1.01585E+00  9.89076E-01  2.67776E-02
    9050.868     57.543   4.080  1.01538E+00  9.88762E-01  2.66194E-02
    9052.117     58.793   4.120  1.01455E+00  9.88550E-01  2.60047E-02
    9053.379     60.055   4.160  1.01337E+00  9.88419E-01  2.49522E-02
    9054.653     61.329   4.200  1.01196E+00  9.88368E-01  2.35944E-02
    9055.940     62.615   4.240  1.01051E+00  9.88395E-01  2.21194E-02
    9057.238     63.913   4.280  1.00920E+00  9.88478E-01  2.07199E-02
    9058.549     65.224   4.320  1.00816E+00  9.88657E-01  1.95048E-02
    9059.871     66.547   4.360  1.00732E+00  9.88890E-01  1.84320E-02
    9061.206     67.882   4.400  1.00653E+00  9.89172E-01  1.73535E-02
    9062.554     69.229   4.440  1.00566E+00  9.89526E-01  1.61296E-02
    9063.913     70.588   4.480  1.00464E+00  9.89951E-01  1.46921E-02
    9065.285     71.960   4.520  1.00344E+00  9.90421E-01  1.30188E-02
    9066.668     73.344   4.560  1.00202E+00  9.90934E-01  1.10904E-02
    9068.064     74.740   4.600  1.00035E+00  9.91489E-01  8.86072E-03
    9069.473     76.148   4.640  9.98395E-01  9.92084E-01  6.31020E-03
    9070.893     77.568   4.680  9.96264E-01  9.92739E-01  3.52533E-03
    9072.326     79.001   4.720  9.94070E-01  9.93386E-01  6.83825E-04
    9073.770     80.446   4.760  9.92096E-01  9.94086E-01 -1.99025E-03
    9075.227     81.902   4.800  9.90540E-01  9.94794E-01 -4.25392E-03
    9076.696     83.372   4.840  9.89632E-01  9.95507E-01 -5.87456E-03
    9078.178     84.853   4.880  9.89557E-01  9.96224E-01 -6.66706E-03
    9079.671     86.346   4.920  9.90434E-01  9.96963E-01 -6.52973E-03
    9081.177     87.852   4.960  9.92200E-01  9.97680E-01 -5.47984E-03
    9082.695     89.370   5.000  9.94775E-01  9.98416E-01 -3.64113E-03
    9084.225     90.900   5.040  9.97829E-01  9.99123E-01 -1.29418E-03
    9085.767     92.442   5.080  1.00086E+00  9.99800E-01  1.06414E-03
    9087.322     93.997   5.120  1.00322E+00  1.00049E+00  2.73027E-03
    9088.888     95.564   5.160  1.00405E+00  1.00112E+00  2.92700E-03
    9090.467     97.142   5.200  1.00278E+00  1.00174E+00  1.04531E-03
    9092.058     98.733   5.240  9.99219E-01  1.00229E+00 -3.07286E-03
    9093.661    100.337   5.280  9.93819E-01  1.00283E+00 -9.01027E-03
    9095.277    101.952   5.320  9.87392E-01  1.00333E+00 -1.59334E-02
    9096.904    103.580   5.360  9.80852E-01  1.00378E+00 -2.29265E-02
    9098.544    105.220   5.400  9.74976E-01  1.00416E+00 -2.91872E-02
    9100.196    106.872   5.440  9.70486E-01  1.00450E+00 -3.40157E-02
    9101.861    108.536   5.480  9.68021E-01  1.00479E+00 -3.67720E-02
    9103.537    110.212   5.520  9.68011E-01  1.00501E+00 -3.70028E-02
    9105.226    111.901   5.560  9.70539E-01  1.00519E+00 -3.46476E-02
    9106.926    113.602   5.600  9.75190E-01  1.00531E+00 -3.01216E-02
    9108.639    115.315   5.640  9.81181E-01  1.00536E+00 -2.41828E-02
    9110.364    117.040   5.680  9.87676E-01  1.00534E+00 -1.76657E-02
    9112.102    118.777   5.720  9.93999E-01  1.00527E+00 -1.12703E-02
    9113.851    120.527   5.760  9.99609E-01  1.00513E+00 -5.51652E-03
    9115.613    122.288   5.800  1.00417E+00  1.00493E+00 -7.62241E-04
    9117.387    124.062   5.840  1.00748E+00  1.00467E+00  2.81059E-03
    9119.173    125.848   5.880  1.00956E+00  1.00433E+00  5.23137E-03
    9120.971    127.647   5.920  1.01071E+00  1.00398E+00  6.73601E-03
    9122.782    129.457   5.960  1.01127E+00  1.00353E+00  7.74626E-03
    9124.605    131.280   6.000  1.01179E+00  1.00302E+00  8.77455E-03
