# # comment:                                                     FEFF 9.9.1  
# # Source:
# # Structure
# # Reduced
# # space
# # abc:
# # angles:
# # sites:
# # POT  SCF 100  7.0000   0, screened core-hole, AFOLP (folp(0)= 1.150)
# # Abs   Z=29 Rmt= 1.328 Rnm= 1.387 K  shell
# # Pot 1 Z= 3 Rmt= 1.274 Rnm= 1.331
# # Pot 2 Z=29 Rmt= 1.340 Rnm= 1.398
# # Pot 3 Z=15 Rmt= 0.944 Rnm= 1.153
# # Pot 4 Z= 8 Rmt= 0.931 Rnm= 1.037
# # Gam_ch=1.729E+00 H-L exch Vi= 0.000E+00 Vr= 0.000E+00
# # Mu=-6.635E+00eV kf=2.358E+00 Vint=-1.762E+01eV Rs_int= 1.538
# FMS rfms= 9.0000
# # PATH  Rmax=-1.000,  Keep_limit= 0.00, Heap_limit 0.00  Pwcrit= 2.50%
#  S02=0.950  Temp=   0.00  Debye_temp=   0.00  Global_sig2= 0.00000
#  Energy zero shift, vr, vi    0.00000E+00   0.00000E+00
#  Curved wave amplitude ratio filter   4.000%
#     file         sig2 tot  cw amp ratio   deg  nlegs   reff  inp sig2
#     0/   0 paths used
#  xsedge+ 50, used to normalize mu           2.4666E-04
#  -----------------------------------------------------------------------
#  omega    e    k    mu    mu0     chi     @#
    8983.837    -10.445  -1.000  5.03728E-02  5.50875E-02 -4.71469E-03
    8984.135    -10.147  -0.960  5.37125E-02  5.91323E-02 -5.41984E-03
    8984.422     -9.860  -0.920  5.73937E-02  6.36323E-02 -6.23864E-03
    8984.696     -9.586  -0.880  6.14649E-02  6.86552E-02 -7.19027E-03
    8984.958     -9.324  -0.840  6.59825E-02  7.42797E-02 -8.29719E-03
    8985.208     -9.074  -0.800  7.10118E-02  8.05974E-02 -9.58558E-03
    8985.446     -8.836  -0.760  7.66277E-02  8.77133E-02 -1.10856E-02
    8985.671     -8.611  -0.720  8.29148E-02  9.57463E-02 -1.28316E-02
    8985.885     -8.397  -0.680  8.99660E-02  1.04827E-01 -1.48615E-02
    8986.086     -8.196  -0.640  9.78796E-02  1.15095E-01 -1.72157E-02
    8986.275     -8.007  -0.600  1.06751E-01  1.26686E-01 -1.99345E-02
    8986.452     -7.830  -0.560  1.16663E-01  1.39716E-01 -2.30527E-02
    8986.616     -7.666  -0.520  1.27663E-01  1.54255E-01 -2.65923E-02
    8986.769     -7.513  -0.480  1.39738E-01  1.70289E-01 -3.05516E-02
    8986.909     -7.373  -0.440  1.52784E-01  1.87677E-01 -3.48929E-02
    8987.037     -7.245  -0.400  1.66582E-01  2.06114E-01 -3.95320E-02
    8987.153     -7.129  -0.360  1.80784E-01  2.25120E-01 -4.43358E-02
    8987.256     -7.026  -0.320  1.94941E-01  2.44073E-01 -4.91313E-02
    8987.348     -6.934  -0.280  2.08552E-01  2.62281E-01 -5.37291E-02
    8987.427     -6.855  -0.240  2.21130E-01  2.79082E-01 -5.79514E-02
    8987.494     -6.788  -0.200  2.32266E-01  2.93921E-01 -6.16555E-02
    8987.549     -6.733  -0.160  2.41652E-01  3.06396E-01 -6.47444E-02
    8987.592     -6.690  -0.120  2.49087E-01  3.16251E-01 -6.71645E-02
    8987.622     -6.660  -0.080  2.54451E-01  3.23347E-01 -6.88959E-02
    8987.647     -6.635   0.000  2.58753E-01  3.29044E-01 -7.02908E-02
    8987.701     -6.581   0.120  2.68348E-01  3.41887E-01 -7.35394E-02
    8987.744     -6.538   0.160  2.75860E-01  3.51849E-01 -7.59886E-02
    8987.799     -6.483   0.200  2.85523E-01  3.64572E-01 -7.90493E-02
    8987.866     -6.416   0.240  2.97214E-01  3.79850E-01 -8.26363E-02
    8987.945     -6.337   0.280  3.10716E-01  3.97339E-01 -8.66230E-02
    8988.037     -6.245   0.320  3.25763E-01  4.16610E-01 -9.08470E-02
    8988.140     -6.142   0.360  3.41919E-01  4.37042E-01 -9.51237E-02
    8988.256     -6.026   0.400  3.58734E-01  4.58022E-01 -9.92880E-02
    8988.384     -5.898   0.440  3.75811E-01  4.78988E-01 -1.03177E-01
    8988.524     -5.758   0.480  3.92840E-01  4.99509E-01 -1.06669E-01
    8988.677     -5.605   0.520  4.09610E-01  5.19290E-01 -1.09680E-01
    8988.841     -5.441   0.560  4.25910E-01  5.38207E-01 -1.12297E-01
    8989.018     -5.264   0.600  4.41266E-01  5.56248E-01 -1.14981E-01
    8989.207     -5.075   0.640  4.54737E-01  5.73439E-01 -1.18703E-01
    8989.408     -4.874   0.680  4.65255E-01  5.89907E-01 -1.24652E-01
    8989.622     -4.660   0.720  4.72157E-01  6.05750E-01 -1.33593E-01
    8989.847     -4.435   0.760  4.75725E-01  6.21068E-01 -1.45344E-01
    8990.085     -4.197   0.800  4.77302E-01  6.35972E-01 -1.58670E-01
    8990.335     -3.947   0.840  4.79636E-01  6.50539E-01 -1.70903E-01
    8990.597     -3.685   0.880  4.87282E-01  6.64829E-01 -1.77547E-01
    8990.871     -3.411   0.920  5.05423E-01  6.78910E-01 -1.73487E-01
    8991.158     -3.124   0.960  5.36778E-01  6.92819E-01 -1.56042E-01
    8991.457     -2.825   1.000  5.79495E-01  7.06560E-01 -1.27065E-01
    8991.767     -2.515   1.040  6.27537E-01  7.20184E-01 -9.26468E-02
    8992.091     -2.191   1.080  6.71628E-01  7.33678E-01 -6.20501E-02
    8992.426     -1.856   1.120  7.02789E-01  7.47040E-01 -4.42503E-02
    8992.773     -1.509   1.160  7.17937E-01  7.60282E-01 -4.23455E-02
    8993.133     -1.149   1.200  7.24183E-01  7.73395E-01 -4.92117E-02
    8993.505     -0.777   1.240  7.35296E-01  7.86340E-01 -5.10441E-02
    8993.889     -0.393   1.280  7.61335E-01  7.99118E-01 -3.77830E-02
    8994.285      0.003   1.320  8.01828E-01  8.11728E-01 -9.89974E-03
    8994.693      0.412   1.360  8.48383E-01  8.24105E-01  2.42778E-02
    8995.114      0.832   1.400  8.94024E-01  8.36264E-01  5.77596E-02
    8995.547      1.265   1.440  9.37152E-01  8.48179E-01  8.89729E-02
    8995.992      1.710   1.480  9.84434E-01  8.59802E-01  1.24632E-01
    8996.449      2.167   1.520  1.04653E+00  8.71124E-01  1.75408E-01
    8996.919      2.637   1.560  1.11961E+00  8.82139E-01  2.37473E-01
    8997.400      3.118   1.600  1.18863E+00  8.92798E-01  2.95828E-01
    8997.894      3.612   1.640  1.24708E+00  9.03095E-01  3.43983E-01
    8998.400      4.118   1.680  1.29983E+00  9.13022E-01  3.86809E-01
    8998.918      4.636   1.720  1.35207E+00  9.22551E-01  4.29515E-01
    8999.448      5.166   1.760  1.38582E+00  9.31658E-01  4.54165E-01
    8999.991      5.709   1.800  1.37010E+00  9.40358E-01  4.29745E-01
    9000.546      6.264   1.840  1.30610E+00  9.48605E-01  3.57495E-01
    9001.113      6.831   1.880  1.22356E+00  9.56418E-01  2.67139E-01
    9001.692      7.410   1.920  1.14782E+00  9.63774E-01  1.84043E-01
    9002.283      8.001   1.960  1.09272E+00  9.70692E-01  1.22025E-01
    9002.886      8.605   2.000  1.06100E+00  9.77154E-01  8.38417E-02
    9003.502      9.220   2.040  1.05031E+00  9.83156E-01  6.71504E-02
    9004.130      9.848   2.080  1.05550E+00  9.88705E-01  6.67951E-02
    9004.770     10.488   2.120  1.06814E+00  9.93801E-01  7.43376E-02
    9005.422     11.140   2.160  1.07829E+00  9.98469E-01  7.98216E-02
    9006.087     11.805   2.200  1.07731E+00  1.00271E+00  7.45985E-02
    9006.764     12.482   2.240  1.06462E+00  1.00652E+00  5.80997E-02
    9007.452     13.170   2.280  1.04803E+00  1.00993E+00  3.80989E-02
    9008.153     13.871   2.320  1.03305E+00  1.01292E+00  2.01279E-02
    9008.867     14.585   2.360  1.01823E+00  1.01555E+00  2.67673E-03
    9009.592     15.310   2.400  1.00174E+00  1.01781E+00 -1.60753E-02
    9010.330     16.048   2.440  9.84811E-01  1.01971E+00 -3.49008E-02
    9011.079     16.798   2.480  9.69296E-01  1.02128E+00 -5.19816E-02
    9011.841     17.560   2.520  9.57722E-01  1.02252E+00 -6.47981E-02
    9012.616     18.334   2.560  9.52349E-01  1.02349E+00 -7.11386E-02
    9013.402     19.120   2.600  9.52891E-01  1.02415E+00 -7.12573E-02
    9014.201     19.919   2.640  9.56066E-01  1.02455E+00 -6.84873E-02
    9015.011     20.729   2.680  9.58377E-01  1.02471E+00 -6.63334E-02
    9015.834     21.552   2.720  9.55932E-01  1.02463E+00 -6.86964E-02
    9016.669     22.388   2.760  9.44551E-01  1.02434E+00 -7.97884E-02
    9017.517     23.235   2.800  9.30816E-01  1.02387E+00 -9.30569E-02
    9018.376     24.094   2.840  9.21018E-01  1.02324E+00 -1.02218E-01
    9019.248     24.966   2.880  9.16009E-01  1.02242E+00 -1.06408E-01
    9020.132     25.850   2.920  9.15440E-01  1.02149E+00 -1.06048E-01
    9021.028     26.746   2.960  9.17966E-01  1.02041E+00 -1.02448E-01
    9021.936     27.654   3.000  9.22242E-01  1.01925E+00 -9.70042E-02
    9022.857     28.575   3.040  9.26977E-01  1.01799E+00 -9.10126E-02
    9023.790     29.508   3.080  9.31334E-01  1.01665E+00 -8.53198E-02
    9024.734     30.452   3.120  9.35199E-01  1.01527E+00 -8.00665E-02
    9025.692     31.410   3.160  9.38875E-01  1.01381E+00 -7.49359E-02
    9026.661     32.379   3.200  9.42709E-01  1.01234E+00 -6.96276E-02
    9027.642     33.360   3.240  9.47112E-01  1.01083E+00 -6.37163E-02
    9028.636     34.354   3.280  9.52323E-01  1.00931E+00 -5.69891E-02
    9029.642     35.360   3.320  9.58344E-01  1.00777E+00 -4.94282E-02
    9030.660     36.378   3.360  9.65225E-01  1.00626E+00 -4.10315E-02
    9031.690     37.408   3.400  9.72812E-01  1.00477E+00 -3.19583E-02
    9032.732     38.450   3.440  9.80597E-01  1.00330E+00 -2.26989E-02
    9033.787     39.505   3.480  9.87978E-01  1.00186E+00 -1.38805E-02
    9034.854     40.572   3.520  9.94434E-01  1.00048E+00 -6.04856E-03
    9035.933     41.651   3.560  9.99724E-01  9.99129E-01  5.94474E-04
    9037.024     42.742   3.600  1.00418E+00  9.97842E-01  6.34046E-03
    9038.127     43.845   3.640  1.00842E+00  9.96605E-01  1.18192E-02
    9039.243     44.961   3.680  1.01320E+00  9.95461E-01  1.77342E-02
    9040.371     46.089   3.720  1.01896E+00  9.94351E-01  2.46068E-02
    9041.511     47.229   3.760  1.02605E+00  9.93337E-01  3.27114E-02
    9042.663     48.381   3.800  1.03449E+00  9.92402E-01  4.20874E-02
    9043.827     49.545   3.840  1.04405E+00  9.91524E-01  5.25261E-02
    9045.004     50.722   3.880  1.05439E+00  9.90746E-01  6.36397E-02
    9046.192     51.910   3.920  1.06492E+00  9.90029E-01  7.48856E-02
    9047.393     53.111   3.960  1.07500E+00  9.89416E-01  8.55808E-02
    9048.606     54.324   4.000  1.08377E+00  9.88885E-01  9.48871E-02
    9049.832     55.550   4.040  1.09045E+00  9.88435E-01  1.02019E-01
    9051.069     56.787   4.080  1.09424E+00  9.88067E-01  1.06178E-01
    9052.319     58.037   4.120  1.09445E+00  9.87780E-01  1.06672E-01
    9053.581     59.299   4.160  1.09065E+00  9.87577E-01  1.03075E-01
    9054.855     60.573   4.200  1.08294E+00  9.87474E-01  9.54660E-02
    9056.141     61.859   4.240  1.07172E+00  9.87429E-01  8.42897E-02
    9057.439     63.157   4.280  1.05777E+00  9.87462E-01  7.03041E-02
    9058.750     64.468   4.320  1.04198E+00  9.87573E-01  5.44101E-02
    9060.073     65.791   4.360  1.02521E+00  9.87759E-01  3.74515E-02
    9061.408     67.126   4.400  1.00823E+00  9.87996E-01  2.02385E-02
    9062.755     68.473   4.440  9.91898E-01  9.88305E-01  3.59277E-03
    9064.114     69.832   4.480  9.76932E-01  9.88664E-01 -1.17318E-02
    9065.486     71.204   4.520  9.63994E-01  9.89093E-01 -2.50986E-02
    9066.870     72.588   4.560  9.53500E-01  9.89590E-01 -3.60900E-02
    9068.266     73.984   4.600  9.45446E-01  9.90109E-01 -4.46629E-02
    9069.674     75.392   4.640  9.39527E-01  9.90667E-01 -5.11399E-02
    9071.094     76.812   4.680  9.35264E-01  9.91286E-01 -5.60223E-02
    9072.527     78.245   4.720  9.32011E-01  9.91922E-01 -5.99110E-02
    9073.972     79.690   4.760  9.29380E-01  9.92591E-01 -6.32108E-02
    9075.429     81.147   4.800  9.27311E-01  9.93293E-01 -6.59820E-02
    9076.898     82.616   4.840  9.26047E-01  9.94001E-01 -6.79543E-02
    9078.379     84.097   4.880  9.26102E-01  9.94713E-01 -6.86108E-02
    9079.873     85.591   4.920  9.28048E-01  9.95427E-01 -6.73791E-02
    9081.378     87.096   4.960  9.32271E-01  9.96163E-01 -6.38926E-02
    9082.896     88.614   5.000  9.38882E-01  9.96876E-01 -5.79938E-02
    9084.426     90.144   5.040  9.47770E-01  9.97582E-01 -4.98124E-02
    9085.969     91.687   5.080  9.58500E-01  9.98282E-01 -3.97825E-02
    9087.523     93.241   5.120  9.70336E-01  9.98952E-01 -2.86168E-02
    9089.090     94.808   5.160  9.82383E-01  9.99610E-01 -1.72271E-02
    9090.669     96.387   5.200  9.93724E-01  1.00023E+00 -6.50627E-03
    9092.260     97.978   5.240  1.00366E+00  1.00081E+00  2.85026E-03
    9093.863     99.581   5.280  1.01175E+00  1.00136E+00  1.03967E-02
    9095.478    101.196   5.320  1.01779E+00  1.00186E+00  1.59281E-02
    9097.106    102.824   5.360  1.02176E+00  1.00231E+00  1.94459E-02
    9098.746    104.464   5.400  1.02380E+00  1.00273E+00  2.10739E-02
    9100.398    106.116   5.440  1.02399E+00  1.00307E+00  2.09178E-02
    9102.062    107.780   5.480  1.02238E+00  1.00337E+00  1.90152E-02
    9103.738    109.456   5.520  1.01906E+00  1.00362E+00  1.54365E-02
    9105.427    111.145   5.560  1.01419E+00  1.00380E+00  1.03914E-02
    9107.128    112.846   5.600  1.00821E+00  1.00393E+00  4.28198E-03
    9108.841    114.559   5.640  1.00168E+00  1.00401E+00 -2.32653E-03
    9110.566    116.284   5.680  9.95281E-01  1.00399E+00 -8.71308E-03
    9112.303    118.021   5.720  9.89916E-01  1.00393E+00 -1.40127E-02
    9114.053    119.771   5.760  9.86492E-01  1.00381E+00 -1.73224E-02
    9115.814    121.532   5.800  9.85730E-01  1.00363E+00 -1.78971E-02
    9117.588    123.306   5.840  9.88020E-01  1.00337E+00 -1.53486E-02
    9119.374    125.093   5.880  9.93284E-01  1.00306E+00 -9.77975E-03
    9121.173    126.891   5.920  1.00090E+00  1.00272E+00 -1.81755E-03
    9122.983    128.701   5.960  1.00976E+00  1.00229E+00  7.46873E-03
    9124.806    130.524   6.000  1.01869E+00  1.00176E+00  1.69298E-02
