# # comment:                                                     FEFF 9.9.1  
# # Source:
# # Structure
# # Reduced
# # space
# # abc:
# # angles:108.726120
# # sites:
# # POT  SCF 100  7.0000   0, screened core-hole, AFOLP (folp(0)= 1.150)
# # Abs   Z=29 Rmt= 1.168 Rnm= 1.296 K  shell
# # Pot 1 Z=29 Rmt= 1.168 Rnm= 1.296
# # Pot 2 Z= 7 Rmt= 1.434 Rnm= 1.464
# # Pot 3 Z=17 Rmt= 1.566 Rnm= 1.626
# # Pot 4 Z= 8 Rmt= 1.013 Rnm= 1.190
# # Gam_ch=1.729E+00 H-L exch Vi= 0.000E+00 Vr= 0.000E+00
# # Mu=-7.233E+00eV kf=1.738E+00 Vint=-9.876E+00eV Rs_int= 2.086
# FMS rfms= 9.0000
# # PATH  Rmax=-1.000,  Keep_limit= 0.00, Heap_limit 0.00  Pwcrit= 2.50%
#  S02=0.950  Temp=   0.00  Debye_temp=   0.00  Global_sig2= 0.00000
#  Energy zero shift, vr, vi    0.00000E+00   0.00000E+00
#  Curved wave amplitude ratio filter   4.000%
#     file         sig2 tot  cw amp ratio   deg  nlegs   reff  inp sig2
#     0/   0 paths used
#  xsedge+ 50, used to normalize mu           2.3515E-04
#  -----------------------------------------------------------------------
#  omega    e    k    mu    mu0     chi     @#
    8983.303    -11.043  -1.000  2.91436E-02  5.14926E-02 -2.23489E-02
    8983.602    -10.745  -0.960  3.01801E-02  5.47013E-02 -2.45213E-02
    8983.888    -10.458  -0.920  3.12626E-02  5.81992E-02 -2.69366E-02
    8984.163    -10.184  -0.880  3.23957E-02  6.20208E-02 -2.96250E-02
    8984.425     -9.922  -0.840  3.35854E-02  6.62057E-02 -3.26203E-02
    8984.675     -9.672  -0.800  3.48385E-02  7.07986E-02 -3.59601E-02
    8984.913     -9.434  -0.760  3.61636E-02  7.58497E-02 -3.96862E-02
    8985.138     -9.208  -0.720  3.75705E-02  8.14143E-02 -4.38438E-02
    8985.351     -8.995  -0.680  3.90708E-02  8.75516E-02 -4.84808E-02
    8985.553     -8.794  -0.640  4.06768E-02  9.43223E-02 -5.36455E-02
    8985.742     -8.605  -0.600  4.24008E-02  1.01784E-01 -5.93829E-02
    8985.918     -8.428  -0.560  4.42530E-02  1.09981E-01 -6.57284E-02
    8986.083     -8.264  -0.520  4.62378E-02  1.18936E-01 -7.26984E-02
    8986.235     -8.111  -0.480  4.83497E-02  1.28628E-01 -8.02783E-02
    8986.376     -7.971  -0.440  5.05678E-02  1.38976E-01 -8.84077E-02
    8986.504     -7.843  -0.400  5.28518E-02  1.49820E-01 -9.69677E-02
    8986.619     -7.727  -0.360  5.51424E-02  1.60917E-01 -1.05775E-01
    8986.723     -7.624  -0.320  5.73669E-02  1.71953E-01 -1.14586E-01
    8986.814     -7.532  -0.280  5.94511E-02  1.82573E-01 -1.23122E-01
    8986.894     -7.453  -0.240  6.13319E-02  1.92426E-01 -1.31094E-01
    8986.961     -7.386  -0.200  6.29650E-02  2.01199E-01 -1.38234E-01
    8987.016     -7.331  -0.160  6.43252E-02  2.08646E-01 -1.44321E-01
    8987.058     -7.288  -0.120  6.54010E-02  2.14588E-01 -1.49187E-01
    8987.089     -7.258  -0.080  6.61885E-02  2.18907E-01 -1.52718E-01
    8987.113     -7.233   0.000  6.68715E-02  2.22410E-01 -1.55538E-01
    8987.168     -7.179   0.120  6.87714E-02  2.30355E-01 -1.61584E-01
    8987.211     -7.136   0.160  7.00313E-02  2.36622E-01 -1.66591E-01
    8987.266     -7.081   0.200  7.15159E-02  2.44754E-01 -1.73239E-01
    8987.333     -7.014   0.240  7.31391E-02  2.54766E-01 -1.81627E-01
    8987.412     -6.935   0.280  7.47878E-02  2.66630E-01 -1.91843E-01
    8987.503     -6.843   0.320  7.63607E-02  2.80276E-01 -2.03915E-01
    8987.607     -6.740   0.360  7.77264E-02  2.95591E-01 -2.17864E-01
    8987.723     -6.624   0.400  7.87856E-02  3.12438E-01 -2.33653E-01
    8987.851     -6.496   0.440  7.94725E-02  3.30696E-01 -2.51224E-01
    8987.991     -6.356   0.480  7.97791E-02  3.50272E-01 -2.70493E-01
    8988.143     -6.203   0.520  7.97825E-02  3.71115E-01 -2.91333E-01
    8988.308     -6.039   0.560  7.96454E-02  3.93210E-01 -3.13565E-01
    8988.485     -5.862   0.600  7.95695E-02  4.16564E-01 -3.36994E-01
    8988.674     -5.673   0.640  7.97900E-02  4.41191E-01 -3.61401E-01
    8988.875     -5.472   0.680  8.04588E-02  4.67094E-01 -3.86635E-01
    8989.088     -5.258   0.720  8.17270E-02  4.94287E-01 -4.12560E-01
    8989.314     -5.033   0.760  8.36389E-02  5.22714E-01 -4.39075E-01
    8989.552     -4.795   0.800  8.62310E-02  5.52318E-01 -4.66087E-01
    8989.802     -4.545   0.840  8.95800E-02  5.83029E-01 -4.93449E-01
    8990.064     -4.283   0.880  9.37167E-02  6.14694E-01 -5.20977E-01
    8990.338     -4.009   0.920  9.87443E-02  6.47208E-01 -5.48464E-01
    8990.624     -3.722   0.960  1.04815E-01  6.80364E-01 -5.75550E-01
    8990.923     -3.423   1.000  1.12108E-01  7.13983E-01 -6.01875E-01
    8991.234     -3.113   1.040  1.20858E-01  7.47810E-01 -6.26952E-01
    8991.557     -2.789   1.080  1.31427E-01  7.81624E-01 -6.50197E-01
    8991.892     -2.454   1.120  1.44299E-01  8.15158E-01 -6.70859E-01
    8992.240     -2.107   1.160  1.60209E-01  8.48202E-01 -6.87994E-01
    8992.600     -1.747   1.200  1.80194E-01  8.80465E-01 -7.00271E-01
    8992.971     -1.375   1.240  2.05813E-01  9.11721E-01 -7.05908E-01
    8993.355     -0.991   1.280  2.39583E-01  9.41731E-01 -7.02148E-01
    8993.752     -0.595   1.320  2.85565E-01  9.70309E-01 -6.84744E-01
    8994.160     -0.186   1.360  3.50543E-01  9.97262E-01 -6.46719E-01
    8994.581      0.234   1.400  4.45714E-01  1.02245E+00 -5.76735E-01
    8995.014      0.667   1.440  5.87387E-01  1.04575E+00 -4.58361E-01
    8995.459      1.112   1.480  7.91527E-01  1.06705E+00 -2.75525E-01
    8995.916      1.569   1.520  1.05001E+00  1.08633E+00 -3.63258E-02
    8996.385      2.039   1.560  1.29164E+00  1.10356E+00  1.88078E-01
    8996.867      2.520   1.600  1.42705E+00  1.11872E+00  3.08328E-01
    8997.361      3.014   1.640  1.46315E+00  1.13189E+00  3.31263E-01
    8997.866      3.520   1.680  1.44531E+00  1.14307E+00  3.02235E-01
    8998.385      4.038   1.720  1.38120E+00  1.15237E+00  2.28833E-01
    8998.915      4.568   1.760  1.25947E+00  1.15990E+00  9.95734E-02
    8999.458      5.111   1.800  1.11043E+00  1.16571E+00 -5.52745E-02
    9000.012      5.666   1.840  9.94703E-01  1.16996E+00 -1.75252E-01
    9000.579      6.233   1.880  9.35130E-01  1.17273E+00 -2.37601E-01
    9001.158      6.812   1.920  9.19187E-01  1.17420E+00 -2.55010E-01
    9001.750      7.403   1.960  9.30946E-01  1.17441E+00 -2.43468E-01
    9002.353      8.007   2.000  9.62367E-01  1.17357E+00 -2.11206E-01
    9002.969      8.622   2.040  1.02538E+00  1.17173E+00 -1.46354E-01
    9003.597      9.250   2.080  1.13328E+00  1.16903E+00 -3.57499E-02
    9004.237      9.890   2.120  1.27893E+00  1.16559E+00  1.13339E-01
    9004.889     10.542   2.160  1.41869E+00  1.16148E+00  2.57208E-01
    9005.554     11.207   2.200  1.50296E+00  1.15682E+00  3.46147E-01
    9006.230     11.884   2.240  1.54273E+00  1.15168E+00  3.91051E-01
    9006.919     12.572   2.280  1.54853E+00  1.14616E+00  4.02373E-01
    9007.620     13.273   2.320  1.51990E+00  1.14033E+00  3.79576E-01
    9008.333     13.987   2.360  1.46219E+00  1.13425E+00  3.27939E-01
    9009.059     14.712   2.400  1.39163E+00  1.12799E+00  2.63635E-01
    9009.796     15.450   2.440  1.32504E+00  1.12161E+00  2.03435E-01
    9010.546     16.200   2.480  1.27312E+00  1.11516E+00  1.57951E-01
    9011.308     16.962   2.520  1.23887E+00  1.10866E+00  1.30207E-01
    9012.082     17.736   2.560  1.22050E+00  1.10218E+00  1.18322E-01
    9012.869     18.522   2.600  1.21242E+00  1.09575E+00  1.16678E-01
    9013.667     19.321   2.640  1.20715E+00  1.08939E+00  1.17754E-01
    9014.478     20.131   2.680  1.19546E+00  1.08313E+00  1.12331E-01
    9015.301     20.954   2.720  1.17226E+00  1.07700E+00  9.52616E-02
    9016.136     21.790   2.760  1.14085E+00  1.07102E+00  6.98296E-02
    9016.983     22.637   2.800  1.10907E+00  1.06521E+00  4.38552E-02
    9017.843     23.496   2.840  1.08257E+00  1.05958E+00  2.29956E-02
    9018.715     24.368   2.880  1.06221E+00  1.05416E+00  8.04935E-03
    9019.599     25.252   2.920  1.04631E+00  1.04894E+00 -2.63806E-03
    9020.495     26.148   2.960  1.03310E+00  1.04394E+00 -1.08345E-02
    9021.403     27.056   3.000  1.02166E+00  1.03917E+00 -1.75012E-02
    9022.324     27.977   3.040  1.01121E+00  1.03463E+00 -2.34201E-02
    9023.256     28.910   3.080  1.00083E+00  1.03034E+00 -2.95143E-02
    9024.201     29.855   3.120  9.89585E-01  1.02628E+00 -3.66921E-02
    9025.158     30.812   3.160  9.77123E-01  1.02246E+00 -4.53404E-02
    9026.127     31.781   3.200  9.63814E-01  1.01890E+00 -5.50862E-02
    9027.109     32.762   3.240  9.50257E-01  1.01560E+00 -6.53383E-02
    9028.103     33.756   3.280  9.36701E-01  1.01251E+00 -7.58128E-02
    9029.108     34.762   3.320  9.23340E-01  1.00970E+00 -8.63648E-02
    9030.126     35.780   3.360  9.10493E-01  1.00713E+00 -9.66338E-02
    9031.157     36.810   3.400  8.98828E-01  1.00482E+00 -1.05995E-01
    9032.199     37.852   3.440  8.89063E-01  1.00275E+00 -1.13692E-01
    9033.254     38.907   3.480  8.81804E-01  1.00091E+00 -1.19102E-01
    9034.320     39.974   3.520  8.77268E-01  9.99316E-01 -1.22049E-01
    9035.399     41.053   3.560  8.75480E-01  9.97957E-01 -1.22477E-01
    9036.491     42.144   3.600  8.76709E-01  9.96824E-01 -1.20115E-01
    9037.594     43.247   3.640  8.81615E-01  9.95929E-01 -1.14314E-01
    9038.710     44.363   3.680  8.91248E-01  9.95252E-01 -1.04004E-01
    9039.837     45.491   3.720  9.06612E-01  9.94788E-01 -8.81762E-02
    9040.977     46.631   3.760  9.27996E-01  9.94536E-01 -6.65405E-02
    9042.129     47.783   3.800  9.54301E-01  9.94496E-01 -4.01944E-02
    9043.294     48.947   3.840  9.83303E-01  9.94663E-01 -1.13606E-02
    9044.470     50.124   3.880  1.01276E+00  9.95035E-01  1.77245E-02
    9045.659     51.312   3.920  1.04136E+00  9.95586E-01  4.57748E-02
    9046.860     52.513   3.960  1.06884E+00  9.96313E-01  7.25268E-02
    9048.073     53.726   4.000  1.09520E+00  9.97233E-01  9.79677E-02
    9049.298     54.952   4.040  1.11906E+00  9.98300E-01  1.20764E-01
    9050.536     56.189   4.080  1.13667E+00  9.99531E-01  1.37136E-01
    9051.785     57.439   4.120  1.14318E+00  1.00092E+00  1.42253E-01
    9053.047     58.701   4.160  1.13521E+00  1.00245E+00  1.32762E-01
    9054.321     59.975   4.200  1.11295E+00  1.00411E+00  1.08838E-01
    9055.608     61.261   4.240  1.08058E+00  1.00592E+00  7.46678E-02
    9056.906     62.559   4.280  1.04429E+00  1.00782E+00  3.64703E-02
    9058.217     63.870   4.320  1.00995E+00  1.00983E+00  1.27980E-04
    9059.539     65.193   4.360  9.81478E-01  1.01194E+00 -3.04651E-02
    9060.874     66.528   4.400  9.60541E-01  1.01417E+00 -5.36296E-02
    9062.222     67.875   4.440  9.46826E-01  1.01646E+00 -6.96312E-02
    9063.581     69.235   4.480  9.38726E-01  1.01880E+00 -8.00699E-02
    9064.953     70.606   4.520  9.34463E-01  1.02121E+00 -8.67435E-02
    9066.336     71.990   4.560  9.32967E-01  1.02366E+00 -9.06959E-02
    9067.732     73.386   4.600  9.33991E-01  1.02616E+00 -9.21681E-02
    9069.141     74.794   4.640  9.37763E-01  1.02869E+00 -9.09299E-02
    9070.561     76.214   4.680  9.44805E-01  1.03123E+00 -8.64263E-02
    9071.994     77.647   4.720  9.56350E-01  1.03377E+00 -7.74212E-02
    9073.438     79.092   4.760  9.74402E-01  1.03631E+00 -6.19064E-02
    9074.895     80.549   4.800  1.00066E+00  1.03884E+00 -3.81788E-02
    9076.364     82.018   4.840  1.03450E+00  1.04131E+00 -6.80736E-03
    9077.846     83.499   4.880  1.07179E+00  1.04378E+00  2.80068E-02
    9079.339     84.993   4.920  1.10522E+00  1.04616E+00  5.90589E-02
    9080.845     86.498   4.960  1.12754E+00  1.04852E+00  7.90197E-02
    9082.363     88.016   5.000  1.13481E+00  1.05080E+00  8.40150E-02
    9083.893     89.546   5.040  1.12864E+00  1.05299E+00  7.56458E-02
    9085.435     91.089   5.080  1.11483E+00  1.05510E+00  5.97266E-02
    9086.990     92.643   5.120  1.10012E+00  1.05712E+00  4.29998E-02
    9088.556     94.210   5.160  1.08940E+00  1.05902E+00  3.03798E-02
    9090.135     95.789   5.200  1.08479E+00  1.06083E+00  2.39605E-02
    9091.726     97.380   5.240  1.08597E+00  1.06251E+00  2.34611E-02
    9093.329     98.983   5.280  1.09122E+00  1.06407E+00  2.71581E-02
    9094.945    100.598   5.320  1.09809E+00  1.06549E+00  3.25967E-02
    9096.573    102.226   5.360  1.10380E+00  1.06676E+00  3.70350E-02
    9098.212    103.866   5.400  1.10614E+00  1.06792E+00  3.82179E-02
    9099.864    105.518   5.440  1.10444E+00  1.06892E+00  3.55185E-02
    9101.529    107.182   5.480  1.10042E+00  1.06976E+00  3.06616E-02
    9103.205    108.858   5.520  1.09758E+00  1.07047E+00  2.71154E-02
    9104.894    110.547   5.560  1.09947E+00  1.07103E+00  2.84342E-02
    9106.594    112.248   5.600  1.10787E+00  1.07144E+00  3.64277E-02
    9108.307    113.961   5.640  1.12151E+00  1.07168E+00  4.98275E-02
    9110.032    115.686   5.680  1.13604E+00  1.07176E+00  6.42782E-02
    9111.770    117.423   5.720  1.14587E+00  1.07173E+00  7.41349E-02
    9113.519    119.173   5.760  1.14658E+00  1.07152E+00  7.50628E-02
    9115.281    120.934   5.800  1.13682E+00  1.07120E+00  6.56233E-02
    9117.055    122.708   5.840  1.11819E+00  1.07073E+00  4.74629E-02
    9118.841    124.495   5.880  1.09433E+00  1.07010E+00  2.42288E-02
    9120.639    126.293   5.920  1.06903E+00  1.06937E+00 -3.43087E-04
    9122.450    128.103   5.960  1.04495E+00  1.06850E+00 -2.35561E-02
    9124.273    129.926   6.000  1.02361E+00  1.06736E+00 -4.37547E-02
