# # comment:                                                     FEFF 9.9.1  
# # Source:
# # Structure
# # Reduced
# # space
# # abc:
# # angles:
# # sites:
# # POT  SCF 100  7.0000   0, screened core-hole, AFOLP (folp(0)= 1.150)
# # Abs   Z=29 Rmt= 1.265 Rnm= 1.335 K  shell
# # Pot 1 Z= 3 Rmt= 1.255 Rnm= 1.368
# # Pot 2 Z=29 Rmt= 1.267 Rnm= 1.337
# # Pot 3 Z=15 Rmt= 0.931 Rnm= 1.147
# # Pot 4 Z= 8 Rmt= 0.901 Rnm= 1.036
# # Gam_ch=1.729E+00 H-L exch Vi= 0.000E+00 Vr= 0.000E+00
# # Mu=-6.959E+00eV kf=2.490E+00 Vint=-1.831E+01eV Rs_int= 1.457
# FMS rfms= 9.0000
# # PATH  Rmax=-1.000,  Keep_limit= 0.00, Heap_limit 0.00  Pwcrit= 2.50%
#  S02=0.950  Temp=   0.00  Debye_temp=   0.00  Global_sig2= 0.00000
#  Energy zero shift, vr, vi    0.00000E+00   0.00000E+00
#  Curved wave amplitude ratio filter   4.000%
#     file         sig2 tot  cw amp ratio   deg  nlegs   reff  inp sig2
#     0/   0 paths used
#  xsedge+ 50, used to normalize mu           2.5048E-04
#  -----------------------------------------------------------------------
#  omega    e    k    mu    mu0     chi     @#
    8983.409    -10.769  -1.000  3.88043E-02  4.99417E-02 -1.11374E-02
    8983.708    -10.470  -0.960  4.08113E-02  5.35187E-02 -1.27075E-02
    8983.995    -10.183  -0.920  4.29542E-02  5.74933E-02 -1.45390E-02
    8984.269     -9.909  -0.880  4.52444E-02  6.19242E-02 -1.66797E-02
    8984.531     -9.647  -0.840  4.76939E-02  6.68801E-02 -1.91862E-02
    8984.781     -9.397  -0.800  5.03155E-02  7.24406E-02 -2.21251E-02
    8985.019     -9.159  -0.760  5.31230E-02  7.86971E-02 -2.55742E-02
    8985.244     -8.934  -0.720  5.61305E-02  8.57530E-02 -2.96225E-02
    8985.458     -8.720  -0.680  5.93522E-02  9.37223E-02 -3.43702E-02
    8985.659     -8.519  -0.640  6.28009E-02  1.02725E-01 -3.99245E-02
    8985.848     -8.330  -0.600  6.64871E-02  1.12881E-01 -4.63937E-02
    8986.025     -8.153  -0.560  7.04157E-02  1.24290E-01 -5.38740E-02
    8986.189     -7.989  -0.520  7.45826E-02  1.37012E-01 -6.24298E-02
    8986.342     -7.836  -0.480  7.89700E-02  1.51036E-01 -7.20664E-02
    8986.482     -7.696  -0.440  8.35403E-02  1.66238E-01 -8.26978E-02
    8986.610     -7.568  -0.400  8.82321E-02  1.82351E-01 -9.41194E-02
    8986.726     -7.452  -0.360  9.29580E-02  1.98958E-01 -1.06000E-01
    8986.829     -7.349  -0.320  9.76085E-02  2.15516E-01 -1.17908E-01
    8986.921     -7.257  -0.280  1.02061E-01  2.31421E-01 -1.29361E-01
    8987.000     -7.178  -0.240  1.06190E-01  2.46096E-01 -1.39907E-01
    8987.067     -7.111  -0.200  1.09881E-01  2.59058E-01 -1.49177E-01
    8987.122     -7.056  -0.160  1.13037E-01  2.69954E-01 -1.56917E-01
    8987.164     -7.013  -0.120  1.15577E-01  2.78562E-01 -1.62985E-01
    8987.195     -6.983  -0.080  1.17443E-01  2.84760E-01 -1.67316E-01
    8987.219     -6.959   0.000  1.18988E-01  2.89736E-01 -1.70749E-01
    8987.274     -6.904   0.120  1.22494E-01  3.00962E-01 -1.78468E-01
    8987.317     -6.861   0.160  1.25242E-01  3.09677E-01 -1.84435E-01
    8987.372     -6.806   0.200  1.28790E-01  3.20778E-01 -1.91988E-01
    8987.439     -6.739   0.240  1.33248E-01  3.34124E-01 -2.00875E-01
    8987.518     -6.660   0.280  1.38645E-01  3.49432E-01 -2.10787E-01
    8987.609     -6.568   0.320  1.45046E-01  3.66276E-01 -2.21230E-01
    8987.713     -6.465   0.360  1.52543E-01  3.84151E-01 -2.31608E-01
    8987.829     -6.349   0.400  1.61277E-01  4.02540E-01 -2.41263E-01
    8987.957     -6.221   0.440  1.71379E-01  4.20916E-01 -2.49537E-01
    8988.097     -6.081   0.480  1.83097E-01  4.38927E-01 -2.55829E-01
    8988.250     -5.928   0.520  1.96667E-01  4.56314E-01 -2.59647E-01
    8988.414     -5.764   0.560  2.12392E-01  4.72991E-01 -2.60599E-01
    8988.591     -5.587   0.600  2.30544E-01  4.88930E-01 -2.58386E-01
    8988.780     -5.398   0.640  2.51368E-01  5.04190E-01 -2.52822E-01
    8988.981     -5.197   0.680  2.74894E-01  5.18827E-01 -2.43933E-01
    8989.194     -4.983   0.720  3.00946E-01  5.32988E-01 -2.32042E-01
    8989.420     -4.758   0.760  3.28901E-01  5.46760E-01 -2.17859E-01
    8989.658     -4.520   0.800  3.57960E-01  5.60221E-01 -2.02261E-01
    8989.908     -4.270   0.840  3.87841E-01  5.73439E-01 -1.85597E-01
    8990.170     -4.008   0.880  4.19612E-01  5.86509E-01 -1.66897E-01
    8990.444     -3.734   0.920  4.55510E-01  5.99453E-01 -1.43943E-01
    8990.731     -3.447   0.960  4.97828E-01  6.12343E-01 -1.14515E-01
    8991.029     -3.149   1.000  5.47046E-01  6.25201E-01 -7.81551E-02
    8991.340     -2.838   1.040  5.99526E-01  6.38038E-01 -3.85115E-02
    8991.663     -2.515   1.080  6.46567E-01  6.50859E-01 -4.29241E-03
    8991.999     -2.179   1.120  6.78808E-01  6.63686E-01  1.51219E-02
    8992.346     -1.832   1.160  6.94371E-01  6.76510E-01  1.78608E-02
    8992.706     -1.472   1.200  7.02323E-01  6.89340E-01  1.29826E-02
    8993.078     -1.100   1.240  7.13442E-01  7.02164E-01  1.12787E-02
    8993.462     -0.716   1.280  7.28457E-01  7.14962E-01  1.34947E-02
    8993.858     -0.320   1.320  7.43059E-01  7.27736E-01  1.53229E-02
    8994.266      0.088   1.360  7.59008E-01  7.40441E-01  1.85679E-02
    8994.687      0.509   1.400  7.79127E-01  7.53073E-01  2.60533E-02
    8995.120      0.942   1.440  7.98053E-01  7.65627E-01  3.24261E-02
    8995.565      1.387   1.480  8.12109E-01  7.78055E-01  3.40543E-02
    8996.022      1.844   1.520  8.28299E-01  7.90329E-01  3.79700E-02
    8996.491      2.313   1.560  8.56124E-01  8.02461E-01  5.36631E-02
    8996.973      2.795   1.600  8.99652E-01  8.14404E-01  8.52480E-02
    8997.467      3.289   1.640  9.50929E-01  8.26146E-01  1.24783E-01
    8997.973      3.795   1.680  9.93962E-01  8.37657E-01  1.56305E-01
    8998.491      4.313   1.720  1.02384E+00  8.48928E-01  1.74907E-01
    8999.021      4.843   1.760  1.05037E+00  8.59911E-01  1.90462E-01
    8999.564      5.386   1.800  1.07786E+00  8.70595E-01  2.07262E-01
    9000.118      5.941   1.840  1.10196E+00  8.80974E-01  2.20990E-01
    9000.685      6.507   1.880  1.12198E+00  8.91016E-01  2.30962E-01
    9001.264      7.087   1.920  1.14024E+00  9.00716E-01  2.39520E-01
    9001.856      7.678   1.960  1.15697E+00  9.10047E-01  2.46925E-01
    9002.459      8.281   2.000  1.16728E+00  9.19001E-01  2.48283E-01
    9003.075      8.897   2.040  1.16209E+00  9.27553E-01  2.34541E-01
    9003.703      9.525   2.080  1.14163E+00  9.35720E-01  2.05914E-01
    9004.343     10.165   2.120  1.11497E+00  9.43456E-01  1.71515E-01
    9004.995     10.817   2.160  1.08944E+00  9.50799E-01  1.38640E-01
    9005.660     11.482   2.200  1.06973E+00  9.57708E-01  1.12020E-01
    9006.336     12.158   2.240  1.05777E+00  9.64200E-01  9.35722E-02
    9007.025     12.847   2.280  1.05365E+00  9.70255E-01  8.33988E-02
    9007.726     13.548   2.320  1.05514E+00  9.75872E-01  7.92684E-02
    9008.439     14.262   2.360  1.05757E+00  9.81096E-01  7.64729E-02
    9009.165     14.987   2.400  1.05927E+00  9.85887E-01  7.33881E-02
    9009.902     15.725   2.440  1.06022E+00  9.90247E-01  6.99758E-02
    9010.652     16.474   2.480  1.05724E+00  9.94222E-01  6.30178E-02
    9011.414     17.236   2.520  1.04940E+00  9.97796E-01  5.16017E-02
    9012.188     18.011   2.560  1.03998E+00  1.00097E+00  3.90111E-02
    9012.975     18.797   2.600  1.02983E+00  1.00378E+00  2.60485E-02
    9013.773     19.596   2.640  1.01762E+00  1.00622E+00  1.14035E-02
    9014.584     20.406   2.680  1.00592E+00  1.00830E+00 -2.38062E-03
    9015.407     21.229   2.720  9.99531E-01  1.01003E+00 -1.04972E-02
    9016.242     22.064   2.760  9.99467E-01  1.01145E+00 -1.19869E-02
    9017.090     22.912   2.800  1.00314E+00  1.01256E+00 -9.42533E-03
    9017.949     23.771   2.840  1.00742E+00  1.01339E+00 -5.96304E-03
    9018.821     24.643   2.880  1.01132E+00  1.01393E+00 -2.61099E-03
    9019.705     25.527   2.920  1.01440E+00  1.01420E+00  1.97632E-04
    9020.601     26.423   2.960  1.01388E+00  1.01424E+00 -3.60000E-04
    9021.509     27.331   3.000  1.00645E+00  1.01405E+00 -7.60577E-03
    9022.430     28.252   3.040  9.91747E-01  1.01364E+00 -2.18909E-02
    9023.362     29.185   3.080  9.72670E-01  1.01304E+00 -4.03731E-02
    9024.307     30.129   3.120  9.52549E-01  1.01228E+00 -5.97303E-02
    9025.264     31.086   3.160  9.34034E-01  1.01133E+00 -7.72975E-02
    9026.234     32.056   3.200  9.18359E-01  1.01025E+00 -9.18913E-02
    9027.215     33.037   3.240  9.05448E-01  1.00904E+00 -1.03596E-01
    9028.209     34.031   3.280  8.94999E-01  1.00772E+00 -1.12721E-01
    9029.214     35.037   3.320  8.86829E-01  1.00628E+00 -1.19453E-01
    9030.233     36.055   3.360  8.81042E-01  1.00478E+00 -1.23740E-01
    9031.263     37.085   3.400  8.77974E-01  1.00318E+00 -1.25209E-01
    9032.305     38.127   3.440  8.77999E-01  1.00156E+00 -1.23556E-01
    9033.360     39.182   3.480  8.81057E-01  9.99863E-01 -1.18806E-01
    9034.427     40.249   3.520  8.87010E-01  9.98133E-01 -1.11124E-01
    9035.506     41.328   3.560  8.95665E-01  9.96391E-01 -1.00726E-01
    9036.597     42.419   3.600  9.06471E-01  9.94641E-01 -8.81706E-02
    9037.700     43.522   3.640  9.18735E-01  9.92870E-01 -7.41348E-02
    9038.816     44.638   3.680  9.31724E-01  9.91125E-01 -5.94001E-02
    9039.943     45.766   3.720  9.44576E-01  9.89407E-01 -4.48316E-02
    9041.083     46.905   3.760  9.56513E-01  9.87702E-01 -3.11896E-02
    9042.235     48.058   3.800  9.67176E-01  9.86034E-01 -1.88570E-02
    9043.400     49.222   3.840  9.76533E-01  9.84405E-01 -7.87261E-03
    9044.576     50.398   3.880  9.84840E-01  9.82841E-01  1.99867E-03
    9045.765     51.587   3.920  9.92478E-01  9.81323E-01  1.11552E-02
    9046.966     52.788   3.960  9.99837E-01  9.79853E-01  1.99832E-02
    9048.179     54.001   4.000  1.00715E+00  9.78456E-01  2.86888E-02
    9049.404     55.227   4.040  1.01449E+00  9.77135E-01  3.73549E-02
    9050.642     56.464   4.080  1.02182E+00  9.75890E-01  4.59263E-02
    9051.892     57.714   4.120  1.02887E+00  9.74724E-01  5.41488E-02
    9053.153     58.976   4.160  1.03524E+00  9.73638E-01  6.16031E-02
    9054.427     60.250   4.200  1.04048E+00  9.72633E-01  6.78490E-02
    9055.714     61.536   4.240  1.04418E+00  9.71709E-01  7.24666E-02
    9057.012     62.834   4.280  1.04600E+00  9.70889E-01  7.51162E-02
    9058.323     64.145   4.320  1.04589E+00  9.70129E-01  7.57626E-02
    9059.646     65.468   4.360  1.04410E+00  9.69474E-01  7.46258E-02
    9060.981     66.803   4.400  1.04108E+00  9.68905E-01  7.21723E-02
    9062.328     68.150   4.440  1.03750E+00  9.68439E-01  6.90640E-02
    9063.687     69.509   4.480  1.03397E+00  9.68036E-01  6.59375E-02
    9065.059     70.881   4.520  1.03088E+00  9.67736E-01  6.31479E-02
    9066.443     72.265   4.560  1.02815E+00  9.67519E-01  6.06361E-02
    9067.839     73.661   4.600  1.02532E+00  9.67385E-01  5.79372E-02
    9069.247     75.069   4.640  1.02164E+00  9.67353E-01  5.42879E-02
    9070.667     76.489   4.680  1.01639E+00  9.67377E-01  4.90175E-02
    9072.100     77.922   4.720  1.00934E+00  9.67478E-01  4.18635E-02
    9073.544     79.367   4.760  1.00069E+00  9.67658E-01  3.30321E-02
    9075.001     80.824   4.800  9.91077E-01  9.67913E-01  2.31637E-02
    9076.470     82.293   4.840  9.81369E-01  9.68242E-01  1.31272E-02
    9077.952     83.774   4.880  9.72369E-01  9.68619E-01  3.74915E-03
    9079.445     85.267   4.920  9.64709E-01  9.69046E-01 -4.33678E-03
    9080.951     86.773   4.960  9.58728E-01  9.69563E-01 -1.08349E-02
    9082.469     88.291   5.000  9.54309E-01  9.70101E-01 -1.57929E-02
    9083.999     89.821   5.040  9.51151E-01  9.70682E-01 -1.95303E-02
    9085.541     91.363   5.080  9.48811E-01  9.71325E-01 -2.25141E-02
    9087.096     92.918   5.120  9.46829E-01  9.71986E-01 -2.51562E-02
    9088.662     94.485   5.160  9.44993E-01  9.72703E-01 -2.77104E-02
    9090.241     96.063   5.200  9.43234E-01  9.73432E-01 -3.01980E-02
    9091.832     97.654   5.240  9.41674E-01  9.74169E-01 -3.24950E-02
    9093.436     99.258   5.280  9.40492E-01  9.74933E-01 -3.44412E-02
    9095.051    100.873   5.320  9.39723E-01  9.75701E-01 -3.59789E-02
    9096.679    102.501   5.360  9.39200E-01  9.76471E-01 -3.72710E-02
    9098.318    104.141   5.400  9.38587E-01  9.77239E-01 -3.86522E-02
    9099.970    105.793   5.440  9.37553E-01  9.78004E-01 -4.04510E-02
    9101.635    107.457   5.480  9.36010E-01  9.78742E-01 -4.27318E-02
    9103.311    109.133   5.520  9.34297E-01  9.79493E-01 -4.51957E-02
    9105.000    110.822   5.560  9.32898E-01  9.80191E-01 -4.72929E-02
    9106.700    112.523   5.600  9.32429E-01  9.80877E-01 -4.84480E-02
    9108.413    114.236   5.640  9.33298E-01  9.81550E-01 -4.82520E-02
    9110.139    115.961   5.680  9.35629E-01  9.82161E-01 -4.65320E-02
    9111.876    117.698   5.720  9.39414E-01  9.82730E-01 -4.33161E-02
    9113.625    119.448   5.760  9.44488E-01  9.83256E-01 -3.87680E-02
    9115.387    121.209   5.800  9.50564E-01  9.83740E-01 -3.31754E-02
    9117.161    122.983   5.840  9.57211E-01  9.84179E-01 -2.69683E-02
    9118.947    124.769   5.880  9.63855E-01  9.84547E-01 -2.06921E-02
    9120.746    126.568   5.920  9.69973E-01  9.84863E-01 -1.48899E-02
    9122.556    128.378   5.960  9.75208E-01  9.85120E-01 -9.91203E-03
    9124.379    130.201   6.000  9.79628E-01  9.85270E-01 -5.64206E-03
