# # comment:                                                     FEFF 9.9.1  
# # Source:
# # Structure
# # Reduced
# # space
# # abc:
# # angles:
# # sites:
# # POT  SCF 100  7.0000   0, screened core-hole, AFOLP (folp(0)= 1.150)
# # Abs   Z=29 Rmt= 1.261 Rnm= 1.347 K  shell
# # Pot 1 Z=29 Rmt= 1.250 Rnm= 1.350
# # Pot 2 Z=28 Rmt= 1.373 Rnm= 1.464
# # Pot 3 Z=15 Rmt= 0.919 Rnm= 1.158
# # Pot 4 Z= 8 Rmt= 1.003 Rnm= 1.104
# # Gam_ch=1.729E+00 H-L exch Vi= 0.000E+00 Vr= 0.000E+00
# # Mu=-7.972E+00eV kf=2.290E+00 Vint=-1.595E+01eV Rs_int= 1.583
# FMS rfms= 9.0000
# # PATH  Rmax=-1.000,  Keep_limit= 0.00, Heap_limit 0.00  Pwcrit= 2.50%
#  S02=0.950  Temp=   0.00  Debye_temp=   0.00  Global_sig2= 0.00000
#  Energy zero shift, vr, vi    0.00000E+00   0.00000E+00
#  Curved wave amplitude ratio filter   4.000%
#     file         sig2 tot  cw amp ratio   deg  nlegs   reff  inp sig2
#     0/   0 paths used
#  xsedge+ 50, used to normalize mu           2.4718E-04
#  -----------------------------------------------------------------------
#  omega    e    k    mu    mu0     chi     @#
    8983.466    -11.782  -1.000  3.22393E-02  5.01702E-02 -1.79309E-02
    8983.765    -11.484  -0.960  3.35933E-02  5.37049E-02 -2.01116E-02
    8984.052    -11.197  -0.920  3.50160E-02  5.76235E-02 -2.26075E-02
    8984.326    -10.923  -0.880  3.65122E-02  6.19816E-02 -2.54694E-02
    8984.588    -10.661  -0.840  3.80875E-02  6.68439E-02 -2.87564E-02
    8984.838    -10.411  -0.800  3.97485E-02  7.22854E-02 -3.25369E-02
    8985.076    -10.173  -0.760  4.15024E-02  7.83921E-02 -3.68896E-02
    8985.301     -9.947  -0.720  4.33576E-02  8.52607E-02 -4.19031E-02
    8985.515     -9.734  -0.680  4.53229E-02  9.29978E-02 -4.76749E-02
    8985.716     -9.533  -0.640  4.74076E-02  1.01716E-01 -5.43083E-02
    8985.905     -9.344  -0.600  4.96200E-02  1.11525E-01 -6.19049E-02
    8986.082     -9.167  -0.560  5.19653E-02  1.22518E-01 -7.05531E-02
    8986.246     -9.003  -0.520  5.44427E-02  1.34752E-01 -8.03088E-02
    8986.399     -8.850  -0.480  5.70409E-02  1.48210E-01 -9.11694E-02
    8986.539     -8.710  -0.440  5.97331E-02  1.62777E-01 -1.03044E-01
    8986.667     -8.582  -0.400  6.24731E-02  1.78201E-01 -1.15728E-01
    8986.783     -8.466  -0.360  6.51959E-02  1.94087E-01 -1.28891E-01
    8986.886     -8.362  -0.320  6.78229E-02  2.09923E-01 -1.42100E-01
    8986.978     -8.271  -0.280  7.02735E-02  2.25141E-01 -1.54868E-01
    8987.057     -8.192  -0.240  7.24775E-02  2.39192E-01 -1.66715E-01
    8987.124     -8.125  -0.200  7.43836E-02  2.51616E-01 -1.77232E-01
    8987.179     -8.070  -0.160  7.59609E-02  2.62072E-01 -1.86111E-01
    8987.222     -8.027  -0.120  7.71943E-02  2.70343E-01 -1.93149E-01
    8987.252     -7.997  -0.080  7.80784E-02  2.76306E-01 -1.98227E-01
    8987.276     -7.972   0.000  7.87932E-02  2.81098E-01 -2.02305E-01
    8987.331     -7.917   0.120  8.04697E-02  2.91893E-01 -2.11423E-01
    8987.374     -7.875   0.160  8.17184E-02  3.00314E-01 -2.18596E-01
    8987.429     -7.820   0.200  8.32825E-02  3.11075E-01 -2.27792E-01
    8987.496     -7.753   0.240  8.50989E-02  3.24019E-01 -2.38920E-01
    8987.575     -7.674   0.280  8.71869E-02  3.38945E-01 -2.51758E-01
    8987.667     -7.582   0.320  8.94826E-02  3.55456E-01 -2.65974E-01
    8987.770     -7.479   0.360  9.19985E-02  3.73125E-01 -2.81127E-01
    8987.886     -7.363   0.400  9.47237E-02  3.91436E-01 -2.96712E-01
    8988.014     -7.235   0.440  9.78107E-02  4.09994E-01 -3.12184E-01
    8988.154     -7.094   0.480  1.01307E-01  4.28422E-01 -3.27115E-01
    8988.307     -6.942   0.520  1.05422E-01  4.46525E-01 -3.41103E-01
    8988.471     -6.777   0.560  1.10268E-01  4.64165E-01 -3.53898E-01
    8988.648     -6.601   0.600  1.16013E-01  4.81334E-01 -3.65321E-01
    8988.837     -6.412   0.640  1.22795E-01  4.98060E-01 -3.75265E-01
    8989.038     -6.211   0.680  1.30743E-01  5.14441E-01 -3.83698E-01
    8989.252     -5.997   0.720  1.39966E-01  5.30527E-01 -3.90561E-01
    8989.477     -5.772   0.760  1.50702E-01  5.46385E-01 -3.95682E-01
    8989.715     -5.534   0.800  1.63531E-01  5.62096E-01 -3.98565E-01
    8989.965     -5.284   0.840  1.79268E-01  5.77688E-01 -3.98420E-01
    8990.227     -5.022   0.880  1.98792E-01  5.93236E-01 -3.94444E-01
    8990.501     -4.748   0.920  2.22934E-01  6.08724E-01 -3.85791E-01
    8990.788     -4.461   0.960  2.52612E-01  6.24207E-01 -3.71595E-01
    8991.086     -4.162   1.000  2.87867E-01  6.39650E-01 -3.51784E-01
    8991.397     -3.851   1.040  3.27331E-01  6.55069E-01 -3.27739E-01
    8991.720     -3.528   1.080  3.69355E-01  6.70432E-01 -3.01076E-01
    8992.056     -3.193   1.120  4.13504E-01  6.85743E-01 -2.72240E-01
    8992.403     -2.846   1.160  4.58308E-01  7.00963E-01 -2.42656E-01
    8992.763     -2.486   1.200  4.99737E-01  7.16089E-01 -2.16352E-01
    8993.135     -2.114   1.240  5.38713E-01  7.31052E-01 -1.92338E-01
    8993.519     -1.730   1.280  5.82063E-01  7.45842E-01 -1.63779E-01
    8993.915     -1.334   1.320  6.31046E-01  7.60429E-01 -1.29382E-01
    8994.323     -0.925   1.360  6.81788E-01  7.74782E-01 -9.29945E-02
    8994.744     -0.505   1.400  7.30773E-01  7.88849E-01 -5.80757E-02
    8995.177     -0.072   1.440  7.76576E-01  8.02615E-01 -2.60391E-02
    8995.622      0.373   1.480  8.22630E-01  8.16049E-01  6.58104E-03
    8996.079      0.830   1.520  8.77973E-01  8.29118E-01  4.88546E-02
    8996.548      1.300   1.560  9.45260E-01  8.41791E-01  1.03469E-01
    8997.030      1.781   1.600  1.01238E+00  8.54038E-01  1.58342E-01
    8997.524      2.275   1.640  1.06303E+00  8.65847E-01  1.97181E-01
    8998.030      2.781   1.680  1.09358E+00  8.77192E-01  2.16393E-01
    8998.548      3.299   1.720  1.11576E+00  8.88065E-01  2.27690E-01
    8999.078      3.830   1.760  1.14199E+00  8.98462E-01  2.43526E-01
    8999.621      4.372   1.800  1.17985E+00  9.08335E-01  2.71518E-01
    9000.176      4.927   1.840  1.22649E+00  9.17704E-01  3.08790E-01
    9000.742      5.494   1.880  1.27366E+00  9.26566E-01  3.47094E-01
    9001.322      6.073   1.920  1.30894E+00  9.34921E-01  3.74021E-01
    9001.913      6.664   1.960  1.31724E+00  9.42750E-01  3.74485E-01
    9002.516      7.268   2.000  1.29763E+00  9.50056E-01  3.47574E-01
    9003.132      7.883   2.040  1.26296E+00  9.56882E-01  3.06075E-01
    9003.760      8.511   2.080  1.23046E+00  9.63193E-01  2.67271E-01
    9004.400      9.151   2.120  1.20432E+00  9.69033E-01  2.35286E-01
    9005.052      9.804   2.160  1.18187E+00  9.74389E-01  2.07479E-01
    9005.717     10.468   2.200  1.16206E+00  9.79288E-01  1.82776E-01
    9006.393     11.145   2.240  1.13771E+00  9.83739E-01  1.53974E-01
    9007.082     11.834   2.280  1.10338E+00  9.87748E-01  1.15634E-01
    9007.783     12.535   2.320  1.06320E+00  9.91367E-01  7.18341E-02
    9008.497     13.248   2.360  1.02765E+00  9.94583E-01  3.30654E-02
    9009.222     13.973   2.400  1.00341E+00  9.97406E-01  6.00893E-03
    9009.960     14.711   2.440  9.87512E-01  9.99887E-01 -1.23740E-02
    9010.709     15.461   2.480  9.72058E-01  1.00203E+00 -2.99756E-02
    9011.471     16.223   2.520  9.53213E-01  1.00386E+00 -5.06458E-02
    9012.246     16.997   2.560  9.34311E-01  1.00539E+00 -7.10805E-02
    9013.032     17.783   2.600  9.20583E-01  1.00664E+00 -8.60567E-02
    9013.831     18.582   2.640  9.16112E-01  1.00762E+00 -9.15031E-02
    9014.641     19.393   2.680  9.23390E-01  1.00837E+00 -8.49784E-02
    9015.464     20.216   2.720  9.37659E-01  1.00889E+00 -7.12287E-02
    9016.299     21.051   2.760  9.46484E-01  1.00922E+00 -6.27395E-02
    9017.147     21.898   2.800  9.48916E-01  1.00936E+00 -6.04475E-02
    9018.006     22.758   2.840  9.47419E-01  1.00934E+00 -6.19190E-02
    9018.878     23.629   2.880  9.45567E-01  1.00915E+00 -6.35857E-02
    9019.762     24.513   2.920  9.44946E-01  1.00884E+00 -6.38915E-02
    9020.658     25.409   2.960  9.45205E-01  1.00840E+00 -6.31942E-02
    9021.566     26.318   3.000  9.45305E-01  1.00785E+00 -6.25407E-02
    9022.487     27.238   3.040  9.45044E-01  1.00720E+00 -6.21600E-02
    9023.419     28.171   3.080  9.44595E-01  1.00650E+00 -6.19077E-02
    9024.364     29.116   3.120  9.43902E-01  1.00571E+00 -6.18054E-02
    9025.321     30.073   3.160  9.43107E-01  1.00488E+00 -6.17751E-02
    9026.291     31.042   3.200  9.42716E-01  1.00399E+00 -6.12776E-02
    9027.272     32.023   3.240  9.43538E-01  1.00309E+00 -5.95500E-02
    9028.266     33.017   3.280  9.45922E-01  1.00215E+00 -5.62264E-02
    9029.272     34.023   3.320  9.49815E-01  1.00120E+00 -5.13853E-02
    9030.290     35.041   3.360  9.54548E-01  1.00023E+00 -4.56797E-02
    9031.320     36.071   3.400  9.59277E-01  9.99275E-01 -3.99978E-02
    9032.362     37.114   3.440  9.63288E-01  9.98327E-01 -3.50391E-02
    9033.417     38.168   3.480  9.66362E-01  9.97406E-01 -3.10442E-02
    9034.484     39.235   3.520  9.68649E-01  9.96494E-01 -2.78447E-02
    9035.563     40.314   3.560  9.70623E-01  9.95594E-01 -2.49707E-02
    9036.654     41.405   3.600  9.73032E-01  9.94749E-01 -2.17162E-02
    9037.757     42.508   3.640  9.76529E-01  9.93920E-01 -1.73908E-02
    9038.873     43.624   3.680  9.81597E-01  9.93151E-01 -1.15545E-02
    9040.001     44.752   3.720  9.88200E-01  9.92402E-01 -4.20200E-03
    9041.140     45.892   3.760  9.95929E-01  9.91714E-01  4.21455E-03
    9042.293     47.044   3.800  1.00392E+00  9.91048E-01  1.28765E-02
    9043.457     48.208   3.840  1.01131E+00  9.90449E-01  2.08631E-02
    9044.633     49.385   3.880  1.01743E+00  9.89916E-01  2.75101E-02
    9045.822     50.573   3.920  1.02192E+00  9.89429E-01  3.24873E-02
    9047.023     51.774   3.960  1.02475E+00  9.88987E-01  3.57656E-02
    9048.236     52.987   4.000  1.02621E+00  9.88592E-01  3.76155E-02
    9049.462     54.213   4.040  1.02670E+00  9.88262E-01  3.84421E-02
    9050.699     55.450   4.080  1.02665E+00  9.87980E-01  3.86746E-02
    9051.949     56.700   4.120  1.02644E+00  9.87765E-01  3.86799E-02
    9053.211     57.962   4.160  1.02621E+00  9.87575E-01  3.86393E-02
    9054.485     59.236   4.200  1.02593E+00  9.87472E-01  3.84610E-02
    9055.771     60.522   4.240  1.02527E+00  9.87392E-01  3.78794E-02
    9057.069     61.821   4.280  1.02403E+00  9.87376E-01  3.66558E-02
    9058.380     63.131   4.320  1.02200E+00  9.87381E-01  3.46234E-02
    9059.703     64.454   4.360  1.01925E+00  9.87453E-01  3.17974E-02
    9061.038     65.789   4.400  1.01594E+00  9.87587E-01  2.83551E-02
    9062.385     67.136   4.440  1.01233E+00  9.87741E-01  2.45921E-02
    9063.744     68.496   4.480  1.00878E+00  9.87932E-01  2.08493E-02
    9065.116     69.867   4.520  1.00555E+00  9.88160E-01  1.73931E-02
    9066.500     71.251   4.560  1.00269E+00  9.88425E-01  1.42679E-02
    9067.896     72.647   4.600  9.99987E-01  9.88705E-01  1.12820E-02
    9069.304     74.055   4.640  9.97191E-01  9.89039E-01  8.15210E-03
    9070.724     75.476   4.680  9.94026E-01  9.89384E-01  4.64168E-03
    9072.157     76.908   4.720  9.90425E-01  9.89739E-01  6.86846E-04
    9073.602     78.353   4.760  9.86641E-01  9.90123E-01 -3.48261E-03
    9075.058     79.810   4.800  9.83153E-01  9.90536E-01 -7.38264E-03
    9076.528     81.279   4.840  9.80487E-01  9.90932E-01 -1.04449E-02
    9078.009     82.760   4.880  9.79078E-01  9.91353E-01 -1.22749E-02
    9079.502     84.254   4.920  9.78974E-01  9.91778E-01 -1.28043E-02
    9081.008     85.759   4.960  9.79997E-01  9.92228E-01 -1.22306E-02
    9082.526     87.277   5.000  9.81804E-01  9.92653E-01 -1.08498E-02
    9084.056     88.807   5.040  9.84150E-01  9.93076E-01 -8.92627E-03
    9085.598     90.350   5.080  9.86822E-01  9.93495E-01 -6.67239E-03
    9087.153     91.904   5.120  9.89594E-01  9.93908E-01 -4.31389E-03
    9088.720     93.471   5.160  9.92145E-01  9.94293E-01 -2.14798E-03
    9090.298     95.050   5.200  9.94127E-01  9.94671E-01 -5.44358E-04
    9091.889     96.641   5.240  9.95175E-01  9.95042E-01  1.33110E-04
    9093.493     98.244   5.280  9.95068E-01  9.95382E-01 -3.14296E-04
    9095.108     99.859   5.320  9.93905E-01  9.95711E-01 -1.80643E-03
    9096.736    101.487   5.360  9.92017E-01  9.96005E-01 -3.98834E-03
    9098.376    103.127   5.400  9.89887E-01  9.96265E-01 -6.37770E-03
    9100.028    104.779   5.440  9.87940E-01  9.96513E-01 -8.57277E-03
    9101.692    106.443   5.480  9.86277E-01  9.96724E-01 -1.04476E-02
    9103.368    108.119   5.520  9.84773E-01  9.96900E-01 -1.21263E-02
    9105.057    109.808   5.560  9.83283E-01  9.97060E-01 -1.37768E-02
    9106.758    111.509   5.600  9.81717E-01  9.97161E-01 -1.54432E-02
    9108.471    113.222   5.640  9.80160E-01  9.97245E-01 -1.70844E-02
    9110.196    114.947   5.680  9.78640E-01  9.97291E-01 -1.86509E-02
    9111.933    116.684   5.720  9.77211E-01  9.97297E-01 -2.00861E-02
    9113.683    118.434   5.760  9.75972E-01  9.97239E-01 -2.12673E-02
    9115.444    120.196   5.800  9.75107E-01  9.97168E-01 -2.20609E-02
    9117.218    121.970   5.840  9.74655E-01  9.97083E-01 -2.24279E-02
    9119.004    123.756   5.880  9.74549E-01  9.96938E-01 -2.23895E-02
    9120.803    125.554   5.920  9.74925E-01  9.96753E-01 -2.18279E-02
    9122.613    127.364   5.960  9.76122E-01  9.96528E-01 -2.04060E-02
    9124.436    129.187   6.000  9.78578E-01  9.96242E-01 -1.76639E-02
