# # comment:                                                     FEFF 9.9.1  
# # Source:
# # Structure
# # Reduced
# # space
# # abc:
# # angles:
# # sites:
# # POT  SCF 100  7.0000   0, screened core-hole, AFOLP (folp(0)= 1.150)
# # Abs   Z=29 Rmt= 1.224 Rnm= 1.303 K  shell
# # Pot 1 Z=56 Rmt= 1.874 Rnm= 1.959
# # Pot 2 Z=20 Rmt= 1.674 Rnm= 1.732
# # Pot 3 Z=29 Rmt= 1.221 Rnm= 1.300
# # Pot 4 Z= 8 Rmt= 1.065 Rnm= 1.116
# # Gam_ch=1.729E+00 H-L exch Vi= 0.000E+00 Vr= 0.000E+00
# # Mu=-9.933E+00eV kf=1.973E+00 Vint=-1.883E+01eV Rs_int= 1.838
# FMS rfms= 9.0000
# # PATH  Rmax=-1.000,  Keep_limit= 0.00, Heap_limit 0.00  Pwcrit= 2.50%
#  S02=0.950  Temp=   0.00  Debye_temp=   0.00  Global_sig2= 0.00000
#  Energy zero shift, vr, vi    0.00000E+00   0.00000E+00
#  Curved wave amplitude ratio filter   4.000%
#     file         sig2 tot  cw amp ratio   deg  nlegs   reff  inp sig2
#     0/   0 paths used
#  xsedge+ 50, used to normalize mu           2.4495E-04
#  -----------------------------------------------------------------------
#  omega    e    k    mu    mu0     chi     @#
    8985.916    -13.743  -1.000  4.24442E-02  5.69554E-02 -1.45112E-02
    8986.214    -13.444  -0.960  4.50154E-02  6.11632E-02 -1.61478E-02
    8986.501    -13.158  -0.920  4.78394E-02  6.58437E-02 -1.80043E-02
    8986.775    -12.883  -0.880  5.09522E-02  7.10668E-02 -2.01145E-02
    8987.037    -12.621  -0.840  5.43958E-02  7.69138E-02 -2.25179E-02
    8987.287    -12.371  -0.800  5.82186E-02  8.34790E-02 -2.52604E-02
    8987.525    -12.133  -0.760  6.24761E-02  9.08708E-02 -2.83946E-02
    8987.750    -11.908  -0.720  6.72307E-02  9.92113E-02 -3.19806E-02
    8987.964    -11.695  -0.680  7.25509E-02  1.08635E-01 -3.60846E-02
    8988.165    -11.493  -0.640  7.85087E-02  1.19286E-01 -4.07768E-02
    8988.354    -11.304  -0.600  8.51742E-02  1.31301E-01 -4.61269E-02
    8988.531    -11.128  -0.560  9.26074E-02  1.44802E-01 -5.21945E-02
    8988.695    -10.963  -0.520  1.00844E-01  1.59859E-01 -5.90151E-02
    8988.848    -10.811  -0.480  1.09876E-01  1.76457E-01 -6.65808E-02
    8988.988    -10.670  -0.440  1.19632E-01  1.94450E-01 -7.48176E-02
    8989.116    -10.542  -0.400  1.29958E-01  2.13524E-01 -8.35664E-02
    8989.232    -10.427  -0.360  1.40608E-01  2.33187E-01 -9.25782E-02
    8989.335    -10.323  -0.320  1.51262E-01  2.52795E-01 -1.01533E-01
    8989.427    -10.231  -0.280  1.61556E-01  2.71638E-01 -1.10082E-01
    8989.506    -10.152  -0.240  1.71129E-01  2.89030E-01 -1.17901E-01
    8989.573    -10.085  -0.200  1.79668E-01  3.04399E-01 -1.24731E-01
    8989.628    -10.030  -0.160  1.86922E-01  3.17326E-01 -1.30404E-01
    8989.671     -9.988  -0.120  1.92715E-01  3.27543E-01 -1.34829E-01
    8989.701     -9.957  -0.080  1.96927E-01  3.34903E-01 -1.37976E-01
    8989.725     -9.933   0.000  2.00348E-01  3.40816E-01 -1.40468E-01
    8989.780     -9.878   0.120  2.08068E-01  3.54144E-01 -1.46076E-01
    8989.823     -9.835   0.160  2.14137E-01  3.64499E-01 -1.50363E-01
    8989.878     -9.780   0.200  2.21999E-01  3.77729E-01 -1.55731E-01
    8989.945     -9.713   0.240  2.31601E-01  3.93611E-01 -1.62010E-01
    8990.024     -9.634   0.280  2.42927E-01  4.11865E-01 -1.68938E-01
    8990.116     -9.543   0.320  2.55789E-01  4.31982E-01 -1.76193E-01
    8990.219     -9.439   0.360  2.69961E-01  4.53400E-01 -1.83439E-01
    8990.335     -9.323   0.400  2.85036E-01  4.75458E-01 -1.90422E-01
    8990.463     -9.195   0.440  3.00461E-01  4.97612E-01 -1.97151E-01
    8990.603     -9.055   0.480  3.15378E-01  5.19404E-01 -2.04025E-01
    8990.756     -8.903   0.520  3.28662E-01  5.40512E-01 -2.11851E-01
    8990.920     -8.738   0.560  3.39207E-01  5.60829E-01 -2.21621E-01
    8991.097     -8.561   0.600  3.46311E-01  5.80318E-01 -2.34007E-01
    8991.286     -8.372   0.640  3.50134E-01  5.99019E-01 -2.48886E-01
    8991.487     -8.171   0.680  3.51757E-01  6.17013E-01 -2.65256E-01
    8991.701     -7.958   0.720  3.52606E-01  6.34372E-01 -2.81766E-01
    8991.926     -7.732   0.760  3.53867E-01  6.51229E-01 -2.97363E-01
    8992.164     -7.494   0.800  3.55825E-01  6.67648E-01 -3.11823E-01
    8992.414     -7.244   0.840  3.57865E-01  6.83697E-01 -3.25832E-01
    8992.676     -6.982   0.880  3.59231E-01  6.99429E-01 -3.40198E-01
    8992.950     -6.708   0.920  3.60191E-01  7.14863E-01 -3.54671E-01
    8993.237     -6.422   0.960  3.62038E-01  7.30046E-01 -3.68008E-01
    8993.535     -6.123   1.000  3.65883E-01  7.44994E-01 -3.79112E-01
    8993.846     -5.812   1.040  3.71624E-01  7.59671E-01 -3.88047E-01
    8994.169     -5.489   1.080  3.78157E-01  7.74093E-01 -3.95936E-01
    8994.505     -5.154   1.120  3.85833E-01  7.88254E-01 -4.02421E-01
    8994.852     -4.806   1.160  3.97700E-01  8.02141E-01 -4.04441E-01
    8995.212     -4.446   1.200  4.16353E-01  8.15715E-01 -3.99362E-01
    8995.584     -4.075   1.240  4.43044E-01  8.28953E-01 -3.85909E-01
    8995.968     -3.691   1.280  4.79030E-01  8.41854E-01 -3.62824E-01
    8996.364     -3.294   1.320  5.25035E-01  8.54374E-01 -3.29339E-01
    8996.772     -2.886   1.360  5.80458E-01  8.66506E-01 -2.86048E-01
    8997.193     -2.465   1.400  6.43684E-01  8.78205E-01 -2.34521E-01
    8997.626     -2.032   1.440  7.12055E-01  8.89465E-01 -1.77410E-01
    8998.071     -1.587   1.480  7.79596E-01  9.00260E-01 -1.20664E-01
    8998.528     -1.130   1.520  8.39583E-01  9.10586E-01 -7.10027E-02
    8998.997     -0.661   1.560  8.95551E-01  9.20418E-01 -2.48668E-02
    8999.479     -0.179   1.600  9.57774E-01  9.29754E-01  2.80199E-02
    8999.973      0.315   1.640  1.02379E+00  9.38572E-01  8.52190E-02
    9000.479      0.821   1.680  1.09722E+00  9.46891E-01  1.50326E-01
    9000.997      1.339   1.720  1.19762E+00  9.54673E-01  2.42950E-01
    9001.527      1.869   1.760  1.34853E+00  9.61959E-01  3.86576E-01
    9002.070      2.412   1.800  1.56100E+00  9.68711E-01  5.92288E-01
    9002.625      2.966   1.840  1.77358E+00  9.74975E-01  7.98610E-01
    9003.192      3.533   1.880  1.83961E+00  9.80734E-01  8.58873E-01
    9003.771      4.112   1.920  1.73572E+00  9.86016E-01  7.49707E-01
    9004.362      4.704   1.960  1.57457E+00  9.90808E-01  5.83761E-01
    9004.965      5.307   2.000  1.42119E+00  9.95137E-01  4.26055E-01
    9005.581      5.923   2.040  1.29433E+00  9.99032E-01  2.95294E-01
    9006.209      6.551   2.080  1.18809E+00  1.00248E+00  1.85608E-01
    9006.849      7.191   2.120  1.09754E+00  1.00554E+00  9.20041E-02
    9007.501      7.843   2.160  1.02676E+00  1.00819E+00  1.85665E-02
    9008.166      8.508   2.200  9.75712E-01  1.01049E+00 -3.47755E-02
    9008.842      9.184   2.240  9.38362E-01  1.01242E+00 -7.40613E-02
    9009.531      9.873   2.280  9.13164E-01  1.01403E+00 -1.00862E-01
    9010.232     10.574   2.320  9.06050E-01  1.01533E+00 -1.09277E-01
    9010.946     11.287   2.360  9.24372E-01  1.01634E+00 -9.19673E-02
    9011.671     12.013   2.400  9.72055E-01  1.01709E+00 -4.50356E-02
    9012.409     12.750   2.440  1.02432E+00  1.01757E+00  6.74464E-03
    9013.158     13.500   2.480  1.06789E+00  1.01786E+00  5.00341E-02
    9013.920     14.262   2.520  1.10011E+00  1.01792E+00  8.21997E-02
    9014.695     15.036   2.560  1.12023E+00  1.01779E+00  1.02440E-01
    9015.481     15.823   2.600  1.12811E+00  1.01750E+00  1.10603E-01
    9016.280     16.621   2.640  1.12445E+00  1.01705E+00  1.07399E-01
    9017.090     17.432   2.680  1.11022E+00  1.01647E+00  9.37463E-02
    9017.913     18.255   2.720  1.08746E+00  1.01577E+00  7.16917E-02
    9018.748     19.090   2.760  1.05959E+00  1.01497E+00  4.46161E-02
    9019.596     19.937   2.800  1.02975E+00  1.01409E+00  1.56586E-02
    9020.455     20.797   2.840  9.99981E-01  1.01313E+00 -1.31522E-02
    9021.327     21.669   2.880  9.71011E-01  1.01212E+00 -4.11120E-02
    9022.211     22.553   2.920  9.43008E-01  1.01107E+00 -6.80601E-02
    9023.107     23.449   2.960  9.16629E-01  1.00997E+00 -9.33429E-02
    9024.015     24.357   3.000  8.92860E-01  1.00884E+00 -1.15983E-01
    9024.936     25.278   3.040  8.72546E-01  1.00773E+00 -1.35182E-01
    9025.869     26.210   3.080  8.56030E-01  1.00659E+00 -1.50557E-01
    9026.813     27.155   3.120  8.43563E-01  1.00545E+00 -1.61885E-01
    9027.770     28.112   3.160  8.34923E-01  1.00433E+00 -1.69411E-01
    9028.740     29.081   3.200  8.29897E-01  1.00323E+00 -1.73333E-01
    9029.721     30.063   3.240  8.28523E-01  1.00216E+00 -1.73636E-01
    9030.715     31.057   3.280  8.30603E-01  1.00113E+00 -1.70523E-01
    9031.721     32.062   3.320  8.35819E-01  1.00013E+00 -1.64313E-01
    9032.739     33.080   3.360  8.43935E-01  9.99181E-01 -1.55246E-01
    9033.769     34.111   3.400  8.55019E-01  9.98295E-01 -1.43275E-01
    9034.811     35.153   3.440  8.68956E-01  9.97454E-01 -1.28498E-01
    9035.866     36.208   3.480  8.86043E-01  9.96660E-01 -1.10617E-01
    9036.933     37.274   3.520  9.06448E-01  9.95915E-01 -8.94669E-02
    9038.012     38.353   3.560  9.29814E-01  9.95261E-01 -6.54467E-02
    9039.103     39.445   3.600  9.55136E-01  9.94637E-01 -3.95012E-02
    9040.206     40.548   3.640  9.81358E-01  9.94108E-01 -1.27504E-02
    9041.322     41.664   3.680  1.00746E+00  9.93631E-01  1.38273E-02
    9042.450     42.791   3.720  1.03264E+00  9.93227E-01  3.94085E-02
    9043.590     43.931   3.760  1.05610E+00  9.92874E-01  6.32282E-02
    9044.742     45.083   3.800  1.07681E+00  9.92597E-01  8.42134E-02
    9045.906     46.248   3.840  1.09317E+00  9.92393E-01  1.00773E-01
    9047.083     47.424   3.880  1.10353E+00  9.92240E-01  1.11294E-01
    9048.271     48.613   3.920  1.10685E+00  9.92159E-01  1.14686E-01
    9049.472     49.814   3.960  1.10289E+00  9.92152E-01  1.10734E-01
    9050.685     51.027   4.000  1.09254E+00  9.92194E-01  1.00341E-01
    9051.911     52.252   4.040  1.07770E+00  9.92284E-01  8.54184E-02
    9053.148     53.490   4.080  1.06091E+00  9.92444E-01  6.84699E-02
    9054.398     54.739   4.120  1.04455E+00  9.92672E-01  5.18762E-02
    9055.660     56.001   4.160  1.03031E+00  9.92924E-01  3.73818E-02
    9056.934     57.275   4.200  1.01897E+00  9.93242E-01  2.57269E-02
    9058.220     58.562   4.240  1.01045E+00  9.93603E-01  1.68463E-02
    9059.518     59.860   4.280  1.00435E+00  9.94005E-01  1.03489E-02
    9060.829     61.171   4.320  1.00034E+00  9.94448E-01  5.88940E-03
    9062.152     62.493   4.360  9.98120E-01  9.94951E-01  3.16883E-03
    9063.487     63.829   4.400  9.97335E-01  9.95447E-01  1.88818E-03
    9064.834     65.176   4.440  9.98029E-01  9.95998E-01  2.03156E-03
    9066.193     66.535   4.480  1.00060E+00  9.96561E-01  4.04028E-03
    9067.565     67.907   4.520  1.00596E+00  9.97156E-01  8.80522E-03
    9068.949     69.291   4.560  1.01494E+00  9.97758E-01  1.71811E-02
    9070.345     70.686   4.600  1.02770E+00  9.98389E-01  2.93082E-02
    9071.753     72.095   4.640  1.04303E+00  9.99024E-01  4.40049E-02
    9073.173     73.515   4.680  1.05842E+00  9.99660E-01  5.87631E-02
    9074.606     74.948   4.720  1.07077E+00  1.00030E+00  7.04706E-02
    9076.051     76.392   4.760  1.07755E+00  1.00093E+00  7.66151E-02
    9077.508     77.849   4.800  1.07773E+00  1.00156E+00  7.61692E-02
    9078.977     79.318   4.840  1.07181E+00  1.00219E+00  6.96214E-02
    9080.458     80.800   4.880  1.06141E+00  1.00279E+00  5.86179E-02
    9081.951     82.293   4.920  1.04861E+00  1.00338E+00  4.52297E-02
    9083.457     83.799   4.960  1.03514E+00  1.00396E+00  3.11730E-02
    9084.975     85.317   5.000  1.02202E+00  1.00451E+00  1.75099E-02
    9086.505     86.847   5.040  1.00984E+00  1.00503E+00  4.81231E-03
    9088.047     88.389   5.080  9.98892E-01  1.00553E+00 -6.63377E-03
    9089.602     89.944   5.120  9.89076E-01  1.00599E+00 -1.69169E-02
    9091.169     91.510   5.160  9.79836E-01  1.00644E+00 -2.66074E-02
    9092.747     93.089   5.200  9.70522E-01  1.00683E+00 -3.63095E-02
    9094.339     94.680   5.240  9.60823E-01  1.00718E+00 -4.63549E-02
    9095.942     96.283   5.280  9.50573E-01  1.00751E+00 -5.69343E-02
    9097.557     97.899   5.320  9.39530E-01  1.00777E+00 -6.82435E-02
    9099.185     99.527   5.360  9.27925E-01  1.00802E+00 -8.00935E-02
    9100.825    101.166   5.400  9.16667E-01  1.00820E+00 -9.15327E-02
    9102.477    102.818   5.440  9.07261E-01  1.00834E+00 -1.01077E-01
    9104.141    104.483   5.480  9.01079E-01  1.00846E+00 -1.07378E-01
    9105.817    106.159   5.520  8.98866E-01  1.00851E+00 -1.09641E-01
    9107.506    107.848   5.560  9.00992E-01  1.00849E+00 -1.07499E-01
    9109.207    109.548   5.600  9.07929E-01  1.00845E+00 -1.00525E-01
    9110.920    111.261   5.640  9.19975E-01  1.00837E+00 -8.83996E-02
    9112.645    112.986   5.680  9.37215E-01  1.00823E+00 -7.10131E-02
    9114.382    114.724   5.720  9.58842E-01  1.00804E+00 -4.91992E-02
    9116.132    116.473   5.760  9.82647E-01  1.00784E+00 -2.51881E-02
    9117.893    118.235   5.800  1.00521E+00  1.00757E+00 -2.36005E-03
    9119.667    120.009   5.840  1.02336E+00  1.00726E+00  1.61034E-02
    9121.453    121.795   5.880  1.03607E+00  1.00691E+00  2.91668E-02
    9123.252    123.593   5.920  1.04489E+00  1.00652E+00  3.83704E-02
    9125.062    125.404   5.960  1.05259E+00  1.00610E+00  4.64925E-02
    9126.885    127.227   6.000  1.06017E+00  1.00561E+00  5.45553E-02
