# # comment:                                                     FEFF 9.9.1  
# # Source:
# # Structure
# # Reduced
# # space
# # abc:
# # angles:
# # sites:
# # POT  SCF 100  7.0000   0, screened core-hole, AFOLP (folp(0)= 1.150)
# # Abs   Z=29 Rmt= 1.058 Rnm= 1.285 K  shell
# # Pot 1 Z=39 Rmt= 1.564 Rnm= 1.677
# # Pot 2 Z=29 Rmt= 1.052 Rnm= 1.286
# # Pot 3 Z= 8 Rmt= 0.967 Rnm= 1.123
# # Gam_ch=1.729E+00 H-L exch Vi= 0.000E+00 Vr= 0.000E+00
# # Mu=-8.569E+00eV kf=2.112E+00 Vint=-1.419E+01eV Rs_int= 1.717
# FMS rfms= 9.0000
# # PATH  Rmax=-1.000,  Keep_limit= 0.00, Heap_limit 0.00  Pwcrit= 2.50%
#  S02=0.950  Temp=   0.00  Debye_temp=   0.00  Global_sig2= 0.00000
#  Energy zero shift, vr, vi    0.00000E+00   0.00000E+00
#  Curved wave amplitude ratio filter   4.000%
#     file         sig2 tot  cw amp ratio   deg  nlegs   reff  inp sig2
#     0/   0 paths used
#  xsedge+ 50, used to normalize mu           2.4921E-04
#  -----------------------------------------------------------------------
#  omega    e    k    mu    mu0     chi     @#
    8983.540    -12.379  -1.000  3.15855E-02  4.45545E-02 -1.29691E-02
    8983.839    -12.080  -0.960  3.30819E-02  4.74432E-02 -1.43613E-02
    8984.125    -11.793  -0.920  3.46711E-02  5.06217E-02 -1.59506E-02
    8984.399    -11.519  -0.880  3.63590E-02  5.41298E-02 -1.77709E-02
    8984.662    -11.257  -0.840  3.81515E-02  5.80138E-02 -1.98624E-02
    8984.912    -11.007  -0.800  4.00543E-02  6.23268E-02 -2.22725E-02
    8985.149    -10.769  -0.760  4.20728E-02  6.71292E-02 -2.50564E-02
    8985.375    -10.544  -0.720  4.42115E-02  7.24891E-02 -2.82776E-02
    8985.588    -10.330  -0.680  4.64739E-02  7.84810E-02 -3.20071E-02
    8985.789    -10.129  -0.640  4.88615E-02  8.51827E-02 -3.63212E-02
    8985.978     -9.940  -0.600  5.13733E-02  9.26699E-02 -4.12967E-02
    8986.155     -9.763  -0.560  5.40044E-02  1.01006E-01 -4.70018E-02
    8986.320     -9.599  -0.520  5.67450E-02  1.10227E-01 -5.34822E-02
    8986.472     -9.446  -0.480  5.95783E-02  1.20319E-01 -6.07411E-02
    8986.612     -9.306  -0.440  6.24789E-02  1.31196E-01 -6.87166E-02
    8986.740     -9.178  -0.400  6.54117E-02  1.42674E-01 -7.72624E-02
    8986.856     -9.062  -0.360  6.83311E-02  1.54472E-01 -8.61409E-02
    8986.960     -8.959  -0.320  7.11825E-02  1.66222E-01 -9.50395E-02
    8987.051     -8.867  -0.280  7.39053E-02  1.77514E-01 -1.03609E-01
    8987.130     -8.788  -0.240  7.64364E-02  1.87952E-01 -1.11516E-01
    8987.198     -8.721  -0.200  7.87145E-02  1.97197E-01 -1.18482E-01
    8987.252     -8.666  -0.160  8.06820E-02  2.04994E-01 -1.24312E-01
    8987.295     -8.623  -0.120  8.22882E-02  2.11176E-01 -1.28888E-01
    8987.326     -8.593  -0.080  8.34907E-02  2.15641E-01 -1.32150E-01
    8987.350     -8.569   0.000  8.45320E-02  2.19238E-01 -1.34706E-01
    8987.405     -8.514   0.120  8.69574E-02  2.27369E-01 -1.40412E-01
    8987.447     -8.471   0.160  8.87809E-02  2.33717E-01 -1.44936E-01
    8987.502     -8.416   0.200  9.11486E-02  2.41865E-01 -1.50717E-01
    8987.569     -8.349   0.240  9.41062E-02  2.51744E-01 -1.57638E-01
    8987.649     -8.270   0.280  9.77189E-02  2.63209E-01 -1.65490E-01
    8987.740     -8.178   0.320  1.02085E-01  2.76045E-01 -1.73960E-01
    8987.844     -8.075   0.360  1.07340E-01  2.89971E-01 -1.82631E-01
    8987.960     -7.959   0.400  1.13678E-01  3.04686E-01 -1.91008E-01
    8988.088     -7.831   0.440  1.21379E-01  3.19912E-01 -1.98533E-01
    8988.228     -7.691   0.480  1.30834E-01  3.35434E-01 -2.04600E-01
    8988.380     -7.538   0.520  1.42591E-01  3.51109E-01 -2.08517E-01
    8988.545     -7.374   0.560  1.57444E-01  3.66891E-01 -2.09448E-01
    8988.722     -7.197   0.600  1.76418E-01  3.82749E-01 -2.06330E-01
    8988.911     -7.008   0.640  2.00913E-01  3.98735E-01 -1.97822E-01
    8989.112     -6.807   0.680  2.32523E-01  4.14862E-01 -1.82339E-01
    8989.325     -6.593   0.720  2.72614E-01  4.31208E-01 -1.58594E-01
    8989.551     -6.368   0.760  3.20679E-01  4.47810E-01 -1.27131E-01
    8989.788     -6.130   0.800  3.71747E-01  4.64695E-01 -9.29471E-02
    8990.038     -5.880   0.840  4.15005E-01  4.81902E-01 -6.68975E-02
    8990.300     -5.618   0.880  4.38839E-01  4.99423E-01 -6.05841E-02
    8990.575     -5.344   0.920  4.40851E-01  5.17258E-01 -7.64073E-02
    8990.861     -5.057   0.960  4.29615E-01  5.35420E-01 -1.05805E-01
    8991.160     -4.759   1.000  4.14929E-01  5.53894E-01 -1.38965E-01
    8991.471     -4.448   1.040  4.01219E-01  5.72617E-01 -1.71398E-01
    8991.794     -4.125   1.080  3.90277E-01  5.91584E-01 -2.01307E-01
    8992.129     -3.789   1.120  3.83377E-01  6.10741E-01 -2.27364E-01
    8992.477     -3.442   1.160  3.80181E-01  6.30031E-01 -2.49850E-01
    8992.836     -3.082   1.200  3.79072E-01  6.49435E-01 -2.70363E-01
    8993.208     -2.710   1.240  3.79337E-01  6.68869E-01 -2.89533E-01
    8993.592     -2.326   1.280  3.82732E-01  6.88289E-01 -3.05558E-01
    8993.988     -1.930   1.320  3.91904E-01  7.07628E-01 -3.15725E-01
    8994.397     -1.522   1.360  4.09267E-01  7.26818E-01 -3.17551E-01
    8994.818     -1.101   1.400  4.37652E-01  7.45810E-01 -3.08158E-01
    8995.250     -0.668   1.440  4.80094E-01  7.64536E-01 -2.84442E-01
    8995.695     -0.223   1.480  5.36221E-01  7.82948E-01 -2.46727E-01
    8996.153      0.234   1.520  6.01757E-01  8.00977E-01 -1.99220E-01
    8996.622      0.703   1.560  6.75568E-01  8.18558E-01 -1.42990E-01
    8997.103      1.185   1.600  7.44808E-01  8.35665E-01 -9.08572E-02
    8997.597      1.679   1.640  7.77912E-01  8.52216E-01 -7.43035E-02
    8998.103      2.185   1.680  7.71892E-01  8.68208E-01 -9.63162E-02
    8998.621      2.703   1.720  7.60916E-01  8.83562E-01 -1.22646E-01
    8999.152      3.233   1.760  7.71133E-01  8.98262E-01 -1.27130E-01
    8999.694      3.776   1.800  8.02487E-01  9.12275E-01 -1.09787E-01
    9000.249      4.331   1.840  8.39070E-01  9.25586E-01 -8.65161E-02
    9000.816      4.897   1.880  8.65514E-01  9.38167E-01 -7.26533E-02
    9001.395      5.477   1.920  8.78435E-01  9.49992E-01 -7.15574E-02
    9001.986      6.068   1.960  8.82941E-01  9.61077E-01 -7.81363E-02
    9002.590      6.671   2.000  8.83026E-01  9.71399E-01 -8.83725E-02
    9003.206      7.287   2.040  8.80822E-01  9.80978E-01 -1.00156E-01
    9003.833      7.915   2.080  8.80595E-01  9.89799E-01 -1.09204E-01
    9004.474      8.555   2.120  8.87054E-01  9.97864E-01 -1.10810E-01
    9005.126      9.207   2.160  9.01881E-01  1.00522E+00 -1.03340E-01
    9005.790      9.872   2.200  9.23315E-01  1.01184E+00 -8.85208E-02
    9006.467     10.548   2.240  9.48668E-01  1.01778E+00 -6.91123E-02
    9007.156     11.237   2.280  9.76603E-01  1.02305E+00 -4.64430E-02
    9007.857     11.938   2.320  1.00703E+00  1.02766E+00 -2.06303E-02
    9008.570     12.652   2.360  1.03760E+00  1.03164E+00  5.95175E-03
    9009.295     13.377   2.400  1.06479E+00  1.03504E+00  2.97476E-02
    9010.033     14.115   2.440  1.09599E+00  1.03786E+00  5.81320E-02
    9010.783     14.864   2.480  1.14663E+00  1.04014E+00  1.06490E-01
    9011.545     15.626   2.520  1.21285E+00  1.04192E+00  1.70933E-01
    9012.319     16.401   2.560  1.25802E+00  1.04320E+00  2.14826E-01
    9013.105     17.187   2.600  1.27651E+00  1.04405E+00  2.32462E-01
    9013.904     17.986   2.640  1.28285E+00  1.04447E+00  2.38378E-01
    9014.715     18.796   2.680  1.28273E+00  1.04450E+00  2.38238E-01
    9015.538     19.619   2.720  1.27762E+00  1.04418E+00  2.33439E-01
    9016.373     20.454   2.760  1.26818E+00  1.04351E+00  2.24666E-01
    9017.220     21.302   2.800  1.25523E+00  1.04255E+00  2.12682E-01
    9018.080     22.161   2.840  1.23917E+00  1.04131E+00  1.97853E-01
    9018.951     23.033   2.880  1.21943E+00  1.03983E+00  1.79604E-01
    9019.835     23.917   2.920  1.19527E+00  1.03811E+00  1.57164E-01
    9020.731     24.813   2.960  1.16685E+00  1.03619E+00  1.30660E-01
    9021.640     25.721   3.000  1.13551E+00  1.03412E+00  1.01398E-01
    9022.560     26.642   3.040  1.10284E+00  1.03187E+00  7.09762E-02
    9023.493     27.574   3.080  1.07047E+00  1.02949E+00  4.09755E-02
    9024.438     28.519   3.120  1.03974E+00  1.02700E+00  1.27376E-02
    9025.395     29.476   3.160  1.01163E+00  1.02442E+00 -1.27938E-02
    9026.364     30.446   3.200  9.87061E-01  1.02178E+00 -3.47208E-02
    9027.346     31.427   3.240  9.66773E-01  1.01907E+00 -5.23004E-02
    9028.339     32.421   3.280  9.51327E-01  1.01630E+00 -6.49766E-02
    9029.345     33.427   3.320  9.41202E-01  1.01354E+00 -7.23361E-02
    9030.363     34.445   3.360  9.36639E-01  1.01074E+00 -7.40989E-02
    9031.393     35.475   3.400  9.37443E-01  1.00794E+00 -7.05008E-02
    9032.436     36.517   3.440  9.42817E-01  1.00516E+00 -6.23455E-02
    9033.490     37.572   3.480  9.51361E-01  1.00240E+00 -5.10400E-02
    9034.557     38.639   3.520  9.61110E-01  9.99650E-01 -3.85398E-02
    9035.636     39.718   3.560  9.69899E-01  9.96963E-01 -2.70644E-02
    9036.727     40.809   3.600  9.75923E-01  9.94325E-01 -1.84017E-02
    9037.831     41.912   3.640  9.78324E-01  9.91755E-01 -1.34307E-02
    9038.946     43.028   3.680  9.77049E-01  9.89261E-01 -1.22119E-02
    9040.074     44.156   3.720  9.72600E-01  9.86831E-01 -1.42306E-02
    9041.214     45.295   3.760  9.65768E-01  9.84463E-01 -1.86946E-02
    9042.366     46.448   3.800  9.57408E-01  9.82199E-01 -2.47906E-02
    9043.530     47.612   3.840  9.48132E-01  9.80008E-01 -3.18759E-02
    9044.707     48.788   3.880  9.38452E-01  9.77922E-01 -3.94697E-02
    9045.896     49.977   3.920  9.28818E-01  9.75942E-01 -4.71249E-02
    9047.097     51.178   3.960  9.19673E-01  9.74055E-01 -5.43820E-02
    9048.310     52.391   4.000  9.11427E-01  9.72278E-01 -6.08510E-02
    9049.535     53.616   4.040  9.04468E-01  9.70588E-01 -6.61202E-02
    9050.772     54.854   4.080  8.99262E-01  9.69017E-01 -6.97556E-02
    9052.022     56.104   4.120  8.96201E-01  9.67562E-01 -7.13610E-02
    9053.284     57.366   4.160  8.95612E-01  9.66223E-01 -7.06104E-02
    9054.558     58.640   4.200  8.97673E-01  9.65000E-01 -6.73276E-02
    9055.844     59.926   4.240  9.02318E-01  9.63874E-01 -6.15556E-02
    9057.143     61.224   4.280  9.09207E-01  9.62884E-01 -5.36769E-02
    9058.453     62.535   4.320  9.17680E-01  9.61989E-01 -4.43093E-02
    9059.776     63.858   4.360  9.26954E-01  9.61210E-01 -3.42552E-02
    9061.111     65.193   4.400  9.36153E-01  9.60545E-01 -2.43918E-02
    9062.458     66.540   4.440  9.44520E-01  9.59973E-01 -1.54528E-02
    9063.818     67.899   4.480  9.51663E-01  9.59515E-01 -7.85209E-03
    9065.189     69.271   4.520  9.57526E-01  9.59173E-01 -1.64666E-03
    9066.573     70.655   4.560  9.62366E-01  9.58945E-01  3.42117E-03
    9067.969     72.051   4.600  9.66516E-01  9.58808E-01  7.70797E-03
    9069.377     73.459   4.640  9.70272E-01  9.58781E-01  1.14912E-02
    9070.798     74.879   4.680  9.73716E-01  9.58842E-01  1.48736E-02
    9072.230     76.312   4.720  9.76811E-01  9.59012E-01  1.77992E-02
    9073.675     77.757   4.760  9.79394E-01  9.59269E-01  2.01252E-02
    9075.132     79.213   4.800  9.81367E-01  9.59610E-01  2.17571E-02
    9076.601     80.683   4.840  9.82734E-01  9.60053E-01  2.26814E-02
    9078.082     82.164   4.880  9.83523E-01  9.60555E-01  2.29680E-02
    9079.576     83.657   4.920  9.83889E-01  9.61138E-01  2.27514E-02
    9081.082     85.163   4.960  9.84016E-01  9.61819E-01  2.21974E-02
    9082.600     86.681   5.000  9.84003E-01  9.62555E-01  2.14480E-02
    9084.130     88.211   5.040  9.83967E-01  9.63363E-01  2.06032E-02
    9085.672     89.753   5.080  9.83889E-01  9.64221E-01  1.96677E-02
    9087.226     91.308   5.120  9.83825E-01  9.65147E-01  1.86780E-02
    9088.793     92.875   5.160  9.83937E-01  9.66119E-01  1.78184E-02
    9090.372     94.453   5.200  9.84606E-01  9.67132E-01  1.74746E-02
    9091.963     96.044   5.240  9.86355E-01  9.68185E-01  1.81703E-02
    9093.566     97.648   5.280  9.89668E-01  9.69277E-01  2.03908E-02
    9095.182     99.263   5.320  9.94735E-01  9.70405E-01  2.43297E-02
    9096.809    100.891   5.360  1.00122E+00  9.71567E-01  2.96568E-02
    9098.449    102.531   5.400  1.00823E+00  9.72737E-01  3.54937E-02
    9100.101    104.183   5.440  1.01459E+00  9.73914E-01  4.06749E-02
    9101.765    105.847   5.480  1.01938E+00  9.75117E-01  4.42614E-02
    9103.442    107.523   5.520  1.02228E+00  9.76323E-01  4.59590E-02
    9105.130    109.212   5.560  1.02359E+00  9.77529E-01  4.60588E-02
    9106.831    110.913   5.600  1.02364E+00  9.78732E-01  4.49035E-02
    9108.544    112.626   5.640  1.02244E+00  9.79929E-01  4.25094E-02
    9110.269    114.351   5.680  1.01975E+00  9.81093E-01  3.86531E-02
    9112.007    116.088   5.720  1.01551E+00  9.82222E-01  3.32885E-02
    9113.756    117.838   5.760  1.01004E+00  9.83337E-01  2.66991E-02
    9115.518    119.599   5.800  1.00375E+00  9.84417E-01  1.93302E-02
    9117.292    121.373   5.840  9.97014E-01  9.85478E-01  1.15366E-02
    9119.078    123.159   5.880  9.90063E-01  9.86467E-01  3.59653E-03
    9120.876    124.958   5.920  9.83234E-01  9.87399E-01 -4.16593E-03
    9122.687    126.768   5.960  9.76966E-01  9.88264E-01 -1.12978E-02
    9124.509    128.591   6.000  9.71695E-01  9.89058E-01 -1.73637E-02
