# # comment:                                                     FEFF 9.9.1  
# # Source:
# # Structure
# # Reduced
# # space
# # abc:
# # angles:
# # sites:
# # POT  SCF 100  7.0000   0, screened core-hole, AFOLP (folp(0)= 1.150)
# # Abs   Z=29 Rmt= 1.151 Rnm= 1.261 K  shell
# # Pot 1 Z=21 Rmt= 1.441 Rnm= 1.532
# # Pot 2 Z=29 Rmt= 1.120 Rnm= 1.244
# # Pot 3 Z= 8 Rmt= 1.004 Rnm= 1.100
# # Gam_ch=1.729E+00 H-L exch Vi= 0.000E+00 Vr= 0.000E+00
# # Mu=-9.229E+00eV kf=2.202E+00 Vint=-1.759E+01eV Rs_int= 1.647
# FMS rfms= 9.0000
# # PATH  Rmax=-1.000,  Keep_limit= 0.00, Heap_limit 0.00  Pwcrit= 2.50%
#  S02=0.950  Temp=   0.00  Debye_temp=   0.00  Global_sig2= 0.00000
#  Energy zero shift, vr, vi    0.00000E+00   0.00000E+00
#  Curved wave amplitude ratio filter   4.000%
#     file         sig2 tot  cw amp ratio   deg  nlegs   reff  inp sig2
#     0/   0 paths used
#  xsedge+ 50, used to normalize mu           2.4559E-04
#  -----------------------------------------------------------------------
#  omega    e    k    mu    mu0     chi     @#
    8984.566    -13.039  -1.000  3.15955E-02  5.38733E-02 -2.22778E-02
    8984.865    -12.740  -0.960  3.29783E-02  5.77589E-02 -2.47806E-02
    8985.151    -12.454  -0.920  3.44447E-02  6.20731E-02 -2.76283E-02
    8985.425    -12.179  -0.880  3.60025E-02  6.68785E-02 -3.08760E-02
    8985.687    -11.917  -0.840  3.76601E-02  7.22481E-02 -3.45879E-02
    8985.937    -11.667  -0.800  3.94272E-02  7.82663E-02 -3.88391E-02
    8986.175    -11.430  -0.760  4.13144E-02  8.50299E-02 -4.37155E-02
    8986.401    -11.204  -0.720  4.33332E-02  9.26483E-02 -4.93152E-02
    8986.614    -10.991  -0.680  4.54957E-02  1.01242E-01 -5.57461E-02
    8986.815    -10.790  -0.640  4.78141E-02  1.10937E-01 -6.31232E-02
    8987.004    -10.601  -0.600  5.02989E-02  1.21859E-01 -7.15603E-02
    8987.181    -10.424  -0.560  5.29572E-02  1.34114E-01 -8.11565E-02
    8987.346    -10.259  -0.520  5.57889E-02  1.47763E-01 -9.19746E-02
    8987.498    -10.107  -0.480  5.87827E-02  1.62794E-01 -1.04011E-01
    8987.638     -9.967  -0.440  6.19106E-02  1.79073E-01 -1.17162E-01
    8987.766     -9.839  -0.400  6.51243E-02  1.96318E-01 -1.31194E-01
    8987.882     -9.723  -0.360  6.83546E-02  2.14088E-01 -1.45733E-01
    8987.986     -9.619  -0.320  7.15160E-02  2.31805E-01 -1.60289E-01
    8988.077     -9.528  -0.280  7.45169E-02  2.48830E-01 -1.74313E-01
    8988.156     -9.448  -0.240  7.72712E-02  2.64548E-01 -1.87277E-01
    8988.223     -9.381  -0.200  7.97068E-02  2.78442E-01 -1.98735E-01
    8988.278     -9.327  -0.160  8.17680E-02  2.90134E-01 -2.08366E-01
    8988.321     -9.284  -0.120  8.34140E-02  2.99379E-01 -2.15965E-01
    8988.351     -9.253  -0.080  8.46150E-02  3.06042E-01 -2.21427E-01
    8988.376     -9.229   0.000  8.56049E-02  3.11397E-01 -2.25792E-01
    8988.431     -9.174   0.120  8.80300E-02  3.23472E-01 -2.35442E-01
    8988.473     -9.131   0.160  8.98501E-02  3.32863E-01 -2.43013E-01
    8988.528     -9.077   0.200  9.21927E-02  3.44865E-01 -2.52672E-01
    8988.595     -9.010   0.240  9.50499E-02  3.59302E-01 -2.64252E-01
    8988.675     -8.930   0.280  9.84575E-02  3.75915E-01 -2.77458E-01
    8988.766     -8.839   0.320  1.02421E-01  3.94276E-01 -2.91855E-01
    8988.870     -8.735   0.360  1.06973E-01  4.13855E-01 -3.06882E-01
    8988.985     -8.619   0.400  1.12283E-01  4.34147E-01 -3.21864E-01
    8989.113     -8.491   0.440  1.18450E-01  4.54595E-01 -3.36145E-01
    8989.254     -8.351   0.480  1.25652E-01  4.74835E-01 -3.49183E-01
    8989.406     -8.199   0.520  1.34045E-01  4.94601E-01 -3.60556E-01
    8989.571     -8.034   0.560  1.43602E-01  5.13781E-01 -3.70180E-01
    8989.747     -7.857   0.600  1.53950E-01  5.32322E-01 -3.78372E-01
    8989.936     -7.668   0.640  1.64384E-01  5.50298E-01 -3.85913E-01
    8990.138     -7.467   0.680  1.73905E-01  5.67776E-01 -3.93872E-01
    8990.351     -7.254   0.720  1.81867E-01  5.84819E-01 -4.02952E-01
    8990.576     -7.028   0.760  1.88713E-01  6.01503E-01 -4.12791E-01
    8990.814     -6.791   0.800  1.96122E-01  6.17941E-01 -4.21819E-01
    8991.064     -6.541   0.840  2.06419E-01  6.34147E-01 -4.27729E-01
    8991.326     -6.279   0.880  2.21835E-01  6.50186E-01 -4.28352E-01
    8991.601     -6.004   0.920  2.43142E-01  6.66068E-01 -4.22926E-01
    8991.887     -5.718   0.960  2.68891E-01  6.81831E-01 -4.12940E-01
    8992.186     -5.419   1.000  2.95977E-01  6.97484E-01 -4.01508E-01
    8992.497     -5.108   1.040  3.21861E-01  7.12985E-01 -3.91124E-01
    8992.820     -4.785   1.080  3.46381E-01  7.28347E-01 -3.81966E-01
    8993.155     -4.450   1.120  3.70338E-01  7.43555E-01 -3.73218E-01
    8993.503     -4.102   1.160  3.90038E-01  7.58571E-01 -3.68533E-01
    8993.862     -3.743   1.200  3.97776E-01  7.73372E-01 -3.75596E-01
    8994.234     -3.371   1.240  3.96588E-01  7.87932E-01 -3.91344E-01
    8994.618     -2.987   1.280  4.01517E-01  8.02221E-01 -4.00704E-01
    8995.014     -2.590   1.320  4.20780E-01  8.16213E-01 -3.95433E-01
    8995.423     -2.182   1.360  4.50972E-01  8.29877E-01 -3.78905E-01
    8995.843     -1.761   1.400  4.85695E-01  8.43161E-01 -3.57466E-01
    8996.276     -1.329   1.440  5.22356E-01  8.56054E-01 -3.33698E-01
    8996.721     -0.884   1.480  5.63250E-01  8.68507E-01 -3.05257E-01
    8997.178     -0.426   1.520  6.09699E-01  8.80528E-01 -2.70829E-01
    8997.648      0.043   1.560  6.63359E-01  8.92070E-01 -2.28711E-01
    8998.129      0.525   1.600  7.33591E-01  9.03147E-01 -1.69555E-01
    8998.623      1.018   1.640  8.28426E-01  9.13689E-01 -8.52628E-02
    8999.129      1.524   1.680  9.41696E-01  9.23712E-01  1.79841E-02
    8999.647      2.042   1.720  1.05545E+00  9.33214E-01  1.22232E-01
    9000.178      2.573   1.760  1.16284E+00  9.42191E-01  2.20651E-01
    9000.720      3.115   1.800  1.24797E+00  9.50603E-01  2.97366E-01
    9001.275      3.670   1.840  1.28321E+00  9.58490E-01  3.24715E-01
    9001.842      4.237   1.880  1.26268E+00  9.65834E-01  2.96841E-01
    9002.421      4.816   1.920  1.21083E+00  9.72639E-01  2.38192E-01
    9003.012      5.407   1.960  1.16400E+00  9.78907E-01  1.85088E-01
    9003.616      6.011   2.000  1.14443E+00  9.84666E-01  1.59760E-01
    9004.231      6.627   2.040  1.15008E+00  9.89924E-01  1.60158E-01
    9004.859      7.255   2.080  1.16697E+00  9.94687E-01  1.72282E-01
    9005.499      7.895   2.120  1.18958E+00  9.98983E-01  1.90602E-01
    9006.152      8.547   2.160  1.22046E+00  1.00282E+00  2.17642E-01
    9006.816      9.211   2.200  1.25879E+00  1.00621E+00  2.52573E-01
    9007.493      9.888   2.240  1.29971E+00  1.00919E+00  2.90520E-01
    9008.182     10.577   2.280  1.32989E+00  1.01175E+00  3.18139E-01
    9008.883     11.278   2.320  1.33643E+00  1.01394E+00  3.22493E-01
    9009.596     11.991   2.360  1.31166E+00  1.01576E+00  2.95902E-01
    9010.321     12.717   2.400  1.26412E+00  1.01727E+00  2.46851E-01
    9011.059     13.454   2.440  1.21878E+00  1.01844E+00  2.00340E-01
    9011.809     14.204   2.480  1.19838E+00  1.01933E+00  1.79049E-01
    9012.571     14.966   2.520  1.20837E+00  1.01994E+00  1.88424E-01
    9013.345     15.740   2.560  1.22527E+00  1.02030E+00  2.04964E-01
    9014.131     16.527   2.600  1.21012E+00  1.02043E+00  1.89693E-01
    9014.930     17.325   2.640  1.15733E+00  1.02034E+00  1.36991E-01
    9015.741     18.136   2.680  1.10167E+00  1.02007E+00  8.15979E-02
    9016.564     18.959   2.720  1.05780E+00  1.01962E+00  3.81894E-02
    9017.399     19.794   2.760  1.02865E+00  1.01902E+00  9.62970E-03
    9018.246     20.641   2.800  1.01010E+00  1.01829E+00 -8.19135E-03
    9019.106     21.501   2.840  9.97391E-01  1.01742E+00 -2.00292E-02
    9019.977     22.373   2.880  9.86370E-01  1.01646E+00 -3.00859E-02
    9020.861     23.256   2.920  9.74251E-01  1.01541E+00 -4.11551E-02
    9021.757     24.153   2.960  9.60379E-01  1.01430E+00 -5.39187E-02
    9022.666     25.061   3.000  9.45571E-01  1.01312E+00 -6.75443E-02
    9023.586     25.981   3.040  9.31485E-01  1.01187E+00 -8.03823E-02
    9024.519     26.914   3.080  9.20059E-01  1.01060E+00 -9.05411E-02
    9025.464     27.859   3.120  9.12411E-01  1.00932E+00 -9.69089E-02
    9026.421     28.816   3.160  9.08501E-01  1.00801E+00 -9.95112E-02
    9027.390     29.785   3.200  9.07737E-01  1.00670E+00 -9.89637E-02
    9028.371     30.767   3.240  9.09469E-01  1.00539E+00 -9.59213E-02
    9029.365     31.760   3.280  9.12578E-01  1.00411E+00 -9.15287E-02
    9030.371     32.766   3.320  9.15871E-01  1.00283E+00 -8.69609E-02
    9031.389     33.784   3.360  9.18549E-01  1.00159E+00 -8.30414E-02
    9032.419     34.814   3.400  9.20438E-01  1.00039E+00 -7.99501E-02
    9033.462     35.857   3.440  9.21898E-01  9.99225E-01 -7.73275E-02
    9034.516     36.911   3.480  9.23510E-01  9.98103E-01 -7.45928E-02
    9035.583     37.978   3.520  9.25765E-01  9.97026E-01 -7.12607E-02
    9036.662     39.057   3.560  9.28497E-01  9.96017E-01 -6.75203E-02
    9037.753     40.148   3.600  9.30931E-01  9.95058E-01 -6.41266E-02
    9038.857     41.252   3.640  9.32083E-01  9.94171E-01 -6.20877E-02
    9039.972     42.367   3.680  9.31223E-01  9.93358E-01 -6.21348E-02
    9041.100     43.495   3.720  9.28284E-01  9.92597E-01 -6.43125E-02
    9042.240     44.635   3.760  9.24056E-01  9.91911E-01 -6.78548E-02
    9043.392     45.787   3.800  9.19815E-01  9.91299E-01 -7.14848E-02
    9044.556     46.952   3.840  9.16792E-01  9.90744E-01 -7.39526E-02
    9045.733     48.128   3.880  9.16018E-01  9.90286E-01 -7.42680E-02
    9046.922     49.317   3.920  9.17989E-01  9.89885E-01 -7.18952E-02
    9048.122     50.518   3.960  9.22687E-01  9.89559E-01 -6.68720E-02
    9049.336     51.731   4.000  9.29672E-01  9.89309E-01 -5.96370E-02
    9050.561     52.956   4.040  9.38462E-01  9.89114E-01 -5.06516E-02
    9051.798     54.194   4.080  9.48788E-01  9.89016E-01 -4.02278E-02
    9053.048     55.443   4.120  9.60420E-01  9.88970E-01 -2.85500E-02
    9054.310     56.705   4.160  9.73174E-01  9.88977E-01 -1.58034E-02
    9055.584     57.979   4.200  9.86823E-01  9.89080E-01 -2.25692E-03
    9056.870     59.265   4.240  1.00093E+00  9.89234E-01  1.16950E-02
    9058.169     60.564   4.280  1.01525E+00  9.89437E-01  2.58103E-02
    9059.479     61.874   4.320  1.02970E+00  9.89710E-01  3.99919E-02
    9060.802     63.197   4.360  1.04417E+00  9.90053E-01  5.41139E-02
    9062.137     64.532   4.400  1.05833E+00  9.90419E-01  6.79104E-02
    9063.484     65.880   4.440  1.07171E+00  9.90849E-01  8.08595E-02
    9064.844     67.239   4.480  1.08339E+00  9.91324E-01  9.20663E-02
    9066.215     68.611   4.520  1.09223E+00  9.91840E-01  1.00393E-01
    9067.599     69.994   4.560  1.09728E+00  9.92395E-01  1.04887E-01
    9068.995     71.390   4.600  1.09792E+00  9.92988E-01  1.04928E-01
    9070.403     72.798   4.640  1.09407E+00  9.93617E-01  1.00451E-01
    9071.824     74.219   4.680  1.08622E+00  9.94258E-01  9.19621E-02
    9073.256     75.651   4.720  1.07538E+00  9.94931E-01  8.04440E-02
    9074.701     77.096   4.760  1.06285E+00  9.95635E-01  6.72135E-02
    9076.158     78.553   4.800  1.05004E+00  9.96347E-01  5.36941E-02
    9077.627     80.022   4.840  1.03809E+00  9.97061E-01  4.10327E-02
    9079.108     81.504   4.880  1.02776E+00  9.97778E-01  2.99866E-02
    9080.602     82.997   4.920  1.01949E+00  9.98518E-01  2.09696E-02
    9082.108     84.503   4.960  1.01333E+00  9.99233E-01  1.40980E-02
    9083.625     86.021   5.000  1.00916E+00  9.99945E-01  9.21196E-03
    9085.155     87.551   5.040  1.00662E+00  1.00065E+00  5.96826E-03
    9086.698     89.093   5.080  1.00533E+00  1.00136E+00  3.97779E-03
    9088.252     90.647   5.120  1.00494E+00  1.00203E+00  2.91464E-03
    9089.819     92.214   5.160  1.00512E+00  1.00269E+00  2.43528E-03
    9091.398     93.793   5.200  1.00544E+00  1.00332E+00  2.12111E-03
    9092.989     95.384   5.240  1.00537E+00  1.00393E+00  1.43575E-03
    9094.592     96.987   5.280  1.00428E+00  1.00448E+00 -2.01683E-04
    9096.208     98.603   5.320  1.00182E+00  1.00502E+00 -3.20052E-03
    9097.835    100.230   5.360  9.97898E-01  1.00552E+00 -7.62571E-03
    9099.475    101.870   5.400  9.92775E-01  1.00598E+00 -1.32078E-02
    9101.127    103.522   5.440  9.86941E-01  1.00640E+00 -1.94597E-02
    9102.791    105.186   5.480  9.81003E-01  1.00678E+00 -2.57721E-02
    9104.468    106.863   5.520  9.75799E-01  1.00711E+00 -3.13080E-02
    9106.156    108.551   5.560  9.72478E-01  1.00737E+00 -3.48922E-02
    9107.857    110.252   5.600  9.72289E-01  1.00759E+00 -3.52972E-02
    9109.570    111.965   5.640  9.75774E-01  1.00776E+00 -3.19853E-02
    9111.295    113.690   5.680  9.82387E-01  1.00789E+00 -2.55027E-02
    9113.032    115.428   5.720  9.90779E-01  1.00797E+00 -1.71945E-02
    9114.782    117.177   5.760  9.99256E-01  1.00799E+00 -8.73126E-03
    9116.544    118.939   5.800  1.00592E+00  1.00793E+00 -2.01236E-03
    9118.318    120.713   5.840  1.00881E+00  1.00785E+00  9.57462E-04
    9120.104    122.499   5.880  1.00631E+00  1.00770E+00 -1.39228E-03
    9121.902    124.297   5.920  9.98170E-01  1.00748E+00 -9.31168E-03
    9123.713    126.108   5.960  9.85930E-01  1.00721E+00 -2.12822E-02
    9125.535    127.930   6.000  9.72237E-01  1.00689E+00 -3.46497E-02
