# # comment:                                                     FEFF 9.9.1  
# # Source:
# # Structure
# # Reduced
# # space
# # abc:
# # angles:109.504385
# # sites:
# # POT  SCF 100  7.0000   0, screened core-hole, AFOLP (folp(0)= 1.150)
# # Abs   Z=29 Rmt= 1.151 Rnm= 1.254 K  shell
# # Pot 1 Z=12 Rmt= 1.595 Rnm= 1.618
# # Pot 2 Z=24 Rmt= 1.271 Rnm= 1.386
# # Pot 3 Z=29 Rmt= 1.151 Rnm= 1.254
# # Pot 4 Z= 8 Rmt= 1.004 Rnm= 1.089
# # Gam_ch=1.729E+00 H-L exch Vi= 0.000E+00 Vr= 0.000E+00
# # Mu=-1.002E+01eV kf=2.224E+00 Vint=-1.861E+01eV Rs_int= 1.631
# FMS rfms= 9.0000
# # PATH  Rmax=-1.000,  Keep_limit= 0.00, Heap_limit 0.00  Pwcrit= 2.50%
#  S02=0.950  Temp=   0.00  Debye_temp=   0.00  Global_sig2= 0.00000
#  Energy zero shift, vr, vi    0.00000E+00   0.00000E+00
#  Curved wave amplitude ratio filter   4.000%
#     file         sig2 tot  cw amp ratio   deg  nlegs   reff  inp sig2
#     0/   0 paths used
#  xsedge+ 50, used to normalize mu           2.4754E-04
#  -----------------------------------------------------------------------
#  omega    e    k    mu    mu0     chi     @#
    8984.745    -13.833  -1.000  3.41359E-02  5.19610E-02 -1.78251E-02
    8985.044    -13.534  -0.960  3.57970E-02  5.56747E-02 -1.98777E-02
    8985.331    -13.247  -0.920  3.75730E-02  5.97963E-02 -2.22233E-02
    8985.605    -12.973  -0.880  3.94756E-02  6.43854E-02 -2.49098E-02
    8985.867    -12.711  -0.840  4.15181E-02  6.95114E-02 -2.79933E-02
    8986.117    -12.461  -0.800  4.37159E-02  7.52546E-02 -3.15387E-02
    8986.355    -12.223  -0.760  4.60862E-02  8.17070E-02 -3.56208E-02
    8986.580    -11.998  -0.720  4.86485E-02  8.89728E-02 -4.03243E-02
    8986.794    -11.784  -0.680  5.14238E-02  9.71664E-02 -4.57427E-02
    8986.995    -11.583  -0.640  5.44337E-02  1.06409E-01 -5.19749E-02
    8987.184    -11.394  -0.600  5.76986E-02  1.16818E-01 -5.91191E-02
    8987.361    -11.217  -0.560  6.12340E-02  1.28495E-01 -6.72607E-02
    8987.525    -11.053  -0.520  6.50447E-02  1.41499E-01 -7.64546E-02
    8987.678    -10.900  -0.480  6.91172E-02  1.55817E-01 -8.67002E-02
    8987.818    -10.760  -0.440  7.34105E-02  1.71323E-01 -9.79129E-02
    8987.946    -10.632  -0.400  7.78496E-02  1.87749E-01 -1.09899E-01
    8988.062    -10.516  -0.360  8.23232E-02  2.04671E-01 -1.22348E-01
    8988.165    -10.413  -0.320  8.66932E-02  2.21543E-01 -1.34849E-01
    8988.257    -10.321  -0.280  9.08125E-02  2.37754E-01 -1.46942E-01
    8988.336    -10.242  -0.240  9.45469E-02  2.52720E-01 -1.58173E-01
    8988.403    -10.175  -0.200  9.77934E-02  2.65949E-01 -1.68155E-01
    8988.458    -10.120  -0.160  1.00486E-01  2.77079E-01 -1.76593E-01
    8988.501    -10.077  -0.120  1.02590E-01  2.85880E-01 -1.83290E-01
    8988.531    -10.047  -0.080  1.04094E-01  2.92222E-01 -1.88128E-01
    8988.555    -10.023   0.000  1.05295E-01  2.97319E-01 -1.92023E-01
    8988.610     -9.968   0.120  1.08009E-01  3.08804E-01 -2.00795E-01
    8988.653     -9.925   0.160  1.10078E-01  3.17754E-01 -2.07675E-01
    8988.708     -9.870   0.200  1.12654E-01  3.29167E-01 -2.16513E-01
    8988.775     -9.803   0.240  1.15682E-01  3.42917E-01 -2.27234E-01
    8988.854     -9.724   0.280  1.19096E-01  3.58716E-01 -2.39619E-01
    8988.946     -9.632   0.320  1.22826E-01  3.76193E-01 -2.53367E-01
    8989.049     -9.529   0.360  1.26857E-01  3.94820E-01 -2.67963E-01
    8989.165     -9.413   0.400  1.31308E-01  4.14119E-01 -2.82811E-01
    8989.293     -9.285   0.440  1.36403E-01  4.33557E-01 -2.97154E-01
    8989.433     -9.145   0.480  1.42608E-01  4.52808E-01 -3.10200E-01
    8989.586     -8.992   0.520  1.50420E-01  4.71598E-01 -3.21178E-01
    8989.750     -8.828   0.560  1.60434E-01  4.89841E-01 -3.29407E-01
    8989.927     -8.651   0.600  1.72950E-01  5.07486E-01 -3.34537E-01
    8990.116     -8.462   0.640  1.87844E-01  5.24586E-01 -3.36743E-01
    8990.317     -8.261   0.680  2.04227E-01  5.41208E-01 -3.36981E-01
    8990.530     -8.047   0.720  2.20611E-01  5.57450E-01 -3.36839E-01
    8990.756     -7.822   0.760  2.35647E-01  5.73387E-01 -3.37740E-01
    8990.994     -7.584   0.800  2.48846E-01  5.89090E-01 -3.40244E-01
    8991.244     -7.334   0.840  2.60562E-01  6.04632E-01 -3.44070E-01
    8991.506     -7.072   0.880  2.71742E-01  6.20017E-01 -3.48275E-01
    8991.780     -6.798   0.920  2.84455E-01  6.35316E-01 -3.50861E-01
    8992.067     -6.511   0.960  3.03116E-01  6.50529E-01 -3.47413E-01
    8992.365     -6.213   1.000  3.35316E-01  6.65682E-01 -3.30366E-01
    8992.676     -5.902   1.040  3.90869E-01  6.80737E-01 -2.89869E-01
    8992.999     -5.579   1.080  4.81730E-01  6.95729E-01 -2.13999E-01
    8993.335     -5.243   1.120  6.17351E-01  7.10625E-01 -9.32745E-02
    8993.682     -4.896   1.160  7.80918E-01  7.25408E-01  5.55096E-02
    8994.042     -4.536   1.200  8.94470E-01  7.40056E-01  1.54414E-01
    8994.414     -4.164   1.240  8.79174E-01  7.54545E-01  1.24629E-01
    8994.798     -3.780   1.280  7.70048E-01  7.68828E-01  1.22069E-03
    8995.194     -3.384   1.320  6.50955E-01  7.82896E-01 -1.31941E-01
    8995.602     -2.976   1.360  5.65981E-01  7.96699E-01 -2.30717E-01
    8996.023     -2.555   1.400  5.21299E-01  8.10227E-01 -2.88928E-01
    8996.456     -2.122   1.440  5.03730E-01  8.23450E-01 -3.19720E-01
    8996.901     -1.677   1.480  5.06246E-01  8.36337E-01 -3.30091E-01
    8997.358     -1.220   1.520  5.33176E-01  8.48835E-01 -3.15659E-01
    8997.827     -0.751   1.560  5.76468E-01  8.60957E-01 -2.84489E-01
    8998.309     -0.269   1.600  6.12747E-01  8.72652E-01 -2.59904E-01
    8998.803      0.225   1.640  6.35851E-01  8.83930E-01 -2.48079E-01
    8999.309      0.731   1.680  6.58187E-01  8.94726E-01 -2.36539E-01
    8999.827      1.249   1.720  6.85337E-01  9.05073E-01 -2.19736E-01
    9000.357      1.779   1.760  7.22943E-01  9.14926E-01 -1.91983E-01
    9000.900      2.322   1.800  7.83671E-01  9.24301E-01 -1.40630E-01
    9001.454      2.876   1.840  8.60219E-01  9.33155E-01 -7.29355E-02
    9002.021      3.443   1.880  9.18263E-01  9.41528E-01 -2.32645E-02
    9002.601      4.023   1.920  9.38448E-01  9.49399E-01 -1.09509E-02
    9003.192      4.614   1.960  9.52020E-01  9.56750E-01 -4.73043E-03
    9003.795      5.217   2.000  1.00494E+00  9.63603E-01  4.13376E-02
    9004.411      5.833   2.040  1.10469E+00  9.69981E-01  1.34711E-01
    9005.039      6.461   2.080  1.20566E+00  9.75869E-01  2.29795E-01
    9005.679      7.101   2.120  1.27145E+00  9.81273E-01  2.90174E-01
    9006.331      7.753   2.160  1.31809E+00  9.86197E-01  3.31889E-01
    9006.996      8.418   2.200  1.35009E+00  9.90689E-01  3.59398E-01
    9007.672      9.094   2.240  1.35999E+00  9.94758E-01  3.65234E-01
    9008.361      9.783   2.280  1.36533E+00  9.98391E-01  3.66940E-01
    9009.062     10.484   2.320  1.39306E+00  1.00162E+00  3.91447E-01
    9009.775     11.197   2.360  1.43767E+00  1.00444E+00  4.33229E-01
    9010.501     11.923   2.400  1.46423E+00  1.00692E+00  4.57312E-01
    9011.239     12.661   2.440  1.45344E+00  1.00904E+00  4.44402E-01
    9011.988     13.410   2.480  1.40594E+00  1.01082E+00  3.95113E-01
    9012.750     14.172   2.520  1.31547E+00  1.01231E+00  3.03159E-01
    9013.525     14.947   2.560  1.20233E+00  1.01349E+00  1.88836E-01
    9014.311     15.733   2.600  1.11032E+00  1.01441E+00  9.59092E-02
    9015.109     16.531   2.640  1.06824E+00  1.01506E+00  5.31870E-02
    9015.920     17.342   2.680  1.05629E+00  1.01548E+00  4.08088E-02
    9016.743     18.165   2.720  1.04647E+00  1.01568E+00  3.07972E-02
    9017.578     19.000   2.760  1.03253E+00  1.01569E+00  1.68406E-02
    9018.426     19.848   2.800  1.01817E+00  1.01551E+00  2.66204E-03
    9019.285     20.707   2.840  1.00765E+00  1.01516E+00 -7.51172E-03
    9020.157     21.579   2.880  1.00134E+00  1.01465E+00 -1.33139E-02
    9021.041     22.463   2.920  9.96197E-01  1.01404E+00 -1.78418E-02
    9021.937     23.359   2.960  9.88814E-01  1.01328E+00 -2.44679E-02
    9022.845     24.267   3.000  9.77425E-01  1.01243E+00 -3.50075E-02
    9023.766     25.188   3.040  9.61569E-01  1.01148E+00 -4.99058E-02
    9024.698     26.120   3.080  9.41965E-01  1.01046E+00 -6.84920E-02
    9025.643     27.065   3.120  9.20177E-01  1.00937E+00 -8.91888E-02
    9026.600     28.022   3.160  8.98616E-01  1.00823E+00 -1.09611E-01
    9027.570     28.992   3.200  8.79833E-01  1.00704E+00 -1.27211E-01
    9028.551     29.973   3.240  8.65793E-01  1.00583E+00 -1.40033E-01
    9029.545     30.967   3.280  8.56709E-01  1.00460E+00 -1.47889E-01
    9030.551     31.973   3.320  8.51872E-01  1.00336E+00 -1.51490E-01
    9031.569     32.991   3.360  8.50677E-01  1.00210E+00 -1.51425E-01
    9032.599     34.021   3.400  8.52698E-01  1.00086E+00 -1.48165E-01
    9033.641     35.063   3.440  8.57202E-01  9.99629E-01 -1.42427E-01
    9034.696     36.118   3.480  8.63528E-01  9.98402E-01 -1.34874E-01
    9035.763     37.185   3.520  8.71364E-01  9.97207E-01 -1.25843E-01
    9036.842     38.264   3.560  8.80462E-01  9.96047E-01 -1.15585E-01
    9037.933     39.355   3.600  8.90878E-01  9.94925E-01 -1.04047E-01
    9039.036     40.458   3.640  9.02793E-01  9.93842E-01 -9.10488E-02
    9040.152     41.574   3.680  9.16159E-01  9.92800E-01 -7.66410E-02
    9041.279     42.701   3.720  9.30263E-01  9.91800E-01 -6.15369E-02
    9042.419     43.841   3.760  9.43990E-01  9.90844E-01 -4.68543E-02
    9043.572     44.994   3.800  9.56114E-01  9.89956E-01 -3.38414E-02
    9044.736     46.158   3.840  9.65766E-01  9.89116E-01 -2.33493E-02
    9045.912     47.334   3.880  9.72715E-01  9.88345E-01 -1.56298E-02
    9047.101     48.523   3.920  9.77049E-01  9.87624E-01 -1.05748E-02
    9048.302     49.724   3.960  9.78813E-01  9.86975E-01 -8.16128E-03
    9049.515     50.937   4.000  9.77764E-01  9.86395E-01 -8.63160E-03
    9050.740     52.162   4.040  9.73731E-01  9.85866E-01 -1.21352E-02
    9051.978     53.400   4.080  9.67467E-01  9.85388E-01 -1.79201E-02
    9053.228     54.650   4.120  9.61071E-01  9.84979E-01 -2.39077E-02
    9054.489     55.911   4.160  9.57460E-01  9.84643E-01 -2.71826E-02
    9055.764     57.186   4.200  9.59391E-01  9.84357E-01 -2.49660E-02
    9057.050     58.472   4.240  9.68420E-01  9.84141E-01 -1.57210E-02
    9058.348     59.770   4.280  9.84258E-01  9.83975E-01  2.83706E-04
    9059.659     61.081   4.320  1.00491E+00  9.83878E-01  2.10299E-02
    9060.982     62.404   4.360  1.02728E+00  9.83830E-01  4.34537E-02
    9062.317     63.739   4.400  1.04832E+00  9.83850E-01  6.44709E-02
    9063.664     65.086   4.440  1.06561E+00  9.83916E-01  8.16895E-02
    9065.023     66.445   4.480  1.07760E+00  9.84024E-01  9.35790E-02
    9066.395     67.817   4.520  1.08333E+00  9.84176E-01  9.91531E-02
    9067.779     69.201   4.560  1.08239E+00  9.84392E-01  9.80020E-02
    9069.175     70.597   4.600  1.07532E+00  9.84627E-01  9.06971E-02
    9070.583     72.005   4.640  1.06419E+00  9.84925E-01  7.92613E-02
    9072.003     73.425   4.680  1.05187E+00  9.85261E-01  6.66055E-02
    9073.436     74.858   4.720  1.04116E+00  9.85612E-01  5.55524E-02
    9074.880     76.303   4.760  1.03423E+00  9.85998E-01  4.82326E-02
    9076.337     77.759   4.800  1.03217E+00  9.86419E-01  4.57486E-02
    9077.807     79.229   4.840  1.03496E+00  9.86872E-01  4.80886E-02
    9079.288     80.710   4.880  1.04174E+00  9.87334E-01  5.44097E-02
    9080.781     82.203   4.920  1.05091E+00  9.87803E-01  6.31020E-02
    9082.287     83.709   4.960  1.05995E+00  9.88299E-01  7.16527E-02
    9083.805     85.227   5.000  1.06570E+00  9.88800E-01  7.68961E-02
    9085.335     86.757   5.040  1.06558E+00  9.89304E-01  7.62755E-02
    9086.877     88.299   5.080  1.05901E+00  9.89831E-01  6.91743E-02
    9088.432     89.854   5.120  1.04723E+00  9.90336E-01  5.68911E-02
    9089.999     91.421   5.160  1.03232E+00  9.90840E-01  4.14793E-02
    9091.577     92.999   5.200  1.01600E+00  9.91363E-01  2.46353E-02
    9093.168     94.590   5.240  9.99138E-01  9.91859E-01  7.27890E-03
    9094.772     96.194   5.280  9.82254E-01  9.92326E-01 -1.00720E-02
    9096.387     97.809   5.320  9.65885E-01  9.92807E-01 -2.69222E-02
    9098.015     99.437   5.360  9.50538E-01  9.93237E-01 -4.26990E-02
    9099.655    101.077   5.400  9.36841E-01  9.93676E-01 -5.68344E-02
    9101.307    102.729   5.440  9.25067E-01  9.94062E-01 -6.89955E-02
    9102.971    104.393   5.480  9.15344E-01  9.94458E-01 -7.91133E-02
    9104.647    106.069   5.520  9.07827E-01  9.94795E-01 -8.69680E-02
    9106.336    107.758   5.560  9.03230E-01  9.95095E-01 -9.18650E-02
    9108.037    109.459   5.600  9.02536E-01  9.95380E-01 -9.28437E-02
    9109.749    111.171   5.640  9.06419E-01  9.95628E-01 -8.92092E-02
    9111.475    112.897   5.680  9.14872E-01  9.95838E-01 -8.09657E-02
    9113.212    114.634   5.720  9.27196E-01  9.96007E-01 -6.88114E-02
    9114.962    116.384   5.760  9.42476E-01  9.96136E-01 -5.36603E-02
    9116.723    118.145   5.800  9.60060E-01  9.96225E-01 -3.61655E-02
    9118.497    119.919   5.840  9.79219E-01  9.96275E-01 -1.70562E-02
    9120.283    121.705   5.880  9.98195E-01  9.96283E-01  1.91229E-03
    9122.082    123.504   5.920  1.01429E+00  9.96250E-01  1.80372E-02
    9123.892    125.314   5.960  1.02520E+00  9.96171E-01  2.90332E-02
    9125.715    127.137   6.000  1.02997E+00  9.95993E-01  3.39738E-02
