# # comment:                                                     FEFF 9.9.1  
# # Source:
# # Structure
# # Reduced
# # space
# # abc:
# # angles:
# # sites:
# # POT  SCF 100  7.0000   0, screened core-hole, AFOLP (folp(0)= 1.150)
# # Abs   Z=29 Rmt= 1.268 Rnm= 1.337 K  shell
# # Pot 1 Z=30 Rmt= 1.254 Rnm= 1.453
# # Pot 2 Z=29 Rmt= 1.313 Rnm= 1.378
# # Pot 3 Z=15 Rmt= 0.937 Rnm= 1.153
# # Pot 4 Z= 8 Rmt= 0.868 Rnm= 1.038
# # Gam_ch=1.729E+00 H-L exch Vi= 0.000E+00 Vr= 0.000E+00
# # Mu=-6.535E+00eV kf=2.477E+00 Vint=-1.730E+01eV Rs_int= 1.464
# FMS rfms= 9.0000
# # PATH  Rmax=-1.000,  Keep_limit= 0.00, Heap_limit 0.00  Pwcrit= 2.50%
#  S02=0.950  Temp=   0.00  Debye_temp=   0.00  Global_sig2= 0.00000
#  Energy zero shift, vr, vi    0.00000E+00   0.00000E+00
#  Curved wave amplitude ratio filter   4.000%
#     file         sig2 tot  cw amp ratio   deg  nlegs   reff  inp sig2
#     0/   0 paths used
#  xsedge+ 50, used to normalize mu           2.4879E-04
#  -----------------------------------------------------------------------
#  omega    e    k    mu    mu0     chi     @#
    8983.347    -10.345  -1.000  3.99984E-02  5.17073E-02 -1.17090E-02
    8983.645    -10.046  -0.960  4.21829E-02  5.54527E-02 -1.32699E-02
    8983.932     -9.760  -0.920  4.45362E-02  5.96168E-02 -1.50806E-02
    8984.206     -9.485  -0.880  4.70756E-02  6.42616E-02 -1.71860E-02
    8984.468     -9.223  -0.840  4.98203E-02  6.94595E-02 -1.96393E-02
    8984.718     -8.973  -0.800  5.27915E-02  7.52945E-02 -2.25030E-02
    8984.956     -8.736  -0.760  5.60124E-02  8.18629E-02 -2.58505E-02
    8985.182     -8.510  -0.720  5.95079E-02  8.92738E-02 -2.97659E-02
    8985.395     -8.297  -0.680  6.33035E-02  9.76473E-02 -3.43437E-02
    8985.596     -8.095  -0.640  6.74246E-02  1.07110E-01 -3.96858E-02
    8985.785     -7.907  -0.600  7.18937E-02  1.17788E-01 -4.58945E-02
    8985.962     -7.730  -0.560  7.67265E-02  1.29787E-01 -5.30607E-02
    8986.127     -7.565  -0.520  8.19270E-02  1.43171E-01 -6.12444E-02
    8986.279     -7.413  -0.480  8.74800E-02  1.57927E-01 -7.04474E-02
    8986.419     -7.273  -0.440  9.33431E-02  1.73925E-01 -8.05824E-02
    8986.547     -7.145  -0.400  9.94391E-02  1.90885E-01 -9.14462E-02
    8986.663     -7.029  -0.360  1.05653E-01  2.08367E-01 -1.02714E-01
    8986.767     -6.925  -0.320  1.11836E-01  2.25798E-01 -1.13962E-01
    8986.858     -6.834  -0.280  1.17815E-01  2.42543E-01 -1.24729E-01
    8986.937     -6.754  -0.240  1.23410E-01  2.57995E-01 -1.34585E-01
    8987.004     -6.687  -0.200  1.28451E-01  2.71643E-01 -1.43192E-01
    8987.059     -6.632  -0.160  1.32787E-01  2.83117E-01 -1.50330E-01
    8987.102     -6.590  -0.120  1.36296E-01  2.92183E-01 -1.55887E-01
    8987.132     -6.559  -0.080  1.38884E-01  2.98711E-01 -1.59827E-01
    8987.157     -6.535   0.000  1.41033E-01  3.03955E-01 -1.62922E-01
    8987.212     -6.480   0.120  1.45875E-01  3.15763E-01 -1.69888E-01
    8987.254     -6.437   0.160  1.49698E-01  3.24942E-01 -1.75243E-01
    8987.309     -6.383   0.200  1.54708E-01  3.36639E-01 -1.81931E-01
    8987.376     -6.315   0.240  1.60988E-01  3.50704E-01 -1.89716E-01
    8987.455     -6.236   0.280  1.68612E-01  3.66820E-01 -1.98208E-01
    8987.547     -6.145   0.320  1.77668E-01  3.84560E-01 -2.06892E-01
    8987.651     -6.041   0.360  1.88177E-01  4.03372E-01 -2.15195E-01
    8987.766     -5.925   0.400  2.00244E-01  4.22733E-01 -2.22489E-01
    8987.894     -5.797   0.440  2.13812E-01  4.42091E-01 -2.28279E-01
    8988.035     -5.657   0.480  2.28759E-01  4.61050E-01 -2.32291E-01
    8988.187     -5.505   0.520  2.44778E-01  4.79360E-01 -2.34581E-01
    8988.352     -5.340   0.560  2.61267E-01  4.96886E-01 -2.35620E-01
    8988.528     -5.163   0.600  2.77500E-01  5.13642E-01 -2.36141E-01
    8988.717     -4.974   0.640  2.92960E-01  5.29644E-01 -2.36685E-01
    8988.918     -4.773   0.680  3.08050E-01  5.44993E-01 -2.36943E-01
    8989.132     -4.560   0.720  3.24298E-01  5.59798E-01 -2.35500E-01
    8989.357     -4.334   0.760  3.44049E-01  5.74172E-01 -2.30123E-01
    8989.595     -4.097   0.800  3.69239E-01  5.88174E-01 -2.18934E-01
    8989.845     -3.847   0.840  3.99967E-01  6.01895E-01 -2.01928E-01
    8990.107     -3.584   0.880  4.33698E-01  6.15410E-01 -1.81712E-01
    8990.382     -3.310   0.920  4.66656E-01  6.28763E-01 -1.62106E-01
    8990.668     -3.024   0.960  4.96027E-01  6.41985E-01 -1.45958E-01
    8990.967     -2.725   1.000  5.20707E-01  6.55099E-01 -1.34393E-01
    8991.278     -2.414   1.040  5.41337E-01  6.68135E-01 -1.26798E-01
    8991.601     -2.091   1.080  5.60272E-01  6.81118E-01 -1.20847E-01
    8991.936     -1.756   1.120  5.79592E-01  6.94007E-01 -1.14415E-01
    8992.283     -1.408   1.160  6.00248E-01  7.06854E-01 -1.06606E-01
    8992.643     -1.049   1.200  6.23561E-01  7.19607E-01 -9.60459E-02
    8993.015     -0.677   1.240  6.50214E-01  7.32270E-01 -8.20555E-02
    8993.399     -0.293   1.280  6.77843E-01  7.44825E-01 -6.69814E-02
    8993.795      0.104   1.320  7.02620E-01  7.57272E-01 -5.46530E-02
    8994.204      0.512   1.360  7.21041E-01  7.69588E-01 -4.85469E-02
    8994.624      0.933   1.400  7.31584E-01  7.81746E-01 -5.01626E-02
    8995.057      1.365   1.440  7.39603E-01  7.93723E-01 -5.41203E-02
    8995.502      1.810   1.480  7.56854E-01  8.05491E-01 -4.86374E-02
    8995.959      2.268   1.520  7.89811E-01  8.17043E-01 -2.72324E-02
    8996.429      2.737   1.560  8.34157E-01  8.28373E-01  5.78382E-03
    8996.910      3.219   1.600  8.82953E-01  8.39431E-01  4.35214E-02
    8997.404      3.712   1.640  9.33680E-01  8.50192E-01  8.34887E-02
    8997.910      4.218   1.680  9.88875E-01  8.60687E-01  1.28188E-01
    8998.428      4.737   1.720  1.05163E+00  8.70849E-01  1.80778E-01
    8998.959      5.267   1.760  1.11891E+00  8.80693E-01  2.38215E-01
    8999.501      5.809   1.800  1.17608E+00  8.90173E-01  2.85905E-01
    9000.056      6.364   1.840  1.21107E+00  8.99323E-01  3.11750E-01
    9000.623      6.931   1.880  1.23364E+00  9.08077E-01  3.25558E-01
    9001.202      7.510   1.920  1.25526E+00  9.16474E-01  3.38783E-01
    9001.793      8.102   1.960  1.26704E+00  9.24469E-01  3.42568E-01
    9002.397      8.705   2.000  1.25442E+00  9.32100E-01  3.22323E-01
    9003.012      9.321   2.040  1.22249E+00  9.39307E-01  2.83186E-01
    9003.640      9.949   2.080  1.18898E+00  9.46127E-01  2.42852E-01
    9004.280     10.589   2.120  1.15967E+00  9.52541E-01  2.07125E-01
    9004.933     11.241   2.160  1.12903E+00  9.58571E-01  1.70460E-01
    9005.597     11.905   2.200  1.09695E+00  9.64198E-01  1.32750E-01
    9006.274     12.582   2.240  1.06856E+00  9.69444E-01  9.91137E-02
    9006.963     13.271   2.280  1.04674E+00  9.74290E-01  7.24512E-02
    9007.664     13.972   2.320  1.03488E+00  9.78762E-01  5.61198E-02
    9008.377     14.685   2.360  1.03794E+00  9.82843E-01  5.50992E-02
    9009.102     15.411   2.400  1.05408E+00  9.86581E-01  6.74986E-02
    9009.840     16.148   2.440  1.07353E+00  9.89978E-01  8.35533E-02
    9010.590     16.898   2.480  1.09175E+00  9.93022E-01  9.87324E-02
    9011.352     17.660   2.520  1.10932E+00  9.95738E-01  1.13584E-01
    9012.126     18.434   2.560  1.12369E+00  9.98132E-01  1.25558E-01
    9012.912     19.221   2.600  1.12943E+00  1.00023E+00  1.29195E-01
    9013.711     20.019   2.640  1.12375E+00  1.00204E+00  1.21707E-01
    9014.522     20.830   2.680  1.10717E+00  1.00357E+00  1.03601E-01
    9015.345     21.653   2.720  1.08182E+00  1.00485E+00  7.69735E-02
    9016.180     22.488   2.760  1.05045E+00  1.00586E+00  4.45831E-02
    9017.027     23.335   2.800  1.01298E+00  1.00666E+00  6.32756E-03
    9017.887     24.195   2.840  9.66921E-01  1.00724E+00 -4.03160E-02
    9018.758     25.067   2.880  9.21797E-01  1.00762E+00 -8.58189E-02
    9019.642     25.951   2.920  8.87271E-01  1.00780E+00 -1.20526E-01
    9020.538     26.847   2.960  8.63113E-01  1.00779E+00 -1.44675E-01
    9021.447     27.755   3.000  8.48614E-01  1.00764E+00 -1.59023E-01
    9022.367     28.675   3.040  8.41692E-01  1.00735E+00 -1.65660E-01
    9023.300     29.608   3.080  8.40115E-01  1.00692E+00 -1.66803E-01
    9024.245     30.553   3.120  8.41982E-01  1.00636E+00 -1.64380E-01
    9025.202     31.510   3.160  8.45824E-01  1.00569E+00 -1.59867E-01
    9026.171     32.479   3.200  8.50351E-01  1.00495E+00 -1.54601E-01
    9027.152     33.461   3.240  8.55078E-01  1.00411E+00 -1.49030E-01
    9028.146     34.454   3.280  8.60314E-01  1.00319E+00 -1.42872E-01
    9029.152     35.460   3.320  8.66627E-01  1.00224E+00 -1.35609E-01
    9030.170     36.478   3.360  8.74556E-01  1.00120E+00 -1.26641E-01
    9031.200     37.508   3.400  8.84683E-01  1.00014E+00 -1.15456E-01
    9032.243     38.551   3.440  8.96910E-01  9.99065E-01 -1.02155E-01
    9033.297     39.606   3.480  9.10796E-01  9.97959E-01 -8.71625E-02
    9034.364     40.672   3.520  9.25929E-01  9.96824E-01 -7.08949E-02
    9035.443     41.751   3.560  9.41829E-01  9.95706E-01 -5.38767E-02
    9036.534     42.842   3.600  9.57844E-01  9.94568E-01 -3.67237E-02
    9037.638     43.946   3.640  9.73543E-01  9.93453E-01 -1.99101E-02
    9038.753     45.061   3.680  9.88507E-01  9.92345E-01 -3.83746E-03
    9039.881     46.189   3.720  1.00238E+00  9.91268E-01  1.11148E-02
    9041.021     47.329   3.760  1.01495E+00  9.90224E-01  2.47301E-02
    9042.173     48.481   3.800  1.02616E+00  9.89195E-01  3.69637E-02
    9043.337     49.646   3.840  1.03591E+00  9.88203E-01  4.77097E-02
    9044.514     50.822   3.880  1.04408E+00  9.87273E-01  5.68065E-02
    9045.702     52.011   3.920  1.05040E+00  9.86385E-01  6.40149E-02
    9046.903     53.212   3.960  1.05463E+00  9.85519E-01  6.91120E-02
    9048.116     54.425   4.000  1.05673E+00  9.84738E-01  7.19900E-02
    9049.342     55.650   4.040  1.05680E+00  9.83983E-01  7.28177E-02
    9050.579     56.888   4.080  1.05513E+00  9.83295E-01  7.18304E-02
    9051.829     58.137   4.120  1.05192E+00  9.82654E-01  6.92674E-02
    9053.091     59.399   4.160  1.04751E+00  9.82083E-01  6.54288E-02
    9054.365     60.673   4.200  1.04222E+00  9.81582E-01  6.06398E-02
    9055.651     61.959   4.240  1.03627E+00  9.81109E-01  5.51613E-02
    9056.950     63.258   4.280  1.02991E+00  9.80727E-01  4.91878E-02
    9058.260     64.569   4.320  1.02329E+00  9.80395E-01  4.28947E-02
    9059.583     65.891   4.360  1.01656E+00  9.80111E-01  3.64513E-02
    9060.918     67.226   4.400  1.01006E+00  9.79898E-01  3.01658E-02
    9062.265     68.574   4.440  1.00426E+00  9.79754E-01  2.45099E-02
    9063.625     69.933   4.480  9.99627E-01  9.79658E-01  1.99691E-02
    9064.996     71.305   4.520  9.96549E-01  9.79608E-01  1.69409E-02
    9066.380     72.688   4.560  9.95290E-01  9.79625E-01  1.56650E-02
    9067.776     74.084   4.600  9.95815E-01  9.79665E-01  1.61499E-02
    9069.184     75.493   4.640  9.97889E-01  9.79791E-01  1.80976E-02
    9070.605     76.913   4.680  1.00083E+00  9.79941E-01  2.08853E-02
    9072.037     78.345   4.720  1.00376E+00  9.80153E-01  2.36062E-02
    9073.482     79.790   4.760  1.00560E+00  9.80384E-01  2.52124E-02
    9074.939     81.247   4.800  1.00551E+00  9.80674E-01  2.48408E-02
    9076.408     82.716   4.840  1.00304E+00  9.80980E-01  2.20637E-02
    9077.889     84.198   4.880  9.98340E-01  9.81322E-01  1.70178E-02
    9079.383     85.691   4.920  9.92065E-01  9.81701E-01  1.03646E-02
    9080.888     87.197   4.960  9.85167E-01  9.82112E-01  3.05508E-03
    9082.406     88.715   5.000  9.78562E-01  9.82534E-01 -3.97233E-03
    9083.936     90.245   5.040  9.72876E-01  9.82986E-01 -1.01101E-02
    9085.479     91.787   5.080  9.68175E-01  9.83446E-01 -1.52705E-02
    9087.033     93.342   5.120  9.64128E-01  9.83931E-01 -1.98031E-02
    9088.600     94.908   5.160  9.60162E-01  9.84397E-01 -2.42352E-02
    9090.179     96.487   5.200  9.56008E-01  9.84887E-01 -2.88787E-02
    9091.770     98.078   5.240  9.51664E-01  9.85376E-01 -3.37116E-02
    9093.373     99.681   5.280  9.47358E-01  9.85841E-01 -3.84829E-02
    9094.988    101.297   5.320  9.43434E-01  9.86324E-01 -4.28903E-02
    9096.616    102.924   5.360  9.40146E-01  9.86782E-01 -4.66357E-02
    9098.256    104.564   5.400  9.37840E-01  9.87233E-01 -4.93934E-02
    9099.908    106.216   5.440  9.36820E-01  9.87676E-01 -5.08560E-02
    9101.572    107.880   5.480  9.37270E-01  9.88088E-01 -5.08173E-02
    9103.248    109.557   5.520  9.39250E-01  9.88465E-01 -4.92156E-02
    9104.937    111.245   5.560  9.42700E-01  9.88831E-01 -4.61303E-02
    9106.638    112.946   5.600  9.47405E-01  9.89160E-01 -4.17551E-02
    9108.351    114.659   5.640  9.53047E-01  9.89454E-01 -3.64068E-02
    9110.076    116.384   5.680  9.59252E-01  9.89733E-01 -3.04811E-02
    9111.813    118.122   5.720  9.65581E-01  9.89951E-01 -2.43700E-02
    9113.563    119.871   5.760  9.71808E-01  9.90152E-01 -1.83438E-02
    9115.325    121.633   5.800  9.77796E-01  9.90290E-01 -1.24940E-02
    9117.099    123.407   5.840  9.83638E-01  9.90410E-01 -6.77208E-03
    9118.885    125.193   5.880  9.89384E-01  9.90467E-01 -1.08366E-03
    9120.683    126.991   5.920  9.95104E-01  9.90506E-01  4.59803E-03
    9122.493    128.802   5.960  1.00062E+00  9.90473E-01  1.01436E-02
    9124.316    130.624   6.000  1.00566E+00  9.90370E-01  1.52924E-02
