# # comment:                                                     FEFF 9.9.1  
# # Source:
# # Structure
# # Reduced
# # space
# # abc:
# # angles:
# # sites:
# # POT  SCF 100  7.0000   0, screened core-hole, AFOLP (folp(0)= 1.150)
# # Abs   Z=29 Rmt= 1.234 Rnm= 1.328 K  shell
# # Pot 1 Z=62 Rmt= 1.643 Rnm= 1.736
# # Pot 2 Z=29 Rmt= 1.235 Rnm= 1.328
# # Pot 3 Z= 8 Rmt= 1.065 Rnm= 1.124
# # Gam_ch=1.729E+00 H-L exch Vi= 0.000E+00 Vr= 0.000E+00
# # Mu=-7.668E+00eV kf=2.064E+00 Vint=-1.620E+01eV Rs_int= 1.757
# FMS rfms= 9.0000
# # PATH  Rmax=-1.000,  Keep_limit= 0.00, Heap_limit 0.00  Pwcrit= 2.50%
#  S02=0.950  Temp=   0.00  Debye_temp=   0.00  Global_sig2= 0.00000
#  Energy zero shift, vr, vi    0.00000E+00   0.00000E+00
#  Curved wave amplitude ratio filter   4.000%
#     file         sig2 tot  cw amp ratio   deg  nlegs   reff  inp sig2
#     0/   0 paths used
#  xsedge+ 50, used to normalize mu           2.4478E-04
#  -----------------------------------------------------------------------
#  omega    e    k    mu    mu0     chi     @#
    8984.120    -11.478  -1.000  4.28311E-02  5.59819E-02 -1.31507E-02
    8984.418    -11.179  -0.960  4.54334E-02  6.00852E-02 -1.46518E-02
    8984.705    -10.893  -0.920  4.82860E-02  6.46464E-02 -1.63604E-02
    8984.979    -10.618  -0.880  5.14232E-02  6.97330E-02 -1.83097E-02
    8985.241    -10.356  -0.840  5.48843E-02  7.54233E-02 -2.05390E-02
    8985.491    -10.106  -0.800  5.87144E-02  8.18084E-02 -2.30940E-02
    8985.729     -9.868  -0.760  6.29645E-02  8.89924E-02 -2.60279E-02
    8985.954     -9.643  -0.720  6.76915E-02  9.70932E-02 -2.94016E-02
    8986.168     -9.430  -0.680  7.29572E-02  1.06240E-01 -3.32833E-02
    8986.369     -9.228  -0.640  7.88256E-02  1.16571E-01 -3.77454E-02
    8986.558     -9.039  -0.600  8.53594E-02  1.28219E-01 -4.28601E-02
    8986.735     -8.863  -0.560  9.26120E-02  1.41300E-01 -4.86884E-02
    8986.899     -8.698  -0.520  1.00618E-01  1.55882E-01 -5.52642E-02
    8987.052     -8.546  -0.480  1.09377E-01  1.71949E-01 -6.25721E-02
    8987.192     -8.405  -0.440  1.18839E-01  1.89360E-01 -7.05216E-02
    8987.320     -8.277  -0.400  1.28886E-01  2.07813E-01 -7.89272E-02
    8987.436     -8.162  -0.360  1.39324E-01  2.26832E-01 -8.75075E-02
    8987.539     -8.058  -0.320  1.49883E-01  2.45797E-01 -9.59138E-02
    8987.631     -7.967  -0.280  1.60236E-01  2.64022E-01 -1.03786E-01
    8987.710     -7.887  -0.240  1.70029E-01  2.80846E-01 -1.10817E-01
    8987.777     -7.820  -0.200  1.78917E-01  2.95716E-01 -1.16798E-01
    8987.832     -7.765  -0.160  1.86597E-01  3.08225E-01 -1.21628E-01
    8987.875     -7.723  -0.120  1.92825E-01  3.18114E-01 -1.25288E-01
    8987.905     -7.692  -0.080  1.97426E-01  3.25238E-01 -1.27812E-01
    8987.930     -7.668   0.000  2.01265E-01  3.30962E-01 -1.29697E-01
    8987.984     -7.613   0.120  2.09605E-01  3.43869E-01 -1.34264E-01
    8988.027     -7.570   0.160  2.16208E-01  3.53910E-01 -1.37703E-01
    8988.082     -7.515   0.200  2.24772E-01  3.66713E-01 -1.41941E-01
    8988.149     -7.448   0.240  2.35360E-01  3.82146E-01 -1.46785E-01
    8988.228     -7.369   0.280  2.47813E-01  3.99843E-01 -1.52030E-01
    8988.320     -7.278   0.320  2.61898E-01  4.19400E-01 -1.57501E-01
    8988.423     -7.174   0.360  2.77044E-01  4.40220E-01 -1.63175E-01
    8988.539     -7.058   0.400  2.92493E-01  4.61732E-01 -1.69239E-01
    8988.667     -6.930   0.440  3.07338E-01  4.83376E-01 -1.76039E-01
    8988.807     -6.790   0.480  3.20822E-01  5.04714E-01 -1.83892E-01
    8988.960     -6.638   0.520  3.32548E-01  5.25477E-01 -1.92928E-01
    8989.124     -6.473   0.560  3.42483E-01  5.45500E-01 -2.03017E-01
    8989.301     -6.296   0.600  3.50611E-01  5.64791E-01 -2.14180E-01
    8989.490     -6.107   0.640  3.56554E-01  5.83387E-01 -2.26832E-01
    8989.691     -5.906   0.680  3.59601E-01  6.01339E-01 -2.41738E-01
    8989.905     -5.693   0.720  3.59396E-01  6.18738E-01 -2.59342E-01
    8990.130     -5.467   0.760  3.56696E-01  6.35711E-01 -2.79015E-01
    8990.368     -5.229   0.800  3.53464E-01  6.52272E-01 -2.98807E-01
    8990.618     -4.979   0.840  3.52458E-01  6.68547E-01 -3.16089E-01
    8990.880     -4.717   0.880  3.55819E-01  6.84543E-01 -3.28724E-01
    8991.154     -4.443   0.920  3.64480E-01  7.00275E-01 -3.35795E-01
    8991.441     -4.157   0.960  3.78620E-01  7.15806E-01 -3.37186E-01
    8991.740     -3.858   1.000  3.98166E-01  7.31126E-01 -3.32960E-01
    8992.050     -3.547   1.040  4.22761E-01  7.46220E-01 -3.23458E-01
    8992.374     -3.224   1.080  4.51493E-01  7.61079E-01 -3.09586E-01
    8992.709     -2.889   1.120  4.82693E-01  7.75693E-01 -2.93000E-01
    8993.056     -2.541   1.160  5.13725E-01  7.90046E-01 -2.76322E-01
    8993.416     -2.181   1.200  5.41607E-01  8.04097E-01 -2.62490E-01
    8993.788     -1.810   1.240  5.65594E-01  8.17844E-01 -2.52250E-01
    8994.172     -1.426   1.280  5.88502E-01  8.31240E-01 -2.42738E-01
    8994.568     -1.029   1.320  6.15074E-01  8.44278E-01 -2.29204E-01
    8994.976     -0.621   1.360  6.47616E-01  8.56913E-01 -2.09296E-01
    8995.397     -0.200   1.400  6.83756E-01  8.69116E-01 -1.85359E-01
    8995.830      0.233   1.440  7.23928E-01  8.80880E-01 -1.56952E-01
    8996.275      0.678   1.480  7.70731E-01  8.92198E-01 -1.21468E-01
    8996.732      1.135   1.520  8.18534E-01  9.03003E-01 -8.44698E-02
    8997.202      1.604   1.560  8.61641E-01  9.13310E-01 -5.16684E-02
    8997.683      2.086   1.600  9.09140E-01  9.23115E-01 -1.39746E-02
    8998.177      2.580   1.640  9.78241E-01  9.32374E-01  4.58672E-02
    8998.683      3.085   1.680  1.07504E+00  9.41129E-01  1.33909E-01
    8999.201      3.604   1.720  1.18490E+00  9.49339E-01  2.35560E-01
    8999.731      4.134   1.760  1.27888E+00  9.57002E-01  3.21882E-01
    9000.274      4.677   1.800  1.33415E+00  9.64143E-01  3.70010E-01
    9000.829      5.231   1.840  1.35401E+00  9.70766E-01  3.83243E-01
    9001.396      5.798   1.880  1.36256E+00  9.76877E-01  3.85681E-01
    9001.975      6.377   1.920  1.37583E+00  9.82460E-01  3.93371E-01
    9002.566      6.969   1.960  1.38234E+00  9.87563E-01  3.94773E-01
    9003.169      7.572   2.000  1.36180E+00  9.92173E-01  3.69623E-01
    9003.785      8.188   2.040  1.31951E+00  9.96321E-01  3.23190E-01
    9004.413      8.816   2.080  1.27339E+00  1.00004E+00  2.73357E-01
    9005.053      9.456   2.120  1.23531E+00  1.00331E+00  2.32000E-01
    9005.705     10.108   2.160  1.21602E+00  1.00618E+00  2.09840E-01
    9006.370     10.773   2.200  1.21677E+00  1.00866E+00  2.08109E-01
    9007.047     11.449   2.240  1.22191E+00  1.01079E+00  2.11128E-01
    9007.735     12.138   2.280  1.21221E+00  1.01255E+00  1.99661E-01
    9008.436     12.839   2.320  1.18083E+00  1.01401E+00  1.66817E-01
    9009.150     13.552   2.360  1.13668E+00  1.01515E+00  1.21528E-01
    9009.875     14.278   2.400  1.09381E+00  1.01602E+00  7.77903E-02
    9010.613     15.015   2.440  1.06099E+00  1.01665E+00  4.43481E-02
    9011.362     15.765   2.480  1.04203E+00  1.01700E+00  2.50317E-02
    9012.124     16.527   2.520  1.03349E+00  1.01716E+00  1.63316E-02
    9012.899     17.301   2.560  1.02756E+00  1.01712E+00  1.04351E-02
    9013.685     18.088   2.600  1.02028E+00  1.01691E+00  3.37308E-03
    9014.484     18.886   2.640  1.01039E+00  1.01651E+00 -6.12244E-03
    9015.294     19.697   2.680  9.97968E-01  1.01600E+00 -1.80344E-02
    9016.117     20.520   2.720  9.83638E-01  1.01537E+00 -3.17292E-02
    9016.952     21.355   2.760  9.68183E-01  1.01462E+00 -4.64326E-02
    9017.800     22.202   2.800  9.52217E-01  1.01377E+00 -6.15581E-02
    9018.659     23.062   2.840  9.36536E-01  1.01285E+00 -7.63166E-02
    9019.531     23.934   2.880  9.21729E-01  1.01185E+00 -9.01254E-02
    9020.415     24.818   2.920  9.08241E-01  1.01083E+00 -1.02590E-01
    9021.311     25.714   2.960  8.96475E-01  1.00975E+00 -1.13271E-01
    9022.219     26.622   3.000  8.86387E-01  1.00865E+00 -1.22261E-01
    9023.140     27.543   3.040  8.77673E-01  1.00754E+00 -1.29868E-01
    9024.073     28.475   3.080  8.70363E-01  1.00643E+00 -1.36066E-01
    9025.017     29.420   3.120  8.64688E-01  1.00530E+00 -1.40611E-01
    9025.975     30.377   3.160  8.61079E-01  1.00421E+00 -1.43135E-01
    9026.944     31.346   3.200  8.60066E-01  1.00312E+00 -1.43050E-01
    9027.925     32.328   3.240  8.62232E-01  1.00207E+00 -1.39841E-01
    9028.919     33.322   3.280  8.67445E-01  1.00104E+00 -1.33600E-01
    9029.925     34.327   3.320  8.75318E-01  1.00006E+00 -1.24738E-01
    9030.943     35.345   3.360  8.85280E-01  9.99130E-01 -1.13850E-01
    9031.973     36.376   3.400  8.96632E-01  9.98227E-01 -1.01595E-01
    9033.015     37.418   3.440  9.08918E-01  9.97390E-01 -8.84723E-02
    9034.070     38.473   3.480  9.22032E-01  9.96623E-01 -7.45903E-02
    9035.137     39.539   3.520  9.35901E-01  9.95905E-01 -6.00042E-02
    9036.216     40.618   3.560  9.50302E-01  9.95236E-01 -4.49337E-02
    9037.307     41.710   3.600  9.65020E-01  9.94640E-01 -2.96192E-02
    9038.410     42.813   3.640  9.79732E-01  9.94118E-01 -1.43854E-02
    9039.526     43.929   3.680  9.93969E-01  9.93669E-01  3.00144E-04
    9040.654     45.056   3.720  1.00721E+00  9.93272E-01  1.39366E-02
    9041.794     46.196   3.760  1.01910E+00  9.92929E-01  2.61738E-02
    9042.946     47.348   3.800  1.02943E+00  9.92680E-01  3.67449E-02
    9044.110     48.513   3.840  1.03798E+00  9.92485E-01  4.54941E-02
    9045.287     49.689   3.880  1.04476E+00  9.92363E-01  5.23996E-02
    9046.475     50.878   3.920  1.04971E+00  9.92294E-01  5.74158E-02
    9047.676     52.079   3.960  1.05280E+00  9.92319E-01  6.04793E-02
    9048.889     53.292   4.000  1.05409E+00  9.92373E-01  6.17179E-02
    9050.115     54.517   4.040  1.05396E+00  9.92497E-01  6.14623E-02
    9051.352     55.755   4.080  1.05293E+00  9.92692E-01  6.02420E-02
    9052.602     57.004   4.120  1.05160E+00  9.92934E-01  5.86623E-02
    9053.864     58.266   4.160  1.05058E+00  9.93223E-01  5.73582E-02
    9055.138     59.540   4.200  1.05027E+00  9.93577E-01  5.66956E-02
    9056.424     60.827   4.240  1.05075E+00  9.93974E-01  5.67778E-02
    9057.722     62.125   4.280  1.05189E+00  9.94390E-01  5.74985E-02
    9059.033     63.436   4.320  1.05343E+00  9.94867E-01  5.85584E-02
    9060.356     64.758   4.360  1.05485E+00  9.95386E-01  5.94658E-02
    9061.691     66.093   4.400  1.05560E+00  9.95942E-01  5.96544E-02
    9063.038     67.441   4.440  1.05526E+00  9.96509E-01  5.87549E-02
    9064.397     68.800   4.480  1.05375E+00  9.97109E-01  5.66387E-02
    9065.769     70.172   4.520  1.05117E+00  9.97742E-01  5.34265E-02
    9067.153     71.555   4.560  1.04771E+00  9.98381E-01  4.93299E-02
    9068.549     72.951   4.600  1.04353E+00  9.99026E-01  4.44996E-02
    9069.957     74.360   4.640  1.03869E+00  9.99695E-01  3.89979E-02
    9071.377     75.780   4.680  1.03322E+00  1.00035E+00  3.28764E-02
    9072.810     77.213   4.720  1.02722E+00  1.00102E+00  2.62014E-02
    9074.255     78.657   4.760  1.02078E+00  1.00169E+00  1.90898E-02
    9075.712     80.114   4.800  1.01405E+00  1.00236E+00  1.16923E-02
    9077.181     81.583   4.840  1.00715E+00  1.00300E+00  4.14517E-03
    9078.662     83.065   4.880  1.00020E+00  1.00363E+00 -3.42968E-03
    9080.156     84.558   4.920  9.93316E-01  1.00426E+00 -1.09448E-02
    9081.661     86.064   4.960  9.86534E-01  1.00486E+00 -1.83219E-02
    9083.179     87.582   5.000  9.80066E-01  1.00544E+00 -2.53745E-02
    9084.709     89.112   5.040  9.74201E-01  1.00599E+00 -3.17879E-02
    9086.252     90.654   5.080  9.69285E-01  1.00650E+00 -3.72164E-02
    9087.806     92.209   5.120  9.65571E-01  1.00700E+00 -4.14297E-02
    9089.373     93.775   5.160  9.63045E-01  1.00746E+00 -4.44166E-02
    9090.952     95.354   5.200  9.61584E-01  1.00788E+00 -4.62952E-02
    9092.543     96.945   5.240  9.60997E-01  1.00823E+00 -4.72368E-02
    9094.146     98.548   5.280  9.61257E-01  1.00857E+00 -4.73129E-02
    9095.761    100.164   5.320  9.62371E-01  1.00887E+00 -4.64941E-02
    9097.389    101.792   5.360  9.64418E-01  1.00912E+00 -4.46992E-02
    9099.029    103.431   5.400  9.67331E-01  1.00930E+00 -4.19723E-02
    9100.681    105.083   5.440  9.70934E-01  1.00947E+00 -3.85339E-02
    9102.345    106.748   5.480  9.74829E-01  1.00957E+00 -3.47362E-02
    9104.021    108.424   5.520  9.78642E-01  1.00962E+00 -3.09764E-02
    9105.710    110.113   5.560  9.81927E-01  1.00963E+00 -2.77014E-02
    9107.411    111.813   5.600  9.84292E-01  1.00959E+00 -2.53025E-02
    9109.124    113.526   5.640  9.85574E-01  1.00952E+00 -2.39426E-02
    9110.849    115.251   5.680  9.85967E-01  1.00937E+00 -2.34026E-02
    9112.586    116.989   5.720  9.86050E-01  1.00918E+00 -2.31292E-02
    9114.336    118.738   5.760  9.86521E-01  1.00895E+00 -2.24258E-02
    9116.097    120.500   5.800  9.87917E-01  1.00867E+00 -2.07575E-02
    9117.871    122.274   5.840  9.90416E-01  1.00836E+00 -1.79460E-02
    9119.657    124.060   5.880  9.93864E-01  1.00801E+00 -1.41481E-02
    9121.456    125.858   5.920  9.97969E-01  1.00763E+00 -9.65742E-03
    9123.266    127.669   5.960  1.00245E+00  1.00720E+00 -4.75142E-03
    9125.089    129.492   6.000  1.00718E+00  1.00671E+00  4.67616E-04
