# # comment:                                                     FEFF 9.9.1  
# # Source:
# # Structure
# # Reduced
# # space
# # abc:
# # angles:
# # sites:
# # POT  SCF 100  7.0000   0, screened core-hole, AFOLP (folp(0)= 1.150)
# # Abs   Z=29 Rmt= 1.280 Rnm= 1.351 K  shell
# # Pot 1 Z=12 Rmt= 1.325 Rnm= 1.457
# # Pot 2 Z=29 Rmt= 1.280 Rnm= 1.351
# # Pot 3 Z=32 Rmt= 1.118 Rnm= 1.312
# # Pot 4 Z= 8 Rmt= 0.972 Rnm= 1.085
# # Gam_ch=1.729E+00 H-L exch Vi= 0.000E+00 Vr= 0.000E+00
# # Mu=-7.117E+00eV kf=2.228E+00 Vint=-1.703E+01eV Rs_int= 1.628
# FMS rfms= 9.0000
# # PATH  Rmax=-1.000,  Keep_limit= 0.00, Heap_limit 0.00  Pwcrit= 2.50%
#  S02=0.950  Temp=   0.00  Debye_temp=   0.00  Global_sig2= 0.00000
#  Energy zero shift, vr, vi    0.00000E+00   0.00000E+00
#  Curved wave amplitude ratio filter   4.000%
#     file         sig2 tot  cw amp ratio   deg  nlegs   reff  inp sig2
#     0/   0 paths used
#  xsedge+ 50, used to normalize mu           2.4694E-04
#  -----------------------------------------------------------------------
#  omega    e    k    mu    mu0     chi     @#
    8983.894    -10.927  -1.000  4.23803E-02  5.48629E-02 -1.24826E-02
    8984.192    -10.628  -0.960  4.46647E-02  5.88963E-02 -1.42316E-02
    8984.479    -10.342  -0.920  4.71147E-02  6.33834E-02 -1.62687E-02
    8984.753    -10.067  -0.880  4.97456E-02  6.83915E-02 -1.86459E-02
    8985.015     -9.805  -0.840  5.25742E-02  7.39990E-02 -2.14248E-02
    8985.265     -9.555  -0.800  5.56187E-02  8.02970E-02 -2.46783E-02
    8985.503     -9.318  -0.760  5.88987E-02  8.73898E-02 -2.84911E-02
    8985.729     -9.092  -0.720  6.24347E-02  9.53956E-02 -3.29609E-02
    8985.942     -8.879  -0.680  6.62477E-02  1.04445E-01 -3.81970E-02
    8986.143     -8.677  -0.640  7.03576E-02  1.14674E-01 -4.43169E-02
    8986.332     -8.488  -0.600  7.47812E-02  1.26220E-01 -5.14391E-02
    8986.509     -8.312  -0.560  7.95288E-02  1.39198E-01 -5.96691E-02
    8986.673     -8.147  -0.520  8.45994E-02  1.53676E-01 -6.90769E-02
    8986.826     -7.995  -0.480  8.99742E-02  1.69641E-01 -7.96670E-02
    8986.966     -7.854  -0.440  9.56099E-02  1.86952E-01 -9.13423E-02
    8987.094     -7.726  -0.400  1.01432E-01  2.05306E-01 -1.03874E-01
    8987.210     -7.611  -0.360  1.07332E-01  2.24227E-01 -1.16895E-01
    8987.314     -7.507  -0.320  1.13172E-01  2.43094E-01 -1.29922E-01
    8987.405     -7.416  -0.280  1.18795E-01  2.61223E-01 -1.42427E-01
    8987.484     -7.336  -0.240  1.24040E-01  2.77952E-01 -1.53912E-01
    8987.551     -7.269  -0.200  1.28752E-01  2.92730E-01 -1.63978E-01
    8987.606     -7.214  -0.160  1.32799E-01  3.05156E-01 -1.72357E-01
    8987.649     -7.172  -0.120  1.36071E-01  3.14974E-01 -1.78903E-01
    8987.679     -7.141  -0.080  1.38484E-01  3.22045E-01 -1.83561E-01
    8987.704     -7.117   0.000  1.40489E-01  3.27724E-01 -1.87235E-01
    8987.759     -7.062   0.120  1.45027E-01  3.40532E-01 -1.95505E-01
    8987.801     -7.019   0.160  1.48585E-01  3.50470E-01 -2.01886E-01
    8987.856     -6.964   0.200  1.53243E-01  3.63147E-01 -2.09904E-01
    8987.923     -6.897   0.240  1.59110E-01  3.78379E-01 -2.19269E-01
    8988.002     -6.818   0.280  1.66279E-01  3.95869E-01 -2.29590E-01
    8988.094     -6.727   0.320  1.74839E-01  4.15094E-01 -2.40256E-01
    8988.197     -6.623   0.360  1.84981E-01  4.35527E-01 -2.50546E-01
    8988.313     -6.507   0.400  1.96870E-01  4.56538E-01 -2.59667E-01
    8988.441     -6.379   0.440  2.10737E-01  4.77574E-01 -2.66838E-01
    8988.582     -6.239   0.480  2.26808E-01  4.98169E-01 -2.71360E-01
    8988.734     -6.087   0.520  2.45312E-01  5.18091E-01 -2.72779E-01
    8988.898     -5.922   0.560  2.66220E-01  5.37155E-01 -2.70935E-01
    8989.075     -5.745   0.600  2.89148E-01  5.55369E-01 -2.66221E-01
    8989.264     -5.556   0.640  3.13064E-01  5.72775E-01 -2.59712E-01
    8989.465     -5.355   0.680  3.36410E-01  5.89475E-01 -2.53065E-01
    8989.679     -5.142   0.720  3.57627E-01  6.05543E-01 -2.47917E-01
    8989.904     -4.916   0.760  3.75952E-01  6.21096E-01 -2.45144E-01
    8990.142     -4.678   0.800  3.91600E-01  6.36240E-01 -2.44640E-01
    8990.392     -4.429   0.840  4.05550E-01  6.51004E-01 -2.45454E-01
    8990.654     -4.166   0.880  4.19849E-01  6.65488E-01 -2.45639E-01
    8990.928     -3.892   0.920  4.37373E-01  6.79738E-01 -2.42365E-01
    8991.215     -3.606   0.960  4.61375E-01  6.93782E-01 -2.32407E-01
    8991.514     -3.307   1.000  4.94598E-01  7.07620E-01 -2.13022E-01
    8991.825     -2.996   1.040  5.38341E-01  7.21284E-01 -1.82943E-01
    8992.148     -2.673   1.080  5.92020E-01  7.34777E-01 -1.42756E-01
    8992.483     -2.338   1.120  6.53695E-01  7.48094E-01 -9.43996E-02
    8992.830     -1.990   1.160  7.20912E-01  7.61227E-01 -4.03147E-02
    8993.190     -1.631   1.200  7.89796E-01  7.74160E-01  1.56358E-02
    8993.562     -1.259   1.240  8.53862E-01  7.86898E-01  6.69636E-02
    8993.946     -0.875   1.280  9.03205E-01  7.99381E-01  1.03825E-01
    8994.342     -0.478   1.320  9.25634E-01  8.11624E-01  1.14010E-01
    8994.751     -0.070   1.360  9.16969E-01  8.23607E-01  9.33614E-02
    8995.171      0.351   1.400  8.92473E-01  8.35285E-01  5.71879E-02
    8995.604      0.783   1.440  8.75541E-01  8.46670E-01  2.88710E-02
    8996.049      1.229   1.480  8.75959E-01  8.57717E-01  1.82418E-02
    8996.506      1.686   1.520  8.94174E-01  8.68401E-01  2.57732E-02
    8996.976      2.155   1.560  9.35530E-01  8.78737E-01  5.67931E-02
    8997.457      2.637   1.600  1.00697E+00  8.88679E-01  1.18296E-01
    8997.951      3.130   1.640  1.10887E+00  8.98243E-01  2.10626E-01
    8998.457      3.636   1.680  1.23583E+00  9.07387E-01  3.28439E-01
    8998.975      4.155   1.720  1.36761E+00  9.16124E-01  4.51487E-01
    8999.505      4.685   1.760  1.46114E+00  9.24456E-01  5.36681E-01
    9000.048      5.227   1.800  1.47859E+00  9.32339E-01  5.46251E-01
    9000.603      5.782   1.840  1.43907E+00  9.39794E-01  4.99275E-01
    9001.170      6.349   1.880  1.39738E+00  9.46820E-01  4.50561E-01
    9001.749      6.928   1.920  1.36417E+00  9.53420E-01  4.10748E-01
    9002.340      7.520   1.960  1.30890E+00  9.59597E-01  3.49304E-01
    9002.944      8.123   2.000  1.23055E+00  9.65352E-01  2.65197E-01
    9003.559      8.739   2.040  1.15431E+00  9.70689E-01  1.83618E-01
    9004.187      9.367   2.080  1.08952E+00  9.75613E-01  1.13909E-01
    9004.827     10.007   2.120  1.03758E+00  9.80129E-01  5.74510E-02
    9005.480     10.659   2.160  1.00172E+00  9.84263E-01  1.74592E-02
    9006.144     11.323   2.200  9.80883E-01  9.88021E-01 -7.13885E-03
    9006.821     12.000   2.240  9.67472E-01  9.91412E-01 -2.39401E-02
    9007.510     12.689   2.280  9.56876E-01  9.94462E-01 -3.75863E-02
    9008.211     13.390   2.320  9.53814E-01  9.97180E-01 -4.33657E-02
    9008.924     14.103   2.360  9.63533E-01  9.99573E-01 -3.60391E-02
    9009.649     14.829   2.400  9.80663E-01  1.00167E+00 -2.10051E-02
    9010.387     15.566   2.440  9.94243E-01  1.00347E+00 -9.23106E-03
    9011.137     16.316   2.480  1.00162E+00  1.00500E+00 -3.38156E-03
    9011.899     17.078   2.520  1.00348E+00  1.00627E+00 -2.79092E-03
    9012.673     17.852   2.560  9.95933E-01  1.00730E+00 -1.13670E-02
    9013.459     18.639   2.600  9.77651E-01  1.00811E+00 -3.04628E-02
    9014.258     19.437   2.640  9.52403E-01  1.00872E+00 -5.63164E-02
    9015.069     20.248   2.680  9.27687E-01  1.00913E+00 -8.14380E-02
    9015.891     21.071   2.720  9.09704E-01  1.00936E+00 -9.96567E-02
    9016.727     21.906   2.760  8.99652E-01  1.00943E+00 -1.09781E-01
    9017.574     22.753   2.800  8.95257E-01  1.00937E+00 -1.14110E-01
    9018.433     23.613   2.840  8.94299E-01  1.00915E+00 -1.14854E-01
    9019.305     24.485   2.880  8.95600E-01  1.00884E+00 -1.13238E-01
    9020.189     25.369   2.920  8.98772E-01  1.00839E+00 -1.09613E-01
    9021.085     26.265   2.960  9.03894E-01  1.00786E+00 -1.03971E-01
    9021.994     27.173   3.000  9.10533E-01  1.00726E+00 -9.67298E-02
    9022.914     28.093   3.040  9.17960E-01  1.00658E+00 -8.86229E-02
    9023.847     29.026   3.080  9.25805E-01  1.00585E+00 -8.00454E-02
    9024.792     29.971   3.120  9.33875E-01  1.00505E+00 -7.11776E-02
    9025.749     30.928   3.160  9.41993E-01  1.00423E+00 -6.22417E-02
    9026.718     31.897   3.200  9.50046E-01  1.00338E+00 -5.33345E-02
    9027.699     32.879   3.240  9.57962E-01  1.00249E+00 -4.45307E-02
    9028.693     33.872   3.280  9.65578E-01  1.00162E+00 -3.60423E-02
    9029.699     34.878   3.320  9.72786E-01  1.00072E+00 -2.79356E-02
    9030.717     35.896   3.360  9.79727E-01  9.99824E-01 -2.00963E-02
    9031.747     36.927   3.400  9.86675E-01  9.98949E-01 -1.22741E-02
    9032.790     37.969   3.440  9.93882E-01  9.98079E-01 -4.19698E-03
    9033.844     39.024   3.480  1.00144E+00  9.97218E-01  4.22066E-03
    9034.911     40.090   3.520  1.00909E+00  9.96387E-01  1.26987E-02
    9035.990     41.169   3.560  1.01617E+00  9.95592E-01  2.05788E-02
    9037.081     42.261   3.600  1.02196E+00  9.94833E-01  2.71261E-02
    9038.184     43.364   3.640  1.02592E+00  9.94089E-01  3.18265E-02
    9039.300     44.479   3.680  1.02790E+00  9.93406E-01  3.44971E-02
    9040.428     45.607   3.720  1.02807E+00  9.92764E-01  3.53026E-02
    9041.568     46.747   3.760  1.02665E+00  9.92141E-01  3.45124E-02
    9042.720     47.899   3.800  1.02391E+00  9.91604E-01  3.23044E-02
    9043.884     49.064   3.840  1.01991E+00  9.91088E-01  2.88238E-02
    9045.061     50.240   3.880  1.01511E+00  9.90616E-01  2.44924E-02
    9046.249     51.429   3.920  1.01033E+00  9.90208E-01  2.01262E-02
    9047.450     52.630   3.960  1.00651E+00  9.89846E-01  1.66689E-02
    9048.663     53.843   4.000  1.00432E+00  9.89529E-01  1.47930E-02
    9049.889     55.068   4.040  1.00389E+00  9.89278E-01  1.46118E-02
    9051.126     56.306   4.080  1.00486E+00  9.89072E-01  1.57845E-02
    9052.376     57.555   4.120  1.00675E+00  9.88910E-01  1.78376E-02
    9053.638     58.817   4.160  1.00922E+00  9.88813E-01  2.04106E-02
    9054.912     60.091   4.200  1.01200E+00  9.88738E-01  2.32576E-02
    9056.198     61.377   4.240  1.01484E+00  9.88727E-01  2.61152E-02
    9057.496     62.676   4.280  1.01737E+00  9.88758E-01  2.86097E-02
    9058.807     63.987   4.320  1.01912E+00  9.88830E-01  3.02924E-02
    9060.130     65.309   4.360  1.01975E+00  9.88942E-01  3.08088E-02
    9061.465     66.644   4.400  1.01917E+00  9.89092E-01  3.00795E-02
    9062.812     67.992   4.440  1.01761E+00  9.89280E-01  2.83332E-02
    9064.172     69.351   4.480  1.01545E+00  9.89506E-01  2.59454E-02
    9065.543     70.723   4.520  1.01298E+00  9.89746E-01  2.32303E-02
    9066.927     72.106   4.560  1.01029E+00  9.90042E-01  2.02511E-02
    9068.323     73.502   4.600  1.00723E+00  9.90349E-01  1.68819E-02
    9069.731     74.911   4.640  1.00374E+00  9.90666E-01  1.30738E-02
    9071.151     76.331   4.680  1.00004E+00  9.91015E-01  9.02106E-03
    9072.584     77.763   4.720  9.96499E-01  9.91393E-01  5.10544E-03
    9074.029     79.208   4.760  9.93470E-01  9.91778E-01  1.69156E-03
    9075.486     80.665   4.800  9.91080E-01  9.92169E-01 -1.08930E-03
    9076.955     82.134   4.840  9.89167E-01  9.92586E-01 -3.41920E-03
    9078.436     83.616   4.880  9.87339E-01  9.93005E-01 -5.66585E-03
    9079.930     85.109   4.920  9.85268E-01  9.93424E-01 -8.15625E-03
    9081.435     86.615   4.960  9.82847E-01  9.93819E-01 -1.09718E-02
    9082.953     88.133   5.000  9.80299E-01  9.94234E-01 -1.39348E-02
    9084.483     89.663   5.040  9.77898E-01  9.94646E-01 -1.67489E-02
    9086.026     91.205   5.080  9.75866E-01  9.95033E-01 -1.91672E-02
    9087.580     92.760   5.120  9.74304E-01  9.95414E-01 -2.11097E-02
    9089.147     94.326   5.160  9.73146E-01  9.95789E-01 -2.26430E-02
    9090.726     95.905   5.200  9.72351E-01  9.96154E-01 -2.38035E-02
    9092.317     97.496   5.240  9.72008E-01  9.96467E-01 -2.44599E-02
    9093.920     99.099   5.280  9.72430E-01  9.96792E-01 -2.43619E-02
    9095.535    100.715   5.320  9.73692E-01  9.97084E-01 -2.33918E-02
    9097.163    102.342   5.360  9.75677E-01  9.97340E-01 -2.16628E-02
    9098.803    103.982   5.400  9.78143E-01  9.97559E-01 -1.94160E-02
    9100.455    105.634   5.440  9.80907E-01  9.97767E-01 -1.68597E-02
    9102.119    107.298   5.480  9.83765E-01  9.97941E-01 -1.41754E-02
    9103.795    108.975   5.520  9.86529E-01  9.98100E-01 -1.15702E-02
    9105.484    110.663   5.560  9.88942E-01  9.98199E-01 -9.25691E-03
    9107.185    112.364   5.600  9.90948E-01  9.98279E-01 -7.33096E-03
    9108.898    114.077   5.640  9.92460E-01  9.98299E-01 -5.83932E-03
    9110.623    115.802   5.680  9.93379E-01  9.98304E-01 -4.92481E-03
    9112.360    117.540   5.720  9.93378E-01  9.98271E-01 -4.89301E-03
    9114.110    119.289   5.760  9.92185E-01  9.98199E-01 -6.01345E-03
    9115.872    121.051   5.800  9.89860E-01  9.98089E-01 -8.22830E-03
    9117.645    122.825   5.840  9.86945E-01  9.97942E-01 -1.09967E-02
    9119.432    124.611   5.880  9.84398E-01  9.97782E-01 -1.33843E-02
    9121.230    126.409   5.920  9.83205E-01  9.97564E-01 -1.43585E-02
    9123.040    128.220   5.960  9.84176E-01  9.97330E-01 -1.31536E-02
    9124.863    130.043   6.000  9.87569E-01  9.97009E-01 -9.44005E-03
