# # comment:                                                     FEFF 9.9.1  
# # Source:
# # Structure
# # Reduced
# # space
# # abc:
# # angles:
# # sites:
# # POT  SCF 100  7.0000   0, screened core-hole, AFOLP (folp(0)= 1.150)
# # Abs   Z=29 Rmt= 1.315 Rnm= 1.375 K  shell
# # Pot 1 Z=29 Rmt= 1.311 Rnm= 1.372
# # Pot 2 Z= 5 Rmt= 0.842 Rnm= 1.002
# # Pot 3 Z=17 Rmt= 1.552 Rnm= 1.613
# # Pot 4 Z= 8 Rmt= 0.875 Rnm= 1.014
# # Gam_ch=1.729E+00 H-L exch Vi= 0.000E+00 Vr= 0.000E+00
# # Mu=-5.519E+00eV kf=2.477E+00 Vint=-1.840E+01eV Rs_int= 1.464
# FMS rfms= 9.0000
# # PATH  Rmax=-1.000,  Keep_limit= 0.00, Heap_limit 0.00  Pwcrit= 2.50%
#  S02=0.950  Temp=   0.00  Debye_temp=   0.00  Global_sig2= 0.00000
#  Energy zero shift, vr, vi    0.00000E+00   0.00000E+00
#  Curved wave amplitude ratio filter   4.000%
#     file         sig2 tot  cw amp ratio   deg  nlegs   reff  inp sig2
#     0/   0 paths used
#  xsedge+ 50, used to normalize mu           2.4815E-04
#  -----------------------------------------------------------------------
#  omega    e    k    mu    mu0     chi     @#
    8983.271     -9.329  -1.000  4.93027E-02  5.31103E-02 -3.80760E-03
    8983.569     -9.030  -0.960  5.24983E-02  5.69760E-02 -4.47771E-03
    8983.856     -8.744  -0.920  5.60035E-02  6.12760E-02 -5.27251E-03
    8984.130     -8.469  -0.880  5.98583E-02  6.60748E-02 -6.21649E-03
    8984.392     -8.207  -0.840  6.41088E-02  7.14480E-02 -7.33919E-03
    8984.642     -7.957  -0.800  6.88070E-02  7.74830E-02 -8.67593E-03
    8984.880     -7.720  -0.760  7.40117E-02  8.42803E-02 -1.02687E-02
    8985.105     -7.494  -0.720  7.97875E-02  9.19538E-02 -1.21664E-02
    8985.319     -7.281  -0.680  8.62043E-02  1.00629E-01 -1.44248E-02
    8985.520     -7.080  -0.640  9.33339E-02  1.10439E-01 -1.71050E-02
    8985.709     -6.891  -0.600  1.01245E-01  1.21514E-01 -2.02684E-02
    8985.886     -6.714  -0.560  1.09996E-01  1.33965E-01 -2.39697E-02
    8986.050     -6.549  -0.520  1.19618E-01  1.47861E-01 -2.82427E-02
    8986.203     -6.397  -0.480  1.30105E-01  1.63187E-01 -3.30820E-02
    8986.343     -6.257  -0.440  1.41387E-01  1.79809E-01 -3.84213E-02
    8986.471     -6.129  -0.400  1.53316E-01  1.97433E-01 -4.41170E-02
    8986.587     -6.013  -0.360  1.65656E-01  2.15602E-01 -4.99466E-02
    8986.690     -5.909  -0.320  1.78086E-01  2.33719E-01 -5.56331E-02
    8986.782     -5.818  -0.280  1.90228E-01  2.51122E-01 -6.08936E-02
    8986.861     -5.738  -0.240  2.01681E-01  2.67176E-01 -6.54949E-02
    8986.928     -5.671  -0.200  2.12058E-01  2.81352E-01 -6.92945E-02
    8986.983     -5.617  -0.160  2.21018E-01  2.93267E-01 -7.22493E-02
    8987.026     -5.574  -0.120  2.28283E-01  3.02678E-01 -7.43945E-02
    8987.056     -5.543  -0.080  2.33644E-01  3.09452E-01 -7.58077E-02
    8987.081     -5.519   0.000  2.38089E-01  3.14891E-01 -7.68018E-02
    8987.135     -5.464   0.120  2.48014E-01  3.27149E-01 -7.91348E-02
    8987.178     -5.421   0.160  2.55909E-01  3.36671E-01 -8.07625E-02
    8987.233     -5.367   0.200  2.66252E-01  3.48780E-01 -8.25284E-02
    8987.300     -5.300   0.240  2.79196E-01  3.63334E-01 -8.41379E-02
    8987.379     -5.220   0.280  2.94758E-01  3.79997E-01 -8.52388E-02
    8987.471     -5.129   0.320  3.12844E-01  3.98333E-01 -8.54897E-02
    8987.574     -5.025   0.360  3.32949E-01  4.17741E-01 -8.47915E-02
    8987.690     -4.909   0.400  3.54122E-01  4.37643E-01 -8.35217E-02
    8987.818     -4.781   0.440  3.74674E-01  4.57480E-01 -8.28054E-02
    8987.958     -4.641   0.480  3.92369E-01  4.76853E-01 -8.44835E-02
    8988.111     -4.489   0.520  4.05085E-01  4.95500E-01 -9.04147E-02
    8988.275     -4.324   0.560  4.12014E-01  5.13262E-01 -1.01247E-01
    8988.452     -4.147   0.600  4.14766E-01  5.30151E-01 -1.15385E-01
    8988.641     -3.958   0.640  4.16905E-01  5.46213E-01 -1.29308E-01
    8988.842     -3.757   0.680  4.22436E-01  5.61573E-01 -1.39137E-01
    8989.056     -3.544   0.720  4.34263E-01  5.76312E-01 -1.42049E-01
    8989.281     -3.318   0.760  4.53911E-01  5.90569E-01 -1.36658E-01
    8989.519     -3.081   0.800  4.81958E-01  6.04416E-01 -1.22458E-01
    8989.769     -2.831   0.840  5.18264E-01  6.17991E-01 -9.97266E-02
    8990.031     -2.569   0.880  5.60684E-01  6.31317E-01 -7.06329E-02
    8990.305     -2.294   0.920  6.04322E-01  6.44507E-01 -4.01851E-02
    8990.592     -2.008   0.960  6.45020E-01  6.57555E-01 -1.25351E-02
    8990.891     -1.709   1.000  6.84186E-01  6.70532E-01  1.36539E-02
    8991.201     -1.398   1.040  7.23717E-01  6.83455E-01  4.02622E-02
    8991.525     -1.075   1.080  7.57928E-01  6.96333E-01  6.15950E-02
    8991.860     -0.740   1.120  7.77653E-01  7.09188E-01  6.84651E-02
    8992.207     -0.392   1.160  7.81779E-01  7.22016E-01  5.97637E-02
    8992.567     -0.033   1.200  7.79228E-01  7.34830E-01  4.43982E-02
    8992.939      0.339   1.240  7.79035E-01  7.47596E-01  3.14393E-02
    8993.323      0.723   1.280  7.83592E-01  7.60317E-01  2.32755E-02
    8993.719      1.119   1.320  7.90810E-01  7.72974E-01  1.78357E-02
    8994.127      1.528   1.360  8.00004E-01  7.85566E-01  1.44385E-02
    8994.548      1.949   1.400  8.15647E-01  7.98068E-01  1.75791E-02
    8994.981      2.381   1.440  8.42239E-01  8.10434E-01  3.18054E-02
    8995.426      2.826   1.480  8.76255E-01  8.22656E-01  5.35987E-02
    8995.883      3.284   1.520  9.09063E-01  8.34727E-01  7.43362E-02
    8996.353      3.753   1.560  9.35412E-01  8.46596E-01  8.88161E-02
    8996.834      4.235   1.600  9.57210E-01  8.58256E-01  9.89541E-02
    8997.328      4.728   1.640  9.83113E-01  8.69674E-01  1.13439E-01
    8997.834      5.234   1.680  1.01862E+00  8.80840E-01  1.37780E-01
    8998.352      5.752   1.720  1.06230E+00  8.91705E-01  1.70591E-01
    8998.882      6.283   1.760  1.10770E+00  9.02257E-01  2.05441E-01
    8999.425      6.825   1.800  1.14572E+00  9.12467E-01  2.33255E-01
    8999.980      7.380   1.840  1.17142E+00  9.22325E-01  2.49096E-01
    9000.547      7.947   1.880  1.18804E+00  9.31803E-01  2.56234E-01
    9001.126      8.526   1.920  1.20153E+00  9.40892E-01  2.60637E-01
    9001.717      9.117   1.960  1.21045E+00  9.49565E-01  2.60885E-01
    9002.320      9.721   2.000  1.20711E+00  9.57816E-01  2.49298E-01
    9002.936     10.337   2.040  1.19277E+00  9.65620E-01  2.27148E-01
    9003.564     10.964   2.080  1.17757E+00  9.72993E-01  2.04575E-01
    9004.204     11.605   2.120  1.16438E+00  9.79910E-01  1.84468E-01
    9004.856     12.257   2.160  1.15546E+00  9.86348E-01  1.69116E-01
    9005.521     12.921   2.200  1.15969E+00  9.92349E-01  1.67343E-01
    9006.198     13.598   2.240  1.17626E+00  9.97871E-01  1.78393E-01
    9006.886     14.287   2.280  1.19849E+00  1.00294E+00  1.95556E-01
    9007.587     14.988   2.320  1.22519E+00  1.00752E+00  2.17667E-01
    9008.301     15.701   2.360  1.24561E+00  1.01168E+00  2.33929E-01
    9009.026     16.426   2.400  1.24109E+00  1.01539E+00  2.25698E-01
    9009.764     17.164   2.440  1.20784E+00  1.01865E+00  1.89188E-01
    9010.513     17.914   2.480  1.15348E+00  1.02150E+00  1.31982E-01
    9011.275     18.676   2.520  1.08890E+00  1.02392E+00  6.49830E-02
    9012.050     19.450   2.560  1.02532E+00  1.02595E+00 -6.33927E-04
    9012.836     20.236   2.600  9.69069E-01  1.02761E+00 -5.85431E-02
    9013.635     21.035   2.640  9.21054E-01  1.02890E+00 -1.07850E-01
    9014.445     21.846   2.680  8.81471E-01  1.02984E+00 -1.48368E-01
    9015.268     22.669   2.720  8.51753E-01  1.03045E+00 -1.78692E-01
    9016.103     23.504   2.760  8.31154E-01  1.03075E+00 -1.99598E-01
    9016.951     24.351   2.800  8.17482E-01  1.03075E+00 -2.13269E-01
    9017.810     25.211   2.840  8.11457E-01  1.03049E+00 -2.19034E-01
    9018.682     26.083   2.880  8.20027E-01  1.02998E+00 -2.09957E-01
    9019.566     26.966   2.920  8.32816E-01  1.02924E+00 -1.96422E-01
    9020.462     27.863   2.960  8.43449E-01  1.02828E+00 -1.84835E-01
    9021.370     28.771   3.000  8.50493E-01  1.02713E+00 -1.76640E-01
    9022.291     29.691   3.040  8.55658E-01  1.02581E+00 -1.70156E-01
    9023.224     30.624   3.080  8.60842E-01  1.02436E+00 -1.63515E-01
    9024.168     31.569   3.120  8.67366E-01  1.02275E+00 -1.55387E-01
    9025.126     32.526   3.160  8.76274E-01  1.02105E+00 -1.44778E-01
    9026.095     33.495   3.200  8.88169E-01  1.01924E+00 -1.31072E-01
    9027.076     34.477   3.240  9.03161E-01  1.01737E+00 -1.14209E-01
    9028.070     35.470   3.280  9.20908E-01  1.01543E+00 -9.45186E-02
    9029.076     36.476   3.320  9.40603E-01  1.01344E+00 -7.28359E-02
    9030.094     37.494   3.360  9.61050E-01  1.01141E+00 -5.03629E-02
    9031.124     38.524   3.400  9.81274E-01  1.00938E+00 -2.81030E-02
    9032.166     39.567   3.440  1.00015E+00  1.00734E+00 -7.18540E-03
    9033.221     40.621   3.480  1.01689E+00  1.00530E+00  1.15881E-02
    9034.288     41.688   3.520  1.03120E+00  1.00328E+00  2.79237E-02
    9035.367     42.767   3.560  1.04311E+00  1.00131E+00  4.17986E-02
    9036.458     43.858   3.600  1.05269E+00  9.99382E-01  5.33114E-02
    9037.561     44.962   3.640  1.06026E+00  9.97500E-01  6.27644E-02
    9038.677     46.077   3.680  1.06615E+00  9.95667E-01  7.04788E-02
    9039.805     47.205   3.720  1.07058E+00  9.93928E-01  7.66541E-02
    9040.945     48.345   3.760  1.07355E+00  9.92246E-01  8.13068E-02
    9042.097     49.497   3.800  1.07492E+00  9.90646E-01  8.42788E-02
    9043.261     50.661   3.840  1.07450E+00  9.89151E-01  8.53483E-02
    9044.438     51.838   3.880  1.07209E+00  9.87743E-01  8.43499E-02
    9045.626     53.027   3.920  1.06778E+00  9.86444E-01  8.13334E-02
    9046.827     54.228   3.960  1.06168E+00  9.85234E-01  7.64494E-02
    9048.040     55.441   4.000  1.05406E+00  9.84116E-01  6.99489E-02
    9049.266     56.666   4.040  1.04536E+00  9.83131E-01  6.22269E-02
    9050.503     57.903   4.080  1.03603E+00  9.82238E-01  5.37933E-02
    9051.753     59.153   4.120  1.02664E+00  9.81440E-01  4.52019E-02
    9053.015     60.415   4.160  1.01774E+00  9.80779E-01  3.69617E-02
    9054.289     61.689   4.200  1.00977E+00  9.80211E-01  2.95619E-02
    9055.575     62.975   4.240  1.00308E+00  9.79758E-01  2.33232E-02
    9056.873     64.274   4.280  9.97857E-01  9.79421E-01  1.84355E-02
    9058.184     65.584   4.320  9.94163E-01  9.79196E-01  1.49669E-02
    9059.507     66.907   4.360  9.91842E-01  9.79041E-01  1.28004E-02
    9060.842     68.242   4.400  9.90650E-01  9.79018E-01  1.16313E-02
    9062.189     69.589   4.440  9.90096E-01  9.79085E-01  1.10116E-02
    9063.548     70.949   4.480  9.89689E-01  9.79237E-01  1.04523E-02
    9064.920     72.320   4.520  9.89014E-01  9.79496E-01  9.51862E-03
    9066.304     73.704   4.560  9.87798E-01  9.79837E-01  7.96069E-03
    9067.700     75.100   4.600  9.85953E-01  9.80237E-01  5.71569E-03
    9069.108     76.508   4.640  9.83611E-01  9.80737E-01  2.87432E-03
    9070.528     77.929   4.680  9.80949E-01  9.81314E-01 -3.64600E-04
    9071.961     79.361   4.720  9.78187E-01  9.81940E-01 -3.75331E-03
    9073.406     80.806   4.760  9.75564E-01  9.82614E-01 -7.05077E-03
    9074.863     82.263   4.800  9.73304E-01  9.83356E-01 -1.00516E-02
    9076.332     83.732   4.840  9.71445E-01  9.84140E-01 -1.26956E-02
    9077.813     85.213   4.880  9.69898E-01  9.84964E-01 -1.50664E-02
    9079.307     86.707   4.920  9.68485E-01  9.85824E-01 -1.73389E-02
    9080.812     88.213   4.960  9.66966E-01  9.86695E-01 -1.97282E-02
    9082.330     89.731   5.000  9.65213E-01  9.87595E-01 -2.23815E-02
    9083.860     91.261   5.040  9.63194E-01  9.88501E-01 -2.53069E-02
    9085.403     92.803   5.080  9.61023E-01  9.89409E-01 -2.83860E-02
    9086.957     94.357   5.120  9.58961E-01  9.90338E-01 -3.13768E-02
    9088.524     95.924   5.160  9.57199E-01  9.91240E-01 -3.40409E-02
    9090.103     97.503   5.200  9.55923E-01  9.92110E-01 -3.61862E-02
    9091.694     99.094   5.240  9.55305E-01  9.92969E-01 -3.76637E-02
    9093.297    100.697   5.280  9.55421E-01  9.93793E-01 -3.83726E-02
    9094.912    102.313   5.320  9.56319E-01  9.94602E-01 -3.82830E-02
    9096.540    103.940   5.360  9.57829E-01  9.95347E-01 -3.75183E-02
    9098.180    105.580   5.400  9.59718E-01  9.96047E-01 -3.63291E-02
    9099.832    107.232   5.440  9.61748E-01  9.96702E-01 -3.49538E-02
    9101.496    108.896   5.480  9.63869E-01  9.97286E-01 -3.34169E-02
    9103.172    110.573   5.520  9.66353E-01  9.97822E-01 -3.14692E-02
    9104.861    112.261   5.560  9.69597E-01  9.98306E-01 -2.87094E-02
    9106.562    113.962   5.600  9.73889E-01  9.98692E-01 -2.48024E-02
    9108.275    115.675   5.640  9.79392E-01  9.99019E-01 -1.96277E-02
    9110.000    117.400   5.680  9.85963E-01  9.99248E-01 -1.32850E-02
    9111.737    119.138   5.720  9.93442E-01  9.99420E-01 -5.97813E-03
    9113.487    120.887   5.760  1.00159E+00  9.99515E-01  2.07867E-03
    9115.248    122.649   5.800  1.01015E+00  9.99531E-01  1.06229E-02
    9117.022    124.423   5.840  1.01868E+00  9.99468E-01  1.92162E-02
    9118.808    126.209   5.880  1.02651E+00  9.99326E-01  2.71795E-02
    9120.607    128.007   5.920  1.03280E+00  9.99105E-01  3.36954E-02
    9122.417    129.818   5.960  1.03677E+00  9.98798E-01  3.79722E-02
    9124.240    131.640   6.000  1.03768E+00  9.98357E-01  3.93274E-02
