# # comment:                                                     FEFF 9.9.1  
# # Source:
# # Structure
# # Reduced
# # space
# # abc:
# # angles:
# # sites:
# # POT  SCF 100  7.0000   0, screened core-hole, AFOLP (folp(0)= 1.150)
# # Abs   Z=29 Rmt= 1.179 Rnm= 1.257 K  shell
# # Pot 1 Z=57 Rmt= 1.748 Rnm= 1.829
# # Pot 2 Z=29 Rmt= 1.179 Rnm= 1.257
# # Pot 3 Z= 8 Rmt= 1.035 Rnm= 1.084
# # Gam_ch=1.729E+00 H-L exch Vi= 0.000E+00 Vr= 0.000E+00
# # Mu=-8.065E+00eV kf=2.127E+00 Vint=-1.907E+01eV Rs_int= 1.705
# FMS rfms= 9.0000
# # PATH  Rmax=-1.000,  Keep_limit= 0.00, Heap_limit 0.00  Pwcrit= 2.50%
#  S02=0.950  Temp=   0.00  Debye_temp=   0.00  Global_sig2= 0.00000
#  Energy zero shift, vr, vi    0.00000E+00   0.00000E+00
#  Curved wave amplitude ratio filter   4.000%
#     file         sig2 tot  cw amp ratio   deg  nlegs   reff  inp sig2
#     0/   0 paths used
#  xsedge+ 50, used to normalize mu           2.4530E-04
#  -----------------------------------------------------------------------
#  omega    e    k    mu    mu0     chi     @#
    8985.396    -11.875  -1.000  4.22564E-02  5.85747E-02 -1.63182E-02
    8985.694    -11.576  -0.960  4.45900E-02  6.30007E-02 -1.84107E-02
    8985.981    -11.289  -0.920  4.71154E-02  6.79351E-02 -2.08197E-02
    8986.255    -11.015  -0.880  4.98563E-02  7.34542E-02 -2.35979E-02
    8986.517    -10.753  -0.840  5.28400E-02  7.96470E-02 -2.68070E-02
    8986.767    -10.503  -0.800  5.60980E-02  8.66170E-02 -3.05190E-02
    8987.005    -10.265  -0.760  5.96665E-02  9.44829E-02 -3.48164E-02
    8987.231    -10.040  -0.720  6.35861E-02  1.03379E-01 -3.97933E-02
    8987.444     -9.826  -0.680  6.79017E-02  1.13455E-01 -4.55533E-02
    8987.645     -9.625  -0.640  7.26600E-02  1.24867E-01 -5.22066E-02
    8987.834     -9.436  -0.600  7.79067E-02  1.37769E-01 -5.98624E-02
    8988.011     -9.259  -0.560  8.36793E-02  1.52295E-01 -6.86158E-02
    8988.176     -9.095  -0.520  8.99975E-02  1.68525E-01 -7.85272E-02
    8988.328     -8.942  -0.480  9.68489E-02  1.86443E-01 -8.95941E-02
    8988.468     -8.802  -0.440  1.04173E-01  2.05892E-01 -1.01719E-01
    8988.596     -8.674  -0.400  1.11848E-01  2.26528E-01 -1.14680E-01
    8988.712     -8.558  -0.360  1.19684E-01  2.47812E-01 -1.28127E-01
    8988.816     -8.455  -0.320  1.27440E-01  2.69040E-01 -1.41600E-01
    8988.907     -8.363  -0.280  1.34848E-01  2.89436E-01 -1.54588E-01
    8988.986     -8.284  -0.240  1.41650E-01  3.08252E-01 -1.66602E-01
    8989.053     -8.217  -0.200  1.47634E-01  3.24867E-01 -1.77232E-01
    8989.108     -8.162  -0.160  1.52649E-01  3.38829E-01 -1.86180E-01
    8989.151     -8.119  -0.120  1.56603E-01  3.49855E-01 -1.93252E-01
    8989.181     -8.089  -0.080  1.59449E-01  3.57791E-01 -1.98342E-01
    8989.206     -8.065   0.000  1.61744E-01  3.64161E-01 -2.02418E-01
    8989.261     -8.010   0.120  1.66802E-01  3.78511E-01 -2.11709E-01
    8989.303     -7.967   0.160  1.70689E-01  3.89653E-01 -2.18963E-01
    8989.358     -7.912   0.200  1.75585E-01  4.03831E-01 -2.28246E-01
    8989.425     -7.845   0.240  1.81414E-01  4.20871E-01 -2.39457E-01
    8989.504     -7.766   0.280  1.87981E-01  4.40355E-01 -2.52374E-01
    8989.596     -7.674   0.320  1.95056E-01  4.61723E-01 -2.66667E-01
    8989.700     -7.571   0.360  2.02486E-01  4.84351E-01 -2.81865E-01
    8989.815     -7.455   0.400  2.10119E-01  5.07492E-01 -2.97373E-01
    8989.943     -7.327   0.440  2.18074E-01  5.30524E-01 -3.12451E-01
    8990.084     -7.187   0.480  2.26667E-01  5.52889E-01 -3.26222E-01
    8990.236     -7.034   0.520  2.36472E-01  5.74312E-01 -3.37839E-01
    8990.401     -6.870   0.560  2.47947E-01  5.94604E-01 -3.46657E-01
    8990.577     -6.693   0.600  2.61155E-01  6.13755E-01 -3.52600E-01
    8990.766     -6.504   0.640  2.75623E-01  6.31815E-01 -3.56192E-01
    8990.967     -6.303   0.680  2.90896E-01  6.48902E-01 -3.58005E-01
    8991.181     -6.089   0.720  3.07374E-01  6.65110E-01 -3.57736E-01
    8991.406     -5.864   0.760  3.26768E-01  6.80576E-01 -3.53808E-01
    8991.644     -5.626   0.800  3.51024E-01  6.95423E-01 -3.44399E-01
    8991.894     -5.376   0.840  3.79998E-01  7.09719E-01 -3.29722E-01
    8992.156     -5.114   0.880  4.09413E-01  7.23539E-01 -3.14126E-01
    8992.431     -4.840   0.920  4.31742E-01  7.36961E-01 -3.05219E-01
    8992.717     -4.553   0.960  4.41885E-01  7.50028E-01 -3.08142E-01
    8993.016     -4.255   1.000  4.42498E-01  7.62770E-01 -3.20272E-01
    8993.327     -3.944   1.040  4.41623E-01  7.75207E-01 -3.33584E-01
    8993.650     -3.621   1.080  4.46503E-01  7.87350E-01 -3.40847E-01
    8993.985     -3.285   1.120  4.61594E-01  7.99226E-01 -3.37632E-01
    8994.332     -2.938   1.160  4.90816E-01  8.10810E-01 -3.19995E-01
    8994.692     -2.578   1.200  5.38900E-01  8.22117E-01 -2.83216E-01
    8995.064     -2.206   1.240  6.11048E-01  8.33134E-01 -2.22087E-01
    8995.448     -1.822   1.280  7.13342E-01  8.43850E-01 -1.30508E-01
    8995.844     -1.426   1.320  8.51547E-01  8.54269E-01 -2.72107E-03
    8996.253     -1.018   1.360  1.02191E+00  8.64351E-01  1.57562E-01
    8996.673     -0.597   1.400  1.18967E+00  8.74119E-01  3.15552E-01
    8997.106     -0.164   1.440  1.27857E+00  8.83552E-01  3.95016E-01
    8997.551      0.281   1.480  1.24146E+00  8.92629E-01  3.48832E-01
    8998.008      0.738   1.520  1.13428E+00  9.01352E-01  2.32924E-01
    8998.478      1.207   1.560  1.03858E+00  9.09697E-01  1.28887E-01
    8998.959      1.689   1.600  9.96553E-01  9.17665E-01  7.88875E-02
    8999.453      2.183   1.640  1.02857E+00  9.25258E-01  1.03316E-01
    8999.959      2.689   1.680  1.14141E+00  9.32453E-01  2.08959E-01
    9000.477      3.207   1.720  1.31311E+00  9.39275E-01  3.73839E-01
    9001.008      3.737   1.760  1.46581E+00  9.45724E-01  5.20088E-01
    9001.550      4.280   1.800  1.50199E+00  9.51761E-01  5.50231E-01
    9002.105      4.835   1.840  1.41294E+00  9.57430E-01  4.55511E-01
    9002.672      5.401   1.880  1.27193E+00  9.62735E-01  3.09198E-01
    9003.251      5.981   1.920  1.14488E+00  9.67639E-01  1.77244E-01
    9003.842      6.572   1.960  1.05862E+00  9.72187E-01  8.64327E-02
    9004.446      7.175   2.000  1.01236E+00  9.76385E-01  3.59719E-02
    9005.061      7.791   2.040  1.00307E+00  9.80236E-01  2.28292E-02
    9005.689      8.419   2.080  1.02850E+00  9.83750E-01  4.47539E-02
    9006.329      9.059   2.120  1.07878E+00  9.86931E-01  9.18510E-02
    9006.982      9.711   2.160  1.13484E+00  9.89806E-01  1.45038E-01
    9007.646     10.376   2.200  1.17081E+00  9.92362E-01  1.78451E-01
    9008.323     11.052   2.240  1.17119E+00  9.94668E-01  1.76526E-01
    9009.012     11.741   2.280  1.13954E+00  9.96670E-01  1.42874E-01
    9009.713     12.442   2.320  1.09729E+00  9.98437E-01  9.88550E-02
    9010.426     13.156   2.360  1.06381E+00  9.99933E-01  6.38731E-02
    9011.151     13.881   2.400  1.04762E+00  1.00123E+00  4.63935E-02
    9011.889     14.619   2.440  1.04851E+00  1.00229E+00  4.62188E-02
    9012.639     15.368   2.480  1.06132E+00  1.00315E+00  5.81668E-02
    9013.401     16.130   2.520  1.07948E+00  1.00383E+00  7.56504E-02
    9014.175     16.905   2.560  1.08937E+00  1.00434E+00  8.50220E-02
    9014.961     17.691   2.600  1.08523E+00  1.00471E+00  8.05146E-02
    9015.760     18.490   2.640  1.07681E+00  1.00493E+00  7.18769E-02
    9016.571     19.300   2.680  1.06821E+00  1.00501E+00  6.31957E-02
    9017.394     20.123   2.720  1.05866E+00  1.00497E+00  5.36820E-02
    9018.229     20.958   2.760  1.04675E+00  1.00482E+00  4.19343E-02
    9019.076     21.806   2.800  1.03200E+00  1.00460E+00  2.73977E-02
    9019.936     22.665   2.840  1.01478E+00  1.00429E+00  1.04894E-02
    9020.807     23.537   2.880  9.96141E-01  1.00391E+00 -7.76924E-03
    9021.691     24.421   2.920  9.76987E-01  1.00345E+00 -2.64653E-02
    9022.587     25.317   2.960  9.57995E-01  1.00297E+00 -4.49745E-02
    9023.496     26.225   3.000  9.40172E-01  1.00242E+00 -6.22497E-02
    9024.416     27.146   3.040  9.24602E-01  1.00186E+00 -7.72546E-02
    9025.349     28.079   3.080  9.11614E-01  1.00126E+00 -8.96453E-02
    9026.294     29.023   3.120  9.01203E-01  1.00065E+00 -9.94498E-02
    9027.251     29.980   3.160  8.93190E-01  1.00004E+00 -1.06852E-01
    9028.220     30.950   3.200  8.87400E-01  9.99430E-01 -1.12030E-01
    9029.201     31.931   3.240  8.83952E-01  9.98819E-01 -1.14866E-01
    9030.195     32.925   3.280  8.83014E-01  9.98233E-01 -1.15218E-01
    9031.201     33.931   3.320  8.84417E-01  9.97653E-01 -1.13236E-01
    9032.219     34.949   3.360  8.87768E-01  9.97081E-01 -1.09313E-01
    9033.249     35.979   3.400  8.92449E-01  9.96563E-01 -1.04114E-01
    9034.292     37.021   3.440  8.97529E-01  9.96037E-01 -9.85078E-02
    9035.346     38.076   3.480  9.02529E-01  9.95567E-01 -9.30380E-02
    9036.413     39.143   3.520  9.07261E-01  9.95135E-01 -8.78734E-02
    9037.492     40.222   3.560  9.11828E-01  9.94741E-01 -8.29133E-02
    9038.583     41.313   3.600  9.16242E-01  9.94365E-01 -7.81231E-02
    9039.687     42.416   3.640  9.20684E-01  9.94051E-01 -7.33671E-02
    9040.802     43.532   3.680  9.25404E-01  9.93779E-01 -6.83751E-02
    9041.930     44.660   3.720  9.30858E-01  9.93548E-01 -6.26900E-02
    9043.070     45.800   3.760  9.37714E-01  9.93359E-01 -5.56450E-02
    9044.222     46.952   3.800  9.46623E-01  9.93235E-01 -4.66124E-02
    9045.386     48.116   3.840  9.57698E-01  9.93132E-01 -3.54338E-02
    9046.563     49.293   3.880  9.70500E-01  9.93092E-01 -2.25919E-02
    9047.751     50.481   3.920  9.84075E-01  9.93094E-01 -9.01978E-03
    9048.952     51.682   3.960  9.97298E-01  9.93138E-01  4.15926E-03
    9050.166     52.895   4.000  1.00909E+00  9.93222E-01  1.58676E-02
    9051.391     54.121   4.040  1.01860E+00  9.93347E-01  2.52555E-02
    9052.628     55.358   4.080  1.02546E+00  9.93512E-01  3.19464E-02
    9053.878     56.608   4.120  1.02980E+00  9.93715E-01  3.60860E-02
    9055.140     57.870   4.160  1.03227E+00  9.93958E-01  3.83090E-02
    9056.414     59.144   4.200  1.03376E+00  9.94239E-01  3.95188E-02
    9057.700     60.430   4.240  1.03513E+00  9.94558E-01  4.05737E-02
    9058.999     61.728   4.280  1.03698E+00  9.94911E-01  4.20726E-02
    9060.309     63.039   4.320  1.03970E+00  9.95278E-01  4.44207E-02
    9061.632     64.362   4.360  1.04349E+00  9.95677E-01  4.78141E-02
    9062.967     65.697   4.400  1.04822E+00  9.96109E-01  5.21141E-02
    9064.314     67.044   4.440  1.05352E+00  9.96551E-01  5.69674E-02
    9065.674     68.403   4.480  1.05889E+00  9.97021E-01  6.18686E-02
    9067.045     69.775   4.520  1.06383E+00  9.97497E-01  6.63371E-02
    9068.429     71.159   4.560  1.06806E+00  9.97978E-01  7.00781E-02
    9069.825     72.555   4.600  1.07145E+00  9.98483E-01  7.29698E-02
    9071.233     73.963   4.640  1.07391E+00  9.98969E-01  7.49447E-02
    9072.654     75.383   4.680  1.07536E+00  9.99477E-01  7.58845E-02
    9074.086     76.816   4.720  1.07551E+00  9.99986E-01  7.55211E-02
    9075.531     78.261   4.760  1.07384E+00  1.00049E+00  7.33483E-02
    9076.988     79.718   4.800  1.06991E+00  1.00097E+00  6.89371E-02
    9078.457     81.187   4.840  1.06366E+00  1.00144E+00  6.22131E-02
    9079.938     82.668   4.880  1.05546E+00  1.00193E+00  5.35246E-02
    9081.432     84.161   4.920  1.04579E+00  1.00238E+00  4.34191E-02
    9082.937     85.667   4.960  1.03518E+00  1.00283E+00  3.23545E-02
    9084.455     87.185   5.000  1.02393E+00  1.00323E+00  2.07004E-02
    9085.985     88.715   5.040  1.01262E+00  1.00364E+00  8.97857E-03
    9087.528     90.257   5.080  1.00191E+00  1.00399E+00 -2.08220E-03
    9089.082     91.812   5.120  9.92713E-01  1.00436E+00 -1.16437E-02
    9090.649     93.379   5.160  9.85553E-01  1.00466E+00 -1.91113E-02
    9092.228     94.957   5.200  9.80701E-01  1.00495E+00 -2.42536E-02
    9093.819     96.548   5.240  9.77875E-01  1.00519E+00 -2.73108E-02
    9095.422     98.152   5.280  9.76552E-01  1.00540E+00 -2.88488E-02
    9097.037     99.767   5.320  9.76046E-01  1.00560E+00 -2.95562E-02
    9098.665    101.395   5.360  9.75643E-01  1.00574E+00 -3.00977E-02
    9100.305    103.035   5.400  9.74809E-01  1.00584E+00 -3.10298E-02
    9101.957    104.687   5.440  9.73187E-01  1.00592E+00 -3.27327E-02
    9103.621    106.351   5.480  9.70637E-01  1.00594E+00 -3.53040E-02
    9105.297    108.027   5.520  9.67354E-01  1.00594E+00 -3.85899E-02
    9106.986    109.716   5.560  9.63515E-01  1.00591E+00 -4.23908E-02
    9108.687    111.417   5.600  9.59175E-01  1.00581E+00 -4.66309E-02
    9110.400    113.130   5.640  9.54400E-01  1.00569E+00 -5.12868E-02
    9112.125    114.855   5.680  9.49363E-01  1.00553E+00 -5.61682E-02
    9113.862    116.592   5.720  9.44591E-01  1.00534E+00 -6.07443E-02
    9115.612    118.342   5.760  9.40972E-01  1.00510E+00 -6.41292E-02
    9117.374    120.103   5.800  9.39499E-01  1.00483E+00 -6.53295E-02
    9119.148    121.877   5.840  9.40885E-01  1.00452E+00 -6.36331E-02
    9120.934    123.663   5.880  9.45262E-01  1.00417E+00 -5.89121E-02
    9122.732    125.462   5.920  9.52052E-01  1.00382E+00 -5.17700E-02
    9124.542    127.272   5.960  9.60105E-01  1.00344E+00 -4.33338E-02
    9126.365    129.095   6.000  9.68461E-01  1.00300E+00 -3.45367E-02
