# # comment:                                                     FEFF 9.9.1  
# # Source:
# # Structure
# # Reduced
# # space
# # abc:
# # angles:
# # sites:
# # POT  SCF 100  7.0000   0, screened core-hole, AFOLP (folp(0)= 1.150)
# # Abs   Z=29 Rmt= 1.327 Rnm= 1.385 K  shell
# # Pot 1 Z= 3 Rmt= 1.264 Rnm= 1.322
# # Pot 2 Z=29 Rmt= 1.328 Rnm= 1.386
# # Pot 3 Z=15 Rmt= 0.944 Rnm= 1.153
# # Pot 4 Z= 8 Rmt= 0.939 Rnm= 1.040
# # Gam_ch=1.729E+00 H-L exch Vi= 0.000E+00 Vr= 0.000E+00
# # Mu=-6.893E+00eV kf=2.358E+00 Vint=-1.781E+01eV Rs_int= 1.538
# FMS rfms= 9.0000
# # PATH  Rmax=-1.000,  Keep_limit= 0.00, Heap_limit 0.00  Pwcrit= 2.50%
#  S02=0.950  Temp=   0.00  Debye_temp=   0.00  Global_sig2= 0.00000
#  Energy zero shift, vr, vi    0.00000E+00   0.00000E+00
#  Curved wave amplitude ratio filter   4.000%
#     file         sig2 tot  cw amp ratio   deg  nlegs   reff  inp sig2
#     0/   0 paths used
#  xsedge+ 50, used to normalize mu           2.4666E-04
#  -----------------------------------------------------------------------
#  omega    e    k    mu    mu0     chi     @#
    8983.943    -10.703  -1.000  5.00545E-02  5.49314E-02 -4.87686E-03
    8984.241    -10.405  -0.960  5.33623E-02  5.89588E-02 -5.59646E-03
    8984.528    -10.118  -0.920  5.70054E-02  6.34389E-02 -6.43351E-03
    8984.802     -9.844  -0.880  6.10301E-02  6.84389E-02 -7.40884E-03
    8985.064     -9.582  -0.840  6.54901E-02  7.40372E-02 -8.54714E-03
    8985.314     -9.332  -0.800  7.04471E-02  8.03247E-02 -9.87760E-03
    8985.552     -9.094  -0.760  7.59714E-02  8.74058E-02 -1.14344E-02
    8985.778     -8.868  -0.720  8.21416E-02  9.53986E-02 -1.32570E-02
    8985.991     -8.655  -0.680  8.90434E-02  1.04433E-01 -1.53898E-02
    8986.192     -8.454  -0.640  9.67665E-02  1.14647E-01 -1.78809E-02
    8986.381     -8.265  -0.600  1.05398E-01  1.26176E-01 -2.07785E-02
    8986.558     -8.088  -0.560  1.15010E-01  1.39136E-01 -2.41254E-02
    8986.722     -7.924  -0.520  1.25646E-01  1.53595E-01 -2.79492E-02
    8986.875     -7.771  -0.480  1.37291E-01  1.69540E-01 -3.22486E-02
    8987.015     -7.631  -0.440  1.49852E-01  1.86830E-01 -3.69780E-02
    8987.143     -7.503  -0.400  1.63127E-01  2.05162E-01 -4.20348E-02
    8987.259     -7.387  -0.360  1.76803E-01  2.24060E-01 -4.72567E-02
    8987.363     -7.284  -0.320  1.90468E-01  2.42904E-01 -5.24359E-02
    8987.454     -7.192  -0.280  2.03658E-01  2.61008E-01 -5.73503E-02
    8987.533     -7.113  -0.240  2.15913E-01  2.77714E-01 -6.18005E-02
    8987.600     -7.046  -0.200  2.26830E-01  2.92469E-01 -6.56390E-02
    8987.655     -6.991  -0.160  2.36092E-01  3.04874E-01 -6.87817E-02
    8987.698     -6.948  -0.120  2.43474E-01  3.14675E-01 -7.12007E-02
    8987.728     -6.918  -0.080  2.48825E-01  3.21731E-01 -7.29061E-02
    8987.753     -6.893   0.000  2.53135E-01  3.27399E-01 -7.42633E-02
    8987.808     -6.839   0.120  2.62921E-01  3.40166E-01 -7.72454E-02
    8987.850     -6.796   0.160  2.70636E-01  3.50089E-01 -7.94527E-02
    8987.905     -6.741   0.200  2.80616E-01  3.62738E-01 -8.21221E-02
    8987.972     -6.674   0.240  2.92844E-01  3.77927E-01 -8.50834E-02
    8988.051     -6.595   0.280  3.07205E-01  3.95336E-01 -8.81308E-02
    8988.143     -6.503   0.320  3.23519E-01  4.14498E-01 -9.09793E-02
    8988.246     -6.400   0.360  3.41472E-01  4.34819E-01 -9.33469E-02
    8988.362     -6.284   0.400  3.60747E-01  4.55710E-01 -9.49625E-02
    8988.490     -6.156   0.440  3.80996E-01  4.76593E-01 -9.55973E-02
    8988.630     -6.016   0.480  4.01936E-01  4.97039E-01 -9.51029E-02
    8988.783     -5.863   0.520  4.23333E-01  5.16756E-01 -9.34227E-02
    8988.947     -5.699   0.560  4.44839E-01  5.35621E-01 -9.07822E-02
    8989.124     -5.522   0.600  4.65664E-01  5.53624E-01 -8.79595E-02
    8989.313     -5.333   0.640  4.84273E-01  5.70809E-01 -8.65353E-02
    8989.514     -5.132   0.680  4.98465E-01  5.87260E-01 -8.87948E-02
    8989.728     -4.918   0.720  5.05951E-01  6.03097E-01 -9.71460E-02
    8989.953     -4.693   0.760  5.05435E-01  6.18439E-01 -1.13004E-01
    8990.191     -4.455   0.800  4.98019E-01  6.33375E-01 -1.35356E-01
    8990.441     -4.205   0.840  4.88004E-01  6.47960E-01 -1.59956E-01
    8990.703     -3.943   0.880  4.81915E-01  6.62296E-01 -1.80381E-01
    8990.977     -3.669   0.920  4.85961E-01  6.76430E-01 -1.90468E-01
    8991.264     -3.382   0.960  5.03594E-01  6.90397E-01 -1.86803E-01
    8991.563     -3.083   1.000  5.33974E-01  7.04199E-01 -1.70225E-01
    8991.874     -2.773   1.040  5.72688E-01  7.17891E-01 -1.45203E-01
    8992.197     -2.449   1.080  6.13236E-01  7.31477E-01 -1.18241E-01
    8992.532     -2.114   1.120  6.48123E-01  7.44935E-01 -9.68112E-02
    8992.879     -1.767   1.160  6.70156E-01  7.58257E-01 -8.81007E-02
    8993.239     -1.407   1.200  6.79529E-01  7.71451E-01 -9.19219E-02
    8993.611     -1.035   1.240  6.88486E-01  7.84521E-01 -9.60355E-02
    8993.995     -0.651   1.280  7.11499E-01  7.97407E-01 -8.59080E-02
    8994.391     -0.255   1.320  7.54575E-01  8.10106E-01 -5.55304E-02
    8994.800      0.154   1.360  8.13246E-01  8.22594E-01 -9.34740E-03
    8995.220      0.574   1.400  8.79403E-01  8.34865E-01  4.45377E-02
    8995.653      1.007   1.440  9.46612E-01  8.46893E-01  9.97184E-02
    8996.098      1.452   1.480  1.01109E+00  8.58629E-01  1.52460E-01
    8996.555      1.909   1.520  1.07520E+00  8.70064E-01  2.05136E-01
    8997.025      2.379   1.560  1.14137E+00  8.81173E-01  2.60198E-01
    8997.506      2.860   1.600  1.20161E+00  8.91947E-01  3.09668E-01
    8998.000      3.354   1.640  1.25207E+00  9.02356E-01  3.49713E-01
    8998.506      3.860   1.680  1.30390E+00  9.12395E-01  3.91505E-01
    8999.024      4.378   1.720  1.36235E+00  9.22017E-01  4.40331E-01
    8999.554      4.908   1.760  1.40104E+00  9.31234E-01  4.69805E-01
    9000.097      5.451   1.800  1.37690E+00  9.40021E-01  4.36878E-01
    9000.652      6.006   1.840  1.29869E+00  9.48376E-01  3.50317E-01
    9001.219      6.573   1.880  1.21307E+00  9.56274E-01  2.56791E-01
    9001.798      7.152   1.920  1.14380E+00  9.63734E-01  1.80062E-01
    9002.389      7.743   1.960  1.09686E+00  9.70712E-01  1.26143E-01
    9002.993      8.347   2.000  1.07115E+00  9.77251E-01  9.39027E-02
    9003.608      8.962   2.040  1.06404E+00  9.83331E-01  8.07134E-02
    9004.236      9.590   2.080  1.07009E+00  9.88952E-01  8.11385E-02
    9004.876     10.230   2.120  1.07898E+00  9.94120E-01  8.48590E-02
    9005.529     10.882   2.160  1.08077E+00  9.98836E-01  8.19335E-02
    9006.193     11.547   2.200  1.07063E+00  1.00312E+00  6.75018E-02
    9006.870     12.224   2.240  1.05129E+00  1.00697E+00  4.43142E-02
    9007.558     12.912   2.280  1.03146E+00  1.01043E+00  2.10348E-02
    9008.260     13.613   2.320  1.01746E+00  1.01347E+00  3.98344E-03
    9008.973     14.327   2.360  1.00799E+00  1.01612E+00 -8.12653E-03
    9009.698     15.052   2.400  9.98079E-01  1.01839E+00 -2.03124E-02
    9010.436     15.790   2.440  9.84726E-01  1.02032E+00 -3.55934E-02
    9011.186     16.540   2.480  9.69124E-01  1.02191E+00 -5.27880E-02
    9011.948     17.302   2.520  9.55874E-01  1.02316E+00 -6.72846E-02
    9012.722     18.076   2.560  9.49170E-01  1.02411E+00 -7.49381E-02
    9013.508     18.862   2.600  9.50193E-01  1.02479E+00 -7.45973E-02
    9014.307     19.661   2.640  9.56430E-01  1.02519E+00 -6.87644E-02
    9015.117     20.471   2.680  9.63840E-01  1.02533E+00 -6.14879E-02
    9015.940     21.294   2.720  9.67439E-01  1.02526E+00 -5.78248E-02
    9016.776     22.130   2.760  9.59856E-01  1.02497E+00 -6.51135E-02
    9017.623     22.977   2.800  9.45612E-01  1.02447E+00 -7.88613E-02
    9018.482     23.836   2.840  9.32958E-01  1.02381E+00 -9.08488E-02
    9019.354     24.708   2.880  9.25049E-01  1.02300E+00 -9.79511E-02
    9020.238     25.592   2.920  9.22283E-01  1.02202E+00 -9.97353E-02
    9021.134     26.488   2.960  9.23258E-01  1.02093E+00 -9.76744E-02
    9022.043     27.396   3.000  9.26306E-01  1.01975E+00 -9.34446E-02
    9022.963     28.317   3.040  9.30061E-01  1.01846E+00 -8.83995E-02
    9023.896     29.250   3.080  9.33840E-01  1.01709E+00 -8.32509E-02
    9024.841     30.195   3.120  9.37605E-01  1.01567E+00 -7.80625E-02
    9025.798     31.152   3.160  9.41562E-01  1.01420E+00 -7.26363E-02
    9026.767     32.121   3.200  9.45666E-01  1.01269E+00 -6.70228E-02
    9027.748     33.102   3.240  9.49953E-01  1.01114E+00 -6.11917E-02
    9028.742     34.096   3.280  9.54316E-01  1.00959E+00 -5.52755E-02
    9029.748     35.102   3.320  9.58652E-01  1.00804E+00 -4.93855E-02
    9030.766     36.120   3.360  9.63056E-01  1.00649E+00 -4.34302E-02
    9031.796     37.150   3.400  9.67770E-01  1.00497E+00 -3.71963E-02
    9032.838     38.192   3.440  9.72869E-01  1.00348E+00 -3.06104E-02
    9033.893     39.247   3.480  9.78211E-01  1.00201E+00 -2.37954E-02
    9034.960     40.314   3.520  9.83529E-01  1.00059E+00 -1.70654E-02
    9036.039     41.393   3.560  9.88541E-01  9.99229E-01 -1.06876E-02
    9037.130     42.484   3.600  9.93292E-01  9.97909E-01 -4.61634E-03
    9038.233     43.587   3.640  9.98195E-01  9.96659E-01  1.53690E-03
    9039.349     44.703   3.680  1.00380E+00  9.95461E-01  8.34407E-03
    9040.477     45.831   3.720  1.01067E+00  9.94338E-01  1.63270E-02
    9041.617     46.971   3.760  1.01916E+00  9.93315E-01  2.58456E-02
    9042.769     48.123   3.800  1.02934E+00  9.92349E-01  3.69955E-02
    9043.933     49.287   3.840  1.04095E+00  9.91462E-01  4.94842E-02
    9045.110     50.464   3.880  1.05333E+00  9.90656E-01  6.26768E-02
    9046.298     51.652   3.920  1.06569E+00  9.89931E-01  7.57612E-02
    9047.499     52.853   3.960  1.07718E+00  9.89311E-01  8.78716E-02
    9048.712     54.066   4.000  1.08690E+00  9.88752E-01  9.81491E-02
    9049.938     55.292   4.040  1.09423E+00  9.88298E-01  1.05933E-01
    9051.175     56.529   4.080  1.09858E+00  9.87926E-01  1.10650E-01
    9052.425     57.779   4.120  1.09947E+00  9.87637E-01  1.11836E-01
    9053.687     59.041   4.160  1.09663E+00  9.87428E-01  1.09205E-01
    9054.961     60.315   4.200  1.09006E+00  9.87301E-01  1.02756E-01
    9056.247     61.601   4.240  1.07993E+00  9.87253E-01  9.26720E-02
    9057.545     62.899   4.280  1.06670E+00  9.87284E-01  7.94148E-02
    9058.856     64.210   4.320  1.05113E+00  9.87393E-01  6.37344E-02
    9060.179     65.533   4.360  1.03408E+00  9.87579E-01  4.65045E-02
    9061.514     66.868   4.400  1.01649E+00  9.87818E-01  2.86678E-02
    9062.861     68.215   4.440  9.99314E-01  9.88129E-01  1.11843E-02
    9064.221     69.575   4.480  9.83398E-01  9.88513E-01 -5.11485E-03
    9065.592     70.946   4.520  9.69340E-01  9.88945E-01 -1.96050E-02
    9066.976     72.330   4.560  9.57475E-01  9.89423E-01 -3.19475E-02
    9068.372     73.726   4.600  9.47773E-01  9.89965E-01 -4.21915E-02
    9069.780     75.134   4.640  9.39863E-01  9.90527E-01 -5.06643E-02
    9071.200     76.554   4.680  9.33412E-01  9.91151E-01 -5.77395E-02
    9072.633     77.987   4.720  9.28055E-01  9.91814E-01 -6.37592E-02
    9074.078     79.432   4.760  9.23647E-01  9.92489E-01 -6.88415E-02
    9075.535     80.889   4.800  9.20306E-01  9.93193E-01 -7.28874E-02
    9077.004     82.358   4.840  9.18248E-01  9.93906E-01 -7.56572E-02
    9078.485     83.839   4.880  9.17831E-01  9.94622E-01 -7.67910E-02
    9079.979     85.333   4.920  9.19499E-01  9.95365E-01 -7.58658E-02
    9081.484     86.838   4.960  9.23506E-01  9.96110E-01 -7.26031E-02
    9083.002     88.356   5.000  9.29946E-01  9.96851E-01 -6.69056E-02
    9084.532     89.886   5.040  9.38597E-01  9.97565E-01 -5.89676E-02
    9086.075     91.429   5.080  9.49040E-01  9.98272E-01 -4.92314E-02
    9087.629     92.983   5.120  9.60661E-01  9.98970E-01 -3.83085E-02
    9089.196     94.550   5.160  9.72736E-01  9.99633E-01 -2.68978E-02
    9090.775     96.129   5.200  9.84625E-01  1.00026E+00 -1.56372E-02
    9092.366     97.720   5.240  9.95851E-01  1.00087E+00 -5.02326E-03
    9093.969     99.323   5.280  1.00602E+00  1.00142E+00  4.59703E-03
    9095.584    100.938   5.320  1.01494E+00  1.00195E+00  1.29830E-02
    9097.212    102.566   5.360  1.02234E+00  1.00242E+00  1.99255E-02
    9098.852    104.206   5.400  1.02803E+00  1.00284E+00  2.51877E-02
    9100.504    105.858   5.440  1.03170E+00  1.00321E+00  2.84911E-02
    9102.168    107.522   5.480  1.03312E+00  1.00351E+00  2.96088E-02
    9103.844    109.198   5.520  1.03227E+00  1.00377E+00  2.85029E-02
    9105.533    110.887   5.560  1.02936E+00  1.00398E+00  2.53863E-02
    9107.234    112.588   5.600  1.02481E+00  1.00411E+00  2.06968E-02
    9108.947    114.301   5.640  1.01918E+00  1.00417E+00  1.50082E-02
    9110.672    116.026   5.680  1.01317E+00  1.00418E+00  8.99219E-03
    9112.409    117.763   5.720  1.00753E+00  1.00412E+00  3.41797E-03
    9114.159    119.513   5.760  1.00310E+00  1.00400E+00 -8.99645E-04
    9115.921    121.274   5.800  1.00057E+00  1.00382E+00 -3.25354E-03
    9117.694    123.048   5.840  1.00032E+00  1.00359E+00 -3.26348E-03
    9119.481    124.835   5.880  1.00223E+00  1.00328E+00 -1.05781E-03
    9121.279    126.633   5.920  1.00563E+00  1.00291E+00  2.72045E-03
    9123.089    128.443   5.960  1.00961E+00  1.00249E+00  7.12069E-03
    9124.912    130.266   6.000  1.01319E+00  1.00198E+00  1.12109E-02
