# # comment:                                                     FEFF 9.9.1  
# # Source:
# # Structure
# # Reduced
# # space
# # abc:
# # angles:
# # sites:
# # POT  SCF 100  7.0000   0, screened core-hole, AFOLP (folp(0)= 1.150)
# # Abs   Z=29 Rmt= 1.271 Rnm= 1.368 K  shell
# # Pot 1 Z=29 Rmt= 1.271 Rnm= 1.368
# # Pot 2 Z= 1 Rmt= 0.659 Rnm= 0.803
# # Pot 3 Z= 6 Rmt= 0.691 Rnm= 0.957
# # Pot 4 Z= 8 Rmt= 0.999 Rnm= 1.115
# # Gam_ch=1.729E+00 H-L exch Vi= 0.000E+00 Vr= 0.000E+00
# # Mu=-7.039E+00eV kf=2.275E+00 Vint=-1.502E+01eV Rs_int= 1.594
# FMS rfms= 9.0000
# # PATH  Rmax=-1.000,  Keep_limit= 0.00, Heap_limit 0.00  Pwcrit= 2.50%
#  S02=0.950  Temp=   0.00  Debye_temp=   0.00  Global_sig2= 0.00000
#  Energy zero shift, vr, vi    0.00000E+00   0.00000E+00
#  Curved wave amplitude ratio filter   4.000%
#     file         sig2 tot  cw amp ratio   deg  nlegs   reff  inp sig2
#     0/   0 paths used
#  xsedge+ 50, used to normalize mu           2.4575E-04
#  -----------------------------------------------------------------------
#  omega    e    k    mu    mu0     chi     @#
    8983.349    -10.849  -1.000  3.78404E-02  5.31713E-02 -1.53308E-02
    8983.648    -10.551  -0.960  3.97272E-02  5.69944E-02 -1.72672E-02
    8983.935    -10.264  -0.920  4.17359E-02  6.12380E-02 -1.95021E-02
    8984.209     -9.990  -0.880  4.38760E-02  6.59636E-02 -2.20876E-02
    8984.471     -9.728  -0.840  4.61575E-02  7.12424E-02 -2.50850E-02
    8984.721     -9.478  -0.800  4.85909E-02  7.71572E-02 -2.85663E-02
    8984.959     -9.240  -0.760  5.11875E-02  8.38025E-02 -3.26151E-02
    8985.184     -9.014  -0.720  5.39585E-02  9.12855E-02 -3.73270E-02
    8985.398     -8.801  -0.680  5.69151E-02  9.97236E-02 -4.28085E-02
    8985.599     -8.600  -0.640  6.00673E-02  1.09241E-01 -4.91736E-02
    8985.788     -8.411  -0.600  6.34225E-02  1.19959E-01 -5.65366E-02
    8985.965     -8.234  -0.560  6.69832E-02  1.31982E-01 -6.49985E-02
    8986.129     -8.070  -0.520  7.07434E-02  1.45370E-01 -7.46264E-02
    8986.282     -7.917  -0.480  7.46844E-02  1.60109E-01 -8.54243E-02
    8986.422     -7.777  -0.440  7.87697E-02  1.76069E-01 -9.72998E-02
    8986.550     -7.649  -0.400  8.29405E-02  1.92976E-01 -1.10035E-01
    8986.666     -7.533  -0.360  8.71153E-02  2.10394E-01 -1.23279E-01
    8986.769     -7.429  -0.320  9.11941E-02  2.27761E-01 -1.36567E-01
    8986.861     -7.338  -0.280  9.50673E-02  2.44451E-01 -1.49384E-01
    8986.940     -7.259  -0.240  9.86288E-02  2.59861E-01 -1.61232E-01
    8987.007     -7.192  -0.200  1.01785E-01  2.73484E-01 -1.71699E-01
    8987.062     -7.137  -0.160  1.04462E-01  2.84949E-01 -1.80488E-01
    8987.105     -7.094  -0.120  1.06600E-01  2.94017E-01 -1.87417E-01
    8987.135     -7.064  -0.080  1.08159E-01  3.00552E-01 -1.92392E-01
    8987.159     -7.039   0.000  1.09436E-01  3.05804E-01 -1.96368E-01
    8987.214     -6.984   0.120  1.12440E-01  3.17655E-01 -2.05215E-01
    8987.257     -6.942   0.160  1.14739E-01  3.26864E-01 -2.12125E-01
    8987.312     -6.887   0.200  1.17744E-01  3.38652E-01 -2.20908E-01
    8987.379     -6.820   0.240  1.21404E-01  3.52829E-01 -2.31424E-01
    8987.458     -6.741   0.280  1.25804E-01  3.69144E-01 -2.43340E-01
    8987.550     -6.649   0.320  1.30961E-01  3.87203E-01 -2.56242E-01
    8987.653     -6.546   0.360  1.36950E-01  4.06489E-01 -2.69539E-01
    8987.769     -6.430   0.400  1.43955E-01  4.26474E-01 -2.82519E-01
    8987.897     -6.302   0.440  1.52187E-01  4.46655E-01 -2.94468E-01
    8988.037     -6.161   0.480  1.62042E-01  4.66637E-01 -3.04594E-01
    8988.190     -6.009   0.520  1.74066E-01  4.86222E-01 -3.12156E-01
    8988.354     -5.844   0.560  1.88799E-01  5.05239E-01 -3.16440E-01
    8988.531     -5.668   0.600  2.06986E-01  5.23675E-01 -3.16688E-01
    8988.720     -5.479   0.640  2.29318E-01  5.41561E-01 -3.12243E-01
    8988.921     -5.278   0.680  2.56505E-01  5.58982E-01 -3.02477E-01
    8989.135     -5.064   0.720  2.89025E-01  5.76015E-01 -2.86990E-01
    8989.360     -4.839   0.760  3.26911E-01  5.92713E-01 -2.65801E-01
    8989.598     -4.601   0.800  3.69775E-01  6.09163E-01 -2.39388E-01
    8989.848     -4.351   0.840  4.16472E-01  6.25396E-01 -2.08924E-01
    8990.110     -4.089   0.880  4.63933E-01  6.41474E-01 -1.77541E-01
    8990.384     -3.815   0.920  5.05694E-01  6.57403E-01 -1.51710E-01
    8990.671     -3.528   0.960  5.34779E-01  6.73220E-01 -1.38440E-01
    8990.969     -3.229   1.000  5.50416E-01  6.88886E-01 -1.38471E-01
    8991.280     -2.918   1.040  5.58584E-01  7.04422E-01 -1.45838E-01
    8991.603     -2.595   1.080  5.63435E-01  7.19795E-01 -1.56361E-01
    8991.939     -2.260   1.120  5.63740E-01  7.34992E-01 -1.71252E-01
    8992.286     -1.913   1.160  5.59016E-01  7.49992E-01 -1.90976E-01
    8992.646     -1.553   1.200  5.53807E-01  7.64771E-01 -2.10963E-01
    8993.018     -1.181   1.240  5.56935E-01  7.79280E-01 -2.22345E-01
    8993.402     -0.797   1.280  5.75235E-01  7.93491E-01 -2.18257E-01
    8993.798     -0.401   1.320  6.08139E-01  8.07397E-01 -1.99258E-01
    8994.206      0.008   1.360  6.49436E-01  8.20926E-01 -1.71490E-01
    8994.627      0.428   1.400  6.88882E-01  8.34087E-01 -1.45205E-01
    8995.060      0.861   1.440  7.15592E-01  8.46829E-01 -1.31237E-01
    8995.505      1.306   1.480  7.30106E-01  8.59124E-01 -1.29019E-01
    8995.962      1.763   1.520  7.47482E-01  8.70963E-01 -1.23481E-01
    8996.431      2.233   1.560  7.81326E-01  8.82316E-01 -1.00989E-01
    8996.913      2.714   1.600  8.32791E-01  8.93178E-01 -6.03870E-02
    8997.407      3.208   1.640  8.95115E-01  9.03525E-01 -8.40942E-03
    8997.913      3.714   1.680  9.67021E-01  9.13330E-01  5.36912E-02
    8998.431      4.232   1.720  1.05622E+00  9.22613E-01  1.33610E-01
    8998.961      4.763   1.760  1.16454E+00  9.31352E-01  2.33185E-01
    8999.504      5.305   1.800  1.28246E+00  9.39570E-01  3.42888E-01
    9000.059      5.860   1.840  1.39384E+00  9.47247E-01  4.46593E-01
    9000.625      6.427   1.880  1.47231E+00  9.54388E-01  5.17919E-01
    9001.205      7.006   1.920  1.49496E+00  9.61016E-01  5.33944E-01
    9001.796      7.597   1.960  1.45714E+00  9.67138E-01  4.90003E-01
    9002.399      8.201   2.000  1.36552E+00  9.72738E-01  3.92783E-01
    9003.015      8.816   2.040  1.24666E+00  9.77867E-01  2.68797E-01
    9003.643      9.444   2.080  1.14176E+00  9.82534E-01  1.59222E-01
    9004.283     10.084   2.120  1.06986E+00  9.86748E-01  8.31135E-02
    9004.935     10.737   2.160  1.02742E+00  9.90516E-01  3.69081E-02
    9005.600     11.401   2.200  1.00866E+00  9.93890E-01  1.47695E-02
    9006.276     12.078   2.240  1.01124E+00  9.96861E-01  1.43818E-02
    9006.965     12.767   2.280  1.03521E+00  9.99438E-01  3.57754E-02
    9007.666     13.468   2.320  1.07578E+00  1.00170E+00  7.40823E-02
    9008.380     14.181   2.360  1.11626E+00  1.00362E+00  1.12641E-01
    9009.105     14.906   2.400  1.13943E+00  1.00523E+00  1.34204E-01
    9009.843     15.644   2.440  1.14121E+00  1.00655E+00  1.34658E-01
    9010.592     16.394   2.480  1.13185E+00  1.00761E+00  1.24242E-01
    9011.354     17.156   2.520  1.12222E+00  1.00840E+00  1.13819E-01
    9012.129     17.930   2.560  1.10773E+00  1.00900E+00  9.87306E-02
    9012.915     18.716   2.600  1.07913E+00  1.00939E+00  6.97341E-02
    9013.714     19.515   2.640  1.04186E+00  1.00959E+00  3.22684E-02
    9014.524     20.326   2.680  1.00868E+00  1.00962E+00 -9.38474E-04
    9015.347     21.148   2.720  9.86208E-01  1.00949E+00 -2.32794E-02
    9016.182     21.984   2.760  9.69742E-01  1.00923E+00 -3.94877E-02
    9017.030     22.831   2.800  9.55976E-01  1.00887E+00 -5.28942E-02
    9017.889     23.691   2.840  9.44193E-01  1.00840E+00 -6.42040E-02
    9018.761     24.562   2.880  9.34061E-01  1.00784E+00 -7.37794E-02
    9019.645     25.446   2.920  9.25165E-01  1.00720E+00 -8.20390E-02
    9020.541     26.342   2.960  9.17162E-01  1.00652E+00 -8.93548E-02
    9021.449     27.251   3.000  9.09543E-01  1.00578E+00 -9.62411E-02
    9022.370     28.171   3.040  9.02186E-01  1.00501E+00 -1.02825E-01
    9023.302     29.104   3.080  8.95429E-01  1.00420E+00 -1.08774E-01
    9024.247     30.049   3.120  8.89680E-01  1.00338E+00 -1.13704E-01
    9025.204     31.006   3.160  8.85280E-01  1.00256E+00 -1.17283E-01
    9026.174     31.975   3.200  8.82486E-01  1.00174E+00 -1.19254E-01
    9027.155     32.956   3.240  8.81268E-01  1.00092E+00 -1.19652E-01
    9028.149     33.950   3.280  8.81386E-01  1.00013E+00 -1.18742E-01
    9029.155     34.956   3.320  8.82857E-01  9.99345E-01 -1.16488E-01
    9030.173     35.974   3.360  8.85895E-01  9.98593E-01 -1.12697E-01
    9031.203     37.004   3.400  8.90679E-01  9.97856E-01 -1.07177E-01
    9032.245     38.047   3.440  8.97329E-01  9.97178E-01 -9.98492E-02
    9033.300     39.101   3.480  9.05816E-01  9.96540E-01 -9.07239E-02
    9034.367     40.168   3.520  9.15945E-01  9.95922E-01 -7.99773E-02
    9035.446     41.247   3.560  9.27374E-01  9.95368E-01 -6.79936E-02
    9036.537     42.338   3.600  9.39794E-01  9.94880E-01 -5.50865E-02
    9037.640     43.441   3.640  9.52820E-01  9.94415E-01 -4.15955E-02
    9038.756     44.557   3.680  9.66146E-01  9.94016E-01 -2.78693E-02
    9039.884     45.685   3.720  9.79480E-01  9.93664E-01 -1.41842E-02
    9041.023     46.825   3.760  9.92667E-01  9.93379E-01 -7.11605E-04
    9042.176     47.977   3.800  1.00553E+00  9.93118E-01  1.24126E-02
    9043.340     49.141   3.840  1.01802E+00  9.92945E-01  2.50743E-02
    9044.516     50.318   3.880  1.03004E+00  9.92799E-01  3.72392E-02
    9045.705     51.506   3.920  1.04151E+00  9.92721E-01  4.87914E-02
    9046.906     52.707   3.960  1.05215E+00  9.92710E-01  5.94434E-02
    9048.119     53.920   4.000  1.06155E+00  9.92722E-01  6.88317E-02
    9049.344     55.146   4.040  1.06927E+00  9.92798E-01  7.64700E-02
    9050.582     56.383   4.080  1.07476E+00  9.92917E-01  8.18397E-02
    9051.832     57.633   4.120  1.07771E+00  9.93079E-01  8.46305E-02
    9053.094     58.895   4.160  1.07816E+00  9.93282E-01  8.48749E-02
    9054.368     60.169   4.200  1.07653E+00  9.93525E-01  8.30027E-02
    9055.654     61.455   4.240  1.07350E+00  9.93828E-01  7.96757E-02
    9056.952     62.754   4.280  1.06981E+00  9.94148E-01  7.56616E-02
    9058.263     64.064   4.320  1.06590E+00  9.94482E-01  7.14181E-02
    9059.586     65.387   4.360  1.06198E+00  9.94870E-01  6.71082E-02
    9060.921     66.722   4.400  1.05800E+00  9.95272E-01  6.27281E-02
    9062.268     68.069   4.440  1.05394E+00  9.95708E-01  5.82308E-02
    9063.627     69.429   4.480  1.04975E+00  9.96174E-01  5.35718E-02
    9064.999     70.800   4.520  1.04540E+00  9.96647E-01  4.87504E-02
    9066.383     72.184   4.560  1.04090E+00  9.97124E-01  4.37745E-02
    9067.779     73.580   4.600  1.03616E+00  9.97605E-01  3.85502E-02
    9069.187     74.988   4.640  1.03105E+00  9.98111E-01  3.29396E-02
    9070.607     76.408   4.680  1.02542E+00  9.98617E-01  2.68075E-02
    9072.040     77.841   4.720  1.01913E+00  9.99101E-01  2.00331E-02
    9073.485     79.286   4.760  1.01217E+00  9.99605E-01  1.25694E-02
    9074.941     80.743   4.800  1.00451E+00  1.00011E+00  4.40561E-03
    9076.411     82.212   4.840  9.96247E-01  1.00058E+00 -4.33370E-03
    9077.892     83.693   4.880  9.87758E-01  1.00105E+00 -1.32915E-02
    9079.385     85.187   4.920  9.79561E-01  1.00151E+00 -2.19478E-02
    9080.891     86.692   4.960  9.72173E-01  1.00194E+00 -2.97650E-02
    9082.409     88.210   5.000  9.66006E-01  1.00236E+00 -3.63508E-02
    9083.939     89.740   5.040  9.61182E-01  1.00274E+00 -4.15599E-02
    9085.481     91.283   5.080  9.57687E-01  1.00309E+00 -4.54041E-02
    9087.036     92.837   5.120  9.55369E-01  1.00343E+00 -4.80615E-02
    9088.603     94.404   5.160  9.53932E-01  1.00376E+00 -4.98244E-02
    9090.181     95.983   5.200  9.52986E-01  1.00402E+00 -5.10380E-02
    9091.772     97.574   5.240  9.52270E-01  1.00427E+00 -5.20041E-02
    9093.376     99.177   5.280  9.51601E-01  1.00449E+00 -5.28843E-02
    9094.991    100.792   5.320  9.50945E-01  1.00464E+00 -5.36909E-02
    9096.619    102.420   5.360  9.50542E-01  1.00477E+00 -5.42263E-02
    9098.259    104.060   5.400  9.50770E-01  1.00489E+00 -5.41158E-02
    9099.911    105.712   5.440  9.52002E-01  1.00494E+00 -5.29385E-02
    9101.575    107.376   5.480  9.54482E-01  1.00495E+00 -5.04698E-02
    9103.251    109.052   5.520  9.58209E-01  1.00492E+00 -4.67148E-02
    9104.940    110.741   5.560  9.63014E-01  1.00486E+00 -4.18424E-02
    9106.641    112.442   5.600  9.68673E-01  1.00477E+00 -3.60987E-02
    9108.354    114.155   5.640  9.74868E-01  1.00462E+00 -2.97554E-02
    9110.079    115.880   5.680  9.81370E-01  1.00444E+00 -2.30651E-02
    9111.816    117.617   5.720  9.88006E-01  1.00423E+00 -1.62262E-02
    9113.566    119.367   5.760  9.94600E-01  1.00397E+00 -9.36839E-03
    9115.327    121.129   5.800  1.00114E+00  1.00369E+00 -2.54835E-03
    9117.101    122.902   5.840  1.00763E+00  1.00338E+00  4.25652E-03
    9118.887    124.689   5.880  1.01412E+00  1.00303E+00  1.10937E-02
    9120.686    126.487   5.920  1.02057E+00  1.00264E+00  1.79287E-02
    9122.496    128.297   5.960  1.02676E+00  1.00223E+00  2.45310E-02
    9124.319    130.120   6.000  1.03234E+00  1.00178E+00  3.05554E-02
