# # comment:                                                     FEFF 9.9.1  
# # Source:
# # Structure
# # Reduced
# # space
# # abc:
# # angles:
# # sites:
# # POT  SCF 100  7.0000   0, screened core-hole, AFOLP (folp(0)= 1.150)
# # Abs   Z=29 Rmt= 1.214 Rnm= 1.322 K  shell
# # Pot 1 Z=29 Rmt= 1.196 Rnm= 1.312
# # Pot 2 Z= 5 Rmt= 0.742 Rnm= 0.986
# # Pot 3 Z= 8 Rmt= 1.022 Rnm= 1.120
# # Gam_ch=1.729E+00 H-L exch Vi= 0.000E+00 Vr= 0.000E+00
# # Mu=-7.269E+00eV kf=2.217E+00 Vint=-1.545E+01eV Rs_int= 1.636
# FMS rfms= 9.0000
# # PATH  Rmax=-1.000,  Keep_limit= 0.00, Heap_limit 0.00  Pwcrit= 2.50%
#  S02=0.950  Temp=   0.00  Debye_temp=   0.00  Global_sig2= 0.00000
#  Energy zero shift, vr, vi    0.00000E+00   0.00000E+00
#  Curved wave amplitude ratio filter   4.000%
#     file         sig2 tot  cw amp ratio   deg  nlegs   reff  inp sig2
#     0/   0 paths used
#  xsedge+ 50, used to normalize mu           2.4506E-04
#  -----------------------------------------------------------------------
#  omega    e    k    mu    mu0     chi     @#
    8983.466    -11.079  -1.000  3.50322E-02  5.56910E-02 -2.06588E-02
    8983.765    -10.780  -0.960  3.65975E-02  5.97533E-02 -2.31558E-02
    8984.052    -10.494  -0.920  3.82505E-02  6.42667E-02 -2.60161E-02
    8984.326    -10.220  -0.880  3.99980E-02  6.92972E-02 -2.92992E-02
    8984.588     -9.958  -0.840  4.18475E-02  7.49220E-02 -3.30744E-02
    8984.838     -9.708  -0.800  4.38077E-02  8.12300E-02 -3.74223E-02
    8985.076     -9.470  -0.760  4.58882E-02  8.83235E-02 -4.24353E-02
    8985.301     -9.244  -0.720  4.80996E-02  9.63178E-02 -4.82182E-02
    8985.515     -9.031  -0.680  5.04534E-02  1.05340E-01 -5.48866E-02
    8985.716     -8.830  -0.640  5.29612E-02  1.15524E-01 -6.25630E-02
    8985.905     -8.641  -0.600  5.56333E-02  1.27002E-01 -7.13683E-02
    8986.082     -8.464  -0.560  5.84766E-02  1.39884E-01 -8.14079E-02
    8986.246     -8.299  -0.520  6.14908E-02  1.54239E-01 -9.27483E-02
    8986.399     -8.147  -0.480  6.46637E-02  1.70050E-01 -1.05387E-01
    8986.539     -8.007  -0.440  6.79649E-02  1.87179E-01 -1.19215E-01
    8986.667     -7.879  -0.400  7.13421E-02  2.05329E-01 -1.33987E-01
    8986.783     -7.763  -0.360  7.47196E-02  2.24033E-01 -1.49313E-01
    8986.886     -7.659  -0.320  7.80043E-02  2.42683E-01 -1.64679E-01
    8986.978     -7.568  -0.280  8.10968E-02  2.60607E-01 -1.79510E-01
    8987.057     -7.489  -0.240  8.39059E-02  2.77155E-01 -1.93249E-01
    8987.124     -7.422  -0.200  8.63593E-02  2.91783E-01 -2.05424E-01
    8987.179     -7.367  -0.160  8.84076E-02  3.04092E-01 -2.15684E-01
    8987.222     -7.324  -0.120  9.00214E-02  3.13825E-01 -2.23803E-01
    8987.252     -7.294  -0.080  9.11849E-02  3.20839E-01 -2.29654E-01
    8987.276     -7.269   0.000  9.21312E-02  3.26476E-01 -2.34345E-01
    8987.331     -7.214   0.120  9.43242E-02  3.39183E-01 -2.44859E-01
    8987.374     -7.172   0.160  9.59741E-02  3.49064E-01 -2.53090E-01
    8987.429     -7.117   0.200  9.80401E-02  3.61695E-01 -2.63655E-01
    8987.496     -7.050   0.240  1.00469E-01  3.76891E-01 -2.76423E-01
    8987.575     -6.970   0.280  1.03220E-01  3.94359E-01 -2.91138E-01
    8987.667     -6.879   0.320  1.06235E-01  4.13686E-01 -3.07450E-01
    8987.770     -6.775   0.360  1.09409E-01  4.34273E-01 -3.24864E-01
    8987.886     -6.660   0.400  1.12790E-01  4.55587E-01 -3.42797E-01
    8988.014     -6.532   0.440  1.16399E-01  4.77062E-01 -3.60663E-01
    8988.154     -6.391   0.480  1.20440E-01  4.98311E-01 -3.77871E-01
    8988.307     -6.239   0.520  1.25071E-01  5.19014E-01 -3.93943E-01
    8988.471     -6.074   0.560  1.30636E-01  5.39090E-01 -4.08454E-01
    8988.648     -5.898   0.600  1.37452E-01  5.58464E-01 -4.21012E-01
    8988.837     -5.709   0.640  1.45902E-01  5.77211E-01 -4.31309E-01
    8989.038     -5.507   0.680  1.56363E-01  5.95362E-01 -4.38999E-01
    8989.252     -5.294   0.720  1.69400E-01  6.13040E-01 -4.43640E-01
    8989.477     -5.069   0.760  1.85608E-01  6.30307E-01 -4.44700E-01
    8989.715     -4.831   0.800  2.05998E-01  6.47237E-01 -4.41240E-01
    8989.965     -4.581   0.840  2.32169E-01  6.63888E-01 -4.31719E-01
    8990.227     -4.319   0.880  2.66265E-01  6.80283E-01 -4.14018E-01
    8990.501     -4.044   0.920  3.09948E-01  6.96476E-01 -3.86528E-01
    8990.788     -3.758   0.960  3.61817E-01  7.12463E-01 -3.50646E-01
    8991.086     -3.459   1.000  4.15298E-01  7.28254E-01 -3.12956E-01
    8991.397     -3.148   1.040  4.61344E-01  7.43827E-01 -2.82483E-01
    8991.720     -2.825   1.080  4.95359E-01  7.59173E-01 -2.63813E-01
    8992.056     -2.490   1.120  5.20709E-01  7.74279E-01 -2.53570E-01
    8992.403     -2.142   1.160  5.42601E-01  7.89126E-01 -2.46525E-01
    8992.763     -1.783   1.200  5.63194E-01  8.03669E-01 -2.40475E-01
    8993.135     -1.411   1.240  5.88692E-01  8.17886E-01 -2.29193E-01
    8993.519     -1.027   1.280  6.26744E-01  8.31746E-01 -2.05001E-01
    8993.915     -0.631   1.320  6.75281E-01  8.45201E-01 -1.69920E-01
    8994.323     -0.222   1.360  7.27108E-01  8.58244E-01 -1.31136E-01
    8994.744      0.198   1.400  7.77884E-01  8.70845E-01 -9.29608E-02
    8995.177      0.631   1.440  8.22593E-01  8.82975E-01 -6.03816E-02
    8995.622      1.076   1.480  8.59744E-01  8.94626E-01 -3.48826E-02
    8996.079      1.533   1.520  8.95833E-01  9.05752E-01 -9.91899E-03
    8996.548      2.003   1.560  9.32233E-01  9.16325E-01  1.59076E-02
    8997.030      2.484   1.600  9.62724E-01  9.26383E-01  3.63407E-02
    8997.524      2.978   1.640  9.86892E-01  9.35882E-01  5.10098E-02
    8998.030      3.484   1.680  1.01521E+00  9.44800E-01  7.04138E-02
    8998.548      4.002   1.720  1.06059E+00  9.53178E-01  1.07408E-01
    8999.078      4.533   1.760  1.12609E+00  9.60977E-01  1.65114E-01
    8999.621      5.075   1.800  1.19857E+00  9.68219E-01  2.30355E-01
    9000.176      5.630   1.840  1.26041E+00  9.74911E-01  2.85503E-01
    9000.742      6.197   1.880  1.30914E+00  9.81057E-01  3.28083E-01
    9001.322      6.776   1.920  1.34127E+00  9.86684E-01  3.54584E-01
    9001.913      7.367   1.960  1.35211E+00  9.91781E-01  3.60332E-01
    9002.516      7.971   2.000  1.34706E+00  9.96375E-01  3.50687E-01
    9003.132      8.586   2.040  1.32681E+00  1.00050E+00  3.26312E-01
    9003.760      9.214   2.080  1.28612E+00  1.00413E+00  2.81986E-01
    9004.400      9.854   2.120  1.22888E+00  1.00734E+00  2.21535E-01
    9005.052     10.507   2.160  1.16999E+00  1.01013E+00  1.59860E-01
    9005.717     11.171   2.200  1.12769E+00  1.01251E+00  1.15180E-01
    9006.393     11.848   2.240  1.10892E+00  1.01452E+00  9.44035E-02
    9007.082     12.537   2.280  1.10998E+00  1.01618E+00  9.38027E-02
    9007.783     13.238   2.320  1.12728E+00  1.01748E+00  1.09800E-01
    9008.497     13.951   2.360  1.14971E+00  1.01849E+00  1.31222E-01
    9009.222     14.676   2.400  1.16275E+00  1.01923E+00  1.43522E-01
    9009.960     15.414   2.440  1.16587E+00  1.01969E+00  1.46173E-01
    9010.709     16.164   2.480  1.16021E+00  1.01991E+00  1.40296E-01
    9011.471     16.926   2.520  1.14530E+00  1.01994E+00  1.25365E-01
    9012.246     17.700   2.560  1.12854E+00  1.01974E+00  1.08799E-01
    9013.032     18.486   2.600  1.11499E+00  1.01937E+00  9.56201E-02
    9013.831     19.285   2.640  1.09445E+00  1.01886E+00  7.55910E-02
    9014.641     20.096   2.680  1.06707E+00  1.01819E+00  4.88763E-02
    9015.464     20.919   2.720  1.03633E+00  1.01740E+00  1.89249E-02
    9016.299     21.754   2.760  1.00621E+00  1.01652E+00 -1.03076E-02
    9017.147     22.601   2.800  9.79410E-01  1.01553E+00 -3.61182E-02
    9018.006     23.461   2.840  9.57489E-01  1.01448E+00 -5.69879E-02
    9018.878     24.332   2.880  9.40012E-01  1.01338E+00 -7.33629E-02
    9019.762     25.216   2.920  9.25597E-01  1.01221E+00 -8.66125E-02
    9020.658     26.112   2.960  9.13510E-01  1.01102E+00 -9.75149E-02
    9021.566     27.021   3.000  9.03514E-01  1.00981E+00 -1.06293E-01
    9022.487     27.941   3.040  8.95858E-01  1.00858E+00 -1.12725E-01
    9023.419     28.874   3.080  8.90793E-01  1.00736E+00 -1.16566E-01
    9024.364     29.819   3.120  8.88041E-01  1.00616E+00 -1.18119E-01
    9025.321     30.776   3.160  8.86951E-01  1.00497E+00 -1.18016E-01
    9026.291     31.745   3.200  8.87022E-01  1.00379E+00 -1.16765E-01
    9027.272     32.726   3.240  8.88098E-01  1.00266E+00 -1.14563E-01
    9028.266     33.720   3.280  8.90057E-01  1.00155E+00 -1.11498E-01
    9029.272     34.726   3.320  8.93016E-01  1.00051E+00 -1.07495E-01
    9030.290     35.744   3.360  8.97118E-01  9.99509E-01 -1.02392E-01
    9031.320     36.774   3.400  9.02309E-01  9.98554E-01 -9.62448E-02
    9032.362     37.817   3.440  9.08407E-01  9.97646E-01 -8.92386E-02
    9033.417     38.871   3.480  9.15270E-01  9.96808E-01 -8.15384E-02
    9034.484     39.938   3.520  9.22762E-01  9.96046E-01 -7.32840E-02
    9035.563     41.017   3.560  9.30731E-01  9.95357E-01 -6.46268E-02
    9036.654     42.108   3.600  9.39174E-01  9.94721E-01 -5.55470E-02
    9037.757     43.212   3.640  9.48085E-01  9.94159E-01 -4.60739E-02
    9038.873     44.327   3.680  9.57236E-01  9.93652E-01 -3.64154E-02
    9040.001     45.455   3.720  9.66269E-01  9.93241E-01 -2.69719E-02
    9041.140     46.595   3.760  9.74659E-01  9.92885E-01 -1.82257E-02
    9042.293     47.747   3.800  9.81923E-01  9.92604E-01 -1.06809E-02
    9043.457     48.911   3.840  9.87813E-01  9.92398E-01 -4.58477E-03
    9044.633     50.088   3.880  9.92553E-01  9.92246E-01  3.06491E-04
    9045.822     51.277   3.920  9.96738E-01  9.92168E-01  4.57049E-03
    9047.023     52.477   3.960  1.00097E+00  9.92164E-01  8.80177E-03
    9048.236     53.691   4.000  1.00554E+00  9.92211E-01  1.33293E-02
    9049.462     54.916   4.040  1.01050E+00  9.92330E-01  1.81729E-02
    9050.699     56.153   4.080  1.01572E+00  9.92520E-01  2.31951E-02
    9051.949     57.403   4.120  1.02110E+00  9.92738E-01  2.83579E-02
    9053.211     58.665   4.160  1.02688E+00  9.93043E-01  3.38340E-02
    9054.485     59.939   4.200  1.03321E+00  9.93373E-01  3.98344E-02
    9055.771     61.225   4.240  1.04015E+00  9.93768E-01  4.63808E-02
    9057.069     62.524   4.280  1.04737E+00  9.94203E-01  5.31699E-02
    9058.380     63.834   4.320  1.05425E+00  9.94658E-01  5.95886E-02
    9059.703     65.157   4.360  1.06013E+00  9.95172E-01  6.49568E-02
    9061.038     66.492   4.400  1.06463E+00  9.95724E-01  6.89019E-02
    9062.385     67.839   4.440  1.06781E+00  9.96289E-01  7.15173E-02
    9063.744     69.199   4.480  1.06996E+00  9.96885E-01  7.30795E-02
    9065.116     70.570   4.520  1.07128E+00  9.97491E-01  7.37846E-02
    9066.500     71.954   4.560  1.07178E+00  9.98127E-01  7.36511E-02
    9067.896     73.350   4.600  1.07128E+00  9.98769E-01  7.25135E-02
    9069.304     74.758   4.640  1.06957E+00  9.99437E-01  7.01329E-02
    9070.724     76.179   4.680  1.06654E+00  1.00011E+00  6.64280E-02
    9072.157     77.611   4.720  1.06213E+00  1.00076E+00  6.13755E-02
    9073.602     79.056   4.760  1.05640E+00  1.00143E+00  5.49735E-02
    9075.058     80.513   4.800  1.04924E+00  1.00209E+00  4.71516E-02
    9076.528     81.982   4.840  1.04052E+00  1.00273E+00  3.77883E-02
    9078.009     83.463   4.880  1.03030E+00  1.00336E+00  2.69487E-02
    9079.502     84.957   4.920  1.01902E+00  1.00395E+00  1.50666E-02
    9081.008     86.463   4.960  1.00747E+00  1.00454E+00  2.92930E-03
    9082.526     87.980   5.000  9.96579E-01  1.00509E+00 -8.51403E-03
    9084.056     89.510   5.040  9.87094E-01  1.00563E+00 -1.85402E-02
    9085.598     91.053   5.080  9.79292E-01  1.00614E+00 -2.68474E-02
    9087.153     92.607   5.120  9.73075E-01  1.00661E+00 -3.35330E-02
    9088.720     94.174   5.160  9.68166E-01  1.00706E+00 -3.88925E-02
    9090.298     95.753   5.200  9.64280E-01  1.00745E+00 -4.31659E-02
    9091.889     97.344   5.240  9.61327E-01  1.00779E+00 -4.64648E-02
    9093.493     98.947   5.280  9.59311E-01  1.00812E+00 -4.88077E-02
    9095.108    100.562   5.320  9.58125E-01  1.00838E+00 -5.02559E-02
    9096.736    102.190   5.360  9.57820E-01  1.00860E+00 -5.07786E-02
    9098.376    103.830   5.400  9.58479E-01  1.00877E+00 -5.02930E-02
    9100.028    105.482   5.440  9.60198E-01  1.00890E+00 -4.87032E-02
    9101.692    107.146   5.480  9.62920E-01  1.00896E+00 -4.60439E-02
    9103.368    108.823   5.520  9.66538E-01  1.00900E+00 -4.24660E-02
    9105.057    110.511   5.560  9.70732E-01  1.00898E+00 -3.82465E-02
    9106.758    112.212   5.600  9.75114E-01  1.00891E+00 -3.37934E-02
    9108.471    113.925   5.640  9.79073E-01  1.00879E+00 -2.97200E-02
    9110.196    115.650   5.680  9.81952E-01  1.00863E+00 -2.66832E-02
    9111.933    117.387   5.720  9.83383E-01  1.00841E+00 -2.50263E-02
    9113.683    119.137   5.760  9.83677E-01  1.00814E+00 -2.44652E-02
    9115.444    120.899   5.800  9.83657E-01  1.00786E+00 -2.41995E-02
    9117.218    122.673   5.840  9.84144E-01  1.00751E+00 -2.33645E-02
    9119.004    124.459   5.880  9.85606E-01  1.00712E+00 -2.15158E-02
    9120.803    126.257   5.920  9.87966E-01  1.00670E+00 -1.87316E-02
    9122.613    128.068   5.960  9.90852E-01  1.00624E+00 -1.53854E-02
    9124.436    129.890   6.000  9.93849E-01  1.00571E+00 -1.18608E-02
