# # comment:                                                     FEFF 9.9.1  
# # Source:
# # Structure
# # Reduced
# # space
# # abc:
# # angles:
# # sites:
# # POT  SCF 100  7.0000   0, screened core-hole, AFOLP (folp(0)= 1.150)
# # Abs   Z=29 Rmt= 1.111 Rnm= 1.249 K  shell
# # Pot 1 Z=11 Rmt= 1.515 Rnm= 1.572
# # Pot 2 Z=29 Rmt= 1.116 Rnm= 1.252
# # Pot 3 Z= 8 Rmt= 1.013 Rnm= 1.119
# # Gam_ch=1.729E+00 H-L exch Vi= 0.000E+00 Vr= 0.000E+00
# # Mu=-6.933E+00eV kf=2.097E+00 Vint=-1.453E+01eV Rs_int= 1.729
# FMS rfms= 9.0000
# # PATH  Rmax=-1.000,  Keep_limit= 0.00, Heap_limit 0.00  Pwcrit= 2.50%
#  S02=0.950  Temp=   0.00  Debye_temp=   0.00  Global_sig2= 0.00000
#  Energy zero shift, vr, vi    0.00000E+00   0.00000E+00
#  Curved wave amplitude ratio filter   4.000%
#     file         sig2 tot  cw amp ratio   deg  nlegs   reff  inp sig2
#     0/   0 paths used
#  xsedge+ 50, used to normalize mu           2.4303E-04
#  -----------------------------------------------------------------------
#  omega    e    k    mu    mu0     chi     @#
    8983.804    -10.743  -1.000  3.51269E-02  5.75734E-02 -2.24465E-02
    8984.103    -10.445  -0.960  3.68187E-02  6.17393E-02 -2.49206E-02
    8984.389    -10.158  -0.920  3.86207E-02  6.63620E-02 -2.77413E-02
    8984.663     -9.884  -0.880  4.05417E-02  7.15079E-02 -3.09662E-02
    8984.926     -9.622  -0.840  4.25909E-02  7.72540E-02 -3.46631E-02
    8985.175     -9.372  -0.800  4.47785E-02  8.36896E-02 -3.89111E-02
    8985.413     -9.134  -0.760  4.71149E-02  9.09166E-02 -4.38018E-02
    8985.639     -8.909  -0.720  4.96107E-02  9.90504E-02 -4.94397E-02
    8985.852     -8.695  -0.680  5.22766E-02  1.08218E-01 -5.59411E-02
    8986.053     -8.494  -0.640  5.51219E-02  1.18552E-01 -6.34299E-02
    8986.242     -8.305  -0.600  5.81538E-02  1.30184E-01 -7.20298E-02
    8986.419     -8.128  -0.560  6.13748E-02  1.43224E-01 -8.18493E-02
    8986.584     -7.964  -0.520  6.47799E-02  1.57739E-01 -9.29589E-02
    8986.736     -7.811  -0.480  6.83523E-02  1.73711E-01 -1.05359E-01
    8986.876     -7.671  -0.440  7.20592E-02  1.91002E-01 -1.18943E-01
    8987.004     -7.543  -0.400  7.58475E-02  2.09312E-01 -1.33465E-01
    8987.120     -7.427  -0.360  7.96436E-02  2.28175E-01 -1.48531E-01
    8987.224     -7.324  -0.320  8.33571E-02  2.46982E-01 -1.63625E-01
    8987.315     -7.232  -0.280  8.68892E-02  2.65057E-01 -1.78168E-01
    8987.394     -7.153  -0.240  9.01438E-02  2.81750E-01 -1.91606E-01
    8987.461     -7.086  -0.200  9.30359E-02  2.96512E-01 -2.03476E-01
    8987.516     -7.031  -0.160  9.54970E-02  3.08938E-01 -2.13441E-01
    8987.559     -6.988  -0.120  9.74744E-02  3.18769E-01 -2.21295E-01
    8987.590     -6.958  -0.080  9.89293E-02  3.25857E-01 -2.26927E-01
    8987.614     -6.933   0.000  1.00149E-01  3.31555E-01 -2.31406E-01
    8987.669     -6.879   0.120  1.02904E-01  3.44423E-01 -2.41518E-01
    8987.711     -6.836   0.160  1.05010E-01  3.54426E-01 -2.49416E-01
    8987.766     -6.781   0.200  1.07710E-01  3.67221E-01 -2.59511E-01
    8987.833     -6.714   0.240  1.11023E-01  3.82629E-01 -2.71606E-01
    8987.913     -6.635   0.280  1.14998E-01  4.00408E-01 -2.85410E-01
    8988.004     -6.543   0.320  1.19638E-01  4.20077E-01 -3.00439E-01
    8988.108     -6.440   0.360  1.24989E-01  4.41133E-01 -3.16144E-01
    8988.223     -6.324   0.400  1.31178E-01  4.63012E-01 -3.31834E-01
    8988.352     -6.196   0.440  1.38326E-01  4.85181E-01 -3.46855E-01
    8988.492     -6.056   0.480  1.46646E-01  5.07222E-01 -3.60576E-01
    8988.644     -5.903   0.520  1.56502E-01  5.28879E-01 -3.72377E-01
    8988.809     -5.739   0.560  1.68368E-01  5.50013E-01 -3.81645E-01
    8988.985     -5.562   0.600  1.83067E-01  5.70611E-01 -3.87544E-01
    8989.174     -5.373   0.640  2.01711E-01  5.90683E-01 -3.88972E-01
    8989.376     -5.172   0.680  2.25948E-01  6.10298E-01 -3.84350E-01
    8989.589     -4.958   0.720  2.57849E-01  6.29558E-01 -3.71709E-01
    8989.815     -4.733   0.760  2.99644E-01  6.48516E-01 -3.48872E-01
    8990.052     -4.495   0.800  3.52946E-01  6.67242E-01 -3.14296E-01
    8990.302     -4.245   0.840  4.17054E-01  6.85788E-01 -2.68733E-01
    8990.564     -3.983   0.880  4.85781E-01  7.04194E-01 -2.18413E-01
    8990.839     -3.709   0.920  5.43329E-01  7.22442E-01 -1.79114E-01
    8991.125     -3.422   0.960  5.68043E-01  7.40546E-01 -1.72504E-01
    8991.424     -3.123   1.000  5.52101E-01  7.58506E-01 -2.06405E-01
    8991.735     -2.813   1.040  5.12521E-01  7.76314E-01 -2.63793E-01
    8992.058     -2.489   1.080  4.72562E-01  7.93913E-01 -3.21351E-01
    8992.393     -2.154   1.120  4.44274E-01  8.11261E-01 -3.66987E-01
    8992.741     -1.807   1.160  4.29095E-01  8.28371E-01 -3.99276E-01
    8993.100     -1.447   1.200  4.23419E-01  8.45131E-01 -4.21712E-01
    8993.472     -1.075   1.240  4.22272E-01  8.61549E-01 -4.39277E-01
    8993.856     -0.691   1.280  4.21432E-01  8.77569E-01 -4.56137E-01
    8994.252     -0.295   1.320  4.20117E-01  8.93135E-01 -4.73017E-01
    8994.661      0.114   1.360  4.22078E-01  9.08208E-01 -4.86131E-01
    8995.081      0.534   1.400  4.32064E-01  9.22734E-01 -4.90669E-01
    8995.514      0.967   1.440  4.51300E-01  9.36698E-01 -4.85398E-01
    8995.959      1.412   1.480  4.78023E-01  9.50045E-01 -4.72022E-01
    8996.416      1.869   1.520  5.11549E-01  9.62782E-01 -4.51232E-01
    8996.886      2.339   1.560  5.54106E-01  9.74817E-01 -4.20710E-01
    8997.367      2.820   1.600  6.09428E-01  9.86204E-01 -3.76776E-01
    8997.861      3.314   1.640  6.76620E-01  9.96854E-01 -3.20234E-01
    8998.367      3.820   1.680  7.43340E-01  1.00683E+00 -2.63486E-01
    8998.885      4.338   1.720  7.92202E-01  1.01605E+00 -2.23852E-01
    8999.416      4.868   1.760  8.25498E-01  1.02456E+00 -1.99062E-01
    8999.958      5.411   1.800  8.61589E-01  1.03237E+00 -1.70777E-01
    9000.513      5.966   1.840  9.12761E-01  1.03944E+00 -1.26676E-01
    9001.080      6.533   1.880  9.84832E-01  1.04582E+00 -6.09862E-02
    9001.659      7.112   1.920  1.08068E+00  1.05150E+00  2.91864E-02
    9002.250      7.703   1.960  1.19608E+00  1.05653E+00  1.39553E-01
    9002.854      8.307   2.000  1.31509E+00  1.06089E+00  2.54192E-01
    9003.470      8.922   2.040  1.41781E+00  1.06461E+00  3.53201E-01
    9004.097      9.550   2.080  1.49299E+00  1.06775E+00  4.25237E-01
    9004.737     10.190   2.120  1.54336E+00  1.07032E+00  4.73044E-01
    9005.390     10.842   2.160  1.58007E+00  1.07231E+00  5.07761E-01
    9006.054     11.507   2.200  1.61151E+00  1.07380E+00  5.37711E-01
    9006.731     12.184   2.240  1.63401E+00  1.07481E+00  5.59205E-01
    9007.420     12.872   2.280  1.62914E+00  1.07534E+00  5.53799E-01
    9008.121     13.573   2.320  1.58073E+00  1.07544E+00  5.05285E-01
    9008.834     14.287   2.360  1.49571E+00  1.07516E+00  4.20542E-01
    9009.559     15.012   2.400  1.39937E+00  1.07451E+00  3.24854E-01
    9010.297     15.750   2.440  1.31544E+00  1.07352E+00  2.41920E-01
    9011.047     16.499   2.480  1.25502E+00  1.07222E+00  1.82802E-01
    9011.809     17.261   2.520  1.21735E+00  1.07064E+00  1.46714E-01
    9012.583     18.036   2.560  1.18742E+00  1.06881E+00  1.18605E-01
    9013.369     18.822   2.600  1.15709E+00  1.06675E+00  9.03410E-02
    9014.168     19.621   2.640  1.12806E+00  1.06450E+00  6.35618E-02
    9014.979     20.431   2.680  1.10356E+00  1.06206E+00  4.15009E-02
    9015.802     21.254   2.720  1.08518E+00  1.05948E+00  2.56969E-02
    9016.637     22.090   2.760  1.07257E+00  1.05678E+00  1.57859E-02
    9017.484     22.937   2.800  1.06464E+00  1.05398E+00  1.06598E-02
    9018.344     23.796   2.840  1.05990E+00  1.05107E+00  8.82418E-03
    9019.215     24.668   2.880  1.05696E+00  1.04811E+00  8.84464E-03
    9020.099     25.552   2.920  1.05435E+00  1.04511E+00  9.24593E-03
    9020.995     26.448   2.960  1.05077E+00  1.04206E+00  8.71254E-03
    9021.904     27.356   3.000  1.04530E+00  1.03900E+00  6.30425E-03
    9022.824     28.277   3.040  1.03703E+00  1.03592E+00  1.10757E-03
    9023.757     29.210   3.080  1.02548E+00  1.03287E+00 -7.38901E-03
    9024.702     30.154   3.120  1.01080E+00  1.02984E+00 -1.90434E-02
    9025.659     31.112   3.160  9.93822E-01  1.02687E+00 -3.30437E-02
    9026.628     32.081   3.200  9.76065E-01  1.02393E+00 -4.78620E-02
    9027.610     33.062   3.240  9.59132E-01  1.02103E+00 -6.19000E-02
    9028.603     34.056   3.280  9.43922E-01  1.01821E+00 -7.42891E-02
    9029.609     35.062   3.320  9.30460E-01  1.01546E+00 -8.50053E-02
    9030.627     36.080   3.360  9.18327E-01  1.01281E+00 -9.44820E-02
    9031.657     37.110   3.400  9.06830E-01  1.01023E+00 -1.03404E-01
    9032.700     38.152   3.440  8.95558E-01  1.00774E+00 -1.12184E-01
    9033.754     39.207   3.480  8.84554E-01  1.00537E+00 -1.20817E-01
    9034.821     40.274   3.520  8.74290E-01  1.00310E+00 -1.28814E-01
    9035.900     41.353   3.560  8.65154E-01  1.00093E+00 -1.35780E-01
    9036.991     42.444   3.600  8.57731E-01  9.98885E-01 -1.41154E-01
    9038.095     43.547   3.640  8.52687E-01  9.96958E-01 -1.44272E-01
    9039.210     44.663   3.680  8.50452E-01  9.95148E-01 -1.44696E-01
    9040.338     45.791   3.720  8.51145E-01  9.93433E-01 -1.42289E-01
    9041.478     46.931   3.760  8.54806E-01  9.91866E-01 -1.37060E-01
    9042.630     48.083   3.800  8.61318E-01  9.90425E-01 -1.29106E-01
    9043.794     49.247   3.840  8.70450E-01  9.89109E-01 -1.18658E-01
    9044.971     50.424   3.880  8.81975E-01  9.87911E-01 -1.05936E-01
    9046.160     51.612   3.920  8.95480E-01  9.86839E-01 -9.13584E-02
    9047.361     52.813   3.960  9.10143E-01  9.85890E-01 -7.57472E-02
    9048.574     54.026   4.000  9.24841E-01  9.85065E-01 -6.02248E-02
    9049.799     55.252   4.040  9.38608E-01  9.84385E-01 -4.57772E-02
    9051.036     56.489   4.080  9.50908E-01  9.83807E-01 -3.28988E-02
    9052.286     57.739   4.120  9.61962E-01  9.83349E-01 -2.13870E-02
    9053.548     59.001   4.160  9.72585E-01  9.83011E-01 -1.04256E-02
    9054.822     60.275   4.200  9.83843E-01  9.82793E-01  1.04955E-03
    9056.108     61.561   4.240  9.96527E-01  9.82695E-01  1.38319E-02
    9057.407     62.859   4.280  1.01086E+00  9.82692E-01  2.81693E-02
    9058.717     64.170   4.320  1.02648E+00  9.82825E-01  4.36567E-02
    9060.040     65.493   4.360  1.04238E+00  9.83030E-01  5.93463E-02
    9061.375     66.828   4.400  1.05739E+00  9.83346E-01  7.40456E-02
    9062.722     68.175   4.440  1.07031E+00  9.83775E-01  8.65385E-02
    9064.082     69.534   4.480  1.08007E+00  9.84290E-01  9.57785E-02
    9065.453     70.906   4.520  1.08600E+00  9.84890E-01  1.01106E-01
    9066.837     72.290   4.560  1.08819E+00  9.85573E-01  1.02618E-01
    9068.233     73.686   4.600  1.08728E+00  9.86335E-01  1.00943E-01
    9069.641     75.094   4.640  1.08414E+00  9.87174E-01  9.69616E-02
    9071.062     76.514   4.680  1.07955E+00  9.88068E-01  9.14787E-02
    9072.494     77.947   4.720  1.07402E+00  9.89036E-01  8.49885E-02
    9073.939     79.392   4.760  1.06770E+00  9.90076E-01  7.76279E-02
    9075.396     80.849   4.800  1.06049E+00  9.91164E-01  6.93291E-02
    9076.865     82.318   4.840  1.05232E+00  9.92294E-01  6.00268E-02
    9078.346     83.799   4.880  1.04343E+00  9.93465E-01  4.99670E-02
    9079.840     85.293   4.920  1.03452E+00  9.94675E-01  3.98404E-02
    9081.346     86.798   4.960  1.02643E+00  9.95921E-01  3.05117E-02
    9082.863     88.316   5.000  1.01989E+00  9.97178E-01  2.27085E-02
    9084.394     89.846   5.040  1.01534E+00  9.98465E-01  1.68761E-02
    9085.936     91.389   5.080  1.01289E+00  9.99759E-01  1.31310E-02
    9087.490     92.943   5.120  1.01251E+00  1.00108E+00  1.14302E-02
    9089.057     94.510   5.160  1.01401E+00  1.00237E+00  1.16360E-02
    9090.636     96.089   5.200  1.01717E+00  1.00367E+00  1.35046E-02
    9092.227     97.680   5.240  1.02146E+00  1.00495E+00  1.65097E-02
    9093.830     99.283   5.280  1.02598E+00  1.00624E+00  1.97450E-02
    9095.446    100.898   5.320  1.02952E+00  1.00748E+00  2.20418E-02
    9097.073    102.526   5.360  1.03095E+00  1.00869E+00  2.22569E-02
    9098.713    104.166   5.400  1.02950E+00  1.00989E+00  1.96121E-02
    9100.365    105.818   5.440  1.02498E+00  1.01102E+00  1.39571E-02
    9102.029    107.482   5.480  1.01803E+00  1.01213E+00  5.89591E-03
    9103.706    109.158   5.520  1.00978E+00  1.01318E+00 -3.39761E-03
    9105.394    110.847   5.560  1.00156E+00  1.01417E+00 -1.26142E-02
    9107.095    112.548   5.600  9.94365E-01  1.01512E+00 -2.07580E-02
    9108.808    114.261   5.640  9.88516E-01  1.01600E+00 -2.74826E-02
    9110.533    115.986   5.680  9.83786E-01  1.01680E+00 -3.30105E-02
    9112.270    117.723   5.720  9.79879E-01  1.01754E+00 -3.76619E-02
    9114.020    119.473   5.760  9.76926E-01  1.01821E+00 -4.12817E-02
    9115.782    121.234   5.800  9.75581E-01  1.01880E+00 -4.32156E-02
    9117.556    123.008   5.840  9.76536E-01  1.01933E+00 -4.27911E-02
    9119.342    124.794   5.880  9.79812E-01  1.01975E+00 -3.99373E-02
    9121.140    126.593   5.920  9.84689E-01  1.02011E+00 -3.54183E-02
    9122.951    128.403   5.960  9.89780E-01  1.02034E+00 -3.05565E-02
    9124.773    130.226   6.000  9.93710E-01  1.02045E+00 -2.67377E-02
