# # comment:                                                     FEFF 9.9.1  
# # Source:
# # Structure
# # Reduced
# # space
# # abc:
# # angles:
# # sites:
# # POT  SCF 100  7.0000   0, screened core-hole, AFOLP (folp(0)= 1.150)
# # Abs   Z=29 Rmt= 1.196 Rnm= 1.261 K  shell
# # Pot 1 Z=56 Rmt= 1.895 Rnm= 1.951
# # Pot 2 Z=39 Rmt= 1.637 Rnm= 1.714
# # Pot 3 Z=29 Rmt= 1.196 Rnm= 1.261
# # Pot 4 Z= 8 Rmt= 1.077 Rnm= 1.121
# # Gam_ch=1.729E+00 H-L exch Vi= 0.000E+00 Vr= 0.000E+00
# # Mu=-1.002E+01eV kf=2.023E+00 Vint=-1.843E+01eV Rs_int= 1.792
# FMS rfms= 9.0000
# # PATH  Rmax=-1.000,  Keep_limit= 0.00, Heap_limit 0.00  Pwcrit= 2.50%
#  S02=0.950  Temp=   0.00  Debye_temp=   0.00  Global_sig2= 0.00000
#  Energy zero shift, vr, vi    0.00000E+00   0.00000E+00
#  Curved wave amplitude ratio filter   4.000%
#     file         sig2 tot  cw amp ratio   deg  nlegs   reff  inp sig2
#     0/   0 paths used
#  xsedge+ 50, used to normalize mu           2.4453E-04
#  -----------------------------------------------------------------------
#  omega    e    k    mu    mu0     chi     @#
    8985.535    -13.829  -1.000  3.12587E-02  5.67620E-02 -2.55032E-02
    8985.833    -13.530  -0.960  3.25844E-02  6.09378E-02 -2.83534E-02
    8986.120    -13.244  -0.920  3.39998E-02  6.55805E-02 -3.15807E-02
    8986.394    -12.969  -0.880  3.55175E-02  7.07587E-02 -3.52412E-02
    8986.656    -12.707  -0.840  3.71527E-02  7.65525E-02 -3.93998E-02
    8986.906    -12.457  -0.800  3.89237E-02  8.30546E-02 -4.41309E-02
    8987.144    -12.220  -0.760  4.08523E-02  9.03713E-02 -4.95189E-02
    8987.369    -11.994  -0.720  4.29642E-02  9.86227E-02 -5.56585E-02
    8987.583    -11.781  -0.680  4.52883E-02  1.07941E-01 -6.26528E-02
    8987.784    -11.580  -0.640  4.78564E-02  1.18466E-01 -7.06096E-02
    8987.973    -11.391  -0.600  5.07005E-02  1.30335E-01 -7.96340E-02
    8988.150    -11.214  -0.560  5.38487E-02  1.43664E-01 -8.98149E-02
    8988.314    -11.049  -0.520  5.73178E-02  1.58523E-01 -1.01205E-01
    8988.467    -10.897  -0.480  6.11036E-02  1.74896E-01 -1.13793E-01
    8988.607    -10.757  -0.440  6.51695E-02  1.92641E-01 -1.27472E-01
    8988.735    -10.629  -0.400  6.94368E-02  2.11448E-01 -1.42011E-01
    8988.851    -10.513  -0.360  7.37828E-02  2.30832E-01 -1.57049E-01
    8988.954    -10.409  -0.320  7.80514E-02  2.50162E-01 -1.72111E-01
    8989.046    -10.318  -0.280  8.20754E-02  2.68739E-01 -1.86664E-01
    8989.125    -10.238  -0.240  8.57047E-02  2.85888E-01 -2.00184E-01
    8989.192    -10.171  -0.200  8.88288E-02  3.01046E-01 -2.12217E-01
    8989.247    -10.117  -0.160  9.13851E-02  3.13798E-01 -2.22413E-01
    8989.290    -10.074  -0.120  9.33519E-02  3.23879E-01 -2.30527E-01
    8989.320    -10.043  -0.080  9.47323E-02  3.31143E-01 -2.36411E-01
    8989.345    -10.019   0.000  9.58000E-02  3.36980E-01 -2.41180E-01
    8989.399     -9.964   0.120  9.82319E-02  3.50136E-01 -2.51904E-01
    8989.442     -9.921   0.160  1.00052E-01  3.60358E-01 -2.60306E-01
    8989.497     -9.867   0.200  1.02271E-01  3.73426E-01 -2.71155E-01
    8989.564     -9.800   0.240  1.04726E-01  3.89147E-01 -2.84421E-01
    8989.643     -9.720   0.280  1.07227E-01  4.07209E-01 -2.99982E-01
    8989.735     -9.629   0.320  1.09478E-01  4.27139E-01 -3.17661E-01
    8989.838     -9.525   0.360  1.11254E-01  4.48371E-01 -3.37118E-01
    8989.954     -9.409   0.400  1.12354E-01  4.70304E-01 -3.57949E-01
    8990.082     -9.281   0.440  1.12721E-01  4.92386E-01 -3.79665E-01
    8990.222     -9.141   0.480  1.12460E-01  5.14130E-01 -4.01670E-01
    8990.375     -8.989   0.520  1.11940E-01  5.35305E-01 -4.23365E-01
    8990.539     -8.824   0.560  1.11472E-01  5.55742E-01 -4.44270E-01
    8990.716     -8.647   0.600  1.11421E-01  5.75406E-01 -4.63984E-01
    8990.905     -8.458   0.640  1.12075E-01  5.94354E-01 -4.82279E-01
    8991.106     -8.257   0.680  1.13571E-01  6.12661E-01 -4.99090E-01
    8991.320     -8.044   0.720  1.16059E-01  6.30397E-01 -5.14337E-01
    8991.545     -7.818   0.760  1.19614E-01  6.47647E-01 -5.28033E-01
    8991.783     -7.581   0.800  1.24377E-01  6.64511E-01 -5.40134E-01
    8992.033     -7.331   0.840  1.30467E-01  6.81031E-01 -5.50564E-01
    8992.295     -7.069   0.880  1.38015E-01  6.97256E-01 -5.59241E-01
    8992.569     -6.794   0.920  1.47191E-01  7.13201E-01 -5.66010E-01
    8992.856     -6.508   0.960  1.58430E-01  7.28928E-01 -5.70498E-01
    8993.155     -6.209   1.000  1.72263E-01  7.44387E-01 -5.72124E-01
    8993.465     -5.898   1.040  1.89063E-01  7.59600E-01 -5.70538E-01
    8993.788     -5.575   1.080  2.08304E-01  7.74542E-01 -5.66238E-01
    8994.124     -5.240   1.120  2.28838E-01  7.89220E-01 -5.60382E-01
    8994.471     -4.892   1.160  2.49400E-01  8.03597E-01 -5.54198E-01
    8994.831     -4.533   1.200  2.69499E-01  8.17634E-01 -5.48135E-01
    8995.203     -4.161   1.240  2.91681E-01  8.31325E-01 -5.39645E-01
    8995.587     -3.777   1.280  3.20209E-01  8.44647E-01 -5.24438E-01
    8995.983     -3.380   1.320  3.58128E-01  8.57553E-01 -4.99425E-01
    8996.391     -2.972   1.360  4.06864E-01  8.70034E-01 -4.63170E-01
    8996.812     -2.551   1.400  4.61400E-01  8.82044E-01 -4.20644E-01
    8997.245     -2.119   1.440  5.08359E-01  8.93577E-01 -3.85218E-01
    8997.690     -1.674   1.480  5.44487E-01  9.04605E-01 -3.60118E-01
    8998.147     -1.216   1.520  5.83973E-01  9.15124E-01 -3.31151E-01
    8998.617     -0.747   1.560  6.44058E-01  9.25111E-01 -2.81053E-01
    8999.098     -0.265   1.600  7.37811E-01  9.34540E-01 -1.96729E-01
    8999.592      0.228   1.640  8.68856E-01  9.43452E-01 -7.45958E-02
    9000.098      0.734   1.680  1.02839E+00  9.51787E-01  7.66040E-02
    9000.616      1.252   1.720  1.19479E+00  9.59587E-01  2.35202E-01
    9001.146      1.783   1.760  1.37701E+00  9.66811E-01  4.10199E-01
    9001.689      2.325   1.800  1.63809E+00  9.73508E-01  6.64581E-01
    9002.244      2.880   1.840  1.98834E+00  9.79682E-01  1.00866E+00
    9002.811      3.447   1.880  2.29262E+00  9.85317E-01  1.30730E+00
    9003.390      4.026   1.920  2.37661E+00  9.90443E-01  1.38617E+00
    9003.981      4.617   1.960  2.18237E+00  9.95069E-01  1.18730E+00
    9004.584      5.221   2.000  1.82727E+00  9.99223E-01  8.28052E-01
    9005.200      5.837   2.040  1.49484E+00  1.00291E+00  4.91926E-01
    9005.828      6.465   2.080  1.26276E+00  1.00615E+00  2.56603E-01
    9006.468      7.105   2.120  1.12224E+00  1.00897E+00  1.13267E-01
    9007.120      7.757   2.160  1.04858E+00  1.01141E+00  3.71752E-02
    9007.785      8.421   2.200  1.02105E+00  1.01346E+00  7.58301E-03
    9008.462      9.098   2.240  1.02015E+00  1.01516E+00  4.99821E-03
    9009.150      9.787   2.280  1.02797E+00  1.01654E+00  1.14343E-02
    9009.851     10.488   2.320  1.03019E+00  1.01759E+00  1.25990E-02
    9010.565     11.201   2.360  1.01531E+00  1.01836E+00 -3.05746E-03
    9011.290     11.927   2.400  9.84742E-01  1.01888E+00 -3.41363E-02
    9012.028     12.664   2.440  9.69500E-01  1.01917E+00 -4.96669E-02
    9012.777     13.414   2.480  9.90007E-01  1.01922E+00 -2.92129E-02
    9013.539     14.176   2.520  1.03259E+00  1.01907E+00  1.35167E-02
    9014.314     14.950   2.560  1.08024E+00  1.01877E+00  6.14748E-02
    9015.100     15.737   2.600  1.11808E+00  1.01828E+00  9.97989E-02
    9015.899     16.535   2.640  1.13728E+00  1.01766E+00  1.19624E-01
    9016.709     17.346   2.680  1.13675E+00  1.01691E+00  1.19833E-01
    9017.532     18.169   2.720  1.12051E+00  1.01607E+00  1.04432E-01
    9018.367     19.004   2.760  1.09433E+00  1.01515E+00  7.91869E-02
    9019.215     19.851   2.800  1.06181E+00  1.01412E+00  4.76970E-02
    9020.074     20.711   2.840  1.02508E+00  1.01306E+00  1.20198E-02
    9020.946     21.583   2.880  9.85958E-01  1.01193E+00 -2.59751E-02
    9021.830     22.466   2.920  9.46718E-01  1.01079E+00 -6.40728E-02
    9022.726     23.363   2.960  9.09512E-01  1.00962E+00 -1.00104E-01
    9023.634     24.271   3.000  8.76159E-01  1.00846E+00 -1.32298E-01
    9024.555     25.191   3.040  8.47670E-01  1.00727E+00 -1.59604E-01
    9025.488     26.124   3.080  8.24735E-01  1.00609E+00 -1.81359E-01
    9026.432     27.069   3.120  8.07803E-01  1.00494E+00 -1.97140E-01
    9027.390     28.026   3.160  7.96420E-01  1.00380E+00 -2.07382E-01
    9028.359     28.995   3.200  7.89543E-01  1.00272E+00 -2.13174E-01
    9029.340     29.977   3.240  7.85947E-01  1.00165E+00 -2.15705E-01
    9030.334     30.970   3.280  7.84515E-01  1.00065E+00 -2.16133E-01
    9031.340     31.976   3.320  7.84844E-01  9.99689E-01 -2.14845E-01
    9032.358     32.994   3.360  7.87553E-01  9.98775E-01 -2.11222E-01
    9033.388     34.024   3.400  7.93686E-01  9.97909E-01 -2.04224E-01
    9034.430     35.067   3.440  8.03758E-01  9.97137E-01 -1.93379E-01
    9035.485     36.121   3.480  8.18012E-01  9.96395E-01 -1.78383E-01
    9036.552     37.188   3.520  8.36576E-01  9.95747E-01 -1.59171E-01
    9037.631     38.267   3.560  8.59130E-01  9.95154E-01 -1.36024E-01
    9038.722     39.358   3.600  8.85075E-01  9.94635E-01 -1.09560E-01
    9039.825     40.462   3.640  9.13761E-01  9.94192E-01 -8.04310E-02
    9040.941     41.577   3.680  9.44233E-01  9.93805E-01 -4.95720E-02
    9042.069     42.705   3.720  9.75232E-01  9.93515E-01 -1.82834E-02
    9043.209     43.845   3.760  1.00511E+00  9.93280E-01  1.18266E-02
    9044.361     44.997   3.800  1.03196E+00  9.93120E-01  3.88429E-02
    9045.525     46.162   3.840  1.05407E+00  9.93012E-01  6.10556E-02
    9046.702     47.338   3.880  1.07060E+00  9.92978E-01  7.76187E-02
    9047.890     48.527   3.920  1.08200E+00  9.93021E-01  8.89799E-02
    9049.091     49.728   3.960  1.08954E+00  9.93136E-01  9.64065E-02
    9050.304     50.941   4.000  1.09490E+00  9.93304E-01  1.01591E-01
    9051.530     52.166   4.040  1.09968E+00  9.93542E-01  1.06140E-01
    9052.767     53.404   4.080  1.10485E+00  9.93826E-01  1.11021E-01
    9054.017     54.653   4.120  1.11045E+00  9.94157E-01  1.16292E-01
    9055.279     55.915   4.160  1.11570E+00  9.94555E-01  1.21143E-01
    9056.553     57.189   4.200  1.11901E+00  9.94994E-01  1.24013E-01
    9057.839     58.475   4.240  1.11854E+00  9.95454E-01  1.23084E-01
    9059.137     59.774   4.280  1.11341E+00  9.95975E-01  1.17437E-01
    9060.448     61.084   4.320  1.10432E+00  9.96537E-01  1.07786E-01
    9061.771     62.407   4.360  1.09284E+00  9.97135E-01  9.57076E-02
    9063.106     63.742   4.400  1.08053E+00  9.97747E-01  8.27797E-02
    9064.453     65.090   4.440  1.06864E+00  9.98413E-01  7.02315E-02
    9065.812     66.449   4.480  1.05812E+00  9.99068E-01  5.90568E-02
    9067.184     67.821   4.520  1.04983E+00  9.99751E-01  5.00835E-02
    9068.568     69.204   4.560  1.04428E+00  1.00046E+00  4.38249E-02
    9069.964     70.600   4.600  1.04147E+00  1.00115E+00  4.03175E-02
    9071.372     72.008   4.640  1.04107E+00  1.00187E+00  3.92044E-02
    9072.792     73.429   4.680  1.04236E+00  1.00258E+00  3.97849E-02
    9074.225     74.861   4.720  1.04412E+00  1.00327E+00  4.08551E-02
    9075.670     76.306   4.760  1.04469E+00  1.00398E+00  4.07127E-02
    9077.127     77.763   4.800  1.04216E+00  1.00465E+00  3.75035E-02
    9078.596     79.232   4.840  1.03527E+00  1.00533E+00  2.99464E-02
    9080.077     80.714   4.880  1.02416E+00  1.00596E+00  1.81993E-02
    9081.571     82.207   4.920  1.01068E+00  1.00659E+00  4.09163E-03
    9083.076     83.713   4.960  9.97387E-01  1.00718E+00 -9.79703E-03
    9084.594     85.231   5.000  9.86251E-01  1.00774E+00 -2.14889E-02
    9086.124     86.761   5.040  9.77956E-01  1.00828E+00 -3.03249E-02
    9087.667     88.303   5.080  9.72289E-01  1.00878E+00 -3.64928E-02
    9089.221     89.857   5.120  9.68776E-01  1.00922E+00 -4.04435E-02
    9090.788     91.424   5.160  9.66874E-01  1.00964E+00 -4.27666E-02
    9092.367     93.003   5.200  9.65718E-01  1.01002E+00 -4.43028E-02
    9093.958     94.594   5.240  9.64256E-01  1.01036E+00 -4.61014E-02
    9095.561     96.197   5.280  9.61582E-01  1.01065E+00 -4.90681E-02
    9097.176     97.813   5.320  9.57249E-01  1.01087E+00 -5.36259E-02
    9098.804     99.440   5.360  9.51508E-01  1.01105E+00 -5.95458E-02
    9100.444    101.080   5.400  9.45102E-01  1.01119E+00 -6.60859E-02
    9102.096    102.732   5.440  9.39046E-01  1.01128E+00 -7.22322E-02
    9103.760    104.396   5.480  9.34224E-01  1.01132E+00 -7.70989E-02
    9105.436    106.073   5.520  9.31007E-01  1.01130E+00 -8.02921E-02
    9107.125    107.761   5.560  9.29364E-01  1.01123E+00 -8.18662E-02
    9108.826    109.462   5.600  9.29374E-01  1.01112E+00 -8.17420E-02
    9110.539    111.175   5.640  9.31752E-01  1.01096E+00 -7.92051E-02
    9112.264    112.900   5.680  9.37125E-01  1.01073E+00 -7.36079E-02
    9114.001    114.638   5.720  9.46238E-01  1.01049E+00 -6.42491E-02
    9115.751    116.387   5.760  9.58405E-01  1.01018E+00 -5.17718E-02
    9117.512    118.149   5.800  9.71616E-01  1.00982E+00 -3.82081E-02
    9119.286    119.923   5.840  9.83312E-01  1.00943E+00 -2.61198E-02
    9121.072    121.709   5.880  9.91882E-01  1.00900E+00 -1.71199E-02
    9122.871    123.507   5.920  9.97652E-01  1.00854E+00 -1.08852E-02
    9124.681    125.318   5.960  1.00339E+00  1.00804E+00 -4.65016E-03
    9126.504    127.140   6.000  1.01142E+00  1.00747E+00  3.95016E-03
