# # comment:                                                     FEFF 9.9.1  
# # Source:
# # Structure
# # Reduced
# # space
# # abc:
# # angles:
# # sites:
# # POT  SCF 100  7.0000   0, screened core-hole, AFOLP (folp(0)= 1.150)
# # Abs   Z=29 Rmt= 1.271 Rnm= 1.342 K  shell
# # Pot 1 Z=73 Rmt= 1.319 Rnm= 1.467
# # Pot 2 Z=29 Rmt= 1.276 Rnm= 1.346
# # Pot 3 Z= 8 Rmt= 1.013 Rnm= 1.090
# # Gam_ch=1.729E+00 H-L exch Vi= 0.000E+00 Vr= 0.000E+00
# # Mu=-6.263E+00eV kf=2.244E+00 Vint=-1.642E+01eV Rs_int= 1.616
# FMS rfms= 9.0000
# # PATH  Rmax=-1.000,  Keep_limit= 0.00, Heap_limit 0.00  Pwcrit= 2.50%
#  S02=0.950  Temp=   0.00  Debye_temp=   0.00  Global_sig2= 0.00000
#  Energy zero shift, vr, vi    0.00000E+00   0.00000E+00
#  Curved wave amplitude ratio filter   4.000%
#     file         sig2 tot  cw amp ratio   deg  nlegs   reff  inp sig2
#     0/   0 paths used
#  xsedge+ 50, used to normalize mu           2.4640E-04
#  -----------------------------------------------------------------------
#  omega    e    k    mu    mu0     chi     @#
    8983.603    -10.073  -1.000  4.74453E-02  5.59005E-02 -8.45520E-03
    8983.901     -9.775  -0.960  5.03386E-02  6.00414E-02 -9.70280E-03
    8984.188     -9.488  -0.920  5.34780E-02  6.46506E-02 -1.11726E-02
    8984.462     -9.214  -0.880  5.68897E-02  6.97980E-02 -1.29083E-02
    8984.724     -8.952  -0.840  6.06024E-02  7.55648E-02 -1.49624E-02
    8984.974     -8.702  -0.800  6.46476E-02  8.20452E-02 -1.73976E-02
    8985.212     -8.464  -0.760  6.90597E-02  8.93476E-02 -2.02879E-02
    8985.437     -8.238  -0.720  7.38748E-02  9.75943E-02 -2.37195E-02
    8985.651     -8.025  -0.680  7.91304E-02  1.06921E-01 -2.77901E-02
    8985.852     -7.824  -0.640  8.48630E-02  1.17469E-01 -3.26060E-02
    8986.041     -7.635  -0.600  9.11048E-02  1.29380E-01 -3.82752E-02
    8986.218     -7.458  -0.560  9.78786E-02  1.42774E-01 -4.48952E-02
    8986.382     -7.293  -0.520  1.05190E-01  1.57722E-01 -5.25320E-02
    8986.535     -7.141  -0.480  1.13019E-01  1.74211E-01 -6.11916E-02
    8986.675     -7.001  -0.440  1.21308E-01  1.92095E-01 -7.07872E-02
    8986.803     -6.873  -0.400  1.29948E-01  2.11060E-01 -8.11113E-02
    8986.919     -6.757  -0.360  1.38783E-01  2.30613E-01 -9.18301E-02
    8987.022     -6.653  -0.320  1.47601E-01  2.50113E-01 -1.02512E-01
    8987.114     -6.562  -0.280  1.56158E-01  2.68848E-01 -1.12691E-01
    8987.193     -6.483  -0.240  1.64192E-01  2.86137E-01 -1.21944E-01
    8987.260     -6.416  -0.200  1.71453E-01  3.01407E-01 -1.29954E-01
    8987.315     -6.361  -0.160  1.77715E-01  3.14245E-01 -1.36531E-01
    8987.358     -6.318  -0.120  1.82792E-01  3.24388E-01 -1.41596E-01
    8987.388     -6.288  -0.080  1.86542E-01  3.31690E-01 -1.45148E-01
    8987.413     -6.263   0.000  1.89666E-01  3.37554E-01 -1.47888E-01
    8987.467     -6.208   0.120  1.96628E-01  3.50777E-01 -1.54149E-01
    8987.510     -6.166   0.160  2.02118E-01  3.61032E-01 -1.58914E-01
    8987.565     -6.111   0.200  2.09326E-01  3.74114E-01 -1.64788E-01
    8987.632     -6.044   0.240  2.18352E-01  3.89833E-01 -1.71481E-01
    8987.711     -5.965   0.280  2.29282E-01  4.07855E-01 -1.78573E-01
    8987.803     -5.873   0.320  2.42148E-01  4.27679E-01 -1.85531E-01
    8987.906     -5.769   0.360  2.56920E-01  4.48712E-01 -1.91792E-01
    8988.022     -5.654   0.400  2.73483E-01  4.70317E-01 -1.96834E-01
    8988.150     -5.526   0.440  2.91631E-01  4.91901E-01 -2.00269E-01
    8988.290     -5.385   0.480  3.11187E-01  5.12996E-01 -2.01809E-01
    8988.443     -5.233   0.520  3.32164E-01  5.33342E-01 -2.01177E-01
    8988.607     -5.068   0.560  3.54764E-01  5.52786E-01 -1.98022E-01
    8988.784     -4.892   0.600  3.79501E-01  5.71297E-01 -1.91795E-01
    8988.973     -4.703   0.640  4.07513E-01  5.88938E-01 -1.81425E-01
    8989.174     -4.502   0.680  4.41063E-01  6.05796E-01 -1.64733E-01
    8989.388     -4.288   0.720  4.83786E-01  6.21950E-01 -1.38165E-01
    8989.613     -4.063   0.760  5.40123E-01  6.37561E-01 -9.74380E-02
    8989.851     -3.825   0.800  6.13186E-01  6.52679E-01 -3.94928E-02
    8990.101     -3.575   0.840  6.99326E-01  6.67380E-01  3.19463E-02
    8990.363     -3.313   0.880  7.78590E-01  6.81765E-01  9.68249E-02
    8990.637     -3.038   0.920  8.17825E-01  6.95863E-01  1.21962E-01
    8990.924     -2.752   0.960  8.01705E-01  7.09706E-01  9.19988E-02
    8991.223     -2.453   1.000  7.49897E-01  7.23318E-01  2.65790E-02
    8991.533     -2.142   1.040  6.92596E-01  7.36710E-01 -4.41143E-02
    8991.856     -1.819   1.080  6.47013E-01  7.49909E-01 -1.02896E-01
    8992.192     -1.484   1.120  6.16424E-01  7.62912E-01 -1.46488E-01
    8992.539     -1.137   1.160  5.99540E-01  7.75690E-01 -1.76151E-01
    8992.899     -0.777   1.200  5.95788E-01  7.88233E-01 -1.92444E-01
    8993.271     -0.405   1.240  6.06346E-01  8.00543E-01 -1.94197E-01
    8993.655     -0.021   1.280  6.36130E-01  8.12603E-01 -1.76474E-01
    8994.051      0.375   1.320  6.87594E-01  8.24413E-01 -1.36819E-01
    8994.459      0.784   1.360  7.53860E-01  8.35910E-01 -8.20495E-02
    8994.880      1.204   1.400  8.30844E-01  8.47109E-01 -1.62656E-02
    8995.313      1.637   1.440  9.25077E-01  8.57988E-01  6.70890E-02
    8995.758      2.082   1.480  1.03466E+00  8.68523E-01  1.66134E-01
    8996.215      2.539   1.520  1.12481E+00  8.78688E-01  2.46124E-01
    8996.685      3.009   1.560  1.14561E+00  8.88500E-01  2.57114E-01
    8997.166      3.490   1.600  1.10554E+00  8.97935E-01  2.07603E-01
    8997.660      3.984   1.640  1.05027E+00  9.06949E-01  1.43325E-01
    8998.166      4.490   1.680  1.00623E+00  9.15581E-01  9.06483E-02
    8998.684      5.008   1.720  9.85144E-01  9.23787E-01  6.13572E-02
    8999.214      5.539   1.760  9.94416E-01  9.31567E-01  6.28494E-02
    8999.757      6.081   1.800  1.03714E+00  9.38942E-01  9.82020E-02
    9000.312      6.636   1.840  1.09943E+00  9.45893E-01  1.53538E-01
    9000.879      7.203   1.880  1.15413E+00  9.52439E-01  2.01692E-01
    9001.458      7.782   1.920  1.18149E+00  9.58542E-01  2.22945E-01
    9002.049      8.373   1.960  1.18714E+00  9.64227E-01  2.22909E-01
    9002.652      8.977   2.000  1.19310E+00  9.69519E-01  2.23578E-01
    9003.268      9.592   2.040  1.20503E+00  9.74422E-01  2.30612E-01
    9003.896     10.220   2.080  1.20503E+00  9.78919E-01  2.26115E-01
    9004.536     10.860   2.120  1.17743E+00  9.83037E-01  1.94394E-01
    9005.188     11.513   2.160  1.13130E+00  9.86781E-01  1.44516E-01
    9005.853     12.177   2.200  1.09125E+00  9.90181E-01  1.01071E-01
    9006.530     12.854   2.240  1.07755E+00  9.93222E-01  8.43274E-02
    9007.218     13.543   2.280  1.09923E+00  9.95952E-01  1.03278E-01
    9007.919     14.244   2.320  1.14801E+00  9.98358E-01  1.49651E-01
    9008.633     14.957   2.360  1.19553E+00  1.00047E+00  1.95062E-01
    9009.358     15.682   2.400  1.21234E+00  1.00229E+00  2.10046E-01
    9010.096     16.420   2.440  1.18948E+00  1.00384E+00  1.85643E-01
    9010.845     17.170   2.480  1.13648E+00  1.00515E+00  1.31326E-01
    9011.607     17.932   2.520  1.07498E+00  1.00623E+00  6.87521E-02
    9012.382     18.706   2.560  1.02300E+00  1.00708E+00  1.59111E-02
    9013.168     19.492   2.600  9.84236E-01  1.00772E+00 -2.34814E-02
    9013.967     20.291   2.640  9.58489E-01  1.00819E+00 -4.97035E-02
    9014.777     21.102   2.680  9.49247E-01  1.00848E+00 -5.92296E-02
    9015.600     21.925   2.720  9.49847E-01  1.00860E+00 -5.87511E-02
    9016.435     22.760   2.760  9.53200E-01  1.00858E+00 -5.53831E-02
    9017.283     23.607   2.800  9.53639E-01  1.00842E+00 -5.47812E-02
    9018.142     24.467   2.840  9.48625E-01  1.00816E+00 -5.95322E-02
    9019.014     25.338   2.880  9.39230E-01  1.00780E+00 -6.85696E-02
    9019.898     26.222   2.920  9.27265E-01  1.00733E+00 -8.00689E-02
    9020.794     27.118   2.960  9.13706E-01  1.00679E+00 -9.30802E-02
    9021.702     28.027   3.000  8.98984E-01  1.00618E+00 -1.07198E-01
    9022.623     28.947   3.040  8.84147E-01  1.00551E+00 -1.21360E-01
    9023.556     29.880   3.080  8.71002E-01  1.00481E+00 -1.33807E-01
    9024.500     30.825   3.120  8.60883E-01  1.00405E+00 -1.43165E-01
    9025.458     31.782   3.160  8.54174E-01  1.00327E+00 -1.49098E-01
    9026.427     32.751   3.200  8.50945E-01  1.00247E+00 -1.51521E-01
    9027.408     33.732   3.240  8.51623E-01  1.00167E+00 -1.50050E-01
    9028.402     34.726   3.280  8.56314E-01  1.00085E+00 -1.44540E-01
    9029.408     35.732   3.320  8.64993E-01  1.00004E+00 -1.35042E-01
    9030.426     36.750   3.360  8.77284E-01  9.99218E-01 -1.21934E-01
    9031.456     37.780   3.400  8.92629E-01  9.98428E-01 -1.05799E-01
    9032.498     38.823   3.440  9.10290E-01  9.97647E-01 -8.73566E-02
    9033.553     39.877   3.480  9.29855E-01  9.96897E-01 -6.70421E-02
    9034.620     40.944   3.520  9.50967E-01  9.96182E-01 -4.52154E-02
    9035.699     42.023   3.560  9.72822E-01  9.95503E-01 -2.26817E-02
    9036.790     43.114   3.600  9.94057E-01  9.94842E-01 -7.84811E-04
    9037.893     44.218   3.640  1.01282E+00  9.94240E-01  1.85783E-02
    9039.009     45.333   3.680  1.02698E+00  9.93676E-01  3.33076E-02
    9040.137     46.461   3.720  1.03518E+00  9.93133E-01  4.20489E-02
    9041.277     47.601   3.760  1.03746E+00  9.92653E-01  4.48066E-02
    9042.429     48.753   3.800  1.03500E+00  9.92217E-01  4.27855E-02
    9043.593     49.917   3.840  1.02967E+00  9.91845E-01  3.78232E-02
    9044.770     51.094   3.880  1.02338E+00  9.91496E-01  3.18853E-02
    9045.958     52.282   3.920  1.01807E+00  9.91212E-01  2.68576E-02
    9047.159     53.483   3.960  1.01542E+00  9.90971E-01  2.44476E-02
    9048.372     54.697   4.000  1.01677E+00  9.90775E-01  2.59975E-02
    9049.598     55.922   4.040  1.02290E+00  9.90645E-01  3.22518E-02
    9050.835     57.159   4.080  1.03360E+00  9.90559E-01  4.30408E-02
    9052.085     58.409   4.120  1.04779E+00  9.90515E-01  5.72756E-02
    9053.347     59.671   4.160  1.06364E+00  9.90513E-01  7.31311E-02
    9054.621     60.945   4.200  1.07894E+00  9.90551E-01  8.83835E-02
    9055.907     62.231   4.240  1.09140E+00  9.90632E-01  1.00770E-01
    9057.205     63.530   4.280  1.09916E+00  9.90773E-01  1.08388E-01
    9058.516     64.840   4.320  1.10104E+00  9.90934E-01  1.10103E-01
    9059.839     66.163   4.360  1.09679E+00  9.91133E-01  1.05658E-01
    9061.174     67.498   4.400  1.08705E+00  9.91392E-01  9.56596E-02
    9062.521     68.845   4.440  1.07316E+00  9.91663E-01  8.14972E-02
    9063.880     70.205   4.480  1.05697E+00  9.91948E-01  6.50234E-02
    9065.252     71.576   4.520  1.04063E+00  9.92288E-01  4.83416E-02
    9066.636     72.960   4.560  1.02608E+00  9.92639E-01  3.34409E-02
    9068.032     74.356   4.600  1.01462E+00  9.93000E-01  2.16173E-02
    9069.440     75.764   4.640  1.00655E+00  9.93412E-01  1.31414E-02
    9070.860     77.185   4.680  1.00112E+00  9.93810E-01  7.30694E-03
    9072.293     78.617   4.720  9.97074E-01  9.94234E-01  2.84034E-03
    9073.738     80.062   4.760  9.93123E-01  9.94662E-01 -1.53861E-03
    9075.195     81.519   4.800  9.88344E-01  9.95094E-01 -6.75041E-03
    9076.664     82.988   4.840  9.82342E-01  9.95548E-01 -1.32064E-02
    9078.145     84.469   4.880  9.75202E-01  9.95982E-01 -2.07801E-02
    9079.639     85.963   4.920  9.67428E-01  9.96435E-01 -2.90067E-02
    9081.144     87.468   4.960  9.59467E-01  9.96863E-01 -3.73957E-02
    9082.662     88.986   5.000  9.51710E-01  9.97285E-01 -4.55750E-02
    9084.192     90.516   5.040  9.44324E-01  9.97703E-01 -5.33786E-02
    9085.734     92.059   5.080  9.37368E-01  9.98094E-01 -6.07257E-02
    9087.289     93.613   5.120  9.30945E-01  9.98497E-01 -6.75518E-02
    9088.856     95.180   5.160  9.25147E-01  9.98847E-01 -7.36996E-02
    9090.434     96.759   5.200  9.20433E-01  9.99186E-01 -7.87535E-02
    9092.026     98.350   5.240  9.17477E-01  9.99516E-01 -8.20391E-02
    9093.629     99.953   5.280  9.17042E-01  9.99812E-01 -8.27699E-02
    9095.244    101.568   5.320  9.19698E-01  1.00007E+00 -8.03749E-02
    9096.872    103.196   5.360  9.25601E-01  1.00032E+00 -7.47195E-02
    9098.512    104.836   5.400  9.34469E-01  1.00053E+00 -6.60629E-02
    9100.164    106.488   5.440  9.45865E-01  1.00071E+00 -5.48397E-02
    9101.828    108.152   5.480  9.59464E-01  1.00084E+00 -4.13769E-02
    9103.504    109.828   5.520  9.75115E-01  1.00096E+00 -2.58466E-02
    9105.193    111.517   5.560  9.92463E-01  1.00102E+00 -8.55937E-03
    9106.894    113.218   5.600  1.01082E+00  1.00106E+00  9.75525E-03
    9108.607    114.931   5.640  1.02894E+00  1.00107E+00  2.78762E-02
    9110.332    116.656   5.680  1.04528E+00  1.00101E+00  4.42680E-02
    9112.069    118.393   5.720  1.05826E+00  1.00093E+00  5.73270E-02
    9113.819    120.143   5.760  1.06640E+00  1.00082E+00  6.55771E-02
    9115.580    121.905   5.800  1.06852E+00  1.00067E+00  6.78505E-02
    9117.354    123.679   5.840  1.06407E+00  1.00048E+00  6.35925E-02
    9119.140    125.465   5.880  1.05353E+00  1.00025E+00  5.32769E-02
    9120.939    127.263   5.920  1.03873E+00  1.00002E+00  3.87120E-02
    9122.749    129.073   5.960  1.02249E+00  9.99717E-01  2.27731E-02
    9124.572    130.896   6.000  1.00766E+00  9.99386E-01  8.26939E-03
