# # comment:                                                     FEFF 9.9.1  
# # Source:
# # Structure
# # Reduced
# # space
# # abc:
# # angles:
# # sites:
# # POT  SCF 100  7.0000   0, screened core-hole, AFOLP (folp(0)= 1.150)
# # Abs   Z=29 Rmt= 1.182 Rnm= 1.272 K  shell
# # Pot 1 Z=38 Rmt= 1.774 Rnm= 1.846
# # Pot 2 Z=29 Rmt= 1.179 Rnm= 1.270
# # Pot 3 Z=83 Rmt= 1.479 Rnm= 1.653
# # Pot 4 Z= 8 Rmt= 1.053 Rnm= 1.103
# # Gam_ch=1.729E+00 H-L exch Vi= 0.000E+00 Vr= 0.000E+00
# # Mu=-8.028E+00eV kf=1.971E+00 Vint=-1.728E+01eV Rs_int= 1.840
# FMS rfms= 9.0000
# # PATH  Rmax=-1.000,  Keep_limit= 0.00, Heap_limit 0.00  Pwcrit= 2.50%
#  S02=0.950  Temp=   0.00  Debye_temp=   0.00  Global_sig2= 0.00000
#  Energy zero shift, vr, vi    0.00000E+00   0.00000E+00
#  Curved wave amplitude ratio filter   4.000%
#     file         sig2 tot  cw amp ratio   deg  nlegs   reff  inp sig2
#     0/   0 paths used
#  xsedge+ 50, used to normalize mu           2.4320E-04
#  -----------------------------------------------------------------------
#  omega    e    k    mu    mu0     chi     @#
    8985.175    -11.838  -1.000  4.21447E-02  6.03782E-02 -1.82335E-02
    8985.474    -11.539  -0.960  4.44634E-02  6.49359E-02 -2.04725E-02
    8985.761    -11.253  -0.920  4.69725E-02  7.00135E-02 -2.30411E-02
    8986.035    -10.978  -0.880  4.96955E-02  7.56887E-02 -2.59932E-02
    8986.297    -10.716  -0.840  5.26599E-02  8.20516E-02 -2.93917E-02
    8986.547    -10.466  -0.800  5.58977E-02  8.92072E-02 -3.33095E-02
    8986.785    -10.228  -0.760  5.94458E-02  9.72757E-02 -3.78299E-02
    8987.010    -10.003  -0.720  6.33459E-02  1.06393E-01 -4.30474E-02
    8987.224     -9.790  -0.680  6.76443E-02  1.16710E-01 -4.90657E-02
    8987.425     -9.588  -0.640  7.23898E-02  1.28384E-01 -5.59944E-02
    8987.614     -9.399  -0.600  7.76300E-02  1.41572E-01 -6.39421E-02
    8987.791     -9.223  -0.560  8.34037E-02  1.56407E-01 -7.30034E-02
    8987.955     -9.058  -0.520  8.97294E-02  1.72969E-01 -8.32398E-02
    8988.108     -8.906  -0.480  9.65898E-02  1.91243E-01 -9.46530E-02
    8988.248     -8.765  -0.440  1.03913E-01  2.11067E-01 -1.07154E-01
    8988.376     -8.637  -0.400  1.11559E-01  2.32093E-01 -1.20535E-01
    8988.492     -8.522  -0.360  1.19315E-01  2.53775E-01 -1.34460E-01
    8988.595     -8.418  -0.320  1.26920E-01  2.75402E-01 -1.48481E-01
    8988.687     -8.326  -0.280  1.34096E-01  2.96183E-01 -1.62088E-01
    8988.766     -8.247  -0.240  1.40592E-01  3.15362E-01 -1.74770E-01
    8988.833     -8.180  -0.200  1.46223E-01  3.32305E-01 -1.86083E-01
    8988.888     -8.125  -0.160  1.50875E-01  3.46552E-01 -1.95677E-01
    8988.930     -8.083  -0.120  1.54496E-01  3.57808E-01 -2.03312E-01
    8988.961     -8.052  -0.080  1.57073E-01  3.65913E-01 -2.08840E-01
    8988.985     -8.028   0.000  1.59118E-01  3.72422E-01 -2.13304E-01
    8989.040     -7.973   0.120  1.63643E-01  3.87099E-01 -2.23455E-01
    8989.083     -7.930   0.160  1.67106E-01  3.98496E-01 -2.31390E-01
    8989.138     -7.875   0.200  1.71431E-01  4.13027E-01 -2.41596E-01
    8989.205     -7.808   0.240  1.76519E-01  4.30484E-01 -2.53964E-01
    8989.284     -7.729   0.280  1.82228E-01  4.50501E-01 -2.68273E-01
    8989.375     -7.638   0.320  1.88394E-01  4.72529E-01 -2.84135E-01
    8989.479     -7.534   0.360  1.94886E-01  4.95890E-01 -3.01004E-01
    8989.595     -7.418   0.400  2.01674E-01  5.19905E-01 -3.18231E-01
    8989.723     -7.290   0.440  2.08838E-01  5.43917E-01 -3.35078E-01
    8989.863     -7.150   0.480  2.16543E-01  5.67390E-01 -3.50846E-01
    8990.016     -6.998   0.520  2.25067E-01  5.90030E-01 -3.64962E-01
    8990.180     -6.833   0.560  2.34672E-01  6.11647E-01 -3.76975E-01
    8990.357     -6.656   0.600  2.45632E-01  6.32226E-01 -3.86594E-01
    8990.546     -6.467   0.640  2.58206E-01  6.51790E-01 -3.93584E-01
    8990.747     -6.266   0.680  2.72784E-01  6.70452E-01 -3.97668E-01
    8990.960     -6.053   0.720  2.89898E-01  6.88319E-01 -3.98421E-01
    8991.186     -5.827   0.760  3.10243E-01  7.05455E-01 -3.95212E-01
    8991.424     -5.589   0.800  3.34854E-01  7.22020E-01 -3.87166E-01
    8991.674     -5.339   0.840  3.64589E-01  7.38031E-01 -3.73441E-01
    8991.936     -5.077   0.880  4.00138E-01  7.53572E-01 -3.53434E-01
    8992.210     -4.803   0.920  4.41652E-01  7.68692E-01 -3.27040E-01
    8992.497     -4.516   0.960  4.88473E-01  7.83426E-01 -2.94953E-01
    8992.795     -4.218   1.000  5.38377E-01  7.97773E-01 -2.59396E-01
    8993.106     -3.907   1.040  5.87086E-01  8.11747E-01 -2.24661E-01
    8993.429     -3.584   1.080  6.28489E-01  8.25330E-01 -1.96841E-01
    8993.765     -3.249   1.120  6.56059E-01  8.38559E-01 -1.82500E-01
    8994.112     -2.901   1.160  6.66593E-01  8.51385E-01 -1.84791E-01
    8994.472     -2.541   1.200  6.65467E-01  8.63794E-01 -1.98328E-01
    8994.844     -2.170   1.240  6.65214E-01  8.75811E-01 -2.10597E-01
    8995.228     -1.785   1.280  6.78837E-01  8.87377E-01 -2.08540E-01
    8995.624     -1.389   1.320  7.15828E-01  8.98472E-01 -1.82645E-01
    8996.032     -0.981   1.360  7.78864E-01  9.09116E-01 -1.30252E-01
    8996.453     -0.560   1.400  8.60098E-01  9.19286E-01 -5.91878E-02
    8996.886     -0.127   1.440  9.35747E-01  9.28943E-01  6.80394E-03
    8997.331      0.318   1.480  9.73328E-01  9.38086E-01  3.52421E-02
    8997.788      0.775   1.520  9.69924E-01  9.46734E-01  2.31901E-02
    8998.257      1.244   1.560  9.55450E-01  9.54850E-01  5.99533E-04
    8998.739      1.726   1.600  9.50496E-01  9.62454E-01 -1.19576E-02
    8999.233      2.220   1.640  9.65618E-01  9.69529E-01 -3.91026E-03
    8999.739      2.726   1.680  1.01337E+00  9.76080E-01  3.72944E-02
    9000.257      3.244   1.720  1.09839E+00  9.82131E-01  1.16264E-01
    9000.787      3.774   1.760  1.21534E+00  9.87667E-01  2.27674E-01
    9001.330      4.317   1.800  1.34206E+00  9.92718E-01  3.49337E-01
    9001.884      4.871   1.840  1.41611E+00  9.97291E-01  4.18816E-01
    9002.451      5.438   1.880  1.41779E+00  1.00139E+00  4.16399E-01
    9003.030      6.017   1.920  1.39843E+00  1.00505E+00  3.93372E-01
    9003.622      6.609   1.960  1.37837E+00  1.00826E+00  3.70104E-01
    9004.225      7.212   2.000  1.35741E+00  1.01107E+00  3.46338E-01
    9004.841      7.828   2.040  1.33651E+00  1.01350E+00  3.23012E-01
    9005.469      8.456   2.080  1.31638E+00  1.01554E+00  3.00838E-01
    9006.109      9.096   2.120  1.29632E+00  1.01724E+00  2.79085E-01
    9006.761      9.748   2.160  1.27650E+00  1.01860E+00  2.57901E-01
    9007.426     10.413   2.200  1.25021E+00  1.01965E+00  2.30558E-01
    9008.102     11.089   2.240  1.20355E+00  1.02042E+00  1.83132E-01
    9008.791     11.778   2.280  1.13487E+00  1.02093E+00  1.13942E-01
    9009.492     12.479   2.320  1.06069E+00  1.02118E+00  3.95064E-02
    9010.205     13.192   2.360  1.00073E+00  1.02122E+00 -2.04931E-02
    9010.931     13.918   2.400  9.78423E-01  1.02105E+00 -4.26310E-02
    9011.668     14.655   2.440  9.85819E-01  1.02071E+00 -3.48907E-02
    9012.418     15.405   2.480  1.00791E+00  1.02020E+00 -1.22856E-02
    9013.180     16.167   2.520  1.03681E+00  1.01955E+00  1.72557E-02
    9013.954     16.941   2.560  1.06681E+00  1.01878E+00  4.80249E-02
    9014.741     17.728   2.600  1.09305E+00  1.01791E+00  7.51381E-02
    9015.539     18.526   2.640  1.11039E+00  1.01693E+00  9.34569E-02
    9016.350     19.337   2.680  1.11492E+00  1.01589E+00  9.90310E-02
    9017.173     20.160   2.720  1.10447E+00  1.01477E+00  8.96991E-02
    9018.008     20.995   2.760  1.08066E+00  1.01361E+00  6.70470E-02
    9018.856     21.843   2.800  1.04800E+00  1.01241E+00  3.55920E-02
    9019.715     22.702   2.840  1.01193E+00  1.01119E+00  7.35173E-04
    9020.587     23.574   2.880  9.77286E-01  1.00997E+00 -3.26829E-02
    9021.471     24.458   2.920  9.47120E-01  1.00875E+00 -6.16256E-02
    9022.367     25.354   2.960  9.22149E-01  1.00752E+00 -8.53759E-02
    9023.275     26.262   3.000  9.02460E-01  1.00633E+00 -1.03871E-01
    9024.196     27.183   3.040  8.87920E-01  1.00515E+00 -1.17230E-01
    9025.128     28.115   3.080  8.78705E-01  1.00400E+00 -1.25300E-01
    9026.073     29.060   3.120  8.75319E-01  1.00290E+00 -1.27580E-01
    9027.030     30.017   3.160  8.77865E-01  1.00186E+00 -1.23993E-01
    9028.000     30.986   3.200  8.85542E-01  1.00086E+00 -1.15322E-01
    9028.981     31.968   3.240  8.96655E-01  9.99916E-01 -1.03262E-01
    9029.975     32.962   3.280  9.08371E-01  9.99041E-01 -9.06706E-02
    9030.981     33.967   3.320  9.16965E-01  9.98240E-01 -8.12742E-02
    9031.999     34.985   3.360  9.19915E-01  9.97490E-01 -7.75748E-02
    9033.029     36.016   3.400  9.16999E-01  9.96816E-01 -7.98169E-02
    9034.071     37.058   3.440  9.10302E-01  9.96219E-01 -8.59176E-02
    9035.126     38.113   3.480  9.02759E-01  9.95679E-01 -9.29193E-02
    9036.193     39.179   3.520  8.97086E-01  9.95238E-01 -9.81518E-02
    9037.272     40.258   3.560  8.95032E-01  9.94878E-01 -9.98459E-02
    9038.363     41.350   3.600  8.97291E-01  9.94576E-01 -9.72842E-02
    9039.466     42.453   3.640  9.03621E-01  9.94373E-01 -9.07522E-02
    9040.582     43.569   3.680  9.12973E-01  9.94227E-01 -8.12536E-02
    9041.709     44.696   3.720  9.23921E-01  9.94158E-01 -7.02376E-02
    9042.849     45.836   3.760  9.35077E-01  9.94169E-01 -5.90924E-02
    9044.002     46.988   3.800  9.45871E-01  9.94258E-01 -4.83871E-02
    9045.166     48.153   3.840  9.56427E-01  9.94422E-01 -3.79947E-02
    9046.342     49.329   3.880  9.67253E-01  9.94639E-01 -2.73867E-02
    9047.531     50.518   3.920  9.78918E-01  9.94930E-01 -1.60120E-02
    9048.732     51.719   3.960  9.91580E-01  9.95272E-01 -3.69197E-03
    9049.945     52.932   4.000  1.00476E+00  9.95708E-01  9.05331E-03
    9051.170     54.157   4.040  1.01713E+00  9.96171E-01  2.09565E-02
    9052.408     55.395   4.080  1.02722E+00  9.96702E-01  3.05184E-02
    9053.658     56.644   4.120  1.03411E+00  9.97277E-01  3.68368E-02
    9054.919     57.906   4.160  1.03808E+00  9.97896E-01  4.01837E-02
    9056.193     59.180   4.200  1.04062E+00  9.98577E-01  4.20471E-02
    9057.480     60.467   4.240  1.04362E+00  9.99276E-01  4.43436E-02
    9058.778     61.765   4.280  1.04865E+00  1.00001E+00  4.86334E-02
    9060.089     63.076   4.320  1.05649E+00  1.00078E+00  5.57041E-02
    9061.412     64.399   4.360  1.06708E+00  1.00156E+00  6.55202E-02
    9062.747     65.734   4.400  1.07975E+00  1.00237E+00  7.73770E-02
    9064.094     67.081   4.440  1.09326E+00  1.00321E+00  9.00469E-02
    9065.453     68.440   4.480  1.10600E+00  1.00404E+00  1.01962E-01
    9066.825     69.812   4.520  1.11638E+00  1.00489E+00  1.11488E-01
    9068.209     71.196   4.560  1.12308E+00  1.00574E+00  1.17348E-01
    9069.605     72.591   4.600  1.12546E+00  1.00659E+00  1.18870E-01
    9071.013     74.000   4.640  1.12342E+00  1.00743E+00  1.15985E-01
    9072.433     75.420   4.680  1.11726E+00  1.00827E+00  1.08985E-01
    9073.866     76.853   4.720  1.10763E+00  1.00908E+00  9.85508E-02
    9075.310     78.297   4.760  1.09535E+00  1.00989E+00  8.54626E-02
    9076.767     79.754   4.800  1.08122E+00  1.01065E+00  7.05689E-02
    9078.237     81.223   4.840  1.06592E+00  1.01141E+00  5.45170E-02
    9079.718     82.705   4.880  1.04969E+00  1.01213E+00  3.75598E-02
    9081.211     84.198   4.920  1.03262E+00  1.01280E+00  1.98174E-02
    9082.717     85.704   4.960  1.01501E+00  1.01344E+00  1.56794E-03
    9084.235     87.222   5.000  9.97536E-01  1.01404E+00 -1.65018E-02
    9085.765     88.752   5.040  9.81287E-01  1.01459E+00 -3.33049E-02
    9087.307     90.294   5.080  9.67632E-01  1.01510E+00 -4.74703E-02
    9088.862     91.849   5.120  9.58092E-01  1.01557E+00 -5.74769E-02
    9090.428     93.415   5.160  9.53848E-01  1.01599E+00 -6.21407E-02
    9092.007     94.994   5.200  9.55288E-01  1.01634E+00 -6.10515E-02
    9093.598     96.585   5.240  9.61746E-01  1.01664E+00 -5.48973E-02
    9095.202     98.188   5.280  9.71528E-01  1.01690E+00 -4.53732E-02
    9096.817     99.804   5.320  9.82319E-01  1.01711E+00 -3.47921E-02
    9098.445    101.432   5.360  9.91689E-01  1.01725E+00 -2.55586E-02
    9100.084    103.071   5.400  9.97702E-01  1.01731E+00 -1.96118E-02
    9101.736    104.723   5.440  9.99255E-01  1.01735E+00 -1.80984E-02
    9103.401    106.388   5.480  9.96149E-01  1.01732E+00 -2.11733E-02
    9105.077    108.064   5.520  9.89324E-01  1.01722E+00 -2.78951E-02
    9106.766    109.753   5.560  9.80604E-01  1.01707E+00 -3.64634E-02
    9108.466    111.453   5.600  9.71957E-01  1.01687E+00 -4.49134E-02
    9110.179    113.166   5.640  9.64875E-01  1.01663E+00 -5.17551E-02
    9111.905    114.891   5.680  9.60082E-01  1.01632E+00 -5.62390E-02
    9113.642    116.629   5.720  9.57814E-01  1.01599E+00 -5.81764E-02
    9115.391    118.378   5.760  9.58046E-01  1.01559E+00 -5.75467E-02
    9117.153    120.140   5.800  9.60743E-01  1.01513E+00 -5.43851E-02
    9118.927    121.914   5.840  9.65604E-01  1.01465E+00 -4.90457E-02
    9120.713    123.700   5.880  9.71679E-01  1.01414E+00 -4.24560E-02
    9122.512    125.498   5.920  9.77750E-01  1.01359E+00 -3.58383E-02
    9124.322    127.309   5.960  9.82294E-01  1.01301E+00 -3.07139E-02
    9126.145    129.132   6.000  9.85346E-01  1.01236E+00 -2.70180E-02
