# # comment:                                                     FEFF 9.9.1  
# # Source:
# # Structure
# # Reduced
# # space
# # abc:
# # angles:
# # sites:
# # POT  SCF 100  7.0000   0, screened core-hole, AFOLP (folp(0)= 1.150)
# # Abs   Z=29 Rmt= 1.351 Rnm= 1.429 K  shell
# # Pot 1 Z=29 Rmt= 1.230 Rnm= 1.344
# # Pot 2 Z=74 Rmt= 1.234 Rnm= 1.422
# # Pot 3 Z= 8 Rmt= 0.915 Rnm= 1.074
# # Gam_ch=1.729E+00 H-L exch Vi= 0.000E+00 Vr= 0.000E+00
# # Mu=-5.445E+00eV kf=2.253E+00 Vint=-1.561E+01eV Rs_int= 1.610
# FMS rfms= 9.0000
# # PATH  Rmax=-1.000,  Keep_limit= 0.00, Heap_limit 0.00  Pwcrit= 2.50%
#  S02=0.950  Temp=   0.00  Debye_temp=   0.00  Global_sig2= 0.00000
#  Energy zero shift, vr, vi    0.00000E+00   0.00000E+00
#  Curved wave amplitude ratio filter   4.000%
#     file         sig2 tot  cw amp ratio   deg  nlegs   reff  inp sig2
#     0/   0 paths used
#  xsedge+ 50, used to normalize mu           2.4593E-04
#  -----------------------------------------------------------------------
#  omega    e    k    mu    mu0     chi     @#
    8983.687     -9.255  -1.000  5.59128E-02  5.76437E-02 -1.73085E-03
    8983.986     -8.957  -0.960  6.00203E-02  6.19617E-02 -1.94137E-03
    8984.272     -8.670  -0.920  6.45871E-02  6.67718E-02 -2.18470E-03
    8984.546     -8.396  -0.880  6.96801E-02  7.21474E-02 -2.46725E-03
    8984.809     -8.134  -0.840  7.53773E-02  7.81742E-02 -2.79688E-03
    8985.058     -7.884  -0.800  8.17686E-02  8.49517E-02 -3.18316E-03
    8985.296     -7.646  -0.760  8.89565E-02  9.25942E-02 -3.63763E-03
    8985.522     -7.421  -0.720  9.70567E-02  1.01231E-01 -4.17402E-03
    8985.735     -7.207  -0.680  1.06196E-01  1.11004E-01 -4.80824E-03
    8985.936     -7.006  -0.640  1.16507E-01  1.22065E-01 -5.55802E-03
    8986.125     -6.817  -0.600  1.28119E-01  1.34561E-01 -6.44195E-03
    8986.302     -6.640  -0.560  1.41143E-01  1.48620E-01 -7.47759E-03
    8986.467     -6.476  -0.520  1.55640E-01  1.64318E-01 -8.67822E-03
    8986.619     -6.323  -0.480  1.71592E-01  1.81641E-01 -1.00483E-02
    8986.759     -6.183  -0.440  1.88856E-01  2.00435E-01 -1.15782E-02
    8986.887     -6.055  -0.400  2.07131E-01  2.20370E-01 -1.32388E-02
    8987.003     -5.939  -0.360  2.25946E-01  2.40926E-01 -1.49801E-02
    8987.107     -5.836  -0.320  2.44695E-01  2.61429E-01 -1.67337E-02
    8987.198     -5.744  -0.280  2.62706E-01  2.81128E-01 -1.84224E-02
    8987.277     -5.665  -0.240  2.79332E-01  2.99305E-01 -1.99723E-02
    8987.344     -5.598  -0.200  2.94035E-01  3.15359E-01 -2.13242E-02
    8987.399     -5.543  -0.160  3.06414E-01  3.28854E-01 -2.24404E-02
    8987.442     -5.500  -0.120  3.16209E-01  3.39515E-01 -2.33057E-02
    8987.472     -5.470  -0.080  3.23267E-01  3.47190E-01 -2.39228E-02
    8987.497     -5.445   0.000  3.28918E-01  3.53351E-01 -2.44339E-02
    8987.552     -5.391   0.120  3.41762E-01  3.67242E-01 -2.54798E-02
    8987.594     -5.348   0.160  3.51801E-01  3.78019E-01 -2.62178E-02
    8987.649     -5.293   0.200  3.64695E-01  3.91759E-01 -2.70632E-02
    8987.716     -5.226   0.240  3.80346E-01  4.08257E-01 -2.79114E-02
    8987.796     -5.147   0.280  3.98566E-01  4.27164E-01 -2.85980E-02
    8987.887     -5.055   0.320  4.19082E-01  4.47966E-01 -2.88840E-02
    8987.991     -4.952   0.360  4.41546E-01  4.69993E-01 -2.84469E-02
    8988.106     -4.836   0.400  4.65680E-01  4.92593E-01 -2.69136E-02
    8988.234     -4.708   0.440  4.91240E-01  5.15138E-01 -2.38980E-02
    8988.375     -4.568   0.480  5.18079E-01  5.37153E-01 -1.90744E-02
    8988.527     -4.415   0.520  5.46033E-01  5.58299E-01 -1.22664E-02
    8988.692     -4.251   0.560  5.74951E-01  5.78478E-01 -3.52607E-03
    8988.868     -4.074   0.600  6.04263E-01  5.97613E-01  6.65090E-03
    8989.057     -3.885   0.640  6.32775E-01  6.15772E-01  1.70037E-02
    8989.259     -3.684   0.680  6.58380E-01  6.33044E-01  2.53352E-02
    8989.472     -3.470   0.720  6.78504E-01  6.49559E-01  2.89459E-02
    8989.698     -3.245   0.760  6.91234E-01  6.65420E-01  2.58134E-02
    8989.935     -3.007   0.800  6.96508E-01  6.80725E-01  1.57826E-02
    8990.185     -2.757   0.840  6.96111E-01  6.95534E-01  5.77240E-04
    8990.447     -2.495   0.880  6.92304E-01  7.09933E-01 -1.76289E-02
    8990.722     -2.221   0.920  6.86368E-01  7.23992E-01 -3.76237E-02
    8991.008     -1.934   0.960  6.78759E-01  7.37707E-01 -5.89473E-02
    8991.307     -1.635   1.000  6.70372E-01  7.51125E-01 -8.07535E-02
    8991.618     -1.325   1.040  6.62628E-01  7.64281E-01 -1.01653E-01
    8991.941     -1.001   1.080  6.56978E-01  7.77161E-01 -1.20183E-01
    8992.276     -0.666   1.120  6.55501E-01  7.89764E-01 -1.34263E-01
    8992.624     -0.319   1.160  6.61023E-01  8.02084E-01 -1.41062E-01
    8992.983      0.041   1.200  6.74854E-01  8.14112E-01 -1.39258E-01
    8993.355      0.413   1.240  6.94892E-01  8.25851E-01 -1.30959E-01
    8993.739      0.797   1.280  7.17923E-01  8.37287E-01 -1.19364E-01
    8994.135      1.193   1.320  7.43314E-01  8.48381E-01 -1.05067E-01
    8994.544      1.602   1.360  7.72117E-01  8.59151E-01 -8.70339E-02
    8994.964      2.022   1.400  8.04475E-01  8.69556E-01 -6.50810E-02
    8995.397      2.455   1.440  8.39101E-01  8.79576E-01 -4.04750E-02
    8995.842      2.900   1.480  8.72310E-01  8.89248E-01 -1.69378E-02
    8996.299      3.357   1.520  8.97964E-01  8.98509E-01 -5.44228E-04
    8996.769      3.827   1.560  9.12939E-01  9.07358E-01  5.58073E-03
    8997.250      4.308   1.600  9.22284E-01  9.15796E-01  6.48774E-03
    8997.744      4.802   1.640  9.34808E-01  9.23841E-01  1.09668E-02
    8998.250      5.308   1.680  9.55020E-01  9.31432E-01  2.35883E-02
    8998.768      5.826   1.720  9.81986E-01  9.38632E-01  4.33539E-02
    8999.299      6.356   1.760  1.01330E+00  9.45382E-01  6.79140E-02
    8999.841      6.899   1.800  1.04836E+00  9.51725E-01  9.66323E-02
    9000.396      7.454   1.840  1.08692E+00  9.57664E-01  1.29252E-01
    9000.963      8.021   1.880  1.12634E+00  9.63161E-01  1.63177E-01
    9001.542      8.600   1.920  1.16155E+00  9.68264E-01  1.93283E-01
    9002.133      9.191   1.960  1.18844E+00  9.72977E-01  2.15468E-01
    9002.737      9.794   2.000  1.20454E+00  9.77306E-01  2.27230E-01
    9003.353     10.410   2.040  1.20650E+00  9.81259E-01  2.25240E-01
    9003.980     11.038   2.080  1.19321E+00  9.84862E-01  2.08345E-01
    9004.620     11.678   2.120  1.16997E+00  9.88102E-01  1.81869E-01
    9005.273     12.330   2.160  1.14254E+00  9.91027E-01  1.51514E-01
    9005.937     12.995   2.200  1.11212E+00  9.93625E-01  1.18494E-01
    9006.614     13.672   2.240  1.07960E+00  9.95906E-01  8.36931E-02
    9007.303     14.360   2.280  1.04768E+00  9.97916E-01  4.97628E-02
    9008.004     15.061   2.320  1.01932E+00  9.99665E-01  1.96516E-02
    9008.717     15.775   2.360  9.95769E-01  1.00114E+00 -5.37326E-03
    9009.442     16.500   2.400  9.74991E-01  1.00240E+00 -2.74052E-02
    9010.180     17.238   2.440  9.52483E-01  1.00344E+00 -5.09525E-02
    9010.930     17.987   2.480  9.25768E-01  1.00425E+00 -7.84784E-02
    9011.692     18.749   2.520  8.99564E-01  1.00490E+00 -1.05335E-01
    9012.466     19.524   2.560  8.84040E-01  1.00536E+00 -1.21321E-01
    9013.252     20.310   2.600  8.85661E-01  1.00566E+00 -1.19998E-01
    9014.051     21.109   2.640  9.02592E-01  1.00582E+00 -1.03231E-01
    9014.862     21.919   2.680  9.29258E-01  1.00586E+00 -7.66016E-02
    9015.685     22.742   2.720  9.53081E-01  1.00578E+00 -5.26942E-02
    9016.520     23.577   2.760  9.74553E-01  1.00560E+00 -3.10453E-02
    9017.367     24.425   2.800  9.93376E-01  1.00533E+00 -1.19574E-02
    9018.227     25.284   2.840  1.00954E+00  1.00499E+00  4.55705E-03
    9019.098     26.156   2.880  1.02304E+00  1.00456E+00  1.84783E-02
    9019.982     27.040   2.920  1.03388E+00  1.00409E+00  2.97893E-02
    9020.878     27.936   2.960  1.04199E+00  1.00358E+00  3.84140E-02
    9021.787     28.844   3.000  1.04749E+00  1.00302E+00  4.44664E-02
    9022.707     29.765   3.040  1.05029E+00  1.00245E+00  4.78446E-02
    9023.640     30.698   3.080  1.05022E+00  1.00185E+00  4.83691E-02
    9024.585     31.642   3.120  1.04718E+00  1.00124E+00  4.59345E-02
    9025.542     32.600   3.160  1.04126E+00  1.00063E+00  4.06290E-02
    9026.511     33.569   3.200  1.03304E+00  1.00004E+00  3.29959E-02
    9027.493     34.550   3.240  1.02327E+00  9.99436E-01  2.38379E-02
    9028.486     35.544   3.280  1.01277E+00  9.98858E-01  1.39089E-02
    9029.492     36.550   3.320  1.00195E+00  9.98309E-01  3.64234E-03
    9030.510     37.568   3.360  9.91143E-01  9.97769E-01 -6.62632E-03
    9031.540     38.598   3.400  9.80699E-01  9.97263E-01 -1.65641E-02
    9032.583     39.640   3.440  9.70984E-01  9.96771E-01 -2.57869E-02
    9033.637     40.695   3.480  9.62436E-01  9.96335E-01 -3.38993E-02
    9034.704     41.762   3.520  9.55460E-01  9.95918E-01 -4.04587E-02
    9035.783     42.841   3.560  9.50390E-01  9.95562E-01 -4.51720E-02
    9036.874     43.932   3.600  9.47306E-01  9.95245E-01 -4.79387E-02
    9037.978     45.035   3.640  9.46027E-01  9.94947E-01 -4.89206E-02
    9039.093     46.151   3.680  9.46270E-01  9.94712E-01 -4.84419E-02
    9040.221     47.279   3.720  9.47625E-01  9.94519E-01 -4.68939E-02
    9041.361     48.419   3.760  9.49828E-01  9.94368E-01 -4.45407E-02
    9042.513     49.571   3.800  9.52801E-01  9.94281E-01 -4.14798E-02
    9043.677     50.735   3.840  9.56472E-01  9.94213E-01 -3.77409E-02
    9044.854     51.912   3.880  9.60784E-01  9.94185E-01 -3.34011E-02
    9046.043     53.100   3.920  9.65603E-01  9.94220E-01 -2.86172E-02
    9047.244     54.301   3.960  9.70676E-01  9.94275E-01 -2.35982E-02
    9048.457     55.514   4.000  9.75860E-01  9.94390E-01 -1.85304E-02
    9049.682     56.740   4.040  9.81035E-01  9.94545E-01 -1.35096E-02
    9050.919     57.977   4.080  9.86142E-01  9.94716E-01 -8.57489E-03
    9052.169     59.227   4.120  9.91206E-01  9.94946E-01 -3.74023E-03
    9053.431     60.489   4.160  9.96175E-01  9.95191E-01  9.83937E-04
    9054.705     61.763   4.200  1.00103E+00  9.95470E-01  5.55596E-03
    9055.991     63.049   4.240  1.00569E+00  9.95784E-01  9.90752E-03
    9057.290     64.347   4.280  1.01011E+00  9.96106E-01  1.40036E-02
    9058.600     65.658   4.320  1.01437E+00  9.96460E-01  1.79066E-02
    9059.923     66.981   4.360  1.01857E+00  9.96823E-01  2.17424E-02
    9061.258     68.316   4.400  1.02280E+00  9.97215E-01  2.55895E-02
    9062.605     69.663   4.440  1.02705E+00  9.97614E-01  2.94391E-02
    9063.965     71.022   4.480  1.03118E+00  9.98040E-01  3.31385E-02
    9065.336     72.394   4.520  1.03488E+00  9.98467E-01  3.64141E-02
    9066.720     73.778   4.560  1.03785E+00  9.98873E-01  3.89772E-02
    9068.116     75.174   4.600  1.03990E+00  9.99302E-01  4.05955E-02
    9069.524     76.582   4.640  1.04087E+00  9.99731E-01  4.11392E-02
    9070.945     78.002   4.680  1.04080E+00  1.00016E+00  4.06429E-02
    9072.377     79.435   4.720  1.03989E+00  1.00059E+00  3.93031E-02
    9073.822     80.880   4.760  1.03837E+00  1.00101E+00  3.73667E-02
    9075.279     82.337   4.800  1.03637E+00  1.00140E+00  3.49743E-02
    9076.748     83.806   4.840  1.03384E+00  1.00178E+00  3.20646E-02
    9078.229     85.287   4.880  1.03055E+00  1.00213E+00  2.84198E-02
    9079.723     86.781   4.920  1.02633E+00  1.00248E+00  2.38553E-02
    9081.229     88.286   4.960  1.02122E+00  1.00281E+00  1.84067E-02
    9082.746     89.804   5.000  1.01549E+00  1.00311E+00  1.23792E-02
    9084.277     91.334   5.040  1.00960E+00  1.00338E+00  6.22216E-03
    9085.819     92.877   5.080  1.00398E+00  1.00363E+00  3.56618E-04
    9087.373     94.431   5.120  9.98904E-01  1.00384E+00 -4.93876E-03
    9088.940     95.998   5.160  9.94436E-01  1.00402E+00 -9.58545E-03
    9090.519     97.577   5.200  9.90479E-01  1.00416E+00 -1.36839E-02
    9092.110     99.168   5.240  9.86902E-01  1.00429E+00 -1.73883E-02
    9093.713    100.771   5.280  9.83569E-01  1.00438E+00 -2.08112E-02
    9095.329    102.386   5.320  9.80444E-01  1.00443E+00 -2.39869E-02
    9096.956    104.014   5.360  9.77498E-01  1.00444E+00 -2.69432E-02
    9098.596    105.654   5.400  9.74716E-01  1.00441E+00 -2.96967E-02
    9100.248    107.306   5.440  9.72173E-01  1.00435E+00 -3.21735E-02
    9101.912    108.970   5.480  9.70122E-01  1.00426E+00 -3.41410E-02
    9103.589    110.646   5.520  9.68816E-01  1.00412E+00 -3.53029E-02
    9105.277    112.335   5.560  9.68467E-01  1.00396E+00 -3.54916E-02
    9106.978    114.036   5.600  9.69006E-01  1.00376E+00 -3.47558E-02
    9108.691    115.749   5.640  9.70216E-01  1.00353E+00 -3.33093E-02
    9110.416    117.474   5.680  9.71862E-01  1.00325E+00 -3.13890E-02
    9112.153    119.211   5.720  9.73838E-01  1.00294E+00 -2.91031E-02
    9113.903    120.961   5.760  9.76269E-01  1.00262E+00 -2.63497E-02
    9115.665    122.722   5.800  9.79384E-01  1.00226E+00 -2.28772E-02
    9117.439    124.496   5.840  9.83416E-01  1.00187E+00 -1.84535E-02
    9119.225    126.282   5.880  9.88456E-01  1.00145E+00 -1.29898E-02
    9121.023    128.081   5.920  9.94426E-01  1.00102E+00 -6.59087E-03
    9122.834    129.891   5.960  1.00093E+00  1.00056E+00  3.66205E-04
    9124.656    131.714   6.000  1.00737E+00  1.00005E+00  7.32012E-03
