# # comment:                                                     FEFF 9.9.1  
# # Source:
# # Structure
# # Reduced
# # space
# # abc:
# # angles:
# # sites:
# # POT  SCF 100  7.0000   0, screened core-hole, AFOLP (folp(0)= 1.150)
# # Abs   Z=29 Rmt= 1.292 Rnm= 1.363 K  shell
# # Pot 1 Z=29 Rmt= 1.292 Rnm= 1.363
# # Pot 2 Z= 6 Rmt= 0.707 Rnm= 0.923
# # Pot 3 Z= 8 Rmt= 0.840 Rnm= 1.016
# # Gam_ch=1.729E+00 H-L exch Vi= 0.000E+00 Vr= 0.000E+00
# # Mu=-6.972E+00eV kf=2.631E+00 Vint=-1.810E+01eV Rs_int= 1.379
# FMS rfms= 9.0000
# # PATH  Rmax=-1.000,  Keep_limit= 0.00, Heap_limit 0.00  Pwcrit= 2.50%
#  S02=0.950  Temp=   0.00  Debye_temp=   0.00  Global_sig2= 0.00000
#  Energy zero shift, vr, vi    0.00000E+00   0.00000E+00
#  Curved wave amplitude ratio filter   4.000%
#     file         sig2 tot  cw amp ratio   deg  nlegs   reff  inp sig2
#     0/   0 paths used
#  xsedge+ 50, used to normalize mu           2.5069E-04
#  -----------------------------------------------------------------------
#  omega    e    k    mu    mu0     chi     @#
    8983.265    -10.782  -1.000  4.15902E-02  5.09091E-02 -9.31894E-03
    8983.564    -10.483  -0.960  4.40455E-02  5.45695E-02 -1.05240E-02
    8983.850    -10.197  -0.920  4.67247E-02  5.86371E-02 -1.19123E-02
    8984.125     -9.922  -0.880  4.96573E-02  6.31722E-02 -1.35149E-02
    8984.387     -9.660  -0.840  5.28771E-02  6.82452E-02 -1.53681E-02
    8984.637     -9.410  -0.800  5.64232E-02  7.39374E-02 -1.75142E-02
    8984.874     -9.172  -0.760  6.03399E-02  8.03426E-02 -2.00027E-02
    8985.100     -8.947  -0.720  6.46770E-02  8.75665E-02 -2.28895E-02
    8985.313     -8.734  -0.680  6.94888E-02  9.57258E-02 -2.62370E-02
    8985.515     -8.532  -0.640  7.48318E-02  1.04944E-01 -3.01122E-02
    8985.704     -8.343  -0.600  8.07603E-02  1.15342E-01 -3.45817E-02
    8985.880     -8.167  -0.560  8.73187E-02  1.27024E-01 -3.97049E-02
    8986.045     -8.002  -0.520  9.45296E-02  1.40051E-01 -4.55211E-02
    8986.197     -7.850  -0.480  1.02377E-01  1.54410E-01 -5.20330E-02
    8986.337     -7.709  -0.440  1.10788E-01  1.69975E-01 -5.91870E-02
    8986.466     -7.581  -0.400  1.19619E-01  1.86474E-01 -6.68557E-02
    8986.581     -7.466  -0.360  1.28648E-01  2.03479E-01 -7.48313E-02
    8986.685     -7.362  -0.320  1.37595E-01  2.20434E-01 -8.28382E-02
    8986.776     -7.271  -0.280  1.46156E-01  2.36721E-01 -9.05650E-02
    8986.856     -7.191  -0.240  1.54040E-01  2.51749E-01 -9.77092E-02
    8986.923     -7.124  -0.200  1.61006E-01  2.65023E-01 -1.04017E-01
    8986.978     -7.069  -0.160  1.66878E-01  2.76183E-01 -1.09304E-01
    8987.020     -7.027  -0.120  1.71540E-01  2.85000E-01 -1.13460E-01
    8987.051     -6.996  -0.080  1.74919E-01  2.91348E-01 -1.16430E-01
    8987.075     -6.972   0.000  1.77665E-01  2.96447E-01 -1.18782E-01
    8987.130     -6.917   0.120  1.83760E-01  3.07938E-01 -1.24178E-01
    8987.173     -6.874   0.160  1.88523E-01  3.16868E-01 -1.28344E-01
    8987.228     -6.819   0.200  1.94662E-01  3.28252E-01 -1.33591E-01
    8987.295     -6.752   0.240  2.02181E-01  3.41926E-01 -1.39745E-01
    8987.374     -6.673   0.280  2.11091E-01  3.57603E-01 -1.46512E-01
    8987.465     -6.582   0.320  2.21375E-01  3.74866E-01 -1.53491E-01
    8987.569     -6.478   0.360  2.33060E-01  3.93179E-01 -1.60119E-01
    8987.685     -6.362   0.400  2.46216E-01  4.12015E-01 -1.65799E-01
    8987.813     -6.234   0.440  2.60884E-01  4.30878E-01 -1.69994E-01
    8987.953     -6.094   0.480  2.77010E-01  4.49363E-01 -1.72353E-01
    8988.105     -5.942   0.520  2.94294E-01  4.67228E-01 -1.72934E-01
    8988.270     -5.777   0.560  3.12007E-01  4.84344E-01 -1.72337E-01
    8988.447     -5.600   0.600  3.28868E-01  5.00702E-01 -1.71834E-01
    8988.636     -5.411   0.640  3.43237E-01  5.16384E-01 -1.73147E-01
    8988.837     -5.210   0.680  3.53775E-01  5.31445E-01 -1.77670E-01
    8989.050     -4.997   0.720  3.60480E-01  5.46013E-01 -1.85534E-01
    8989.276     -4.771   0.760  3.64679E-01  5.60159E-01 -1.95480E-01
    8989.513     -4.533   0.800  3.68215E-01  5.73982E-01 -2.05768E-01
    8989.763     -4.284   0.840  3.72225E-01  5.87571E-01 -2.15347E-01
    8990.026     -4.021   0.880  3.76708E-01  6.01002E-01 -2.24294E-01
    8990.300     -3.747   0.920  3.81032E-01  6.14297E-01 -2.33264E-01
    8990.586     -3.461   0.960  3.85681E-01  6.27527E-01 -2.41846E-01
    8990.885     -3.162   1.000  3.93558E-01  6.40694E-01 -2.47136E-01
    8991.196     -2.851   1.040  4.08625E-01  6.53810E-01 -2.45186E-01
    8991.519     -2.528   1.080  4.33151E-01  6.66921E-01 -2.33770E-01
    8991.854     -2.193   1.120  4.66679E-01  6.80024E-01 -2.13345E-01
    8992.202     -1.845   1.160  5.06723E-01  6.93093E-01 -1.86369E-01
    8992.561     -1.485   1.200  5.50852E-01  7.06157E-01 -1.55304E-01
    8992.933     -1.114   1.240  5.99239E-01  7.19159E-01 -1.19920E-01
    8993.317     -0.730   1.280  6.55235E-01  7.32141E-01 -7.69065E-02
    8993.714     -0.333   1.320  7.22165E-01  7.45044E-01 -2.28788E-02
    8994.122      0.075   1.360  7.98196E-01  7.57863E-01  4.03338E-02
    8994.543      0.496   1.400  8.75228E-01  7.70572E-01  1.04656E-01
    8994.975      0.929   1.440  9.47880E-01  7.83165E-01  1.64715E-01
    8995.420      1.374   1.480  1.01556E+00  7.95618E-01  2.19941E-01
    8995.878      1.831   1.520  1.07058E+00  8.07878E-01  2.62703E-01
    8996.347      2.300   1.560  1.09936E+00  8.19957E-01  2.79399E-01
    8996.829      2.782   1.600  1.10099E+00  8.31808E-01  2.69181E-01
    8997.322      3.276   1.640  1.08887E+00  8.43419E-01  2.45451E-01
    8997.828      3.781   1.680  1.07419E+00  8.54762E-01  2.19433E-01
    8998.347      4.300   1.720  1.05689E+00  8.65806E-01  1.91082E-01
    8998.877      4.830   1.760  1.03098E+00  8.76564E-01  1.54414E-01
    8999.419      5.373   1.800  1.00054E+00  8.86967E-01  1.13574E-01
    8999.974      5.927   1.840  9.80057E-01  8.97045E-01  8.30120E-02
    9000.541      6.494   1.880  9.76511E-01  9.06754E-01  6.97571E-02
    9001.120      7.073   1.920  9.84844E-01  9.16086E-01  6.87587E-02
    9001.712      7.665   1.960  1.00110E+00  9.25012E-01  7.60917E-02
    9002.315      8.268   2.000  1.02801E+00  9.33530E-01  9.44804E-02
    9002.931      8.884   2.040  1.06185E+00  9.41655E-01  1.20200E-01
    9003.559      9.512   2.080  1.08710E+00  9.49343E-01  1.37762E-01
    9004.199     10.152   2.120  1.09919E+00  9.56612E-01  1.42581E-01
    9004.851     10.804   2.160  1.10962E+00  9.63440E-01  1.46179E-01
    9005.515     11.468   2.200  1.12606E+00  9.69825E-01  1.56235E-01
    9006.192     12.145   2.240  1.15552E+00  9.75789E-01  1.79735E-01
    9006.881     12.834   2.280  1.19796E+00  9.81313E-01  2.16650E-01
    9007.582     13.535   2.320  1.23333E+00  9.86399E-01  2.46927E-01
    9008.295     14.248   2.360  1.24026E+00  9.91068E-01  2.49191E-01
    9009.021     14.974   2.400  1.21821E+00  9.95327E-01  2.22885E-01
    9009.758     15.711   2.440  1.17537E+00  9.99157E-01  1.76213E-01
    9010.508     16.461   2.480  1.12077E+00  1.00260E+00  1.18163E-01
    9011.270     17.223   2.520  1.06496E+00  1.00565E+00  5.93098E-02
    9012.044     17.997   2.560  1.01397E+00  1.00831E+00  5.65854E-03
    9012.831     18.784   2.600  9.71199E-01  1.01062E+00 -3.94202E-02
    9013.629     19.582   2.640  9.39494E-01  1.01255E+00 -7.30582E-02
    9014.440     20.393   2.680  9.19899E-01  1.01417E+00 -9.42758E-02
    9015.263     21.216   2.720  9.12579E-01  1.01545E+00 -1.02875E-01
    9016.098     22.051   2.760  9.15610E-01  1.01644E+00 -1.00827E-01
    9016.945     22.898   2.800  9.21657E-01  1.01711E+00 -9.54577E-02
    9017.805     23.758   2.840  9.23374E-01  1.01753E+00 -9.41587E-02
    9018.677     24.630   2.880  9.19871E-01  1.01770E+00 -9.78298E-02
    9019.561     25.514   2.920  9.13507E-01  1.01761E+00 -1.04099E-01
    9020.457     26.410   2.960  9.06720E-01  1.01730E+00 -1.10580E-01
    9021.365     27.318   3.000  9.03802E-01  1.01679E+00 -1.12986E-01
    9022.285     28.239   3.040  9.07940E-01  1.01608E+00 -1.08139E-01
    9023.218     29.171   3.080  9.16113E-01  1.01520E+00 -9.90899E-02
    9024.163     30.116   3.120  9.25877E-01  1.01417E+00 -8.82892E-02
    9025.120     31.073   3.160  9.35503E-01  1.01298E+00 -7.74743E-02
    9026.089     32.042   3.200  9.44455E-01  1.01169E+00 -6.72305E-02
    9027.071     33.024   3.240  9.53120E-01  1.01028E+00 -5.71575E-02
    9028.064     34.017   3.280  9.61956E-01  1.00876E+00 -4.68032E-02
    9029.070     35.023   3.320  9.70831E-01  1.00716E+00 -3.63280E-02
    9030.088     36.041   3.360  9.79125E-01  1.00550E+00 -2.63786E-02
    9031.119     37.072   3.400  9.86120E-01  1.00380E+00 -1.76816E-02
    9032.161     38.114   3.440  9.91196E-01  1.00204E+00 -1.08399E-02
    9033.216     39.169   3.480  9.94037E-01  1.00025E+00 -6.21608E-03
    9034.282     40.235   3.520  9.94606E-01  9.98440E-01 -3.83411E-03
    9035.361     41.314   3.560  9.93133E-01  9.96622E-01 -3.48843E-03
    9036.452     42.406   3.600  9.90206E-01  9.94803E-01 -4.59732E-03
    9037.556     43.509   3.640  9.86739E-01  9.93009E-01 -6.27025E-03
    9038.671     44.624   3.680  9.83660E-01  9.91224E-01 -7.56413E-03
    9039.799     45.752   3.720  9.81772E-01  9.89472E-01 -7.70033E-03
    9040.939     46.892   3.760  9.81483E-01  9.87735E-01 -6.25188E-03
    9042.091     48.044   3.800  9.82896E-01  9.86060E-01 -3.16357E-03
    9043.256     49.209   3.840  9.85618E-01  9.84430E-01  1.18778E-03
    9044.432     50.385   3.880  9.89006E-01  9.82867E-01  6.13834E-03
    9045.621     51.574   3.920  9.92320E-01  9.81355E-01  1.09652E-02
    9046.822     52.775   3.960  9.95022E-01  9.79914E-01  1.51075E-02
    9048.035     53.988   4.000  9.96846E-01  9.78548E-01  1.82975E-02
    9049.260     55.213   4.040  9.97820E-01  9.77235E-01  2.05845E-02
    9050.498     56.451   4.080  9.98159E-01  9.76000E-01  2.21588E-02
    9051.747     57.700   4.120  9.98093E-01  9.74866E-01  2.32272E-02
    9053.009     58.962   4.160  9.97854E-01  9.73813E-01  2.40412E-02
    9054.283     60.236   4.200  9.97690E-01  9.72819E-01  2.48702E-02
    9055.569     61.523   4.240  9.97885E-01  9.71929E-01  2.59554E-02
    9056.868     62.821   4.280  9.98564E-01  9.71122E-01  2.74412E-02
    9058.179     64.132   4.320  9.99735E-01  9.70418E-01  2.93164E-02
    9059.501     65.454   4.360  1.00114E+00  9.69777E-01  3.13611E-02
    9060.836     66.789   4.400  1.00246E+00  9.69240E-01  3.32176E-02
    9062.184     68.137   4.440  1.00334E+00  9.68786E-01  3.45494E-02
    9063.543     69.496   4.480  1.00355E+00  9.68414E-01  3.51369E-02
    9064.915     70.868   4.520  1.00309E+00  9.68145E-01  3.49482E-02
    9066.298     72.251   4.560  1.00205E+00  9.67937E-01  3.41146E-02
    9067.694     73.647   4.600  1.00062E+00  9.67828E-01  3.27890E-02
    9069.103     75.056   4.640  9.98782E-01  9.67778E-01  3.10042E-02
    9070.523     76.476   4.680  9.96445E-01  9.67826E-01  2.86189E-02
    9071.955     77.909   4.720  9.93308E-01  9.67929E-01  2.53796E-02
    9073.400     79.353   4.760  9.89177E-01  9.68107E-01  2.10695E-02
    9074.857     80.810   4.800  9.84021E-01  9.68358E-01  1.56637E-02
    9076.326     82.279   4.840  9.78022E-01  9.68658E-01  9.36425E-03
    9077.808     83.761   4.880  9.71573E-01  9.69027E-01  2.54526E-03
    9079.301     85.254   4.920  9.65121E-01  9.69443E-01 -4.32262E-03
    9080.807     86.760   4.960  9.59114E-01  9.69903E-01 -1.07892E-02
    9082.325     88.278   5.000  9.53949E-01  9.70429E-01 -1.64802E-02
    9083.855     89.808   5.040  9.49886E-01  9.70995E-01 -2.11090E-02
    9085.397     91.350   5.080  9.47115E-01  9.71577E-01 -2.44614E-02
    9086.952     92.905   5.120  9.45809E-01  9.72217E-01 -2.64077E-02
    9088.518     94.471   5.160  9.45920E-01  9.72870E-01 -2.69497E-02
    9090.097     96.050   5.200  9.47343E-01  9.73553E-01 -2.62100E-02
    9091.688     97.641   5.240  9.49817E-01  9.74243E-01 -2.44261E-02
    9093.291     99.244   5.280  9.52996E-01  9.74937E-01 -2.19418E-02
    9094.907    100.860   5.320  9.56445E-01  9.75656E-01 -1.92104E-02
    9096.534    102.487   5.360  9.59632E-01  9.76354E-01 -1.67215E-02
    9098.174    104.127   5.400  9.62189E-01  9.77071E-01 -1.48819E-02
    9099.826    105.779   5.440  9.63878E-01  9.77762E-01 -1.38836E-02
    9101.490    107.444   5.480  9.64795E-01  9.78445E-01 -1.36497E-02
    9103.167    109.120   5.520  9.65215E-01  9.79099E-01 -1.38832E-02
    9104.855    110.808   5.560  9.65510E-01  9.79743E-01 -1.42336E-02
    9106.556    112.509   5.600  9.65915E-01  9.80377E-01 -1.44622E-02
    9108.269    114.222   5.640  9.66439E-01  9.80951E-01 -1.45120E-02
    9109.994    115.947   5.680  9.67053E-01  9.81507E-01 -1.44540E-02
    9111.732    117.685   5.720  9.67591E-01  9.82002E-01 -1.44117E-02
    9113.481    119.434   5.760  9.68026E-01  9.82478E-01 -1.44521E-02
    9115.243    121.196   5.800  9.68347E-01  9.82887E-01 -1.45408E-02
    9117.017    122.970   5.840  9.68704E-01  9.83252E-01 -1.45481E-02
    9118.803    124.756   5.880  9.69266E-01  9.83569E-01 -1.43028E-02
    9120.601    126.554   5.920  9.70182E-01  9.83813E-01 -1.36312E-02
    9122.412    128.365   5.960  9.71633E-01  9.84000E-01 -1.23665E-02
    9124.235    130.188   6.000  9.73863E-01  9.84108E-01 -1.02453E-02
