# # comment:                                                     FEFF 9.9.1  
# # Source:
# # Structure
# # Reduced
# # space
# # abc:
# # angles:
# # sites:
# # POT  SCF 100  7.0000   0, screened core-hole, AFOLP (folp(0)= 1.150)
# # Abs   Z=29 Rmt= 1.260 Rnm= 1.320 K  shell
# # Pot 1 Z= 3 Rmt= 1.385 Rnm= 1.446
# # Pot 2 Z=29 Rmt= 1.262 Rnm= 1.321
# # Pot 3 Z=15 Rmt= 0.936 Rnm= 1.154
# # Pot 4 Z= 8 Rmt= 0.882 Rnm= 1.046
# # Gam_ch=1.729E+00 H-L exch Vi= 0.000E+00 Vr= 0.000E+00
# # Mu=-6.840E+00eV kf=2.513E+00 Vint=-1.732E+01eV Rs_int= 1.443
# FMS rfms= 9.0000
# # PATH  Rmax=-1.000,  Keep_limit= 0.00, Heap_limit 0.00  Pwcrit= 2.50%
#  S02=0.950  Temp=   0.00  Debye_temp=   0.00  Global_sig2= 0.00000
#  Energy zero shift, vr, vi    0.00000E+00   0.00000E+00
#  Curved wave amplitude ratio filter   4.000%
#     file         sig2 tot  cw amp ratio   deg  nlegs   reff  inp sig2
#     0/   0 paths used
#  xsedge+ 50, used to normalize mu           2.4959E-04
#  -----------------------------------------------------------------------
#  omega    e    k    mu    mu0     chi     @#
    8983.330    -10.650  -1.000  3.06917E-02  4.78904E-02 -1.71988E-02
    8983.629    -10.351  -0.960  3.19637E-02  5.12806E-02 -1.93168E-02
    8983.916    -10.065  -0.920  3.33005E-02  5.50446E-02 -2.17441E-02
    8984.190     -9.790  -0.880  3.47067E-02  5.92377E-02 -2.45309E-02
    8984.452     -9.528  -0.840  3.61877E-02  6.39240E-02 -2.77363E-02
    8984.702     -9.278  -0.800  3.77492E-02  6.91780E-02 -3.14288E-02
    8984.940     -9.041  -0.760  3.93980E-02  7.50853E-02 -3.56873E-02
    8985.165     -8.815  -0.720  4.11413E-02  8.17425E-02 -4.06012E-02
    8985.379     -8.602  -0.680  4.29868E-02  8.92562E-02 -4.62694E-02
    8985.580     -8.400  -0.640  4.49421E-02  9.77388E-02 -5.27967E-02
    8985.769     -8.211  -0.600  4.70138E-02  1.07301E-01 -6.02871E-02
    8985.946     -8.035  -0.560  4.92062E-02  1.18037E-01 -6.88308E-02
    8986.110     -7.870  -0.520  5.15185E-02  1.30003E-01 -7.84847E-02
    8986.263     -7.718  -0.480  5.39420E-02  1.43187E-01 -8.92453E-02
    8986.403     -7.578  -0.440  5.64560E-02  1.57473E-01 -1.01017E-01
    8986.531     -7.449  -0.400  5.90253E-02  1.72612E-01 -1.13587E-01
    8986.647     -7.334  -0.360  6.15990E-02  1.88212E-01 -1.26613E-01
    8986.750     -7.230  -0.320  6.41134E-02  2.03764E-01 -1.39650E-01
    8986.842     -7.139  -0.280  6.64988E-02  2.18704E-01 -1.52205E-01
    8986.921     -7.059  -0.240  6.86880E-02  2.32490E-01 -1.63802E-01
    8986.988     -6.992  -0.200  7.06230E-02  2.44669E-01 -1.74046E-01
    8987.043     -6.937  -0.160  7.22592E-02  2.54910E-01 -1.82651E-01
    8987.086     -6.895  -0.120  7.35645E-02  2.63002E-01 -1.89438E-01
    8987.116     -6.864  -0.080  7.45168E-02  2.68830E-01 -1.94313E-01
    8987.140     -6.840   0.000  7.53023E-02  2.73511E-01 -1.98209E-01
    8987.195     -6.785   0.120  7.70782E-02  2.84059E-01 -2.06981E-01
    8987.238     -6.742   0.160  7.84337E-02  2.92250E-01 -2.13816E-01
    8987.293     -6.688   0.200  8.01646E-02  3.02707E-01 -2.22542E-01
    8987.360     -6.620   0.240  8.22646E-02  3.15282E-01 -2.33018E-01
    8987.439     -6.541   0.280  8.47376E-02  3.29716E-01 -2.44979E-01
    8987.531     -6.450   0.320  8.75330E-02  3.45610E-01 -2.58077E-01
    8987.634     -6.346   0.360  9.06711E-02  3.62497E-01 -2.71826E-01
    8987.750     -6.230   0.400  9.41444E-02  3.79904E-01 -2.85759E-01
    8987.878     -6.102   0.440  9.79677E-02  3.97337E-01 -2.99369E-01
    8988.018     -5.962   0.480  1.02219E-01  4.14488E-01 -3.12269E-01
    8988.171     -5.810   0.520  1.06934E-01  4.31097E-01 -3.24163E-01
    8988.335     -5.645   0.560  1.12236E-01  4.47066E-01 -3.34829E-01
    8988.512     -5.468   0.600  1.18227E-01  4.62407E-01 -3.44180E-01
    8988.701     -5.279   0.640  1.24982E-01  4.77136E-01 -3.52154E-01
    8988.902     -5.078   0.680  1.32642E-01  4.91360E-01 -3.58718E-01
    8989.116     -4.865   0.720  1.41321E-01  5.05136E-01 -3.63815E-01
    8989.341     -4.639   0.760  1.51184E-01  5.18605E-01 -3.67421E-01
    8989.579     -4.402   0.800  1.62262E-01  5.31797E-01 -3.69535E-01
    8989.829     -4.152   0.840  1.74557E-01  5.44832E-01 -3.70276E-01
    8990.091     -3.889   0.880  1.88098E-01  5.57719E-01 -3.69622E-01
    8990.365     -3.615   0.920  2.03489E-01  5.70533E-01 -3.67044E-01
    8990.652     -3.329   0.960  2.21734E-01  5.83322E-01 -3.61589E-01
    8990.950     -3.030   1.000  2.43855E-01  5.96084E-01 -3.52229E-01
    8991.261     -2.719   1.040  2.70645E-01  6.08847E-01 -3.38202E-01
    8991.584     -2.396   1.080  3.02495E-01  6.21631E-01 -3.19136E-01
    8991.920     -2.061   1.120  3.39108E-01  6.34415E-01 -2.95306E-01
    8992.267     -1.713   1.160  3.79359E-01  6.47230E-01 -2.67870E-01
    8992.627     -1.354   1.200  4.21308E-01  6.60042E-01 -2.38735E-01
    8992.999     -0.982   1.240  4.63705E-01  6.72856E-01 -2.09151E-01
    8993.383     -0.598   1.280  5.06725E-01  6.85632E-01 -1.78907E-01
    8993.779     -0.201   1.320  5.50769E-01  6.98410E-01 -1.47641E-01
    8994.187      0.207   1.360  5.95821E-01  7.11105E-01 -1.15285E-01
    8994.608      0.628   1.400  6.43329E-01  7.23755E-01 -8.04260E-02
    8995.041      1.060   1.440  6.95435E-01  7.36311E-01 -4.08755E-02
    8995.486      1.505   1.480  7.51919E-01  7.48766E-01  3.15301E-03
    8995.943      1.963   1.520  8.09453E-01  7.61073E-01  4.83799E-02
    8996.412      2.432   1.560  8.60253E-01  7.73223E-01  8.70301E-02
    8996.894      2.914   1.600  8.96075E-01  7.85207E-01  1.10868E-01
    8997.388      3.407   1.640  9.23223E-01  7.96997E-01  1.26226E-01
    8997.894      3.913   1.680  9.60850E-01  8.08563E-01  1.52287E-01
    8998.412      4.432   1.720  1.02362E+00  8.19896E-01  2.03719E-01
    8998.942      4.962   1.760  1.09817E+00  8.30949E-01  2.67226E-01
    8999.485      5.504   1.800  1.15792E+00  8.41751E-01  3.16171E-01
    9000.039      6.059   1.840  1.20377E+00  8.52235E-01  3.51531E-01
    9000.606      6.626   1.880  1.24987E+00  8.62415E-01  3.87454E-01
    9001.186      7.205   1.920  1.29638E+00  8.72263E-01  4.24113E-01
    9001.777      7.797   1.960  1.33601E+00  8.81772E-01  4.54241E-01
    9002.380      8.400   2.000  1.35628E+00  8.90918E-01  4.65359E-01
    9002.996      9.016   2.040  1.34305E+00  8.99716E-01  4.43333E-01
    9003.624      9.644   2.080  1.29759E+00  9.08121E-01  3.89469E-01
    9004.264     10.284   2.120  1.23745E+00  9.16151E-01  3.21296E-01
    9004.916     10.936   2.160  1.18084E+00  9.23804E-01  2.57033E-01
    9005.581     11.600   2.200  1.13964E+00  9.31079E-01  2.08562E-01
    9006.257     12.277   2.240  1.11824E+00  9.37933E-01  1.80307E-01
    9006.946     12.966   2.280  1.11248E+00  9.44426E-01  1.68055E-01
    9007.647     13.667   2.320  1.11336E+00  9.50501E-01  1.62858E-01
    9008.360     14.380   2.360  1.11292E+00  9.56198E-01  1.56722E-01
    9009.086     15.106   2.400  1.10717E+00  9.61518E-01  1.45653E-01
    9009.824     15.843   2.440  1.09573E+00  9.66445E-01  1.29287E-01
    9010.573     16.593   2.480  1.07952E+00  9.71003E-01  1.08521E-01
    9011.335     17.355   2.520  1.06104E+00  9.75194E-01  8.58470E-02
    9012.110     18.129   2.560  1.04563E+00  9.79022E-01  6.66035E-02
    9012.896     18.916   2.600  1.03705E+00  9.82516E-01  5.45371E-02
    9013.694     19.714   2.640  1.03351E+00  9.85658E-01  4.78519E-02
    9014.505     20.525   2.680  1.02953E+00  9.88473E-01  4.10557E-02
    9015.328     21.348   2.720  1.01841E+00  9.90990E-01  2.74180E-02
    9016.163     22.183   2.760  9.96686E-01  9.93194E-01  3.49270E-03
    9017.011     23.030   2.800  9.65785E-01  9.95111E-01 -2.93264E-02
    9017.870     23.890   2.840  9.29655E-01  9.96749E-01 -6.70939E-02
    9018.742     24.762   2.880  8.91578E-01  9.98134E-01 -1.06557E-01
    9019.626     25.646   2.920  8.58613E-01  9.99275E-01 -1.40661E-01
    9020.522     26.542   2.960  8.32190E-01  1.00018E+00 -1.67986E-01
    9021.430     27.450   3.000  8.11998E-01  1.00085E+00 -1.88847E-01
    9022.351     28.370   3.040  7.98369E-01  1.00133E+00 -2.02963E-01
    9023.283     29.303   3.080  7.89919E-01  1.00162E+00 -2.11702E-01
    9024.228     30.248   3.120  7.85757E-01  1.00172E+00 -2.15963E-01
    9025.185     31.205   3.160  7.85653E-01  1.00168E+00 -2.16023E-01
    9026.155     32.174   3.200  7.89206E-01  1.00148E+00 -2.12271E-01
    9027.136     33.156   3.240  7.96118E-01  1.00113E+00 -2.05009E-01
    9028.130     34.149   3.280  8.06537E-01  1.00068E+00 -1.94140E-01
    9029.136     35.155   3.320  8.19833E-01  1.00011E+00 -1.80276E-01
    9030.154     36.173   3.360  8.35676E-01  9.99432E-01 -1.63756E-01
    9031.184     37.204   3.400  8.53835E-01  9.98693E-01 -1.44858E-01
    9032.226     38.246   3.440  8.73813E-01  9.97875E-01 -1.24062E-01
    9033.281     39.301   3.480  8.94934E-01  9.96983E-01 -1.02049E-01
    9034.348     40.367   3.520  9.16749E-01  9.96043E-01 -7.92942E-02
    9035.427     41.446   3.560  9.38834E-01  9.95062E-01 -5.62280E-02
    9036.518     42.537   3.600  9.60542E-01  9.94042E-01 -3.34997E-02
    9037.621     43.641   3.640  9.81593E-01  9.92989E-01 -1.13957E-02
    9038.737     44.756   3.680  1.00173E+00  9.91949E-01  9.78252E-03
    9039.864     45.884   3.720  1.02055E+00  9.90883E-01  2.96714E-02
    9041.004     47.024   3.760  1.03774E+00  9.89815E-01  4.79211E-02
    9042.157     48.176   3.800  1.05294E+00  9.88752E-01  6.41921E-02
    9043.321     49.341   3.840  1.06573E+00  9.87717E-01  7.80103E-02
    9044.497     50.517   3.880  1.07586E+00  9.86711E-01  8.91512E-02
    9045.686     51.706   3.920  1.08330E+00  9.85717E-01  9.75856E-02
    9046.887     52.907   3.960  1.08814E+00  9.84757E-01  1.03385E-01
    9048.100     54.120   4.000  1.09049E+00  9.83834E-01  1.06654E-01
    9049.325     55.345   4.040  1.09054E+00  9.82928E-01  1.07616E-01
    9050.563     56.583   4.080  1.08858E+00  9.82085E-01  1.06491E-01
    9051.813     57.832   4.120  1.08487E+00  9.81307E-01  1.03567E-01
    9053.074     59.094   4.160  1.07987E+00  9.80552E-01  9.93183E-02
    9054.349     60.368   4.200  1.07408E+00  9.79862E-01  9.42191E-02
    9055.635     61.654   4.240  1.06779E+00  9.79219E-01  8.85724E-02
    9056.933     62.953   4.280  1.06116E+00  9.78643E-01  8.25167E-02
    9058.244     64.264   4.320  1.05422E+00  9.78115E-01  7.61091E-02
    9059.567     65.586   4.360  1.04690E+00  9.77636E-01  6.92678E-02
    9060.902     66.921   4.400  1.03913E+00  9.77246E-01  6.18816E-02
    9062.249     68.269   4.440  1.03079E+00  9.76885E-01  5.39056E-02
    9063.608     69.628   4.480  1.02196E+00  9.76593E-01  4.53706E-02
    9064.980     71.000   4.520  1.01284E+00  9.76371E-01  3.64704E-02
    9066.364     72.383   4.560  1.00373E+00  9.76196E-01  2.75302E-02
    9067.760     73.779   4.600  9.94901E-01  9.76068E-01  1.88333E-02
    9069.168     75.188   4.640  9.86542E-01  9.76009E-01  1.05323E-02
    9070.588     76.608   4.680  9.78669E-01  9.76018E-01  2.65111E-03
    9072.021     78.040   4.720  9.71181E-01  9.76051E-01 -4.87043E-03
    9073.466     79.485   4.760  9.64091E-01  9.76149E-01 -1.20574E-02
    9074.922     80.942   4.800  9.57501E-01  9.76291E-01 -1.87904E-02
    9076.392     82.411   4.840  9.51610E-01  9.76497E-01 -2.48873E-02
    9077.873     83.893   4.880  9.46586E-01  9.76722E-01 -3.01356E-02
    9079.366     85.386   4.920  9.42601E-01  9.76986E-01 -3.43852E-02
    9080.872     86.892   4.960  9.39676E-01  9.77310E-01 -3.76342E-02
    9082.390     88.410   5.000  9.37609E-01  9.77650E-01 -4.00412E-02
    9083.920     89.940   5.040  9.36092E-01  9.78022E-01 -4.19295E-02
    9085.462     91.482   5.080  9.34820E-01  9.78405E-01 -4.35848E-02
    9087.017     93.037   5.120  9.33723E-01  9.78821E-01 -4.50973E-02
    9088.584     94.603   5.160  9.32931E-01  9.79268E-01 -4.63363E-02
    9090.162     96.182   5.200  9.32700E-01  9.79721E-01 -4.70209E-02
    9091.753     97.773   5.240  9.33231E-01  9.80180E-01 -4.69495E-02
    9093.357     99.376   5.280  9.34590E-01  9.80665E-01 -4.60749E-02
    9094.972    100.992   5.320  9.36614E-01  9.81151E-01 -4.45368E-02
    9096.600    102.619   5.360  9.39053E-01  9.81615E-01 -4.25619E-02
    9098.240    104.259   5.400  9.41746E-01  9.82100E-01 -4.03536E-02
    9099.892    105.911   5.440  9.44512E-01  9.82582E-01 -3.80702E-02
    9101.556    107.575   5.480  9.47209E-01  9.83035E-01 -3.58261E-02
    9103.232    109.252   5.520  9.49833E-01  9.83481E-01 -3.36478E-02
    9104.921    110.940   5.560  9.52478E-01  9.83896E-01 -3.14175E-02
    9106.622    112.641   5.600  9.55392E-01  9.84301E-01 -2.89095E-02
    9108.334    114.354   5.640  9.58728E-01  9.84675E-01 -2.59470E-02
    9110.060    116.079   5.680  9.62583E-01  9.85036E-01 -2.24529E-02
    9111.797    117.817   5.720  9.66930E-01  9.85361E-01 -1.84310E-02
    9113.547    119.566   5.760  9.71726E-01  9.85649E-01 -1.39227E-02
    9115.308    121.328   5.800  9.76864E-01  9.85897E-01 -9.03347E-03
    9117.082    123.102   5.840  9.82133E-01  9.86106E-01 -3.97312E-03
    9118.868    124.888   5.880  9.87192E-01  9.86275E-01  9.17033E-04
    9120.667    126.686   5.920  9.91666E-01  9.86403E-01  5.26307E-03
    9122.477    128.497   5.960  9.95360E-01  9.86510E-01  8.85028E-03
    9124.300    130.320   6.000  9.98409E-01  9.86530E-01  1.18787E-02
