# # comment:                                                     FEFF 9.9.1  
# # Source:
# # Structure
# # Reduced
# # space
# # abc:
# # angles:
# # sites:
# # POT  SCF 100  7.0000   0, screened core-hole, AFOLP (folp(0)= 1.150)
# # Abs   Z=29 Rmt= 1.268 Rnm= 1.346 K  shell
# # Pot 1 Z=23 Rmt= 1.179 Rnm= 1.343
# # Pot 2 Z=29 Rmt= 1.266 Rnm= 1.345
# # Pot 3 Z= 8 Rmt= 1.034 Rnm= 1.097
# # Gam_ch=1.729E+00 H-L exch Vi= 0.000E+00 Vr= 0.000E+00
# # Mu=-9.861E+00eV kf=2.230E+00 Vint=-1.845E+01eV Rs_int= 1.626
# FMS rfms= 9.0000
# # PATH  Rmax=-1.000,  Keep_limit= 0.00, Heap_limit 0.00  Pwcrit= 2.50%
#  S02=0.950  Temp=   0.00  Debye_temp=   0.00  Global_sig2= 0.00000
#  Energy zero shift, vr, vi    0.00000E+00   0.00000E+00
#  Curved wave amplitude ratio filter   4.000%
#     file         sig2 tot  cw amp ratio   deg  nlegs   reff  inp sig2
#     0/   0 paths used
#  xsedge+ 50, used to normalize mu           2.5023E-04
#  -----------------------------------------------------------------------
#  omega    e    k    mu    mu0     chi     @#
    8984.101    -13.671  -1.000  3.62089E-02  4.73681E-02 -1.11592E-02
    8984.399    -13.372  -0.960  3.82445E-02  5.06395E-02 -1.23950E-02
    8984.686    -13.086  -0.920  4.04692E-02  5.42624E-02 -1.37932E-02
    8984.960    -12.811  -0.880  4.29102E-02  5.82878E-02 -1.53776E-02
    8985.222    -12.549  -0.840  4.55995E-02  6.27748E-02 -1.71753E-02
    8985.472    -12.299  -0.800  4.85744E-02  6.77920E-02 -1.92176E-02
    8985.710    -12.061  -0.760  5.18786E-02  7.34180E-02 -2.15394E-02
    8985.935    -11.836  -0.720  5.55615E-02  7.97413E-02 -2.41797E-02
    8986.149    -11.623  -0.680  5.96787E-02  8.68595E-02 -2.71807E-02
    8986.350    -11.421  -0.640  6.42893E-02  9.48753E-02 -3.05860E-02
    8986.539    -11.232  -0.600  6.94522E-02  1.03890E-01 -3.44373E-02
    8986.716    -11.056  -0.560  7.52193E-02  1.13988E-01 -3.87684E-02
    8986.880    -10.891  -0.520  8.16233E-02  1.25220E-01 -4.35969E-02
    8987.033    -10.739  -0.480  8.86624E-02  1.37574E-01 -4.89116E-02
    8987.173    -10.598  -0.440  9.62813E-02  1.50941E-01 -5.46597E-02
    8987.301    -10.470  -0.400  1.04355E-01  1.65091E-01 -6.07358E-02
    8987.417    -10.355  -0.360  1.12682E-01  1.79662E-01 -6.69801E-02
    8987.520    -10.251  -0.320  1.20994E-01  1.94185E-01 -7.31908E-02
    8987.612    -10.159  -0.280  1.28989E-01  2.08138E-01 -7.91492E-02
    8987.691    -10.080  -0.240  1.36370E-01  2.21019E-01 -8.46495E-02
    8987.758    -10.013  -0.200  1.42886E-01  2.32406E-01 -8.95201E-02
    8987.813     -9.958  -0.160  1.48357E-01  2.41989E-01 -9.36317E-02
    8987.856     -9.916  -0.120  1.52675E-01  2.49567E-01 -9.68922E-02
    8987.886     -9.885  -0.080  1.55788E-01  2.55029E-01 -9.92408E-02
    8987.910     -9.861   0.000  1.58309E-01  2.59418E-01 -1.01108E-01
    8987.965     -9.806   0.120  1.63623E-01  2.69331E-01 -1.05708E-01
    8988.008     -9.763   0.160  1.67722E-01  2.77036E-01 -1.09314E-01
    8988.063     -9.708   0.200  1.72844E-01  2.86877E-01 -1.14033E-01
    8988.130     -9.641   0.240  1.78850E-01  2.98751E-01 -1.19901E-01
    8988.209     -9.562   0.280  1.85422E-01  3.12411E-01 -1.26989E-01
    8988.301     -9.471   0.320  1.92131E-01  3.27507E-01 -1.35376E-01
    8988.404     -9.367   0.360  1.98491E-01  3.43668E-01 -1.45176E-01
    8988.520     -9.251   0.400  2.03926E-01  3.60436E-01 -1.56510E-01
    8988.648     -9.123   0.440  2.07979E-01  3.77391E-01 -1.69412E-01
    8988.788     -8.983   0.480  2.10569E-01  3.94244E-01 -1.83676E-01
    8988.941     -8.831   0.520  2.12053E-01  4.10780E-01 -1.98726E-01
    8989.105     -8.666   0.560  2.13316E-01  4.26910E-01 -2.13593E-01
    8989.282     -8.489   0.600  2.15587E-01  4.42609E-01 -2.27021E-01
    8989.471     -8.300   0.640  2.20028E-01  4.57945E-01 -2.37916E-01
    8989.672     -8.099   0.680  2.27383E-01  4.72954E-01 -2.45571E-01
    8989.886     -7.886   0.720  2.38006E-01  4.87746E-01 -2.49740E-01
    8990.111     -7.660   0.760  2.51944E-01  5.02385E-01 -2.50441E-01
    8990.349     -7.422   0.800  2.69010E-01  5.16948E-01 -2.47938E-01
    8990.599     -7.172   0.840  2.88488E-01  5.31465E-01 -2.42977E-01
    8990.861     -6.910   0.880  3.09168E-01  5.45991E-01 -2.36823E-01
    8991.135     -6.636   0.920  3.29994E-01  5.60593E-01 -2.30599E-01
    8991.422     -6.349   0.960  3.51357E-01  5.75249E-01 -2.23892E-01
    8991.720     -6.051   1.000  3.76033E-01  5.89984E-01 -2.13951E-01
    8992.031     -5.740   1.040  4.06559E-01  6.04800E-01 -1.98240E-01
    8992.354     -5.417   1.080  4.41538E-01  6.19710E-01 -1.78172E-01
    8992.690     -5.082   1.120  4.74902E-01  6.34702E-01 -1.59800E-01
    8993.037     -4.734   1.160  4.95576E-01  6.49758E-01 -1.54182E-01
    8993.397     -4.374   1.200  4.93327E-01  6.64841E-01 -1.71514E-01
    8993.769     -4.003   1.240  4.75757E-01  6.79944E-01 -2.04187E-01
    8994.153     -3.618   1.280  4.65197E-01  6.95041E-01 -2.29845E-01
    8994.549     -3.222   1.320  4.74564E-01  7.10104E-01 -2.35540E-01
    8994.957     -2.814   1.360  5.01084E-01  7.25081E-01 -2.23997E-01
    8995.378     -2.393   1.400  5.35651E-01  7.39982E-01 -2.04330E-01
    8995.811     -1.960   1.440  5.71210E-01  7.54732E-01 -1.83522E-01
    8996.256     -1.515   1.480  6.06501E-01  7.69318E-01 -1.62817E-01
    8996.713     -1.058   1.520  6.42041E-01  7.83704E-01 -1.41664E-01
    8997.182     -0.589   1.560  6.72728E-01  7.97879E-01 -1.25151E-01
    8997.664     -0.107   1.600  6.91982E-01  8.11767E-01 -1.19784E-01
    8998.158      0.387   1.640  7.04519E-01  8.25352E-01 -1.20832E-01
    8998.664      0.893   1.680  7.23778E-01  8.38620E-01 -1.14842E-01
    8999.182      1.411   1.720  7.64065E-01  8.51519E-01 -8.74534E-02
    8999.712      1.941   1.760  8.36341E-01  8.64036E-01 -2.76953E-02
    9000.255      2.484   1.800  9.42835E-01  8.76141E-01  6.66933E-02
    9000.810      3.038   1.840  1.07343E+00  8.87821E-01  1.85606E-01
    9001.377      3.605   1.880  1.21301E+00  8.99027E-01  3.13982E-01
    9001.956      4.184   1.920  1.34116E+00  9.09770E-01  4.31394E-01
    9002.547      4.776   1.960  1.42312E+00  9.20045E-01  5.03072E-01
    9003.150      5.379   2.000  1.44799E+00  9.29784E-01  5.18207E-01
    9003.766      5.995   2.040  1.43951E+00  9.39043E-01  5.00469E-01
    9004.394      6.623   2.080  1.40529E+00  9.47757E-01  4.57536E-01
    9005.034      7.263   2.120  1.33554E+00  9.55966E-01  3.79572E-01
    9005.686      7.915   2.160  1.24704E+00  9.63626E-01  2.83413E-01
    9006.351      8.580   2.200  1.18281E+00  9.70779E-01  2.12035E-01
    9007.027      9.256   2.240  1.16622E+00  9.77388E-01  1.88835E-01
    9007.716      9.945   2.280  1.17770E+00  9.83495E-01  1.94209E-01
    9008.417     10.646   2.320  1.17872E+00  9.89084E-01  1.89637E-01
    9009.131     11.359   2.360  1.15830E+00  9.94178E-01  1.64122E-01
    9009.856     12.085   2.400  1.12574E+00  9.98763E-01  1.26976E-01
    9010.594     12.822   2.440  1.08069E+00  1.00289E+00  7.77997E-02
    9011.343     13.572   2.480  1.02952E+00  1.00653E+00  2.29808E-02
    9012.105     14.334   2.520  9.83248E-01  1.00974E+00 -2.64875E-02
    9012.880     15.108   2.560  9.42674E-01  1.01250E+00 -6.98241E-02
    9013.666     15.895   2.600  9.13138E-01  1.01485E+00 -1.01712E-01
    9014.465     16.693   2.640  9.08436E-01  1.01680E+00 -1.08365E-01
    9015.275     17.504   2.680  9.20181E-01  1.01836E+00 -9.81792E-02
    9016.098     18.327   2.720  9.33545E-01  1.01958E+00 -8.60349E-02
    9016.933     19.162   2.760  9.43431E-01  1.02045E+00 -7.70183E-02
    9017.781     20.010   2.800  9.48692E-01  1.02102E+00 -7.23256E-02
    9018.640     20.869   2.840  9.50338E-01  1.02128E+00 -7.09379E-02
    9019.512     21.741   2.880  9.50030E-01  1.02125E+00 -7.12245E-02
    9020.396     22.625   2.920  9.49157E-01  1.02098E+00 -7.18263E-02
    9021.292     23.521   2.960  9.48639E-01  1.02047E+00 -7.18346E-02
    9022.200     24.429   3.000  9.48558E-01  1.01975E+00 -7.11958E-02
    9023.121     25.350   3.040  9.48580E-01  1.01883E+00 -7.02545E-02
    9024.054     26.282   3.080  9.48380E-01  1.01773E+00 -6.93462E-02
    9024.998     27.227   3.120  9.47542E-01  1.01648E+00 -6.89336E-02
    9025.955     28.184   3.160  9.45345E-01  1.01507E+00 -6.97293E-02
    9026.925     29.153   3.200  9.41441E-01  1.01355E+00 -7.21107E-02
    9027.906     30.135   3.240  9.35965E-01  1.01193E+00 -7.59692E-02
    9028.900     31.129   3.280  9.29586E-01  1.01021E+00 -8.06246E-02
    9029.906     32.134   3.320  9.23677E-01  1.00843E+00 -8.47529E-02
    9030.924     33.152   3.360  9.19576E-01  1.00658E+00 -8.70014E-02
    9031.954     34.183   3.400  9.18051E-01  1.00468E+00 -8.66271E-02
    9032.996     35.225   3.440  9.18979E-01  1.00274E+00 -8.37639E-02
    9034.051     36.280   3.480  9.21865E-01  1.00080E+00 -7.89323E-02
    9035.118     37.346   3.520  9.26124E-01  9.98847E-01 -7.27225E-02
    9036.197     38.425   3.560  9.31309E-01  9.96876E-01 -6.55665E-02
    9037.288     39.517   3.600  9.37266E-01  9.94929E-01 -5.76633E-02
    9038.391     40.620   3.640  9.43845E-01  9.93013E-01 -4.91683E-02
    9039.507     41.736   3.680  9.50824E-01  9.91113E-01 -4.02892E-02
    9040.635     42.863   3.720  9.58043E-01  9.89273E-01 -3.12302E-02
    9041.775     44.003   3.760  9.65427E-01  9.87476E-01 -2.20495E-02
    9042.927     45.155   3.800  9.72918E-01  9.85725E-01 -1.28072E-02
    9044.091     46.320   3.840  9.80405E-01  9.84043E-01 -3.63720E-03
    9045.268     47.496   3.880  9.87732E-01  9.82412E-01  5.32057E-03
    9046.456     48.685   3.920  9.94885E-01  9.80855E-01  1.40303E-02
    9047.657     49.886   3.960  1.00208E+00  9.79378E-01  2.27039E-02
    9048.870     51.099   4.000  1.00988E+00  9.78001E-01  3.18761E-02
    9050.096     52.324   4.040  1.01893E+00  9.76685E-01  4.22417E-02
    9051.333     53.562   4.080  1.02970E+00  9.75471E-01  5.42259E-02
    9052.583     54.811   4.120  1.04185E+00  9.74318E-01  6.75365E-02
    9053.845     56.073   4.160  1.05445E+00  9.73272E-01  8.11734E-02
    9055.119     57.347   4.200  1.06602E+00  9.72333E-01  9.36879E-02
    9056.405     58.634   4.240  1.07532E+00  9.71479E-01  1.03840E-01
    9057.703     59.932   4.280  1.08166E+00  9.70710E-01  1.10954E-01
    9059.014     61.243   4.320  1.08468E+00  9.70027E-01  1.14656E-01
    9060.337     62.566   4.360  1.08397E+00  9.69450E-01  1.14516E-01
    9061.672     63.901   4.400  1.07895E+00  9.68961E-01  1.09992E-01
    9063.019     65.248   4.440  1.06954E+00  9.68578E-01  1.00963E-01
    9064.378     66.607   4.480  1.05622E+00  9.68279E-01  8.79439E-02
    9065.750     67.979   4.520  1.04025E+00  9.68064E-01  7.21884E-02
    9067.134     69.363   4.560  1.02325E+00  9.67930E-01  5.53155E-02
    9068.530     70.758   4.600  1.00664E+00  9.67900E-01  3.87379E-02
    9069.938     72.167   4.640  9.91314E-01  9.67928E-01  2.33854E-02
    9071.358     73.587   4.680  9.77686E-01  9.68035E-01  9.65142E-03
    9072.791     75.020   4.720  9.65688E-01  9.68241E-01 -2.55283E-03
    9074.236     76.464   4.760  9.54959E-01  9.68502E-01 -1.35429E-02
    9075.693     77.921   4.800  9.45201E-01  9.68835E-01 -2.36348E-02
    9077.162     79.390   4.840  9.36228E-01  9.69220E-01 -3.29921E-02
    9078.643     80.872   4.880  9.28146E-01  9.69675E-01 -4.15286E-02
    9080.136     82.365   4.920  9.21122E-01  9.70198E-01 -4.90759E-02
    9081.642     83.871   4.960  9.15324E-01  9.70745E-01 -5.54209E-02
    9083.160     85.389   5.000  9.11109E-01  9.71354E-01 -6.02447E-02
    9084.690     86.919   5.040  9.08921E-01  9.72005E-01 -6.30844E-02
    9086.232     88.461   5.080  9.09290E-01  9.72692E-01 -6.34021E-02
    9087.787     90.016   5.120  9.12544E-01  9.73392E-01 -6.08486E-02
    9089.354     91.582   5.160  9.18627E-01  9.74126E-01 -5.54990E-02
    9090.932     93.161   5.200  9.27083E-01  9.74890E-01 -4.78068E-02
    9092.524     94.752   5.240  9.37170E-01  9.75661E-01 -3.84919E-02
    9094.127     96.355   5.280  9.48060E-01  9.76437E-01 -2.83766E-02
    9095.742     97.971   5.320  9.58896E-01  9.77236E-01 -1.83393E-02
    9097.370     99.599   5.360  9.68785E-01  9.78013E-01 -9.22849E-03
    9099.010    101.238   5.400  9.77017E-01  9.78808E-01 -1.79022E-03
    9100.662    102.890   5.440  9.82993E-01  9.79552E-01  3.44065E-03
    9102.326    104.555   5.480  9.86449E-01  9.80312E-01  6.13786E-03
    9104.002    106.231   5.520  9.87172E-01  9.81039E-01  6.13316E-03
    9105.691    107.920   5.560  9.85047E-01  9.81731E-01  3.31529E-03
    9107.392    109.620   5.600  9.80182E-01  9.82410E-01 -2.22767E-03
    9109.105    111.333   5.640  9.73085E-01  9.83028E-01 -9.94278E-03
    9110.830    113.058   5.680  9.64954E-01  9.83629E-01 -1.86755E-02
    9112.567    114.796   5.720  9.57198E-01  9.84189E-01 -2.69906E-02
    9114.317    116.545   5.760  9.50960E-01  9.84682E-01 -3.37219E-02
    9116.078    118.307   5.800  9.46846E-01  9.85130E-01 -3.82835E-02
    9117.852    120.081   5.840  9.45024E-01  9.85533E-01 -4.05086E-02
    9119.638    121.867   5.880  9.45576E-01  9.85889E-01 -4.03128E-02
    9121.437    123.665   5.920  9.48635E-01  9.86168E-01 -3.75330E-02
    9123.247    125.476   5.960  9.54376E-01  9.86360E-01 -3.19840E-02
    9125.070    127.299   6.000  9.63135E-01  9.86467E-01 -2.33323E-02
