# # comment:                                                     FEFF 9.9.1  
# # Source:
# # Structure
# # Reduced
# # space
# # abc:
# # angles:
# # sites:
# # POT  SCF 100  7.0000   0, screened core-hole, AFOLP (folp(0)= 1.150)
# # Abs   Z=29 Rmt= 1.234 Rnm= 1.309 K  shell
# # Pot 1 Z=25 Rmt= 1.071 Rnm= 1.277
# # Pot 2 Z=30 Rmt= 1.360 Rnm= 1.435
# # Pot 3 Z=29 Rmt= 1.229 Rnm= 1.320
# # Pot 4 Z= 8 Rmt= 0.936 Rnm= 1.091
# # Gam_ch=1.729E+00 H-L exch Vi= 0.000E+00 Vr= 0.000E+00
# # Mu=-8.801E+00eV kf=2.244E+00 Vint=-1.661E+01eV Rs_int= 1.616
# FMS rfms= 9.0000
# # PATH  Rmax=-1.000,  Keep_limit= 0.00, Heap_limit 0.00  Pwcrit= 2.50%
#  S02=0.950  Temp=   0.00  Debye_temp=   0.00  Global_sig2= 0.00000
#  Energy zero shift, vr, vi    0.00000E+00   0.00000E+00
#  Curved wave amplitude ratio filter   4.000%
#     file         sig2 tot  cw amp ratio   deg  nlegs   reff  inp sig2
#     0/   0 paths used
#  xsedge+ 50, used to normalize mu           2.4572E-04
#  -----------------------------------------------------------------------
#  omega    e    k    mu    mu0     chi     @#
    8984.109    -12.611  -1.000  3.48128E-02  5.24264E-02 -1.76136E-02
    8984.407    -12.312  -0.960  3.65889E-02  5.61674E-02 -1.95785E-02
    8984.694    -12.026  -0.920  3.85111E-02  6.03173E-02 -2.18062E-02
    8984.968    -11.751  -0.880  4.05985E-02  6.49356E-02 -2.43371E-02
    8985.230    -11.489  -0.840  4.28735E-02  7.00914E-02 -2.72179E-02
    8985.480    -11.239  -0.800  4.53620E-02  7.58647E-02 -3.05027E-02
    8985.718    -11.001  -0.760  4.80937E-02  8.23472E-02 -3.42535E-02
    8985.944    -10.776  -0.720  5.11021E-02  8.96422E-02 -3.85402E-02
    8986.157    -10.563  -0.680  5.44240E-02  9.78637E-02 -4.34397E-02
    8986.358    -10.361  -0.640  5.80981E-02  1.07131E-01 -4.90334E-02
    8986.547    -10.172  -0.600  6.21619E-02  1.17563E-01 -5.54010E-02
    8986.724     -9.996  -0.560  6.66469E-02  1.29258E-01 -6.26112E-02
    8986.888     -9.831  -0.520  7.15704E-02  1.42276E-01 -7.07056E-02
    8987.041     -9.679  -0.480  7.69245E-02  1.56602E-01 -7.96774E-02
    8987.181     -9.538  -0.440  8.26637E-02  1.72110E-01 -8.94466E-02
    8987.309     -9.410  -0.400  8.86948E-02  1.88534E-01 -9.98391E-02
    8987.425     -9.295  -0.360  9.48727E-02  2.05452E-01 -1.10579E-01
    8987.529     -9.191  -0.320  1.01011E-01  2.22320E-01 -1.21309E-01
    8987.620     -9.100  -0.280  1.06901E-01  2.38529E-01 -1.31628E-01
    8987.699     -9.020  -0.240  1.12344E-01  2.53497E-01 -1.41153E-01
    8987.766     -8.953  -0.200  1.17169E-01  2.66731E-01 -1.49562E-01
    8987.821     -8.898  -0.160  1.21246E-01  2.77871E-01 -1.56624E-01
    8987.864     -8.856  -0.120  1.24488E-01  2.86682E-01 -1.62194E-01
    8987.894     -8.825  -0.080  1.26836E-01  2.93033E-01 -1.66196E-01
    8987.919     -8.801   0.000  1.28732E-01  2.98138E-01 -1.69406E-01
    8987.974     -8.746   0.120  1.33037E-01  3.09650E-01 -1.76613E-01
    8988.016     -8.703   0.160  1.36411E-01  3.18618E-01 -1.82207E-01
    8988.071     -8.648   0.200  1.40750E-01  3.30075E-01 -1.89325E-01
    8988.138     -8.581   0.240  1.46032E-01  3.43878E-01 -1.97846E-01
    8988.217     -8.502   0.280  1.52201E-01  3.59769E-01 -2.07567E-01
    8988.309     -8.411   0.320  1.59161E-01  3.77347E-01 -2.18185E-01
    8988.412     -8.307   0.360  1.66815E-01  3.96157E-01 -2.29343E-01
    8988.528     -8.191   0.400  1.74939E-01  4.15672E-01 -2.40733E-01
    8988.656     -8.063   0.440  1.83269E-01  4.35427E-01 -2.52158E-01
    8988.796     -7.923   0.480  1.91391E-01  4.55041E-01 -2.63650E-01
    8988.949     -7.771   0.520  1.98819E-01  4.74286E-01 -2.75467E-01
    8989.113     -7.606   0.560  2.04952E-01  4.93015E-01 -2.88063E-01
    8989.290     -7.429   0.600  2.09385E-01  5.11257E-01 -3.01871E-01
    8989.479     -7.240   0.640  2.12088E-01  5.29000E-01 -3.16912E-01
    8989.680     -7.039   0.680  2.13837E-01  5.46327E-01 -3.32490E-01
    8989.894     -6.826   0.720  2.16332E-01  5.63311E-01 -3.46979E-01
    8990.119     -6.600   0.760  2.21768E-01  5.80022E-01 -3.58254E-01
    8990.357     -6.362   0.800  2.31876E-01  5.96542E-01 -3.64667E-01
    8990.607     -6.112   0.840  2.47056E-01  6.12903E-01 -3.65847E-01
    8990.869     -5.850   0.880  2.65730E-01  6.29139E-01 -3.63409E-01
    8991.143     -5.576   0.920  2.84622E-01  6.45276E-01 -3.60655E-01
    8991.430     -5.290   0.960  3.00196E-01  6.61327E-01 -3.61131E-01
    8991.729     -4.991   1.000  3.10315E-01  6.77275E-01 -3.66961E-01
    8992.040     -4.680   1.040  3.15092E-01  6.93116E-01 -3.78024E-01
    8992.363     -4.357   1.080  3.17418E-01  7.08837E-01 -3.91420E-01
    8992.698     -4.022   1.120  3.21633E-01  7.24442E-01 -4.02809E-01
    8993.045     -3.674   1.160  3.30948E-01  7.39847E-01 -4.08899E-01
    8993.405     -3.314   1.200  3.46527E-01  7.55067E-01 -4.08539E-01
    8993.777     -2.943   1.240  3.67812E-01  7.70033E-01 -4.02221E-01
    8994.161     -2.559   1.280  3.93647E-01  7.84737E-01 -3.91090E-01
    8994.557     -2.162   1.320  4.22916E-01  7.99146E-01 -3.76229E-01
    8994.966     -1.754   1.360  4.55404E-01  8.13209E-01 -3.57805E-01
    8995.386     -1.333   1.400  4.92346E-01  8.26891E-01 -3.34545E-01
    8995.819     -0.900   1.440  5.35800E-01  8.40183E-01 -3.04382E-01
    8996.264     -0.455   1.480  5.87802E-01  8.53051E-01 -2.65249E-01
    8996.721      0.002   1.520  6.50590E-01  8.65447E-01 -2.14857E-01
    8997.191      0.471   1.560  7.24368E-01  8.77359E-01 -1.52991E-01
    8997.672      0.953   1.600  8.03389E-01  8.88780E-01 -8.53906E-02
    8998.166      1.447   1.640  8.82677E-01  8.99663E-01 -1.69852E-02
    8998.672      1.952   1.680  9.68930E-01  9.10042E-01  5.88881E-02
    8999.190      2.471   1.720  1.07028E+00  9.19854E-01  1.50425E-01
    8999.720      3.001   1.760  1.18335E+00  9.29137E-01  2.54213E-01
    9000.263      3.544   1.800  1.30388E+00  9.37849E-01  3.66034E-01
    9000.818      4.098   1.840  1.42919E+00  9.46013E-01  4.83173E-01
    9001.385      4.665   1.880  1.54366E+00  9.53628E-01  5.90032E-01
    9001.964      5.244   1.920  1.61505E+00  9.60700E-01  6.54345E-01
    9002.555      5.836   1.960  1.61039E+00  9.67236E-01  6.43159E-01
    9003.159      6.439   2.000  1.53425E+00  9.73259E-01  5.60989E-01
    9003.774      7.055   2.040  1.43537E+00  9.78755E-01  4.56610E-01
    9004.402      7.683   2.080  1.35292E+00  9.83754E-01  3.69171E-01
    9005.042      8.323   2.120  1.28926E+00  9.88287E-01  3.00972E-01
    9005.695      8.975   2.160  1.23517E+00  9.92340E-01  2.42834E-01
    9006.359      9.640   2.200  1.19295E+00  9.95966E-01  1.96981E-01
    9007.036     10.316   2.240  1.16572E+00  9.99176E-01  1.66547E-01
    9007.724     11.005   2.280  1.14457E+00  1.00198E+00  1.42594E-01
    9008.426     11.706   2.320  1.12017E+00  1.00441E+00  1.15761E-01
    9009.139     12.419   2.360  1.09507E+00  1.00649E+00  8.85803E-02
    9009.864     13.145   2.400  1.07426E+00  1.00822E+00  6.60335E-02
    9010.602     13.882   2.440  1.05454E+00  1.00965E+00  4.48887E-02
    9011.352     14.632   2.480  1.03430E+00  1.01077E+00  2.35296E-02
    9012.114     15.394   2.520  1.02046E+00  1.01165E+00  8.80509E-03
    9012.888     16.168   2.560  1.01971E+00  1.01227E+00  7.44554E-03
    9013.674     16.955   2.600  1.03119E+00  1.01266E+00  1.85221E-02
    9014.473     17.753   2.640  1.04332E+00  1.01285E+00  3.04717E-02
    9015.283     18.564   2.680  1.04295E+00  1.01284E+00  3.01027E-02
    9016.106     19.387   2.720  1.03084E+00  1.01267E+00  1.81682E-02
    9016.942     20.222   2.760  1.01128E+00  1.01235E+00 -1.07450E-03
    9017.789     21.069   2.800  9.88156E-01  1.01189E+00 -2.37363E-02
    9018.648     21.929   2.840  9.64928E-01  1.01133E+00 -4.64023E-02
    9019.520     22.801   2.880  9.43658E-01  1.01065E+00 -6.69974E-02
    9020.404     23.685   2.920  9.25444E-01  1.00992E+00 -8.44714E-02
    9021.300     24.581   2.960  9.10717E-01  1.00908E+00 -9.83612E-02
    9022.209     25.489   3.000  8.99321E-01  1.00819E+00 -1.08867E-01
    9023.129     26.410   3.040  8.90669E-01  1.00726E+00 -1.16587E-01
    9024.062     27.342   3.080  8.84268E-01  1.00631E+00 -1.22038E-01
    9025.007     28.287   3.120  8.79114E-01  1.00532E+00 -1.26209E-01
    9025.964     29.244   3.160  8.74552E-01  1.00431E+00 -1.29758E-01
    9026.933     30.213   3.200  8.70602E-01  1.00331E+00 -1.32713E-01
    9027.914     31.195   3.240  8.67787E-01  1.00230E+00 -1.34512E-01
    9028.908     32.189   3.280  8.66935E-01  1.00131E+00 -1.34375E-01
    9029.914     33.194   3.320  8.68752E-01  1.00035E+00 -1.31599E-01
    9030.932     34.212   3.360  8.73582E-01  9.99404E-01 -1.25821E-01
    9031.962     35.243   3.400  8.81094E-01  9.98493E-01 -1.17399E-01
    9033.004     36.285   3.440  8.90802E-01  9.97621E-01 -1.06819E-01
    9034.059     37.340   3.480  9.02273E-01  9.96809E-01 -9.45361E-02
    9035.126     38.406   3.520  9.15023E-01  9.96018E-01 -8.09952E-02
    9036.205     39.485   3.560  9.28649E-01  9.95271E-01 -6.66221E-02
    9037.296     40.577   3.600  9.42820E-01  9.94593E-01 -5.17731E-02
    9038.399     41.680   3.640  9.57189E-01  9.93982E-01 -3.67933E-02
    9039.515     42.796   3.680  9.71362E-01  9.93398E-01 -2.20353E-02
    9040.643     43.923   3.720  9.85150E-01  9.92903E-01 -7.75280E-03
    9041.783     45.063   3.760  9.98319E-01  9.92438E-01  5.88022E-03
    9042.935     46.215   3.800  1.01068E+00  9.92064E-01  1.86197E-02
    9044.099     47.380   3.840  1.02190E+00  9.91720E-01  3.01794E-02
    9045.276     48.556   3.880  1.03178E+00  9.91468E-01  4.03168E-02
    9046.464     49.745   3.920  1.04010E+00  9.91265E-01  4.88379E-02
    9047.665     50.946   3.960  1.04671E+00  9.91112E-01  5.55938E-02
    9048.878     52.159   4.000  1.05163E+00  9.91030E-01  6.05975E-02
    9050.104     53.384   4.040  1.05503E+00  9.91017E-01  6.40147E-02
    9051.341     54.622   4.080  1.05712E+00  9.91030E-01  6.60866E-02
    9052.591     55.871   4.120  1.05818E+00  9.91111E-01  6.70720E-02
    9053.853     57.133   4.160  1.05843E+00  9.91260E-01  6.71718E-02
    9055.127     58.407   4.200  1.05784E+00  9.91455E-01  6.63897E-02
    9056.413     59.694   4.240  1.05630E+00  9.91694E-01  6.46076E-02
    9057.711     60.992   4.280  1.05382E+00  9.91973E-01  6.18455E-02
    9059.022     62.303   4.320  1.05056E+00  9.92293E-01  5.82649E-02
    9060.345     63.625   4.360  1.04677E+00  9.92654E-01  5.41130E-02
    9061.680     64.960   4.400  1.04272E+00  9.93073E-01  4.96439E-02
    9063.027     66.308   4.440  1.03853E+00  9.93487E-01  4.50438E-02
    9064.387     67.667   4.480  1.03439E+00  9.93958E-01  4.04336E-02
    9065.758     69.039   4.520  1.03048E+00  9.94464E-01  3.60187E-02
    9067.142     70.422   4.560  1.02703E+00  9.94978E-01  3.20520E-02
    9068.538     71.818   4.600  1.02424E+00  9.95499E-01  2.87451E-02
    9069.946     73.227   4.640  1.02230E+00  9.96049E-01  2.62480E-02
    9071.366     74.647   4.680  1.02113E+00  9.96604E-01  2.45230E-02
    9072.799     76.080   4.720  1.02044E+00  9.97162E-01  2.32780E-02
    9074.244     77.524   4.760  1.01974E+00  9.97746E-01  2.19917E-02
    9075.701     78.981   4.800  1.01835E+00  9.98329E-01  2.00228E-02
    9077.170     80.450   4.840  1.01575E+00  9.98887E-01  1.68662E-02
    9078.651     81.932   4.880  1.01186E+00  9.99441E-01  1.24222E-02
    9080.145     83.425   4.920  1.00703E+00  1.00001E+00  7.01642E-03
    9081.650     84.931   4.960  1.00175E+00  1.00054E+00  1.21670E-03
    9083.168     86.449   5.000  9.96551E-01  1.00107E+00 -4.52024E-03
    9084.698     87.979   5.040  9.91486E-01  1.00158E+00 -1.00896E-02
    9086.241     89.521   5.080  9.86354E-01  1.00205E+00 -1.56920E-02
    9087.795     91.076   5.120  9.80898E-01  1.00250E+00 -2.16073E-02
    9089.362     92.642   5.160  9.74982E-01  1.00293E+00 -2.79486E-02
    9090.941     94.221   5.200  9.68784E-01  1.00334E+00 -3.45567E-02
    9092.532     95.812   5.240  9.62603E-01  1.00369E+00 -4.10873E-02
    9094.135     97.415   5.280  9.56909E-01  1.00402E+00 -4.71160E-02
    9095.750     99.031   5.320  9.52080E-01  1.00432E+00 -5.22398E-02
    9097.378    100.658   5.360  9.48445E-01  1.00457E+00 -5.61296E-02
    9099.018    102.298   5.400  9.46166E-01  1.00479E+00 -5.86220E-02
    9100.670    103.950   5.440  9.45321E-01  1.00496E+00 -5.96375E-02
    9102.334    105.615   5.480  9.46006E-01  1.00507E+00 -5.90588E-02
    9104.010    107.291   5.520  9.48398E-01  1.00515E+00 -5.67536E-02
    9105.699    108.980   5.560  9.52425E-01  1.00520E+00 -5.27733E-02
    9107.400    110.680   5.600  9.57819E-01  1.00520E+00 -4.73851E-02
    9109.113    112.393   5.640  9.64210E-01  1.00514E+00 -4.09336E-02
    9110.838    114.118   5.680  9.71436E-01  1.00506E+00 -3.36254E-02
    9112.575    115.856   5.720  9.79425E-01  1.00492E+00 -2.54909E-02
    9114.325    117.605   5.760  9.88278E-01  1.00473E+00 -1.64501E-02
    9116.087    119.367   5.800  9.98013E-01  1.00453E+00 -6.51236E-03
    9117.860    121.141   5.840  1.00832E+00  1.00426E+00  4.06465E-03
    9119.647    122.927   5.880  1.01865E+00  1.00395E+00  1.47007E-02
    9121.445    124.725   5.920  1.02814E+00  1.00361E+00  2.45330E-02
    9123.255    126.536   5.960  1.03570E+00  1.00323E+00  3.24739E-02
    9125.078    128.359   6.000  1.04021E+00  1.00278E+00  3.74286E-02
