# # comment:                                                     FEFF 9.9.1  
# # Source:
# # Structure
# # Reduced
# # space
# # abc:
# # angles:104.941215
# # sites:
# # POT  SCF 100  7.0000   0, screened core-hole, AFOLP (folp(0)= 1.150)
# # Abs   Z=29 Rmt= 1.202 Rnm= 1.306 K  shell
# # Pot 1 Z=23 Rmt= 1.097 Rnm= 1.310
# # Pot 2 Z=29 Rmt= 1.204 Rnm= 1.303
# # Pot 3 Z=17 Rmt= 1.564 Rnm= 1.631
# # Pot 4 Z= 8 Rmt= 0.926 Rnm= 1.091
# # Gam_ch=1.729E+00 H-L exch Vi= 0.000E+00 Vr= 0.000E+00
# # Mu=-8.051E+00eV kf=2.224E+00 Vint=-1.634E+01eV Rs_int= 1.631
# FMS rfms= 9.0000
# # PATH  Rmax=-1.000,  Keep_limit= 0.00, Heap_limit 0.00  Pwcrit= 2.50%
#  S02=0.950  Temp=   0.00  Debye_temp=   0.00  Global_sig2= 0.00000
#  Energy zero shift, vr, vi    0.00000E+00   0.00000E+00
#  Curved wave amplitude ratio filter   4.000%
#     file         sig2 tot  cw amp ratio   deg  nlegs   reff  inp sig2
#     0/   0 paths used
#  xsedge+ 50, used to normalize mu           2.4603E-04
#  -----------------------------------------------------------------------
#  omega    e    k    mu    mu0     chi     @#
    8983.831    -11.861  -1.000  3.78588E-02  5.20436E-02 -1.41848E-02
    8984.130    -11.562  -0.960  3.99623E-02  5.57665E-02 -1.58042E-02
    8984.416    -11.276  -0.920  4.22428E-02  5.98982E-02 -1.76554E-02
    8984.691    -11.001  -0.880  4.47210E-02  6.44985E-02 -1.97775E-02
    8984.953    -10.739  -0.840  4.74202E-02  6.96368E-02 -2.22166E-02
    8985.203    -10.489  -0.800  5.03665E-02  7.53936E-02 -2.50272E-02
    8985.440    -10.252  -0.760  5.35886E-02  8.18611E-02 -2.82725E-02
    8985.666    -10.026  -0.720  5.71180E-02  8.91434E-02 -3.20253E-02
    8985.879     -9.813  -0.680  6.09880E-02  9.73550E-02 -3.63670E-02
    8986.081     -9.612  -0.640  6.52321E-02  1.06617E-01 -4.13847E-02
    8986.270     -9.423  -0.600  6.98814E-02  1.17047E-01 -4.71658E-02
    8986.446     -9.246  -0.560  7.49605E-02  1.28747E-01 -5.37867E-02
    8986.611     -9.081  -0.520  8.04811E-02  1.41776E-01 -6.12953E-02
    8986.763     -8.929  -0.480  8.64337E-02  1.56121E-01 -6.96869E-02
    8986.903     -8.789  -0.440  9.27780E-02  1.71654E-01 -7.88762E-02
    8987.032     -8.661  -0.400  9.94337E-02  1.88108E-01 -8.86743E-02
    8987.147     -8.545  -0.360  1.06275E-01  2.05060E-01 -9.87844E-02
    8987.251     -8.441  -0.320  1.13135E-01  2.21961E-01 -1.08826E-01
    8987.342     -8.350  -0.280  1.19813E-01  2.38202E-01 -1.18389E-01
    8987.422     -8.270  -0.240  1.26096E-01  2.53196E-01 -1.27100E-01
    8987.489     -8.203  -0.200  1.31778E-01  2.66451E-01 -1.34673E-01
    8987.544     -8.148  -0.160  1.36678E-01  2.77605E-01 -1.40927E-01
    8987.586     -8.106  -0.120  1.40649E-01  2.86426E-01 -1.45776E-01
    8987.617     -8.075  -0.080  1.43583E-01  2.92783E-01 -1.49201E-01
    8987.641     -8.051   0.000  1.46029E-01  2.97893E-01 -1.51864E-01
    8987.696     -7.996   0.120  1.51428E-01  3.09414E-01 -1.57987E-01
    8987.739     -7.953   0.160  1.55666E-01  3.18362E-01 -1.62696E-01
    8987.793     -7.899   0.200  1.61206E-01  3.29815E-01 -1.68609E-01
    8987.861     -7.831   0.240  1.68059E-01  3.43604E-01 -1.75545E-01
    8987.940     -7.752   0.280  1.76225E-01  3.59466E-01 -1.83242E-01
    8988.031     -7.661   0.320  1.85609E-01  3.76991E-01 -1.91382E-01
    8988.135     -7.557   0.360  1.95998E-01  3.95695E-01 -1.99697E-01
    8988.251     -7.441   0.400  2.07168E-01  4.15081E-01 -2.07913E-01
    8988.379     -7.313   0.440  2.18783E-01  4.34635E-01 -2.15851E-01
    8988.519     -7.173   0.480  2.30807E-01  4.53992E-01 -2.23185E-01
    8988.671     -7.021   0.520  2.43561E-01  4.72920E-01 -2.29359E-01
    8988.836     -6.856   0.560  2.57789E-01  4.91311E-01 -2.33523E-01
    8989.013     -6.679   0.600  2.74283E-01  5.09094E-01 -2.34811E-01
    8989.202     -6.490   0.640  2.93376E-01  5.26361E-01 -2.32985E-01
    8989.403     -6.289   0.680  3.14349E-01  5.43177E-01 -2.28828E-01
    8989.616     -6.076   0.720  3.35551E-01  5.59575E-01 -2.24025E-01
    8989.842     -5.850   0.760  3.55434E-01  5.75695E-01 -2.20262E-01
    8990.079     -5.613   0.800  3.73666E-01  5.91561E-01 -2.17895E-01
    8990.329     -5.363   0.840  3.91811E-01  6.07247E-01 -2.15436E-01
    8990.592     -5.101   0.880  4.11969E-01  6.22793E-01 -2.10825E-01
    8990.866     -4.826   0.920  4.33959E-01  6.38229E-01 -2.04270E-01
    8991.152     -4.540   0.960  4.52972E-01  6.53572E-01 -2.00600E-01
    8991.451     -4.241   1.000  4.61764E-01  6.68828E-01 -2.07063E-01
    8991.762     -3.930   1.040  4.58872E-01  6.83978E-01 -2.25106E-01
    8992.085     -3.607   1.080  4.52620E-01  6.99032E-01 -2.46413E-01
    8992.420     -3.272   1.120  4.52586E-01  7.13958E-01 -2.61372E-01
    8992.768     -2.924   1.160  4.60535E-01  7.28737E-01 -2.68202E-01
    8993.127     -2.565   1.200  4.69582E-01  7.43366E-01 -2.73784E-01
    8993.499     -2.193   1.240  4.72385E-01  7.57779E-01 -2.85394E-01
    8993.883     -1.809   1.280  4.70766E-01  7.71969E-01 -3.01203E-01
    8994.280     -1.412   1.320  4.72736E-01  7.85908E-01 -3.13172E-01
    8994.688     -1.004   1.360  4.85571E-01  7.99566E-01 -3.13995E-01
    8995.109     -0.583   1.400  5.12574E-01  8.12890E-01 -3.00316E-01
    8995.541     -0.151   1.440  5.51279E-01  8.25872E-01 -2.74593E-01
    8995.986      0.294   1.480  5.94657E-01  8.38502E-01 -2.43844E-01
    8996.444      0.752   1.520  6.36551E-01  8.50706E-01 -2.14155E-01
    8996.913      1.221   1.560  6.75229E-01  8.62499E-01 -1.87270E-01
    8997.395      1.703   1.600  7.12431E-01  8.73872E-01 -1.61441E-01
    8997.888      2.196   1.640  7.52260E-01  8.84756E-01 -1.32496E-01
    8998.394      2.702   1.680  7.99348E-01  8.95187E-01 -9.58390E-02
    8998.913      3.221   1.720  8.58615E-01  9.05118E-01 -4.65024E-02
    8999.443      3.751   1.760  9.32732E-01  9.14568E-01  1.81641E-02
    8999.985      4.293   1.800  1.01870E+00  9.23493E-01  9.52097E-02
    9000.540      4.848   1.840  1.11294E+00  9.31933E-01  1.81002E-01
    9001.107      5.415   1.880  1.21289E+00  9.39868E-01  2.73027E-01
    9001.686      5.994   1.920  1.30535E+00  9.47302E-01  3.58048E-01
    9002.278      6.585   1.960  1.36594E+00  9.54214E-01  4.11721E-01
    9002.881      7.189   2.000  1.38295E+00  9.60651E-01  4.22295E-01
    9003.497      7.805   2.040  1.36612E+00  9.66597E-01  3.99527E-01
    9004.125      8.433   2.080  1.33280E+00  9.72078E-01  3.60725E-01
    9004.765      9.073   2.120  1.29561E+00  9.77103E-01  3.18511E-01
    9005.417      9.725   2.160  1.26182E+00  9.81677E-01  2.80146E-01
    9006.081     10.389   2.200  1.23675E+00  9.85829E-01  2.50923E-01
    9006.758     11.066   2.240  1.22161E+00  9.89546E-01  2.32067E-01
    9007.447     11.755   2.280  1.21331E+00  9.92900E-01  2.20407E-01
    9008.148     12.456   2.320  1.20498E+00  9.95837E-01  2.09144E-01
    9008.861     13.169   2.360  1.18817E+00  9.98451E-01  1.89722E-01
    9009.587     13.895   2.400  1.15924E+00  1.00071E+00  1.58526E-01
    9010.324     14.632   2.440  1.12300E+00  1.00264E+00  1.20361E-01
    9011.074     15.382   2.480  1.08877E+00  1.00428E+00  8.44872E-02
    9011.836     16.144   2.520  1.06682E+00  1.00566E+00  6.11606E-02
    9012.610     16.918   2.560  1.06068E+00  1.00676E+00  5.39199E-02
    9013.397     17.705   2.600  1.06507E+00  1.00761E+00  5.74601E-02
    9014.195     18.503   2.640  1.06660E+00  1.00822E+00  5.83744E-02
    9015.006     19.314   2.680  1.05835E+00  1.00866E+00  4.96933E-02
    9015.829     20.137   2.720  1.04520E+00  1.00889E+00  3.63081E-02
    9016.664     20.972   2.760  1.03051E+00  1.00896E+00  2.15492E-02
    9017.511     21.819   2.800  1.01543E+00  1.00888E+00  6.54486E-03
    9018.371     22.679   2.840  1.00052E+00  1.00866E+00 -8.14087E-03
    9019.243     23.551   2.880  9.86381E-01  1.00831E+00 -2.19307E-02
    9020.127     24.434   2.920  9.73533E-01  1.00787E+00 -3.43338E-02
    9021.023     25.331   2.960  9.62396E-01  1.00731E+00 -4.49151E-02
    9021.931     26.239   3.000  9.52777E-01  1.00668E+00 -5.38987E-02
    9022.851     27.159   3.040  9.44121E-01  1.00599E+00 -6.18641E-02
    9023.784     28.092   3.080  9.35926E-01  1.00525E+00 -6.93192E-02
    9024.729     29.037   3.120  9.27795E-01  1.00444E+00 -7.66467E-02
    9025.686     29.994   3.160  9.19572E-01  1.00362E+00 -8.40465E-02
    9026.655     30.963   3.200  9.11377E-01  1.00276E+00 -9.13857E-02
    9027.637     31.945   3.240  9.03705E-01  1.00190E+00 -9.81935E-02
    9028.630     32.938   3.280  8.96949E-01  1.00103E+00 -1.04082E-01
    9029.636     33.944   3.320  8.91351E-01  1.00016E+00 -1.08812E-01
    9030.654     34.962   3.360  8.87089E-01  9.99297E-01 -1.12208E-01
    9031.685     35.992   3.400  8.84203E-01  9.98435E-01 -1.14233E-01
    9032.727     37.035   3.440  8.82609E-01  9.97605E-01 -1.14995E-01
    9033.782     38.089   3.480  8.82298E-01  9.96808E-01 -1.14511E-01
    9034.848     39.156   3.520  8.83272E-01  9.96047E-01 -1.12775E-01
    9035.927     40.235   3.560  8.85528E-01  9.95302E-01 -1.09774E-01
    9037.018     41.326   3.600  8.89175E-01  9.94617E-01 -1.05443E-01
    9038.122     42.430   3.640  8.94266E-01  9.93952E-01 -9.96862E-02
    9039.237     43.545   3.680  9.00931E-01  9.93351E-01 -9.24200E-02
    9040.365     44.673   3.720  9.09106E-01  9.92794E-01 -8.36877E-02
    9041.505     45.813   3.760  9.18852E-01  9.92302E-01 -7.34493E-02
    9042.657     46.965   3.800  9.30106E-01  9.91834E-01 -6.17281E-02
    9043.822     48.130   3.840  9.42784E-01  9.91432E-01 -4.86476E-02
    9044.998     49.306   3.880  9.56739E-01  9.91077E-01 -3.43380E-02
    9046.187     50.495   3.920  9.71840E-01  9.90790E-01 -1.89494E-02
    9047.388     51.696   3.960  9.87802E-01  9.90550E-01 -2.74882E-03
    9048.601     52.909   4.000  1.00411E+00  9.90379E-01  1.37265E-02
    9049.826     54.134   4.040  1.02011E+00  9.90233E-01  2.98761E-02
    9051.064     55.372   4.080  1.03523E+00  9.90174E-01  4.50548E-02
    9052.313     56.621   4.120  1.04881E+00  9.90140E-01  5.86722E-02
    9053.575     57.883   4.160  1.06058E+00  9.90171E-01  7.04081E-02
    9054.849     59.157   4.200  1.07035E+00  9.90246E-01  8.01012E-02
    9056.135     60.443   4.240  1.07805E+00  9.90364E-01  8.76868E-02
    9057.434     61.742   4.280  1.08373E+00  9.90526E-01  9.32087E-02
    9058.745     63.052   4.320  1.08749E+00  9.90748E-01  9.67383E-02
    9060.067     64.375   4.360  1.08926E+00  9.90990E-01  9.82676E-02
    9061.402     65.710   4.400  1.08894E+00  9.91271E-01  9.76728E-02
    9062.750     67.058   4.440  1.08646E+00  9.91612E-01  9.48530E-02
    9064.109     68.417   4.480  1.08172E+00  9.91968E-01  8.97537E-02
    9065.481     69.789   4.520  1.07489E+00  9.92357E-01  8.25365E-02
    9066.864     71.172   4.560  1.06640E+00  9.92758E-01  7.36404E-02
    9068.260     72.568   4.600  1.05677E+00  9.93192E-01  6.35771E-02
    9069.669     73.976   4.640  1.04648E+00  9.93657E-01  5.28265E-02
    9071.089     75.397   4.680  1.03595E+00  9.94132E-01  4.18133E-02
    9072.521     76.829   4.720  1.02548E+00  9.94635E-01  3.08441E-02
    9073.966     78.274   4.760  1.01527E+00  9.95142E-01  2.01310E-02
    9075.423     79.731   4.800  1.00550E+00  9.95651E-01  9.85356E-03
    9076.892     81.200   4.840  9.96314E-01  9.96160E-01  1.54080E-04
    9078.374     82.682   4.880  9.87822E-01  9.96668E-01 -8.84646E-03
    9079.867     84.175   4.920  9.80175E-01  9.97176E-01 -1.70010E-02
    9081.373     85.681   4.960  9.73621E-01  9.97681E-01 -2.40601E-02
    9082.891     87.199   5.000  9.68563E-01  9.98179E-01 -2.96158E-02
    9084.421     88.729   5.040  9.65434E-01  9.98650E-01 -3.32163E-02
    9085.963     90.271   5.080  9.64601E-01  9.99115E-01 -3.45135E-02
    9087.518     91.825   5.120  9.66234E-01  9.99571E-01 -3.33371E-02
    9089.084     93.392   5.160  9.70208E-01  9.99997E-01 -2.97886E-02
    9090.663     94.971   5.200  9.76119E-01  1.00041E+00 -2.42928E-02
    9092.254     96.562   5.240  9.83126E-01  1.00079E+00 -1.76669E-02
    9093.857     98.165   5.280  9.90179E-01  1.00116E+00 -1.09823E-02
    9095.473     99.781   5.320  9.96145E-01  1.00147E+00 -5.32592E-03
    9097.100    101.408   5.360  1.00033E+00  1.00177E+00 -1.43728E-03
    9098.740    103.048   5.400  1.00253E+00  1.00205E+00  4.79168E-04
    9100.392    104.700   5.440  1.00295E+00  1.00227E+00  6.79613E-04
    9102.056    106.364   5.480  1.00204E+00  1.00245E+00 -4.05783E-04
    9103.733    108.041   5.520  1.00014E+00  1.00261E+00 -2.47243E-03
    9105.421    109.729   5.560  9.97189E-01  1.00271E+00 -5.51978E-03
    9107.122    111.430   5.600  9.93094E-01  1.00279E+00 -9.69767E-03
    9108.835    113.143   5.640  9.87797E-01  1.00281E+00 -1.50154E-02
    9110.560    114.868   5.680  9.81694E-01  1.00281E+00 -2.11203E-02
    9112.298    116.606   5.720  9.75394E-01  1.00278E+00 -2.73830E-02
    9114.047    118.355   5.760  9.69581E-01  1.00268E+00 -3.30950E-02
    9115.809    120.117   5.800  9.64888E-01  1.00256E+00 -3.76673E-02
    9117.583    121.891   5.840  9.61614E-01  1.00237E+00 -4.07602E-02
    9119.369    123.677   5.880  9.59807E-01  1.00218E+00 -4.23709E-02
    9121.167    125.475   5.920  9.59195E-01  1.00192E+00 -4.27260E-02
    9122.978    127.286   5.960  9.59676E-01  1.00165E+00 -4.19734E-02
    9124.801    129.108   6.000  9.61415E-01  1.00132E+00 -3.99030E-02
