# # comment:                                                     FEFF 9.9.1  
# # Source:
# # Structure
# # Reduced
# # space
# # abc:
# # angles:
# # sites:
# # POT  SCF 100  7.0000   0, screened core-hole, AFOLP (folp(0)= 1.150)
# # Abs   Z=29 Rmt= 1.226 Rnm= 1.310 K  shell
# # Pot 1 Z=12 Rmt= 1.381 Rnm= 1.456
# # Pot 2 Z=29 Rmt= 1.225 Rnm= 1.310
# # Pot 3 Z= 8 Rmt= 1.007 Rnm= 1.100
# # Gam_ch=1.729E+00 H-L exch Vi= 0.000E+00 Vr= 0.000E+00
# # Mu=-8.579E+00eV kf=2.128E+00 Vint=-1.732E+01eV Rs_int= 1.704
# FMS rfms= 9.0000
# # PATH  Rmax=-1.000,  Keep_limit= 0.00, Heap_limit 0.00  Pwcrit= 2.50%
#  S02=0.950  Temp=   0.00  Debye_temp=   0.00  Global_sig2= 0.00000
#  Energy zero shift, vr, vi    0.00000E+00   0.00000E+00
#  Curved wave amplitude ratio filter   4.000%
#     file         sig2 tot  cw amp ratio   deg  nlegs   reff  inp sig2
#     0/   0 paths used
#  xsedge+ 50, used to normalize mu           2.4581E-04
#  -----------------------------------------------------------------------
#  omega    e    k    mu    mu0     chi     @#
    8984.424    -12.389  -1.000  3.83550E-02  5.47357E-02 -1.63808E-02
    8984.723    -12.091  -0.960  4.03025E-02  5.87257E-02 -1.84232E-02
    8985.010    -11.804  -0.920  4.23806E-02  6.31598E-02 -2.07793E-02
    8985.284    -11.530  -0.880  4.45997E-02  6.81036E-02 -2.35039E-02
    8985.546    -11.268  -0.840  4.69707E-02  7.36330E-02 -2.66622E-02
    8985.796    -11.018  -0.800  4.95054E-02  7.98362E-02 -3.03308E-02
    8986.034    -10.780  -0.760  5.22158E-02  8.68145E-02 -3.45987E-02
    8986.259    -10.554  -0.720  5.51139E-02  9.46820E-02 -3.95680E-02
    8986.473    -10.341  -0.680  5.82116E-02  1.03565E-01 -4.53531E-02
    8986.674    -10.140  -0.640  6.15188E-02  1.13595E-01 -5.20763E-02
    8986.863     -9.951  -0.600  6.50428E-02  1.24904E-01 -5.98612E-02
    8987.039     -9.774  -0.560  6.87852E-02  1.37602E-01 -6.88173E-02
    8987.204     -9.610  -0.520  7.27384E-02  1.51757E-01 -7.90183E-02
    8987.356     -9.457  -0.480  7.68813E-02  1.67352E-01 -9.04705E-02
    8987.497     -9.317  -0.440  8.11741E-02  1.84251E-01 -1.03077E-01
    8987.625     -9.189  -0.400  8.55542E-02  2.02160E-01 -1.16606E-01
    8987.741     -9.073  -0.360  8.99360E-02  2.20617E-01 -1.30681E-01
    8987.844     -8.970  -0.320  9.42157E-02  2.39022E-01 -1.44807E-01
    8987.936     -8.878  -0.280  9.82808E-02  2.56708E-01 -1.58427E-01
    8988.015     -8.799  -0.240  1.02023E-01  2.73034E-01 -1.71011E-01
    8988.082     -8.732  -0.200  1.05346E-01  2.87462E-01 -1.82116E-01
    8988.137     -8.677  -0.160  1.08171E-01  2.99599E-01 -1.91428E-01
    8988.179     -8.634  -0.120  1.10433E-01  3.09193E-01 -1.98760E-01
    8988.210     -8.604  -0.080  1.12085E-01  3.16106E-01 -2.04020E-01
    8988.234     -8.579   0.000  1.13436E-01  3.21659E-01 -2.08223E-01
    8988.289     -8.525   0.120  1.16692E-01  3.34190E-01 -2.17498E-01
    8988.332     -8.482   0.160  1.19206E-01  3.43923E-01 -2.24717E-01
    8988.387     -8.427   0.200  1.22474E-01  3.56348E-01 -2.33874E-01
    8988.454     -8.360   0.240  1.26538E-01  3.71298E-01 -2.44760E-01
    8988.533     -8.281   0.280  1.31493E-01  3.88476E-01 -2.56983E-01
    8988.624     -8.189   0.320  1.37394E-01  4.07426E-01 -2.70032E-01
    8988.728     -8.086   0.360  1.44463E-01  4.27630E-01 -2.83167E-01
    8988.844     -7.970   0.400  1.52886E-01  4.48471E-01 -2.95585E-01
    8988.972     -7.842   0.440  1.63080E-01  4.69446E-01 -3.06366E-01
    8989.112     -7.702   0.480  1.75532E-01  4.90107E-01 -3.14575E-01
    8989.265     -7.549   0.520  1.90929E-01  5.10215E-01 -3.19286E-01
    8989.429     -7.385   0.560  2.10131E-01  5.29631E-01 -3.19500E-01
    8989.606     -7.208   0.600  2.34087E-01  5.48301E-01 -3.14214E-01
    8989.795     -7.019   0.640  2.63772E-01  5.66302E-01 -3.02530E-01
    8989.996     -6.818   0.680  2.99490E-01  5.83707E-01 -2.84218E-01
    8990.209     -6.604   0.720  3.39873E-01  6.00584E-01 -2.60711E-01
    8990.435     -6.379   0.760  3.80940E-01  6.17037E-01 -2.36098E-01
    8990.673     -6.141   0.800  4.17166E-01  6.33144E-01 -2.15977E-01
    8990.923     -5.891   0.840  4.45979E-01  6.48965E-01 -2.02986E-01
    8991.185     -5.629   0.880  4.70592E-01  6.64550E-01 -1.93958E-01
    8991.459     -5.355   0.920  4.95581E-01  6.79914E-01 -1.84333E-01
    8991.746     -5.068   0.960  5.20501E-01  6.95120E-01 -1.74620E-01
    8992.044     -4.769   1.000  5.38535E-01  7.10121E-01 -1.71586E-01
    8992.355     -4.458   1.040  5.42080E-01  7.24959E-01 -1.82879E-01
    8992.678     -4.135   1.080  5.30584E-01  7.39610E-01 -2.09025E-01
    8993.014     -3.800   1.120  5.12676E-01  7.54083E-01 -2.41407E-01
    8993.361     -3.453   1.160  5.00342E-01  7.68323E-01 -2.67981E-01
    8993.721     -3.093   1.200  5.01544E-01  7.82329E-01 -2.80786E-01
    8994.093     -2.721   1.240  5.16155E-01  7.96081E-01 -2.79927E-01
    8994.477     -2.337   1.280  5.37370E-01  8.09533E-01 -2.72163E-01
    8994.873     -1.941   1.320  5.59310E-01  8.22676E-01 -2.63366E-01
    8995.281     -1.532   1.360  5.82680E-01  8.35466E-01 -2.52786E-01
    8995.702     -1.112   1.400  6.11249E-01  8.47914E-01 -2.36666E-01
    8996.135     -0.679   1.440  6.48359E-01  8.59954E-01 -2.11595E-01
    8996.580     -0.234   1.480  6.95708E-01  8.71595E-01 -1.75887E-01
    8997.037      0.223   1.520  7.51617E-01  8.82790E-01 -1.31173E-01
    8997.506      0.693   1.560  8.14411E-01  8.93534E-01 -7.91234E-02
    8997.988      1.174   1.600  8.81740E-01  9.03801E-01 -2.20611E-02
    8998.482      1.668   1.640  9.50797E-01  9.13606E-01  3.71902E-02
    8998.988      2.174   1.680  1.03011E+00  9.22907E-01  1.07198E-01
    8999.506      2.692   1.720  1.12779E+00  9.31701E-01  1.96092E-01
    9000.036      3.222   1.760  1.23015E+00  9.40008E-01  2.90138E-01
    9000.579      3.765   1.800  1.31227E+00  9.47808E-01  3.64460E-01
    9001.133      4.320   1.840  1.36831E+00  9.55103E-01  4.13207E-01
    9001.700      4.887   1.880  1.39530E+00  9.61915E-01  4.33385E-01
    9002.279      5.466   1.920  1.38120E+00  9.68207E-01  4.12995E-01
    9002.871      6.057   1.960  1.34976E+00  9.74027E-01  3.75732E-01
    9003.474      6.661   2.000  1.33449E+00  9.79379E-01  3.55108E-01
    9004.090      7.276   2.040  1.32913E+00  9.84249E-01  3.44878E-01
    9004.718      7.904   2.080  1.30748E+00  9.88685E-01  3.18799E-01
    9005.358      8.544   2.120  1.25975E+00  9.92697E-01  2.67053E-01
    9006.010      9.196   2.160  1.19591E+00  9.96271E-01  1.99636E-01
    9006.675      9.861   2.200  1.13324E+00  9.99458E-01  1.33779E-01
    9007.351     10.538   2.240  1.08917E+00  1.00225E+00  8.69194E-02
    9008.040     11.226   2.280  1.06974E+00  1.00469E+00  6.50477E-02
    9008.741     11.927   2.320  1.07002E+00  1.00679E+00  6.32224E-02
    9009.454     12.641   2.360  1.07877E+00  1.00857E+00  7.02019E-02
    9010.180     13.366   2.400  1.08709E+00  1.01005E+00  7.70411E-02
    9010.917     14.104   2.440  1.09428E+00  1.01122E+00  8.30554E-02
    9011.667     14.854   2.480  1.10157E+00  1.01216E+00  8.94150E-02
    9012.429     15.616   2.520  1.10546E+00  1.01283E+00  9.26273E-02
    9013.203     16.390   2.560  1.09499E+00  1.01328E+00  8.17086E-02
    9013.990     17.176   2.600  1.07430E+00  1.01355E+00  6.07533E-02
    9014.788     17.975   2.640  1.04934E+00  1.01360E+00  3.57380E-02
    9015.599     18.785   2.680  1.02473E+00  1.01350E+00  1.12348E-02
    9016.422     19.608   2.720  1.00276E+00  1.01324E+00 -1.04800E-02
    9017.257     20.444   2.760  9.83493E-01  1.01283E+00 -2.93337E-02
    9018.105     21.291   2.800  9.65799E-01  1.01231E+00 -4.65136E-02
    9018.964     22.150   2.840  9.49141E-01  1.01169E+00 -6.25440E-02
    9019.836     23.022   2.880  9.33902E-01  1.01099E+00 -7.70880E-02
    9020.720     23.906   2.920  9.20485E-01  1.01019E+00 -8.97088E-02
    9021.616     24.802   2.960  9.09383E-01  1.00934E+00 -9.99591E-02
    9022.524     25.710   3.000  9.00993E-01  1.00842E+00 -1.07427E-01
    9023.445     26.631   3.040  8.95447E-01  1.00748E+00 -1.12030E-01
    9024.377     27.564   3.080  8.92508E-01  1.00648E+00 -1.13968E-01
    9025.322     28.509   3.120  8.91662E-01  1.00549E+00 -1.13823E-01
    9026.279     29.466   3.160  8.91910E-01  1.00447E+00 -1.12559E-01
    9027.249     30.435   3.200  8.92540E-01  1.00345E+00 -1.10909E-01
    9028.230     31.416   3.240  8.93362E-01  1.00245E+00 -1.09091E-01
    9029.224     32.410   3.280  8.94494E-01  1.00146E+00 -1.06967E-01
    9030.229     33.416   3.320  8.96124E-01  1.00048E+00 -1.04354E-01
    9031.248     34.434   3.360  8.98594E-01  9.99528E-01 -1.00934E-01
    9032.278     35.464   3.400  9.02227E-01  9.98612E-01 -9.63853E-02
    9033.320     36.506   3.440  9.07115E-01  9.97733E-01 -9.06186E-02
    9034.375     37.561   3.480  9.13287E-01  9.96873E-01 -8.35862E-02
    9035.442     38.628   3.520  9.20757E-01  9.96077E-01 -7.53203E-02
    9036.521     39.707   3.560  9.29298E-01  9.95346E-01 -6.60476E-02
    9037.612     40.798   3.600  9.38396E-01  9.94638E-01 -5.62424E-02
    9038.715     41.901   3.640  9.47725E-01  9.93997E-01 -4.62722E-02
    9039.831     43.017   3.680  9.56987E-01  9.93403E-01 -3.64156E-02
    9040.958     44.145   3.720  9.66006E-01  9.92878E-01 -2.68713E-02
    9042.098     45.285   3.760  9.74783E-01  9.92402E-01 -1.76194E-02
    9043.250     46.437   3.800  9.83670E-01  9.91997E-01 -8.32673E-03
    9044.415     47.601   3.840  9.93222E-01  9.91641E-01  1.58062E-03
    9045.591     48.778   3.880  1.00407E+00  9.91355E-01  1.27152E-02
    9046.780     49.966   3.920  1.01640E+00  9.91118E-01  2.52792E-02
    9047.981     51.167   3.960  1.02948E+00  9.90951E-01  3.85310E-02
    9049.194     52.380   4.000  1.04174E+00  9.90832E-01  5.09040E-02
    9050.419     53.606   4.040  1.05150E+00  9.90781E-01  6.07222E-02
    9051.657     54.843   4.080  1.05768E+00  9.90756E-01  6.69208E-02
    9052.907     56.093   4.120  1.06034E+00  9.90819E-01  6.95221E-02
    9054.168     57.355   4.160  1.06039E+00  9.90907E-01  6.94828E-02
    9055.442     58.629   4.200  1.05917E+00  9.91061E-01  6.81127E-02
    9056.729     59.915   4.240  1.05790E+00  9.91261E-01  6.66371E-02
    9058.027     61.213   4.280  1.05742E+00  9.91523E-01  6.58970E-02
    9059.338     62.524   4.320  1.05792E+00  9.91805E-01  6.61124E-02
    9060.661     63.847   4.360  1.05881E+00  9.92125E-01  6.66887E-02
    9061.996     65.182   4.400  1.05909E+00  9.92484E-01  6.66013E-02
    9063.343     66.529   4.440  1.05793E+00  9.92901E-01  6.50272E-02
    9064.702     67.889   4.480  1.05506E+00  9.93312E-01  6.17455E-02
    9066.074     69.260   4.520  1.05091E+00  9.93777E-01  5.71374E-02
    9067.458     70.644   4.560  1.04615E+00  9.94253E-01  5.19014E-02
    9068.854     72.040   4.600  1.04153E+00  9.94759E-01  4.67665E-02
    9070.262     73.448   4.640  1.03756E+00  9.95272E-01  4.22853E-02
    9071.682     74.868   4.680  1.03449E+00  9.95791E-01  3.86973E-02
    9073.115     76.301   4.720  1.03207E+00  9.96335E-01  3.57314E-02
    9074.559     77.746   4.760  1.02949E+00  9.96881E-01  3.26132E-02
    9076.016     79.203   4.800  1.02580E+00  9.97404E-01  2.83922E-02
    9077.485     80.672   4.840  1.02031E+00  9.97950E-01  2.23611E-02
    9078.967     82.153   4.880  1.01279E+00  9.98494E-01  1.43009E-02
    9080.460     83.647   4.920  1.00353E+00  9.99034E-01  4.49323E-03
    9081.966     85.152   4.960  9.93126E-01  9.99548E-01 -6.42163E-03
    9083.484     86.670   5.000  9.82480E-01  1.00005E+00 -1.75739E-02
    9085.014     88.200   5.040  9.72423E-01  1.00055E+00 -2.81291E-02
    9086.556     89.743   5.080  9.63471E-01  1.00102E+00 -3.75477E-02
    9088.111     91.297   5.120  9.55767E-01  1.00147E+00 -4.57070E-02
    9089.677     92.864   5.160  9.49117E-01  1.00190E+00 -5.27785E-02
    9091.256     94.443   5.200  9.43437E-01  1.00228E+00 -5.88458E-02
    9092.847     96.034   5.240  9.38933E-01  1.00266E+00 -6.37223E-02
    9094.451     97.637   5.280  9.36027E-01  1.00299E+00 -6.69640E-02
    9096.066     99.252   5.320  9.35307E-01  1.00329E+00 -6.79815E-02
    9097.694    100.880   5.360  9.37361E-01  1.00355E+00 -6.61850E-02
    9099.333    102.520   5.400  9.42520E-01  1.00376E+00 -6.12439E-02
    9100.985    104.172   5.440  9.50498E-01  1.00397E+00 -5.34673E-02
    9102.650    105.836   5.480  9.60160E-01  1.00410E+00 -4.39431E-02
    9104.326    107.512   5.520  9.70112E-01  1.00420E+00 -3.40857E-02
    9106.015    109.201   5.560  9.79353E-01  1.00425E+00 -2.49008E-02
    9107.715    110.902   5.600  9.87568E-01  1.00429E+00 -1.67231E-02
    9109.428    112.615   5.640  9.94567E-01  1.00426E+00 -9.69592E-03
    9111.154    114.340   5.680  9.99902E-01  1.00419E+00 -4.29094E-03
    9112.891    116.077   5.720  1.00294E+00  1.00408E+00 -1.14149E-03
    9114.640    117.827   5.760  1.00360E+00  1.00393E+00 -3.30303E-04
    9116.402    119.588   5.800  1.00282E+00  1.00374E+00 -9.19167E-04
    9118.176    121.362   5.840  1.00234E+00  1.00351E+00 -1.17192E-03
    9119.962    123.149   5.880  1.00377E+00  1.00324E+00  5.30585E-04
    9121.761    124.947   5.920  1.00773E+00  1.00297E+00  4.76185E-03
    9123.571    126.757   5.960  1.01346E+00  1.00263E+00  1.08326E-02
    9125.394    128.580   6.000  1.01970E+00  1.00222E+00  1.74832E-02
