# # comment:                                                     FEFF 9.9.1  
# # Source:
# # Structure
# # Reduced
# # space
# # abc:
# # angles:
# # sites:
# # POT  SCF 100  7.0000   0, screened core-hole, AFOLP (folp(0)= 1.150)
# # Abs   Z=29 Rmt= 1.175 Rnm= 1.243 K  shell
# # Pot 1 Z= 3 Rmt= 1.237 Rnm= 1.287
# # Pot 2 Z=27 Rmt= 1.205 Rnm= 1.319
# # Pot 3 Z=29 Rmt= 1.225 Rnm= 1.285
# # Pot 4 Z= 8 Rmt= 1.039 Rnm= 1.097
# # Gam_ch=1.729E+00 H-L exch Vi= 0.000E+00 Vr= 0.000E+00
# # Mu=-1.021E+01eV kf=2.193E+00 Vint=-1.764E+01eV Rs_int= 1.654
# FMS rfms= 9.0000
# # PATH  Rmax=-1.000,  Keep_limit= 0.00, Heap_limit 0.00  Pwcrit= 2.50%
#  S02=0.950  Temp=   0.00  Debye_temp=   0.00  Global_sig2= 0.00000
#  Energy zero shift, vr, vi    0.00000E+00   0.00000E+00
#  Curved wave amplitude ratio filter   4.000%
#     file         sig2 tot  cw amp ratio   deg  nlegs   reff  inp sig2
#     0/   0 paths used
#  xsedge+ 50, used to normalize mu           2.4467E-04
#  -----------------------------------------------------------------------
#  omega    e    k    mu    mu0     chi     @#
    8984.852    -14.024  -1.000  2.74278E-02  5.25415E-02 -2.51137E-02
    8985.150    -13.725  -0.960  2.84265E-02  5.62648E-02 -2.78382E-02
    8985.437    -13.439  -0.920  2.94713E-02  6.03917E-02 -3.09204E-02
    8985.711    -13.165  -0.880  3.05663E-02  6.49807E-02 -3.44144E-02
    8985.973    -12.902  -0.840  3.17161E-02  7.00994E-02 -3.83833E-02
    8986.223    -12.652  -0.800  3.29264E-02  7.58263E-02 -4.28999E-02
    8986.461    -12.415  -0.760  3.42034E-02  8.22510E-02 -4.80476E-02
    8986.686    -12.189  -0.720  3.55545E-02  8.94748E-02 -5.39203E-02
    8986.900    -11.976  -0.680  3.69875E-02  9.76090E-02 -6.06215E-02
    8987.101    -11.775  -0.640  3.85107E-02  1.06771E-01 -6.82599E-02
    8987.290    -11.586  -0.600  4.01316E-02  1.17074E-01 -7.69428E-02
    8987.467    -11.409  -0.560  4.18562E-02  1.28618E-01 -8.67615E-02
    8987.631    -11.244  -0.520  4.36861E-02  1.41458E-01 -9.77715E-02
    8987.784    -11.092  -0.480  4.56162E-02  1.55579E-01 -1.09963E-01
    8987.924    -10.952  -0.440  4.76313E-02  1.70859E-01 -1.23228E-01
    8988.052    -10.824  -0.400  4.97029E-02  1.87035E-01 -1.37332E-01
    8988.168    -10.708  -0.360  5.17891E-02  2.03694E-01 -1.51905E-01
    8988.271    -10.604  -0.320  5.38369E-02  2.20302E-01 -1.66465E-01
    8988.363    -10.513  -0.280  5.57881E-02  2.36263E-01 -1.80475E-01
    8988.442    -10.434  -0.240  5.75868E-02  2.51004E-01 -1.93417E-01
    8988.509    -10.366  -0.200  5.91847E-02  2.64040E-01 -2.04856E-01
    8988.564    -10.312  -0.160  6.05439E-02  2.75017E-01 -2.14473E-01
    8988.607    -10.269  -0.120  6.16362E-02  2.83702E-01 -2.22066E-01
    8988.637    -10.238  -0.080  6.24425E-02  2.89965E-01 -2.27522E-01
    8988.662    -10.214   0.000  6.31325E-02  2.95001E-01 -2.31869E-01
    8988.716    -10.159   0.120  6.47663E-02  3.06358E-01 -2.41592E-01
    8988.759    -10.117   0.160  6.59576E-02  3.15207E-01 -2.49249E-01
    8988.814    -10.062   0.200  6.74561E-02  3.26520E-01 -2.59064E-01
    8988.881     -9.995   0.240  6.92525E-02  3.40162E-01 -2.70909E-01
    8988.960     -9.915   0.280  7.13263E-02  3.55887E-01 -2.84560E-01
    8989.052     -9.824   0.320  7.36463E-02  3.73328E-01 -2.99682E-01
    8989.155     -9.720   0.360  7.61744E-02  3.92009E-01 -3.15834E-01
    8989.271     -9.604   0.400  7.88762E-02  4.11437E-01 -3.32561E-01
    8989.399     -9.476   0.440  8.17058E-02  4.31146E-01 -3.49440E-01
    8989.539     -9.336   0.480  8.46309E-02  4.50806E-01 -3.66175E-01
    8989.692     -9.184   0.520  8.75663E-02  4.70177E-01 -3.82610E-01
    8989.856     -9.019   0.560  9.04058E-02  4.89135E-01 -3.98729E-01
    8990.033     -8.842   0.600  9.30068E-02  5.07648E-01 -4.14641E-01
    8990.222     -8.654   0.640  9.52999E-02  5.25764E-01 -4.30464E-01
    8990.423     -8.452   0.680  9.72694E-02  5.43562E-01 -4.46292E-01
    8990.637     -8.239   0.720  9.90374E-02  5.61069E-01 -4.62031E-01
    8990.862     -8.013   0.760  1.01004E-01  5.78372E-01 -4.77368E-01
    8991.100     -7.776   0.800  1.03742E-01  5.95549E-01 -4.91807E-01
    8991.350     -7.526   0.840  1.07798E-01  6.12605E-01 -5.04807E-01
    8991.612     -7.264   0.880  1.13728E-01  6.29612E-01 -5.15884E-01
    8991.886     -6.989   0.920  1.21985E-01  6.46550E-01 -5.24566E-01
    8992.173     -6.703   0.960  1.32916E-01  6.63429E-01 -5.30513E-01
    8992.472     -6.404   1.000  1.46514E-01  6.80247E-01 -5.33732E-01
    8992.782     -6.093   1.040  1.62438E-01  6.96995E-01 -5.34557E-01
    8993.105     -5.770   1.080  1.80582E-01  7.13637E-01 -5.33056E-01
    8993.441     -5.435   1.120  2.00625E-01  7.30152E-01 -5.29528E-01
    8993.788     -5.087   1.160  2.20228E-01  7.46493E-01 -5.26265E-01
    8994.148     -4.728   1.200  2.38032E-01  7.62631E-01 -5.24599E-01
    8994.520     -4.356   1.240  2.58701E-01  7.78534E-01 -5.19833E-01
    8994.904     -3.972   1.280  2.89648E-01  7.94126E-01 -5.04478E-01
    8995.300     -3.576   1.320  3.32505E-01  8.09414E-01 -4.76909E-01
    8995.708     -3.167   1.360  3.79483E-01  8.24321E-01 -4.44839E-01
    8996.129     -2.747   1.400  4.24484E-01  8.38833E-01 -4.14349E-01
    8996.562     -2.314   1.440  4.69495E-01  8.52894E-01 -3.83399E-01
    8997.007     -1.869   1.480  5.13706E-01  8.66469E-01 -3.52763E-01
    8997.464     -1.411   1.520  5.54856E-01  8.79568E-01 -3.24712E-01
    8997.934     -0.942   1.560  5.95212E-01  8.92116E-01 -2.96904E-01
    8998.415     -0.461   1.600  6.30626E-01  9.04104E-01 -2.73478E-01
    8998.909      0.033   1.640  6.51938E-01  9.15503E-01 -2.63566E-01
    8999.415      0.539   1.680  6.61543E-01  9.26329E-01 -2.64786E-01
    8999.933      1.057   1.720  6.78720E-01  9.36535E-01 -2.57815E-01
    9000.463      1.588   1.760  7.36516E-01  9.46139E-01 -2.09623E-01
    9001.006      2.130   1.800  8.56638E-01  9.55141E-01 -9.85032E-02
    9001.561      2.685   1.840  1.02808E+00  9.63501E-01  6.45768E-02
    9002.128      3.252   1.880  1.23351E+00  9.71263E-01  2.62245E-01
    9002.707      3.831   1.920  1.45081E+00  9.78429E-01  4.72383E-01
    9003.298      4.422   1.960  1.65714E+00  9.84987E-01  6.72153E-01
    9003.901      5.026   2.000  1.84783E+00  9.90984E-01  8.56844E-01
    9004.517      5.642   2.040  1.99819E+00  9.96407E-01  1.00178E+00
    9005.145      6.269   2.080  2.05265E+00  1.00127E+00  1.05138E+00
    9005.785      6.910   2.120  1.99893E+00  1.00561E+00  9.93322E-01
    9006.437      7.562   2.160  1.89157E+00  1.00945E+00  8.82119E-01
    9007.102      8.226   2.200  1.75105E+00  1.01280E+00  7.38244E-01
    9007.779      8.903   2.240  1.56624E+00  1.01570E+00  5.50542E-01
    9008.467      9.592   2.280  1.37365E+00  1.01817E+00  3.55478E-01
    9009.168     10.293   2.320  1.21788E+00  1.02020E+00  1.97675E-01
    9009.882     11.006   2.360  1.09884E+00  1.02186E+00  7.69845E-02
    9010.607     11.731   2.400  1.00528E+00  1.02317E+00 -1.78886E-02
    9011.345     12.469   2.440  9.36839E-01  1.02414E+00 -8.73020E-02
    9012.094     13.219   2.480  8.94184E-01  1.02478E+00 -1.30591E-01
    9012.856     13.981   2.520  8.68272E-01  1.02516E+00 -1.56889E-01
    9013.631     14.755   2.560  8.54206E-01  1.02525E+00 -1.71044E-01
    9014.417     15.541   2.600  8.72925E-01  1.02512E+00 -1.52190E-01
    9015.216     16.340   2.640  9.25484E-01  1.02477E+00 -9.92843E-02
    9016.026     17.151   2.680  9.82910E-01  1.02422E+00 -4.13119E-02
    9016.849     17.974   2.720  1.02796E+00  1.02350E+00  4.45695E-03
    9017.684     18.809   2.760  1.05435E+00  1.02263E+00  3.17203E-02
    9018.532     19.656   2.800  1.06313E+00  1.02164E+00  4.14922E-02
    9019.391     20.516   2.840  1.05843E+00  1.02051E+00  3.79121E-02
    9020.263     21.387   2.880  1.04545E+00  1.01929E+00  2.61562E-02
    9021.147     22.271   2.920  1.02790E+00  1.01799E+00  9.90869E-03
    9022.043     23.167   2.960  1.00790E+00  1.01661E+00 -8.71551E-03
    9022.951     24.076   3.000  9.86391E-01  1.01521E+00 -2.88207E-02
    9023.872     24.996   3.040  9.63390E-01  1.01375E+00 -5.03571E-02
    9024.805     25.929   3.080  9.39639E-01  1.01227E+00 -7.26312E-02
    9025.749     26.874   3.120  9.16601E-01  1.01079E+00 -9.41843E-02
    9026.707     27.831   3.160  8.95405E-01  1.00930E+00 -1.13894E-01
    9027.676     28.800   3.200  8.76475E-01  1.00782E+00 -1.31340E-01
    9028.657     29.782   3.240  8.59884E-01  1.00634E+00 -1.46455E-01
    9029.651     30.775   3.280  8.45792E-01  1.00490E+00 -1.59103E-01
    9030.657     31.781   3.320  8.34987E-01  1.00349E+00 -1.68502E-01
    9031.675     32.799   3.360  8.28545E-01  1.00212E+00 -1.73579E-01
    9032.705     33.829   3.400  8.26842E-01  1.00082E+00 -1.73983E-01
    9033.747     34.872   3.440  8.29445E-01  9.99550E-01 -1.70105E-01
    9034.802     35.926   3.480  8.35520E-01  9.98367E-01 -1.62847E-01
    9035.869     36.993   3.520  8.43843E-01  9.97235E-01 -1.53392E-01
    9036.948     38.072   3.560  8.53229E-01  9.96158E-01 -1.42929E-01
    9038.039     39.163   3.600  8.63222E-01  9.95176E-01 -1.31955E-01
    9039.142     40.267   3.640  8.73798E-01  9.94252E-01 -1.20454E-01
    9040.258     41.382   3.680  8.85229E-01  9.93405E-01 -1.08176E-01
    9041.386     42.510   3.720  8.97819E-01  9.92638E-01 -9.48196E-02
    9042.526     43.650   3.760  9.11910E-01  9.91955E-01 -8.00449E-02
    9043.678     44.802   3.800  9.27776E-01  9.91373E-01 -6.35973E-02
    9044.842     45.966   3.840  9.45625E-01  9.90850E-01 -4.52250E-02
    9046.019     47.143   3.880  9.65813E-01  9.90410E-01 -2.45976E-02
    9047.207     48.332   3.920  9.88460E-01  9.90073E-01 -1.61315E-03
    9048.408     49.533   3.960  1.01308E+00  9.89796E-01  2.32850E-02
    9049.621     50.746   4.000  1.03861E+00  9.89620E-01  4.89908E-02
    9050.847     51.971   4.040  1.06352E+00  9.89503E-01  7.40123E-02
    9052.084     53.208   4.080  1.08635E+00  9.89466E-01  9.68844E-02
    9053.334     54.458   4.120  1.10613E+00  9.89530E-01  1.16602E-01
    9054.596     55.720   4.160  1.12241E+00  9.89652E-01  1.32756E-01
    9055.870     56.994   4.200  1.13493E+00  9.89850E-01  1.45085E-01
    9057.156     58.280   4.240  1.14307E+00  9.90122E-01  1.52952E-01
    9058.454     59.579   4.280  1.14564E+00  9.90448E-01  1.55196E-01
    9059.765     60.889   4.320  1.14133E+00  9.90847E-01  1.50480E-01
    9061.088     62.212   4.360  1.12958E+00  9.91319E-01  1.38266E-01
    9062.423     63.547   4.400  1.11141E+00  9.91837E-01  1.19576E-01
    9063.770     64.894   4.440  1.08928E+00  9.92400E-01  9.68824E-02
    9065.129     66.254   4.480  1.06619E+00  9.93007E-01  7.31876E-02
    9066.501     67.625   4.520  1.04482E+00  9.93678E-01  5.11468E-02
    9067.885     69.009   4.560  1.02678E+00  9.94369E-01  3.24113E-02
    9069.281     70.405   4.600  1.01256E+00  9.95119E-01  1.74393E-02
    9070.689     71.813   4.640  1.00164E+00  9.95886E-01  5.75156E-03
    9072.109     73.234   4.680  9.93161E-01  9.96686E-01 -3.52519E-03
    9073.542     74.666   4.720  9.86405E-01  9.97520E-01 -1.11158E-02
    9074.987     76.111   4.760  9.81105E-01  9.98364E-01 -1.72598E-02
    9076.444     77.568   4.800  9.77415E-01  9.99236E-01 -2.18210E-02
    9077.913     79.037   4.840  9.75520E-01  1.00011E+00 -2.45891E-02
    9079.394     80.518   4.880  9.75468E-01  1.00096E+00 -2.54939E-02
    9080.888     82.012   4.920  9.77156E-01  1.00184E+00 -2.46803E-02
    9082.393     83.518   4.960  9.80235E-01  1.00271E+00 -2.24755E-02
    9083.911     85.036   5.000  9.84395E-01  1.00358E+00 -1.91856E-02
    9085.441     86.566   5.040  9.89425E-01  1.00442E+00 -1.49949E-02
    9086.983     88.108   5.080  9.95128E-01  1.00525E+00 -1.01221E-02
    9088.538     89.662   5.120  1.00099E+00  1.00605E+00 -5.06258E-03
    9090.105     91.229   5.160  1.00625E+00  1.00683E+00 -5.84869E-04
    9091.683     92.808   5.200  1.01019E+00  1.00759E+00  2.60894E-03
    9093.275     94.399   5.240  1.01253E+00  1.00830E+00  4.23732E-03
    9094.878     96.002   5.280  1.01355E+00  1.00897E+00  4.57840E-03
    9096.493     97.618   5.320  1.01387E+00  1.00960E+00  4.27374E-03
    9098.121     99.245   5.360  1.01426E+00  1.01021E+00  4.04879E-03
    9099.761    100.885   5.400  1.01507E+00  1.01075E+00  4.31761E-03
    9101.413    102.537   5.440  1.01614E+00  1.01123E+00  4.91021E-03
    9103.077    104.201   5.480  1.01684E+00  1.01168E+00  5.15628E-03
    9104.753    105.878   5.520  1.01647E+00  1.01206E+00  4.40236E-03
    9106.442    107.566   5.560  1.01478E+00  1.01240E+00  2.38279E-03
    9108.143    109.267   5.600  1.01190E+00  1.01266E+00 -7.58857E-04
    9109.856    110.980   5.640  1.00804E+00  1.01287E+00 -4.83167E-03
    9111.581    112.705   5.680  1.00310E+00  1.01302E+00 -9.91637E-03
    9113.318    114.443   5.720  9.96824E-01  1.01311E+00 -1.62853E-02
    9115.068    116.192   5.760  9.89214E-01  1.01315E+00 -2.39407E-02
    9116.829    117.954   5.800  9.80567E-01  1.01313E+00 -3.25592E-02
    9118.603    119.728   5.840  9.71215E-01  1.01303E+00 -4.18103E-02
    9120.389    121.514   5.880  9.61306E-01  1.01287E+00 -5.15684E-02
    9122.188    123.312   5.920  9.51162E-01  1.01265E+00 -6.14903E-02
    9123.998    125.123   5.960  9.41865E-01  1.01237E+00 -7.05094E-02
    9125.821    126.945   6.000  9.35198E-01  1.01197E+00 -7.67769E-02
