# # comment:                                                     FEFF 9.9.1  
# # Source:
# # Structure
# # Reduced
# # space
# # abc:
# # angles:
# # sites:
# # POT  SCF 100  7.0000   0, screened core-hole, AFOLP (folp(0)= 1.150)
# # Abs   Z=29 Rmt= 1.157 Rnm= 1.247 K  shell
# # Pot 1 Z= 3 Rmt= 1.250 Rnm= 1.295
# # Pot 2 Z=27 Rmt= 1.293 Rnm= 1.382
# # Pot 3 Z=29 Rmt= 1.150 Rnm= 1.245
# # Pot 4 Z= 8 Rmt= 1.038 Rnm= 1.099
# # Gam_ch=1.729E+00 H-L exch Vi= 0.000E+00 Vr= 0.000E+00
# # Mu=-1.030E+01eV kf=2.121E+00 Vint=-1.812E+01eV Rs_int= 1.710
# FMS rfms= 9.0000
# # PATH  Rmax=-1.000,  Keep_limit= 0.00, Heap_limit 0.00  Pwcrit= 2.50%
#  S02=0.950  Temp=   0.00  Debye_temp=   0.00  Global_sig2= 0.00000
#  Energy zero shift, vr, vi    0.00000E+00   0.00000E+00
#  Curved wave amplitude ratio filter   4.000%
#     file         sig2 tot  cw amp ratio   deg  nlegs   reff  inp sig2
#     0/   0 paths used
#  xsedge+ 50, used to normalize mu           2.4493E-04
#  -----------------------------------------------------------------------
#  omega    e    k    mu    mu0     chi     @#
    8985.083    -14.106  -1.000  3.05442E-02  5.47913E-02 -2.42471E-02
    8985.382    -13.808  -0.960  3.17904E-02  5.87381E-02 -2.69477E-02
    8985.668    -13.521  -0.920  3.31105E-02  6.31183E-02 -3.00078E-02
    8985.942    -13.247  -0.880  3.45137E-02  6.79949E-02 -3.34812E-02
    8986.204    -12.985  -0.840  3.60111E-02  7.34412E-02 -3.74302E-02
    8986.454    -12.735  -0.800  3.76160E-02  7.95421E-02 -4.19260E-02
    8986.692    -12.497  -0.760  3.93448E-02  8.63948E-02 -4.70500E-02
    8986.918    -12.271  -0.720  4.12162E-02  9.41090E-02 -5.28928E-02
    8987.131    -12.058  -0.680  4.32523E-02  1.02806E-01 -5.95533E-02
    8987.332    -11.857  -0.640  4.54765E-02  1.12611E-01 -6.71350E-02
    8987.521    -11.668  -0.600  4.79129E-02  1.23652E-01 -7.57387E-02
    8987.698    -11.491  -0.560  5.05813E-02  1.36032E-01 -8.54506E-02
    8987.863    -11.327  -0.520  5.34924E-02  1.49815E-01 -9.63227E-02
    8988.015    -11.174  -0.480  5.66380E-02  1.64986E-01 -1.08348E-01
    8988.155    -11.034  -0.440  5.99824E-02  1.81411E-01 -1.21428E-01
    8988.283    -10.906  -0.400  6.34542E-02  1.98807E-01 -1.35353E-01
    8988.399    -10.790  -0.360  6.69464E-02  2.16729E-01 -1.49782E-01
    8988.503    -10.686  -0.320  7.03277E-02  2.34598E-01 -1.64270E-01
    8988.594    -10.595  -0.280  7.34646E-02  2.51771E-01 -1.78306E-01
    8988.673    -10.516  -0.240  7.62461E-02  2.67629E-01 -1.91383E-01
    8988.740    -10.449  -0.200  7.86005E-02  2.81650E-01 -2.03050E-01
    8988.795    -10.394  -0.160  8.04984E-02  2.93452E-01 -2.12954E-01
    8988.838    -10.351  -0.120  8.19435E-02  3.02788E-01 -2.20845E-01
    8988.868    -10.321  -0.080  8.29569E-02  3.09518E-01 -2.26561E-01
    8988.893    -10.296   0.000  8.37679E-02  3.14927E-01 -2.31159E-01
    8988.948    -10.241   0.120  8.55630E-02  3.27132E-01 -2.41569E-01
    8988.990    -10.199   0.160  8.68147E-02  3.36620E-01 -2.49806E-01
    8989.045    -10.144   0.200  8.82837E-02  3.48745E-01 -2.60461E-01
    8989.112    -10.077   0.240  8.98640E-02  3.63374E-01 -2.73511E-01
    8989.192     -9.998   0.280  9.14338E-02  3.80216E-01 -2.88782E-01
    8989.283     -9.906   0.320  9.28394E-02  3.98844E-01 -3.06005E-01
    8989.387     -9.803   0.360  9.39985E-02  4.18756E-01 -3.24757E-01
    8989.502     -9.687   0.400  9.49344E-02  4.39433E-01 -3.44498E-01
    8989.630     -9.559   0.440  9.56650E-02  4.60321E-01 -3.64656E-01
    8989.771     -9.418   0.480  9.63767E-02  4.81079E-01 -3.84702E-01
    8989.923     -9.266   0.520  9.72365E-02  5.01423E-01 -4.04186E-01
    8990.088     -9.101   0.560  9.83964E-02  5.21239E-01 -4.22842E-01
    8990.264     -8.925   0.600  9.99169E-02  5.40494E-01 -4.40577E-01
    8990.453     -8.736   0.640  1.01795E-01  5.59240E-01 -4.57445E-01
    8990.655     -8.535   0.680  1.03965E-01  5.77501E-01 -4.73537E-01
    8990.868     -8.321   0.720  1.06522E-01  5.95396E-01 -4.88874E-01
    8991.093     -8.096   0.760  1.09738E-01  6.13000E-01 -5.03262E-01
    8991.331     -7.858   0.800  1.13944E-01  6.30337E-01 -5.16392E-01
    8991.581     -7.608   0.840  1.19567E-01  6.47501E-01 -5.27933E-01
    8991.843     -7.346   0.880  1.27019E-01  6.64511E-01 -5.37491E-01
    8992.118     -7.072   0.920  1.36767E-01  6.81371E-01 -5.44604E-01
    8992.404     -6.785   0.960  1.49657E-01  6.98117E-01 -5.48460E-01
    8992.703     -6.486   1.000  1.66825E-01  7.14710E-01 -5.47885E-01
    8993.014     -6.175   1.040  1.90075E-01  7.31167E-01 -5.41092E-01
    8993.337     -5.852   1.080  2.21745E-01  7.47453E-01 -5.25708E-01
    8993.672     -5.517   1.120  2.64347E-01  7.63550E-01 -4.99203E-01
    8994.020     -5.170   1.160  3.19122E-01  7.79395E-01 -4.60273E-01
    8994.379     -4.810   1.200  3.83212E-01  7.95001E-01 -4.11789E-01
    8994.751     -4.438   1.240  4.45270E-01  8.10299E-01 -3.65029E-01
    8995.135     -4.054   1.280  4.93224E-01  8.25277E-01 -3.32053E-01
    8995.531     -3.658   1.320  5.30537E-01  8.39862E-01 -3.09325E-01
    8995.940     -3.249   1.360  5.68012E-01  8.54061E-01 -2.86049E-01
    8996.360     -2.829   1.400  6.05090E-01  8.67802E-01 -2.62712E-01
    8996.793     -2.396   1.440  6.32860E-01  8.81051E-01 -2.48191E-01
    8997.238     -1.951   1.480  6.55848E-01  8.93818E-01 -2.37970E-01
    8997.695     -1.494   1.520  6.97847E-01  9.06030E-01 -2.08184E-01
    8998.165     -1.024   1.560  7.73836E-01  9.17700E-01 -1.43863E-01
    8998.646     -0.543   1.600  8.57517E-01  9.28800E-01 -7.12825E-02
    8999.140     -0.049   1.640  8.99049E-01  9.39304E-01 -4.02553E-02
    8999.646      0.457   1.680  8.97178E-01  9.49209E-01 -5.20305E-02
    9000.164      0.975   1.720  9.06131E-01  9.58490E-01 -5.23590E-02
    9000.695      1.506   1.760  9.78110E-01  9.67187E-01  1.09228E-02
    9001.237      2.048   1.800  1.11120E+00  9.75243E-01  1.35961E-01
    9001.792      2.603   1.840  1.27039E+00  9.82701E-01  2.87691E-01
    9002.359      3.170   1.880  1.42794E+00  9.89564E-01  4.38375E-01
    9002.938      3.749   1.920  1.57287E+00  9.95838E-01  5.77029E-01
    9003.529      4.340   1.960  1.68352E+00  1.00153E+00  6.81986E-01
    9004.133      4.944   2.000  1.73368E+00  1.00665E+00  7.27028E-01
    9004.748      5.559   2.040  1.72485E+00  1.01125E+00  7.13598E-01
    9005.376      6.187   2.080  1.67597E+00  1.01529E+00  6.60675E-01
    9006.016      6.827   2.120  1.58823E+00  1.01886E+00  5.69377E-01
    9006.669      7.480   2.160  1.45932E+00  1.02193E+00  4.37390E-01
    9007.333      8.144   2.200  1.31873E+00  1.02454E+00  2.94183E-01
    9008.010      8.821   2.240  1.19721E+00  1.02671E+00  1.70500E-01
    9008.699      9.510   2.280  1.09799E+00  1.02849E+00  6.95021E-02
    9009.400     10.211   2.320  1.01752E+00  1.02989E+00 -1.23663E-02
    9010.113     10.924   2.360  9.57771E-01  1.03090E+00 -7.31319E-02
    9010.838     11.649   2.400  9.22517E-01  1.03160E+00 -1.09087E-01
    9011.576     12.387   2.440  9.10978E-01  1.03201E+00 -1.21029E-01
    9012.326     13.137   2.480  9.17224E-01  1.03210E+00 -1.14876E-01
    9013.088     13.899   2.520  9.41422E-01  1.03194E+00 -9.05183E-02
    9013.862     14.673   2.560  9.90022E-01  1.03156E+00 -4.15355E-02
    9014.648     15.459   2.600  1.04358E+00  1.03097E+00  1.26129E-02
    9015.447     16.258   2.640  1.09317E+00  1.03017E+00  6.29966E-02
    9016.258     17.069   2.680  1.13017E+00  1.02919E+00  1.00978E-01
    9017.081     17.891   2.720  1.14817E+00  1.02809E+00  1.20075E-01
    9017.916     18.727   2.760  1.14603E+00  1.02685E+00  1.19180E-01
    9018.763     19.574   2.800  1.12769E+00  1.02550E+00  1.02188E-01
    9019.623     20.434   2.840  1.09971E+00  1.02405E+00  7.56593E-02
    9020.494     21.305   2.880  1.06915E+00  1.02251E+00  4.66425E-02
    9021.378     22.189   2.920  1.03952E+00  1.02092E+00  1.85995E-02
    9022.274     23.085   2.960  1.01275E+00  1.01928E+00 -6.53521E-03
    9023.183     23.994   3.000  9.89060E-01  1.01761E+00 -2.85514E-02
    9024.103     24.914   3.040  9.67603E-01  1.01593E+00 -4.83251E-02
    9025.036     25.847   3.080  9.47658E-01  1.01424E+00 -6.65800E-02
    9025.981     26.792   3.120  9.29351E-01  1.01253E+00 -8.31758E-02
    9026.938     27.749   3.160  9.13454E-01  1.01084E+00 -9.73886E-02
    9027.907     28.718   3.200  9.00876E-01  1.00919E+00 -1.08313E-01
    9028.889     29.699   3.240  8.92072E-01  1.00755E+00 -1.15477E-01
    9029.882     30.693   3.280  8.86545E-01  1.00597E+00 -1.19424E-01
    9030.888     31.699   3.320  8.83253E-01  1.00441E+00 -1.21157E-01
    9031.906     32.717   3.360  8.81331E-01  1.00292E+00 -1.21588E-01
    9032.936     33.747   3.400  8.80432E-01  1.00150E+00 -1.21066E-01
    9033.979     34.790   3.440  8.80526E-01  1.00013E+00 -1.19600E-01
    9035.033     35.844   3.480  8.82143E-01  9.98807E-01 -1.16664E-01
    9036.100     36.911   3.520  8.85767E-01  9.97586E-01 -1.11819E-01
    9037.179     37.990   3.560  8.91213E-01  9.96422E-01 -1.05210E-01
    9038.270     39.081   3.600  8.98037E-01  9.95360E-01 -9.73227E-02
    9039.374     40.184   3.640  9.05746E-01  9.94357E-01 -8.86110E-02
    9040.489     41.300   3.680  9.14179E-01  9.93456E-01 -7.92770E-02
    9041.617     42.428   3.720  9.23298E-01  9.92616E-01 -6.93181E-02
    9042.757     43.568   3.760  9.33428E-01  9.91881E-01 -5.84532E-02
    9043.909     44.720   3.800  9.44759E-01  9.91229E-01 -4.64703E-02
    9045.073     45.884   3.840  9.57235E-01  9.90662E-01 -3.34269E-02
    9046.250     47.061   3.880  9.70474E-01  9.90177E-01 -1.97033E-02
    9047.439     48.249   3.920  9.84026E-01  9.89797E-01 -5.77170E-03
    9048.639     49.450   3.960  9.97396E-01  9.89480E-01  7.91556E-03
    9049.853     50.663   4.000  1.01022E+00  9.89265E-01  2.09583E-02
    9051.078     51.889   4.040  1.02201E+00  9.89109E-01  3.28979E-02
    9052.315     53.126   4.080  1.03216E+00  9.89058E-01  4.31047E-02
    9053.565     54.376   4.120  1.03990E+00  9.89086E-01  5.08121E-02
    9054.827     55.638   4.160  1.04456E+00  9.89172E-01  5.53867E-02
    9056.101     56.912   4.200  1.04589E+00  9.89356E-01  5.65319E-02
    9057.387     58.198   4.240  1.04405E+00  9.89596E-01  5.44512E-02
    9058.686     59.497   4.280  1.03968E+00  9.89908E-01  4.97732E-02
    9059.996     60.807   4.320  1.03355E+00  9.90272E-01  4.32794E-02
    9061.319     62.130   4.360  1.02648E+00  9.90707E-01  3.57713E-02
    9062.654     63.465   4.400  1.01930E+00  9.91190E-01  2.81048E-02
    9064.001     64.812   4.440  1.01303E+00  9.91742E-01  2.12830E-02
    9065.361     66.172   4.480  1.00856E+00  9.92339E-01  1.62221E-02
    9066.732     67.543   4.520  1.00641E+00  9.92979E-01  1.34360E-02
    9068.116     68.927   4.560  1.00653E+00  9.93659E-01  1.28678E-02
    9069.512     70.323   4.600  1.00853E+00  9.94378E-01  1.41470E-02
    9070.920     71.731   4.640  1.01214E+00  9.95135E-01  1.70065E-02
    9072.341     73.151   4.680  1.01754E+00  9.95927E-01  2.16154E-02
    9073.773     74.584   4.720  1.02511E+00  9.96730E-01  2.83811E-02
    9075.218     76.029   4.760  1.03494E+00  9.97561E-01  3.73752E-02
    9076.675     77.486   4.800  1.04628E+00  9.98397E-01  4.78804E-02
    9078.144     78.955   4.840  1.05752E+00  9.99237E-01  5.82868E-02
    9079.625     80.436   4.880  1.06656E+00  1.00008E+00  6.64792E-02
    9081.119     81.930   4.920  1.07171E+00  1.00094E+00  7.07696E-02
    9082.625     83.435   4.960  1.07233E+00  1.00178E+00  7.05495E-02
    9084.142     84.953   5.000  1.06900E+00  1.00262E+00  6.63810E-02
    9085.673     86.483   5.040  1.06302E+00  1.00345E+00  5.95771E-02
    9087.215     88.026   5.080  1.05564E+00  1.00424E+00  5.13957E-02
    9088.769     89.580   5.120  1.04753E+00  1.00503E+00  4.25052E-02
    9090.336     91.147   5.160  1.03870E+00  1.00578E+00  3.29149E-02
    9091.915     92.726   5.200  1.02889E+00  1.00652E+00  2.23715E-02
    9093.506     94.317   5.240  1.01809E+00  1.00720E+00  1.08903E-02
    9095.109     95.920   5.280  1.00680E+00  1.00786E+00 -1.06105E-03
    9096.725     97.535   5.320  9.95882E-01  1.00848E+00 -1.25985E-02
    9098.352     99.163   5.360  9.86490E-01  1.00904E+00 -2.25449E-02
    9099.992    100.803   5.400  9.79911E-01  1.00957E+00 -2.96575E-02
    9101.644    102.455   5.440  9.77014E-01  1.01003E+00 -3.30205E-02
    9103.308    104.119   5.480  9.77943E-01  1.01045E+00 -3.25114E-02
    9104.985    105.795   5.520  9.81767E-01  1.01083E+00 -2.90591E-02
    9106.673    107.484   5.560  9.86759E-01  1.01113E+00 -2.43693E-02
    9108.374    109.185   5.600  9.91159E-01  1.01138E+00 -2.02225E-02
    9110.087    110.898   5.640  9.93724E-01  1.01156E+00 -1.78388E-02
    9111.812    112.623   5.680  9.94139E-01  1.01170E+00 -1.75570E-02
    9113.549    114.360   5.720  9.92561E-01  1.01178E+00 -1.92213E-02
    9115.299    116.110   5.760  9.88889E-01  1.01179E+00 -2.29059E-02
    9117.061    117.872   5.800  9.82568E-01  1.01173E+00 -2.91666E-02
    9118.835    119.645   5.840  9.73344E-01  1.01163E+00 -3.82826E-02
    9120.621    121.432   5.880  9.62060E-01  1.01147E+00 -4.94122E-02
    9122.419    123.230   5.920  9.50519E-01  1.01125E+00 -6.07272E-02
    9124.230    125.040   5.960  9.40766E-01  1.01094E+00 -7.01731E-02
    9126.052    126.863   6.000  9.34761E-01  1.01057E+00 -7.58075E-02
