# # comment:                                                     FEFF 9.9.1  
# # Source:
# # Structure
# # Reduced
# # space
# # abc:
# # angles:107.586138
# # sites:
# # POT  SCF 100  7.0000   0, screened core-hole, AFOLP (folp(0)= 1.150)
# # Abs   Z=29 Rmt= 1.243 Rnm= 1.323 K  shell
# # Pot 1 Z=56 Rmt= 1.929 Rnm= 1.992
# # Pot 2 Z=38 Rmt= 1.834 Rnm= 1.902
# # Pot 3 Z=29 Rmt= 1.232 Rnm= 1.317
# # Pot 4 Z= 8 Rmt= 1.087 Rnm= 1.135
# # Gam_ch=1.729E+00 H-L exch Vi= 0.000E+00 Vr= 0.000E+00
# # Mu=-1.047E+01eV kf=1.895E+00 Vint=-1.745E+01eV Rs_int= 1.914
# FMS rfms= 9.0000
# # PATH  Rmax=-1.000,  Keep_limit= 0.00, Heap_limit 0.00  Pwcrit= 2.50%
#  S02=0.950  Temp=   0.00  Debye_temp=   0.00  Global_sig2= 0.00000
#  Energy zero shift, vr, vi    0.00000E+00   0.00000E+00
#  Curved wave amplitude ratio filter   4.000%
#     file         sig2 tot  cw amp ratio   deg  nlegs   reff  inp sig2
#     0/   0 paths used
#  xsedge+ 50, used to normalize mu           2.4508E-04
#  -----------------------------------------------------------------------
#  omega    e    k    mu    mu0     chi     @#
    8985.339    -14.284  -1.000  3.35594E-02  5.12811E-02 -1.77217E-02
    8985.637    -13.986  -0.960  3.51199E-02  5.48909E-02 -1.97710E-02
    8985.924    -13.699  -0.920  3.67879E-02  5.88899E-02 -2.21020E-02
    8986.198    -13.425  -0.880  3.85760E-02  6.33340E-02 -2.47580E-02
    8986.460    -13.163  -0.840  4.04989E-02  6.82882E-02 -2.77893E-02
    8986.710    -12.913  -0.800  4.25738E-02  7.38277E-02 -3.12539E-02
    8986.948    -12.675  -0.760  4.48206E-02  8.00385E-02 -3.52179E-02
    8987.174    -12.450  -0.720  4.72619E-02  8.70175E-02 -3.97556E-02
    8987.387    -12.236  -0.680  4.99226E-02  9.48713E-02 -4.49487E-02
    8987.588    -12.035  -0.640  5.28291E-02  1.03712E-01 -5.08828E-02
    8987.777    -11.846  -0.600  5.60074E-02  1.13649E-01 -5.76414E-02
    8987.954    -11.669  -0.560  5.94795E-02  1.24775E-01 -6.52958E-02
    8988.118    -11.505  -0.520  6.32580E-02  1.37145E-01 -7.38875E-02
    8988.271    -11.352  -0.480  6.73385E-02  1.50745E-01 -8.34062E-02
    8988.411    -11.212  -0.440  7.16911E-02  1.65454E-01 -9.37633E-02
    8988.539    -11.084  -0.400  7.62525E-02  1.81022E-01 -1.04770E-01
    8988.655    -10.968  -0.360  8.09228E-02  1.97054E-01 -1.16131E-01
    8988.758    -10.865  -0.320  8.55701E-02  2.13035E-01 -1.27465E-01
    8988.850    -10.773  -0.280  9.00440E-02  2.28395E-01 -1.38351E-01
    8988.929    -10.694  -0.240  9.41947E-02  2.42582E-01 -1.48387E-01
    8988.996    -10.627  -0.200  9.78897E-02  2.55133E-01 -1.57243E-01
    8989.051    -10.572  -0.160  1.01025E-01  2.65702E-01 -1.64677E-01
    8989.094    -10.529  -0.120  1.03528E-01  2.74068E-01 -1.70539E-01
    8989.124    -10.499  -0.080  1.05353E-01  2.80101E-01 -1.74747E-01
    8989.149    -10.474   0.000  1.06858E-01  2.84952E-01 -1.78095E-01
    8989.203    -10.420   0.120  1.10212E-01  2.95901E-01 -1.85689E-01
    8989.246    -10.377   0.160  1.12803E-01  3.04446E-01 -1.91643E-01
    8989.301    -10.322   0.200  1.16056E-01  3.15344E-01 -1.99288E-01
    8989.368    -10.255   0.240  1.19969E-01  3.28530E-01 -2.08561E-01
    8989.447    -10.176   0.280  1.24379E-01  3.43713E-01 -2.19334E-01
    8989.539    -10.084   0.320  1.29117E-01  3.60567E-01 -2.31451E-01
    8989.642     -9.981   0.360  1.33913E-01  3.78682E-01 -2.44769E-01
    8989.758     -9.865   0.400  1.38344E-01  3.97530E-01 -2.59186E-01
    8989.886     -9.737   0.440  1.42058E-01  4.16728E-01 -2.74670E-01
    8990.026     -9.597   0.480  1.44739E-01  4.35906E-01 -2.91166E-01
    8990.179     -9.444   0.520  1.46404E-01  4.54873E-01 -3.08469E-01
    8990.343     -9.280   0.560  1.47328E-01  4.73490E-01 -3.26162E-01
    8990.520     -9.103   0.600  1.47972E-01  4.91726E-01 -3.43754E-01
    8990.709     -8.914   0.640  1.48807E-01  5.09644E-01 -3.60838E-01
    8990.910     -8.713   0.680  1.50120E-01  5.27257E-01 -3.77137E-01
    8991.124     -8.499   0.720  1.52372E-01  5.44666E-01 -3.92294E-01
    8991.349     -8.274   0.760  1.56202E-01  5.61912E-01 -4.05710E-01
    8991.587     -8.036   0.800  1.62492E-01  5.79045E-01 -4.16552E-01
    8991.837     -7.786   0.840  1.72234E-01  5.96104E-01 -4.23870E-01
    8992.099     -7.524   0.880  1.86557E-01  6.13117E-01 -4.26561E-01
    8992.373     -7.250   0.920  2.06701E-01  6.30078E-01 -4.23378E-01
    8992.660     -6.963   0.960  2.34049E-01  6.46992E-01 -4.12942E-01
    8992.959     -6.664   1.000  2.69486E-01  6.63833E-01 -3.94347E-01
    8993.269     -6.354   1.040  3.12546E-01  6.80609E-01 -3.68063E-01
    8993.593     -6.030   1.080  3.60625E-01  6.97261E-01 -3.36636E-01
    8993.928     -5.695   1.120  4.10154E-01  7.13785E-01 -3.03631E-01
    8994.275     -5.348   1.160  4.58933E-01  7.30112E-01 -2.71179E-01
    8994.635     -4.988   1.200  5.04931E-01  7.46210E-01 -2.41279E-01
    8995.007     -4.616   1.240  5.42142E-01  7.62067E-01 -2.19925E-01
    8995.391     -4.232   1.280  5.65277E-01  7.77586E-01 -2.12309E-01
    8995.787     -3.836   1.320  5.78960E-01  7.92772E-01 -2.13812E-01
    8996.196     -3.427   1.360  5.94695E-01  8.07592E-01 -2.12897E-01
    8996.616     -3.007   1.400  6.23869E-01  8.21947E-01 -1.98078E-01
    8997.049     -2.574   1.440  6.75838E-01  8.35865E-01 -1.60027E-01
    8997.494     -2.129   1.480  7.48088E-01  8.49290E-01 -1.01202E-01
    8997.951     -1.672   1.520  8.15136E-01  8.62192E-01 -4.70559E-02
    8998.421     -1.202   1.560  8.60177E-01  8.74541E-01 -1.43639E-02
    8998.902     -0.721   1.600  9.15365E-01  8.86327E-01  2.90374E-02
    8999.396     -0.227   1.640  1.01681E+00  8.97524E-01  1.19281E-01
    8999.902      0.279   1.680  1.14131E+00  9.08149E-01  2.33158E-01
    9000.420      0.797   1.720  1.20962E+00  9.18155E-01  2.91463E-01
    9000.950      1.327   1.760  1.20845E+00  9.27566E-01  2.80882E-01
    9001.493      1.870   1.800  1.23258E+00  9.36361E-01  2.96220E-01
    9002.048      2.425   1.840  1.32829E+00  9.44563E-01  3.83722E-01
    9002.615      2.992   1.880  1.47165E+00  9.52177E-01  5.19476E-01
    9003.194      3.571   1.920  1.58710E+00  9.59210E-01  6.27891E-01
    9003.785      4.162   1.960  1.57432E+00  9.65688E-01  6.08632E-01
    9004.389      4.766   2.000  1.43730E+00  9.71598E-01  4.65704E-01
    9005.004      5.381   2.040  1.27541E+00  9.76971E-01  2.98440E-01
    9005.632      6.009   2.080  1.14648E+00  9.81818E-01  1.64662E-01
    9006.272      6.649   2.120  1.05775E+00  9.86190E-01  7.15573E-02
    9006.924      7.301   2.160  1.00199E+00  9.90098E-01  1.18914E-02
    9007.589      7.966   2.200  9.75190E-01  9.93535E-01 -1.83455E-02
    9008.266      8.643   2.240  9.68299E-01  9.96576E-01 -2.82763E-02
    9008.954      9.331   2.280  9.57866E-01  9.99210E-01 -4.13440E-02
    9009.655     10.032   2.320  9.42472E-01  1.00147E+00 -5.89990E-02
    9010.369     10.746   2.360  9.38873E-01  1.00337E+00 -6.44986E-02
    9011.094     11.471   2.400  9.45575E-01  1.00497E+00 -5.93909E-02
    9011.832     12.209   2.440  9.59005E-01  1.00625E+00 -4.72405E-02
    9012.582     12.959   2.480  9.78351E-01  1.00726E+00 -2.89107E-02
    9013.344     13.721   2.520  1.00234E+00  1.00803E+00 -5.69047E-03
    9014.118     14.495   2.560  1.02775E+00  1.00856E+00  1.91894E-02
    9014.904     15.281   2.600  1.05030E+00  1.00888E+00  4.14222E-02
    9015.703     16.080   2.640  1.06612E+00  1.00902E+00  5.70917E-02
    9016.513     16.890   2.680  1.07295E+00  1.00900E+00  6.39468E-02
    9017.336     17.713   2.720  1.07075E+00  1.00883E+00  6.19265E-02
    9018.172     18.549   2.760  1.06135E+00  1.00854E+00  5.28077E-02
    9019.019     19.396   2.800  1.04644E+00  1.00812E+00  3.83159E-02
    9019.878     20.255   2.840  1.02764E+00  1.00761E+00  2.00326E-02
    9020.750     21.127   2.880  1.00637E+00  1.00703E+00 -6.59675E-04
    9021.634     22.011   2.920  9.83667E-01  1.00636E+00 -2.26939E-02
    9022.530     22.907   2.960  9.60826E-01  1.00566E+00 -4.48377E-02
    9023.438     23.815   3.000  9.39058E-01  1.00492E+00 -6.58669E-02
    9024.359     24.736   3.040  9.19403E-01  1.00415E+00 -8.47457E-02
    9025.292     25.669   3.080  9.02787E-01  1.00334E+00 -1.00555E-01
    9026.237     26.613   3.120  8.89815E-01  1.00255E+00 -1.12737E-01
    9027.194     27.571   3.160  8.80617E-01  1.00174E+00 -1.21124E-01
    9028.163     28.540   3.200  8.75175E-01  1.00095E+00 -1.25777E-01
    9029.144     29.521   3.240  8.73297E-01  1.00017E+00 -1.26873E-01
    9030.138     30.515   3.280  8.74425E-01  9.99422E-01 -1.24997E-01
    9031.144     31.521   3.320  8.78095E-01  9.98708E-01 -1.20614E-01
    9032.162     32.539   3.360  8.84041E-01  9.98009E-01 -1.13968E-01
    9033.192     33.569   3.400  8.92265E-01  9.97371E-01 -1.05105E-01
    9034.234     34.611   3.440  9.02555E-01  9.96773E-01 -9.42179E-02
    9035.289     35.666   3.480  9.14719E-01  9.96195E-01 -8.14761E-02
    9036.356     36.733   3.520  9.28575E-01  9.95684E-01 -6.71087E-02
    9037.435     37.812   3.560  9.43666E-01  9.95239E-01 -5.15736E-02
    9038.526     38.903   3.600  9.59287E-01  9.94821E-01 -3.55341E-02
    9039.629     40.006   3.640  9.74780E-01  9.94490E-01 -1.97099E-02
    9040.745     41.122   3.680  9.89232E-01  9.94185E-01 -4.95273E-03
    9041.873     42.250   3.720  1.00193E+00  9.93949E-01  7.98110E-03
    9043.013     43.390   3.760  1.01229E+00  9.93760E-01  1.85287E-02
    9044.165     44.542   3.800  1.01999E+00  9.93641E-01  2.63499E-02
    9045.329     45.706   3.840  1.02507E+00  9.93569E-01  3.14985E-02
    9046.506     46.883   3.880  1.02811E+00  9.93564E-01  3.45497E-02
    9047.694     48.071   3.920  1.03003E+00  9.93585E-01  3.64464E-02
    9048.895     49.272   3.960  1.03164E+00  9.93693E-01  3.79442E-02
    9050.108     50.485   4.000  1.03316E+00  9.93825E-01  3.93385E-02
    9051.334     51.711   4.040  1.03453E+00  9.94021E-01  4.05109E-02
    9052.571     52.948   4.080  1.03553E+00  9.94238E-01  4.12961E-02
    9053.821     54.198   4.120  1.03628E+00  9.94517E-01  4.17655E-02
    9055.083     55.460   4.160  1.03728E+00  9.94837E-01  4.24390E-02
    9056.357     56.734   4.200  1.03907E+00  9.95196E-01  4.38739E-02
    9057.643     58.020   4.240  1.04175E+00  9.95570E-01  4.61809E-02
    9058.941     59.318   4.280  1.04494E+00  9.96001E-01  4.89387E-02
    9060.252     60.629   4.320  1.04787E+00  9.96446E-01  5.14267E-02
    9061.575     61.952   4.360  1.04991E+00  9.96922E-01  5.29856E-02
    9062.910     63.287   4.400  1.05089E+00  9.97409E-01  5.34769E-02
    9064.257     64.634   4.440  1.05135E+00  9.97924E-01  5.34245E-02
    9065.617     65.993   4.480  1.05214E+00  9.98447E-01  5.36925E-02
    9066.988     67.365   4.520  1.05392E+00  9.98995E-01  5.49227E-02
    9068.372     68.749   4.560  1.05667E+00  9.99525E-01  5.71423E-02
    9069.768     70.145   4.600  1.05958E+00  1.00008E+00  5.94980E-02
    9071.176     71.553   4.640  1.06113E+00  1.00063E+00  6.04937E-02
    9072.596     72.973   4.680  1.05970E+00  1.00118E+00  5.85177E-02
    9074.029     74.406   4.720  1.05418E+00  1.00173E+00  5.24463E-02
    9075.474     75.851   4.760  1.04443E+00  1.00225E+00  4.21821E-02
    9076.931     77.308   4.800  1.03149E+00  1.00277E+00  2.87228E-02
    9078.400     78.777   4.840  1.01706E+00  1.00327E+00  1.37865E-02
    9079.881     80.258   4.880  1.00309E+00  1.00377E+00 -6.82015E-04
    9081.375     81.752   4.920  9.91221E-01  1.00422E+00 -1.29960E-02
    9082.880     83.257   4.960  9.82588E-01  1.00467E+00 -2.20853E-02
    9084.398     84.775   5.000  9.77484E-01  1.00510E+00 -2.76109E-02
    9085.928     86.305   5.040  9.75431E-01  1.00548E+00 -3.00485E-02
    9087.471     87.848   5.080  9.75431E-01  1.00582E+00 -3.03929E-02
    9089.025     89.402   5.120  9.76324E-01  1.00613E+00 -2.98092E-02
    9090.592     90.969   5.160  9.77085E-01  1.00643E+00 -2.93423E-02
    9092.171     92.548   5.200  9.76791E-01  1.00668E+00 -2.98933E-02
    9093.762     94.139   5.240  9.74722E-01  1.00690E+00 -3.21782E-02
    9095.365     95.742   5.280  9.70568E-01  1.00708E+00 -3.65082E-02
    9096.980     97.357   5.320  9.64681E-01  1.00721E+00 -4.25305E-02
    9098.608     98.985   5.360  9.58017E-01  1.00731E+00 -4.92897E-02
    9100.248    100.625   5.400  9.51670E-01  1.00736E+00 -5.56890E-02
    9101.900    102.277   5.440  9.46510E-01  1.00737E+00 -6.08635E-02
    9103.564    103.941   5.480  9.43068E-01  1.00737E+00 -6.43024E-02
    9105.240    105.617   5.520  9.41598E-01  1.00730E+00 -6.57054E-02
    9106.929    107.306   5.560  9.42315E-01  1.00720E+00 -6.48810E-02
    9108.630    109.007   5.600  9.45389E-01  1.00707E+00 -6.16818E-02
    9110.343    110.720   5.640  9.50789E-01  1.00688E+00 -5.60929E-02
    9112.068    112.445   5.680  9.57941E-01  1.00665E+00 -4.87108E-02
    9113.805    114.182   5.720  9.66364E-01  1.00641E+00 -4.00433E-02
    9115.555    115.932   5.760  9.75171E-01  1.00610E+00 -3.09327E-02
    9117.316    117.693   5.800  9.83673E-01  1.00579E+00 -2.21132E-02
    9119.090    119.467   5.840  9.91566E-01  1.00543E+00 -1.38687E-02
    9120.877    121.254   5.880  9.99207E-01  1.00507E+00 -5.86689E-03
    9122.675    123.052   5.920  1.00726E+00  1.00466E+00  2.60306E-03
    9124.485    124.862   5.960  1.01612E+00  1.00424E+00  1.18834E-02
    9126.308    126.685   6.000  1.02585E+00  1.00376E+00  2.20903E-02
