# # comment:                                                     FEFF 9.9.1  
# # Source:
# # Structure
# # Reduced
# # space
# # abc:
# # angles:
# # sites:
# # POT  SCF 100  7.0000   0, screened core-hole, AFOLP (folp(0)= 1.150)
# # Abs   Z=29 Rmt= 1.285 Rnm= 1.372 K  shell
# # Pot 1 Z=29 Rmt= 1.276 Rnm= 1.343
# # Pot 2 Z=42 Rmt= 1.184 Rnm= 1.356
# # Pot 3 Z=16 Rmt= 0.895 Rnm= 1.104
# # Pot 4 Z= 8 Rmt= 0.857 Rnm= 1.011
# # Gam_ch=1.729E+00 H-L exch Vi= 0.000E+00 Vr= 0.000E+00
# # Mu=-5.024E+00eV kf=2.549E+00 Vint=-1.733E+01eV Rs_int= 1.423
# FMS rfms= 9.0000
# # PATH  Rmax=-1.000,  Keep_limit= 0.00, Heap_limit 0.00  Pwcrit= 2.50%
#  S02=0.950  Temp=   0.00  Debye_temp=   0.00  Global_sig2= 0.00000
#  Energy zero shift, vr, vi    0.00000E+00   0.00000E+00
#  Curved wave amplitude ratio filter   4.000%
#     file         sig2 tot  cw amp ratio   deg  nlegs   reff  inp sig2
#     0/   0 paths used
#  xsedge+ 50, used to normalize mu           2.4900E-04
#  -----------------------------------------------------------------------
#  omega    e    k    mu    mu0     chi     @#
    8983.306     -8.834  -1.000  5.18547E-02  5.51447E-02 -3.28996E-03
    8983.605     -8.536  -0.960  5.53839E-02  5.92337E-02 -3.84984E-03
    8983.891     -8.249  -0.920  5.92808E-02  6.37878E-02 -4.50691E-03
    8984.165     -7.975  -0.880  6.35979E-02  6.88763E-02 -5.27837E-03
    8984.428     -7.713  -0.840  6.83961E-02  7.45806E-02 -6.18446E-03
    8984.678     -7.463  -0.800  7.37461E-02  8.09949E-02 -7.24884E-03
    8984.915     -7.225  -0.760  7.97288E-02  8.82277E-02 -8.49890E-03
    8985.141     -7.000  -0.720  8.64357E-02  9.64016E-02 -9.96589E-03
    8985.354     -6.786  -0.680  9.39674E-02  1.05652E-01 -1.16845E-02
    8985.555     -6.585  -0.640  1.02430E-01  1.16122E-01 -1.36919E-02
    8985.744     -6.396  -0.600  1.11928E-01  1.27953E-01 -1.60250E-02
    8985.921     -6.219  -0.560  1.22549E-01  1.41265E-01 -1.87162E-02
    8986.086     -6.055  -0.520  1.34346E-01  1.56132E-01 -2.17861E-02
    8986.238     -5.902  -0.480  1.47305E-01  1.72539E-01 -2.52340E-02
    8986.378     -5.762  -0.440  1.61315E-01  1.90342E-01 -2.90266E-02
    8986.506     -5.634  -0.400  1.76138E-01  2.09226E-01 -3.30888E-02
    8986.622     -5.518  -0.360  1.91398E-01  2.28699E-01 -3.73012E-02
    8986.726     -5.415  -0.320  2.06609E-01  2.48119E-01 -4.15101E-02
    8986.817     -5.323  -0.280  2.21227E-01  2.66775E-01 -4.55477E-02
    8986.896     -5.244  -0.240  2.34727E-01  2.83984E-01 -4.92573E-02
    8986.964     -5.177  -0.200  2.46666E-01  2.99179E-01 -5.25134E-02
    8987.018     -5.122  -0.160  2.56719E-01  3.11949E-01 -5.52300E-02
    8987.061     -5.079  -0.120  2.64675E-01  3.22033E-01 -5.73572E-02
    8987.092     -5.049  -0.080  2.70418E-01  3.29291E-01 -5.88734E-02
    8987.116     -5.024   0.000  2.75044E-01  3.35119E-01 -6.00749E-02
    8987.171     -4.970   0.120  2.85260E-01  3.48237E-01 -6.29769E-02
    8987.213     -4.927   0.160  2.93248E-01  3.58429E-01 -6.51809E-02
    8987.268     -4.872   0.200  3.03446E-01  3.71404E-01 -6.79580E-02
    8987.335     -4.805   0.240  3.15764E-01  3.86982E-01 -7.12181E-02
    8987.415     -4.726   0.280  3.29970E-01  4.04801E-01 -7.48309E-02
    8987.506     -4.634   0.320  3.45761E-01  4.24366E-01 -7.86045E-02
    8987.610     -4.531   0.360  3.62772E-01  4.45068E-01 -8.22966E-02
    8987.726     -4.415   0.400  3.80587E-01  4.66243E-01 -8.56556E-02
    8987.854     -4.287   0.440  3.98852E-01  4.87322E-01 -8.84695E-02
    8987.994     -4.147   0.480  4.17165E-01  5.07854E-01 -9.06891E-02
    8988.146     -3.994   0.520  4.35052E-01  5.27513E-01 -9.24612E-02
    8988.311     -3.830   0.560  4.51987E-01  5.46167E-01 -9.41795E-02
    8988.488     -3.653   0.600  4.67420E-01  5.63826E-01 -9.64058E-02
    8988.676     -3.464   0.640  4.80782E-01  5.80541E-01 -9.97597E-02
    8988.878     -3.263   0.680  4.91608E-01  5.96383E-01 -1.04775E-01
    8989.091     -3.049   0.720  5.00153E-01  6.11519E-01 -1.11366E-01
    8989.317     -2.824   0.760  5.07787E-01  6.26017E-01 -1.18230E-01
    8989.554     -2.586   0.800  5.17128E-01  6.40015E-01 -1.22887E-01
    8989.804     -2.336   0.840  5.31000E-01  6.53617E-01 -1.22617E-01
    8990.066     -2.074   0.880  5.51368E-01  6.66873E-01 -1.15505E-01
    8990.341     -1.800   0.920  5.78772E-01  6.79857E-01 -1.01085E-01
    8990.627     -1.513   0.960  6.11516E-01  6.92632E-01 -8.11153E-02
    8990.926     -1.214   1.000  6.45306E-01  7.05206E-01 -5.98996E-02
    8991.237     -0.904   1.040  6.74529E-01  7.17620E-01 -4.30908E-02
    8991.560     -0.580   1.080  6.95286E-01  7.29886E-01 -3.46000E-02
    8991.895     -0.245   1.120  7.08999E-01  7.42028E-01 -3.30290E-02
    8992.243      0.102   1.160  7.23371E-01  7.54044E-01 -3.06735E-02
    8992.602      0.462   1.200  7.49113E-01  7.65947E-01 -1.68341E-02
    8992.974      0.834   1.240  7.92901E-01  7.77685E-01  1.52162E-02
    8993.358      1.218   1.280  8.51318E-01  7.89306E-01  6.20122E-02
    8993.754      1.614   1.320  9.10253E-01  8.00750E-01  1.09504E-01
    8994.163      2.023   1.360  9.51275E-01  8.12039E-01  1.39236E-01
    8994.583      2.443   1.400  9.67536E-01  8.23151E-01  1.44385E-01
    8995.016      2.876   1.440  9.72840E-01  8.34043E-01  1.38796E-01
    8995.461      3.321   1.480  9.85762E-01  8.44734E-01  1.41028E-01
    8995.919      3.778   1.520  1.01288E+00  8.55196E-01  1.57680E-01
    8996.388      4.248   1.560  1.04633E+00  8.65405E-01  1.80925E-01
    8996.869      4.729   1.600  1.07254E+00  8.75337E-01  1.97200E-01
    8997.363      5.223   1.640  1.09185E+00  8.85006E-01  2.06848E-01
    8997.869      5.729   1.680  1.12065E+00  8.94365E-01  2.26283E-01
    8998.387      6.247   1.720  1.16206E+00  9.03411E-01  2.58645E-01
    8998.918      6.777   1.760  1.19610E+00  9.12137E-01  2.83963E-01
    8999.460      7.320   1.800  1.20789E+00  9.20521E-01  2.87368E-01
    9000.015      7.875   1.840  1.20987E+00  9.28558E-01  2.81310E-01
    9000.582      8.442   1.880  1.21710E+00  9.36244E-01  2.80857E-01
    9001.161      9.021   1.920  1.21889E+00  9.43577E-01  2.75314E-01
    9001.752      9.612   1.960  1.19803E+00  9.50514E-01  2.47519E-01
    9002.356     10.216   2.000  1.15443E+00  9.57094E-01  1.97338E-01
    9002.972     10.831   2.040  1.09884E+00  9.63277E-01  1.35565E-01
    9003.599     11.459   2.080  1.04428E+00  9.69103E-01  7.51769E-02
    9004.240     12.099   2.120  9.99052E-01  9.74531E-01  2.45208E-02
    9004.892     12.751   2.160  9.63716E-01  9.79605E-01 -1.58887E-02
    9005.556     13.416   2.200  9.35346E-01  9.84286E-01 -4.89400E-02
    9006.233     14.093   2.240  9.16036E-01  9.88615E-01 -7.25797E-02
    9006.922     14.781   2.280  9.10163E-01  9.92557E-01 -8.23949E-02
    9007.623     15.482   2.320  9.16181E-01  9.96156E-01 -7.99749E-02
    9008.336     16.196   2.360  9.31033E-01  9.99417E-01 -6.83838E-02
    9009.061     16.921   2.400  9.55610E-01  1.00232E+00 -4.67133E-02
    9009.799     17.659   2.440  9.88104E-01  1.00490E+00 -1.67967E-02
    9010.549     18.409   2.480  1.02128E+00  1.00718E+00  1.41045E-02
    9011.311     19.171   2.520  1.04958E+00  1.00913E+00  4.04435E-02
    9012.085     19.945   2.560  1.06801E+00  1.01080E+00  5.72086E-02
    9012.871     20.731   2.600  1.07175E+00  1.01218E+00  5.95700E-02
    9013.670     21.530   2.640  1.06525E+00  1.01331E+00  5.19423E-02
    9014.481     22.340   2.680  1.05415E+00  1.01416E+00  3.99835E-02
    9015.304     23.163   2.720  1.03532E+00  1.01478E+00  2.05419E-02
    9016.139     23.999   2.760  1.00476E+00  1.01517E+00 -1.04103E-02
    9016.986     24.846   2.800  9.66657E-01  1.01536E+00 -4.87022E-02
    9017.846     25.705   2.840  9.33152E-01  1.01535E+00 -8.21945E-02
    9018.717     26.577   2.880  9.12952E-01  1.01514E+00 -1.02186E-01
    9019.601     27.461   2.920  9.05757E-01  1.01478E+00 -1.09028E-01
    9020.497     28.357   2.960  9.10428E-01  1.01425E+00 -1.03824E-01
    9021.406     29.265   3.000  9.20150E-01  1.01361E+00 -9.34566E-02
    9022.326     30.186   3.040  9.31865E-01  1.01281E+00 -8.09496E-02
    9023.259     31.119   3.080  9.43931E-01  1.01190E+00 -6.79702E-02
    9024.204     32.063   3.120  9.55908E-01  1.01090E+00 -5.49874E-02
    9025.161     33.021   3.160  9.67788E-01  1.00978E+00 -4.19957E-02
    9026.130     33.990   3.200  9.79128E-01  1.00861E+00 -2.94823E-02
    9027.112     34.971   3.240  9.88866E-01  1.00736E+00 -1.84967E-02
    9028.105     35.965   3.280  9.96066E-01  1.00607E+00 -1.00007E-02
    9029.111     36.971   3.320  1.00018E+00  1.00473E+00 -4.55224E-03
    9030.129     37.989   3.360  1.00136E+00  1.00335E+00 -1.99262E-03
    9031.159     39.019   3.400  1.00027E+00  1.00194E+00 -1.66504E-03
    9032.202     40.061   3.440  9.97799E-01  1.00051E+00 -2.71409E-03
    9033.256     41.116   3.480  9.94874E-01  9.99088E-01 -4.21352E-03
    9034.323     42.183   3.520  9.92372E-01  9.97663E-01 -5.29086E-03
    9035.402     43.262   3.560  9.90983E-01  9.96263E-01 -5.28023E-03
    9036.493     44.353   3.600  9.91079E-01  9.94870E-01 -3.79017E-03
    9037.597     45.456   3.640  9.92691E-01  9.93486E-01 -7.94298E-04
    9038.712     46.572   3.680  9.95460E-01  9.92136E-01  3.32396E-03
    9039.840     47.700   3.720  9.98615E-01  9.90844E-01  7.77028E-03
    9040.980     48.840   3.760  1.00118E+00  9.89571E-01  1.16131E-02
    9042.132     49.992   3.800  1.00240E+00  9.88340E-01  1.40619E-02
    9043.296     51.156   3.840  1.00188E+00  9.87173E-01  1.47115E-02
    9044.473     52.333   3.880  9.99713E-01  9.86051E-01  1.36625E-02
    9045.662     53.521   3.920  9.96414E-01  9.84978E-01  1.14362E-02
    9046.863     54.722   3.960  9.92686E-01  9.83996E-01  8.69011E-03
    9048.076     55.935   4.000  9.89020E-01  9.83044E-01  5.97626E-03
    9049.301     57.161   4.040  9.85822E-01  9.82186E-01  3.63613E-03
    9050.538     58.398   4.080  9.83192E-01  9.81378E-01  1.81394E-03
    9051.788     59.648   4.120  9.81140E-01  9.80622E-01  5.17778E-04
    9053.050     60.910   4.160  9.79579E-01  9.79962E-01 -3.83439E-04
    9054.324     62.184   4.200  9.78283E-01  9.79357E-01 -1.07352E-03
    9055.610     63.470   4.240  9.77153E-01  9.78826E-01 -1.67291E-03
    9056.909     64.768   4.280  9.76198E-01  9.78372E-01 -2.17437E-03
    9058.219     66.079   4.320  9.75520E-01  9.77994E-01 -2.47414E-03
    9059.542     67.402   4.360  9.75224E-01  9.77670E-01 -2.44588E-03
    9060.877     68.737   4.400  9.75487E-01  9.77441E-01 -1.95342E-03
    9062.224     70.084   4.440  9.76441E-01  9.77264E-01 -8.22967E-04
    9063.584     71.443   4.480  9.78287E-01  9.77138E-01  1.14883E-03
    9064.955     72.815   4.520  9.81185E-01  9.77083E-01  4.10236E-03
    9066.339     74.199   4.560  9.85077E-01  9.77100E-01  7.97653E-03
    9067.735     75.595   4.600  9.89623E-01  9.77167E-01  1.24554E-02
    9069.143     77.003   4.640  9.94355E-01  9.77304E-01  1.70518E-02
    9070.564     78.423   4.680  9.98786E-01  9.77489E-01  2.12973E-02
    9071.996     79.856   4.720  1.00266E+00  9.77740E-01  2.49156E-02
    9073.441     81.301   4.760  1.00582E+00  9.78034E-01  2.77828E-02
    9074.898     82.758   4.800  1.00815E+00  9.78348E-01  2.98048E-02
    9076.367     84.227   4.840  1.00951E+00  9.78724E-01  3.07841E-02
    9077.848     85.708   4.880  1.00953E+00  9.79140E-01  3.03853E-02
    9079.342     87.202   4.920  1.00791E+00  9.79595E-01  2.83121E-02
    9080.848     88.707   4.960  1.00470E+00  9.80085E-01  2.46178E-02
    9082.366     90.225   5.000  1.00036E+00  9.80587E-01  1.97739E-02
    9083.896     91.755   5.040  9.95597E-01  9.81119E-01  1.44774E-02
    9085.438     93.298   5.080  9.90946E-01  9.81660E-01  9.28584E-03
    9086.992     94.852   5.120  9.86633E-01  9.82229E-01  4.40465E-03
    9088.559     96.419   5.160  9.82566E-01  9.82801E-01 -2.35429E-04
    9090.138     97.998   5.200  9.78677E-01  9.83377E-01 -4.69946E-03
    9091.729     99.589   5.240  9.75107E-01  9.83952E-01 -8.84534E-03
    9093.332    101.192   5.280  9.72172E-01  9.84526E-01 -1.23544E-02
    9094.948    102.807   5.320  9.70177E-01  9.85097E-01 -1.49200E-02
    9096.575    104.435   5.360  9.69235E-01  9.85664E-01 -1.64285E-02
    9098.215    106.075   5.400  9.69213E-01  9.86202E-01 -1.69892E-02
    9099.867    107.727   5.440  9.69863E-01  9.86731E-01 -1.68685E-02
    9101.531    109.391   5.480  9.70867E-01  9.87250E-01 -1.63838E-02
    9103.208    111.067   5.520  9.71887E-01  9.87714E-01 -1.58266E-02
    9104.896    112.756   5.560  9.72736E-01  9.88164E-01 -1.54278E-02
    9106.597    114.457   5.600  9.73183E-01  9.88600E-01 -1.54163E-02
    9108.310    116.170   5.640  9.72980E-01  9.88975E-01 -1.59955E-02
    9110.035    117.895   5.680  9.72091E-01  9.89311E-01 -1.72197E-02
    9111.773    119.632   5.720  9.70759E-01  9.89630E-01 -1.88712E-02
    9113.522    121.382   5.760  9.69431E-01  9.89886E-01 -2.04549E-02
    9115.284    123.143   5.800  9.68764E-01  9.90122E-01 -2.13577E-02
    9117.058    124.917   5.840  9.69210E-01  9.90291E-01 -2.10805E-02
    9118.844    126.703   5.880  9.70994E-01  9.90392E-01 -1.93974E-02
    9120.642    128.502   5.920  9.74074E-01  9.90470E-01 -1.63963E-02
    9122.453    130.312   5.960  9.78055E-01  9.90473E-01 -1.24188E-02
    9124.275    132.135   6.000  9.82540E-01  9.90430E-01 -7.89023E-03
