# # comment:                                                     FEFF 9.9.1  
# # Source:
# # Structure
# # Reduced
# # space
# # abc:
# # angles:
# # sites:
# # POT  SCF 100  7.0000   0, screened core-hole, AFOLP (folp(0)= 1.150)
# # Abs   Z=29 Rmt= 1.264 Rnm= 1.351 K  shell
# # Pot 1 Z=29 Rmt= 1.278 Rnm= 1.358
# # Pot 2 Z=33 Rmt= 1.081 Rnm= 1.287
# # Pot 3 Z= 1 Rmt= 0.892 Rnm= 0.961
# # Pot 4 Z= 8 Rmt= 0.951 Rnm= 1.075
# # Gam_ch=1.729E+00 H-L exch Vi= 0.000E+00 Vr= 0.000E+00
# # Mu=-5.575E+00eV kf=2.242E+00 Vint=-1.463E+01eV Rs_int= 1.618
# FMS rfms= 9.0000
# # PATH  Rmax=-1.000,  Keep_limit= 0.00, Heap_limit 0.00  Pwcrit= 2.50%
#  S02=0.950  Temp=   0.00  Debye_temp=   0.00  Global_sig2= 0.00000
#  Energy zero shift, vr, vi    0.00000E+00   0.00000E+00
#  Curved wave amplitude ratio filter   4.000%
#     file         sig2 tot  cw amp ratio   deg  nlegs   reff  inp sig2
#     0/   0 paths used
#  xsedge+ 50, used to normalize mu           2.4446E-04
#  -----------------------------------------------------------------------
#  omega    e    k    mu    mu0     chi     @#
    8983.322     -9.385  -1.000  4.61689E-02  5.80504E-02 -1.18815E-02
    8983.621     -9.086  -0.960  4.89372E-02  6.23897E-02 -1.34525E-02
    8983.907     -8.800  -0.920  5.19386E-02  6.72211E-02 -1.52825E-02
    8984.182     -8.525  -0.880  5.51976E-02  7.26178E-02 -1.74202E-02
    8984.444     -8.263  -0.840  5.87406E-02  7.86650E-02 -1.99244E-02
    8984.694     -8.013  -0.800  6.25964E-02  8.54616E-02 -2.28651E-02
    8984.932     -7.776  -0.760  6.67959E-02  9.31210E-02 -2.63250E-02
    8985.157     -7.550  -0.720  7.13713E-02  1.01771E-01 -3.04002E-02
    8985.371     -7.337  -0.680  7.63551E-02  1.11555E-01 -3.51995E-02
    8985.572     -7.135  -0.640  8.17780E-02  1.22620E-01 -4.08416E-02
    8985.761     -6.946  -0.600  8.76663E-02  1.35114E-01 -4.74472E-02
    8985.937     -6.770  -0.560  9.40366E-02  1.49162E-01 -5.51253E-02
    8986.102     -6.605  -0.520  1.00890E-01  1.64840E-01 -6.39503E-02
    8986.254     -6.453  -0.480  1.08202E-01  1.82133E-01 -7.39302E-02
    8986.395     -6.312  -0.440  1.15917E-01  2.00887E-01 -8.49702E-02
    8986.523     -6.184  -0.400  1.23935E-01  2.20776E-01 -9.68414E-02
    8986.638     -6.069  -0.360  1.32109E-01  2.41282E-01 -1.09173E-01
    8986.742     -5.965  -0.320  1.40251E-01  2.61734E-01 -1.21484E-01
    8986.834     -5.874  -0.280  1.48140E-01  2.81388E-01 -1.33248E-01
    8986.913     -5.794  -0.240  1.55544E-01  2.99526E-01 -1.43983E-01
    8986.980     -5.727  -0.200  1.62236E-01  3.15552E-01 -1.53316E-01
    8987.035     -5.672  -0.160  1.68013E-01  3.29028E-01 -1.61015E-01
    8987.077     -5.630  -0.120  1.72703E-01  3.39677E-01 -1.66974E-01
    8987.108     -5.599  -0.080  1.76173E-01  3.47346E-01 -1.71173E-01
    8987.132     -5.575   0.000  1.79068E-01  3.53504E-01 -1.74436E-01
    8987.187     -5.520   0.120  1.85615E-01  3.67395E-01 -1.81779E-01
    8987.230     -5.477   0.160  1.90778E-01  3.78179E-01 -1.87401E-01
    8987.285     -5.422   0.200  1.97585E-01  3.91938E-01 -1.94353E-01
    8987.352     -5.355   0.240  2.06168E-01  4.08476E-01 -2.02308E-01
    8987.431     -5.276   0.280  2.16705E-01  4.27433E-01 -2.10728E-01
    8987.522     -5.185   0.320  2.29414E-01  4.48331E-01 -2.18917E-01
    8987.626     -5.081   0.360  2.44534E-01  4.70514E-01 -2.25980E-01
    8987.742     -4.965   0.400  2.62432E-01  4.93327E-01 -2.30895E-01
    8987.870     -4.837   0.440  2.83562E-01  5.16170E-01 -2.32607E-01
    8988.010     -4.697   0.480  3.08517E-01  5.38560E-01 -2.30043E-01
    8988.162     -4.545   0.520  3.37912E-01  5.60181E-01 -2.22269E-01
    8988.327     -4.380   0.560  3.72242E-01  5.80895E-01 -2.08653E-01
    8988.504     -4.203   0.600  4.11373E-01  6.00665E-01 -1.89292E-01
    8988.693     -4.014   0.640  4.54217E-01  6.19512E-01 -1.65295E-01
    8988.894     -3.813   0.680  4.98778E-01  6.37542E-01 -1.38764E-01
    8989.107     -3.600   0.720  5.42561E-01  6.54853E-01 -1.12292E-01
    8989.333     -3.374   0.760  5.82920E-01  6.71547E-01 -8.86273E-02
    8989.571     -3.136   0.800  6.16259E-01  6.87709E-01 -7.14499E-02
    8989.821     -2.887   0.840  6.37009E-01  7.03394E-01 -6.63854E-02
    8990.083     -2.624   0.880  6.39789E-01  7.18682E-01 -7.88927E-02
    8990.357     -2.350   0.920  6.24344E-01  7.33594E-01 -1.09250E-01
    8990.644     -2.064   0.960  5.96584E-01  7.48162E-01 -1.51578E-01
    8990.942     -1.765   1.000  5.64879E-01  7.62424E-01 -1.97546E-01
    8991.253     -1.454   1.040  5.38143E-01  7.76350E-01 -2.38207E-01
    8991.576     -1.131   1.080  5.24913E-01  7.89939E-01 -2.65026E-01
    8991.911     -0.796   1.120  5.29905E-01  8.03207E-01 -2.73303E-01
    8992.259     -0.448   1.160  5.50129E-01  8.16145E-01 -2.66016E-01
    8992.619     -0.088   1.200  5.75836E-01  8.28716E-01 -2.52880E-01
    8992.990      0.283   1.240  6.00192E-01  8.40903E-01 -2.40711E-01
    8993.375      0.667   1.280  6.26903E-01  8.52708E-01 -2.25805E-01
    8993.771      1.064   1.320  6.64591E-01  8.64110E-01 -1.99519E-01
    8994.179      1.472   1.360  7.19721E-01  8.75065E-01 -1.55344E-01
    8994.600      1.893   1.400  7.94685E-01  8.85593E-01 -9.09079E-02
    8995.033      2.326   1.440  8.82468E-01  8.95649E-01 -1.31815E-02
    8995.478      2.771   1.480  9.64038E-01  9.05236E-01  5.88028E-02
    8995.935      3.228   1.520  1.01937E+00  9.14350E-01  1.05020E-01
    8996.404      3.697   1.560  1.05075E+00  9.22992E-01  1.27753E-01
    8996.886      4.179   1.600  1.08062E+00  9.31143E-01  1.49478E-01
    8997.380      4.672   1.640  1.12273E+00  9.38783E-01  1.83950E-01
    8997.886      5.178   1.680  1.16957E+00  9.45956E-01  2.23612E-01
    8998.404      5.697   1.720  1.20179E+00  9.52625E-01  2.49167E-01
    8998.934      6.227   1.760  1.20419E+00  9.58836E-01  2.45350E-01
    8999.477      6.769   1.800  1.18187E+00  9.64575E-01  2.17293E-01
    9000.031      7.324   1.840  1.15582E+00  9.69825E-01  1.85997E-01
    9000.598      7.891   1.880  1.13933E+00  9.74657E-01  1.64673E-01
    9001.177      8.470   1.920  1.13152E+00  9.79040E-01  1.52483E-01
    9001.769      9.062   1.960  1.13423E+00  9.83021E-01  1.51210E-01
    9002.372      9.665   2.000  1.15225E+00  9.86588E-01  1.65661E-01
    9002.988     10.281   2.040  1.18241E+00  9.89772E-01  1.92641E-01
    9003.616     10.909   2.080  1.21508E+00  9.92583E-01  2.22493E-01
    9004.256     11.549   2.120  1.24157E+00  9.95073E-01  2.46492E-01
    9004.908     12.201   2.160  1.26043E+00  9.97212E-01  2.63219E-01
    9005.573     12.865   2.200  1.27336E+00  9.99070E-01  2.74288E-01
    9006.249     13.542   2.240  1.27720E+00  1.00062E+00  2.76582E-01
    9006.938     14.231   2.280  1.26902E+00  1.00193E+00  2.67091E-01
    9007.639     14.932   2.320  1.24417E+00  1.00299E+00  2.41181E-01
    9008.352     15.645   2.360  1.20012E+00  1.00381E+00  1.96319E-01
    9009.078     16.371   2.400  1.14817E+00  1.00442E+00  1.43751E-01
    9009.815     17.108   2.440  1.09853E+00  1.00485E+00  9.36850E-02
    9010.565     17.858   2.480  1.05398E+00  1.00511E+00  4.88707E-02
    9011.327     18.620   2.520  1.01823E+00  1.00523E+00  1.29980E-02
    9012.101     19.394   2.560  9.95803E-01  1.00521E+00 -9.40311E-03
    9012.888     20.181   2.600  9.87568E-01  1.00505E+00 -1.74857E-02
    9013.686     20.979   2.640  9.87606E-01  1.00481E+00 -1.72004E-02
    9014.497     21.790   2.680  9.85445E-01  1.00447E+00 -1.90262E-02
    9015.320     22.613   2.720  9.79095E-01  1.00406E+00 -2.49615E-02
    9016.155     23.448   2.760  9.72047E-01  1.00359E+00 -3.15427E-02
    9017.003     24.295   2.800  9.65526E-01  1.00308E+00 -3.75515E-02
    9017.862     25.155   2.840  9.58427E-01  1.00252E+00 -4.40963E-02
    9018.734     26.027   2.880  9.49277E-01  1.00193E+00 -5.26538E-02
    9019.618     26.911   2.920  9.37474E-01  1.00133E+00 -6.38567E-02
    9020.514     27.807   2.960  9.23461E-01  1.00073E+00 -7.72645E-02
    9021.422     28.715   3.000  9.08248E-01  1.00012E+00 -9.18714E-02
    9022.343     29.635   3.040  8.93115E-01  9.99516E-01 -1.06401E-01
    9023.275     30.568   3.080  8.79566E-01  9.98938E-01 -1.19372E-01
    9024.220     31.513   3.120  8.68817E-01  9.98370E-01 -1.29553E-01
    9025.177     32.470   3.160  8.61303E-01  9.97836E-01 -1.36534E-01
    9026.146     33.439   3.200  8.57095E-01  9.97338E-01 -1.40243E-01
    9027.128     34.421   3.240  8.56067E-01  9.96876E-01 -1.40809E-01
    9028.122     35.414   3.280  8.57934E-01  9.96433E-01 -1.38499E-01
    9029.127     36.420   3.320  8.62529E-01  9.96054E-01 -1.33525E-01
    9030.145     37.438   3.360  8.69599E-01  9.95740E-01 -1.26141E-01
    9031.176     38.469   3.400  8.78679E-01  9.95449E-01 -1.16770E-01
    9032.218     39.511   3.440  8.89170E-01  9.95224E-01 -1.06054E-01
    9033.273     40.566   3.480  9.00603E-01  9.95045E-01 -9.44424E-02
    9034.339     41.632   3.520  9.12650E-01  9.94933E-01 -8.22829E-02
    9035.418     42.711   3.560  9.25066E-01  9.94868E-01 -6.98020E-02
    9036.510     43.803   3.600  9.37782E-01  9.94848E-01 -5.70662E-02
    9037.613     44.906   3.640  9.50783E-01  9.94875E-01 -4.40924E-02
    9038.729     46.021   3.680  9.64057E-01  9.94969E-01 -3.09117E-02
    9039.856     47.149   3.720  9.77439E-01  9.95131E-01 -1.76918E-02
    9040.996     48.289   3.760  9.90835E-01  9.95317E-01 -4.48239E-03
    9042.148     49.441   3.800  1.00424E+00  9.95568E-01  8.67332E-03
    9043.313     50.606   3.840  1.01759E+00  9.95863E-01  2.17280E-02
    9044.489     51.782   3.880  1.03091E+00  9.96202E-01  3.47066E-02
    9045.678     52.971   3.920  1.04424E+00  9.96604E-01  4.76330E-02
    9046.879     54.172   3.960  1.05730E+00  9.97024E-01  6.02775E-02
    9048.092     55.385   4.000  1.06964E+00  9.97483E-01  7.21560E-02
    9049.317     56.610   4.040  1.08062E+00  9.98001E-01  8.26178E-02
    9050.555     57.848   4.080  1.08947E+00  9.98533E-01  9.09336E-02
    9051.804     59.097   4.120  1.09557E+00  9.99078E-01  9.64927E-02
    9053.066     60.359   4.160  1.09884E+00  9.99677E-01  9.91586E-02
    9054.340     61.633   4.200  1.09932E+00  1.00029E+00  9.90357E-02
    9055.627     62.920   4.240  1.09727E+00  1.00090E+00  9.63673E-02
    9056.925     64.218   4.280  1.09305E+00  1.00155E+00  9.15030E-02
    9058.236     65.529   4.320  1.08713E+00  1.00220E+00  8.49277E-02
    9059.559     66.851   4.360  1.08013E+00  1.00287E+00  7.72581E-02
    9060.894     68.186   4.400  1.07273E+00  1.00353E+00  6.91988E-02
    9062.241     69.534   4.440  1.06559E+00  1.00418E+00  6.14155E-02
    9063.600     70.893   4.480  1.05906E+00  1.00485E+00  5.42089E-02
    9064.972     72.265   4.520  1.05303E+00  1.00550E+00  4.75280E-02
    9066.356     73.648   4.560  1.04714E+00  1.00614E+00  4.10003E-02
    9067.752     75.044   4.600  1.04088E+00  1.00677E+00  3.41043E-02
    9069.160     76.453   4.640  1.03384E+00  1.00738E+00  2.64581E-02
    9070.580     77.873   4.680  1.02593E+00  1.00797E+00  1.79543E-02
    9072.013     79.305   4.720  1.01721E+00  1.00853E+00  8.67849E-03
    9073.457     80.750   4.760  1.00791E+00  1.00908E+00 -1.16388E-03
    9074.914     82.207   4.800  9.98331E-01  1.00959E+00 -1.12584E-02
    9076.383     83.676   4.840  9.88931E-01  1.01006E+00 -2.11304E-02
    9077.865     85.158   4.880  9.80387E-01  1.01049E+00 -3.01069E-02
    9079.358     86.651   4.920  9.73431E-01  1.01089E+00 -3.74566E-02
    9080.864     88.157   4.960  9.68642E-01  1.01126E+00 -4.26215E-02
    9082.382     89.675   5.000  9.66148E-01  1.01158E+00 -4.54292E-02
    9083.912     91.205   5.040  9.65689E-01  1.01187E+00 -4.61817E-02
    9085.454     92.747   5.080  9.66549E-01  1.01210E+00 -4.55504E-02
    9087.009     94.302   5.120  9.67958E-01  1.01231E+00 -4.43501E-02
    9088.575     95.868   5.160  9.69202E-01  1.01245E+00 -4.32483E-02
    9090.154     97.447   5.200  9.70106E-01  1.01255E+00 -4.24423E-02
    9091.745     99.038   5.240  9.70969E-01  1.01260E+00 -4.16343E-02
    9093.349    100.641   5.280  9.72352E-01  1.01261E+00 -4.02626E-02
    9094.964    102.257   5.320  9.74710E-01  1.01258E+00 -3.78743E-02
    9096.592    103.884   5.360  9.78146E-01  1.01251E+00 -3.43640E-02
    9098.231    105.524   5.400  9.82363E-01  1.01239E+00 -3.00286E-02
    9099.883    107.176   5.440  9.86803E-01  1.01221E+00 -2.54061E-02
    9101.548    108.840   5.480  9.90984E-01  1.01201E+00 -2.10218E-02
    9103.224    110.517   5.520  9.94506E-01  1.01174E+00 -1.72311E-02
    9104.913    112.205   5.560  9.97235E-01  1.01145E+00 -1.42149E-02
    9106.613    113.906   5.600  9.99100E-01  1.01110E+00 -1.20004E-02
    9108.326    115.619   5.640  1.00019E+00  1.01073E+00 -1.05447E-02
    9110.051    117.344   5.680  1.00051E+00  1.01030E+00 -9.79681E-03
    9111.789    119.082   5.720  1.00013E+00  1.00986E+00 -9.72602E-03
    9113.538    120.831   5.760  9.99173E-01  1.00938E+00 -1.02104E-02
    9115.300    122.593   5.800  9.97969E-01  1.00889E+00 -1.09253E-02
    9117.074    124.367   5.840  9.96982E-01  1.00835E+00 -1.13676E-02
    9118.860    126.153   5.880  9.96737E-01  1.00780E+00 -1.10601E-02
    9120.658    127.951   5.920  9.97466E-01  1.00724E+00 -9.77622E-03
    9122.469    129.762   5.960  9.99076E-01  1.00664E+00 -7.56466E-03
    9124.292    131.585   6.000  1.00158E+00  1.00605E+00 -4.46968E-03
