# # comment:                                                     FEFF 9.9.1  
# # Source:
# # Structure
# # Reduced
# # space
# # abc:
# # angles:
# # sites:
# # POT  SCF 100  7.0000   0, screened core-hole, AFOLP (folp(0)= 1.150)
# # Abs   Z=29 Rmt= 1.254 Rnm= 1.348 K  shell
# # Pot 1 Z=29 Rmt= 1.241 Rnm= 1.340
# # Pot 2 Z=47 Rmt= 1.554 Rnm= 1.628
# # Pot 3 Z=15 Rmt= 0.921 Rnm= 1.159
# # Pot 4 Z= 8 Rmt= 0.999 Rnm= 1.099
# # Gam_ch=1.729E+00 H-L exch Vi= 0.000E+00 Vr= 0.000E+00
# # Mu=-6.893E+00eV kf=2.262E+00 Vint=-1.542E+01eV Rs_int= 1.603
# FMS rfms= 9.0000
# # PATH  Rmax=-1.000,  Keep_limit= 0.00, Heap_limit 0.00  Pwcrit= 2.50%
#  S02=0.950  Temp=   0.00  Debye_temp=   0.00  Global_sig2= 0.00000
#  Energy zero shift, vr, vi    0.00000E+00   0.00000E+00
#  Curved wave amplitude ratio filter   4.000%
#     file         sig2 tot  cw amp ratio   deg  nlegs   reff  inp sig2
#     0/   0 paths used
#  xsedge+ 50, used to normalize mu           2.4626E-04
#  -----------------------------------------------------------------------
#  omega    e    k    mu    mu0     chi     @#
    8983.371    -10.703  -1.000  3.73444E-02  5.23075E-02 -1.49631E-02
    8983.670    -10.405  -0.960  3.92539E-02  5.60649E-02 -1.68110E-02
    8983.956    -10.118  -0.920  4.13006E-02  6.02366E-02 -1.89360E-02
    8984.231     -9.844  -0.880  4.34982E-02  6.48832E-02 -2.13850E-02
    8984.493     -9.582  -0.840  4.58621E-02  7.00755E-02 -2.42134E-02
    8984.743     -9.332  -0.800  4.84095E-02  7.58952E-02 -2.74857E-02
    8984.981     -9.094  -0.760  5.11595E-02  8.24361E-02 -3.12766E-02
    8985.206     -8.869  -0.720  5.41328E-02  8.98040E-02 -3.56712E-02
    8985.419     -8.655  -0.680  5.73514E-02  9.81157E-02 -4.07643E-02
    8985.621     -8.454  -0.640  6.08372E-02  1.07494E-01 -4.66569E-02
    8985.810     -8.265  -0.600  6.46100E-02  1.18060E-01 -5.34499E-02
    8985.986     -8.088  -0.560  6.86840E-02  1.29916E-01 -6.12319E-02
    8986.151     -7.924  -0.520  7.30625E-02  1.43123E-01 -7.00606E-02
    8986.303     -7.771  -0.480  7.77304E-02  1.57667E-01 -7.99369E-02
    8986.444     -7.631  -0.440  8.26464E-02  1.73421E-01 -9.07745E-02
    8986.572     -7.503  -0.400  8.77358E-02  1.90111E-01 -1.02375E-01
    8986.687     -7.387  -0.360  9.28889E-02  2.07307E-01 -1.14418E-01
    8986.791     -7.284  -0.320  9.79675E-02  2.24453E-01 -1.26486E-01
    8986.883     -7.192  -0.280  1.02819E-01  2.40929E-01 -1.38110E-01
    8986.962     -7.113  -0.240  1.07295E-01  2.56138E-01 -1.48842E-01
    8987.029     -7.046  -0.200  1.11268E-01  2.69581E-01 -1.58313E-01
    8987.084     -6.991  -0.160  1.14636E-01  2.80892E-01 -1.66256E-01
    8987.126     -6.948  -0.120  1.17326E-01  2.89835E-01 -1.72509E-01
    8987.157     -6.918  -0.080  1.19290E-01  2.96279E-01 -1.76989E-01
    8987.181     -6.893   0.000  1.20905E-01  3.01458E-01 -1.80553E-01
    8987.236     -6.839   0.120  1.24535E-01  3.13146E-01 -1.88612E-01
    8987.279     -6.796   0.160  1.27330E-01  3.22217E-01 -1.94887E-01
    8987.334     -6.741   0.200  1.30950E-01  3.33811E-01 -2.02861E-01
    8987.401     -6.674   0.240  1.35405E-01  3.47775E-01 -2.12370E-01
    8987.480     -6.595   0.280  1.40680E-01  3.63817E-01 -2.23137E-01
    8987.571     -6.503   0.320  1.46803E-01  3.81558E-01 -2.34755E-01
    8987.675     -6.400   0.360  1.53785E-01  4.00461E-01 -2.46676E-01
    8987.791     -6.284   0.400  1.61678E-01  4.20017E-01 -2.58339E-01
    8987.919     -6.156   0.440  1.70585E-01  4.39722E-01 -2.69137E-01
    8988.059     -6.016   0.480  1.80655E-01  4.59203E-01 -2.78548E-01
    8988.211     -5.863   0.520  1.92007E-01  4.78222E-01 -2.86215E-01
    8988.376     -5.699   0.560  2.04725E-01  4.96627E-01 -2.91902E-01
    8988.553     -5.522   0.600  2.18951E-01  5.14410E-01 -2.95459E-01
    8988.742     -5.333   0.640  2.34926E-01  5.31623E-01 -2.96697E-01
    8988.943     -5.132   0.680  2.53136E-01  5.48332E-01 -2.95196E-01
    8989.156     -4.918   0.720  2.74254E-01  5.64636E-01 -2.90382E-01
    8989.382     -4.693   0.760  2.98448E-01  5.80574E-01 -2.82126E-01
    8989.620     -4.455   0.800  3.24698E-01  5.96255E-01 -2.71556E-01
    8989.870     -4.205   0.840  3.50387E-01  6.11734E-01 -2.61347E-01
    8990.132     -3.943   0.880  3.72560E-01  6.27035E-01 -2.54475E-01
    8990.406     -3.669   0.920  3.90188E-01  6.42210E-01 -2.52022E-01
    8990.693     -3.382   0.960  4.05346E-01  6.57278E-01 -2.51932E-01
    8990.991     -3.083   1.000  4.22591E-01  6.72228E-01 -2.49637E-01
    8991.302     -2.773   1.040  4.46632E-01  6.87060E-01 -2.40429E-01
    8991.625     -2.449   1.080  4.80030E-01  7.01789E-01 -2.21758E-01
    8991.960     -2.114   1.120  5.21758E-01  7.16402E-01 -1.94645E-01
    8992.308     -1.767   1.160  5.66413E-01  7.30843E-01 -1.64430E-01
    8992.668     -1.407   1.200  6.05909E-01  7.45131E-01 -1.39222E-01
    8993.039     -1.035   1.240  6.34416E-01  7.59202E-01 -1.24786E-01
    8993.424     -0.651   1.280  6.51885E-01  7.73069E-01 -1.21185E-01
    8993.820     -0.255   1.320  6.62550E-01  7.86665E-01 -1.24115E-01
    8994.228      0.154   1.360  6.73336E-01  7.99982E-01 -1.26646E-01
    8994.649      0.574   1.400  6.88989E-01  8.13010E-01 -1.24021E-01
    8995.082      1.007   1.440  7.08078E-01  8.25678E-01 -1.17600E-01
    8995.527      1.452   1.480  7.30683E-01  8.38000E-01 -1.07317E-01
    8995.984      1.909   1.520  7.64453E-01  8.49945E-01 -8.54921E-02
    8996.453      2.379   1.560  8.16783E-01  8.61483E-01 -4.46997E-02
    8996.935      2.860   1.600  8.84298E-01  8.72588E-01  1.17095E-02
    8997.429      3.354   1.640  9.54256E-01  8.83234E-01  7.10221E-02
    8997.935      3.860   1.680  1.01571E+00  8.93453E-01  1.22253E-01
    8998.453      4.378   1.720  1.06763E+00  9.03183E-01  1.64445E-01
    8998.983      4.908   1.760  1.11786E+00  9.12439E-01  2.05426E-01
    8999.526      5.451   1.800  1.16918E+00  9.21220E-01  2.47956E-01
    9000.080      6.006   1.840  1.21439E+00  9.29505E-01  2.84882E-01
    9000.647      6.573   1.880  1.24579E+00  9.37295E-01  3.08492E-01
    9001.226      7.152   1.920  1.26025E+00  9.44611E-01  3.15638E-01
    9001.818      7.743   1.960  1.25425E+00  9.51458E-01  3.02795E-01
    9002.421      8.347   2.000  1.23109E+00  9.57817E-01  2.73270E-01
    9003.037      8.962   2.040  1.20810E+00  9.63715E-01  2.44385E-01
    9003.665      9.590   2.080  1.19684E+00  9.69156E-01  2.27680E-01
    9004.305     10.230   2.120  1.19342E+00  9.74146E-01  2.19276E-01
    9004.957     10.882   2.160  1.18813E+00  9.78713E-01  2.09415E-01
    9005.622     11.547   2.200  1.17656E+00  9.82845E-01  1.93714E-01
    9006.298     12.224   2.240  1.16342E+00  9.86611E-01  1.76814E-01
    9006.987     12.912   2.280  1.15183E+00  9.89960E-01  1.61867E-01
    9007.688     13.613   2.320  1.13830E+00  9.92959E-01  1.45338E-01
    9008.401     14.327   2.360  1.11845E+00  9.95619E-01  1.22833E-01
    9009.127     15.052   2.400  1.09266E+00  9.97950E-01  9.47078E-02
    9009.864     15.790   2.440  1.06609E+00  9.99959E-01  6.61286E-02
    9010.614     16.539   2.480  1.04225E+00  1.00168E+00  4.05758E-02
    9011.376     17.301   2.520  1.02184E+00  1.00311E+00  1.87253E-02
    9012.150     18.076   2.560  1.00680E+00  1.00430E+00  2.50715E-03
    9012.937     18.862   2.600  1.00020E+00  1.00524E+00 -5.03371E-03
    9013.735     19.661   2.640  1.00183E+00  1.00599E+00 -4.15263E-03
    9014.546     20.471   2.680  1.00842E+00  1.00651E+00  1.90746E-03
    9015.369     21.294   2.720  1.01329E+00  1.00686E+00  6.43404E-03
    9016.204     22.130   2.760  1.01289E+00  1.00702E+00  5.87311E-03
    9017.052     22.977   2.800  1.00695E+00  1.00704E+00 -9.62832E-05
    9017.911     23.836   2.840  9.96385E-01  1.00694E+00 -1.05499E-02
    9018.783     24.708   2.880  9.82449E-01  1.00671E+00 -2.42564E-02
    9019.667     25.592   2.920  9.66165E-01  1.00636E+00 -4.01948E-02
    9020.563     26.488   2.960  9.48876E-01  1.00595E+00 -5.70706E-02
    9021.471     27.396   3.000  9.31737E-01  1.00543E+00 -7.36935E-02
    9022.392     28.317   3.040  9.15498E-01  1.00484E+00 -8.93388E-02
    9023.324     29.250   3.080  9.00920E-01  1.00421E+00 -1.03294E-01
    9024.269     30.194   3.120  8.88640E-01  1.00353E+00 -1.14886E-01
    9025.226     31.152   3.160  8.79088E-01  1.00280E+00 -1.23710E-01
    9026.195     32.121   3.200  8.72432E-01  1.00206E+00 -1.29623E-01
    9027.177     33.102   3.240  8.68765E-01  1.00128E+00 -1.32517E-01
    9028.171     34.096   3.280  8.67705E-01  1.00050E+00 -1.32798E-01
    9029.176     35.102   3.320  8.69044E-01  9.99722E-01 -1.30679E-01
    9030.194     36.120   3.360  8.72653E-01  9.98963E-01 -1.26310E-01
    9031.225     37.150   3.400  8.78415E-01  9.98188E-01 -1.19774E-01
    9032.267     38.192   3.440  8.86322E-01  9.97442E-01 -1.11120E-01
    9033.322     39.247   3.480  8.96461E-01  9.96726E-01 -1.00265E-01
    9034.388     40.314   3.520  9.08830E-01  9.96024E-01 -8.71945E-02
    9035.467     41.393   3.560  9.23144E-01  9.95378E-01 -7.22339E-02
    9036.559     42.484   3.600  9.38983E-01  9.94748E-01 -5.57648E-02
    9037.662     43.587   3.640  9.55910E-01  9.94156E-01 -3.82453E-02
    9038.778     44.703   3.680  9.73338E-01  9.93605E-01 -2.02668E-02
    9039.905     45.831   3.720  9.90536E-01  9.93116E-01 -2.58004E-03
    9041.045     46.971   3.760  1.00659E+00  9.92648E-01  1.39433E-02
    9042.197     48.123   3.800  1.02056E+00  9.92245E-01  2.83200E-02
    9043.362     49.287   3.840  1.03162E+00  9.91884E-01  3.97331E-02
    9044.538     50.464   3.880  1.03950E+00  9.91567E-01  4.79373E-02
    9045.727     51.652   3.920  1.04456E+00  9.91293E-01  5.32685E-02
    9046.928     52.853   3.960  1.04744E+00  9.91086E-01  5.63510E-02
    9048.141     54.066   4.000  1.04884E+00  9.90923E-01  5.79142E-02
    9049.366     55.292   4.040  1.04926E+00  9.90803E-01  5.84587E-02
    9050.604     56.529   4.080  1.04897E+00  9.90727E-01  5.82392E-02
    9051.853     57.779   4.120  1.04812E+00  9.90716E-01  5.74083E-02
    9053.115     59.041   4.160  1.04693E+00  9.90746E-01  5.61804E-02
    9054.389     60.315   4.200  1.04560E+00  9.90797E-01  5.48019E-02
    9055.676     61.601   4.240  1.04435E+00  9.90910E-01  5.34360E-02
    9056.974     62.899   4.280  1.04325E+00  9.91064E-01  5.21880E-02
    9058.285     64.210   4.320  1.04233E+00  9.91259E-01  5.10722E-02
    9059.607     65.533   4.360  1.04158E+00  9.91492E-01  5.00853E-02
    9060.943     66.868   4.400  1.04103E+00  9.91760E-01  4.92677E-02
    9062.290     68.215   4.440  1.04071E+00  9.92044E-01  4.86615E-02
    9063.649     69.574   4.480  1.04054E+00  9.92384E-01  4.81607E-02
    9065.021     70.946   4.520  1.04021E+00  9.92735E-01  4.74723E-02
    9066.405     72.330   4.560  1.03937E+00  9.93095E-01  4.62697E-02
    9067.800     73.726   4.600  1.03770E+00  9.93488E-01  4.42123E-02
    9069.209     75.134   4.640  1.03497E+00  9.93911E-01  4.10606E-02
    9070.629     76.554   4.680  1.03102E+00  9.94340E-01  3.66785E-02
    9072.062     77.987   4.720  1.02584E+00  9.94774E-01  3.10647E-02
    9073.506     79.432   4.760  1.01963E+00  9.95231E-01  2.43986E-02
    9074.963     80.889   4.800  1.01265E+00  9.95671E-01  1.69807E-02
    9076.432     82.358   4.840  1.00524E+00  9.96132E-01  9.10421E-03
    9077.914     83.839   4.880  9.97669E-01  9.96591E-01  1.07826E-03
    9079.407     85.333   4.920  9.90302E-01  9.97027E-01 -6.72567E-03
    9080.913     86.838   4.960  9.83566E-01  9.97482E-01 -1.39156E-02
    9082.431     88.356   5.000  9.77758E-01  9.97909E-01 -2.01516E-02
    9083.961     89.886   5.040  9.73085E-01  9.98331E-01 -2.52461E-02
    9085.503     91.429   5.080  9.69686E-01  9.98747E-01 -2.90607E-02
    9087.058     92.983   5.120  9.67583E-01  9.99133E-01 -3.15498E-02
    9088.624     94.550   5.160  9.66576E-01  9.99507E-01 -3.29313E-02
    9090.203     96.129   5.200  9.66138E-01  9.99850E-01 -3.37115E-02
    9091.794     97.720   5.240  9.65717E-01  1.00018E+00 -3.44639E-02
    9093.397     99.323   5.280  9.65035E-01  1.00048E+00 -3.54416E-02
    9095.013    100.938   5.320  9.64220E-01  1.00073E+00 -3.65143E-02
    9096.641    102.566   5.360  9.63640E-01  1.00096E+00 -3.73166E-02
    9098.280    104.206   5.400  9.63682E-01  1.00117E+00 -3.74836E-02
    9099.932    105.858   5.440  9.64579E-01  1.00134E+00 -3.67587E-02
    9101.597    107.522   5.480  9.66330E-01  1.00147E+00 -3.51435E-02
    9103.273    109.198   5.520  9.68634E-01  1.00159E+00 -3.29588E-02
    9104.962    110.887   5.560  9.70878E-01  1.00165E+00 -3.07726E-02
    9106.662    112.588   5.600  9.72596E-01  1.00169E+00 -2.90952E-02
    9108.375    114.301   5.640  9.73506E-01  1.00167E+00 -2.81650E-02
    9110.100    116.026   5.680  9.73721E-01  1.00163E+00 -2.79126E-02
    9111.838    117.763   5.720  9.73418E-01  1.00156E+00 -2.81376E-02
    9113.587    119.513   5.760  9.72797E-01  1.00142E+00 -2.86189E-02
    9115.349    121.274   5.800  9.72158E-01  1.00126E+00 -2.91024E-02
    9117.123    123.048   5.840  9.71946E-01  1.00107E+00 -2.91224E-02
    9118.909    124.834   5.880  9.72852E-01  1.00084E+00 -2.79883E-02
    9120.707    126.633   5.920  9.75522E-01  1.00058E+00 -2.50559E-02
    9122.518    128.443   5.960  9.80218E-01  1.00030E+00 -2.00861E-02
    9124.341    130.266   6.000  9.86802E-01  9.99945E-01 -1.31430E-02
