# # comment:                                                     FEFF 9.9.1  
# # Source:
# # Structure
# # Reduced
# # space
# # abc:
# # angles:
# # sites:
# # POT  SCF 100  7.0000   0, screened core-hole, AFOLP (folp(0)= 1.150)
# # Abs   Z=29 Rmt= 1.202 Rnm= 1.285 K  shell
# # Pot 1 Z=56 Rmt= 1.968 Rnm= 2.017
# # Pot 2 Z=39 Rmt= 1.626 Rnm= 1.697
# # Pot 3 Z=29 Rmt= 1.205 Rnm= 1.288
# # Pot 4 Z= 8 Rmt= 1.054 Rnm= 1.104
# # Gam_ch=1.729E+00 H-L exch Vi= 0.000E+00 Vr= 0.000E+00
# # Mu=-7.993E+00eV kf=2.020E+00 Vint=-1.767E+01eV Rs_int= 1.795
# FMS rfms= 9.0000
# # PATH  Rmax=-1.000,  Keep_limit= 0.00, Heap_limit 0.00  Pwcrit= 2.50%
#  S02=0.950  Temp=   0.00  Debye_temp=   0.00  Global_sig2= 0.00000
#  Energy zero shift, vr, vi    0.00000E+00   0.00000E+00
#  Curved wave amplitude ratio filter   4.000%
#     file         sig2 tot  cw amp ratio   deg  nlegs   reff  inp sig2
#     0/   0 paths used
#  xsedge+ 50, used to normalize mu           2.4392E-04
#  -----------------------------------------------------------------------
#  omega    e    k    mu    mu0     chi     @#
    8985.129    -11.803  -1.000  4.38000E-02  6.00822E-02 -1.62822E-02
    8985.428    -11.504  -0.960  4.63493E-02  6.46219E-02 -1.82725E-02
    8985.714    -11.217  -0.920  4.91275E-02  6.96805E-02 -2.05530E-02
    8985.989    -10.943  -0.880  5.21645E-02  7.53358E-02 -2.31713E-02
    8986.251    -10.681  -0.840  5.54950E-02  8.16781E-02 -2.61831E-02
    8986.501    -10.431  -0.800  5.91590E-02  8.88121E-02 -2.96531E-02
    8986.738    -10.193  -0.760  6.32024E-02  9.68586E-02 -3.36562E-02
    8986.964     -9.968  -0.720  6.76766E-02  1.05954E-01 -3.82771E-02
    8987.177     -9.754  -0.680  7.26379E-02  1.16248E-01 -4.36098E-02
    8987.379     -9.553  -0.640  7.81455E-02  1.27900E-01 -4.97541E-02
    8987.567     -9.364  -0.600  8.42568E-02  1.41066E-01 -5.68089E-02
    8987.744     -9.187  -0.560  9.10193E-02  1.55880E-01 -6.48606E-02
    8987.909     -9.023  -0.520  9.84587E-02  1.72423E-01 -7.39640E-02
    8988.061     -8.870  -0.480  1.06562E-01  1.90678E-01 -8.41166E-02
    8988.201     -8.730  -0.440  1.15257E-01  2.10486E-01 -9.52293E-02
    8988.329     -8.602  -0.400  1.24397E-01  2.31498E-01 -1.07101E-01
    8988.445     -8.486  -0.360  1.33757E-01  2.53166E-01 -1.19409E-01
    8988.549     -8.383  -0.320  1.43044E-01  2.74779E-01 -1.31735E-01
    8988.640     -8.291  -0.280  1.51934E-01  2.95546E-01 -1.43612E-01
    8988.720     -8.212  -0.240  1.60118E-01  3.14710E-01 -1.54592E-01
    8988.787     -8.145  -0.200  1.67337E-01  3.31637E-01 -1.64300E-01
    8988.842     -8.090  -0.160  1.73402E-01  3.45868E-01 -1.72467E-01
    8988.884     -8.047  -0.120  1.78189E-01  3.57110E-01 -1.78921E-01
    8988.915     -8.017  -0.080  1.81629E-01  3.65204E-01 -1.83575E-01
    8988.939     -7.993   0.000  1.84372E-01  3.71703E-01 -1.87332E-01
    8988.994     -7.938   0.120  1.90730E-01  3.86357E-01 -1.95627E-01
    8989.037     -7.895   0.160  1.95628E-01  3.97715E-01 -2.02087E-01
    8989.091     -7.840   0.200  2.01897E-01  4.12215E-01 -2.10318E-01
    8989.159     -7.773   0.240  2.09431E-01  4.29625E-01 -2.20194E-01
    8989.238     -7.694   0.280  2.18074E-01  4.49576E-01 -2.31502E-01
    8989.329     -7.602   0.320  2.27663E-01  4.71532E-01 -2.43869E-01
    8989.433     -7.499   0.360  2.37920E-01  4.94788E-01 -2.56868E-01
    8989.549     -7.383   0.400  2.48709E-01  5.18662E-01 -2.69953E-01
    8989.677     -7.255   0.440  2.59881E-01  5.42491E-01 -2.82610E-01
    8989.817     -7.115   0.480  2.71393E-01  5.65757E-01 -2.94364E-01
    8989.969     -6.962   0.520  2.83299E-01  5.88144E-01 -3.04845E-01
    8990.134     -6.798   0.560  2.95682E-01  6.09483E-01 -3.13801E-01
    8990.311     -6.621   0.600  3.08673E-01  6.29717E-01 -3.21044E-01
    8990.500     -6.432   0.640  3.22616E-01  6.48934E-01 -3.26318E-01
    8990.701     -6.231   0.680  3.38168E-01  6.67228E-01 -3.29061E-01
    8990.914     -6.018   0.720  3.56455E-01  6.84669E-01 -3.28214E-01
    8991.140     -5.792   0.760  3.78952E-01  7.01406E-01 -3.22454E-01
    8991.377     -5.554   0.800  4.06336E-01  7.17539E-01 -3.11203E-01
    8991.627     -5.304   0.840  4.36741E-01  7.33108E-01 -2.96367E-01
    8991.890     -5.042   0.880  4.64427E-01  7.48225E-01 -2.83799E-01
    8992.164     -4.768   0.920  4.81375E-01  7.62898E-01 -2.81523E-01
    8992.450     -4.481   0.960  4.83905E-01  7.77182E-01 -2.93277E-01
    8992.749     -4.183   1.000  4.77094E-01  7.91127E-01 -3.14033E-01
    8993.060     -3.872   1.040  4.70088E-01  8.04683E-01 -3.34596E-01
    8993.383     -3.549   1.080  4.69020E-01  8.17898E-01 -3.48878E-01
    8993.718     -3.213   1.120  4.75965E-01  8.30769E-01 -3.54803E-01
    8994.066     -2.866   1.160  4.92491E-01  8.43270E-01 -3.50780E-01
    8994.425     -2.506   1.200  5.20445E-01  8.55411E-01 -3.34966E-01
    8994.797     -2.134   1.240  5.59276E-01  8.67133E-01 -3.07857E-01
    8995.181     -1.750   1.280  6.05453E-01  8.78483E-01 -2.73030E-01
    8995.578     -1.354   1.320  6.56084E-01  8.89402E-01 -2.33318E-01
    8995.986     -0.946   1.360  7.11406E-01  8.99910E-01 -1.88504E-01
    8996.407     -0.525   1.400  7.67906E-01  9.09964E-01 -1.42058E-01
    8996.839     -0.092   1.440  8.15391E-01  9.19564E-01 -1.04174E-01
    8997.284      0.353   1.480  8.56633E-01  9.28691E-01 -7.20576E-02
    8997.742      0.810   1.520  9.16630E-01  9.37343E-01 -2.07122E-02
    8998.211      1.279   1.560  1.00840E+00  9.45500E-01  6.28950E-02
    8998.693      1.761   1.600  1.11084E+00  9.53186E-01  1.57650E-01
    8999.186      2.255   1.640  1.19069E+00  9.60402E-01  2.30286E-01
    8999.692      2.761   1.680  1.26473E+00  9.67110E-01  2.97621E-01
    9000.211      3.279   1.720  1.38426E+00  9.73355E-01  4.10904E-01
    9000.741      3.809   1.760  1.54784E+00  9.79099E-01  5.68738E-01
    9001.283      4.352   1.800  1.67130E+00  9.84391E-01  6.86912E-01
    9001.838      4.906   1.840  1.64797E+00  9.89236E-01  6.58738E-01
    9002.405      5.473   1.880  1.51505E+00  9.93621E-01  5.21425E-01
    9002.984      6.052   1.920  1.39346E+00  9.97574E-01  3.95887E-01
    9003.576      6.644   1.960  1.31489E+00  1.00110E+00  3.13785E-01
    9004.179      7.247   2.000  1.25770E+00  1.00424E+00  2.53459E-01
    9004.795      7.863   2.040  1.21662E+00  1.00699E+00  2.09628E-01
    9005.423      8.491   2.080  1.19455E+00  1.00937E+00  1.85185E-01
    9006.063      9.131   2.120  1.17748E+00  1.01140E+00  1.66078E-01
    9006.715      9.783   2.160  1.14613E+00  1.01312E+00  1.33011E-01
    9007.379     10.448   2.200  1.09617E+00  1.01451E+00  8.16568E-02
    9008.056     11.124   2.240  1.04095E+00  1.01561E+00  2.53408E-02
    9008.745     11.813   2.280  9.96984E-01  1.01645E+00 -1.94710E-02
    9009.446     12.514   2.320  9.76083E-01  1.01707E+00 -4.09828E-02
    9010.159     13.227   2.360  9.82484E-01  1.01743E+00 -3.49495E-02
    9010.885     13.953   2.400  1.01169E+00  1.01757E+00 -5.88329E-03
    9011.622     14.690   2.440  1.05139E+00  1.01754E+00  3.38448E-02
    9012.372     15.440   2.480  1.08404E+00  1.01733E+00  6.67168E-02
    9013.134     16.202   2.520  1.10678E+00  1.01697E+00  8.98088E-02
    9013.908     16.976   2.560  1.11931E+00  1.01645E+00  1.02861E-01
    9014.695     17.763   2.600  1.12056E+00  1.01584E+00  1.04724E-01
    9015.493     18.561   2.640  1.11157E+00  1.01510E+00  9.64689E-02
    9016.304     19.372   2.680  1.09478E+00  1.01428E+00  8.05043E-02
    9017.127     20.195   2.720  1.07309E+00  1.01337E+00  5.97138E-02
    9017.962     21.030   2.760  1.04877E+00  1.01242E+00  3.63524E-02
    9018.809     21.878   2.800  1.02323E+00  1.01141E+00  1.18218E-02
    9019.669     22.737   2.840  9.97227E-01  1.01036E+00 -1.31383E-02
    9020.541     23.609   2.880  9.71202E-01  1.00928E+00 -3.80803E-02
    9021.425     24.493   2.920  9.45008E-01  1.00819E+00 -6.31838E-02
    9022.321     25.389   2.960  9.19262E-01  1.00710E+00 -8.78364E-02
    9023.229     26.297   3.000  8.95766E-01  1.00603E+00 -1.10259E-01
    9024.149     27.218   3.040  8.76423E-01  1.00493E+00 -1.28512E-01
    9025.082     28.150   3.080  8.62488E-01  1.00387E+00 -1.41387E-01
    9026.027     29.095   3.120  8.54483E-01  1.00285E+00 -1.48365E-01
    9026.984     30.052   3.160  8.51573E-01  1.00186E+00 -1.50286E-01
    9027.953     31.022   3.200  8.52086E-01  1.00091E+00 -1.48823E-01
    9028.935     32.003   3.240  8.54147E-01  1.00000E+00 -1.45854E-01
    9029.928     32.997   3.280  8.56296E-01  9.99159E-01 -1.42863E-01
    9030.934     34.003   3.320  8.58264E-01  9.98341E-01 -1.40076E-01
    9031.952     35.021   3.360  8.61088E-01  9.97591E-01 -1.36503E-01
    9032.982     36.051   3.400  8.66270E-01  9.96912E-01 -1.30642E-01
    9034.025     37.093   3.440  8.74607E-01  9.96285E-01 -1.21678E-01
    9035.080     38.148   3.480  8.86357E-01  9.95732E-01 -1.09375E-01
    9036.146     39.215   3.520  9.01295E-01  9.95254E-01 -9.39588E-02
    9037.225     40.294   3.560  9.18797E-01  9.94828E-01 -7.60315E-02
    9038.316     41.385   3.600  9.37977E-01  9.94499E-01 -5.65215E-02
    9039.420     42.488   3.640  9.57550E-01  9.94202E-01 -3.66526E-02
    9040.535     43.604   3.680  9.76293E-01  9.94001E-01 -1.77083E-02
    9041.663     44.731   3.720  9.92970E-01  9.93855E-01 -8.84900E-04
    9042.803     45.871   3.760  1.00699E+00  9.93784E-01  1.32089E-02
    9043.955     47.024   3.800  1.01840E+00  9.93788E-01  2.46088E-02
    9045.120     48.188   3.840  1.02743E+00  9.93867E-01  3.35639E-02
    9046.296     49.364   3.880  1.03443E+00  9.93996E-01  4.04326E-02
    9047.485     50.553   3.920  1.03963E+00  9.94174E-01  4.54607E-02
    9048.686     51.754   3.960  1.04324E+00  9.94424E-01  4.88198E-02
    9049.899     52.967   4.000  1.04547E+00  9.94744E-01  5.07281E-02
    9051.124     54.192   4.040  1.04649E+00  9.95111E-01  5.13822E-02
    9052.362     55.430   4.080  1.04622E+00  9.95522E-01  5.07024E-02
    9053.611     56.680   4.120  1.04436E+00  9.95978E-01  4.83852E-02
    9054.873     57.941   4.160  1.04090E+00  9.96498E-01  4.44027E-02
    9056.147     59.215   4.200  1.03630E+00  9.97037E-01  3.92655E-02
    9057.433     60.502   4.240  1.03171E+00  9.97636E-01  3.40693E-02
    9058.732     61.800   4.280  1.02851E+00  9.98250E-01  3.02623E-02
    9060.043     63.111   4.320  1.02804E+00  9.98902E-01  2.91359E-02
    9061.365     64.434   4.360  1.03082E+00  9.99588E-01  3.12287E-02
    9062.700     65.769   4.400  1.03656E+00  1.00031E+00  3.62529E-02
    9064.048     67.116   4.440  1.04474E+00  1.00103E+00  4.37042E-02
    9065.407     68.475   4.480  1.05500E+00  1.00177E+00  5.32339E-02
    9066.779     69.847   4.520  1.06706E+00  1.00252E+00  6.45386E-02
    9068.162     71.231   4.560  1.08014E+00  1.00326E+00  7.68825E-02
    9069.558     72.627   4.600  1.09275E+00  1.00402E+00  8.87274E-02
    9070.967     74.035   4.640  1.10269E+00  1.00478E+00  9.79103E-02
    9072.387     75.455   4.680  1.10791E+00  1.00554E+00  1.02373E-01
    9073.819     76.888   4.720  1.10705E+00  1.00626E+00  1.00788E-01
    9075.264     78.332   4.760  1.09962E+00  1.00699E+00  9.26364E-02
    9076.721     79.789   4.800  1.08584E+00  1.00770E+00  7.81418E-02
    9078.190     81.259   4.840  1.06673E+00  1.00838E+00  5.83484E-02
    9079.672     82.740   4.880  1.04426E+00  1.00905E+00  3.52136E-02
    9081.165     84.233   4.920  1.02106E+00  1.00968E+00  1.13795E-02
    9082.671     85.739   4.960  9.99656E-01  1.01028E+00 -1.06199E-02
    9084.189     87.257   5.000  9.81877E-01  1.01083E+00 -2.89525E-02
    9085.719     88.787   5.040  9.68689E-01  1.01135E+00 -4.26567E-02
    9087.261     90.329   5.080  9.60286E-01  1.01184E+00 -5.15560E-02
    9088.816     91.884   5.120  9.56126E-01  1.01228E+00 -5.61504E-02
    9090.382     93.450   5.160  9.55291E-01  1.01269E+00 -5.73987E-02
    9091.961     95.029   5.200  9.56795E-01  1.01304E+00 -5.62421E-02
    9093.552     96.620   5.240  9.59935E-01  1.01334E+00 -5.34024E-02
    9095.155     98.224   5.280  9.64263E-01  1.01359E+00 -4.93296E-02
    9096.771     99.839   5.320  9.69049E-01  1.01378E+00 -4.47317E-02
    9098.398    101.467   5.360  9.73202E-01  1.01395E+00 -4.07430E-02
    9100.038    103.107   5.400  9.75569E-01  1.01404E+00 -3.84737E-02
    9101.690    104.759   5.440  9.75620E-01  1.01409E+00 -3.84696E-02
    9103.354    106.423   5.480  9.73703E-01  1.01407E+00 -4.03670E-02
    9105.031    108.099   5.520  9.70857E-01  1.01403E+00 -4.31709E-02
    9106.719    109.788   5.560  9.68103E-01  1.01391E+00 -4.58116E-02
    9108.420    111.488   5.600  9.66112E-01  1.01373E+00 -4.76206E-02
    9110.133    113.201   5.640  9.65078E-01  1.01353E+00 -4.84509E-02
    9111.858    114.927   5.680  9.64822E-01  1.01326E+00 -4.84352E-02
    9113.596    116.664   5.720  9.65278E-01  1.01294E+00 -4.76643E-02
    9115.345    118.413   5.760  9.66693E-01  1.01259E+00 -4.58938E-02
    9117.107    120.175   5.800  9.69427E-01  1.01219E+00 -4.27636E-02
    9118.881    121.949   5.840  9.73630E-01  1.01176E+00 -3.81254E-02
    9120.667    123.735   5.880  9.79118E-01  1.01129E+00 -3.21670E-02
    9122.465    125.534   5.920  9.85518E-01  1.01078E+00 -2.52640E-02
    9124.276    127.344   5.960  9.92565E-01  1.01027E+00 -1.77080E-02
    9126.099    129.167   6.000  1.00023E+00  1.00967E+00 -9.44458E-03
