# # comment:                                                     FEFF 9.9.1  
# # Source:
# # Structure
# # Reduced
# # space
# # abc:
# # angles:
# # sites:
# # POT  SCF 100  7.0000   0, screened core-hole, AFOLP (folp(0)= 1.150)
# # Abs   Z=29 Rmt= 1.203 Rnm= 1.289 K  shell
# # Pot 1 Z=56 Rmt= 1.912 Rnm= 1.976
# # Pot 2 Z=29 Rmt= 1.182 Rnm= 1.294
# # Pot 3 Z= 8 Rmt= 1.102 Rnm= 1.152
# # Gam_ch=1.729E+00 H-L exch Vi= 0.000E+00 Vr= 0.000E+00
# # Mu=-9.646E+00eV kf=1.846E+00 Vint=-1.723E+01eV Rs_int= 1.964
# FMS rfms= 9.0000
# # PATH  Rmax=-1.000,  Keep_limit= 0.00, Heap_limit 0.00  Pwcrit= 2.50%
#  S02=0.950  Temp=   0.00  Debye_temp=   0.00  Global_sig2= 0.00000
#  Energy zero shift, vr, vi    0.00000E+00   0.00000E+00
#  Curved wave amplitude ratio filter   4.000%
#     file         sig2 tot  cw amp ratio   deg  nlegs   reff  inp sig2
#     0/   0 paths used
#  xsedge+ 50, used to normalize mu           2.4319E-04
#  -----------------------------------------------------------------------
#  omega    e    k    mu    mu0     chi     @#
    8985.426    -13.456  -1.000  3.43490E-02  5.72210E-02 -2.28720E-02
    8985.724    -13.157  -0.960  3.59405E-02  6.14096E-02 -2.54690E-02
    8986.011    -12.871  -0.920  3.76433E-02  6.60627E-02 -2.84194E-02
    8986.285    -12.596  -0.880  3.94706E-02  7.12482E-02 -3.17776E-02
    8986.547    -12.334  -0.840  4.14380E-02  7.70450E-02 -3.56070E-02
    8986.797    -12.084  -0.800  4.35635E-02  8.35444E-02 -3.99809E-02
    8987.035    -11.847  -0.760  4.58681E-02  9.08513E-02 -4.49832E-02
    8987.261    -11.621  -0.720  4.83753E-02  9.90838E-02 -5.07085E-02
    8987.474    -11.408  -0.680  5.11111E-02  1.08372E-01 -5.72607E-02
    8987.675    -11.207  -0.640  5.41029E-02  1.18852E-01 -6.47496E-02
    8987.864    -11.018  -0.600  5.73774E-02  1.30660E-01 -7.32828E-02
    8988.041    -10.841  -0.560  6.09568E-02  1.43909E-01 -8.29526E-02
    8988.205    -10.676  -0.520  6.48528E-02  1.58668E-01 -9.38150E-02
    8988.358    -10.524  -0.480  6.90587E-02  1.74919E-01 -1.05861E-01
    8988.498    -10.384  -0.440  7.35401E-02  1.92522E-01 -1.18982E-01
    8988.626    -10.256  -0.400  7.82266E-02  2.11170E-01 -1.32944E-01
    8988.742    -10.140  -0.360  8.30098E-02  2.30387E-01 -1.47377E-01
    8988.846    -10.036  -0.320  8.77493E-02  2.49550E-01 -1.61800E-01
    8988.937     -9.945  -0.280  9.22886E-02  2.67968E-01 -1.75679E-01
    8989.016     -9.865  -0.240  9.64766E-02  2.84976E-01 -1.88500E-01
    8989.083     -9.798  -0.200  1.00184E-01  3.00015E-01 -1.99831E-01
    8989.138     -9.744  -0.160  1.03315E-01  3.12673E-01 -2.09358E-01
    8989.181     -9.701  -0.120  1.05804E-01  3.22685E-01 -2.16880E-01
    8989.211     -9.670  -0.080  1.07613E-01  3.29901E-01 -2.22288E-01
    8989.236     -9.646   0.000  1.09100E-01  3.35701E-01 -2.26601E-01
    8989.291     -9.591   0.120  1.12461E-01  3.48790E-01 -2.36329E-01
    8989.333     -9.548   0.160  1.15007E-01  3.58954E-01 -2.43947E-01
    8989.388     -9.494   0.200  1.18267E-01  3.71981E-01 -2.53714E-01
    8989.455     -9.427   0.240  1.22141E-01  3.87645E-01 -2.65505E-01
    8989.534     -9.347   0.280  1.26592E-01  4.05674E-01 -2.79082E-01
    8989.626     -9.256   0.320  1.31493E-01  4.25632E-01 -2.94139E-01
    8989.729     -9.152   0.360  1.36685E-01  4.46955E-01 -3.10270E-01
    8989.845     -9.036   0.400  1.42024E-01  4.69063E-01 -3.27039E-01
    8989.973     -8.908   0.440  1.47340E-01  4.91384E-01 -3.44044E-01
    8990.114     -8.768   0.480  1.52550E-01  5.13524E-01 -3.60975E-01
    8990.266     -8.616   0.520  1.57536E-01  5.35200E-01 -3.77664E-01
    8990.430     -8.451   0.560  1.62205E-01  5.56245E-01 -3.94039E-01
    8990.607     -8.274   0.600  1.66550E-01  5.76662E-01 -4.10112E-01
    8990.796     -8.085   0.640  1.70634E-01  5.96444E-01 -4.25809E-01
    8990.997     -7.884   0.680  1.74626E-01  6.15656E-01 -4.41030E-01
    8991.211     -7.671   0.720  1.78843E-01  6.34423E-01 -4.55580E-01
    8991.436     -7.445   0.760  1.83438E-01  6.52760E-01 -4.69321E-01
    8991.674     -7.208   0.800  1.88911E-01  6.70777E-01 -4.81866E-01
    8991.924     -6.958   0.840  1.95971E-01  6.88488E-01 -4.92517E-01
    8992.186     -6.696   0.880  2.05539E-01  7.05933E-01 -5.00393E-01
    8992.460     -6.421   0.920  2.18154E-01  7.23116E-01 -5.04962E-01
    8992.747     -6.135   0.960  2.33850E-01  7.40052E-01 -5.06203E-01
    8993.046     -5.836   1.000  2.52207E-01  7.56745E-01 -5.04538E-01
    8993.357     -5.525   1.040  2.72687E-01  7.73166E-01 -5.00479E-01
    8993.680     -5.202   1.080  2.94723E-01  7.89283E-01 -4.94559E-01
    8994.015     -4.867   1.120  3.18385E-01  8.05055E-01 -4.86670E-01
    8994.362     -4.519   1.160  3.45468E-01  8.20482E-01 -4.75014E-01
    8994.722     -4.160   1.200  3.78977E-01  8.35515E-01 -4.56538E-01
    8995.094     -3.788   1.240  4.21144E-01  8.50104E-01 -4.28960E-01
    8995.478     -3.404   1.280  4.71062E-01  8.64221E-01 -3.93159E-01
    8995.874     -3.008   1.320  5.22433E-01  8.77836E-01 -3.55403E-01
    8996.283     -2.599   1.360  5.66073E-01  8.90938E-01 -3.24865E-01
    8996.703     -2.178   1.400  5.99706E-01  9.03458E-01 -3.03752E-01
    8997.136     -1.746   1.440  6.33153E-01  9.15407E-01 -2.82255E-01
    8997.581     -1.301   1.480  6.81672E-01  9.26738E-01 -2.45067E-01
    8998.038     -0.843   1.520  7.53360E-01  9.37446E-01 -1.84086E-01
    8998.508     -0.374   1.560  8.28791E-01  9.47527E-01 -1.18737E-01
    8998.989      0.108   1.600  8.89219E-01  9.56960E-01 -6.77404E-02
    8999.483      0.601   1.640  9.60270E-01  9.65744E-01 -5.47328E-03
    8999.989      1.107   1.680  1.07625E+00  9.73882E-01  1.02364E-01
    9000.507      1.625   1.720  1.24624E+00  9.81378E-01  2.64860E-01
    9001.037      2.156   1.760  1.44279E+00  9.88239E-01  4.54555E-01
    9001.580      2.698   1.800  1.64139E+00  9.94490E-01  6.46905E-01
    9002.135      3.253   1.840  1.82419E+00  1.00012E+00  8.24064E-01
    9002.702      3.820   1.880  1.88756E+00  1.00518E+00  8.82376E-01
    9003.281      4.399   1.920  1.78637E+00  1.00967E+00  7.76705E-01
    9003.872      4.990   1.960  1.63611E+00  1.01361E+00  6.22500E-01
    9004.476      5.594   2.000  1.51926E+00  1.01703E+00  5.02226E-01
    9005.091      6.210   2.040  1.42065E+00  1.01998E+00  4.00674E-01
    9005.719      6.837   2.080  1.30871E+00  1.02244E+00  2.86270E-01
    9006.359      7.478   2.120  1.19371E+00  1.02448E+00  1.69233E-01
    9007.012      8.130   2.160  1.10771E+00  1.02610E+00  8.16160E-02
    9007.676      8.794   2.200  1.06268E+00  1.02733E+00  3.53465E-02
    9008.353      9.471   2.240  1.04499E+00  1.02820E+00  1.67899E-02
    9009.042     10.160   2.280  1.04585E+00  1.02876E+00  1.70908E-02
    9009.743     10.861   2.320  1.04979E+00  1.02903E+00  2.07650E-02
    9010.456     11.574   2.360  1.05290E+00  1.02901E+00  2.38934E-02
    9011.181     12.299   2.400  1.05656E+00  1.02874E+00  2.78225E-02
    9011.919     13.037   2.440  1.06253E+00  1.02825E+00  3.42763E-02
    9012.669     13.787   2.480  1.07114E+00  1.02759E+00  4.35512E-02
    9013.431     14.549   2.520  1.07995E+00  1.02673E+00  5.32211E-02
    9014.205     15.323   2.560  1.08583E+00  1.02573E+00  6.00995E-02
    9014.991     16.109   2.600  1.08634E+00  1.02458E+00  6.17546E-02
    9015.790     16.908   2.640  1.08049E+00  1.02336E+00  5.71300E-02
    9016.601     17.719   2.680  1.06859E+00  1.02203E+00  4.65629E-02
    9017.423     18.542   2.720  1.05167E+00  1.02061E+00  3.10537E-02
    9018.259     19.377   2.760  1.03044E+00  1.01915E+00  1.12873E-02
    9019.106     20.224   2.800  1.00555E+00  1.01764E+00 -1.20918E-02
    9019.965     21.084   2.840  9.78287E-01  1.01612E+00 -3.78380E-02
    9020.837     21.956   2.880  9.50596E-01  1.01458E+00 -6.39789E-02
    9021.721     22.839   2.920  9.24569E-01  1.01303E+00 -8.84561E-02
    9022.617     23.736   2.960  9.01983E-01  1.01150E+00 -1.09520E-01
    9023.526     24.644   3.000  8.83253E-01  1.01001E+00 -1.26757E-01
    9024.446     25.564   3.040  8.67943E-01  1.00853E+00 -1.40588E-01
    9025.379     26.497   3.080  8.55476E-01  1.00709E+00 -1.51616E-01
    9026.324     27.442   3.120  8.45290E-01  1.00570E+00 -1.60406E-01
    9027.281     28.399   3.160  8.37106E-01  1.00437E+00 -1.67263E-01
    9028.250     29.368   3.200  8.30979E-01  1.00311E+00 -1.72135E-01
    9029.231     30.350   3.240  8.27454E-01  1.00191E+00 -1.74459E-01
    9030.225     31.343   3.280  8.26714E-01  1.00079E+00 -1.74073E-01
    9031.231     32.349   3.320  8.29140E-01  9.99740E-01 -1.70600E-01
    9032.249     33.367   3.360  8.35127E-01  9.98773E-01 -1.63646E-01
    9033.279     34.397   3.400  8.44754E-01  9.97866E-01 -1.53112E-01
    9034.322     35.440   3.440  8.57848E-01  9.97085E-01 -1.39238E-01
    9035.376     36.494   3.480  8.74084E-01  9.96368E-01 -1.22284E-01
    9036.443     37.561   3.520  8.93204E-01  9.95734E-01 -1.02530E-01
    9037.522     38.640   3.560  9.14709E-01  9.95207E-01 -8.04978E-02
    9038.613     39.731   3.600  9.38053E-01  9.94765E-01 -5.67124E-02
    9039.716     40.835   3.640  9.62580E-01  9.94408E-01 -3.18276E-02
    9040.832     41.950   3.680  9.87162E-01  9.94133E-01 -6.97173E-03
    9041.960     43.078   3.720  1.01041E+00  9.93944E-01  1.64671E-02
    9043.100     44.218   3.760  1.03104E+00  9.93859E-01  3.71858E-02
    9044.252     45.370   3.800  1.04800E+00  9.93836E-01  5.41627E-02
    9045.416     46.534   3.840  1.06087E+00  9.93917E-01  6.69499E-02
    9046.593     47.711   3.880  1.06980E+00  9.94079E-01  7.57203E-02
    9047.781     48.900   3.920  1.07535E+00  9.94299E-01  8.10539E-02
    9048.982     50.101   3.960  1.07806E+00  9.94618E-01  8.34403E-02
    9050.195     51.314   4.000  1.07833E+00  9.94992E-01  8.33333E-02
    9051.421     52.539   4.040  1.07648E+00  9.95440E-01  8.10393E-02
    9052.658     53.776   4.080  1.07282E+00  9.95938E-01  7.68798E-02
    9053.908     55.026   4.120  1.06789E+00  9.96508E-01  7.13774E-02
    9055.170     56.288   4.160  1.06258E+00  9.97126E-01  6.54538E-02
    9056.444     57.562   4.200  1.05784E+00  9.97809E-01  6.00257E-02
    9057.730     58.848   4.240  1.05425E+00  9.98515E-01  5.57365E-02
    9059.028     60.147   4.280  1.05229E+00  9.99284E-01  5.30051E-02
    9060.339     61.457   4.320  1.05207E+00  1.00009E+00  5.19800E-02
    9061.662     62.780   4.360  1.05343E+00  1.00091E+00  5.25174E-02
    9062.997     64.115   4.400  1.05606E+00  1.00177E+00  5.42925E-02
    9064.344     65.462   4.440  1.05952E+00  1.00265E+00  5.68648E-02
    9065.704     66.822   4.480  1.06328E+00  1.00355E+00  5.97285E-02
    9067.075     68.193   4.520  1.06686E+00  1.00445E+00  6.24128E-02
    9068.459     69.577   4.560  1.06992E+00  1.00537E+00  6.45447E-02
    9069.855     70.973   4.600  1.07187E+00  1.00630E+00  6.55782E-02
    9071.263     72.381   4.640  1.07192E+00  1.00720E+00  6.47183E-02
    9072.683     73.802   4.680  1.06918E+00  1.00812E+00  6.10693E-02
    9074.116     75.234   4.720  1.06301E+00  1.00900E+00  5.40070E-02
    9075.561     76.679   4.760  1.05346E+00  1.00986E+00  4.36035E-02
    9077.018     78.136   4.800  1.04139E+00  1.01071E+00  3.06820E-02
    9078.487     79.605   4.840  1.02810E+00  1.01154E+00  1.65557E-02
    9079.968     81.086   4.880  1.01497E+00  1.01234E+00  2.62723E-03
    9081.462     82.580   4.920  1.00307E+00  1.01310E+00 -1.00277E-02
    9082.967     84.086   4.960  9.92916E-01  1.01382E+00 -2.09050E-02
    9084.485     85.604   5.000  9.84502E-01  1.01450E+00 -2.99949E-02
    9086.015     87.134   5.040  9.77538E-01  1.01513E+00 -3.75912E-02
    9087.558     88.676   5.080  9.71797E-01  1.01569E+00 -4.38966E-02
    9089.112     90.230   5.120  9.67349E-01  1.01623E+00 -4.88847E-02
    9090.679     91.797   5.160  9.64284E-01  1.01671E+00 -5.24220E-02
    9092.258     93.376   5.200  9.62659E-01  1.01713E+00 -5.44703E-02
    9093.849     94.967   5.240  9.62236E-01  1.01748E+00 -5.52464E-02
    9095.452     96.570   5.280  9.62629E-01  1.01781E+00 -5.51792E-02
    9097.067     98.186   5.320  9.63260E-01  1.01804E+00 -5.47788E-02
    9098.695     99.813   5.360  9.63859E-01  1.01822E+00 -5.43594E-02
    9100.335    101.453   5.400  9.64423E-01  1.01835E+00 -5.39252E-02
    9101.987    103.105   5.440  9.65165E-01  1.01840E+00 -5.32397E-02
    9103.651    104.769   5.480  9.66359E-01  1.01841E+00 -5.20527E-02
    9105.327    106.446   5.520  9.68143E-01  1.01835E+00 -5.02023E-02
    9107.016    108.134   5.560  9.70618E-01  1.01823E+00 -4.76106E-02
    9108.717    109.835   5.600  9.73816E-01  1.01804E+00 -4.42228E-02
    9110.430    111.548   5.640  9.77727E-01  1.01780E+00 -4.00718E-02
    9112.155    113.273   5.680  9.82093E-01  1.01749E+00 -3.53970E-02
    9113.892    115.011   5.720  9.86951E-01  1.01713E+00 -3.01841E-02
    9115.642    116.760   5.760  9.92393E-01  1.01674E+00 -2.43422E-02
    9117.404    118.522   5.800  9.98544E-01  1.01629E+00 -1.77485E-02
    9119.177    120.296   5.840  1.00532E+00  1.01578E+00 -1.04655E-02
    9120.964    122.082   5.880  1.01243E+00  1.01524E+00 -2.80918E-03
    9122.762    123.880   5.920  1.01951E+00  1.01468E+00  4.82558E-03
    9124.572    125.691   5.960  1.02607E+00  1.01407E+00  1.20021E-02
    9126.395    127.513   6.000  1.03174E+00  1.01338E+00  1.83572E-02
