# # comment:                                                     FEFF 9.9.1  
# # Source:
# # Structure
# # Reduced
# # space
# # abc:
# # angles:
# # sites:
# # POT  SCF 100  7.0000   0, screened core-hole, AFOLP (folp(0)= 1.150)
# # Abs   Z=29 Rmt= 1.243 Rnm= 1.320 K  shell
# # Pot 1 Z=56 Rmt= 2.005 Rnm= 2.078
# # Pot 2 Z=29 Rmt= 1.244 Rnm= 1.320
# # Pot 3 Z=15 Rmt= 0.939 Rnm= 1.153
# # Pot 4 Z= 8 Rmt= 0.907 Rnm= 1.046
# # Gam_ch=1.729E+00 H-L exch Vi= 0.000E+00 Vr= 0.000E+00
# # Mu=-7.385E+00eV kf=2.319E+00 Vint=-1.751E+01eV Rs_int= 1.564
# FMS rfms= 9.0000
# # PATH  Rmax=-1.000,  Keep_limit= 0.00, Heap_limit 0.00  Pwcrit= 2.50%
#  S02=0.950  Temp=   0.00  Debye_temp=   0.00  Global_sig2= 0.00000
#  Energy zero shift, vr, vi    0.00000E+00   0.00000E+00
#  Curved wave amplitude ratio filter   4.000%
#     file         sig2 tot  cw amp ratio   deg  nlegs   reff  inp sig2
#     0/   0 paths used
#  xsedge+ 50, used to normalize mu           2.4854E-04
#  -----------------------------------------------------------------------
#  omega    e    k    mu    mu0     chi     @#
    8983.668    -11.195  -1.000  3.76724E-02  5.07747E-02 -1.31023E-02
    8983.967    -10.896  -0.960  3.98464E-02  5.44184E-02 -1.45720E-02
    8984.253    -10.609  -0.920  4.22273E-02  5.84661E-02 -1.62388E-02
    8984.527    -10.335  -0.880  4.48445E-02  6.29777E-02 -1.81332E-02
    8984.790    -10.073  -0.840  4.77323E-02  6.80225E-02 -2.02902E-02
    8985.039     -9.823  -0.800  5.09306E-02  7.36811E-02 -2.27505E-02
    8985.277     -9.585  -0.760  5.44854E-02  8.00460E-02 -2.55606E-02
    8985.503     -9.360  -0.720  5.84488E-02  8.72216E-02 -2.87729E-02
    8985.716     -9.146  -0.680  6.28783E-02  9.53233E-02 -3.24450E-02
    8985.917     -8.945  -0.640  6.78347E-02  1.04473E-01 -3.66379E-02
    8986.106     -8.756  -0.600  7.33772E-02  1.14789E-01 -4.14118E-02
    8986.283     -8.579  -0.560  7.95551E-02  1.26375E-01 -4.68196E-02
    8986.448     -8.415  -0.520  8.63949E-02  1.39290E-01 -5.28956E-02
    8986.600     -8.262  -0.480  9.38818E-02  1.53523E-01 -5.96412E-02
    8986.740     -8.122  -0.440  1.01940E-01  1.68947E-01 -6.70075E-02
    8986.868     -7.994  -0.400  1.10415E-01  1.85294E-01 -7.48791E-02
    8986.984     -7.878  -0.360  1.19074E-01  2.02140E-01 -8.30667E-02
    8987.088     -7.775  -0.320  1.27622E-01  2.18937E-01 -9.13149E-02
    8987.179     -7.683  -0.280  1.35747E-01  2.35074E-01 -9.93270E-02
    8987.258     -7.604  -0.240  1.43162E-01  2.49965E-01 -1.06803E-01
    8987.325     -7.537  -0.200  1.49646E-01  2.63121E-01 -1.13475E-01
    8987.380     -7.482  -0.160  1.55049E-01  2.74184E-01 -1.19134E-01
    8987.423     -7.440  -0.120  1.59286E-01  2.82926E-01 -1.23640E-01
    8987.453     -7.409  -0.080  1.62313E-01  2.89222E-01 -1.26909E-01
    8987.478     -7.385   0.000  1.64707E-01  2.94279E-01 -1.29572E-01
    8987.533     -7.330   0.120  1.70297E-01  3.05680E-01 -1.35383E-01
    8987.575     -7.287   0.160  1.74634E-01  3.14541E-01 -1.39907E-01
    8987.630     -7.232   0.200  1.80194E-01  3.25847E-01 -1.45652E-01
    8987.697     -7.165   0.240  1.86915E-01  3.39417E-01 -1.52501E-01
    8987.777     -7.086   0.280  1.94777E-01  3.55013E-01 -1.60236E-01
    8987.868     -6.995   0.320  2.03724E-01  3.72187E-01 -1.68463E-01
    8987.972     -6.891   0.360  2.13752E-01  3.90457E-01 -1.76705E-01
    8988.087     -6.775   0.400  2.24892E-01  4.09268E-01 -1.84376E-01
    8988.215     -6.647   0.440  2.37106E-01  4.28133E-01 -1.91026E-01
    8988.356     -6.507   0.480  2.50118E-01  4.46675E-01 -1.96557E-01
    8988.508     -6.354   0.520  2.63187E-01  4.64636E-01 -2.01449E-01
    8988.673     -6.190   0.560  2.75071E-01  4.81909E-01 -2.06839E-01
    8988.849     -6.013   0.600  2.84474E-01  4.98487E-01 -2.14012E-01
    8989.038     -5.824   0.640  2.90825E-01  5.14403E-01 -2.23578E-01
    8989.240     -5.623   0.680  2.94927E-01  5.29751E-01 -2.34825E-01
    8989.453     -5.410   0.720  2.98578E-01  5.44618E-01 -2.46040E-01
    8989.678     -5.184   0.760  3.03304E-01  5.59107E-01 -2.55803E-01
    8989.916     -4.946   0.800  3.09379E-01  5.73314E-01 -2.63935E-01
    8990.166     -4.696   0.840  3.15987E-01  5.87262E-01 -2.71275E-01
    8990.428     -4.434   0.880  3.22729E-01  6.01063E-01 -2.78334E-01
    8990.703     -4.160   0.920  3.30165E-01  6.14756E-01 -2.84591E-01
    8990.989     -3.873   0.960  3.38931E-01  6.28348E-01 -2.89417E-01
    8991.288     -3.575   1.000  3.48444E-01  6.41857E-01 -2.93413E-01
    8991.599     -3.264   1.040  3.57236E-01  6.55332E-01 -2.98096E-01
    8991.922     -2.941   1.080  3.64942E-01  6.68754E-01 -3.03812E-01
    8992.257     -2.605   1.120  3.73241E-01  6.82138E-01 -3.08897E-01
    8992.605     -2.258   1.160  3.84563E-01  6.95474E-01 -3.10911E-01
    8992.964     -1.898   1.200  4.01576E-01  7.08728E-01 -3.07152E-01
    8993.336     -1.526   1.240  4.26676E-01  7.21925E-01 -2.95249E-01
    8993.720     -1.142   1.280  4.60634E-01  7.35020E-01 -2.74385E-01
    8994.116     -0.746   1.320  5.02449E-01  7.47992E-01 -2.45542E-01
    8994.525     -0.338   1.360  5.50686E-01  7.60857E-01 -2.10172E-01
    8994.945      0.083   1.400  6.02366E-01  7.73527E-01 -1.71160E-01
    8995.378      0.516   1.440  6.50234E-01  7.86035E-01 -1.35801E-01
    8995.823      0.961   1.480  6.86083E-01  7.98335E-01 -1.12252E-01
    8996.280      1.418   1.520  7.08573E-01  8.10417E-01 -1.01843E-01
    8996.750      1.887   1.560  7.27167E-01  8.22252E-01 -9.50848E-02
    8997.231      2.369   1.600  7.50676E-01  8.33812E-01 -8.31365E-02
    8997.725      2.863   1.640  7.81722E-01  8.45068E-01 -6.33460E-02
    8998.231      3.369   1.680  8.24202E-01  8.56010E-01 -3.18074E-02
    8998.749      3.887   1.720  8.76090E-01  8.66632E-01  9.45775E-03
    8999.280      4.417   1.760  9.25049E-01  8.76888E-01  4.81608E-02
    8999.822      4.960   1.800  9.62277E-01  8.86810E-01  7.54669E-02
    9000.377      5.514   1.840  9.99153E-01  8.96331E-01  1.02821E-01
    9000.944      6.081   1.880  1.05719E+00  9.05468E-01  1.51720E-01
    9001.523      6.660   1.920  1.14304E+00  9.14194E-01  2.28850E-01
    9002.114      7.252   1.960  1.23690E+00  9.22529E-01  3.14367E-01
    9002.718      7.855   2.000  1.31500E+00  9.30428E-01  3.84574E-01
    9003.333      8.471   2.040  1.37520E+00  9.37931E-01  4.37266E-01
    9003.961      9.099   2.080  1.41813E+00  9.44997E-01  4.73134E-01
    9004.601      9.739   2.120  1.43205E+00  9.51647E-01  4.80399E-01
    9005.254     10.391   2.160  1.41097E+00  9.57881E-01  4.53087E-01
    9005.918     11.056   2.200  1.36440E+00  9.63704E-01  4.00695E-01
    9006.595     11.732   2.240  1.30744E+00  9.69115E-01  3.38327E-01
    9007.284     12.421   2.280  1.24748E+00  9.74118E-01  2.73362E-01
    9007.985     13.122   2.320  1.18573E+00  9.78738E-01  2.06993E-01
    9008.698     13.835   2.360  1.12607E+00  9.82938E-01  1.43135E-01
    9009.423     14.561   2.400  1.07346E+00  9.86785E-01  8.66733E-02
    9010.161     15.298   2.440  1.02959E+00  9.90245E-01  3.93427E-02
    9010.911     16.048   2.480  9.96082E-01  9.93363E-01  2.71836E-03
    9011.673     16.810   2.520  9.78659E-01  9.96146E-01 -1.74873E-02
    9012.447     17.584   2.560  9.82345E-01  9.98582E-01 -1.62372E-02
    9013.233     18.371   2.600  1.00451E+00  1.00072E+00  3.79069E-03
    9014.032     19.169   2.640  1.03243E+00  1.00254E+00  2.98869E-02
    9014.843     19.980   2.680  1.05091E+00  1.00410E+00  4.68126E-02
    9015.666     20.803   2.720  1.05419E+00  1.00538E+00  4.88154E-02
    9016.501     21.638   2.760  1.04858E+00  1.00638E+00  4.21980E-02
    9017.348     22.486   2.800  1.03870E+00  1.00717E+00  3.15238E-02
    9018.208     23.345   2.840  1.02427E+00  1.00773E+00  1.65473E-02
    9019.079     24.217   2.880  1.00579E+00  1.00809E+00 -2.30108E-03
    9019.963     25.101   2.920  9.84709E-01  1.00824E+00 -2.35318E-02
    9020.859     25.997   2.960  9.63010E-01  1.00822E+00 -4.52093E-02
    9021.768     26.905   3.000  9.42723E-01  1.00806E+00 -6.53317E-02
    9022.688     27.826   3.040  9.25144E-01  1.00771E+00 -8.25693E-02
    9023.621     28.758   3.080  9.10740E-01  1.00726E+00 -9.65227E-02
    9024.566     29.703   3.120  8.99224E-01  1.00667E+00 -1.07446E-01
    9025.523     30.660   3.160  8.89969E-01  1.00598E+00 -1.16012E-01
    9026.492     31.630   3.200  8.82126E-01  1.00518E+00 -1.23058E-01
    9027.474     32.611   3.240  8.75022E-01  1.00432E+00 -1.29303E-01
    9028.467     33.605   3.280  8.68479E-01  1.00339E+00 -1.34908E-01
    9029.473     34.611   3.320  8.62437E-01  1.00238E+00 -1.39942E-01
    9030.491     35.629   3.360  8.57436E-01  1.00133E+00 -1.43891E-01
    9031.521     36.659   3.400  8.54483E-01  1.00026E+00 -1.45772E-01
    9032.564     37.701   3.440  8.54491E-01  9.99148E-01 -1.44657E-01
    9033.618     38.756   3.480  8.58104E-01  9.98009E-01 -1.39904E-01
    9034.685     39.823   3.520  8.65624E-01  9.96862E-01 -1.31239E-01
    9035.764     40.902   3.560  8.76988E-01  9.95714E-01 -1.18726E-01
    9036.855     41.993   3.600  8.91334E-01  9.94568E-01 -1.03234E-01
    9037.959     43.096   3.640  9.07862E-01  9.93447E-01 -8.55852E-02
    9039.074     44.212   3.680  9.25793E-01  9.92335E-01 -6.65422E-02
    9040.202     45.339   3.720  9.44457E-01  9.91255E-01 -4.67975E-02
    9041.342     46.479   3.760  9.63296E-01  9.90187E-01 -2.68913E-02
    9042.494     47.632   3.800  9.81927E-01  9.89179E-01 -7.25189E-03
    9043.658     48.796   3.840  9.99642E-01  9.88188E-01  1.14542E-02
    9044.835     49.972   3.880  1.01564E+00  9.87260E-01  2.83760E-02
    9046.024     51.161   3.920  1.02907E+00  9.86376E-01  4.26917E-02
    9047.224     52.362   3.960  1.03928E+00  9.85536E-01  5.37393E-02
    9048.438     53.575   4.000  1.04595E+00  9.84764E-01  6.11844E-02
    9049.663     54.800   4.040  1.04933E+00  9.84038E-01  6.52906E-02
    9050.900     56.038   4.080  1.05004E+00  9.83358E-01  6.66853E-02
    9052.150     57.288   4.120  1.04888E+00  9.82748E-01  6.61303E-02
    9053.412     58.549   4.160  1.04657E+00  9.82188E-01  6.43812E-02
    9054.686     59.823   4.200  1.04379E+00  9.81720E-01  6.20682E-02
    9055.972     61.110   4.240  1.04090E+00  9.81282E-01  5.96144E-02
    9057.271     62.408   4.280  1.03822E+00  9.80914E-01  5.73049E-02
    9058.581     63.719   4.320  1.03607E+00  9.80620E-01  5.54518E-02
    9059.904     65.042   4.360  1.03465E+00  9.80395E-01  5.42573E-02
    9061.239     66.377   4.400  1.03400E+00  9.80199E-01  5.38034E-02
    9062.586     67.724   4.440  1.03410E+00  9.80094E-01  5.40046E-02
    9063.946     69.083   4.480  1.03459E+00  9.80037E-01  5.45510E-02
    9065.317     70.455   4.520  1.03499E+00  9.80028E-01  5.49655E-02
    9066.701     71.839   4.560  1.03485E+00  9.80086E-01  5.47622E-02
    9068.097     73.235   4.600  1.03378E+00  9.80189E-01  5.35950E-02
    9069.505     74.643   4.640  1.03164E+00  9.80335E-01  5.13025E-02
    9070.926     76.063   4.680  1.02848E+00  9.80526E-01  4.79548E-02
    9072.358     77.496   4.720  1.02456E+00  9.80781E-01  4.37766E-02
    9073.803     78.940   4.760  1.02002E+00  9.81080E-01  3.89405E-02
    9075.260     80.397   4.800  1.01494E+00  9.81415E-01  3.35219E-02
    9076.729     81.867   4.840  1.00930E+00  9.81766E-01  2.75348E-02
    9078.210     83.348   4.880  1.00316E+00  9.82177E-01  2.09852E-02
    9079.704     84.841   4.920  9.96579E-01  9.82600E-01  1.39793E-02
    9081.210     86.347   4.960  9.89753E-01  9.83054E-01  6.69917E-03
    9082.727     87.865   5.000  9.82857E-01  9.83519E-01 -6.61452E-04
    9084.258     89.395   5.040  9.76133E-01  9.84013E-01 -7.88005E-03
    9085.800     90.937   5.080  9.69825E-01  9.84516E-01 -1.46901E-02
    9087.354     92.492   5.120  9.64258E-01  9.85044E-01 -2.07861E-02
    9088.921     94.058   5.160  9.59611E-01  9.85574E-01 -2.59629E-02
    9090.500     95.637   5.200  9.55879E-01  9.86084E-01 -3.02043E-02
    9092.091     97.228   5.240  9.52965E-01  9.86614E-01 -3.36486E-02
    9093.694     98.832   5.280  9.50744E-01  9.87143E-01 -3.63982E-02
    9095.310    100.447   5.320  9.49146E-01  9.87647E-01 -3.85010E-02
    9096.937    102.075   5.360  9.48447E-01  9.88167E-01 -3.97205E-02
    9098.577    103.714   5.400  9.48701E-01  9.88659E-01 -3.99580E-02
    9100.229    105.366   5.440  9.49755E-01  9.89117E-01 -3.93620E-02
    9101.893    107.031   5.480  9.51216E-01  9.89564E-01 -3.83477E-02
    9103.570    108.707   5.520  9.52448E-01  9.89977E-01 -3.75294E-02
    9105.258    110.396   5.560  9.52843E-01  9.90355E-01 -3.75117E-02
    9106.959    112.096   5.600  9.52202E-01  9.90720E-01 -3.85181E-02
    9108.672    113.809   5.640  9.50645E-01  9.91049E-01 -4.04042E-02
    9110.397    115.535   5.680  9.48796E-01  9.91339E-01 -4.25427E-02
    9112.134    117.272   5.720  9.47446E-01  9.91588E-01 -4.41424E-02
    9113.884    119.021   5.760  9.47275E-01  9.91797E-01 -4.45220E-02
    9115.646    120.783   5.800  9.48704E-01  9.91967E-01 -4.32633E-02
    9117.420    122.557   5.840  9.51879E-01  9.92095E-01 -4.02153E-02
    9119.206    124.343   5.880  9.56720E-01  9.92179E-01 -3.54591E-02
    9121.004    126.142   5.920  9.62898E-01  9.92194E-01 -2.92961E-02
    9122.815    127.952   5.960  9.69939E-01  9.92160E-01 -2.22201E-02
    9124.637    129.775   6.000  9.77474E-01  9.92083E-01 -1.46088E-02
