# # comment:                                                     FEFF 9.9.1  
# # Source:
# # Structure
# # Reduced
# # space
# # abc:
# # angles:
# # sites:
# # POT  SCF 100  7.0000   0, screened core-hole, AFOLP (folp(0)= 1.150)
# # Abs   Z=29 Rmt= 1.260 Rnm= 1.363 K  shell
# # Pot 1 Z=29 Rmt= 1.236 Rnm= 1.349
# # Pot 2 Z= 1 Rmt= 0.757 Rnm= 0.885
# # Pot 3 Z=16 Rmt= 0.853 Rnm= 1.109
# # Pot 4 Z= 8 Rmt= 0.996 Rnm= 1.126
# # Gam_ch=1.729E+00 H-L exch Vi= 0.000E+00 Vr= 0.000E+00
# # Mu=-6.888E+00eV kf=2.149E+00 Vint=-1.343E+01eV Rs_int= 1.688
# FMS rfms= 9.0000
# # PATH  Rmax=-1.000,  Keep_limit= 0.00, Heap_limit 0.00  Pwcrit= 2.50%
#  S02=0.950  Temp=   0.00  Debye_temp=   0.00  Global_sig2= 0.00000
#  Energy zero shift, vr, vi    0.00000E+00   0.00000E+00
#  Curved wave amplitude ratio filter   4.000%
#     file         sig2 tot  cw amp ratio   deg  nlegs   reff  inp sig2
#     0/   0 paths used
#  xsedge+ 50, used to normalize mu           2.4294E-04
#  -----------------------------------------------------------------------
#  omega    e    k    mu    mu0     chi     @#
    8983.360    -10.698  -1.000  3.54813E-02  5.60068E-02 -2.05255E-02
    8983.659    -10.399  -0.960  3.70726E-02  6.00612E-02 -2.29887E-02
    8983.946    -10.113  -0.920  3.87532E-02  6.45596E-02 -2.58064E-02
    8984.220     -9.839  -0.880  4.05297E-02  6.95659E-02 -2.90362E-02
    8984.482     -9.576  -0.840  4.24094E-02  7.51547E-02 -3.27453E-02
    8984.732     -9.327  -0.800  4.44004E-02  8.14120E-02 -3.70116E-02
    8984.970     -9.089  -0.760  4.65115E-02  8.84363E-02 -4.19248E-02
    8985.195     -8.863  -0.720  4.87522E-02  9.63387E-02 -4.75865E-02
    8985.409     -8.650  -0.680  5.11322E-02  1.05241E-01 -5.41089E-02
    8985.610     -8.449  -0.640  5.36609E-02  1.15272E-01 -6.16109E-02
    8985.799     -8.260  -0.600  5.63462E-02  1.26557E-01 -7.02103E-02
    8985.976     -8.083  -0.560  5.91920E-02  1.39202E-01 -8.00098E-02
    8986.140     -7.918  -0.520  6.21957E-02  1.53270E-01 -9.10744E-02
    8986.293     -7.766  -0.480  6.53431E-02  1.68745E-01 -1.03402E-01
    8986.433     -7.626  -0.440  6.86042E-02  1.85492E-01 -1.16888E-01
    8986.561     -7.498  -0.400  7.19292E-02  2.03223E-01 -1.31294E-01
    8986.677     -7.382  -0.360  7.52483E-02  2.21488E-01 -1.46240E-01
    8986.780     -7.278  -0.320  7.84768E-02  2.39701E-01 -1.61224E-01
    8986.872     -7.187  -0.280  8.15249E-02  2.57210E-01 -1.75685E-01
    8986.951     -7.108  -0.240  8.43090E-02  2.73386E-01 -1.89077E-01
    8987.018     -7.041  -0.200  8.67602E-02  2.87699E-01 -2.00939E-01
    8987.073     -6.986  -0.160  8.88268E-02  2.99754E-01 -2.10928E-01
    8987.115     -6.943  -0.120  9.04716E-02  3.09297E-01 -2.18825E-01
    8987.146     -6.913  -0.080  9.16690E-02  3.16180E-01 -2.24511E-01
    8987.170     -6.888   0.000  9.26557E-02  3.21717E-01 -2.29061E-01
    8987.225     -6.833   0.120  9.50002E-02  3.34204E-01 -2.39204E-01
    8987.268     -6.791   0.160  9.67697E-02  3.43937E-01 -2.47167E-01
    8987.323     -6.736   0.200  9.90291E-02  3.56396E-01 -2.57367E-01
    8987.390     -6.669   0.240  1.01773E-01  3.71419E-01 -2.69647E-01
    8987.469     -6.589   0.280  1.04988E-01  3.88747E-01 -2.83759E-01
    8987.560     -6.498   0.320  1.08751E-01  4.08009E-01 -2.99258E-01
    8987.664     -6.394   0.360  1.13035E-01  4.28673E-01 -3.15638E-01
    8987.780     -6.279   0.400  1.17934E-01  4.50189E-01 -3.32255E-01
    8987.908     -6.151   0.440  1.23575E-01  4.72094E-01 -3.48519E-01
    8988.048     -6.010   0.480  1.30129E-01  4.93968E-01 -3.63839E-01
    8988.201     -5.858   0.520  1.37821E-01  5.15569E-01 -3.77747E-01
    8988.365     -5.693   0.560  1.46904E-01  5.36737E-01 -3.89833E-01
    8988.542     -5.517   0.600  1.57744E-01  5.57454E-01 -3.99710E-01
    8988.731     -5.328   0.640  1.70709E-01  5.77721E-01 -4.07012E-01
    8988.932     -5.126   0.680  1.86149E-01  5.97592E-01 -4.11444E-01
    8989.145     -4.913   0.720  2.04201E-01  6.17112E-01 -4.12911E-01
    8989.371     -4.687   0.760  2.24374E-01  6.36363E-01 -4.11990E-01
    8989.609     -4.450   0.800  2.44849E-01  6.55335E-01 -4.10486E-01
    8989.859     -4.200   0.840  2.63213E-01  6.74086E-01 -4.10873E-01
    8990.121     -3.938   0.880  2.78672E-01  6.92620E-01 -4.13948E-01
    8990.395     -3.663   0.920  2.93666E-01  7.10928E-01 -4.17262E-01
    8990.682     -3.377   0.960  3.12194E-01  7.28969E-01 -4.16775E-01
    8990.980     -3.078   1.000  3.37421E-01  7.46753E-01 -4.09332E-01
    8991.291     -2.767   1.040  3.70228E-01  7.64201E-01 -3.93973E-01
    8991.614     -2.444   1.080  4.09015E-01  7.81310E-01 -3.72295E-01
    8991.950     -2.109   1.120  4.50273E-01  7.98010E-01 -3.47738E-01
    8992.297     -1.761   1.160  4.89977E-01  8.14271E-01 -3.24294E-01
    8992.657     -1.402   1.200  5.26572E-01  8.30037E-01 -3.03465E-01
    8993.029     -1.030   1.240  5.63256E-01  8.45255E-01 -2.81999E-01
    8993.413     -0.646   1.280  6.00194E-01  8.59911E-01 -2.59717E-01
    8993.809     -0.250   1.320  6.32420E-01  8.73951E-01 -2.41531E-01
    8994.217      0.159   1.360  6.64761E-01  8.87323E-01 -2.22561E-01
    8994.638      0.579   1.400  7.10306E-01  9.00036E-01 -1.89731E-01
    8995.071      1.012   1.440  7.74912E-01  9.12023E-01 -1.37111E-01
    8995.516      1.457   1.480  8.54089E-01  9.23319E-01 -6.92296E-02
    8995.973      1.914   1.520  9.37511E-01  9.33860E-01  3.65104E-03
    8996.442      2.384   1.560  1.01715E+00  9.43688E-01  7.34659E-02
    8996.924      2.865   1.600  1.08863E+00  9.52786E-01  1.35841E-01
    8997.418      3.359   1.640  1.14882E+00  9.61155E-01  1.87664E-01
    8997.924      3.865   1.680  1.20427E+00  9.68805E-01  2.35461E-01
    8998.442      4.383   1.720  1.27303E+00  9.75745E-01  2.97280E-01
    8998.972      4.914   1.760  1.36265E+00  9.82028E-01  3.80625E-01
    8999.515      5.456   1.800  1.45542E+00  9.87643E-01  4.67776E-01
    9000.069      6.011   1.840  1.52300E+00  9.92628E-01  5.30368E-01
    9000.636      6.578   1.880  1.55394E+00  9.97019E-01  5.56925E-01
    9001.215      7.157   1.920  1.55305E+00  1.00085E+00  5.52195E-01
    9001.807      7.748   1.960  1.51060E+00  1.00414E+00  5.06461E-01
    9002.410      8.352   2.000  1.41449E+00  1.00690E+00  4.07581E-01
    9003.026      8.967   2.040  1.29224E+00  1.00923E+00  2.83011E-01
    9003.654      9.595   2.080  1.18840E+00  1.01110E+00  1.77306E-01
    9004.294     10.235   2.120  1.12394E+00  1.01258E+00  1.11366E-01
    9004.946     10.888   2.160  1.09240E+00  1.01368E+00  7.87117E-02
    9005.611     11.552   2.200  1.07486E+00  1.01446E+00  6.04007E-02
    9006.287     12.229   2.240  1.06004E+00  1.01493E+00  4.51113E-02
    9006.976     12.918   2.280  1.05043E+00  1.01512E+00  3.53082E-02
    9007.677     13.619   2.320  1.05041E+00  1.01509E+00  3.53211E-02
    9008.390     14.332   2.360  1.05361E+00  1.01482E+00  3.87964E-02
    9009.116     15.057   2.400  1.04862E+00  1.01437E+00  3.42503E-02
    9009.853     15.795   2.440  1.03452E+00  1.01376E+00  2.07650E-02
    9010.603     16.545   2.480  1.02069E+00  1.01303E+00  7.65187E-03
    9011.365     17.307   2.520  1.01286E+00  1.01217E+00  6.91024E-04
    9012.139     18.081   2.560  1.00458E+00  1.01122E+00 -6.63612E-03
    9012.926     18.867   2.600  9.88808E-01  1.01020E+00 -2.13965E-02
    9013.724     19.666   2.640  9.70998E-01  1.00912E+00 -3.81266E-02
    9014.535     20.477   2.680  9.56642E-01  1.00802E+00 -5.13821E-02
    9015.358     21.300   2.720  9.47021E-01  1.00689E+00 -5.98712E-02
    9016.193     22.135   2.760  9.40732E-01  1.00576E+00 -6.50243E-02
    9017.041     22.982   2.800  9.36308E-01  1.00464E+00 -6.83356E-02
    9017.900     23.842   2.840  9.32885E-01  1.00354E+00 -7.06544E-02
    9018.772     24.713   2.880  9.30307E-01  1.00245E+00 -7.21407E-02
    9019.656     25.597   2.920  9.28598E-01  1.00142E+00 -7.28178E-02
    9020.552     26.493   2.960  9.27566E-01  1.00043E+00 -7.28623E-02
    9021.460     27.402   3.000  9.26699E-01  9.99488E-01 -7.27888E-02
    9022.381     28.322   3.040  9.25639E-01  9.98620E-01 -7.29814E-02
    9023.313     29.255   3.080  9.24174E-01  9.97828E-01 -7.36546E-02
    9024.258     30.200   3.120  9.22265E-01  9.97114E-01 -7.48482E-02
    9025.215     31.157   3.160  9.20101E-01  9.96457E-01 -7.63554E-02
    9026.185     32.126   3.200  9.18196E-01  9.95901E-01 -7.77045E-02
    9027.166     33.108   3.240  9.16954E-01  9.95406E-01 -7.84520E-02
    9028.160     34.101   3.280  9.16614E-01  9.95016E-01 -7.84026E-02
    9029.166     35.107   3.320  9.17320E-01  9.94711E-01 -7.73913E-02
    9030.184     36.125   3.360  9.19179E-01  9.94488E-01 -7.53093E-02
    9031.214     37.155   3.400  9.22249E-01  9.94349E-01 -7.20999E-02
    9032.256     38.198   3.440  9.26590E-01  9.94295E-01 -6.77048E-02
    9033.311     39.252   3.480  9.32382E-01  9.94347E-01 -6.19645E-02
    9034.378     40.319   3.520  9.39865E-01  9.94482E-01 -5.46164E-02
    9035.457     41.398   3.560  9.49159E-01  9.94677E-01 -4.55181E-02
    9036.548     42.489   3.600  9.60370E-01  9.94975E-01 -3.46047E-02
    9037.651     43.593   3.640  9.73179E-01  9.95353E-01 -2.21739E-02
    9038.767     44.708   3.680  9.86884E-01  9.95789E-01 -8.90473E-03
    9039.894     45.836   3.720  1.00064E+00  9.96322E-01  4.31532E-03
    9041.034     46.976   3.760  1.01350E+00  9.96909E-01  1.65913E-02
    9042.187     48.128   3.800  1.02469E+00  9.97545E-01  2.71475E-02
    9043.351     49.292   3.840  1.03376E+00  9.98254E-01  3.55086E-02
    9044.527     50.469   3.880  1.04066E+00  9.99033E-01  4.16234E-02
    9045.716     51.658   3.920  1.04555E+00  9.99855E-01  4.56903E-02
    9046.917     52.859   3.960  1.04868E+00  1.00070E+00  4.79761E-02
    9048.130     54.072   4.000  1.05043E+00  1.00161E+00  4.88205E-02
    9049.355     55.297   4.040  1.05103E+00  1.00255E+00  4.84813E-02
    9050.593     56.534   4.080  1.05066E+00  1.00353E+00  4.71339E-02
    9051.843     57.784   4.120  1.04944E+00  1.00452E+00  4.49223E-02
    9053.104     59.046   4.160  1.04750E+00  1.00552E+00  4.19834E-02
    9054.378     60.320   4.200  1.04503E+00  1.00657E+00  3.84661E-02
    9055.665     61.606   4.240  1.04225E+00  1.00760E+00  3.46536E-02
    9056.963     62.905   4.280  1.03976E+00  1.00863E+00  3.11290E-02
    9058.274     64.215   4.320  1.03830E+00  1.00965E+00  2.86458E-02
    9059.597     65.538   4.360  1.03854E+00  1.01070E+00  2.78398E-02
    9060.932     66.873   4.400  1.04060E+00  1.01170E+00  2.89059E-02
    9062.279     68.220   4.440  1.04421E+00  1.01270E+00  3.15097E-02
    9063.638     69.580   4.480  1.04861E+00  1.01365E+00  3.49598E-02
    9065.010     70.951   4.520  1.05311E+00  1.01461E+00  3.84970E-02
    9066.394     72.335   4.560  1.05707E+00  1.01551E+00  4.15537E-02
    9067.790     73.731   4.600  1.06010E+00  1.01637E+00  4.37315E-02
    9069.198     75.139   4.640  1.06196E+00  1.01721E+00  4.47492E-02
    9070.618     76.560   4.680  1.06238E+00  1.01798E+00  4.43961E-02
    9072.051     77.992   4.720  1.06117E+00  1.01871E+00  4.24551E-02
    9073.495     79.437   4.760  1.05813E+00  1.01939E+00  3.87416E-02
    9074.952     80.894   4.800  1.05314E+00  1.02002E+00  3.31206E-02
    9076.422     82.363   4.840  1.04607E+00  1.02058E+00  2.54925E-02
    9077.903     83.844   4.880  1.03695E+00  1.02107E+00  1.58829E-02
    9079.396     85.338   4.920  1.02607E+00  1.02150E+00  4.57546E-03
    9080.902     86.844   4.960  1.01410E+00  1.02188E+00 -7.78190E-03
    9082.420     88.361   5.000  1.00205E+00  1.02219E+00 -2.01402E-02
    9083.950     89.892   5.040  9.91106E-01  1.02242E+00 -3.13110E-02
    9085.492     91.434   5.080  9.82329E-01  1.02259E+00 -4.02650E-02
    9087.047     92.988   5.120  9.76218E-01  1.02270E+00 -4.64787E-02
    9088.613     94.555   5.160  9.72664E-01  1.02275E+00 -5.00821E-02
    9090.192     96.134   5.200  9.71036E-01  1.02272E+00 -5.16821E-02
    9091.783     97.725   5.240  9.70604E-01  1.02261E+00 -5.20112E-02
    9093.387     99.328   5.280  9.70939E-01  1.02246E+00 -5.15199E-02
    9095.002    100.944   5.320  9.71934E-01  1.02223E+00 -5.02964E-02
    9096.630    102.571   5.360  9.73792E-01  1.02195E+00 -4.81606E-02
    9098.269    104.211   5.400  9.76702E-01  1.02162E+00 -4.49225E-02
    9099.921    105.863   5.440  9.80661E-01  1.02122E+00 -4.05628E-02
    9101.586    107.527   5.480  9.85353E-01  1.02075E+00 -3.54003E-02
    9103.262    109.204   5.520  9.90213E-01  1.02026E+00 -3.00475E-02
    9104.951    110.892   5.560  9.94521E-01  1.01970E+00 -2.51812E-02
    9106.651    112.593   5.600  9.97900E-01  1.01912E+00 -2.12237E-02
    9108.364    114.306   5.640  1.00023E+00  1.01848E+00 -1.82505E-02
    9110.090    116.031   5.680  1.00168E+00  1.01780E+00 -1.61173E-02
    9111.827    117.768   5.720  1.00247E+00  1.01710E+00 -1.46319E-02
    9113.576    119.518   5.760  1.00282E+00  1.01637E+00 -1.35583E-02
    9115.338    121.280   5.800  1.00306E+00  1.01561E+00 -1.25504E-02
    9117.112    123.054   5.840  1.00370E+00  1.01482E+00 -1.11136E-02
    9118.898    124.840   5.880  1.00530E+00  1.01405E+00 -8.75010E-03
    9120.697    126.638   5.920  1.00809E+00  1.01323E+00 -5.14022E-03
    9122.507    128.449   5.960  1.01219E+00  1.01245E+00 -2.59328E-04
    9124.330    130.271   6.000  1.01735E+00  1.01164E+00  5.70910E-03
