# # comment:                                                     FEFF 9.9.1  
# # Source:
# # Structure
# # Reduced
# # space
# # abc:
# # angles:109.471221
# # sites:
# # POT  SCF 100  7.0000   0, screened core-hole, AFOLP (folp(0)= 1.150)
# # Abs   Z=29 Rmt= 1.164 Rnm= 1.271 K  shell
# # Pot 1 Z=67 Rmt= 1.698 Rnm= 1.744
# # Pot 2 Z=26 Rmt= 1.299 Rnm= 1.400
# # Pot 3 Z=29 Rmt= 1.164 Rnm= 1.271
# # Pot 4 Z= 8 Rmt= 1.029 Rnm= 1.101
# # Gam_ch=1.729E+00 H-L exch Vi= 0.000E+00 Vr= 0.000E+00
# # Mu=-1.009E+01eV kf=2.170E+00 Vint=-1.762E+01eV Rs_int= 1.671
# FMS rfms= 9.0000
# # PATH  Rmax=-1.000,  Keep_limit= 0.00, Heap_limit 0.00  Pwcrit= 2.50%
#  S02=0.950  Temp=   0.00  Debye_temp=   0.00  Global_sig2= 0.00000
#  Energy zero shift, vr, vi    0.00000E+00   0.00000E+00
#  Curved wave amplitude ratio filter   4.000%
#     file         sig2 tot  cw amp ratio   deg  nlegs   reff  inp sig2
#     0/   0 paths used
#  xsedge+ 50, used to normalize mu           2.4711E-04
#  -----------------------------------------------------------------------
#  omega    e    k    mu    mu0     chi     @#
    8984.367    -13.903  -1.000  3.26443E-02  5.11211E-02 -1.84768E-02
    8984.666    -13.604  -0.960  3.41372E-02  5.47133E-02 -2.05762E-02
    8984.952    -13.317  -0.920  3.57212E-02  5.86932E-02 -2.29720E-02
    8985.227    -13.043  -0.880  3.74038E-02  6.31166E-02 -2.57127E-02
    8985.489    -12.781  -0.840  3.91932E-02  6.80484E-02 -2.88552E-02
    8985.739    -12.531  -0.800  4.10981E-02  7.35639E-02 -3.24657E-02
    8985.977    -12.293  -0.760  4.31282E-02  7.97489E-02 -3.66207E-02
    8986.202    -12.068  -0.720  4.52935E-02  8.67006E-02 -4.14071E-02
    8986.415    -11.854  -0.680  4.76042E-02  9.45256E-02 -4.69214E-02
    8986.617    -11.653  -0.640  5.00699E-02  1.03336E-01 -5.32662E-02
    8986.806    -11.464  -0.600  5.26988E-02  1.13242E-01 -6.05433E-02
    8986.982    -11.287  -0.560  5.54953E-02  1.24337E-01 -6.88416E-02
    8987.147    -11.123  -0.520  5.84579E-02  1.36675E-01 -7.82171E-02
    8987.299    -10.970  -0.480  6.15756E-02  1.50242E-01 -8.86665E-02
    8987.440    -10.830  -0.440  6.48241E-02  1.64920E-01 -1.00096E-01
    8987.568    -10.702  -0.400  6.81624E-02  1.80455E-01 -1.12293E-01
    8987.683    -10.586  -0.360  7.15317E-02  1.96454E-01 -1.24922E-01
    8987.787    -10.483  -0.320  7.48572E-02  2.12402E-01 -1.37545E-01
    8987.878    -10.391  -0.280  7.80541E-02  2.27728E-01 -1.49674E-01
    8987.958    -10.312  -0.240  8.10346E-02  2.41881E-01 -1.60847E-01
    8988.025    -10.245  -0.200  8.37156E-02  2.54399E-01 -1.70683E-01
    8988.080    -10.190  -0.160  8.60225E-02  2.64937E-01 -1.78915E-01
    8988.122    -10.147  -0.120  8.78917E-02  2.73276E-01 -1.85384E-01
    8988.153    -10.117  -0.080  8.92718E-02  2.79288E-01 -1.90016E-01
    8988.177    -10.093   0.000  9.04194E-02  2.84122E-01 -1.93702E-01
    8988.232    -10.038   0.120  9.31642E-02  2.95044E-01 -2.01879E-01
    8988.275     -9.995   0.160  9.52690E-02  3.03525E-01 -2.08256E-01
    8988.330     -9.940   0.200  9.80479E-02  3.14386E-01 -2.16338E-01
    8988.397     -9.873   0.240  1.01535E-01  3.27496E-01 -2.25961E-01
    8988.476     -9.794   0.280  1.05773E-01  3.42598E-01 -2.36825E-01
    8988.567     -9.702   0.320  1.10822E-01  3.59342E-01 -2.48520E-01
    8988.671     -9.599   0.360  1.16750E-01  3.77287E-01 -2.60537E-01
    8988.787     -9.483   0.400  1.23552E-01  3.95944E-01 -2.72392E-01
    8988.915     -9.355   0.440  1.31205E-01  4.14902E-01 -2.83697E-01
    8989.055     -9.215   0.480  1.39494E-01  4.33789E-01 -2.94295E-01
    8989.207     -9.062   0.520  1.48081E-01  4.52412E-01 -3.04331E-01
    8989.372     -8.898   0.560  1.56438E-01  4.70655E-01 -3.14217E-01
    8989.549     -8.721   0.600  1.64142E-01  4.88506E-01 -3.24364E-01
    8989.738     -8.532   0.640  1.70876E-01  5.05974E-01 -3.35098E-01
    8989.939     -8.331   0.680  1.76542E-01  5.23155E-01 -3.46613E-01
    8990.152     -8.117   0.720  1.81115E-01  5.40075E-01 -3.58960E-01
    8990.378     -7.892   0.760  1.85169E-01  5.56840E-01 -3.71671E-01
    8990.616     -7.654   0.800  1.90252E-01  5.73506E-01 -3.83254E-01
    8990.865     -7.404   0.840  1.98973E-01  5.90097E-01 -3.91125E-01
    8991.128     -7.142   0.880  2.14377E-01  6.06667E-01 -3.92290E-01
    8991.402     -6.868   0.920  2.39710E-01  6.23214E-01 -3.83503E-01
    8991.688     -6.581   0.960  2.78891E-01  6.39749E-01 -3.60858E-01
    8991.987     -6.283   1.000  3.36283E-01  6.56272E-01 -3.19989E-01
    8992.298     -5.972   1.040  4.12579E-01  6.72775E-01 -2.60196E-01
    8992.621     -5.649   1.080  4.95643E-01  6.89245E-01 -1.93602E-01
    8992.956     -5.313   1.120  5.64405E-01  7.05618E-01 -1.41214E-01
    8993.304     -4.966   1.160  6.22120E-01  7.21893E-01 -9.97730E-02
    8993.664     -4.606   1.200  6.97137E-01  7.38019E-01 -4.08818E-02
    8994.035     -4.234   1.240  7.83834E-01  7.53986E-01  2.98472E-02
    8994.419     -3.850   1.280  8.14101E-01  7.69721E-01  4.43792E-02
    8994.816     -3.454   1.320  7.45419E-01  7.85210E-01 -3.97906E-02
    8995.224     -3.046   1.360  6.31969E-01  8.00395E-01 -1.68426E-01
    8995.645     -2.625   1.400  5.41870E-01  8.15242E-01 -2.73373E-01
    8996.078     -2.192   1.440  4.95761E-01  8.29715E-01 -3.33954E-01
    8996.523     -1.747   1.480  4.84013E-01  8.43780E-01 -3.59766E-01
    8996.980     -1.290   1.520  4.90226E-01  8.57381E-01 -3.67155E-01
    8997.449     -0.821   1.560  5.04546E-01  8.70525E-01 -3.65979E-01
    8997.931     -0.339   1.600  5.32788E-01  8.83181E-01 -3.50393E-01
    8998.424      0.155   1.640  5.78460E-01  8.95299E-01 -3.16839E-01
    8998.930      0.661   1.680  6.35211E-01  9.06869E-01 -2.71659E-01
    8999.449      1.179   1.720  7.03067E-01  9.17864E-01 -2.14797E-01
    8999.979      1.709   1.760  7.79809E-01  9.28299E-01 -1.48490E-01
    9000.522      2.252   1.800  8.53555E-01  9.38151E-01 -8.45957E-02
    9001.076      2.807   1.840  9.18870E-01  9.47417E-01 -2.85473E-02
    9001.643      3.373   1.880  9.61342E-01  9.56076E-01  5.26584E-03
    9002.222      3.953   1.920  9.75839E-01  9.64150E-01  1.16895E-02
    9002.814      4.544   1.960  9.97164E-01  9.71643E-01  2.55209E-02
    9003.417      5.147   2.000  1.05223E+00  9.78558E-01  7.36733E-02
    9004.033      5.763   2.040  1.12262E+00  9.84902E-01  1.37722E-01
    9004.661      6.391   2.080  1.17689E+00  9.90701E-01  1.86190E-01
    9005.301      7.031   2.120  1.22101E+00  9.95941E-01  2.25069E-01
    9005.953      7.683   2.160  1.27237E+00  1.00067E+00  2.71695E-01
    9006.617      8.348   2.200  1.34467E+00  1.00489E+00  3.39786E-01
    9007.294      9.024   2.240  1.44006E+00  1.00863E+00  4.31425E-01
    9007.983      9.713   2.280  1.51728E+00  1.01190E+00  5.05382E-01
    9008.684     10.414   2.320  1.53328E+00  1.01474E+00  5.18533E-01
    9009.397     11.128   2.360  1.49624E+00  1.01715E+00  4.79094E-01
    9010.123     11.853   2.400  1.43153E+00  1.01915E+00  4.12377E-01
    9010.860     12.591   2.440  1.35737E+00  1.02080E+00  3.36566E-01
    9011.610     13.340   2.480  1.28803E+00  1.02210E+00  2.65932E-01
    9012.372     14.102   2.520  1.23460E+00  1.02306E+00  2.11539E-01
    9013.146     14.877   2.560  1.19730E+00  1.02371E+00  1.73588E-01
    9013.933     15.663   2.600  1.16646E+00  1.02410E+00  1.42369E-01
    9014.731     16.462   2.640  1.13244E+00  1.02421E+00  1.08235E-01
    9015.542     17.272   2.680  1.09214E+00  1.02410E+00  6.80431E-02
    9016.365     18.095   2.720  1.05503E+00  1.02376E+00  3.12694E-02
    9017.200     18.930   2.760  1.02718E+00  1.02325E+00  3.93530E-03
    9018.047     19.778   2.800  1.00949E+00  1.02256E+00 -1.30682E-02
    9018.907     20.637   2.840  9.99479E-01  1.02169E+00 -2.22137E-02
    9019.779     21.509   2.880  9.91902E-01  1.02071E+00 -2.88111E-02
    9020.663     22.393   2.920  9.82143E-01  1.01959E+00 -3.74492E-02
    9021.559     23.289   2.960  9.68118E-01  1.01838E+00 -5.02599E-02
    9022.467     24.197   3.000  9.50064E-01  1.01708E+00 -6.70131E-02
    9023.388     25.118   3.040  9.29907E-01  1.01570E+00 -8.57909E-02
    9024.320     26.051   3.080  9.10816E-01  1.01425E+00 -1.03431E-01
    9025.265     26.995   3.120  8.95540E-01  1.01277E+00 -1.17233E-01
    9026.222     27.952   3.160  8.85061E-01  1.01126E+00 -1.26201E-01
    9027.191     28.922   3.200  8.79390E-01  1.00972E+00 -1.30327E-01
    9028.173     29.903   3.240  8.77605E-01  1.00817E+00 -1.30560E-01
    9029.166     30.897   3.280  8.77983E-01  1.00661E+00 -1.28631E-01
    9030.172     31.903   3.320  8.79125E-01  1.00509E+00 -1.25962E-01
    9031.190     32.921   3.360  8.80218E-01  1.00357E+00 -1.23347E-01
    9032.221     33.951   3.400  8.80767E-01  1.00206E+00 -1.21289E-01
    9033.263     34.993   3.440  8.80441E-01  1.00058E+00 -1.20140E-01
    9034.318     36.048   3.480  8.79347E-01  9.99165E-01 -1.19818E-01
    9035.384     37.115   3.520  8.78063E-01  9.97770E-01 -1.19708E-01
    9036.463     38.194   3.560  8.77695E-01  9.96439E-01 -1.18744E-01
    9037.555     39.285   3.600  8.79558E-01  9.95154E-01 -1.15596E-01
    9038.658     40.388   3.640  8.84677E-01  9.93917E-01 -1.09240E-01
    9039.773     41.504   3.680  8.93416E-01  9.92751E-01 -9.93347E-02
    9040.901     42.632   3.720  9.05370E-01  9.91657E-01 -8.62870E-02
    9042.041     43.772   3.760  9.19726E-01  9.90616E-01 -7.08893E-02
    9043.193     44.924   3.800  9.35351E-01  9.89649E-01 -5.42986E-02
    9044.358     46.088   3.840  9.50796E-01  9.88760E-01 -3.79641E-02
    9045.534     47.265   3.880  9.64591E-01  9.87949E-01 -2.33579E-02
    9046.723     48.453   3.920  9.75504E-01  9.87214E-01 -1.17100E-02
    9047.924     49.654   3.960  9.82858E-01  9.86534E-01 -3.67553E-03
    9049.137     50.867   4.000  9.86980E-01  9.85953E-01  1.02708E-03
    9050.362     52.093   4.040  9.89162E-01  9.85428E-01  3.73378E-03
    9051.600     53.330   4.080  9.91451E-01  9.84980E-01  6.47063E-03
    9052.849     54.580   4.120  9.95809E-01  9.84611E-01  1.11979E-02
    9054.111     55.842   4.160  1.00340E+00  9.84318E-01  1.90803E-02
    9055.385     57.116   4.200  1.01394E+00  9.84101E-01  2.98366E-02
    9056.672     58.402   4.240  1.02578E+00  9.83939E-01  4.18375E-02
    9057.970     59.700   4.280  1.03692E+00  9.83871E-01  5.30458E-02
    9059.281     61.011   4.320  1.04587E+00  9.83835E-01  6.20311E-02
    9060.603     62.334   4.360  1.05219E+00  9.83892E-01  6.83009E-02
    9061.938     63.669   4.400  1.05590E+00  9.83999E-01  7.18972E-02
    9063.286     65.016   4.440  1.05683E+00  9.84153E-01  7.26795E-02
    9064.645     66.375   4.480  1.05450E+00  9.84376E-01  7.01249E-02
    9066.017     67.747   4.520  1.04884E+00  9.84644E-01  6.41948E-02
    9067.400     69.131   4.560  1.04118E+00  9.84957E-01  5.62281E-02
    9068.796     70.527   4.600  1.03394E+00  9.85333E-01  4.86048E-02
    9070.205     71.935   4.640  1.02933E+00  9.85729E-01  4.36053E-02
    9071.625     73.355   4.680  1.02865E+00  9.86186E-01  4.24630E-02
    9073.058     74.788   4.720  1.03172E+00  9.86661E-01  4.50621E-02
    9074.502     76.233   4.760  1.03760E+00  9.87193E-01  5.04084E-02
    9075.959     77.690   4.800  1.04497E+00  9.87738E-01  5.72291E-02
    9077.428     79.159   4.840  1.05254E+00  9.88290E-01  6.42455E-02
    9078.910     80.640   4.880  1.05889E+00  9.88874E-01  7.00124E-02
    9080.403     82.133   4.920  1.06232E+00  9.89486E-01  7.28358E-02
    9081.909     83.639   4.960  1.06155E+00  9.90082E-01  7.14641E-02
    9083.427     85.157   5.000  1.05670E+00  9.90702E-01  6.59961E-02
    9084.957     86.687   5.040  1.04911E+00  9.91322E-01  5.77883E-02
    9086.499     88.229   5.080  1.04046E+00  9.91944E-01  4.85149E-02
    9088.054     89.784   5.120  1.03170E+00  9.92566E-01  3.91351E-02
    9089.620     91.351   5.160  1.02264E+00  9.93184E-01  2.94558E-02
    9091.199     92.929   5.200  1.01221E+00  9.93798E-01  1.84128E-02
    9092.790     94.520   5.240  9.99284E-01  9.94381E-01  4.90344E-03
    9094.393     96.124   5.280  9.83597E-01  9.94954E-01 -1.13573E-02
    9096.009     97.739   5.320  9.65942E-01  9.95497E-01 -2.95541E-02
    9097.636     99.367   5.360  9.47870E-01  9.96027E-01 -4.81566E-02
    9099.276    101.007   5.400  9.31090E-01  9.96522E-01 -6.54319E-02
    9100.928    102.659   5.440  9.17227E-01  9.96980E-01 -7.97524E-02
    9102.593    104.323   5.480  9.07677E-01  9.97400E-01 -8.97232E-02
    9104.269    105.999   5.520  9.03341E-01  9.97807E-01 -9.44660E-02
    9105.957    107.688   5.560  9.04352E-01  9.98173E-01 -9.38209E-02
    9107.658    109.389   5.600  9.10245E-01  9.98475E-01 -8.82306E-02
    9109.371    111.102   5.640  9.20254E-01  9.98758E-01 -7.85036E-02
    9111.096    112.827   5.680  9.33499E-01  9.98974E-01 -6.54752E-02
    9112.834    114.564   5.720  9.49249E-01  9.99147E-01 -4.98987E-02
    9114.583    116.314   5.760  9.66761E-01  9.99279E-01 -3.25180E-02
    9116.345    118.075   5.800  9.85006E-01  9.99369E-01 -1.43632E-02
    9118.119    119.849   5.840  1.00251E+00  9.99416E-01  3.09723E-03
    9119.905    121.635   5.880  1.01739E+00  9.99421E-01  1.79694E-02
    9121.703    123.434   5.920  1.02778E+00  9.99356E-01  2.84278E-02
    9123.514    125.244   5.960  1.03252E+00  9.99239E-01  3.32838E-02
    9125.337    127.067   6.000  1.03098E+00  9.99046E-01  3.19379E-02
