# # comment:                                                     FEFF 9.9.1  
# # Source:
# # Structure
# # Reduced
# # space
# # abc:
# # angles:
# # sites:
# # POT  SCF 100  7.0000   0, screened core-hole, AFOLP (folp(0)= 1.150)
# # Abs   Z=29 Rmt= 1.292 Rnm= 1.357 K  shell
# # Pot 1 Z=26 Rmt= 1.331 Rnm= 1.421
# # Pot 2 Z=29 Rmt= 1.284 Rnm= 1.351
# # Pot 3 Z=15 Rmt= 0.933 Rnm= 1.150
# # Pot 4 Z= 8 Rmt= 0.907 Rnm= 1.044
# # Gam_ch=1.729E+00 H-L exch Vi= 0.000E+00 Vr= 0.000E+00
# # Mu=-8.227E+00eV kf=2.467E+00 Vint=-1.815E+01eV Rs_int= 1.470
# FMS rfms= 9.0000
# # PATH  Rmax=-1.000,  Keep_limit= 0.00, Heap_limit 0.00  Pwcrit= 2.50%
#  S02=0.950  Temp=   0.00  Debye_temp=   0.00  Global_sig2= 0.00000
#  Energy zero shift, vr, vi    0.00000E+00   0.00000E+00
#  Curved wave amplitude ratio filter   4.000%
#     file         sig2 tot  cw amp ratio   deg  nlegs   reff  inp sig2
#     0/   0 paths used
#  xsedge+ 50, used to normalize mu           2.5128E-04
#  -----------------------------------------------------------------------
#  omega    e    k    mu    mu0     chi     @#
    8983.600    -12.037  -1.000  3.53153E-02  4.70406E-02 -1.17253E-02
    8983.899    -11.739  -0.960  3.71246E-02  5.03214E-02 -1.31968E-02
    8984.185    -11.452  -0.920  3.90698E-02  5.39595E-02 -1.48897E-02
    8984.459    -11.178  -0.880  4.11658E-02  5.80071E-02 -1.68413E-02
    8984.721    -10.916  -0.840  4.34297E-02  6.25251E-02 -1.90955E-02
    8984.971    -10.666  -0.800  4.58809E-02  6.75841E-02 -2.17032E-02
    8985.209    -10.428  -0.760  4.85413E-02  7.32650E-02 -2.47237E-02
    8985.435    -10.202  -0.720  5.14353E-02  7.96592E-02 -2.82239E-02
    8985.648     -9.989  -0.680  5.45891E-02  8.68675E-02 -3.22784E-02
    8985.849     -9.788  -0.640  5.80298E-02  9.49962E-02 -3.69663E-02
    8986.038     -9.599  -0.600  6.17829E-02  1.04150E-01 -4.23666E-02
    8986.215     -9.422  -0.560  6.58681E-02  1.14417E-01 -4.85485E-02
    8986.380     -9.258  -0.520  7.02934E-02  1.25850E-01 -5.55565E-02
    8986.532     -9.105  -0.480  7.50463E-02  1.38437E-01 -6.33910E-02
    8986.672     -8.965  -0.440  8.00839E-02  1.52068E-01 -7.19842E-02
    8986.800     -8.837  -0.400  8.53248E-02  1.66506E-01 -8.11809E-02
    8986.916     -8.721  -0.360  9.06469E-02  1.81379E-01 -9.07316E-02
    8987.020     -8.617  -0.320  9.58947E-02  1.96204E-01 -1.00309E-01
    8987.111     -8.526  -0.280  1.00897E-01  2.10446E-01 -1.09548E-01
    8987.190     -8.447  -0.240  1.05492E-01  2.23589E-01 -1.18097E-01
    8987.257     -8.380  -0.200  1.09542E-01  2.35203E-01 -1.25660E-01
    8987.312     -8.325  -0.160  1.12948E-01  2.44971E-01 -1.32022E-01
    8987.355     -8.282  -0.120  1.15646E-01  2.52692E-01 -1.37046E-01
    8987.385     -8.252  -0.080  1.17598E-01  2.58254E-01 -1.40656E-01
    8987.410     -8.227   0.000  1.19186E-01  2.62724E-01 -1.43538E-01
    8987.465     -8.172   0.120  1.22712E-01  2.72799E-01 -1.50088E-01
    8987.507     -8.130   0.160  1.25430E-01  2.80640E-01 -1.55210E-01
    8987.562     -8.075   0.200  1.28886E-01  2.90639E-01 -1.61753E-01
    8987.629     -8.008   0.240  1.33030E-01  3.02658E-01 -1.69628E-01
    8987.709     -7.929   0.280  1.37835E-01  3.16479E-01 -1.78645E-01
    8987.800     -7.837   0.320  1.43202E-01  3.31730E-01 -1.88528E-01
    8987.904     -7.734   0.360  1.49054E-01  3.47973E-01 -1.98919E-01
    8988.019     -7.618   0.400  1.55361E-01  3.64745E-01 -2.09384E-01
    8988.147     -7.490   0.440  1.62143E-01  3.81625E-01 -2.19482E-01
    8988.288     -7.349   0.480  1.69603E-01  3.98286E-01 -2.28683E-01
    8988.440     -7.197   0.520  1.78080E-01  4.14504E-01 -2.36424E-01
    8988.605     -7.033   0.560  1.88104E-01  4.30206E-01 -2.42102E-01
    8988.781     -6.856   0.600  2.00201E-01  4.45348E-01 -2.45147E-01
    8988.970     -6.667   0.640  2.14685E-01  4.60001E-01 -2.45316E-01
    8989.172     -6.466   0.680  2.31356E-01  4.74245E-01 -2.42889E-01
    8989.385     -6.252   0.720  2.49699E-01  4.88157E-01 -2.38458E-01
    8989.610     -6.027   0.760  2.69726E-01  5.01808E-01 -2.32082E-01
    8989.848     -5.789   0.800  2.92592E-01  5.15304E-01 -2.22712E-01
    8990.098     -5.539   0.840  3.19693E-01  5.28699E-01 -2.09006E-01
    8990.360     -5.277   0.880  3.51228E-01  5.42038E-01 -1.90811E-01
    8990.635     -5.003   0.920  3.85278E-01  5.55373E-01 -1.70094E-01
    8990.921     -4.716   0.960  4.17234E-01  5.68727E-01 -1.51492E-01
    8991.220     -4.417   1.000  4.41218E-01  5.82134E-01 -1.40916E-01
    8991.531     -4.106   1.040  4.54075E-01  5.95599E-01 -1.41524E-01
    8991.854     -3.783   1.080  4.57925E-01  6.09144E-01 -1.51220E-01
    8992.189     -3.448   1.120  4.59825E-01  6.22763E-01 -1.62938E-01
    8992.537     -3.101   1.160  4.68811E-01  6.36444E-01 -1.67633E-01
    8992.896     -2.741   1.200  4.89753E-01  6.50172E-01 -1.60419E-01
    8993.268     -2.369   1.240  5.18994E-01  6.63969E-01 -1.44976E-01
    8993.652     -1.985   1.280  5.47294E-01  6.77774E-01 -1.30480E-01
    8994.048     -1.589   1.320  5.68433E-01  6.91583E-01 -1.23150E-01
    8994.457     -1.180   1.360  5.81247E-01  7.05391E-01 -1.24143E-01
    8994.877     -0.760   1.400  5.87817E-01  7.19149E-01 -1.31331E-01
    8995.310     -0.327   1.440  5.94497E-01  7.32849E-01 -1.38353E-01
    8995.755      0.118   1.480  6.10416E-01  7.46463E-01 -1.36046E-01
    8996.212      0.575   1.520  6.44097E-01  7.59957E-01 -1.15860E-01
    8996.682      1.045   1.560  6.98244E-01  7.73303E-01 -7.50590E-02
    8997.163      1.526   1.600  7.62129E-01  7.86487E-01 -2.43576E-02
    8997.657      2.020   1.640  8.25182E-01  7.99478E-01  2.57035E-02
    8998.163      2.526   1.680  8.92280E-01  8.12225E-01  8.00552E-02
    8998.681      3.044   1.720  9.66102E-01  8.24735E-01  1.41367E-01
    8999.212      3.574   1.760  1.04474E+00  8.36956E-01  2.07782E-01
    8999.754      4.117   1.800  1.13126E+00  8.48877E-01  2.82379E-01
    9000.309      4.672   1.840  1.22024E+00  8.60487E-01  3.59757E-01
    9000.876      5.239   1.880  1.28801E+00  8.71735E-01  4.16274E-01
    9001.455      5.818   1.920  1.31301E+00  8.82614E-01  4.30395E-01
    9002.046      6.409   1.960  1.30509E+00  8.93093E-01  4.11994E-01
    9002.650      7.013   2.000  1.28493E+00  9.03184E-01  3.81745E-01
    9003.265      7.628   2.040  1.25588E+00  9.12840E-01  3.43041E-01
    9003.893      8.256   2.080  1.21736E+00  9.22075E-01  2.95281E-01
    9004.533      8.896   2.120  1.17836E+00  9.30865E-01  2.47494E-01
    9005.186      9.549   2.160  1.14390E+00  9.39185E-01  2.04714E-01
    9005.850     10.213   2.200  1.11349E+00  9.47052E-01  1.66434E-01
    9006.527     10.890   2.240  1.08970E+00  9.54464E-01  1.35237E-01
    9007.216     11.579   2.280  1.07432E+00  9.61401E-01  1.12924E-01
    9007.917     12.280   2.320  1.06613E+00  9.67880E-01  9.82490E-02
    9008.630     12.993   2.360  1.06159E+00  9.73863E-01  8.77313E-02
    9009.355     13.718   2.400  1.05675E+00  9.79413E-01  7.73410E-02
    9010.093     14.456   2.440  1.04922E+00  9.84494E-01  6.47306E-02
    9010.843     15.206   2.480  1.03926E+00  9.89106E-01  5.01508E-02
    9011.605     15.968   2.520  1.02862E+00  9.93295E-01  3.53242E-02
    9012.379     16.742   2.560  1.02021E+00  9.97048E-01  2.31594E-02
    9013.165     17.528   2.600  1.01644E+00  1.00039E+00  1.60504E-02
    9013.964     18.327   2.640  1.01576E+00  1.00331E+00  1.24580E-02
    9014.775     19.138   2.680  1.01310E+00  1.00585E+00  7.25855E-03
    9015.598     19.960   2.720  1.00265E+00  1.00799E+00 -5.34542E-03
    9016.433     20.796   2.760  9.81918E-01  1.00978E+00 -2.78626E-02
    9017.280     21.643   2.800  9.50493E-01  1.01123E+00 -6.07378E-02
    9018.140     22.502   2.840  9.09909E-01  1.01234E+00 -1.02428E-01
    9019.011     23.374   2.880  8.75797E-01  1.01315E+00 -1.37349E-01
    9019.895     24.258   2.920  8.56402E-01  1.01365E+00 -1.57246E-01
    9020.791     25.154   2.960  8.48238E-01  1.01389E+00 -1.65654E-01
    9021.700     26.063   3.000  8.47687E-01  1.01387E+00 -1.66178E-01
    9022.620     26.983   3.040  8.51661E-01  1.01360E+00 -1.61939E-01
    9023.553     27.916   3.080  8.58862E-01  1.01312E+00 -1.54260E-01
    9024.498     28.861   3.120  8.68746E-01  1.01244E+00 -1.43697E-01
    9025.455     29.818   3.160  8.80678E-01  1.01157E+00 -1.30892E-01
    9026.424     30.787   3.200  8.93938E-01  1.01053E+00 -1.16594E-01
    9027.405     31.768   3.240  9.07691E-01  1.00934E+00 -1.01648E-01
    9028.399     32.762   3.280  9.20913E-01  1.00802E+00 -8.71062E-02
    9029.405     33.768   3.320  9.32619E-01  1.00660E+00 -7.39816E-02
    9030.423     34.786   3.360  9.42506E-01  1.00505E+00 -6.25440E-02
    9031.453     35.816   3.400  9.50971E-01  1.00344E+00 -5.24644E-02
    9032.496     36.859   3.440  9.58646E-01  1.00175E+00 -4.30992E-02
    9033.550     37.913   3.480  9.66275E-01  9.99985E-01 -3.37095E-02
    9034.617     38.980   3.520  9.74222E-01  9.98203E-01 -2.39807E-02
    9035.696     40.059   3.560  9.82201E-01  9.96385E-01 -1.41836E-02
    9036.787     41.150   3.600  9.89659E-01  9.94535E-01 -4.87583E-03
    9037.891     42.253   3.640  9.96366E-01  9.92681E-01  3.68553E-03
    9039.006     43.369   3.680  1.00249E+00  9.90848E-01  1.16402E-02
    9040.134     44.497   3.720  1.00851E+00  9.89000E-01  1.95072E-02
    9041.274     45.637   3.760  1.01508E+00  9.87202E-01  2.78742E-02
    9042.426     46.789   3.800  1.02242E+00  9.85419E-01  3.70035E-02
    9043.590     47.953   3.840  1.03025E+00  9.83674E-01  4.65721E-02
    9044.767     49.130   3.880  1.03784E+00  9.81971E-01  5.58738E-02
    9045.956     50.318   3.920  1.04426E+00  9.80333E-01  6.39232E-02
    9047.156     51.519   3.960  1.04843E+00  9.78745E-01  6.96819E-02
    9048.370     52.732   4.000  1.04970E+00  9.77229E-01  7.24701E-02
    9049.595     53.958   4.040  1.04803E+00  9.75786E-01  7.22422E-02
    9050.832     55.195   4.080  1.04388E+00  9.74401E-01  6.94793E-02
    9052.082     56.445   4.120  1.03803E+00  9.73115E-01  6.49145E-02
    9053.344     57.707   4.160  1.03127E+00  9.71909E-01  5.93625E-02
    9054.618     58.981   4.200  1.02419E+00  9.70785E-01  5.34029E-02
    9055.904     60.267   4.240  1.01715E+00  9.69741E-01  4.74041E-02
    9057.203     61.565   4.280  1.01041E+00  9.68781E-01  4.16298E-02
    9058.513     62.876   4.320  1.00421E+00  9.67927E-01  3.62868E-02
    9059.836     64.199   4.360  9.98639E-01  9.67158E-01  3.14819E-02
    9061.171     65.534   4.400  9.93674E-01  9.66472E-01  2.72020E-02
    9062.518     66.881   4.440  9.89172E-01  9.65893E-01  2.32794E-02
    9063.878     68.241   4.480  9.84810E-01  9.65398E-01  1.94119E-02
    9065.249     69.612   4.520  9.80325E-01  9.64986E-01  1.53393E-02
    9066.633     70.996   4.560  9.75638E-01  9.64657E-01  1.09808E-02
    9068.029     72.392   4.600  9.70871E-01  9.64434E-01  6.43770E-03
    9069.437     73.800   4.640  9.66222E-01  9.64294E-01  1.92867E-03
    9070.858     75.220   4.680  9.61905E-01  9.64233E-01 -2.32842E-03
    9072.290     76.653   4.720  9.58072E-01  9.64252E-01 -6.18042E-03
    9073.735     78.098   4.760  9.54832E-01  9.64352E-01 -9.51951E-03
    9075.192     79.555   4.800  9.52297E-01  9.64528E-01 -1.22314E-02
    9076.661     81.024   4.840  9.50575E-01  9.64781E-01 -1.42053E-02
    9078.142     82.505   4.880  9.49710E-01  9.65107E-01 -1.53971E-02
    9079.636     83.999   4.920  9.49569E-01  9.65482E-01 -1.59122E-02
    9081.142     85.504   4.960  9.49923E-01  9.65905E-01 -1.59822E-02
    9082.659     87.022   5.000  9.50538E-01  9.66396E-01 -1.58583E-02
    9084.189     88.552   5.040  9.51150E-01  9.66954E-01 -1.58036E-02
    9085.732     90.095   5.080  9.51505E-01  9.67533E-01 -1.60280E-02
    9087.286     91.649   5.120  9.51488E-01  9.68172E-01 -1.66836E-02
    9088.853     93.216   5.160  9.50941E-01  9.68826E-01 -1.78852E-02
    9090.432     94.795   5.200  9.49791E-01  9.69515E-01 -1.97245E-02
    9092.023     96.386   5.240  9.47945E-01  9.70238E-01 -2.22926E-02
    9093.626     97.989   5.280  9.45444E-01  9.70969E-01 -2.55252E-02
    9095.241     99.604   5.320  9.42537E-01  9.71728E-01 -2.91910E-02
    9096.869    101.232   5.360  9.39593E-01  9.72490E-01 -3.28963E-02
    9098.509    102.872   5.400  9.37084E-01  9.73229E-01 -3.61449E-02
    9100.161    104.524   5.440  9.35555E-01  9.73989E-01 -3.84341E-02
    9101.825    106.188   5.480  9.35343E-01  9.74747E-01 -3.94045E-02
    9103.502    107.864   5.520  9.36576E-01  9.75476E-01 -3.88995E-02
    9105.190    109.553   5.560  9.39261E-01  9.76196E-01 -3.69354E-02
    9106.891    111.254   5.600  9.43259E-01  9.76885E-01 -3.36264E-02
    9108.604    112.967   5.640  9.48372E-01  9.77561E-01 -2.91895E-02
    9110.329    114.692   5.680  9.54324E-01  9.78200E-01 -2.38761E-02
    9112.066    116.429   5.720  9.60876E-01  9.78776E-01 -1.79001E-02
    9113.816    118.179   5.760  9.67913E-01  9.79335E-01 -1.14212E-02
    9115.578    119.941   5.800  9.75267E-01  9.79850E-01 -4.58273E-03
    9117.352    121.714   5.840  9.82800E-01  9.80298E-01  2.50192E-03
    9119.138    123.501   5.880  9.90428E-01  9.80699E-01  9.72896E-03
    9120.936    125.299   5.920  9.97962E-01  9.81051E-01  1.69107E-02
    9122.747    127.109   5.960  1.00500E+00  9.81345E-01  2.36586E-02
    9124.569    128.932   6.000  1.01096E+00  9.81505E-01  2.94511E-02
