# # comment:                                                     FEFF 9.9.1  
# # Source:
# # Structure
# # Reduced
# # space
# # abc:
# # angles:122.578888
# # sites:
# # POT  SCF 100  7.0000   0, screened core-hole, AFOLP (folp(0)= 1.150)
# # Abs   Z=29 Rmt= 1.338 Rnm= 1.396 K  shell
# # Pot 1 Z=29 Rmt= 1.338 Rnm= 1.396
# # Pot 2 Z=82 Rmt= 1.529 Rnm= 1.608
# # Pot 3 Z= 8 Rmt= 1.074 Rnm= 1.125
# # Gam_ch=1.729E+00 H-L exch Vi= 0.000E+00 Vr= 0.000E+00
# # Mu=-7.201E+00eV kf=2.029E+00 Vint=-1.482E+01eV Rs_int= 1.787
# FMS rfms= 9.0000
# # PATH  Rmax=-1.000,  Keep_limit= 0.00, Heap_limit 0.00  Pwcrit= 2.50%
#  S02=0.950  Temp=   0.00  Debye_temp=   0.00  Global_sig2= 0.00000
#  Energy zero shift, vr, vi    0.00000E+00   0.00000E+00
#  Curved wave amplitude ratio filter   4.000%
#     file         sig2 tot  cw amp ratio   deg  nlegs   reff  inp sig2
#     0/   0 paths used
#  xsedge+ 50, used to normalize mu           2.4506E-04
#  -----------------------------------------------------------------------
#  omega    e    k    mu    mu0     chi     @#
    8983.540    -11.011  -1.000  3.63764E-02  5.51850E-02 -1.88086E-02
    8983.839    -10.712  -0.960  3.79492E-02  5.92001E-02 -2.12510E-02
    8984.125    -10.426  -0.920  3.95978E-02  6.36596E-02 -2.40619E-02
    8984.399    -10.152  -0.880  4.13261E-02  6.86284E-02 -2.73022E-02
    8984.662     -9.889  -0.840  4.31387E-02  7.41819E-02 -3.10432E-02
    8984.912     -9.640  -0.800  4.50401E-02  8.04076E-02 -3.53675E-02
    8985.149     -9.402  -0.760  4.70357E-02  8.74057E-02 -4.03700E-02
    8985.375     -9.176  -0.720  4.91310E-02  9.52893E-02 -4.61583E-02
    8985.588     -8.963  -0.680  5.13317E-02  1.04183E-01 -5.28511E-02
    8985.789     -8.762  -0.640  5.36430E-02  1.14217E-01 -6.05743E-02
    8985.978     -8.573  -0.600  5.60690E-02  1.25521E-01 -6.94524E-02
    8986.155     -8.396  -0.560  5.86106E-02  1.38205E-01 -7.95942E-02
    8986.320     -8.231  -0.520  6.12633E-02  1.52332E-01 -9.10688E-02
    8986.472     -8.079  -0.480  6.40134E-02  1.67888E-01 -1.03875E-01
    8986.612     -7.939  -0.440  6.68343E-02  1.84736E-01 -1.17902E-01
    8986.740     -7.811  -0.400  6.96833E-02  2.02586E-01 -1.32902E-01
    8986.856     -7.695  -0.360  7.25020E-02  2.20978E-01 -1.48476E-01
    8986.960     -7.591  -0.320  7.52201E-02  2.39318E-01 -1.64098E-01
    8987.051     -7.500  -0.280  7.77642E-02  2.56945E-01 -1.79181E-01
    8987.130     -7.421  -0.240  8.00679E-02  2.73221E-01 -1.93154E-01
    8987.198     -7.354  -0.200  8.20785E-02  2.87613E-01 -2.05534E-01
    8987.252     -7.299  -0.160  8.37581E-02  2.99725E-01 -2.15967E-01
    8987.295     -7.256  -0.120  8.50799E-02  3.09304E-01 -2.24225E-01
    8987.326     -7.226  -0.080  8.60263E-02  3.16209E-01 -2.30182E-01
    8987.350     -7.201   0.000  8.67759E-02  3.21757E-01 -2.34981E-01
    8987.405     -7.146   0.120  8.87467E-02  3.34281E-01 -2.45535E-01
    8987.447     -7.104   0.160  9.02069E-02  3.44008E-01 -2.53801E-01
    8987.502     -7.049   0.200  9.20853E-02  3.56452E-01 -2.64366E-01
    8987.569     -6.982   0.240  9.43494E-02  3.71455E-01 -2.77106E-01
    8987.649     -6.902   0.280  9.69464E-02  3.88696E-01 -2.91749E-01
    8987.740     -6.811   0.320  9.99131E-02  4.07797E-01 -3.07884E-01
    8987.844     -6.707   0.360  1.03182E-01  4.28177E-01 -3.24994E-01
    8987.960     -6.592   0.400  1.06816E-01  4.49319E-01 -3.42504E-01
    8988.088     -6.464   0.440  1.10844E-01  4.70654E-01 -3.59810E-01
    8988.228     -6.323   0.480  1.15437E-01  4.91827E-01 -3.76390E-01
    8988.380     -6.171   0.520  1.20683E-01  5.12523E-01 -3.91840E-01
    8988.545     -6.006   0.560  1.26843E-01  5.32644E-01 -4.05801E-01
    8988.722     -5.830   0.600  1.34182E-01  5.52134E-01 -4.17952E-01
    8988.911     -5.641   0.640  1.43013E-01  5.71022E-01 -4.28009E-01
    8989.112     -5.439   0.680  1.53733E-01  5.89375E-01 -4.35642E-01
    8989.325     -5.226   0.720  1.66761E-01  6.07290E-01 -4.40529E-01
    8989.551     -5.000   0.760  1.82509E-01  6.24824E-01 -4.42315E-01
    8989.788     -4.763   0.800  2.01394E-01  6.42041E-01 -4.40647E-01
    8990.038     -4.513   0.840  2.23969E-01  6.58975E-01 -4.35006E-01
    8990.300     -4.251   0.880  2.51090E-01  6.75665E-01 -4.24574E-01
    8990.575     -3.976   0.920  2.83463E-01  6.92135E-01 -4.08672E-01
    8990.861     -3.690   0.960  3.20608E-01  7.08401E-01 -3.87793E-01
    8991.160     -3.391   1.000  3.60485E-01  7.24424E-01 -3.63938E-01
    8991.471     -3.080   1.040  4.01048E-01  7.40220E-01 -3.39172E-01
    8991.794     -2.757   1.080  4.40719E-01  7.55758E-01 -3.15039E-01
    8992.129     -2.422   1.120  4.77891E-01  7.70998E-01 -2.93106E-01
    8992.477     -2.074   1.160  5.12378E-01  7.85940E-01 -2.73561E-01
    8992.836     -1.715   1.200  5.46229E-01  8.00518E-01 -2.54289E-01
    8993.208     -1.343   1.240  5.82886E-01  8.14724E-01 -2.31838E-01
    8993.592     -0.959   1.280  6.29282E-01  8.28533E-01 -1.99251E-01
    8993.988     -0.563   1.320  6.95773E-01  8.41894E-01 -1.46121E-01
    8994.397     -0.154   1.360  7.88758E-01  8.54777E-01 -6.60182E-02
    8994.818      0.266   1.400  9.03738E-01  8.67174E-01  3.65646E-02
    8995.250      0.699   1.440  1.02362E+00  8.79037E-01  1.44579E-01
    8995.695      1.144   1.480  1.12975E+00  8.90381E-01  2.39369E-01
    8996.153      1.601   1.520  1.21776E+00  9.01160E-01  3.16601E-01
    8996.622      2.071   1.560  1.29707E+00  9.11371E-01  3.85701E-01
    8997.103      2.552   1.600  1.38526E+00  9.21010E-01  4.64251E-01
    8997.597      3.046   1.640  1.48366E+00  9.30078E-01  5.53583E-01
    8998.103      3.552   1.680  1.57537E+00  9.38557E-01  6.36816E-01
    8998.621      4.070   1.720  1.65038E+00  9.46449E-01  7.03936E-01
    8999.152      4.601   1.760  1.71829E+00  9.53777E-01  7.64516E-01
    8999.694      5.143   1.800  1.77742E+00  9.60550E-01  8.16875E-01
    9000.249      5.698   1.840  1.78503E+00  9.66752E-01  8.18278E-01
    9000.816      6.265   1.880  1.69730E+00  9.72433E-01  7.24871E-01
    9001.395      6.844   1.920  1.53587E+00  9.77604E-01  5.58264E-01
    9001.986      7.435   1.960  1.36226E+00  9.82253E-01  3.80003E-01
    9002.590      8.039   2.000  1.20659E+00  9.86432E-01  2.20160E-01
    9003.206      8.655   2.040  1.07233E+00  9.90174E-01  8.21585E-02
    9003.833      9.282   2.080  9.68189E-01  9.93469E-01 -2.52800E-02
    9004.474      9.922   2.120  8.98590E-01  9.96351E-01 -9.77616E-02
    9005.126     10.575   2.160  8.55406E-01  9.98852E-01 -1.43447E-01
    9005.790     11.239   2.200  8.30312E-01  1.00098E+00 -1.70672E-01
    9006.467     11.916   2.240  8.22884E-01  1.00278E+00 -1.79897E-01
    9007.156     12.605   2.280  8.29989E-01  1.00428E+00 -1.74287E-01
    9007.857     13.306   2.320  8.45214E-01  1.00546E+00 -1.60245E-01
    9008.570     14.019   2.360  8.63180E-01  1.00641E+00 -1.43226E-01
    9009.295     14.744   2.400  8.85101E-01  1.00709E+00 -1.21987E-01
    9010.033     15.482   2.440  9.12551E-01  1.00758E+00 -9.50251E-02
    9010.783     16.232   2.480  9.35588E-01  1.00784E+00 -7.22519E-02
    9011.545     16.994   2.520  9.45946E-01  1.00795E+00 -6.20082E-02
    9012.319     17.768   2.560  9.47295E-01  1.00791E+00 -6.06106E-02
    9013.105     18.554   2.600  9.42211E-01  1.00770E+00 -6.54926E-02
    9013.904     19.353   2.640  9.31948E-01  1.00740E+00 -7.54520E-02
    9014.715     20.164   2.680  9.17377E-01  1.00698E+00 -8.96048E-02
    9015.538     20.987   2.720  9.00443E-01  1.00648E+00 -1.06037E-01
    9016.373     21.822   2.760  8.82732E-01  1.00592E+00 -1.23187E-01
    9017.220     22.669   2.800  8.65541E-01  1.00529E+00 -1.39747E-01
    9018.080     23.529   2.840  8.50242E-01  1.00461E+00 -1.54370E-01
    9018.951     24.400   2.880  8.38260E-01  1.00392E+00 -1.65662E-01
    9019.835     25.284   2.920  8.30865E-01  1.00320E+00 -1.72332E-01
    9020.731     26.180   2.960  8.28633E-01  1.00247E+00 -1.73833E-01
    9021.640     27.089   3.000  8.30602E-01  1.00173E+00 -1.71132E-01
    9022.560     28.009   3.040  8.36041E-01  1.00100E+00 -1.64962E-01
    9023.493     28.942   3.080  8.44629E-01  1.00028E+00 -1.55649E-01
    9024.438     29.887   3.120  8.56366E-01  9.99606E-01 -1.43240E-01
    9025.395     30.844   3.160  8.71506E-01  9.98946E-01 -1.27440E-01
    9026.364     31.813   3.200  8.90276E-01  9.98300E-01 -1.08024E-01
    9027.346     32.795   3.240  9.12341E-01  9.97714E-01 -8.53730E-02
    9028.339     33.788   3.280  9.36690E-01  9.97170E-01 -6.04800E-02
    9029.345     34.794   3.320  9.62337E-01  9.96668E-01 -3.43305E-02
    9030.363     35.812   3.360  9.88356E-01  9.96209E-01 -7.85373E-03
    9031.393     36.842   3.400  1.01433E+00  9.95817E-01  1.85089E-02
    9032.436     37.885   3.440  1.04029E+00  9.95472E-01  4.48192E-02
    9033.490     38.939   3.480  1.06620E+00  9.95173E-01  7.10238E-02
    9034.557     40.006   3.520  1.09111E+00  9.94942E-01  9.61677E-02
    9035.636     41.085   3.560  1.11345E+00  9.94760E-01  1.18694E-01
    9036.727     42.176   3.600  1.13185E+00  9.94646E-01  1.37209E-01
    9037.831     43.280   3.640  1.14568E+00  9.94578E-01  1.51100E-01
    9038.946     44.395   3.680  1.15535E+00  9.94557E-01  1.60795E-01
    9040.074     45.523   3.720  1.16203E+00  9.94603E-01  1.67425E-01
    9041.214     46.663   3.760  1.16653E+00  9.94695E-01  1.71837E-01
    9042.366     47.815   3.800  1.16879E+00  9.94832E-01  1.73957E-01
    9043.530     48.979   3.840  1.16773E+00  9.95033E-01  1.72696E-01
    9044.707     50.156   3.880  1.16182E+00  9.95255E-01  1.66563E-01
    9045.896     51.345   3.920  1.15009E+00  9.95542E-01  1.54552E-01
    9047.097     52.546   3.960  1.13255E+00  9.95870E-01  1.36678E-01
    9048.310     53.759   4.000  1.11025E+00  9.96236E-01  1.14019E-01
    9049.535     54.984   4.040  1.08456E+00  9.96640E-01  8.79150E-02
    9050.772     56.221   4.080  1.05687E+00  9.97059E-01  5.98134E-02
    9052.022     57.471   4.120  1.02877E+00  9.97532E-01  3.12420E-02
    9053.284     58.733   4.160  1.00176E+00  9.97995E-01  3.76416E-03
    9054.558     60.007   4.200  9.77253E-01  9.98512E-01 -2.12587E-02
    9055.844     61.293   4.240  9.56226E-01  9.99036E-01 -4.28103E-02
    9057.143     62.592   4.280  9.39157E-01  9.99568E-01 -6.04106E-02
    9058.453     63.902   4.320  9.26083E-01  1.00013E+00 -7.40428E-02
    9059.776     65.225   4.360  9.16719E-01  1.00069E+00 -8.39677E-02
    9061.111     66.560   4.400  9.10615E-01  1.00125E+00 -9.06337E-02
    9062.458     67.907   4.440  9.07254E-01  1.00181E+00 -9.45560E-02
    9063.818     69.267   4.480  9.06225E-01  1.00237E+00 -9.61442E-02
    9065.189     70.638   4.520  9.07478E-01  1.00292E+00 -9.54458E-02
    9066.573     72.022   4.560  9.11135E-01  1.00345E+00 -9.23179E-02
    9067.969     73.418   4.600  9.17323E-01  1.00400E+00 -8.66738E-02
    9069.377     74.826   4.640  9.25484E-01  1.00451E+00 -7.90261E-02
    9070.798     76.247   4.680  9.34485E-01  1.00499E+00 -7.05073E-02
    9072.230     77.679   4.720  9.43210E-01  1.00546E+00 -6.22539E-02
    9073.675     79.124   4.760  9.51127E-01  1.00592E+00 -5.47951E-02
    9075.132     80.581   4.800  9.58335E-01  1.00632E+00 -4.79897E-02
    9076.601     82.050   4.840  9.65516E-01  1.00671E+00 -4.11977E-02
    9078.082     83.531   4.880  9.73628E-01  1.00709E+00 -3.34598E-02
    9079.576     85.025   4.920  9.83691E-01  1.00740E+00 -2.37124E-02
    9081.082     86.531   4.960  9.96348E-01  1.00770E+00 -1.13537E-02
    9082.600     88.048   5.000  1.01098E+00  1.00796E+00  3.01625E-03
    9084.130     89.579   5.040  1.02565E+00  1.00818E+00  1.74722E-02
    9085.672     91.121   5.080  1.03804E+00  1.00836E+00  2.96833E-02
    9087.226     92.675   5.120  1.04655E+00  1.00850E+00  3.80573E-02
    9088.793     94.242   5.160  1.05082E+00  1.00859E+00  4.22285E-02
    9090.372     95.821   5.200  1.05121E+00  1.00865E+00  4.25604E-02
    9091.963     97.412   5.240  1.04827E+00  1.00866E+00  3.96152E-02
    9093.566     99.015   5.280  1.04250E+00  1.00863E+00  3.38723E-02
    9095.182    100.631   5.320  1.03446E+00  1.00856E+00  2.58990E-02
    9096.809    102.258   5.360  1.02492E+00  1.00845E+00  1.64647E-02
    9098.449    103.898   5.400  1.01476E+00  1.00833E+00  6.43566E-03
    9100.101    105.550   5.440  1.00471E+00  1.00814E+00 -3.43082E-03
    9101.765    107.214   5.480  9.95396E-01  1.00791E+00 -1.25146E-02
    9103.442    108.891   5.520  9.87348E-01  1.00767E+00 -2.03187E-02
    9105.130    110.579   5.560  9.80946E-01  1.00739E+00 -2.64408E-02
    9106.831    112.280   5.600  9.76760E-01  1.00707E+00 -3.03075E-02
    9108.544    113.993   5.640  9.75776E-01  1.00671E+00 -3.09343E-02
    9110.269    115.718   5.680  9.79078E-01  1.00632E+00 -2.72381E-02
    9112.007    117.455   5.720  9.86957E-01  1.00591E+00 -1.89549E-02
    9113.756    119.205   5.760  9.98238E-01  1.00547E+00 -7.23437E-03
    9115.518    120.967   5.800  1.01094E+00  1.00500E+00  5.94102E-03
    9117.292    122.741   5.840  1.02341E+00  1.00453E+00  1.88877E-02
    9119.078    124.527   5.880  1.03478E+00  1.00404E+00  3.07408E-02
    9120.876    126.325   5.920  1.04461E+00  1.00351E+00  4.10937E-02
    9122.687    128.136   5.960  1.05235E+00  1.00301E+00  4.93385E-02
    9124.509    129.958   6.000  1.05684E+00  1.00247E+00  5.43709E-02
