# # comment:                                                     FEFF 9.9.1  
# # Source:
# # Structure
# # Reduced
# # space
# # abc:
# # angles:
# # sites:
# # POT  SCF 100  7.0000   0, screened core-hole, AFOLP (folp(0)= 1.150)
# # Abs   Z=29 Rmt= 1.126 Rnm= 1.244 K  shell
# # Pot 1 Z=21 Rmt= 1.459 Rnm= 1.539
# # Pot 2 Z=29 Rmt= 1.157 Rnm= 1.261
# # Pot 3 Z= 8 Rmt= 0.981 Rnm= 1.088
# # Gam_ch=1.729E+00 H-L exch Vi= 0.000E+00 Vr= 0.000E+00
# # Mu=-8.845E+00eV kf=2.211E+00 Vint=-1.761E+01eV Rs_int= 1.641
# FMS rfms= 9.0000
# # PATH  Rmax=-1.000,  Keep_limit= 0.00, Heap_limit 0.00  Pwcrit= 2.50%
#  S02=0.950  Temp=   0.00  Debye_temp=   0.00  Global_sig2= 0.00000
#  Energy zero shift, vr, vi    0.00000E+00   0.00000E+00
#  Curved wave amplitude ratio filter   4.000%
#     file         sig2 tot  cw amp ratio   deg  nlegs   reff  inp sig2
#     0/   0 paths used
#  xsedge+ 50, used to normalize mu           2.4531E-04
#  -----------------------------------------------------------------------
#  omega    e    k    mu    mu0     chi     @#
    8984.650    -12.655  -1.000  3.46855E-02  5.40618E-02 -1.93763E-02
    8984.949    -12.356  -0.960  3.65512E-02  5.79819E-02 -2.14307E-02
    8985.235    -12.070  -0.920  3.85834E-02  6.23369E-02 -2.37535E-02
    8985.510    -11.796  -0.880  4.08051E-02  6.71907E-02 -2.63856E-02
    8985.772    -11.533  -0.840  4.32431E-02  7.26177E-02 -2.93746E-02
    8986.022    -11.284  -0.800  4.59283E-02  7.87040E-02 -3.27757E-02
    8986.260    -11.046  -0.760  4.88964E-02  8.55484E-02 -3.66520E-02
    8986.485    -10.820  -0.720  5.21879E-02  9.32626E-02 -4.10747E-02
    8986.698    -10.607  -0.680  5.58471E-02  1.01969E-01 -4.61224E-02
    8986.900    -10.406  -0.640  5.99211E-02  1.11799E-01 -5.18777E-02
    8987.089    -10.217  -0.600  6.44555E-02  1.22878E-01 -5.84222E-02
    8987.265    -10.040  -0.560  6.94890E-02  1.35315E-01 -6.58262E-02
    8987.430     -9.875  -0.520  7.50424E-02  1.49175E-01 -7.41329E-02
    8987.582     -9.723  -0.480  8.11060E-02  1.64444E-01 -8.33376E-02
    8987.723     -9.583  -0.440  8.76239E-02  1.80986E-01 -9.33624E-02
    8987.851     -9.455  -0.400  9.44807E-02  1.98515E-01 -1.04035E-01
    8987.966     -9.339  -0.360  1.01499E-01  2.16579E-01 -1.15080E-01
    8988.070     -9.235  -0.320  1.08454E-01  2.34591E-01 -1.26137E-01
    8988.161     -9.144  -0.280  1.15098E-01  2.51899E-01 -1.36801E-01
    8988.241     -9.065  -0.240  1.21200E-01  2.67875E-01 -1.46675E-01
    8988.308     -8.998  -0.200  1.26572E-01  2.81995E-01 -1.55423E-01
    8988.363     -8.943  -0.160  1.31080E-01  2.93873E-01 -1.62793E-01
    8988.405     -8.900  -0.120  1.34642E-01  3.03264E-01 -1.68622E-01
    8988.436     -8.870  -0.080  1.37212E-01  3.10030E-01 -1.72817E-01
    8988.460     -8.845   0.000  1.39287E-01  3.15466E-01 -1.76179E-01
    8988.515     -8.790   0.120  1.43923E-01  3.27734E-01 -1.83811E-01
    8988.558     -8.748   0.160  1.47505E-01  3.37259E-01 -1.89754E-01
    8988.613     -8.693   0.200  1.52064E-01  3.49424E-01 -1.97360E-01
    8988.680     -8.626   0.240  1.57570E-01  3.64067E-01 -2.06497E-01
    8988.759     -8.546   0.280  1.63910E-01  3.80900E-01 -2.16990E-01
    8988.850     -8.455   0.320  1.70928E-01  3.99476E-01 -2.28548E-01
    8988.954     -8.351   0.360  1.78484E-01  4.19272E-01 -2.40788E-01
    8989.070     -8.236   0.400  1.86409E-01  4.39705E-01 -2.53296E-01
    8989.198     -8.108   0.440  1.94605E-01  4.60283E-01 -2.65678E-01
    8989.338     -7.967   0.480  2.03005E-01  4.80591E-01 -2.77587E-01
    8989.490     -7.815   0.520  2.11526E-01  5.00356E-01 -2.88831E-01
    8989.655     -7.650   0.560  2.20026E-01  5.19462E-01 -2.99436E-01
    8989.832     -7.474   0.600  2.28197E-01  5.37876E-01 -3.09679E-01
    8990.021     -7.285   0.640  2.35642E-01  5.55654E-01 -3.20011E-01
    8990.222     -7.083   0.680  2.42187E-01  5.72848E-01 -3.30660E-01
    8990.435     -6.870   0.720  2.48432E-01  5.89562E-01 -3.41131E-01
    8990.661     -6.644   0.760  2.55856E-01  6.05901E-01 -3.50046E-01
    8990.899     -6.407   0.800  2.65990E-01  6.21919E-01 -3.55928E-01
    8991.148     -6.157   0.840  2.79249E-01  6.37675E-01 -3.58426E-01
    8991.411     -5.895   0.880  2.94300E-01  6.53217E-01 -3.58917E-01
    8991.685     -5.620   0.920  3.09314E-01  6.68601E-01 -3.59286E-01
    8991.971     -5.334   0.960  3.23810E-01  6.83807E-01 -3.59997E-01
    8992.270     -5.035   1.000  3.38547E-01  6.98887E-01 -3.60340E-01
    8992.581     -4.724   1.040  3.53450E-01  7.13824E-01 -3.60374E-01
    8992.904     -4.401   1.080  3.66595E-01  7.28612E-01 -3.62017E-01
    8993.239     -4.066   1.120  3.75779E-01  7.43222E-01 -3.67443E-01
    8993.587     -3.718   1.160  3.82903E-01  7.57656E-01 -3.74753E-01
    8993.947     -3.359   1.200  3.93670E-01  7.71875E-01 -3.78205E-01
    8994.318     -2.987   1.240  4.09064E-01  7.85875E-01 -3.76811E-01
    8994.702     -2.603   1.280  4.20741E-01  7.99610E-01 -3.78869E-01
    8995.099     -2.207   1.320  4.22896E-01  8.13053E-01 -3.90158E-01
    8995.507     -1.798   1.360  4.21665E-01  8.26198E-01 -4.04533E-01
    8995.928     -1.378   1.400  4.25522E-01  8.38994E-01 -4.13472E-01
    8996.361     -0.945   1.440  4.39312E-01  8.51411E-01 -4.12099E-01
    8996.806     -0.500   1.480  4.66588E-01  8.63442E-01 -3.96854E-01
    8997.263     -0.043   1.520  5.08883E-01  8.75057E-01 -3.66174E-01
    8997.732      0.427   1.560  5.65752E-01  8.86249E-01 -3.20497E-01
    8998.214      0.908   1.600  6.34466E-01  8.96972E-01 -2.62506E-01
    8998.707      1.402   1.640  7.06766E-01  9.07219E-01 -2.00453E-01
    8999.213      1.908   1.680  7.75080E-01  9.17004E-01 -1.41924E-01
    8999.732      2.426   1.720  8.49988E-01  9.26286E-01 -7.62976E-02
    9000.262      2.957   1.760  9.36616E-01  9.35061E-01  1.55556E-03
    9000.805      3.499   1.800  1.01716E+00  9.43327E-01  7.38363E-02
    9001.359      4.054   1.840  1.07557E+00  9.51107E-01  1.24458E-01
    9001.926      4.621   1.880  1.10878E+00  9.58361E-01  1.50415E-01
    9002.505      5.200   1.920  1.12602E+00  9.65130E-01  1.60886E-01
    9003.097      5.791   1.960  1.13964E+00  9.71381E-01  1.68256E-01
    9003.700      6.395   2.000  1.16080E+00  9.77158E-01  1.83645E-01
    9004.316      7.010   2.040  1.19306E+00  9.82466E-01  2.10598E-01
    9004.944      7.638   2.080  1.22805E+00  9.87311E-01  2.40743E-01
    9005.584      8.278   2.120  1.26207E+00  9.91682E-01  2.70389E-01
    9006.236      8.931   2.160  1.29122E+00  9.95648E-01  2.95567E-01
    9006.900      9.595   2.200  1.30782E+00  9.99174E-01  3.08650E-01
    9007.577     10.272   2.240  1.31175E+00  1.00229E+00  3.09456E-01
    9008.266     10.961   2.280  1.30617E+00  1.00505E+00  3.01116E-01
    9008.967     11.662   2.320  1.29111E+00  1.00742E+00  2.83687E-01
    9009.680     12.375   2.360  1.27139E+00  1.00947E+00  2.61923E-01
    9010.406     13.100   2.400  1.25603E+00  1.01117E+00  2.44861E-01
    9011.143     13.838   2.440  1.24830E+00  1.01257E+00  2.35727E-01
    9011.893     14.588   2.480  1.25265E+00  1.01369E+00  2.38963E-01
    9012.655     15.350   2.520  1.27274E+00  1.01452E+00  2.58218E-01
    9013.429     16.124   2.560  1.29499E+00  1.01513E+00  2.79865E-01
    9014.216     16.910   2.600  1.29139E+00  1.01550E+00  2.75891E-01
    9015.014     17.709   2.640  1.24202E+00  1.01568E+00  2.26343E-01
    9015.825     18.520   2.680  1.18111E+00  1.01563E+00  1.65476E-01
    9016.648     19.343   2.720  1.12698E+00  1.01542E+00  1.11560E-01
    9017.483     20.178   2.760  1.08611E+00  1.01507E+00  7.10396E-02
    9018.330     21.025   2.800  1.05693E+00  1.01457E+00  4.23624E-02
    9019.190     21.885   2.840  1.03610E+00  1.01396E+00  2.21332E-02
    9020.062     22.756   2.880  1.01995E+00  1.01324E+00  6.71374E-03
    9020.946     23.640   2.920  1.00521E+00  1.01240E+00 -7.19187E-03
    9021.842     24.536   2.960  9.90287E-01  1.01151E+00 -2.12216E-02
    9022.750     25.445   3.000  9.75028E-01  1.01054E+00 -3.55094E-02
    9023.671     26.365   3.040  9.60095E-01  1.00952E+00 -4.94221E-02
    9024.603     27.298   3.080  9.46297E-01  1.00845E+00 -6.21581E-02
    9025.548     28.243   3.120  9.34196E-01  1.00736E+00 -7.31599E-02
    9026.505     29.200   3.160  9.24003E-01  1.00624E+00 -8.22411E-02
    9027.474     30.169   3.200  9.15656E-01  1.00510E+00 -8.94486E-02
    9028.456     31.151   3.240  9.09468E-01  1.00399E+00 -9.45185E-02
    9029.449     32.144   3.280  9.05290E-01  1.00287E+00 -9.75798E-02
    9030.455     33.150   3.320  9.02735E-01  1.00176E+00 -9.90244E-02
    9031.473     34.168   3.360  9.01407E-01  1.00068E+00 -9.92710E-02
    9032.504     35.198   3.400  9.00832E-01  9.99609E-01 -9.87770E-02
    9033.546     36.241   3.440  9.00556E-01  9.98598E-01 -9.80422E-02
    9034.601     37.295   3.480  9.00101E-01  9.97604E-01 -9.75037E-02
    9035.667     38.362   3.520  8.99363E-01  9.96652E-01 -9.72894E-02
    9036.746     39.441   3.560  8.98288E-01  9.95765E-01 -9.74774E-02
    9037.838     40.532   3.600  8.96920E-01  9.94925E-01 -9.80053E-02
    9038.941     41.636   3.640  8.95363E-01  9.94153E-01 -9.87905E-02
    9040.056     42.751   3.680  8.93645E-01  9.93430E-01 -9.97849E-02
    9041.184     43.879   3.720  8.91893E-01  9.92755E-01 -1.00861E-01
    9042.324     45.019   3.760  8.90667E-01  9.92151E-01 -1.01485E-01
    9043.476     46.171   3.800  8.90795E-01  9.91622E-01 -1.00828E-01
    9044.641     47.335   3.840  8.92924E-01  9.91146E-01 -9.82218E-02
    9045.817     48.512   3.880  8.97336E-01  9.90765E-01 -9.34291E-02
    9047.006     49.701   3.920  9.03742E-01  9.90415E-01 -8.66727E-02
    9048.207     50.902   3.960  9.11698E-01  9.90160E-01 -7.84614E-02
    9049.420     52.115   4.000  9.20717E-01  9.89956E-01 -6.92391E-02
    9050.645     53.340   4.040  9.30742E-01  9.89805E-01 -5.90628E-02
    9051.883     54.577   4.080  9.42035E-01  9.89749E-01 -4.77133E-02
    9053.132     55.827   4.120  9.54830E-01  9.89743E-01 -3.49135E-02
    9054.394     57.089   4.160  9.69234E-01  9.89787E-01 -2.05530E-02
    9055.668     58.363   4.200  9.85104E-01  9.89904E-01 -4.79974E-03
    9056.955     59.649   4.240  1.00190E+00  9.90092E-01  1.18045E-02
    9058.253     60.948   4.280  1.01884E+00  9.90328E-01  2.85156E-02
    9059.564     62.258   4.320  1.03507E+00  9.90611E-01  4.44617E-02
    9060.886     63.581   4.360  1.04960E+00  9.90961E-01  5.86378E-02
    9062.221     64.916   4.400  1.06141E+00  9.91354E-01  7.00544E-02
    9063.569     66.263   4.440  1.06982E+00  9.91791E-01  7.80318E-02
    9064.928     67.623   4.480  1.07463E+00  9.92268E-01  8.23641E-02
    9066.300     68.994   4.520  1.07610E+00  9.92785E-01  8.33131E-02
    9067.683     70.378   4.560  1.07500E+00  9.93340E-01  8.16577E-02
    9069.079     71.774   4.600  1.07226E+00  9.93930E-01  7.83314E-02
    9070.488     73.182   4.640  1.06871E+00  9.94533E-01  7.41761E-02
    9071.908     74.603   4.680  1.06478E+00  9.95169E-01  6.96117E-02
    9073.341     76.035   4.720  1.06044E+00  9.95838E-01  6.46046E-02
    9074.785     77.480   4.760  1.05553E+00  9.96516E-01  5.90173E-02
    9076.242     78.937   4.800  1.05031E+00  9.97223E-01  5.30898E-02
    9077.711     80.406   4.840  1.04532E+00  9.97934E-01  4.73817E-02
    9079.193     81.887   4.880  1.04118E+00  9.98647E-01  4.25351E-02
    9080.686     83.381   4.920  1.03841E+00  9.99359E-01  3.90513E-02
    9082.192     84.887   4.960  1.03717E+00  1.00007E+00  3.70989E-02
    9083.710     86.404   5.000  1.03723E+00  1.00078E+00  3.64525E-02
    9085.240     87.935   5.040  1.03805E+00  1.00145E+00  3.65985E-02
    9086.782     89.477   5.080  1.03901E+00  1.00215E+00  3.68601E-02
    9088.337     91.031   5.120  1.03937E+00  1.00279E+00  3.65742E-02
    9089.903     92.598   5.160  1.03868E+00  1.00345E+00  3.52313E-02
    9091.482     94.177   5.200  1.03671E+00  1.00407E+00  3.26409E-02
    9093.073     95.768   5.240  1.03354E+00  1.00466E+00  2.88869E-02
    9094.676     97.371   5.280  1.02932E+00  1.00521E+00  2.41106E-02
    9096.292     98.987   5.320  1.02417E+00  1.00574E+00  1.84261E-02
    9097.919    100.614   5.360  1.01829E+00  1.00624E+00  1.20485E-02
    9099.559    102.254   5.400  1.01210E+00  1.00667E+00  5.43401E-03
    9101.211    103.906   5.440  1.00614E+00  1.00708E+00 -9.41521E-04
    9102.876    105.570   5.480  1.00050E+00  1.00746E+00 -6.95266E-03
    9104.552    107.247   5.520  9.94893E-01  1.00776E+00 -1.28688E-02
    9106.240    108.935   5.560  9.89059E-01  1.00805E+00 -1.89873E-02
    9107.941    110.636   5.600  9.83086E-01  1.00826E+00 -2.51781E-02
    9109.654    112.349   5.640  9.77699E-01  1.00844E+00 -3.07359E-02
    9111.379    114.074   5.680  9.73794E-01  1.00854E+00 -3.47449E-02
    9113.117    115.811   5.720  9.71865E-01  1.00862E+00 -3.67552E-02
    9114.866    117.561   5.760  9.71411E-01  1.00863E+00 -3.72232E-02
    9116.628    119.323   5.800  9.71166E-01  1.00860E+00 -3.74352E-02
    9118.402    121.097   5.840  9.69638E-01  1.00850E+00 -3.88618E-02
    9120.188    122.883   5.880  9.65974E-01  1.00835E+00 -4.23785E-02
    9121.986    124.681   5.920  9.60374E-01  1.00816E+00 -4.77883E-02
    9123.797    126.492   5.960  9.54108E-01  1.00792E+00 -5.38172E-02
    9125.620    128.314   6.000  9.49042E-01  1.00758E+00 -5.85342E-02
