# # comment:                                                     FEFF 9.9.1  
# # Source:
# # Structure
# # Reduced
# # space
# # abc:
# # angles:119.737996
# # sites:
# # POT  SCF 100  7.0000   0, screened core-hole, AFOLP (folp(0)= 1.150)
# # Abs   Z=29 Rmt= 1.274 Rnm= 1.344 K  shell
# # Pot 1 Z= 3 Rmt= 1.293 Rnm= 1.347
# # Pot 2 Z=29 Rmt= 1.274 Rnm= 1.344
# # Pot 3 Z= 5 Rmt= 0.764 Rnm= 0.981
# # Pot 4 Z= 8 Rmt= 0.906 Rnm= 1.054
# # Gam_ch=1.729E+00 H-L exch Vi= 0.000E+00 Vr= 0.000E+00
# # Mu=-6.517E+00eV kf=2.338E+00 Vint=-1.737E+01eV Rs_int= 1.551
# FMS rfms= 9.0000
# # PATH  Rmax=-1.000,  Keep_limit= 0.00, Heap_limit 0.00  Pwcrit= 2.50%
#  S02=0.950  Temp=   0.00  Debye_temp=   0.00  Global_sig2= 0.00000
#  Energy zero shift, vr, vi    0.00000E+00   0.00000E+00
#  Curved wave amplitude ratio filter   4.000%
#     file         sig2 tot  cw amp ratio   deg  nlegs   reff  inp sig2
#     0/   0 paths used
#  xsedge+ 50, used to normalize mu           2.4751E-04
#  -----------------------------------------------------------------------
#  omega    e    k    mu    mu0     chi     @#
    8983.774    -10.327  -1.000  4.80846E-02  5.60299E-02 -7.94536E-03
    8984.073    -10.028  -0.960  5.12694E-02  6.01923E-02 -8.92296E-03
    8984.359     -9.742  -0.920  5.47974E-02  6.48272E-02 -1.00298E-02
    8984.634     -9.467  -0.880  5.87228E-02  7.00050E-02 -1.12822E-02
    8984.896     -9.205  -0.840  6.31099E-02  7.58081E-02 -1.26982E-02
    8985.146     -8.955  -0.800  6.80346E-02  8.23319E-02 -1.42973E-02
    8985.383     -8.718  -0.760  7.35857E-02  8.96860E-02 -1.61003E-02
    8985.609     -8.492  -0.720  7.98661E-02  9.79945E-02 -1.81285E-02
    8985.822     -8.279  -0.680  8.69910E-02  1.07394E-01 -2.04034E-02
    8986.023     -8.077  -0.640  9.50852E-02  1.18030E-01 -2.29450E-02
    8986.212     -7.888  -0.600  1.04275E-01  1.30044E-01 -2.57698E-02
    8986.389     -7.712  -0.560  1.14671E-01  1.43559E-01 -2.88875E-02
    8986.554     -7.547  -0.520  1.26350E-01  1.58647E-01 -3.22970E-02
    8986.706     -7.395  -0.480  1.39314E-01  1.75294E-01 -3.59805E-02
    8986.846     -7.254  -0.440  1.53455E-01  1.93354E-01 -3.98989E-02
    8986.974     -7.126  -0.400  1.68520E-01  2.12509E-01 -4.39885E-02
    8987.090     -7.011  -0.360  1.84096E-01  2.32259E-01 -4.81632E-02
    8987.194     -6.907  -0.320  1.99633E-01  2.51956E-01 -5.23229E-02
    8987.285     -6.816  -0.280  2.14516E-01  2.70880E-01 -5.63640E-02
    8987.365     -6.736  -0.240  2.28154E-01  2.88340E-01 -6.01858E-02
    8987.432     -6.669  -0.200  2.40070E-01  3.03760E-01 -6.36898E-02
    8987.486     -6.614  -0.160  2.49949E-01  3.16722E-01 -6.67724E-02
    8987.529     -6.572  -0.120  2.57638E-01  3.26960E-01 -6.93218E-02
    8987.560     -6.541  -0.080  2.63101E-01  3.34331E-01 -7.12304E-02
    8987.584     -6.517   0.000  2.67428E-01  3.40250E-01 -7.28221E-02
    8987.639     -6.462   0.120  2.76443E-01  3.53591E-01 -7.71474E-02
    8987.681     -6.419   0.160  2.83326E-01  3.63934E-01 -8.06082E-02
    8987.736     -6.364   0.200  2.91748E-01  3.77121E-01 -8.53732E-02
    8987.803     -6.297   0.240  3.01270E-01  3.92975E-01 -9.17051E-02
    8987.883     -6.218   0.280  3.11169E-01  4.11114E-01 -9.99449E-02
    8987.974     -6.127   0.320  3.20598E-01  4.31065E-01 -1.10468E-01
    8988.078     -6.023   0.360  3.28672E-01  4.52201E-01 -1.23529E-01
    8988.194     -5.907   0.400  3.34785E-01  4.73873E-01 -1.39088E-01
    8988.322     -5.779   0.440  3.38801E-01  4.95477E-01 -1.56676E-01
    8988.462     -5.639   0.480  3.41170E-01  5.16578E-01 -1.75408E-01
    8988.614     -5.487   0.520  3.42554E-01  5.36845E-01 -1.94291E-01
    8988.779     -5.322   0.560  3.43705E-01  5.56168E-01 -2.12463E-01
    8988.956     -5.145   0.600  3.45323E-01  5.74514E-01 -2.29191E-01
    8989.145     -4.956   0.640  3.48263E-01  5.91911E-01 -2.43649E-01
    8989.346     -4.755   0.680  3.53691E-01  6.08508E-01 -2.54817E-01
    8989.559     -4.542   0.720  3.62284E-01  6.24370E-01 -2.62086E-01
    8989.785     -4.316   0.760  3.73612E-01  6.39620E-01 -2.66009E-01
    8990.022     -4.078   0.800  3.86116E-01  6.54374E-01 -2.68258E-01
    8990.272     -3.829   0.840  3.98320E-01  6.68711E-01 -2.70391E-01
    8990.534     -3.566   0.880  4.10247E-01  6.82698E-01 -2.72451E-01
    8990.809     -3.292   0.920  4.24165E-01  6.96385E-01 -2.72220E-01
    8991.095     -3.006   0.960  4.43795E-01  7.09830E-01 -2.66035E-01
    8991.394     -2.707   1.000  4.72528E-01  7.23039E-01 -2.50511E-01
    8991.705     -2.396   1.040  5.12282E-01  7.36048E-01 -2.23766E-01
    8992.028     -2.073   1.080  5.61222E-01  7.48843E-01 -1.87621E-01
    8992.363     -1.738   1.120  6.11729E-01  7.61469E-01 -1.49740E-01
    8992.711     -1.390   1.160  6.55451E-01  7.73897E-01 -1.18446E-01
    8993.070     -1.030   1.200  6.92868E-01  7.86139E-01 -9.32711E-02
    8993.442     -0.659   1.240  7.33168E-01  7.98159E-01 -6.49908E-02
    8993.826     -0.275   1.280  7.85620E-01  8.09942E-01 -2.43225E-02
    8994.222      0.122   1.320  8.49597E-01  8.21508E-01  2.80890E-02
    8994.631      0.530   1.360  9.13423E-01  8.32796E-01  8.06268E-02
    8995.052      0.951   1.400  9.63681E-01  8.43846E-01  1.19835E-01
    8995.484      1.384   1.440  9.95990E-01  8.54591E-01  1.41399E-01
    8995.929      1.829   1.480  1.01835E+00  8.65030E-01  1.53315E-01
    8996.387      2.286   1.520  1.03956E+00  8.75158E-01  1.64401E-01
    8996.856      2.755   1.560  1.07043E+00  8.84929E-01  1.85504E-01
    8997.338      3.237   1.600  1.12671E+00  8.94362E-01  2.32349E-01
    8997.831      3.730   1.640  1.20714E+00  9.03452E-01  3.03685E-01
    8998.337      4.236   1.680  1.27462E+00  9.12156E-01  3.62465E-01
    8998.855      4.755   1.720  1.29569E+00  9.20470E-01  3.75224E-01
    8999.386      5.285   1.760  1.28754E+00  9.28415E-01  3.59122E-01
    8999.928      5.827   1.800  1.27446E+00  9.35966E-01  3.38493E-01
    9000.483      6.382   1.840  1.25021E+00  9.43105E-01  3.07104E-01
    9001.050      6.949   1.880  1.21928E+00  9.49850E-01  2.69428E-01
    9001.629      7.528   1.920  1.19572E+00  9.56183E-01  2.39537E-01
    9002.220      8.120   1.960  1.18208E+00  9.62127E-01  2.19955E-01
    9002.824      8.723   2.000  1.16593E+00  9.67683E-01  1.98247E-01
    9003.440      9.339   2.040  1.13690E+00  9.72855E-01  1.64046E-01
    9004.067      9.967   2.080  1.09495E+00  9.77626E-01  1.17327E-01
    9004.708     10.607   2.120  1.04342E+00  9.82021E-01  6.14001E-02
    9005.360     11.259   2.160  9.94564E-01  9.86064E-01  8.50039E-03
    9006.024     11.923   2.200  9.63793E-01  9.89742E-01 -2.59492E-02
    9006.701     12.600   2.240  9.57251E-01  9.93058E-01 -3.58073E-02
    9007.390     13.289   2.280  9.72029E-01  9.96060E-01 -2.40315E-02
    9008.091     13.990   2.320  9.99437E-01  9.98716E-01  7.20871E-04
    9008.804     14.703   2.360  1.03036E+00  1.00109E+00  2.92640E-02
    9009.529     15.429   2.400  1.05868E+00  1.00316E+00  5.55250E-02
    9010.267     16.166   2.440  1.07882E+00  1.00493E+00  7.38852E-02
    9011.017     16.916   2.480  1.08804E+00  1.00645E+00  8.15909E-02
    9011.779     17.678   2.520  1.08993E+00  1.00772E+00  8.22032E-02
    9012.553     18.452   2.560  1.08784E+00  1.00875E+00  7.90935E-02
    9013.339     19.239   2.600  1.07963E+00  1.00956E+00  7.00653E-02
    9014.138     20.037   2.640  1.06153E+00  1.01014E+00  5.13853E-02
    9014.949     20.848   2.680  1.03505E+00  1.01055E+00  2.45043E-02
    9015.772     21.671   2.720  1.00625E+00  1.01078E+00 -4.53645E-03
    9016.607     22.506   2.760  9.82278E-01  1.01085E+00 -2.85714E-02
    9017.454     23.353   2.800  9.63462E-01  1.01076E+00 -4.72971E-02
    9018.314     24.213   2.840  9.46218E-01  1.01054E+00 -6.43193E-02
    9019.185     25.085   2.880  9.30619E-01  1.01019E+00 -7.95710E-02
    9020.069     25.969   2.920  9.17211E-01  1.00972E+00 -9.25125E-02
    9020.966     26.865   2.960  9.06340E-01  1.00915E+00 -1.02806E-01
    9021.874     27.773   3.000  8.98337E-01  1.00850E+00 -1.10168E-01
    9022.794     28.693   3.040  8.93012E-01  1.00778E+00 -1.14772E-01
    9023.727     29.626   3.080  8.90179E-01  1.00701E+00 -1.16830E-01
    9024.672     30.571   3.120  8.89713E-01  1.00617E+00 -1.16453E-01
    9025.629     31.528   3.160  8.91325E-01  1.00528E+00 -1.13952E-01
    9026.598     32.497   3.200  8.94461E-01  1.00435E+00 -1.09887E-01
    9027.580     33.479   3.240  8.98703E-01  1.00341E+00 -1.04702E-01
    9028.573     34.472   3.280  9.03895E-01  1.00243E+00 -9.85364E-02
    9029.579     35.478   3.320  9.09770E-01  1.00145E+00 -9.16809E-02
    9030.597     36.496   3.360  9.16370E-01  1.00047E+00 -8.40981E-02
    9031.627     37.527   3.400  9.23846E-01  9.99487E-01 -7.56414E-02
    9032.670     38.569   3.440  9.32342E-01  9.98531E-01 -6.61891E-02
    9033.724     39.624   3.480  9.41998E-01  9.97580E-01 -5.55822E-02
    9034.791     40.690   3.520  9.52959E-01  9.96637E-01 -4.36780E-02
    9035.870     41.769   3.560  9.65194E-01  9.95727E-01 -3.05324E-02
    9036.961     42.861   3.600  9.78313E-01  9.94853E-01 -1.65397E-02
    9038.065     43.964   3.640  9.91905E-01  9.94015E-01 -2.10945E-03
    9039.180     45.079   3.680  1.00545E+00  9.93215E-01  1.22319E-02
    9040.308     46.207   3.720  1.01828E+00  9.92455E-01  2.58249E-02
    9041.448     47.347   3.760  1.02971E+00  9.91736E-01  3.79733E-02
    9042.600     48.499   3.800  1.03903E+00  9.91058E-01  4.79748E-02
    9043.764     49.664   3.840  1.04554E+00  9.90422E-01  5.51190E-02
    9044.941     50.840   3.880  1.04885E+00  9.89851E-01  5.89952E-02
    9046.130     52.029   3.920  1.04898E+00  9.89327E-01  5.96537E-02
    9047.331     53.230   3.960  1.04645E+00  9.88845E-01  5.76094E-02
    9048.544     54.443   4.000  1.04213E+00  9.88408E-01  5.37227E-02
    9049.769     55.668   4.040  1.03715E+00  9.88038E-01  4.91071E-02
    9051.006     56.906   4.080  1.03249E+00  9.87714E-01  4.47789E-02
    9052.256     58.155   4.120  1.02895E+00  9.87457E-01  4.14941E-02
    9053.518     59.417   4.160  1.02682E+00  9.87225E-01  3.95962E-02
    9054.792     60.691   4.200  1.02603E+00  9.87079E-01  3.89532E-02
    9056.078     61.978   4.240  1.02597E+00  9.86954E-01  3.90204E-02
    9057.377     63.276   4.280  1.02593E+00  9.86873E-01  3.90583E-02
    9058.687     64.587   4.320  1.02528E+00  9.86858E-01  3.84250E-02
    9060.010     65.909   4.360  1.02356E+00  9.86885E-01  3.66719E-02
    9061.345     67.244   4.400  1.02060E+00  9.86953E-01  3.36512E-02
    9062.692     68.592   4.440  1.01662E+00  9.87061E-01  2.95571E-02
    9064.052     69.951   4.480  1.01209E+00  9.87208E-01  2.48825E-02
    9065.423     71.323   4.520  1.00769E+00  9.87394E-01  2.02927E-02
    9066.807     72.706   4.560  1.00406E+00  9.87616E-01  1.64423E-02
    9068.203     74.102   4.600  1.00159E+00  9.87853E-01  1.37332E-02
    9069.611     75.511   4.640  1.00034E+00  9.88145E-01  1.21952E-02
    9071.032     76.931   4.680  9.99949E-01  9.88449E-01  1.15005E-02
    9072.464     78.363   4.720  9.99789E-01  9.88762E-01  1.10263E-02
    9073.909     79.808   4.760  9.99146E-01  9.89107E-01  1.00393E-02
    9075.366     81.265   4.800  9.97487E-01  9.89481E-01  8.00551E-03
    9076.835     82.734   4.840  9.94662E-01  9.89863E-01  4.79930E-03
    9078.316     84.216   4.880  9.90948E-01  9.90249E-01  6.99243E-04
    9079.810     85.709   4.920  9.86796E-01  9.90659E-01 -3.86331E-03
    9081.316     87.215   4.960  9.82477E-01  9.91050E-01 -8.57274E-03
    9082.834     88.733   5.000  9.78189E-01  9.91464E-01 -1.32750E-02
    9084.364     90.263   5.040  9.74000E-01  9.91876E-01 -1.78760E-02
    9085.906     91.805   5.080  9.69992E-01  9.92265E-01 -2.22729E-02
    9087.460     93.360   5.120  9.66330E-01  9.92671E-01 -2.63405E-02
    9089.027     94.926   5.160  9.63048E-01  9.93051E-01 -3.00027E-02
    9090.606     96.505   5.200  9.60167E-01  9.93423E-01 -3.32557E-02
    9092.197     98.096   5.240  9.57562E-01  9.93765E-01 -3.62034E-02
    9093.800     99.699   5.280  9.55088E-01  9.94100E-01 -3.90116E-02
    9095.416    101.315   5.320  9.52605E-01  9.94426E-01 -4.18211E-02
    9097.043    102.942   5.360  9.50109E-01  9.94718E-01 -4.46086E-02
    9098.683    104.582   5.400  9.47908E-01  9.94977E-01 -4.70689E-02
    9100.335    106.234   5.440  9.46570E-01  9.95223E-01 -4.86530E-02
    9101.999    107.898   5.480  9.46709E-01  9.95433E-01 -4.87243E-02
    9103.676    109.575   5.520  9.48853E-01  9.95609E-01 -4.67554E-02
    9105.364    111.263   5.560  9.53285E-01  9.95768E-01 -4.24836E-02
    9107.065    112.964   5.600  9.59911E-01  9.95868E-01 -3.59570E-02
    9108.778    114.677   5.640  9.68470E-01  9.95951E-01 -2.74812E-02
    9110.503    116.402   5.680  9.78495E-01  9.95999E-01 -1.75032E-02
    9112.241    118.140   5.720  9.89453E-01  9.96007E-01 -6.55351E-03
    9113.990    119.889   5.760  1.00072E+00  9.95975E-01  4.74057E-03
    9115.752    121.651   5.800  1.01154E+00  9.95904E-01  1.56389E-02
    9117.526    123.425   5.840  1.02117E+00  9.95795E-01  2.53777E-02
    9119.312    125.211   5.880  1.02896E+00  9.95650E-01  3.33118E-02
    9121.110    127.009   5.920  1.03454E+00  9.95491E-01  3.90471E-02
    9122.921    128.820   5.960  1.03767E+00  9.95268E-01  4.23985E-02
    9124.743    130.643   6.000  1.03814E+00  9.94980E-01  4.31633E-02
