# # comment:                                                     FEFF 9.9.1  
# # Source:
# # Structure
# # Reduced
# # space
# # abc:
# # angles:109.484116
# # sites:
# # POT  SCF 100  7.0000   0, screened core-hole, AFOLP (folp(0)= 1.150)
# # Abs   Z=29 Rmt= 1.239 Rnm= 1.360 K  shell
# # Pot 1 Z=57 Rmt= 1.806 Rnm= 1.884
# # Pot 2 Z=29 Rmt= 1.226 Rnm= 1.361
# # Pot 3 Z=42 Rmt= 1.158 Rnm= 1.361
# # Pot 4 Z= 8 Rmt= 0.980 Rnm= 1.085
# # Gam_ch=1.729E+00 H-L exch Vi= 0.000E+00 Vr= 0.000E+00
# # Mu=-6.007E+00eV kf=2.234E+00 Vint=-1.645E+01eV Rs_int= 1.624
# FMS rfms= 9.0000
# # PATH  Rmax=-1.000,  Keep_limit= 0.00, Heap_limit 0.00  Pwcrit= 2.50%
#  S02=0.950  Temp=   0.00  Debye_temp=   0.00  Global_sig2= 0.00000
#  Energy zero shift, vr, vi    0.00000E+00   0.00000E+00
#  Curved wave amplitude ratio filter   4.000%
#     file         sig2 tot  cw amp ratio   deg  nlegs   reff  inp sig2
#     0/   0 paths used
#  xsedge+ 50, used to normalize mu           2.4658E-04
#  -----------------------------------------------------------------------
#  omega    e    k    mu    mu0     chi     @#
    8983.801     -9.817  -1.000  5.06082E-02  5.76191E-02 -7.01098E-03
    8984.100     -9.519  -0.960  5.40144E-02  6.19332E-02 -7.91882E-03
    8984.386     -9.232  -0.920  5.77728E-02  6.67389E-02 -8.96608E-03
    8984.661     -8.958  -0.880  6.19330E-02  7.21096E-02 -1.01766E-02
    8984.923     -8.696  -0.840  6.65525E-02  7.81311E-02 -1.15786E-02
    8985.173     -8.446  -0.800  7.16978E-02  8.49027E-02 -1.32049E-02
    8985.411     -8.208  -0.760  7.74448E-02  9.25386E-02 -1.50938E-02
    8985.636     -7.982  -0.720  8.38792E-02  1.01168E-01 -1.72889E-02
    8985.849     -7.769  -0.680  9.10950E-02  1.10934E-01 -1.98387E-02
    8986.051     -7.568  -0.640  9.91908E-02  1.21986E-01 -2.27952E-02
    8986.240     -7.379  -0.600  1.08263E-01  1.34474E-01 -2.62102E-02
    8986.416     -7.202  -0.560  1.18394E-01  1.48523E-01 -3.01294E-02
    8986.581     -7.038  -0.520  1.29629E-01  1.64211E-01 -3.45819E-02
    8986.733     -6.885  -0.480  1.41956E-01  1.81523E-01 -3.95675E-02
    8986.874     -6.745  -0.440  1.55266E-01  2.00306E-01 -4.50399E-02
    8987.002     -6.617  -0.400  1.69335E-01  2.20230E-01 -5.08945E-02
    8987.117     -6.501  -0.360  1.83811E-01  2.40775E-01 -5.69635E-02
    8987.221     -6.397  -0.320  1.98237E-01  2.61265E-01 -6.30289E-02
    8987.312     -6.306  -0.280  2.12102E-01  2.80953E-01 -6.88507E-02
    8987.392     -6.227  -0.240  2.24915E-01  2.99118E-01 -7.42027E-02
    8987.459     -6.160  -0.200  2.36258E-01  3.15161E-01 -7.89028E-02
    8987.514     -6.105  -0.160  2.45820E-01  3.28647E-01 -8.28267E-02
    8987.556     -6.062  -0.120  2.53394E-01  3.39300E-01 -8.59059E-02
    8987.587     -6.032  -0.080  2.58856E-01  3.46969E-01 -8.81129E-02
    8987.611     -6.007   0.000  2.63237E-01  3.53127E-01 -8.98899E-02
    8987.666     -5.952   0.120  2.73177E-01  3.66997E-01 -9.38207E-02
    8987.709     -5.910   0.160  2.80936E-01  3.77767E-01 -9.68309E-02
    8987.764     -5.855   0.200  2.90885E-01  3.91500E-01 -1.00615E-01
    8987.831     -5.788   0.240  3.02922E-01  4.07994E-01 -1.05072E-01
    8987.910     -5.709   0.280  3.16811E-01  4.26873E-01 -1.10062E-01
    8988.001     -5.617   0.320  3.32212E-01  4.47625E-01 -1.15413E-01
    8988.105     -5.514   0.360  3.48691E-01  4.69619E-01 -1.20927E-01
    8988.221     -5.398   0.400  3.65714E-01  4.92161E-01 -1.26447E-01
    8988.349     -5.270   0.440  3.82827E-01  5.14641E-01 -1.31814E-01
    8988.489     -5.129   0.480  3.99733E-01  5.36586E-01 -1.36854E-01
    8988.641     -4.977   0.520  4.16328E-01  5.57674E-01 -1.41346E-01
    8988.806     -4.812   0.560  4.32668E-01  5.77747E-01 -1.45080E-01
    8988.983     -4.636   0.600  4.48730E-01  5.96793E-01 -1.48063E-01
    8989.172     -4.447   0.640  4.64417E-01  6.14857E-01 -1.50440E-01
    8989.373     -4.246   0.680  4.79990E-01  6.32050E-01 -1.52060E-01
    8989.586     -4.032   0.720  4.96363E-01  6.48463E-01 -1.52100E-01
    8989.812     -3.807   0.760  5.14986E-01  6.64222E-01 -1.49236E-01
    8990.050     -3.569   0.800  5.37048E-01  6.79423E-01 -1.42375E-01
    8990.299     -3.319   0.840  5.62712E-01  6.94151E-01 -1.31439E-01
    8990.562     -3.057   0.880  5.90768E-01  7.08470E-01 -1.17702E-01
    8990.836     -2.783   0.920  6.18734E-01  7.22432E-01 -1.03698E-01
    8991.122     -2.496   0.960  6.43258E-01  7.36117E-01 -9.28590E-02
    8991.421     -2.197   1.000  6.61005E-01  7.49491E-01 -8.84863E-02
    8991.732     -1.886   1.040  6.70623E-01  7.62609E-01 -9.19856E-02
    8992.055     -1.563   1.080  6.74402E-01  7.75479E-01 -1.01077E-01
    8992.390     -1.228   1.120  6.78203E-01  7.88081E-01 -1.09879E-01
    8992.738     -0.881   1.160  6.88327E-01  8.00431E-01 -1.12104E-01
    8993.098     -0.521   1.200  7.07630E-01  8.12518E-01 -1.04888E-01
    8993.469     -0.149   1.240  7.34862E-01  8.24327E-01 -8.94657E-02
    8993.853      0.235   1.280  7.66344E-01  8.35843E-01 -6.94986E-02
    8994.250      0.631   1.320  7.96354E-01  8.47067E-01 -5.07134E-02
    8994.658      1.040   1.360  8.17647E-01  8.57958E-01 -4.03112E-02
    8995.079      1.460   1.400  8.27070E-01  8.68536E-01 -4.14658E-02
    8995.512      1.893   1.440  8.30725E-01  8.78737E-01 -4.80117E-02
    8995.957      2.338   1.480  8.38596E-01  8.88579E-01 -4.99838E-02
    8996.414      2.795   1.520  8.55217E-01  8.98062E-01 -4.28451E-02
    8996.883      3.265   1.560  8.80294E-01  9.07140E-01 -2.68460E-02
    8997.365      3.746   1.600  9.12928E-01  9.15833E-01 -2.90571E-03
    8997.859      4.240   1.640  9.54829E-01  9.24120E-01  3.07089E-02
    8998.364      4.746   1.680  1.01182E+00  9.31999E-01  7.98241E-02
    8998.883      5.264   1.720  1.08303E+00  9.39451E-01  1.43576E-01
    8999.413      5.794   1.760  1.15383E+00  9.46476E-01  2.07350E-01
    8999.956      6.337   1.800  1.20402E+00  9.53115E-01  2.50900E-01
    9000.510      6.892   1.840  1.22119E+00  9.59310E-01  2.61882E-01
    9001.077      7.459   1.880  1.21108E+00  9.65105E-01  2.45973E-01
    9001.656      8.038   1.920  1.19114E+00  9.70483E-01  2.20653E-01
    9002.248      8.629   1.960  1.17535E+00  9.75469E-01  1.99876E-01
    9002.851      9.233   2.000  1.17125E+00  9.80047E-01  1.91206E-01
    9003.467      9.848   2.040  1.17682E+00  9.84264E-01  1.92554E-01
    9004.095     10.476   2.080  1.17962E+00  9.88106E-01  1.91511E-01
    9004.735     11.116   2.120  1.17377E+00  9.91579E-01  1.82192E-01
    9005.387     11.769   2.160  1.16168E+00  9.94688E-01  1.66991E-01
    9006.051     12.433   2.200  1.14857E+00  9.97485E-01  1.51090E-01
    9006.728     13.110   2.240  1.13742E+00  9.99976E-01  1.37445E-01
    9007.417     13.799   2.280  1.12623E+00  1.00215E+00  1.24083E-01
    9008.118     14.500   2.320  1.11080E+00  1.00403E+00  1.06775E-01
    9008.831     15.213   2.360  1.08872E+00  1.00563E+00  8.30897E-02
    9009.557     15.938   2.400  1.06091E+00  1.00699E+00  5.39212E-02
    9010.294     16.676   2.440  1.03116E+00  1.00809E+00  2.30662E-02
    9011.044     17.426   2.480  1.00507E+00  1.00899E+00 -3.92683E-03
    9011.806     18.188   2.520  9.87189E-01  1.00967E+00 -2.24778E-02
    9012.580     18.962   2.560  9.78828E-01  1.01016E+00 -3.13303E-02
    9013.367     19.748   2.600  9.79183E-01  1.01046E+00 -3.12742E-02
    9014.165     20.547   2.640  9.83091E-01  1.01059E+00 -2.74977E-02
    9014.976     21.358   2.680  9.82713E-01  1.01058E+00 -2.78701E-02
    9015.799     22.180   2.720  9.78246E-01  1.01045E+00 -3.21998E-02
    9016.634     23.016   2.760  9.72730E-01  1.01017E+00 -3.74355E-02
    9017.481     23.863   2.800  9.68035E-01  1.00981E+00 -4.17729E-02
    9018.341     24.722   2.840  9.64880E-01  1.00932E+00 -4.44401E-02
    9019.213     25.594   2.880  9.62870E-01  1.00877E+00 -4.58986E-02
    9020.097     26.478   2.920  9.61199E-01  1.00814E+00 -4.69399E-02
    9020.993     27.374   2.960  9.59479E-01  1.00746E+00 -4.79777E-02
    9021.901     28.283   3.000  9.57552E-01  1.00673E+00 -4.91751E-02
    9022.822     29.203   3.040  9.55543E-01  1.00594E+00 -5.03923E-02
    9023.754     30.136   3.080  9.53774E-01  1.00513E+00 -5.13526E-02
    9024.699     31.081   3.120  9.52543E-01  1.00430E+00 -5.17617E-02
    9025.656     32.038   3.160  9.51875E-01  1.00345E+00 -5.15798E-02
    9026.625     33.007   3.200  9.51571E-01  1.00260E+00 -5.10274E-02
    9027.607     33.988   3.240  9.51245E-01  1.00174E+00 -5.04952E-02
    9028.601     34.982   3.280  9.50467E-01  1.00088E+00 -5.04174E-02
    9029.606     35.988   3.320  9.49042E-01  1.00005E+00 -5.10128E-02
    9030.624     37.006   3.360  9.47053E-01  9.99232E-01 -5.21793E-02
    9031.655     38.036   3.400  9.44895E-01  9.98439E-01 -5.35441E-02
    9032.697     39.079   3.440  9.43119E-01  9.97659E-01 -5.45397E-02
    9033.752     40.133   3.480  9.42321E-01  9.96914E-01 -5.45928E-02
    9034.818     41.200   3.520  9.42998E-01  9.96226E-01 -5.32287E-02
    9035.897     42.279   3.560  9.45299E-01  9.95557E-01 -5.02576E-02
    9036.989     43.370   3.600  9.49210E-01  9.94925E-01 -4.57151E-02
    9038.092     44.473   3.640  9.54572E-01  9.94334E-01 -3.97616E-02
    9039.207     45.589   3.680  9.61102E-01  9.93784E-01 -3.26822E-02
    9040.335     46.717   3.720  9.68452E-01  9.93298E-01 -2.48462E-02
    9041.475     47.857   3.760  9.76318E-01  9.92857E-01 -1.65390E-02
    9042.627     49.009   3.800  9.84551E-01  9.92458E-01 -7.90712E-03
    9043.792     50.173   3.840  9.93067E-01  9.92102E-01  9.65939E-04
    9044.968     51.350   3.880  1.00183E+00  9.91788E-01  1.00419E-02
    9046.157     52.538   3.920  1.01073E+00  9.91540E-01  1.91854E-02
    9047.358     53.739   3.960  1.01931E+00  9.91337E-01  2.79754E-02
    9048.571     54.952   4.000  1.02697E+00  9.91176E-01  3.57913E-02
    9049.796     56.178   4.040  1.03303E+00  9.91058E-01  4.19707E-02
    9051.034     57.415   4.080  1.03704E+00  9.91005E-01  4.60370E-02
    9052.283     58.665   4.120  1.03885E+00  9.90972E-01  4.78827E-02
    9053.545     59.927   4.160  1.03878E+00  9.91002E-01  4.77801E-02
    9054.819     61.201   4.200  1.03725E+00  9.91074E-01  4.61756E-02
    9056.106     62.487   4.240  1.03476E+00  9.91183E-01  4.35723E-02
    9057.404     63.786   4.280  1.03177E+00  9.91310E-01  4.04620E-02
    9058.715     65.096   4.320  1.02869E+00  9.91496E-01  3.71983E-02
    9060.037     66.419   4.360  1.02560E+00  9.91720E-01  3.38794E-02
    9061.372     67.754   4.400  1.02240E+00  9.91958E-01  3.04408E-02
    9062.720     69.101   4.440  1.01902E+00  9.92229E-01  2.67888E-02
    9064.079     70.461   4.480  1.01549E+00  9.92533E-01  2.29599E-02
    9065.451     71.832   4.520  1.01198E+00  9.92847E-01  1.91313E-02
    9066.834     73.216   4.560  1.00878E+00  9.93191E-01  1.55846E-02
    9068.230     74.612   4.600  1.00612E+00  9.93542E-01  1.25811E-02
    9069.639     76.020   4.640  1.00416E+00  9.93898E-01  1.02666E-02
    9071.059     77.440   4.680  1.00294E+00  9.94281E-01  8.65774E-03
    9072.492     78.873   4.720  1.00234E+00  9.94669E-01  7.67073E-03
    9073.936     80.318   4.760  1.00226E+00  9.95082E-01  7.18062E-03
    9075.393     81.775   4.800  1.00250E+00  9.95474E-01  7.02749E-03
    9076.862     83.244   4.840  1.00284E+00  9.95863E-01  6.97297E-03
    9078.344     84.725   4.880  1.00295E+00  9.96274E-01  6.68028E-03
    9079.837     86.219   4.920  1.00242E+00  9.96661E-01  5.76417E-03
    9081.343     87.724   4.960  1.00095E+00  9.97042E-01  3.90473E-03
    9082.861     89.242   5.000  9.98400E-01  9.97418E-01  9.82583E-04
    9084.391     90.772   5.040  9.94897E-01  9.97764E-01 -2.86767E-03
    9085.933     92.315   5.080  9.90823E-01  9.98104E-01 -7.28091E-03
    9087.488     93.869   5.120  9.86725E-01  9.98435E-01 -1.17101E-02
    9089.054     95.436   5.160  9.83225E-01  9.98736E-01 -1.55110E-02
    9090.633     97.015   5.200  9.80956E-01  9.99025E-01 -1.80692E-02
    9092.224     98.606   5.240  9.80227E-01  9.99280E-01 -1.90534E-02
    9093.827    100.209   5.280  9.80994E-01  9.99500E-01 -1.85063E-02
    9095.443    101.824   5.320  9.82889E-01  9.99708E-01 -1.68190E-02
    9097.070    103.452   5.360  9.85318E-01  9.99880E-01 -1.45616E-02
    9098.710    105.092   5.400  9.87706E-01  1.00002E+00 -1.23097E-02
    9100.362    106.744   5.440  9.89603E-01  1.00014E+00 -1.05335E-02
    9102.027    108.408   5.480  9.90665E-01  1.00020E+00 -9.53259E-03
    9103.703    110.084   5.520  9.90889E-01  1.00024E+00 -9.35428E-03
    9105.391    111.773   5.560  9.90497E-01  1.00025E+00 -9.75590E-03
    9107.092    113.474   5.600  9.89970E-01  1.00025E+00 -1.02788E-02
    9108.805    115.187   5.640  9.89735E-01  1.00018E+00 -1.04467E-02
    9110.530    116.912   5.680  9.90136E-01  1.00008E+00 -9.94027E-03
    9112.268    118.649   5.720  9.91272E-01  9.99956E-01 -8.68365E-03
    9114.017    120.399   5.760  9.92984E-01  9.99800E-01 -6.81674E-03
    9115.779    122.161   5.800  9.94956E-01  9.99608E-01 -4.65185E-03
    9117.553    123.934   5.840  9.96752E-01  9.99378E-01 -2.62569E-03
    9119.339    125.721   5.880  9.97894E-01  9.99113E-01 -1.21825E-03
    9121.137    127.519   5.920  9.98079E-01  9.98837E-01 -7.57431E-04
    9122.948    129.329   5.960  9.97191E-01  9.98502E-01 -1.31102E-03
    9124.771    131.152   6.000  9.95457E-01  9.98135E-01 -2.67889E-03
