# # comment:                                                     FEFF 9.9.1  
# # Source:
# # Structure
# # Reduced
# # space
# # abc:
# # angles:
# # sites:
# # POT  SCF 100  7.0000   0, screened core-hole, AFOLP (folp(0)= 1.150)
# # Abs   Z=29 Rmt= 1.179 Rnm= 1.281 K  shell
# # Pot 1 Z=11 Rmt= 1.513 Rnm= 1.582
# # Pot 2 Z=29 Rmt= 1.179 Rnm= 1.281
# # Pot 3 Z=15 Rmt= 0.938 Rnm= 1.158
# # Pot 4 Z= 8 Rmt= 0.892 Rnm= 1.048
# # Gam_ch=1.729E+00 H-L exch Vi= 0.000E+00 Vr= 0.000E+00
# # Mu=-6.819E+00eV kf=2.450E+00 Vint=-1.666E+01eV Rs_int= 1.480
# FMS rfms= 9.0000
# # PATH  Rmax=-1.000,  Keep_limit= 0.00, Heap_limit 0.00  Pwcrit= 2.50%
#  S02=0.950  Temp=   0.00  Debye_temp=   0.00  Global_sig2= 0.00000
#  Energy zero shift, vr, vi    0.00000E+00   0.00000E+00
#  Curved wave amplitude ratio filter   4.000%
#     file         sig2 tot  cw amp ratio   deg  nlegs   reff  inp sig2
#     0/   0 paths used
#  xsedge+ 50, used to normalize mu           2.4742E-04
#  -----------------------------------------------------------------------
#  omega    e    k    mu    mu0     chi     @#
    8983.382    -10.629  -1.000  3.96672E-02  5.21282E-02 -1.24610E-02
    8983.681    -10.330  -0.960  4.22269E-02  5.59059E-02 -1.36789E-02
    8983.967    -10.043  -0.920  4.50701E-02  6.01050E-02 -1.50348E-02
    8984.242     -9.769  -0.880  4.82421E-02  6.47878E-02 -1.65457E-02
    8984.504     -9.507  -0.840  5.17963E-02  7.00269E-02 -1.82306E-02
    8984.754     -9.257  -0.800  5.57958E-02  7.59065E-02 -2.01107E-02
    8984.991     -9.019  -0.760  6.03139E-02  8.25232E-02 -2.22093E-02
    8985.217     -8.794  -0.720  6.54345E-02  8.99863E-02 -2.45518E-02
    8985.430     -8.580  -0.680  7.12516E-02  9.84162E-02 -2.71646E-02
    8985.632     -8.379  -0.640  7.78660E-02  1.07940E-01 -3.00740E-02
    8985.821     -8.190  -0.600  8.53785E-02  1.18683E-01 -3.33042E-02
    8985.997     -8.013  -0.560  9.38786E-02  1.30751E-01 -3.68724E-02
    8986.162     -7.849  -0.520  1.03425E-01  1.44209E-01 -4.07840E-02
    8986.314     -7.696  -0.480  1.14018E-01  1.59042E-01 -4.50240E-02
    8986.454     -7.556  -0.440  1.25572E-01  1.75121E-01 -4.95486E-02
    8986.583     -7.428  -0.400  1.37885E-01  1.92164E-01 -5.42791E-02
    8986.698     -7.312  -0.360  1.50628E-01  2.09730E-01 -5.91015E-02
    8986.802     -7.209  -0.320  1.63370E-01  2.27246E-01 -6.38755E-02
    8986.893     -7.117  -0.280  1.75623E-01  2.44074E-01 -6.84511E-02
    8986.973     -7.038  -0.240  1.86917E-01  2.59604E-01 -7.26868E-02
    8987.040     -6.971  -0.200  1.96863E-01  2.73324E-01 -7.64611E-02
    8987.095     -6.916  -0.160  2.05187E-01  2.84861E-01 -7.96740E-02
    8987.137     -6.873  -0.120  2.11735E-01  2.93978E-01 -8.22438E-02
    8987.168     -6.843  -0.080  2.16436E-01  3.00545E-01 -8.41082E-02
    8987.192     -6.819   0.000  2.20215E-01  3.05819E-01 -8.56036E-02
    8987.247     -6.764   0.120  2.28150E-01  3.17716E-01 -8.95662E-02
    8987.290     -6.721   0.160  2.34288E-01  3.26935E-01 -9.26472E-02
    8987.345     -6.666   0.200  2.42001E-01  3.38732E-01 -9.67308E-02
    8987.412     -6.599   0.240  2.51015E-01  3.52900E-01 -1.01886E-01
    8987.491     -6.520   0.280  2.60925E-01  3.69147E-01 -1.08222E-01
    8987.582     -6.428   0.320  2.71175E-01  3.87048E-01 -1.15873E-01
    8987.686     -6.325   0.360  2.81095E-01  4.06077E-01 -1.24982E-01
    8987.802     -6.209   0.400  2.90049E-01  4.25655E-01 -1.35606E-01
    8987.930     -6.081   0.440  2.97582E-01  4.45294E-01 -1.47712E-01
    8988.070     -5.941   0.480  3.03541E-01  4.64579E-01 -1.61039E-01
    8988.222     -5.788   0.520  3.08092E-01  4.83243E-01 -1.75151E-01
    8988.387     -5.624   0.560  3.11744E-01  5.01188E-01 -1.89444E-01
    8988.564     -5.447   0.600  3.15082E-01  5.18365E-01 -2.03283E-01
    8988.753     -5.258   0.640  3.18727E-01  5.34834E-01 -2.16107E-01
    8988.954     -5.057   0.680  3.23130E-01  5.50689E-01 -2.27559E-01
    8989.167     -4.843   0.720  3.28326E-01  5.65996E-01 -2.37669E-01
    8989.393     -4.618   0.760  3.34102E-01  5.80884E-01 -2.46781E-01
    8989.631     -4.380   0.800  3.40000E-01  5.95431E-01 -2.55431E-01
    8989.880     -4.130   0.840  3.45303E-01  6.09683E-01 -2.64380E-01
    8990.143     -3.868   0.880  3.48669E-01  6.23732E-01 -2.75063E-01
    8990.417     -3.594   0.920  3.48259E-01  6.37598E-01 -2.89339E-01
    8990.703     -3.307   0.960  3.43397E-01  6.51329E-01 -3.07932E-01
    8991.002     -3.009   1.000  3.36013E-01  6.64923E-01 -3.28910E-01
    8991.313     -2.698   1.040  3.29945E-01  6.78428E-01 -3.48483E-01
    8991.636     -2.375   1.080  3.28503E-01  6.91804E-01 -3.63301E-01
    8991.971     -2.039   1.120  3.33492E-01  7.05089E-01 -3.71597E-01
    8992.319     -1.692   1.160  3.45446E-01  7.18250E-01 -3.72804E-01
    8992.678     -1.332   1.200  3.64566E-01  7.31274E-01 -3.66708E-01
    8993.050     -0.960   1.240  3.90946E-01  7.44162E-01 -3.53217E-01
    8993.434     -0.576   1.280  4.24536E-01  7.56895E-01 -3.32359E-01
    8993.831     -0.180   1.320  4.64826E-01  7.69450E-01 -3.04624E-01
    8994.239      0.228   1.360  5.08601E-01  7.81803E-01 -2.73202E-01
    8994.660      0.649   1.400  5.47082E-01  7.93926E-01 -2.46844E-01
    8995.092      1.082   1.440  5.70744E-01  8.05816E-01 -2.35072E-01
    8995.538      1.527   1.480  5.80799E-01  8.17424E-01 -2.36624E-01
    8995.995      1.984   1.520  5.89776E-01  8.28763E-01 -2.38987E-01
    8996.464      2.453   1.560  6.10717E-01  8.39788E-01 -2.29071E-01
    8996.946      2.935   1.600  6.48008E-01  8.50511E-01 -2.02503E-01
    8997.439      3.429   1.640  6.98796E-01  8.60886E-01 -1.62090E-01
    8997.945      3.935   1.680  7.58869E-01  8.70907E-01 -1.12038E-01
    8998.464      4.453   1.720  8.23443E-01  8.80550E-01 -5.71061E-02
    8998.994      4.983   1.760  8.92584E-01  8.89828E-01  2.75509E-03
    8999.536      5.526   1.800  9.73140E-01  8.98721E-01  7.44196E-02
    9000.091      6.081   1.840  1.06204E+00  9.07204E-01  1.54840E-01
    9000.658      6.647   1.880  1.13642E+00  9.15295E-01  2.21123E-01
    9001.237      7.227   1.920  1.18343E+00  9.22995E-01  2.60436E-01
    9001.829      7.818   1.960  1.21318E+00  9.30283E-01  2.82902E-01
    9002.432      8.421   2.000  1.22804E+00  9.37158E-01  2.90886E-01
    9003.048      9.037   2.040  1.22010E+00  9.43622E-01  2.76479E-01
    9003.676      9.665   2.080  1.19323E+00  9.49698E-01  2.43529E-01
    9004.316     10.305   2.120  1.16724E+00  9.55370E-01  2.11872E-01
    9004.968     10.957   2.160  1.15898E+00  9.60661E-01  1.98319E-01
    9005.632     11.622   2.200  1.17088E+00  9.65575E-01  2.05300E-01
    9006.309     12.298   2.240  1.19723E+00  9.70096E-01  2.27130E-01
    9006.998     12.987   2.280  1.22966E+00  9.74270E-01  2.55394E-01
    9007.699     13.688   2.320  1.25847E+00  9.78105E-01  2.80366E-01
    9008.412     14.402   2.360  1.27560E+00  9.81584E-01  2.94016E-01
    9009.138     15.127   2.400  1.27810E+00  9.84736E-01  2.93360E-01
    9009.875     15.865   2.440  1.27029E+00  9.87587E-01  2.82704E-01
    9010.625     16.614   2.480  1.26099E+00  9.90124E-01  2.70861E-01
    9011.387     17.376   2.520  1.25363E+00  9.92394E-01  2.61235E-01
    9012.161     18.151   2.560  1.23931E+00  9.94386E-01  2.44924E-01
    9012.948     18.937   2.600  1.20831E+00  9.96105E-01  2.12205E-01
    9013.746     19.736   2.640  1.16470E+00  9.97600E-01  1.67098E-01
    9014.557     20.546   2.680  1.12149E+00  9.98879E-01  1.22611E-01
    9015.380     21.369   2.720  1.08602E+00  9.99927E-01  8.60946E-02
    9016.215     22.204   2.760  1.05829E+00  1.00077E+00  5.75200E-02
    9017.062     23.052   2.800  1.03550E+00  1.00145E+00  3.40508E-02
    9017.922     23.911   2.840  1.01630E+00  1.00195E+00  1.43525E-02
    9018.794     24.783   2.880  1.00004E+00  1.00229E+00 -2.24875E-03
    9019.678     25.667   2.920  9.86135E-01  1.00248E+00 -1.63445E-02
    9020.574     26.563   2.960  9.73777E-01  1.00254E+00 -2.87629E-02
    9021.482     27.471   3.000  9.61801E-01  1.00250E+00 -4.06986E-02
    9022.402     28.392   3.040  9.49014E-01  1.00234E+00 -5.33290E-02
    9023.335     29.324   3.080  9.35388E-01  1.00208E+00 -6.66903E-02
    9024.280     30.269   3.120  9.22053E-01  1.00175E+00 -7.96970E-02
    9025.237     31.226   3.160  9.10030E-01  1.00134E+00 -9.13118E-02
    9026.206     32.196   3.200  8.99628E-01  1.00086E+00 -1.01233E-01
    9027.188     33.177   3.240  8.90710E-01  1.00033E+00 -1.09622E-01
    9028.181     34.171   3.280  8.83248E-01  9.99758E-01 -1.16510E-01
    9029.187     35.177   3.320  8.77087E-01  9.99146E-01 -1.22059E-01
    9030.205     36.195   3.360  8.72320E-01  9.98518E-01 -1.26198E-01
    9031.236     37.225   3.400  8.69160E-01  9.97857E-01 -1.28697E-01
    9032.278     38.267   3.440  8.67624E-01  9.97169E-01 -1.29545E-01
    9033.333     39.322   3.480  8.67650E-01  9.96496E-01 -1.28846E-01
    9034.399     40.389   3.520  8.69131E-01  9.95821E-01 -1.26690E-01
    9035.478     41.468   3.560  8.72006E-01  9.95127E-01 -1.23121E-01
    9036.570     42.559   3.600  8.76057E-01  9.94459E-01 -1.18402E-01
    9037.673     43.662   3.640  8.81276E-01  9.93817E-01 -1.12541E-01
    9038.788     44.778   3.680  8.87639E-01  9.93183E-01 -1.05544E-01
    9039.916     45.906   3.720  8.95028E-01  9.92559E-01 -9.75313E-02
    9041.056     47.045   3.760  9.03271E-01  9.91990E-01 -8.87193E-02
    9042.208     48.198   3.800  9.12091E-01  9.91431E-01 -7.93399E-02
    9043.373     49.362   3.840  9.21249E-01  9.90887E-01 -6.96372E-02
    9044.549     50.538   3.880  9.30568E-01  9.90401E-01 -5.98331E-02
    9045.738     51.727   3.920  9.40090E-01  9.89953E-01 -4.98635E-02
    9046.939     52.928   3.960  9.49956E-01  9.89522E-01 -3.95667E-02
    9048.152     54.141   4.000  9.60373E-01  9.89150E-01 -2.87771E-02
    9049.377     55.366   4.040  9.71514E-01  9.88798E-01 -1.72840E-02
    9050.615     56.604   4.080  9.83638E-01  9.88506E-01 -4.86805E-03
    9051.864     57.854   4.120  9.96776E-01  9.88254E-01  8.52156E-03
    9053.126     59.116   4.160  1.01074E+00  9.88022E-01  2.27182E-02
    9054.400     60.390   4.200  1.02512E+00  9.87851E-01  3.72671E-02
    9055.686     61.676   4.240  1.03903E+00  9.87720E-01  5.13115E-02
    9056.985     62.974   4.280  1.05133E+00  9.87631E-01  6.36956E-02
    9058.296     64.285   4.320  1.06087E+00  9.87581E-01  7.32912E-02
    9059.618     65.608   4.360  1.06680E+00  9.87569E-01  7.92358E-02
    9060.953     66.943   4.400  1.06875E+00  9.87594E-01  8.11584E-02
    9062.301     68.290   4.440  1.06702E+00  9.87636E-01  7.93886E-02
    9063.660     69.649   4.480  1.06253E+00  9.87737E-01  7.47946E-02
    9065.032     71.021   4.520  1.05645E+00  9.87877E-01  6.85718E-02
    9066.415     72.405   4.560  1.05005E+00  9.88029E-01  6.20192E-02
    9067.811     73.801   4.600  1.04443E+00  9.88216E-01  5.62112E-02
    9069.220     75.209   4.640  1.04021E+00  9.88435E-01  5.17754E-02
    9070.640     76.629   4.680  1.03761E+00  9.88665E-01  4.89423E-02
    9072.072     78.062   4.720  1.03654E+00  9.88926E-01  4.76156E-02
    9073.517     79.507   4.760  1.03660E+00  9.89197E-01  4.73986E-02
    9074.974     80.963   4.800  1.03717E+00  9.89498E-01  4.76714E-02
    9076.443     82.433   4.840  1.03752E+00  9.89827E-01  4.76921E-02
    9077.925     83.914   4.880  1.03691E+00  9.90140E-01  4.67745E-02
    9079.418     85.407   4.920  1.03503E+00  9.90478E-01  4.45563E-02
    9080.924     86.913   4.960  1.03193E+00  9.90821E-01  4.11046E-02
    9082.442     88.431   5.000  1.02803E+00  9.91187E-01  3.68452E-02
    9083.972     89.961   5.040  1.02386E+00  9.91532E-01  3.23255E-02
    9085.514     91.503   5.080  1.01977E+00  9.91876E-01  2.78918E-02
    9087.069     93.058   5.120  1.01577E+00  9.92241E-01  2.35303E-02
    9088.635     94.625   5.160  1.01151E+00  9.92581E-01  1.89281E-02
    9090.214     96.203   5.200  1.00666E+00  9.92915E-01  1.37468E-02
    9091.805     97.794   5.240  1.00112E+00  9.93222E-01  7.90257E-03
    9093.408     99.398   5.280  9.95156E-01  9.93546E-01  1.60990E-03
    9095.024    101.013   5.320  9.89157E-01  9.93842E-01 -4.68533E-03
    9096.651    102.641   5.360  9.83599E-01  9.94130E-01 -1.05311E-02
    9098.291    104.281   5.400  9.78756E-01  9.94387E-01 -1.56304E-02
    9099.943    105.933   5.440  9.74742E-01  9.94633E-01 -1.98910E-02
    9101.607    107.597   5.480  9.71463E-01  9.94845E-01 -2.33815E-02
    9103.284    109.273   5.520  9.68686E-01  9.95023E-01 -2.63375E-02
    9104.972    110.962   5.560  9.66010E-01  9.95192E-01 -2.91820E-02
    9106.673    112.663   5.600  9.62966E-01  9.95349E-01 -3.23827E-02
    9108.386    114.376   5.640  9.59194E-01  9.95447E-01 -3.62530E-02
    9110.111    116.101   5.680  9.54758E-01  9.95531E-01 -4.07734E-02
    9111.849    117.838   5.720  9.49978E-01  9.95579E-01 -4.56018E-02
    9113.598    119.588   5.760  9.45407E-01  9.95592E-01 -5.01843E-02
    9115.360    121.349   5.800  9.41653E-01  9.95590E-01 -5.39363E-02
    9117.134    123.123   5.840  9.39215E-01  9.95528E-01 -5.63131E-02
    9118.920    124.909   5.880  9.38614E-01  9.95454E-01 -5.68407E-02
    9120.718    126.708   5.920  9.40145E-01  9.95345E-01 -5.51996E-02
    9122.529    128.518   5.960  9.43897E-01  9.95196E-01 -5.12986E-02
    9124.352    130.341   6.000  9.49785E-01  9.94987E-01 -4.52019E-02
