# # comment:                                                     FEFF 9.9.1  
# # Source:
# # Structure
# # Reduced
# # space
# # abc:
# # angles:
# # sites:
# # POT  SCF 100  7.0000   0, screened core-hole, AFOLP (folp(0)= 1.150)
# # Abs   Z=29 Rmt= 1.241 Rnm= 1.329 K  shell
# # Pot 1 Z=11 Rmt= 1.510 Rnm= 1.557
# # Pot 2 Z=29 Rmt= 1.242 Rnm= 1.333
# # Pot 3 Z=14 Rmt= 1.005 Rnm= 1.221
# # Pot 4 Z= 8 Rmt= 0.923 Rnm= 1.082
# # Gam_ch=1.729E+00 H-L exch Vi= 0.000E+00 Vr= 0.000E+00
# # Mu=-7.662E+00eV kf=2.290E+00 Vint=-1.623E+01eV Rs_int= 1.583
# FMS rfms= 9.0000
# # PATH  Rmax=-1.000,  Keep_limit= 0.00, Heap_limit 0.00  Pwcrit= 2.50%
#  S02=0.950  Temp=   0.00  Debye_temp=   0.00  Global_sig2= 0.00000
#  Energy zero shift, vr, vi    0.00000E+00   0.00000E+00
#  Curved wave amplitude ratio filter   4.000%
#     file         sig2 tot  cw amp ratio   deg  nlegs   reff  inp sig2
#     0/   0 paths used
#  xsedge+ 50, used to normalize mu           2.4669E-04
#  -----------------------------------------------------------------------
#  omega    e    k    mu    mu0     chi     @#
    8983.575    -11.472  -1.000  3.80100E-02  5.12013E-02 -1.31913E-02
    8983.874    -11.173  -0.960  4.01191E-02  5.48547E-02 -1.47356E-02
    8984.161    -10.887  -0.920  4.24002E-02  5.89094E-02 -1.65092E-02
    8984.435    -10.613  -0.880  4.48715E-02  6.34241E-02 -1.85526E-02
    8984.697    -10.350  -0.840  4.75530E-02  6.84671E-02 -2.09141E-02
    8984.947    -10.101  -0.800  5.04664E-02  7.41174E-02 -2.36510E-02
    8985.185     -9.863  -0.760  5.36349E-02  8.04657E-02 -2.68308E-02
    8985.410     -9.637  -0.720  5.70830E-02  8.76145E-02 -3.05316E-02
    8985.624     -9.424  -0.680  6.08351E-02  9.56765E-02 -3.48413E-02
    8985.825     -9.223  -0.640  6.49148E-02  1.04770E-01 -3.98557E-02
    8986.014     -9.034  -0.600  6.93419E-02  1.15013E-01 -4.56714E-02
    8986.191     -8.857  -0.560  7.41293E-02  1.26504E-01 -5.23748E-02
    8986.355     -8.692  -0.520  7.92785E-02  1.39302E-01 -6.00232E-02
    8986.507     -8.540  -0.480  8.47735E-02  1.53392E-01 -6.86190E-02
    8986.648     -8.400  -0.440  9.05737E-02  1.68653E-01 -7.80790E-02
    8986.776     -8.272  -0.400  9.66084E-02  1.84818E-01 -8.82095E-02
    8986.892     -8.156  -0.360  1.02773E-01  2.01473E-01 -9.86996E-02
    8986.995     -8.052  -0.320  1.08931E-01  2.18077E-01 -1.09147E-01
    8987.087     -7.961  -0.280  1.14920E-01  2.34032E-01 -1.19113E-01
    8987.166     -7.882  -0.240  1.20567E-01  2.48761E-01 -1.28195E-01
    8987.233     -7.815  -0.200  1.25697E-01  2.61780E-01 -1.36083E-01
    8987.288     -7.760  -0.160  1.30148E-01  2.72733E-01 -1.42585E-01
    8987.330     -7.717  -0.120  1.33780E-01  2.81394E-01 -1.47614E-01
    8987.361     -7.687  -0.080  1.36477E-01  2.87634E-01 -1.51156E-01
    8987.385     -7.662   0.000  1.38737E-01  2.92648E-01 -1.53911E-01
    8987.440     -7.607   0.120  1.43910E-01  3.03965E-01 -1.60055E-01
    8987.483     -7.565   0.160  1.47994E-01  3.12759E-01 -1.64765E-01
    8987.538     -7.510   0.200  1.53396E-01  3.23988E-01 -1.70592E-01
    8987.605     -7.443   0.240  1.60271E-01  3.37522E-01 -1.77252E-01
    8987.684     -7.363   0.280  1.68749E-01  3.53058E-01 -1.84308E-01
    8987.775     -7.272   0.320  1.79063E-01  3.70251E-01 -1.91188E-01
    8987.879     -7.168   0.360  1.91376E-01  3.88583E-01 -1.97207E-01
    8987.995     -7.053   0.400  2.05909E-01  4.07539E-01 -2.01631E-01
    8988.123     -6.925   0.440  2.22882E-01  4.26676E-01 -2.03794E-01
    8988.263     -6.784   0.480  2.42464E-01  4.45591E-01 -2.03127E-01
    8988.416     -6.632   0.520  2.64772E-01  4.64054E-01 -1.99282E-01
    8988.580     -6.467   0.560  2.89747E-01  4.81960E-01 -1.92212E-01
    8988.757     -6.291   0.600  3.16990E-01  4.99278E-01 -1.82288E-01
    8988.946     -6.102   0.640  3.45518E-01  5.16042E-01 -1.70524E-01
    8989.147     -5.900   0.680  3.73575E-01  5.32356E-01 -1.58781E-01
    8989.360     -5.687   0.720  3.98218E-01  5.48276E-01 -1.50058E-01
    8989.586     -5.462   0.760  4.15822E-01  5.63899E-01 -1.48077E-01
    8989.824     -5.224   0.800  4.23871E-01  5.79272E-01 -1.55402E-01
    8990.074     -4.974   0.840  4.23368E-01  5.94468E-01 -1.71100E-01
    8990.336     -4.712   0.880  4.18573E-01  6.09550E-01 -1.90977E-01
    8990.610     -4.437   0.920  4.14110E-01  6.24507E-01 -2.10397E-01
    8990.897     -4.151   0.960  4.12389E-01  6.39400E-01 -2.27011E-01
    8991.195     -3.852   1.000  4.12825E-01  6.54217E-01 -2.41392E-01
    8991.506     -3.541   1.040  4.13510E-01  6.68938E-01 -2.55428E-01
    8991.829     -3.218   1.080  4.13617E-01  6.83618E-01 -2.70001E-01
    8992.165     -2.883   1.120  4.14125E-01  6.98183E-01 -2.84058E-01
    8992.512     -2.535   1.160  4.17224E-01  7.12638E-01 -2.95414E-01
    8992.872     -2.176   1.200  4.25755E-01  7.26962E-01 -3.01207E-01
    8993.244     -1.804   1.240  4.41459E-01  7.41131E-01 -2.99672E-01
    8993.628     -1.420   1.280  4.61159E-01  7.55099E-01 -2.93940E-01
    8994.024     -1.024   1.320  4.80019E-01  7.68878E-01 -2.88859E-01
    8994.432     -0.615   1.360  4.99296E-01  7.82419E-01 -2.83122E-01
    8994.853     -0.195   1.400  5.25026E-01  7.95672E-01 -2.70646E-01
    8995.286      0.238   1.440  5.61077E-01  8.08627E-01 -2.47550E-01
    8995.731      0.683   1.480  6.06352E-01  8.21275E-01 -2.14923E-01
    8996.188      1.140   1.520  6.56784E-01  8.33564E-01 -1.76780E-01
    8996.657      1.610   1.560  7.10592E-01  8.45485E-01 -1.34893E-01
    8997.139      2.091   1.600  7.69389E-01  8.57012E-01 -8.76239E-02
    8997.633      2.585   1.640  8.34618E-01  8.68135E-01 -3.35169E-02
    8998.139      3.091   1.680  9.06634E-01  8.78826E-01  2.78081E-02
    8998.657      3.609   1.720  9.83480E-01  8.89059E-01  9.44211E-02
    8999.187      4.140   1.760  1.05192E+00  8.98851E-01  1.53074E-01
    8999.730      4.682   1.800  1.09272E+00  9.08157E-01  1.84558E-01
    9000.284      5.237   1.840  1.11151E+00  9.16996E-01  1.94515E-01
    9000.851      5.804   1.880  1.13474E+00  9.25387E-01  2.09350E-01
    9001.430      6.383   1.920  1.17166E+00  9.33269E-01  2.38393E-01
    9002.022      6.974   1.960  1.20856E+00  9.40684E-01  2.67876E-01
    9002.625      7.578   2.000  1.23066E+00  9.47635E-01  2.83030E-01
    9003.241      8.193   2.040  1.23640E+00  9.54122E-01  2.82279E-01
    9003.869      8.821   2.080  1.23578E+00  9.60132E-01  2.75653E-01
    9004.509      9.461   2.120  1.24087E+00  9.65710E-01  2.75156E-01
    9005.161     10.114   2.160  1.25485E+00  9.70842E-01  2.84012E-01
    9005.826     10.778   2.200  1.27003E+00  9.75554E-01  2.94480E-01
    9006.502     11.455   2.240  1.27174E+00  9.79832E-01  2.91911E-01
    9007.191     12.144   2.280  1.25356E+00  9.83745E-01  2.69814E-01
    9007.892     12.845   2.320  1.22393E+00  9.87242E-01  2.36686E-01
    9008.605     13.558   2.360  1.19382E+00  9.90391E-01  2.03424E-01
    9009.331     14.283   2.400  1.16970E+00  9.93199E-01  1.76497E-01
    9010.068     15.021   2.440  1.15413E+00  9.95657E-01  1.58469E-01
    9010.818     15.771   2.480  1.14610E+00  9.97812E-01  1.48288E-01
    9011.580     16.533   2.520  1.13975E+00  9.99655E-01  1.40092E-01
    9012.354     17.307   2.560  1.12596E+00  1.00123E+00  1.24722E-01
    9013.141     18.093   2.600  1.09823E+00  1.00254E+00  9.56886E-02
    9013.939     18.892   2.640  1.05982E+00  1.00362E+00  5.61959E-02
    9014.750     19.703   2.680  1.01985E+00  1.00447E+00  1.53847E-02
    9015.573     20.526   2.720  9.88815E-01  1.00510E+00 -1.62889E-02
    9016.408     21.361   2.760  9.66531E-01  1.00554E+00 -3.90127E-02
    9017.256     22.208   2.800  9.48983E-01  1.00583E+00 -5.68517E-02
    9018.115     23.068   2.840  9.35460E-01  1.00594E+00 -7.04824E-02
    9018.987     23.939   2.880  9.25494E-01  1.00592E+00 -8.04221E-02
    9019.871     24.823   2.920  9.17986E-01  1.00576E+00 -8.77765E-02
    9020.767     25.719   2.960  9.11820E-01  1.00549E+00 -9.36696E-02
    9021.675     26.628   3.000  9.06089E-01  1.00510E+00 -9.90160E-02
    9022.596     27.548   3.040  9.00120E-01  1.00465E+00 -1.04534E-01
    9023.528     28.481   3.080  8.93745E-01  1.00412E+00 -1.10380E-01
    9024.473     29.426   3.120  8.87696E-01  1.00352E+00 -1.15825E-01
    9025.430     30.383   3.160  8.82505E-01  1.00287E+00 -1.20362E-01
    9026.400     31.352   3.200  8.78849E-01  1.00217E+00 -1.23322E-01
    9027.381     32.334   3.240  8.77259E-01  1.00144E+00 -1.24177E-01
    9028.375     33.327   3.280  8.77823E-01  1.00067E+00 -1.22845E-01
    9029.380     34.333   3.320  8.80356E-01  9.99912E-01 -1.19556E-01
    9030.399     35.351   3.360  8.84441E-01  9.99132E-01 -1.14691E-01
    9031.429     36.381   3.400  8.89792E-01  9.98349E-01 -1.08556E-01
    9032.471     37.424   3.440  8.95837E-01  9.97567E-01 -1.01730E-01
    9033.526     38.478   3.480  9.02483E-01  9.96812E-01 -9.43289E-02
    9034.593     39.545   3.520  9.09830E-01  9.96067E-01 -8.62364E-02
    9035.672     40.624   3.560  9.18012E-01  9.95352E-01 -7.73395E-02
    9036.763     41.715   3.600  9.26896E-01  9.94670E-01 -6.77741E-02
    9037.866     42.819   3.640  9.36225E-01  9.94003E-01 -5.77777E-02
    9038.982     43.934   3.680  9.45804E-01  9.93373E-01 -4.75689E-02
    9040.109     45.062   3.720  9.55519E-01  9.92803E-01 -3.72835E-02
    9041.249     46.202   3.760  9.65448E-01  9.92251E-01 -2.68037E-02
    9042.401     47.354   3.800  9.75804E-01  9.91740E-01 -1.59360E-02
    9043.566     48.518   3.840  9.86570E-01  9.91293E-01 -4.72260E-03
    9044.742     49.695   3.880  9.97516E-01  9.90889E-01  6.62712E-03
    9045.931     50.884   3.920  1.00831E+00  9.90527E-01  1.77844E-02
    9047.132     52.084   3.960  1.01853E+00  9.90208E-01  2.83232E-02
    9048.345     53.298   4.000  1.02776E+00  9.89934E-01  3.78271E-02
    9049.570     54.523   4.040  1.03570E+00  9.89724E-01  4.59737E-02
    9050.808     55.760   4.080  1.04217E+00  9.89561E-01  5.26046E-02
    9052.058     57.010   4.120  1.04718E+00  9.89441E-01  5.77367E-02
    9053.319     58.272   4.160  1.05101E+00  9.89384E-01  6.16295E-02
    9054.593     59.546   4.200  1.05392E+00  9.89349E-01  6.45731E-02
    9055.880     60.832   4.240  1.05614E+00  9.89378E-01  6.67599E-02
    9057.178     62.131   4.280  1.05769E+00  9.89449E-01  6.82387E-02
    9058.489     63.441   4.320  1.05856E+00  9.89558E-01  6.90036E-02
    9059.812     64.764   4.360  1.05874E+00  9.89686E-01  6.90549E-02
    9061.147     66.099   4.400  1.05836E+00  9.89875E-01  6.84840E-02
    9062.494     67.446   4.440  1.05764E+00  9.90103E-01  6.75417E-02
    9063.853     68.806   4.480  1.05675E+00  9.90367E-01  6.63806E-02
    9065.225     70.177   4.520  1.05563E+00  9.90645E-01  6.49896E-02
    9066.609     71.561   4.560  1.05415E+00  9.90958E-01  6.31909E-02
    9068.005     72.957   4.600  1.05201E+00  9.91305E-01  6.07033E-02
    9069.413     74.365   4.640  1.04891E+00  9.91684E-01  5.72243E-02
    9070.833     75.786   4.680  1.04458E+00  9.92072E-01  5.25055E-02
    9072.266     77.218   4.720  1.03886E+00  9.92466E-01  4.63949E-02
    9073.710     78.663   4.760  1.03171E+00  9.92889E-01  3.88229E-02
    9075.167     80.120   4.800  1.02314E+00  9.93316E-01  2.98194E-02
    9076.636     81.589   4.840  1.01329E+00  9.93746E-01  1.95430E-02
    9078.118     83.070   4.880  1.00260E+00  9.94200E-01  8.40266E-03
    9079.611     84.564   4.920  9.91754E-01  9.94633E-01 -2.87904E-03
    9081.117     86.070   4.960  9.81671E-01  9.95085E-01 -1.34141E-02
    9082.635     87.587   5.000  9.73109E-01  9.95513E-01 -2.24049E-02
    9084.165     89.118   5.040  9.66577E-01  9.95938E-01 -2.93605E-02
    9085.707     90.660   5.080  9.62132E-01  9.96358E-01 -3.42252E-02
    9087.262     92.214   5.120  9.59444E-01  9.96771E-01 -3.73273E-02
    9088.828     93.781   5.160  9.57933E-01  9.97155E-01 -3.92226E-02
    9090.407     95.360   5.200  9.57120E-01  9.97530E-01 -4.04094E-02
    9091.998     96.951   5.240  9.56648E-01  9.97873E-01 -4.12248E-02
    9093.602     98.554   5.280  9.56352E-01  9.98205E-01 -4.18535E-02
    9095.217    100.170   5.320  9.56173E-01  9.98505E-01 -4.23320E-02
    9096.845    101.797   5.360  9.56308E-01  9.98793E-01 -4.24850E-02
    9098.484    103.437   5.400  9.57065E-01  9.99046E-01 -4.19808E-02
    9100.136    105.089   5.440  9.58746E-01  9.99259E-01 -4.05131E-02
    9101.801    106.753   5.480  9.61400E-01  9.99437E-01 -3.80370E-02
    9103.477    108.430   5.520  9.64751E-01  9.99599E-01 -3.48476E-02
    9105.166    110.118   5.560  9.68244E-01  9.99700E-01 -3.14565E-02
    9106.866    111.819   5.600  9.71454E-01  9.99786E-01 -2.83328E-02
    9108.579    113.532   5.640  9.74099E-01  9.99834E-01 -2.57347E-02
    9110.305    115.257   5.680  9.76176E-01  9.99842E-01 -2.36655E-02
    9112.042    116.994   5.720  9.77827E-01  9.99811E-01 -2.19843E-02
    9113.791    118.744   5.760  9.79264E-01  9.99739E-01 -2.04751E-02
    9115.553    120.506   5.800  9.80714E-01  9.99628E-01 -1.89137E-02
    9117.327    122.280   5.840  9.82316E-01  9.99478E-01 -1.71625E-02
    9119.113    124.066   5.880  9.83974E-01  9.99291E-01 -1.53162E-02
    9120.912    125.864   5.920  9.85329E-01  9.99066E-01 -1.37366E-02
    9122.722    127.675   5.960  9.85976E-01  9.98804E-01 -1.28279E-02
    9124.545    129.497   6.000  9.85888E-01  9.98508E-01 -1.26203E-02
