# # comment:                                                     FEFF 9.9.1  
# # Source:
# # Structure
# # Reduced
# # space
# # abc:
# # angles:109.471221
# # sites:
# # POT  SCF 100  7.0000   0, screened core-hole, AFOLP (folp(0)= 1.150)
# # Abs   Z=29 Rmt= 1.190 Rnm= 1.264 K  shell
# # Pot 1 Z=13 Rmt= 1.558 Rnm= 1.598
# # Pot 2 Z=29 Rmt= 1.163 Rnm= 1.284
# # Pot 3 Z= 8 Rmt= 1.038 Rnm= 1.109
# # Gam_ch=1.729E+00 H-L exch Vi= 0.000E+00 Vr= 0.000E+00
# # Mu=-7.035E+00eV kf=2.170E+00 Vint=-1.515E+01eV Rs_int= 1.671
# FMS rfms= 9.0000
# # PATH  Rmax=-1.000,  Keep_limit= 0.00, Heap_limit 0.00  Pwcrit= 2.50%
#  S02=0.950  Temp=   0.00  Debye_temp=   0.00  Global_sig2= 0.00000
#  Energy zero shift, vr, vi    0.00000E+00   0.00000E+00
#  Curved wave amplitude ratio filter   4.000%
#     file         sig2 tot  cw amp ratio   deg  nlegs   reff  inp sig2
#     0/   0 paths used
#  xsedge+ 50, used to normalize mu           2.4307E-04
#  -----------------------------------------------------------------------
#  omega    e    k    mu    mu0     chi     @#
    8983.586    -10.845  -1.000  2.96879E-02  5.91529E-02 -2.94650E-02
    8983.885    -10.546  -0.960  3.08121E-02  6.35506E-02 -3.27385E-02
    8984.171    -10.260  -0.920  3.19957E-02  6.84424E-02 -3.64466E-02
    8984.446     -9.985  -0.880  3.32459E-02  7.39012E-02 -4.06553E-02
    8984.708     -9.723  -0.840  3.45712E-02  8.00117E-02 -4.54405E-02
    8984.958     -9.473  -0.800  3.59819E-02  8.68721E-02 -5.08902E-02
    8985.196     -9.236  -0.760  3.74906E-02  9.45952E-02 -5.71046E-02
    8985.421     -9.010  -0.720  3.91117E-02  1.03308E-01 -6.41963E-02
    8985.634     -8.797  -0.680  4.08620E-02  1.13151E-01 -7.22888E-02
    8985.836     -8.596  -0.640  4.27595E-02  1.24271E-01 -8.15119E-02
    8986.025     -8.407  -0.600  4.48220E-02  1.36815E-01 -9.19929E-02
    8986.201     -8.230  -0.560  4.70644E-02  1.50905E-01 -1.03841E-01
    8986.366     -8.065  -0.520  4.94938E-02  1.66616E-01 -1.17122E-01
    8986.518     -7.913  -0.480  5.21029E-02  1.83931E-01 -1.31828E-01
    8986.659     -7.773  -0.440  5.48627E-02  2.02699E-01 -1.47836E-01
    8986.787     -7.645  -0.400  5.77166E-02  2.22592E-01 -1.64876E-01
    8986.902     -7.529  -0.360  6.05808E-02  2.43098E-01 -1.82517E-01
    8987.006     -7.425  -0.320  6.33525E-02  2.63550E-01 -2.00197E-01
    8987.097     -7.334  -0.280  6.59272E-02  2.83205E-01 -2.17278E-01
    8987.177     -7.254  -0.240  6.82174E-02  3.01351E-01 -2.33134E-01
    8987.244     -7.187  -0.200  7.01653E-02  3.17391E-01 -2.47225E-01
    8987.299     -7.132  -0.160  7.17439E-02  3.30886E-01 -2.59142E-01
    8987.341     -7.090  -0.120  7.29473E-02  3.41555E-01 -2.68607E-01
    8987.372     -7.059  -0.080  7.37802E-02  3.49242E-01 -2.75461E-01
    8987.396     -7.035   0.000  7.44001E-02  3.55418E-01 -2.81018E-01
    8987.451     -6.980   0.120  7.60680E-02  3.69351E-01 -2.93283E-01
    8987.494     -6.937   0.160  7.73064E-02  3.80172E-01 -3.02866E-01
    8987.549     -6.883   0.200  7.88071E-02  3.94000E-01 -3.15193E-01
    8987.616     -6.815   0.240  8.05321E-02  4.10651E-01 -3.30119E-01
    8987.695     -6.736   0.280  8.23186E-02  4.29758E-01 -3.47439E-01
    8987.786     -6.645   0.320  8.41215E-02  4.50863E-01 -3.66741E-01
    8987.890     -6.541   0.360  8.58496E-02  4.73369E-01 -3.87519E-01
    8988.006     -6.425   0.400  8.74238E-02  4.96599E-01 -4.09176E-01
    8988.134     -6.297   0.440  8.88948E-02  5.19972E-01 -4.31077E-01
    8988.274     -6.157   0.480  9.03091E-02  5.43036E-01 -4.52727E-01
    8988.426     -6.005   0.520  9.17247E-02  5.65460E-01 -4.73735E-01
    8988.591     -5.840   0.560  9.32067E-02  5.87088E-01 -4.93881E-01
    8988.768     -5.663   0.600  9.48272E-02  6.07902E-01 -5.13075E-01
    8988.957     -5.474   0.640  9.66727E-02  6.27938E-01 -5.31265E-01
    8989.158     -5.273   0.680  9.88015E-02  6.47254E-01 -5.48452E-01
    8989.371     -5.060   0.720  1.01354E-01  6.65941E-01 -5.64587E-01
    8989.597     -4.834   0.760  1.04462E-01  6.84111E-01 -5.79649E-01
    8989.835     -4.597   0.800  1.08168E-01  7.01800E-01 -5.93633E-01
    8990.085     -4.347   0.840  1.12644E-01  7.19075E-01 -6.06431E-01
    8990.347     -4.084   0.880  1.18048E-01  7.35984E-01 -6.17937E-01
    8990.621     -3.810   0.920  1.24623E-01  7.52542E-01 -6.27919E-01
    8990.907     -3.524   0.960  1.32750E-01  7.68769E-01 -6.36019E-01
    8991.206     -3.225   1.000  1.42938E-01  7.84677E-01 -6.41739E-01
    8991.517     -2.914   1.040  1.55672E-01  8.00223E-01 -6.44552E-01
    8991.840     -2.591   1.080  1.71286E-01  8.15423E-01 -6.44136E-01
    8992.175     -2.256   1.120  1.89439E-01  8.30241E-01 -6.40802E-01
    8992.523     -1.908   1.160  2.09385E-01  8.44641E-01 -6.35256E-01
    8992.883     -1.549   1.200  2.30331E-01  8.58620E-01 -6.28289E-01
    8993.254     -1.177   1.240  2.51518E-01  8.72136E-01 -6.20618E-01
    8993.638     -0.793   1.280  2.72449E-01  8.85163E-01 -6.12713E-01
    8994.035     -0.396   1.320  2.93757E-01  8.97674E-01 -6.03917E-01
    8994.443      0.012   1.360  3.20406E-01  9.09643E-01 -5.89236E-01
    8994.864      0.433   1.400  3.62497E-01  9.21066E-01 -5.58569E-01
    8995.297      0.865   1.440  4.30453E-01  9.31877E-01 -5.01424E-01
    8995.742      1.310   1.480  5.30206E-01  9.42115E-01 -4.11909E-01
    8996.199      1.768   1.520  6.54529E-01  9.51755E-01 -2.97226E-01
    8996.668      2.237   1.560  7.72082E-01  9.60777E-01 -1.88695E-01
    8997.150      2.719   1.600  8.54509E-01  9.69161E-01 -1.14652E-01
    8997.644      3.212   1.640  9.09988E-01  9.76952E-01 -6.69640E-02
    8998.149      3.718   1.680  9.66117E-01  9.84133E-01 -1.80157E-02
    8998.668      4.237   1.720  1.03538E+00  9.90688E-01  4.46868E-02
    8999.198      4.767   1.760  1.11995E+00  9.96668E-01  1.23283E-01
    8999.741      5.309   1.800  1.24955E+00  1.00208E+00  2.47471E-01
    9000.295      5.864   1.840  1.47549E+00  1.00691E+00  4.68578E-01
    9000.862      6.431   1.880  1.81155E+00  1.01121E+00  8.00339E-01
    9001.441      7.010   1.920  2.14463E+00  1.01498E+00  1.12965E+00
    9002.033      7.601   1.960  2.29321E+00  1.01826E+00  1.27495E+00
    9002.636      8.205   2.000  2.25781E+00  1.02105E+00  1.23676E+00
    9003.252      8.821   2.040  2.14441E+00  1.02341E+00  1.12100E+00
    9003.880      9.449   2.080  1.95275E+00  1.02531E+00  9.27433E-01
    9004.520     10.089   2.120  1.70586E+00  1.02685E+00  6.79001E-01
    9005.172     10.741   2.160  1.46944E+00  1.02800E+00  4.41440E-01
    9005.837     11.405   2.200  1.26845E+00  1.02882E+00  2.39624E-01
    9006.513     12.082   2.240  1.11641E+00  1.02932E+00  8.70915E-02
    9007.202     12.771   2.280  1.02011E+00  1.02953E+00 -9.41387E-03
    9007.903     13.472   2.320  9.67404E-01  1.02945E+00 -6.20453E-02
    9008.616     14.185   2.360  9.38678E-01  1.02917E+00 -9.04897E-02
    9009.342     14.911   2.400  9.25104E-01  1.02865E+00 -1.03548E-01
    9010.079     15.648   2.440  9.26565E-01  1.02794E+00 -1.01371E-01
    9010.829     16.398   2.480  9.42681E-01  1.02707E+00 -8.43884E-02
    9011.591     17.160   2.520  9.74385E-01  1.02604E+00 -5.16592E-02
    9012.365     17.934   2.560  1.02453E+00  1.02489E+00 -3.59960E-04
    9013.152     18.721   2.600  1.08523E+00  1.02364E+00  6.15855E-02
    9013.950     19.519   2.640  1.13081E+00  1.02229E+00  1.08527E-01
    9014.761     20.330   2.680  1.15034E+00  1.02087E+00  1.29468E-01
    9015.584     21.153   2.720  1.14591E+00  1.01941E+00  1.26508E-01
    9016.419     21.988   2.760  1.12774E+00  1.01790E+00  1.09846E-01
    9017.266     22.835   2.800  1.10199E+00  1.01636E+00  8.56357E-02
    9018.126     23.695   2.840  1.07027E+00  1.01481E+00  5.54600E-02
    9018.998     24.567   2.880  1.03419E+00  1.01326E+00  2.09386E-02
    9019.882     25.451   2.920  9.95082E-01  1.01173E+00 -1.66495E-02
    9020.778     26.347   2.960  9.54447E-01  1.01022E+00 -5.57689E-02
    9021.686     27.255   3.000  9.13768E-01  1.00874E+00 -9.49695E-02
    9022.607     28.175   3.040  8.74640E-01  1.00730E+00 -1.32659E-01
    9023.539     29.108   3.080  8.39913E-01  1.00593E+00 -1.66012E-01
    9024.484     30.053   3.120  8.12304E-01  1.00458E+00 -1.92274E-01
    9025.441     31.010   3.160  7.92747E-01  1.00332E+00 -2.10575E-01
    9026.410     31.979   3.200  7.80830E-01  1.00212E+00 -2.21290E-01
    9027.392     32.961   3.240  7.75544E-01  1.00099E+00 -2.25450E-01
    9028.386     33.954   3.280  7.75203E-01  9.99925E-01 -2.24722E-01
    9029.391     34.960   3.320  7.78318E-01  9.98957E-01 -2.20640E-01
    9030.409     35.978   3.360  7.83659E-01  9.98074E-01 -2.14415E-01
    9031.440     37.008   3.400  7.90242E-01  9.97274E-01 -2.07032E-01
    9032.482     38.051   3.440  7.97601E-01  9.96559E-01 -1.98958E-01
    9033.537     39.105   3.480  8.06050E-01  9.95951E-01 -1.89901E-01
    9034.603     40.172   3.520  8.16291E-01  9.95428E-01 -1.79137E-01
    9035.682     41.251   3.560  8.29068E-01  9.94989E-01 -1.65921E-01
    9036.774     42.342   3.600  8.45347E-01  9.94636E-01 -1.49289E-01
    9037.877     43.446   3.640  8.65903E-01  9.94368E-01 -1.28466E-01
    9038.993     44.561   3.680  8.90948E-01  9.94207E-01 -1.03259E-01
    9040.120     45.689   3.720  9.19697E-01  9.94130E-01 -7.44333E-02
    9041.260     46.829   3.760  9.50717E-01  9.94135E-01 -4.34184E-02
    9042.412     47.981   3.800  9.81856E-01  9.94202E-01 -1.23455E-02
    9043.577     49.146   3.840  1.01106E+00  9.94391E-01  1.66712E-02
    9044.753     50.322   3.880  1.03701E+00  9.94619E-01  4.23892E-02
    9045.942     51.511   3.920  1.05924E+00  9.94947E-01  6.42936E-02
    9047.143     52.712   3.960  1.07731E+00  9.95353E-01  8.19590E-02
    9048.356     53.925   4.000  1.09084E+00  9.95812E-01  9.50318E-02
    9049.581     55.150   4.040  1.09973E+00  9.96347E-01  1.03384E-01
    9050.819     56.388   4.080  1.10426E+00  9.96953E-01  1.07307E-01
    9052.068     57.637   4.120  1.10517E+00  9.97608E-01  1.07566E-01
    9053.330     58.899   4.160  1.10371E+00  9.98307E-01  1.05400E-01
    9054.604     60.173   4.200  1.10106E+00  9.99050E-01  1.02015E-01
    9055.891     61.459   4.240  1.09825E+00  9.99856E-01  9.83955E-02
    9057.189     62.758   4.280  1.09577E+00  1.00068E+00  9.50929E-02
    9058.500     64.068   4.320  1.09378E+00  1.00157E+00  9.22126E-02
    9059.822     65.391   4.360  1.09208E+00  1.00246E+00  8.96139E-02
    9061.157     66.726   4.400  1.09049E+00  1.00337E+00  8.71266E-02
    9062.505     68.074   4.440  1.08879E+00  1.00430E+00  8.44860E-02
    9063.864     69.433   4.480  1.08653E+00  1.00527E+00  8.12658E-02
    9065.236     70.805   4.520  1.08360E+00  1.00621E+00  7.73926E-02
    9066.619     72.188   4.560  1.08054E+00  1.00718E+00  7.33566E-02
    9068.015     73.584   4.600  1.07790E+00  1.00815E+00  6.97527E-02
    9069.424     74.992   4.640  1.07579E+00  1.00909E+00  6.66986E-02
    9070.844     76.413   4.680  1.07397E+00  1.01005E+00  6.39199E-02
    9072.277     77.845   4.720  1.07203E+00  1.01095E+00  6.10833E-02
    9073.721     79.290   4.760  1.06996E+00  1.01187E+00  5.80887E-02
    9075.178     80.747   4.800  1.06769E+00  1.01275E+00  5.49384E-02
    9076.647     82.216   4.840  1.06508E+00  1.01359E+00  5.14885E-02
    9078.129     83.698   4.880  1.06198E+00  1.01440E+00  4.75777E-02
    9079.622     85.191   4.920  1.05833E+00  1.01516E+00  4.31710E-02
    9081.128     86.697   4.960  1.05403E+00  1.01588E+00  3.81466E-02
    9082.646     88.215   5.000  1.04854E+00  1.01656E+00  3.19806E-02
    9084.176     89.745   5.040  1.04107E+00  1.01719E+00  2.38721E-02
    9085.718     91.287   5.080  1.03117E+00  1.01778E+00  1.33888E-02
    9087.273     92.841   5.120  1.01921E+00  1.01830E+00  9.10184E-04
    9088.839     94.408   5.160  1.00604E+00  1.01877E+00 -1.27285E-02
    9090.418     95.987   5.200  9.92461E-01  1.01918E+00 -2.67240E-02
    9092.009     97.578   5.240  9.79026E-01  1.01953E+00 -4.05037E-02
    9093.612     99.181   5.280  9.66102E-01  1.01980E+00 -5.36981E-02
    9095.228    100.797   5.320  9.53779E-01  1.02002E+00 -6.62406E-02
    9096.856    102.424   5.360  9.41913E-01  1.02019E+00 -7.82756E-02
    9098.495    104.064   5.400  9.30383E-01  1.02028E+00 -8.99001E-02
    9100.147    105.716   5.440  9.19451E-01  1.02030E+00 -1.00851E-01
    9101.812    107.380   5.480  9.09779E-01  1.02027E+00 -1.10493E-01
    9103.488    109.057   5.520  9.02360E-01  1.02019E+00 -1.17830E-01
    9105.177    110.745   5.560  8.98298E-01  1.02001E+00 -1.21715E-01
    9106.877    112.446   5.600  8.98760E-01  1.01981E+00 -1.21047E-01
    9108.590    114.159   5.640  9.04266E-01  1.01953E+00 -1.15264E-01
    9110.315    115.884   5.680  9.14488E-01  1.01918E+00 -1.04692E-01
    9112.053    117.622   5.720  9.28068E-01  1.01878E+00 -9.07151E-02
    9113.802    119.371   5.760  9.43016E-01  1.01834E+00 -7.53280E-02
    9115.564    121.133   5.800  9.57585E-01  1.01786E+00 -6.02750E-02
    9117.338    122.907   5.840  9.71156E-01  1.01731E+00 -4.61551E-02
    9119.124    124.693   5.880  9.84318E-01  1.01672E+00 -3.24058E-02
    9120.922    126.491   5.920  9.98024E-01  1.01613E+00 -1.81025E-02
    9122.733    128.302   5.960  1.01285E+00  1.01547E+00 -2.61771E-03
    9124.556    130.124   6.000  1.02903E+00  1.01474E+00  1.42849E-02
