# # comment:                                                     FEFF 9.9.1  
# # Source:
# # Structure
# # Reduced
# # space
# # abc:
# # angles:
# # sites:
# # POT  SCF 100  7.0000   0, screened core-hole, AFOLP (folp(0)= 1.150)
# # Abs   Z=29 Rmt= 1.369 Rnm= 1.439 K  shell
# # Pot 1 Z= 3 Rmt= 1.290 Rnm= 1.380
# # Pot 2 Z=29 Rmt= 1.369 Rnm= 1.439
# # Pot 3 Z=15 Rmt= 0.940 Rnm= 1.156
# # Pot 4 Z= 8 Rmt= 0.902 Rnm= 1.041
# # Gam_ch=1.729E+00 H-L exch Vi= 0.000E+00 Vr= 0.000E+00
# # Mu=-6.336E+00eV kf=2.456E+00 Vint=-1.764E+01eV Rs_int= 1.477
# FMS rfms= 9.0000
# # PATH  Rmax=-1.000,  Keep_limit= 0.00, Heap_limit 0.00  Pwcrit= 2.50%
#  S02=0.950  Temp=   0.00  Debye_temp=   0.00  Global_sig2= 0.00000
#  Energy zero shift, vr, vi    0.00000E+00   0.00000E+00
#  Curved wave amplitude ratio filter   4.000%
#     file         sig2 tot  cw amp ratio   deg  nlegs   reff  inp sig2
#     0/   0 paths used
#  xsedge+ 50, used to normalize mu           2.4342E-04
#  -----------------------------------------------------------------------
#  omega    e    k    mu    mu0     chi     @#
    8983.355    -10.146  -1.000  5.35096E-02  5.46157E-02 -1.10611E-03
    8983.654     -9.847  -0.960  5.71513E-02  5.85366E-02 -1.38533E-03
    8983.940     -9.561  -0.920  6.11717E-02  6.28903E-02 -1.71868E-03
    8984.214     -9.287  -0.880  6.56249E-02  6.77405E-02 -2.11562E-03
    8984.477     -9.024  -0.840  7.05742E-02  7.31612E-02 -2.58706E-03
    8984.727     -8.775  -0.800  7.60929E-02  7.92384E-02 -3.14550E-03
    8984.964     -8.537  -0.760  8.22655E-02  8.60705E-02 -3.80508E-03
    8985.190     -8.311  -0.720  8.91877E-02  9.37692E-02 -4.58151E-03
    8985.403     -8.098  -0.680  9.69652E-02  1.02457E-01 -5.49182E-03
    8985.604     -7.897  -0.640  1.05710E-01  1.12264E-01 -6.55367E-03
    8985.793     -7.708  -0.600  1.15532E-01  1.23317E-01 -7.78428E-03
    8985.970     -7.531  -0.560  1.26526E-01  1.35725E-01 -9.19851E-03
    8986.135     -7.366  -0.520  1.38746E-01  1.49552E-01 -1.08061E-02
    8986.287     -7.214  -0.480  1.52176E-01  1.64784E-01 -1.26078E-02
    8986.427     -7.074  -0.440  1.66695E-01  1.81287E-01 -1.45916E-02
    8986.555     -6.946  -0.400  1.82045E-01  1.98773E-01 -1.67284E-02
    8986.671     -6.830  -0.360  1.97820E-01  2.16791E-01 -1.89711E-02
    8986.775     -6.726  -0.320  2.13498E-01  2.34754E-01 -2.12561E-02
    8986.866     -6.635  -0.280  2.28501E-01  2.52010E-01 -2.35091E-02
    8986.945     -6.556  -0.240  2.42282E-01  2.67934E-01 -2.56519E-02
    8987.013     -6.489  -0.200  2.54393E-01  2.82002E-01 -2.76090E-02
    8987.067     -6.434  -0.160  2.64522E-01  2.93833E-01 -2.93107E-02
    8987.110     -6.391  -0.120  2.72486E-01  3.03182E-01 -3.06963E-02
    8987.141     -6.361  -0.080  2.78197E-01  3.09916E-01 -3.17189E-02
    8987.165     -6.336   0.000  2.82757E-01  3.15325E-01 -3.25681E-02
    8987.220     -6.281   0.120  2.92707E-01  3.27533E-01 -3.48256E-02
    8987.262     -6.239   0.160  3.00432E-01  3.36992E-01 -3.65599E-02
    8987.317     -6.184   0.200  3.10260E-01  3.49096E-01 -3.88356E-02
    8987.384     -6.117   0.240  3.21939E-01  3.63633E-01 -4.16939E-02
    8987.464     -6.037   0.280  3.35150E-01  3.80305E-01 -4.51555E-02
    8987.555     -5.946   0.320  3.49492E-01  3.98701E-01 -4.92086E-02
    8987.659     -5.842   0.360  3.64510E-01  4.18282E-01 -5.37729E-02
    8987.774     -5.727   0.400  3.79804E-01  4.38459E-01 -5.86551E-02
    8987.903     -5.599   0.440  3.95214E-01  4.58713E-01 -6.34991E-02
    8988.043     -5.458   0.480  4.10843E-01  4.78625E-01 -6.77818E-02
    8988.195     -5.306   0.520  4.27058E-01  4.97984E-01 -7.09256E-02
    8988.360     -5.141   0.560  4.44205E-01  5.16634E-01 -7.24297E-02
    8988.536     -4.965   0.600  4.62602E-01  5.34592E-01 -7.19902E-02
    8988.725     -4.776   0.640  4.82416E-01  5.51900E-01 -6.94845E-02
    8988.927     -4.574   0.680  5.03733E-01  5.68639E-01 -6.49062E-02
    8989.140     -4.361   0.720  5.26626E-01  5.84945E-01 -5.83189E-02
    8989.366     -4.135   0.760  5.50801E-01  6.00890E-01 -5.00888E-02
    8989.603     -3.898   0.800  5.75426E-01  6.16601E-01 -4.11750E-02
    8989.853     -3.648   0.840  5.98934E-01  6.32149E-01 -3.32156E-02
    8990.115     -3.386   0.880  6.19648E-01  6.47614E-01 -2.79656E-02
    8990.390     -3.111   0.920  6.36748E-01  6.63017E-01 -2.62692E-02
    8990.676     -2.825   0.960  6.51267E-01  6.78433E-01 -2.71659E-02
    8990.975     -2.526   1.000  6.65819E-01  6.93860E-01 -2.80411E-02
    8991.286     -2.215   1.040  6.83224E-01  7.09311E-01 -2.60869E-02
    8991.609     -1.892   1.080  7.04590E-01  7.24827E-01 -2.02363E-02
    8991.944     -1.557   1.120  7.28514E-01  7.40362E-01 -1.18474E-02
    8992.292     -1.209   1.160  7.53278E-01  7.55925E-01 -2.64674E-03
    8992.651     -0.850   1.200  7.79715E-01  7.71519E-01  8.19609E-03
    8993.023     -0.478   1.240  8.11247E-01  7.87082E-01  2.41647E-02
    8993.407     -0.094   1.280  8.52188E-01  8.02608E-01  4.95800E-02
    8993.803      0.302   1.320  9.06068E-01  8.18047E-01  8.80211E-02
    8994.212      0.711   1.360  9.72736E-01  8.33387E-01  1.39349E-01
    8994.632      1.131   1.400  1.04479E+00  8.48574E-01  1.96213E-01
    8995.065      1.564   1.440  1.10602E+00  8.63593E-01  2.42425E-01
    8995.510      2.009   1.480  1.14012E+00  8.78361E-01  2.61757E-01
    8995.967      2.466   1.520  1.14838E+00  8.92842E-01  2.55534E-01
    8996.437      2.936   1.560  1.14272E+00  9.07017E-01  2.35699E-01
    8996.918      3.417   1.600  1.12903E+00  9.20823E-01  2.08210E-01
    8997.412      3.911   1.640  1.10913E+00  9.34223E-01  1.74903E-01
    8997.918      4.417   1.680  1.08474E+00  9.47175E-01  1.37564E-01
    8998.436      4.935   1.720  1.06515E+00  9.59640E-01  1.05506E-01
    8998.967      5.466   1.760  1.06463E+00  9.71560E-01  9.30656E-02
    8999.509      6.008   1.800  1.08891E+00  9.82917E-01  1.05988E-01
    9000.064      6.563   1.840  1.12991E+00  9.93675E-01  1.36230E-01
    9000.631      7.130   1.880  1.17222E+00  1.00380E+00  1.68414E-01
    9001.210      7.709   1.920  1.20112E+00  1.01329E+00  1.87836E-01
    9001.801      8.300   1.960  1.20808E+00  1.02210E+00  1.85981E-01
    9002.405      8.904   2.000  1.19496E+00  1.03023E+00  1.64735E-01
    9003.021      9.520   2.040  1.17250E+00  1.03763E+00  1.34864E-01
    9003.648     10.147   2.080  1.14989E+00  1.04435E+00  1.05538E-01
    9004.288     10.787   2.120  1.12848E+00  1.05036E+00  7.81274E-02
    9004.941     11.440   2.160  1.10511E+00  1.05566E+00  4.94545E-02
    9005.605     12.104   2.200  1.07968E+00  1.06025E+00  1.94265E-02
    9006.282     12.781   2.240  1.05523E+00  1.06417E+00 -8.94592E-03
    9006.971     13.470   2.280  1.03320E+00  1.06743E+00 -3.42260E-02
    9007.672     14.171   2.320  1.01504E+00  1.07002E+00 -5.49756E-02
    9008.385     14.884   2.360  1.00379E+00  1.07199E+00 -6.82016E-02
    9009.110     15.609   2.400  1.00079E+00  1.07334E+00 -7.25520E-02
    9009.848     16.347   2.440  1.00436E+00  1.07414E+00 -6.97807E-02
    9010.598     17.097   2.480  1.01171E+00  1.07440E+00 -6.26857E-02
    9011.360     17.859   2.520  1.02072E+00  1.07413E+00 -5.34091E-02
    9012.134     18.633   2.560  1.02908E+00  1.07340E+00 -4.43241E-02
    9012.920     19.419   2.600  1.03424E+00  1.07224E+00 -3.80035E-02
    9013.719     20.218   2.640  1.03384E+00  1.07067E+00 -3.68256E-02
    9014.530     21.029   2.680  1.02687E+00  1.06873E+00 -4.18606E-02
    9015.353     21.852   2.720  1.01652E+00  1.06645E+00 -4.99324E-02
    9016.188     22.687   2.760  1.00695E+00  1.06389E+00 -5.69345E-02
    9017.035     23.534   2.800  9.98281E-01  1.06105E+00 -6.27647E-02
    9017.895     24.394   2.840  9.91308E-01  1.05801E+00 -6.67012E-02
    9018.766     25.265   2.880  9.90246E-01  1.05477E+00 -6.45278E-02
    9019.650     26.149   2.920  9.93528E-01  1.05138E+00 -5.78496E-02
    9020.546     27.045   2.960  9.97249E-01  1.04788E+00 -5.06290E-02
    9021.455     27.954   3.000  9.99331E-01  1.04427E+00 -4.49384E-02
    9022.375     28.874   3.040  9.99713E-01  1.04061E+00 -4.08934E-02
    9023.308     29.807   3.080  9.99169E-01  1.03690E+00 -3.77352E-02
    9024.253     30.752   3.120  9.98580E-01  1.03319E+00 -3.46101E-02
    9025.210     31.709   3.160  9.98342E-01  1.02949E+00 -3.11466E-02
    9026.179     32.678   3.200  9.98494E-01  1.02583E+00 -2.73319E-02
    9027.161     33.660   3.240  9.99060E-01  1.02223E+00 -2.31663E-02
    9028.154     34.653   3.280  1.00005E+00  1.01868E+00 -1.86318E-02
    9029.160     35.659   3.320  1.00148E+00  1.01525E+00 -1.37632E-02
    9030.178     36.677   3.360  1.00333E+00  1.01194E+00 -8.61208E-03
    9031.208     37.707   3.400  1.00526E+00  1.00875E+00 -3.48656E-03
    9032.251     38.750   3.440  1.00680E+00  1.00568E+00  1.11951E-03
    9033.305     39.804   3.480  1.00756E+00  1.00278E+00  4.77908E-03
    9034.372     40.871   3.520  1.00733E+00  1.00004E+00  7.28860E-03
    9035.451     41.950   3.560  1.00619E+00  9.97464E-01  8.73074E-03
    9036.542     43.041   3.600  1.00452E+00  9.95078E-01  9.44353E-03
    9037.646     44.145   3.640  1.00274E+00  9.92872E-01  9.86972E-03
    9038.761     45.260   3.680  1.00123E+00  9.90836E-01  1.03894E-02
    9039.889     46.388   3.720  1.00028E+00  9.89021E-01  1.12555E-02
    9041.029     47.528   3.760  9.99980E-01  9.87387E-01  1.25926E-02
    9042.181     48.680   3.800  1.00036E+00  9.85956E-01  1.44058E-02
    9043.345     49.844   3.840  1.00134E+00  9.84748E-01  1.65923E-02
    9044.522     51.021   3.880  1.00277E+00  9.83721E-01  1.90489E-02
    9045.711     52.210   3.920  1.00457E+00  9.82875E-01  2.16966E-02
    9046.912     53.411   3.960  1.00673E+00  9.82251E-01  2.44799E-02
    9048.125     54.624   4.000  1.00916E+00  9.81827E-01  2.73376E-02
    9049.350     55.849   4.040  1.01176E+00  9.81581E-01  3.01817E-02
    9050.587     57.086   4.080  1.01436E+00  9.81531E-01  3.28313E-02
    9051.837     58.336   4.120  1.01669E+00  9.81653E-01  3.50342E-02
    9053.099     59.598   4.160  1.01845E+00  9.81943E-01  3.65091E-02
    9054.373     60.872   4.200  1.01942E+00  9.82422E-01  3.69976E-02
    9055.659     62.158   4.240  1.01937E+00  9.83065E-01  3.63004E-02
    9056.958     63.457   4.280  1.01818E+00  9.83847E-01  3.43292E-02
    9058.268     64.767   4.320  1.01594E+00  9.84784E-01  3.11585E-02
    9059.591     66.090   4.360  1.01287E+00  9.85873E-01  2.69929E-02
    9060.926     67.425   4.400  1.00925E+00  9.87065E-01  2.21858E-02
    9062.273     68.772   4.440  1.00558E+00  9.88399E-01  1.71785E-02
    9063.633     70.132   4.480  1.00219E+00  9.89828E-01  1.23600E-02
    9065.004     71.503   4.520  9.99313E-01  9.91344E-01  7.96949E-03
    9066.388     72.887   4.560  9.97043E-01  9.92964E-01  4.07931E-03
    9067.784     74.283   4.600  9.95257E-01  9.94639E-01  6.17918E-04
    9069.192     75.691   4.640  9.93838E-01  9.96384E-01 -2.54582E-03
    9070.613     77.112   4.680  9.92610E-01  9.98152E-01 -5.54200E-03
    9072.045     78.544   4.720  9.91479E-01  9.99978E-01 -8.49823E-03
    9073.490     79.989   4.760  9.90302E-01  1.00181E+00 -1.15123E-02
    9074.947     81.446   4.800  9.89049E-01  1.00366E+00 -1.46069E-02
    9076.416     82.915   4.840  9.87749E-01  1.00552E+00 -1.77678E-02
    9077.897     84.396   4.880  9.86426E-01  1.00735E+00 -2.09222E-02
    9079.391     85.890   4.920  9.85219E-01  1.00914E+00 -2.39240E-02
    9080.897     87.396   4.960  9.84358E-01  1.01089E+00 -2.65365E-02
    9082.415     88.913   5.000  9.84139E-01  1.01260E+00 -2.84614E-02
    9083.945     90.444   5.040  9.84777E-01  1.01423E+00 -2.94554E-02
    9085.487     91.986   5.080  9.86361E-01  1.01581E+00 -2.94448E-02
    9087.041     93.540   5.120  9.88695E-01  1.01727E+00 -2.85795E-02
    9088.608     95.107   5.160  9.91432E-01  1.01866E+00 -2.72233E-02
    9090.187     96.686   5.200  9.94126E-01  1.01994E+00 -2.58183E-02
    9091.778     98.277   5.240  9.96388E-01  1.02112E+00 -2.47270E-02
    9093.381     99.880   5.280  9.98091E-01  1.02216E+00 -2.40730E-02
    9094.997    101.496   5.320  9.99378E-01  1.02309E+00 -2.37104E-02
    9096.624    103.123   5.360  1.00059E+00  1.02389E+00 -2.33003E-02
    9098.264    104.763   5.400  1.00209E+00  1.02453E+00 -2.24450E-02
    9099.916    106.415   5.440  1.00423E+00  1.02507E+00 -2.08448E-02
    9101.580    108.079   5.480  1.00707E+00  1.02544E+00 -1.83698E-02
    9103.257    109.756   5.520  1.01064E+00  1.02569E+00 -1.50490E-02
    9104.945    111.444   5.560  1.01481E+00  1.02580E+00 -1.09834E-02
    9106.646    113.145   5.600  1.01947E+00  1.02575E+00 -6.27176E-03
    9108.359    114.858   5.640  1.02457E+00  1.02559E+00 -1.02300E-03
    9110.084    116.583   5.680  1.02987E+00  1.02528E+00  4.58587E-03
    9111.821    118.320   5.720  1.03509E+00  1.02483E+00  1.02635E-02
    9113.571    120.070   5.760  1.03990E+00  1.02428E+00  1.56284E-02
    9115.333    121.832   5.800  1.04392E+00  1.02361E+00  2.03154E-02
    9117.107    123.606   5.840  1.04692E+00  1.02282E+00  2.40978E-02
    9118.893    125.392   5.880  1.04888E+00  1.02195E+00  2.69243E-02
    9120.691    127.190   5.920  1.04986E+00  1.02098E+00  2.88745E-02
    9122.502    129.001   5.960  1.04993E+00  1.01993E+00  3.00038E-02
    9124.324    130.823   6.000  1.04894E+00  1.01873E+00  3.02036E-02
