# # comment:                                                     FEFF 9.9.1  
# # Source:
# # Structure
# # Reduced
# # space
# # abc:
# # angles:
# # sites:
# # POT  SCF 100  7.0000   0, screened core-hole, AFOLP (folp(0)= 1.150)
# # Abs   Z=29 Rmt= 1.225 Rnm= 1.327 K  shell
# # Pot 1 Z=81 Rmt= 1.866 Rnm= 1.931
# # Pot 2 Z=29 Rmt= 1.200 Rnm= 1.310
# # Pot 3 Z=33 Rmt= 1.087 Rnm= 1.297
# # Pot 4 Z= 8 Rmt= 0.948 Rnm= 1.090
# # Gam_ch=1.729E+00 H-L exch Vi= 0.000E+00 Vr= 0.000E+00
# # Mu=-5.846E+00eV kf=2.220E+00 Vint=-1.468E+01eV Rs_int= 1.633
# FMS rfms= 9.0000
# # PATH  Rmax=-1.000,  Keep_limit= 0.00, Heap_limit 0.00  Pwcrit= 2.50%
#  S02=0.950  Temp=   0.00  Debye_temp=   0.00  Global_sig2= 0.00000
#  Energy zero shift, vr, vi    0.00000E+00   0.00000E+00
#  Curved wave amplitude ratio filter   4.000%
#     file         sig2 tot  cw amp ratio   deg  nlegs   reff  inp sig2
#     0/   0 paths used
#  xsedge+ 50, used to normalize mu           2.4398E-04
#  -----------------------------------------------------------------------
#  omega    e    k    mu    mu0     chi     @#
    8983.314     -9.656  -1.000  4.01603E-02  5.61105E-02 -1.59501E-02
    8983.613     -9.357  -0.960  4.23609E-02  6.02427E-02 -1.78818E-02
    8983.899     -9.070  -0.920  4.47362E-02  6.48385E-02 -2.01023E-02
    8984.174     -8.796  -0.880  4.73050E-02  6.99662E-02 -2.26611E-02
    8984.436     -8.534  -0.840  5.00883E-02  7.57056E-02 -2.56173E-02
    8984.686     -8.284  -0.800  5.31091E-02  8.21492E-02 -2.90401E-02
    8984.923     -8.046  -0.760  5.63928E-02  8.94030E-02 -3.30102E-02
    8985.149     -7.821  -0.720  5.99665E-02  9.75869E-02 -3.76203E-02
    8985.362     -7.607  -0.680  6.38585E-02  1.06833E-01 -4.29743E-02
    8985.564     -7.406  -0.640  6.80966E-02  1.17280E-01 -4.91836E-02
    8985.752     -7.217  -0.600  7.27057E-02  1.29066E-01 -5.63603E-02
    8985.929     -7.040  -0.560  7.77038E-02  1.42307E-01 -6.46035E-02
    8986.094     -6.876  -0.520  8.30959E-02  1.57074E-01 -7.39777E-02
    8986.246     -6.723  -0.480  8.88668E-02  1.73350E-01 -8.44832E-02
    8986.386     -6.583  -0.440  9.49717E-02  1.90993E-01 -9.60218E-02
    8986.514     -6.455  -0.400  1.01329E-01  2.09696E-01 -1.08367E-01
    8986.630     -6.339  -0.360  1.07816E-01  2.28975E-01 -1.21158E-01
    8986.734     -6.236  -0.320  1.14275E-01  2.48200E-01 -1.33925E-01
    8986.825     -6.144  -0.280  1.20522E-01  2.66675E-01 -1.46152E-01
    8986.905     -6.065  -0.240  1.26368E-01  2.83727E-01 -1.57359E-01
    8986.972     -5.998  -0.200  1.31634E-01  2.98796E-01 -1.67163E-01
    8987.027     -5.943  -0.160  1.36162E-01  3.11471E-01 -1.75309E-01
    8987.069     -5.900  -0.120  1.39827E-01  3.21490E-01 -1.81664E-01
    8987.100     -5.870  -0.080  1.42530E-01  3.28708E-01 -1.86177E-01
    8987.124     -5.846   0.000  1.44779E-01  3.34506E-01 -1.89727E-01
    8987.179     -5.791   0.120  1.49839E-01  3.47565E-01 -1.97726E-01
    8987.222     -5.748   0.160  1.53821E-01  3.57722E-01 -2.03901E-01
    8987.276     -5.693   0.200  1.59050E-01  3.70704E-01 -2.11654E-01
    8987.344     -5.626   0.240  1.65577E-01  3.86293E-01 -2.20716E-01
    8987.423     -5.547   0.280  1.73514E-01  4.04196E-01 -2.30682E-01
    8987.514     -5.455   0.320  1.82932E-01  4.23933E-01 -2.41001E-01
    8987.618     -5.352   0.360  1.93958E-01  4.44935E-01 -2.50977E-01
    8987.734     -5.236   0.400  2.06689E-01  4.66597E-01 -2.59908E-01
    8987.862     -5.108   0.440  2.21183E-01  4.88322E-01 -2.67139E-01
    8988.002     -4.968   0.480  2.37596E-01  5.09724E-01 -2.72128E-01
    8988.154     -4.815   0.520  2.55847E-01  5.30468E-01 -2.74621E-01
    8988.319     -4.651   0.560  2.75792E-01  5.50425E-01 -2.74633E-01
    8988.496     -4.474   0.600  2.97108E-01  5.69582E-01 -2.72474E-01
    8988.685     -4.285   0.640  3.19246E-01  5.87977E-01 -2.68732E-01
    8988.886     -4.084   0.680  3.41594E-01  6.05690E-01 -2.64096E-01
    8989.099     -3.871   0.720  3.63304E-01  6.22810E-01 -2.59506E-01
    8989.325     -3.645   0.760  3.82939E-01  6.39406E-01 -2.56467E-01
    8989.562     -3.407   0.800  3.98299E-01  6.55601E-01 -2.57303E-01
    8989.812     -3.157   0.840  4.07494E-01  6.71443E-01 -2.63949E-01
    8990.075     -2.895   0.880  4.11237E-01  6.86981E-01 -2.75744E-01
    8990.349     -2.621   0.920  4.13198E-01  7.02232E-01 -2.89035E-01
    8990.635     -2.334   0.960  4.17869E-01  7.17246E-01 -2.99376E-01
    8990.934     -2.036   1.000  4.28008E-01  7.32013E-01 -3.04004E-01
    8991.245     -1.725   1.040  4.44615E-01  7.46559E-01 -3.01944E-01
    8991.568     -1.402   1.080  4.68224E-01  7.60862E-01 -2.92638E-01
    8991.903     -1.066   1.120  4.98614E-01  7.74914E-01 -2.76300E-01
    8992.251     -0.719   1.160  5.33125E-01  7.88679E-01 -2.55553E-01
    8992.610     -0.359   1.200  5.68161E-01  8.02158E-01 -2.33998E-01
    8992.982      0.013   1.240  6.01569E-01  8.15333E-01 -2.13764E-01
    8993.366      0.397   1.280  6.31555E-01  8.28180E-01 -1.96625E-01
    8993.763      0.793   1.320  6.56325E-01  8.40654E-01 -1.84328E-01
    8994.171      1.201   1.360  6.77471E-01  8.52768E-01 -1.75297E-01
    8994.592      1.622   1.400  7.02459E-01  8.64458E-01 -1.61999E-01
    8995.024      2.055   1.440  7.38362E-01  8.75718E-01 -1.37356E-01
    8995.469      2.500   1.480  7.84739E-01  8.86542E-01 -1.01802E-01
    8995.927      2.957   1.520  8.35199E-01  8.96903E-01 -6.17050E-02
    8996.396      3.426   1.560  8.82281E-01  9.06801E-01 -2.45200E-02
    8996.878      3.908   1.600  9.21457E-01  9.16211E-01  5.24626E-03
    8997.371      4.402   1.640  9.53958E-01  9.25130E-01  2.88280E-02
    8997.877      4.908   1.680  9.83974E-01  9.33539E-01  5.04342E-02
    8998.396      5.426   1.720  1.01537E+00  9.41457E-01  7.39153E-02
    8998.926      5.956   1.760  1.05376E+00  9.48865E-01  1.04896E-01
    8999.468      6.499   1.800  1.10177E+00  9.55788E-01  1.45980E-01
    9000.023      7.053   1.840  1.15907E+00  9.62207E-01  1.96860E-01
    9000.590      7.620   1.880  1.22024E+00  9.68150E-01  2.52087E-01
    9001.169      8.200   1.920  1.27535E+00  9.73622E-01  3.01730E-01
    9001.761      8.791   1.960  1.31803E+00  9.78607E-01  3.39421E-01
    9002.364      9.394   2.000  1.34242E+00  9.83177E-01  3.59243E-01
    9002.980     10.010   2.040  1.34762E+00  9.87276E-01  3.60347E-01
    9003.608     10.638   2.080  1.34318E+00  9.90976E-01  3.52207E-01
    9004.248     11.278   2.120  1.33513E+00  9.94287E-01  3.40845E-01
    9004.900     11.930   2.160  1.32122E+00  9.97196E-01  3.24028E-01
    9005.564     12.595   2.200  1.30035E+00  9.99756E-01  3.00596E-01
    9006.241     13.271   2.240  1.27357E+00  1.00195E+00  2.71619E-01
    9006.930     13.960   2.280  1.24120E+00  1.00385E+00  2.37357E-01
    9007.631     14.661   2.320  1.20472E+00  1.00544E+00  1.99283E-01
    9008.344     15.374   2.360  1.16893E+00  1.00674E+00  1.62183E-01
    9009.070     16.100   2.400  1.13838E+00  1.00779E+00  1.30593E-01
    9009.807     16.838   2.440  1.11297E+00  1.00859E+00  1.04383E-01
    9010.557     17.587   2.480  1.08926E+00  1.00915E+00  8.01087E-02
    9011.319     18.349   2.520  1.06471E+00  1.00952E+00  5.51898E-02
    9012.093     19.124   2.560  1.03969E+00  1.00970E+00  2.99847E-02
    9012.880     19.910   2.600  1.01734E+00  1.00973E+00  7.60901E-03
    9013.678     20.708   2.640  1.00298E+00  1.00958E+00 -6.59649E-03
    9014.489     21.519   2.680  9.95928E-01  1.00932E+00 -1.33946E-02
    9015.312     22.342   2.720  9.90921E-01  1.00894E+00 -1.80208E-02
    9016.147     23.177   2.760  9.85435E-01  1.00847E+00 -2.30346E-02
    9016.994     24.025   2.800  9.78771E-01  1.00789E+00 -2.91182E-02
    9017.854     24.884   2.840  9.71112E-01  1.00725E+00 -3.61383E-02
    9018.726     25.756   2.880  9.62583E-01  1.00656E+00 -4.39778E-02
    9019.610     26.640   2.920  9.52884E-01  1.00580E+00 -5.29196E-02
    9020.506     27.536   2.960  9.42192E-01  1.00503E+00 -6.28366E-02
    9021.414     28.444   3.000  9.30947E-01  1.00422E+00 -7.32724E-02
    9022.334     29.365   3.040  9.19839E-01  1.00340E+00 -8.35609E-02
    9023.267     30.297   3.080  9.09648E-01  1.00256E+00 -9.29077E-02
    9024.212     31.242   3.120  9.01069E-01  1.00173E+00 -1.00665E-01
    9025.169     32.199   3.160  8.94316E-01  1.00094E+00 -1.06622E-01
    9026.138     33.169   3.200  8.89334E-01  1.00013E+00 -1.10795E-01
    9027.120     34.150   3.240  8.86148E-01  9.99374E-01 -1.13225E-01
    9028.113     35.144   3.280  8.84495E-01  9.98633E-01 -1.14138E-01
    9029.119     36.150   3.320  8.84232E-01  9.97930E-01 -1.13697E-01
    9030.137     37.168   3.360  8.85354E-01  9.97288E-01 -1.11934E-01
    9031.167     38.198   3.400  8.87798E-01  9.96669E-01 -1.08871E-01
    9032.210     39.240   3.440  8.91505E-01  9.96115E-01 -1.04610E-01
    9033.265     40.295   3.480  8.96494E-01  9.95607E-01 -9.91139E-02
    9034.331     41.362   3.520  9.02837E-01  9.95169E-01 -9.23312E-02
    9035.410     42.441   3.560  9.10499E-01  9.94778E-01 -8.42792E-02
    9036.501     43.532   3.600  9.19456E-01  9.94436E-01 -7.49801E-02
    9037.605     44.635   3.640  9.29666E-01  9.94165E-01 -6.44990E-02
    9038.720     45.751   3.680  9.40889E-01  9.93967E-01 -5.30779E-02
    9039.848     46.878   3.720  9.52550E-01  9.93820E-01 -4.12702E-02
    9040.988     48.018   3.760  9.64087E-01  9.93744E-01 -2.96574E-02
    9042.140     49.171   3.800  9.74947E-01  9.93719E-01 -1.87723E-02
    9043.305     50.335   3.840  9.84853E-01  9.93767E-01 -8.91417E-03
    9044.481     51.511   3.880  9.93869E-01  9.93887E-01 -1.82264E-05
    9045.670     52.700   3.920  1.00221E+00  9.94054E-01  8.15892E-03
    9046.871     53.901   3.960  1.00997E+00  9.94270E-01  1.57035E-02
    9048.084     55.114   4.000  1.01707E+00  9.94554E-01  2.25129E-02
    9049.309     56.339   4.040  1.02337E+00  9.94883E-01  2.84902E-02
    9050.547     57.577   4.080  1.02896E+00  9.95259E-01  3.37051E-02
    9051.796     58.827   4.120  1.03411E+00  9.95699E-01  3.84143E-02
    9053.058     60.088   4.160  1.03921E+00  9.96161E-01  4.30536E-02
    9054.332     61.363   4.200  1.04466E+00  9.96686E-01  4.79691E-02
    9055.618     62.649   4.240  1.05050E+00  9.97252E-01  5.32493E-02
    9056.917     63.947   4.280  1.05657E+00  9.97856E-01  5.87108E-02
    9058.228     65.258   4.320  1.06240E+00  9.98475E-01  6.39241E-02
    9059.550     66.581   4.360  1.06744E+00  9.99150E-01  6.82926E-02
    9060.885     67.916   4.400  1.07103E+00  9.99836E-01  7.11976E-02
    9062.233     69.263   4.440  1.07286E+00  1.00053E+00  7.23253E-02
    9063.592     70.622   4.480  1.07293E+00  1.00126E+00  7.16761E-02
    9064.964     71.994   4.520  1.07161E+00  1.00199E+00  6.96267E-02
    9066.347     73.378   4.560  1.06956E+00  1.00274E+00  6.68154E-02
    9067.743     74.774   4.600  1.06737E+00  1.00348E+00  6.38889E-02
    9069.152     76.182   4.640  1.06557E+00  1.00423E+00  6.13395E-02
    9070.572     77.602   4.680  1.06442E+00  1.00499E+00  5.94320E-02
    9072.004     79.035   4.720  1.06377E+00  1.00572E+00  5.80472E-02
    9073.449     80.479   4.760  1.06314E+00  1.00644E+00  5.67001E-02
    9074.906     81.936   4.800  1.06182E+00  1.00716E+00  5.46579E-02
    9076.375     83.406   4.840  1.05900E+00  1.00787E+00  5.11295E-02
    9077.857     84.887   4.880  1.05401E+00  1.00855E+00  4.54647E-02
    9079.350     86.380   4.920  1.04651E+00  1.00919E+00  3.73177E-02
    9080.856     87.886   4.960  1.03654E+00  1.00982E+00  2.67170E-02
    9082.374     89.404   5.000  1.02451E+00  1.01041E+00  1.40978E-02
    9083.904     90.934   5.040  1.01116E+00  1.01097E+00  1.95820E-04
    9085.446     92.476   5.080  9.97353E-01  1.01148E+00 -1.41265E-02
    9087.001     94.031   5.120  9.83952E-01  1.01197E+00 -2.80221E-02
    9088.567     95.598   5.160  9.71639E-01  1.01240E+00 -4.07659E-02
    9090.146     97.176   5.200  9.61049E-01  1.01279E+00 -5.17425E-02
    9091.737     98.767   5.240  9.52599E-01  1.01314E+00 -6.05362E-02
    9093.340    100.371   5.280  9.46486E-01  1.01344E+00 -6.69504E-02
    9094.956    101.986   5.320  9.42716E-01  1.01369E+00 -7.09767E-02
    9096.583    103.614   5.360  9.41254E-01  1.01390E+00 -7.26487E-02
    9098.223    105.254   5.400  9.42037E-01  1.01404E+00 -7.20067E-02
    9099.875    106.906   5.440  9.44984E-01  1.01414E+00 -6.91545E-02
    9101.539    108.570   5.480  9.49840E-01  1.01419E+00 -6.43451E-02
    9103.216    110.246   5.520  9.56216E-01  1.01416E+00 -5.79473E-02
    9104.904    111.935   5.560  9.63608E-01  1.01409E+00 -5.04866E-02
    9106.605    113.635   5.600  9.71330E-01  1.01398E+00 -4.26510E-02
    9108.318    115.348   5.640  9.78779E-01  1.01382E+00 -3.50430E-02
    9110.043    117.074   5.680  9.85343E-01  1.01360E+00 -2.82529E-02
    9111.781    118.811   5.720  9.90894E-01  1.01333E+00 -2.24329E-02
    9113.530    120.561   5.760  9.95647E-01  1.01304E+00 -1.73910E-02
    9115.292    122.322   5.800  9.99791E-01  1.01268E+00 -1.28927E-02
    9117.066    124.096   5.840  1.00337E+00  1.01226E+00 -8.89275E-03
    9118.852    125.882   5.880  1.00628E+00  1.01183E+00 -5.55495E-03
    9120.650    127.681   5.920  1.00821E+00  1.01136E+00 -3.15353E-03
    9122.461    129.491   5.960  1.00912E+00  1.01086E+00 -1.74412E-03
    9124.284    131.314   6.000  1.00909E+00  1.01029E+00 -1.20375E-03
