# # comment:                                                     FEFF 9.9.1  
# # Source:
# # Structure
# # Reduced
# # space
# # abc:
# # angles:
# # sites:
# # POT  SCF 100  7.0000   0, screened core-hole, AFOLP (folp(0)= 1.150)
# # Abs   Z=29 Rmt= 1.210 Rnm= 1.311 K  shell
# # Pot 1 Z=20 Rmt= 1.661 Rnm= 1.738
# # Pot 2 Z=59 Rmt= 1.705 Rnm= 1.790
# # Pot 3 Z=29 Rmt= 1.187 Rnm= 1.295
# # Pot 4 Z= 8 Rmt= 1.055 Rnm= 1.128
# # Gam_ch=1.729E+00 H-L exch Vi= 0.000E+00 Vr= 0.000E+00
# # Mu=-9.177E+00eV kf=2.036E+00 Vint=-1.721E+01eV Rs_int= 1.781
# FMS rfms= 9.0000
# # PATH  Rmax=-1.000,  Keep_limit= 0.00, Heap_limit 0.00  Pwcrit= 2.50%
#  S02=0.950  Temp=   0.00  Debye_temp=   0.00  Global_sig2= 0.00000
#  Energy zero shift, vr, vi    0.00000E+00   0.00000E+00
#  Curved wave amplitude ratio filter   4.000%
#     file         sig2 tot  cw amp ratio   deg  nlegs   reff  inp sig2
#     0/   0 paths used
#  xsedge+ 50, used to normalize mu           2.4677E-04
#  -----------------------------------------------------------------------
#  omega    e    k    mu    mu0     chi     @#
    8984.487    -12.987  -1.000  3.59324E-02  5.00331E-02 -1.41008E-02
    8984.786    -12.689  -0.960  3.78794E-02  5.35594E-02 -1.56800E-02
    8985.072    -12.402  -0.920  3.99879E-02  5.74689E-02 -1.74809E-02
    8985.346    -12.128  -0.880  4.22767E-02  6.18172E-02 -1.95405E-02
    8985.609    -11.866  -0.840  4.47666E-02  6.66690E-02 -2.19024E-02
    8985.859    -11.616  -0.800  4.74813E-02  7.20993E-02 -2.46180E-02
    8986.096    -11.378  -0.760  5.04466E-02  7.81938E-02 -2.77472E-02
    8986.322    -11.153  -0.720  5.36907E-02  8.50494E-02 -3.13588E-02
    8986.535    -10.939  -0.680  5.72430E-02  9.27727E-02 -3.55297E-02
    8986.736    -10.738  -0.640  6.11329E-02  1.01476E-01 -4.03429E-02
    8986.925    -10.549  -0.600  6.53871E-02  1.11269E-01 -4.58817E-02
    8987.102    -10.372  -0.560  7.00249E-02  1.22245E-01 -5.22205E-02
    8987.267    -10.208  -0.520  7.50516E-02  1.34460E-01 -5.94089E-02
    8987.419    -10.055  -0.480  8.04499E-02  1.47900E-01 -6.74505E-02
    8987.559     -9.915  -0.440  8.61699E-02  1.62447E-01 -7.62775E-02
    8987.687     -9.787  -0.400  9.21214E-02  1.77851E-01 -8.57292E-02
    8987.803     -9.671  -0.360  9.81721E-02  1.93716E-01 -9.55439E-02
    8987.907     -9.568  -0.320  1.04156E-01  2.09532E-01 -1.05376E-01
    8987.998     -9.476  -0.280  1.09892E-01  2.24730E-01 -1.14838E-01
    8988.077     -9.397  -0.240  1.15204E-01  2.38762E-01 -1.23558E-01
    8988.144     -9.330  -0.200  1.19939E-01  2.51169E-01 -1.31230E-01
    8988.199     -9.275  -0.160  1.23973E-01  2.61611E-01 -1.37638E-01
    8988.242     -9.232  -0.120  1.27213E-01  2.69870E-01 -1.42658E-01
    8988.273     -9.202  -0.080  1.29589E-01  2.75824E-01 -1.46235E-01
    8988.297     -9.177   0.000  1.31553E-01  2.80610E-01 -1.49057E-01
    8988.352     -9.123   0.120  1.35975E-01  2.91407E-01 -1.55432E-01
    8988.394     -9.080   0.160  1.39462E-01  2.99809E-01 -1.60347E-01
    8988.449     -9.025   0.200  1.43995E-01  3.10528E-01 -1.66533E-01
    8988.516     -8.958   0.240  1.49740E-01  3.23471E-01 -1.73731E-01
    8988.596     -8.879   0.280  1.56766E-01  3.38354E-01 -1.81588E-01
    8988.687     -8.787   0.320  1.65313E-01  3.54840E-01 -1.89527E-01
    8988.791     -8.684   0.360  1.75638E-01  3.72463E-01 -1.96825E-01
    8988.906     -8.568   0.400  1.88122E-01  3.90744E-01 -2.02623E-01
    8989.035     -8.440   0.440  2.03211E-01  4.09229E-01 -2.06018E-01
    8989.175     -8.300   0.480  2.21315E-01  4.27599E-01 -2.06284E-01
    8989.327     -8.147   0.520  2.42599E-01  4.45622E-01 -2.03023E-01
    8989.492     -7.983   0.560  2.66727E-01  4.63199E-01 -1.96472E-01
    8989.668     -7.806   0.600  2.92512E-01  4.80279E-01 -1.87767E-01
    8989.857     -7.617   0.640  3.17572E-01  4.96913E-01 -1.79340E-01
    8990.059     -7.416   0.680  3.38185E-01  5.13198E-01 -1.75013E-01
    8990.272     -7.202   0.720  3.50453E-01  5.29163E-01 -1.78710E-01
    8990.498     -6.977   0.760  3.52893E-01  5.44919E-01 -1.92027E-01
    8990.735     -6.739   0.800  3.47676E-01  5.60505E-01 -2.12828E-01
    8990.985     -6.489   0.840  3.39356E-01  5.75987E-01 -2.36632E-01
    8991.247     -6.227   0.880  3.32379E-01  5.91405E-01 -2.59025E-01
    8991.522     -5.953   0.920  3.29829E-01  6.06761E-01 -2.76932E-01
    8991.808     -5.666   0.960  3.33478E-01  6.22090E-01 -2.88612E-01
    8992.107     -5.367   1.000  3.43511E-01  6.37396E-01 -2.93885E-01
    8992.418     -5.057   1.040  3.57321E-01  6.52677E-01 -2.95355E-01
    8992.741     -4.733   1.080  3.69878E-01  6.67902E-01 -2.98024E-01
    8993.076     -4.398   1.120  3.78488E-01  6.83076E-01 -3.04588E-01
    8993.424     -4.051   1.160  3.85121E-01  6.98160E-01 -3.13039E-01
    8993.783     -3.691   1.200  3.92856E-01  7.13128E-01 -3.20272E-01
    8994.155     -3.319   1.240  4.03006E-01  7.27976E-01 -3.24969E-01
    8994.539     -2.935   1.280  4.15588E-01  7.42633E-01 -3.27045E-01
    8994.935     -2.539   1.320  4.32123E-01  7.57089E-01 -3.24966E-01
    8995.344     -2.131   1.360  4.55825E-01  7.71314E-01 -3.15490E-01
    8995.764     -1.710   1.400  4.87859E-01  7.85275E-01 -2.97416E-01
    8996.197     -1.277   1.440  5.22994E-01  7.98938E-01 -2.75944E-01
    8996.642     -0.832   1.480  5.54703E-01  8.12274E-01 -2.57571E-01
    8997.099     -0.375   1.520  5.84726E-01  8.25249E-01 -2.40523E-01
    8997.569      0.095   1.560  6.19914E-01  8.37831E-01 -2.17917E-01
    8998.050      0.576   1.600  6.66313E-01  8.50011E-01 -1.83698E-01
    8998.544      1.070   1.640  7.29661E-01  8.61759E-01 -1.32098E-01
    8999.050      1.576   1.680  8.13056E-01  8.73047E-01 -5.99905E-02
    8999.568      2.094   1.720  9.13863E-01  8.83889E-01  2.99740E-02
    9000.099      2.624   1.760  1.02436E+00  8.94238E-01  1.30125E-01
    9000.641      3.167   1.800  1.12934E+00  9.04090E-01  2.25247E-01
    9001.196      3.722   1.840  1.20457E+00  9.13462E-01  2.91103E-01
    9001.763      4.289   1.880  1.24233E+00  9.22313E-01  3.20014E-01
    9002.342      4.868   1.920  1.26215E+00  9.30682E-01  3.31468E-01
    9002.933      5.459   1.960  1.28358E+00  9.38530E-01  3.45053E-01
    9003.537      6.062   2.000  1.30972E+00  9.45880E-01  3.63844E-01
    9004.153      6.678   2.040  1.33530E+00  9.52755E-01  3.82547E-01
    9004.780      7.306   2.080  1.35610E+00  9.59117E-01  3.96982E-01
    9005.420      7.946   2.120  1.36437E+00  9.65013E-01  3.99355E-01
    9006.073      8.598   2.160  1.34690E+00  9.70428E-01  3.76469E-01
    9006.737      9.263   2.200  1.30523E+00  9.75412E-01  3.29822E-01
    9007.414      9.940   2.240  1.26080E+00  9.79950E-01  2.80850E-01
    9008.103     10.628   2.280  1.22703E+00  9.84050E-01  2.42984E-01
    9008.804     11.329   2.320  1.19890E+00  9.87760E-01  2.11141E-01
    9009.517     12.043   2.360  1.16434E+00  9.91071E-01  1.73274E-01
    9010.242     12.768   2.400  1.11738E+00  9.94010E-01  1.23369E-01
    9010.980     13.506   2.440  1.06698E+00  9.96609E-01  7.03720E-02
    9011.730     14.255   2.480  1.02972E+00  9.98857E-01  3.08669E-02
    9012.492     15.017   2.520  1.00586E+00  1.00080E+00  5.06182E-03
    9013.266     15.792   2.560  9.89775E-01  1.00244E+00 -1.26615E-02
    9014.052     16.578   2.600  9.78858E-01  1.00381E+00 -2.49500E-02
    9014.851     17.377   2.640  9.71670E-01  1.00493E+00 -3.32590E-02
    9015.662     18.187   2.680  9.67935E-01  1.00581E+00 -3.78719E-02
    9016.485     19.010   2.720  9.67182E-01  1.00645E+00 -3.92663E-02
    9017.320     19.845   2.760  9.68381E-01  1.00691E+00 -3.85256E-02
    9018.167     20.693   2.800  9.70265E-01  1.00715E+00 -3.68825E-02
    9019.027     21.552   2.840  9.71515E-01  1.00724E+00 -3.57261E-02
    9019.898     22.424   2.880  9.71115E-01  1.00718E+00 -3.60623E-02
    9020.782     23.308   2.920  9.68865E-01  1.00698E+00 -3.81180E-02
    9021.678     24.204   2.960  9.64972E-01  1.00667E+00 -4.16934E-02
    9022.587     25.112   3.000  9.59523E-01  1.00623E+00 -4.67075E-02
    9023.507     26.033   3.040  9.52334E-01  1.00571E+00 -5.33738E-02
    9024.440     26.966   3.080  9.43146E-01  1.00510E+00 -6.19570E-02
    9025.385     27.910   3.120  9.32105E-01  1.00444E+00 -7.23377E-02
    9026.342     28.868   3.160  9.19611E-01  1.00371E+00 -8.41008E-02
    9027.311     29.837   3.200  9.06317E-01  1.00293E+00 -9.66178E-02
    9028.293     30.818   3.240  8.93168E-01  1.00212E+00 -1.08948E-01
    9029.286     31.812   3.280  8.81229E-01  1.00126E+00 -1.20035E-01
    9030.292     32.818   3.320  8.71773E-01  1.00040E+00 -1.28627E-01
    9031.310     33.836   3.360  8.66166E-01  9.99532E-01 -1.33367E-01
    9032.340     34.866   3.400  8.65350E-01  9.98662E-01 -1.33312E-01
    9033.383     35.908   3.440  8.69507E-01  9.97793E-01 -1.28287E-01
    9034.437     36.963   3.480  8.78291E-01  9.96929E-01 -1.18638E-01
    9035.504     38.030   3.520  8.90664E-01  9.96091E-01 -1.05428E-01
    9036.583     39.109   3.560  9.04712E-01  9.95264E-01 -9.05521E-02
    9037.674     40.200   3.600  9.18432E-01  9.94471E-01 -7.60390E-02
    9038.778     41.303   3.640  9.30301E-01  9.93714E-01 -6.34123E-02
    9039.893     42.419   3.680  9.39680E-01  9.92994E-01 -5.33138E-02
    9041.021     43.547   3.720  9.46812E-01  9.92314E-01 -4.55014E-02
    9042.161     44.687   3.760  9.52674E-01  9.91674E-01 -3.89998E-02
    9043.313     45.839   3.800  9.58452E-01  9.91075E-01 -3.26230E-02
    9044.477     47.003   3.840  9.65127E-01  9.90518E-01 -2.53910E-02
    9045.654     48.180   3.880  9.73306E-01  9.90027E-01 -1.67207E-02
    9046.843     49.368   3.920  9.83076E-01  9.89558E-01 -6.48149E-03
    9048.044     50.569   3.960  9.94244E-01  9.89154E-01  5.08913E-03
    9049.257     51.782   4.000  1.00644E+00  9.88817E-01  1.76190E-02
    9050.482     53.008   4.040  1.01921E+00  9.88504E-01  3.07035E-02
    9051.719     54.245   4.080  1.03214E+00  9.88257E-01  4.38815E-02
    9052.969     55.495   4.120  1.04465E+00  9.88056E-01  5.65969E-02
    9054.231     56.757   4.160  1.05641E+00  9.87923E-01  6.84861E-02
    9055.505     58.031   4.200  1.06708E+00  9.87833E-01  7.92434E-02
    9056.791     59.317   4.240  1.07635E+00  9.87786E-01  8.85680E-02
    9058.090     60.615   4.280  1.08383E+00  9.87781E-01  9.60490E-02
    9059.400     61.926   4.320  1.08898E+00  9.87819E-01  1.01164E-01
    9060.723     63.249   4.360  1.09148E+00  9.87919E-01  1.03559E-01
    9062.058     64.584   4.400  1.09141E+00  9.88040E-01  1.03372E-01
    9063.405     65.931   4.440  1.08943E+00  9.88221E-01  1.01211E-01
    9064.765     67.290   4.480  1.08612E+00  9.88418E-01  9.76975E-02
    9066.136     68.662   4.520  1.08189E+00  9.88653E-01  9.32378E-02
    9067.520     70.046   4.560  1.07679E+00  9.88948E-01  8.78397E-02
    9068.916     71.442   4.600  1.07041E+00  9.89254E-01  8.11558E-02
    9070.324     72.850   4.640  1.06236E+00  9.89573E-01  7.27839E-02
    9071.745     74.270   4.680  1.05251E+00  9.89922E-01  6.25867E-02
    9073.177     75.703   4.720  1.04101E+00  9.90303E-01  5.07071E-02
    9074.622     77.148   4.760  1.02808E+00  9.90694E-01  3.73866E-02
    9076.079     78.605   4.800  1.01404E+00  9.91114E-01  2.29289E-02
    9077.548     80.074   4.840  9.99335E-01  9.91539E-01  7.79611E-03
    9079.029     81.555   4.880  9.84661E-01  9.91968E-01 -7.30644E-03
    9080.523     83.049   4.920  9.70802E-01  9.92420E-01 -2.16186E-02
    9082.029     84.554   4.960  9.58353E-01  9.92852E-01 -3.44997E-02
    9083.546     86.072   5.000  9.47865E-01  9.93305E-01 -4.54397E-02
    9085.077     87.602   5.040  9.39619E-01  9.93734E-01 -5.41146E-02
    9086.619     89.145   5.080  9.33738E-01  9.94161E-01 -6.04226E-02
    9088.173     90.699   5.120  9.30246E-01  9.94606E-01 -6.43602E-02
    9089.740     92.266   5.160  9.29198E-01  9.95023E-01 -6.58253E-02
    9091.319     93.845   5.200  9.30823E-01  9.95410E-01 -6.45869E-02
    9092.910     95.436   5.240  9.35222E-01  9.95790E-01 -6.05685E-02
    9094.513     97.039   5.280  9.42177E-01  9.96161E-01 -5.39840E-02
    9096.129     98.654   5.320  9.51053E-01  9.96500E-01 -4.54471E-02
    9097.756    100.282   5.360  9.60943E-01  9.96829E-01 -3.58861E-02
    9099.396    101.922   5.400  9.70684E-01  9.97123E-01 -2.64393E-02
    9101.048    103.574   5.440  9.79195E-01  9.97383E-01 -1.81874E-02
    9102.712    105.238   5.480  9.85839E-01  9.97628E-01 -1.17897E-02
    9104.389    106.914   5.520  9.90538E-01  9.97839E-01 -7.30081E-03
    9106.077    108.603   5.560  9.93493E-01  9.98011E-01 -4.51843E-03
    9107.778    110.304   5.600  9.94794E-01  9.98147E-01 -3.35353E-03
    9109.491    112.017   5.640  9.94439E-01  9.98267E-01 -3.82782E-03
    9111.216    113.742   5.680  9.92550E-01  9.98326E-01 -5.77588E-03
    9112.953    115.479   5.720  9.89598E-01  9.98369E-01 -8.77109E-03
    9114.703    117.229   5.760  9.86177E-01  9.98372E-01 -1.21956E-02
    9116.465    118.990   5.800  9.82903E-01  9.98313E-01 -1.54100E-02
    9118.239    120.764   5.840  9.80373E-01  9.98239E-01 -1.78661E-02
    9120.025    122.550   5.880  9.78970E-01  9.98130E-01 -1.91598E-02
    9121.823    124.349   5.920  9.78961E-01  9.97984E-01 -1.90229E-02
    9123.634    126.159   5.960  9.80355E-01  9.97826E-01 -1.74708E-02
    9125.456    127.982   6.000  9.82467E-01  9.97580E-01 -1.51132E-02
