# # comment:                                                     FEFF 9.9.1  
# # Source:
# # Structure
# # Reduced
# # space
# # abc:
# # angles:
# # sites:
# # POT  SCF 100  7.0000   0, screened core-hole, AFOLP (folp(0)= 1.150)
# # Abs   Z=29 Rmt= 1.243 Rnm= 1.299 K  shell
# # Pot 1 Z=13 Rmt= 1.226 Rnm= 1.329
# # Pot 2 Z=29 Rmt= 1.243 Rnm= 1.323
# # Pot 3 Z= 8 Rmt= 0.991 Rnm= 1.074
# # Gam_ch=1.729E+00 H-L exch Vi= 0.000E+00 Vr= 0.000E+00
# # Mu=-8.332E+00eV kf=2.265E+00 Vint=-1.778E+01eV Rs_int= 1.601
# FMS rfms= 9.0000
# # PATH  Rmax=-1.000,  Keep_limit= 0.00, Heap_limit 0.00  Pwcrit= 2.50%
#  S02=0.950  Temp=   0.00  Debye_temp=   0.00  Global_sig2= 0.00000
#  Energy zero shift, vr, vi    0.00000E+00   0.00000E+00
#  Curved wave amplitude ratio filter   4.000%
#     file         sig2 tot  cw amp ratio   deg  nlegs   reff  inp sig2
#     0/   0 paths used
#  xsedge+ 50, used to normalize mu           2.4826E-04
#  -----------------------------------------------------------------------
#  omega    e    k    mu    mu0     chi     @#
    8983.888    -12.142  -1.000  2.94012E-02  4.82383E-02 -1.88371E-02
    8984.187    -11.843  -0.960  3.05482E-02  5.16410E-02 -2.10928E-02
    8984.473    -11.556  -0.920  3.17459E-02  5.54167E-02 -2.36708E-02
    8984.748    -11.282  -0.880  3.29970E-02  5.96201E-02 -2.66231E-02
    8985.010    -11.020  -0.840  3.43045E-02  6.43149E-02 -3.00105E-02
    8985.260    -10.770  -0.800  3.56717E-02  6.95750E-02 -3.39032E-02
    8985.498    -10.532  -0.760  3.71024E-02  7.54849E-02 -3.83825E-02
    8985.723    -10.307  -0.720  3.86004E-02  8.21404E-02 -4.35400E-02
    8985.937    -10.093  -0.680  4.01696E-02  8.96468E-02 -4.94772E-02
    8986.138     -9.892  -0.640  4.18138E-02  9.81153E-02 -5.63016E-02
    8986.327     -9.703  -0.600  4.35358E-02  1.07655E-01 -6.41194E-02
    8986.503     -9.526  -0.560  4.53365E-02  1.18359E-01 -7.30230E-02
    8986.668     -9.362  -0.520  4.72133E-02  1.30283E-01 -8.30701E-02
    8986.820     -9.209  -0.480  4.91579E-02  1.43414E-01 -9.42562E-02
    8986.961     -9.069  -0.440  5.11539E-02  1.57636E-01 -1.06483E-01
    8987.089     -8.941  -0.400  5.31749E-02  1.72703E-01 -1.19528E-01
    8987.204     -8.825  -0.360  5.51839E-02  1.88226E-01 -1.33043E-01
    8987.308     -8.722  -0.320  5.71355E-02  2.03702E-01 -1.46566E-01
    8987.400     -8.630  -0.280  5.89804E-02  2.18569E-01 -1.59589E-01
    8987.479     -8.551  -0.240  6.06711E-02  2.32291E-01 -1.71620E-01
    8987.546     -8.484  -0.200  6.21664E-02  2.44416E-01 -1.82250E-01
    8987.601     -8.429  -0.160  6.34337E-02  2.54615E-01 -1.91181E-01
    8987.643     -8.386  -0.120  6.44485E-02  2.62677E-01 -1.98228E-01
    8987.674     -8.356  -0.080  6.51936E-02  2.68485E-01 -2.03291E-01
    8987.698     -8.332   0.000  6.58202E-02  2.73152E-01 -2.07332E-01
    8987.753     -8.277   0.120  6.72866E-02  2.83676E-01 -2.16389E-01
    8987.796     -8.234   0.160  6.83729E-02  2.91858E-01 -2.23485E-01
    8987.851     -8.179   0.200  6.97297E-02  3.02282E-01 -2.32552E-01
    8987.918     -8.112   0.240  7.14127E-02  3.14845E-01 -2.43432E-01
    8987.997     -8.033   0.280  7.33654E-02  3.29277E-01 -2.55912E-01
    8988.088     -7.941   0.320  7.55886E-02  3.45192E-01 -2.69604E-01
    8988.192     -7.838   0.360  7.80852E-02  3.62153E-01 -2.84068E-01
    8988.308     -7.722   0.400  8.08796E-02  3.79677E-01 -2.98798E-01
    8988.436     -7.594   0.440  8.39429E-02  3.97283E-01 -3.13340E-01
    8988.576     -7.454   0.480  8.73792E-02  4.14649E-01 -3.27270E-01
    8988.728     -7.301   0.520  9.12744E-02  4.31562E-01 -3.40287E-01
    8988.893     -7.137   0.560  9.57402E-02  4.47921E-01 -3.52181E-01
    8989.070     -6.960   0.600  1.00877E-01  4.63682E-01 -3.62805E-01
    8989.259     -6.771   0.640  1.06859E-01  4.78896E-01 -3.72037E-01
    8989.460     -6.570   0.680  1.13881E-01  4.93666E-01 -3.79785E-01
    8989.673     -6.356   0.720  1.22045E-01  5.08067E-01 -3.86022E-01
    8989.899     -6.131   0.760  1.31502E-01  5.22174E-01 -3.90672E-01
    8990.137     -5.893   0.800  1.42495E-01  5.36053E-01 -3.93558E-01
    8990.387     -5.643   0.840  1.55575E-01  5.49781E-01 -3.94205E-01
    8990.649     -5.381   0.880  1.71470E-01  5.63420E-01 -3.91950E-01
    8990.923     -5.107   0.920  1.90674E-01  5.77003E-01 -3.86329E-01
    8991.210     -4.820   0.960  2.13134E-01  5.90533E-01 -3.77400E-01
    8991.508     -4.522   1.000  2.38725E-01  6.04062E-01 -3.65338E-01
    8991.819     -4.211   1.040  2.67610E-01  6.17595E-01 -3.49985E-01
    8992.142     -3.888   1.080  2.99312E-01  6.31130E-01 -3.31818E-01
    8992.477     -3.552   1.120  3.30889E-01  6.44662E-01 -3.13772E-01
    8992.825     -3.205   1.160  3.57098E-01  6.58175E-01 -3.01076E-01
    8993.185     -2.845   1.200  3.76446E-01  6.71674E-01 -2.95228E-01
    8993.556     -2.473   1.240  3.95789E-01  6.85142E-01 -2.89352E-01
    8993.941     -2.089   1.280  4.21372E-01  6.98532E-01 -2.77161E-01
    8994.337     -1.693   1.320  4.53698E-01  7.11863E-01 -2.58165E-01
    8994.745     -1.285   1.360  4.92584E-01  7.25089E-01 -2.32505E-01
    8995.166     -0.864   1.400  5.36638E-01  7.38182E-01 -2.01544E-01
    8995.599     -0.431   1.440  5.83434E-01  7.51134E-01 -1.67699E-01
    8996.044      0.014   1.480  6.33321E-01  7.63915E-01 -1.30594E-01
    8996.501      0.471   1.520  6.83359E-01  7.76516E-01 -9.31565E-02
    8996.970      0.940   1.560  7.21606E-01  7.88867E-01 -6.72612E-02
    8997.452      1.422   1.600  7.48404E-01  8.00999E-01 -5.25951E-02
    8997.946      1.916   1.640  7.78929E-01  8.12841E-01 -3.39113E-02
    8998.452      2.422   1.680  8.23243E-01  8.24405E-01 -1.16238E-03
    8998.970      2.940   1.720  8.87333E-01  8.35663E-01  5.16693E-02
    8999.500      3.470   1.760  9.85836E-01  8.46585E-01  1.39251E-01
    9000.043      4.013   1.800  1.14049E+00  8.57165E-01  2.83322E-01
    9000.597      4.568   1.840  1.34727E+00  8.67396E-01  4.79874E-01
    9001.164      5.134   1.880  1.54929E+00  8.77251E-01  6.72038E-01
    9001.743      5.714   1.920  1.70056E+00  8.86707E-01  8.13850E-01
    9002.335      6.305   1.960  1.78826E+00  8.95799E-01  8.92460E-01
    9002.938      6.908   2.000  1.77721E+00  9.04462E-01  8.72746E-01
    9003.554      7.524   2.040  1.68205E+00  9.12734E-01  7.69315E-01
    9004.182      8.152   2.080  1.55852E+00  9.20596E-01  6.37927E-01
    9004.822      8.792   2.120  1.43625E+00  9.28045E-01  5.08204E-01
    9005.474      9.444   2.160  1.32483E+00  9.35061E-01  3.89766E-01
    9006.139     10.109   2.200  1.21704E+00  9.41686E-01  2.75351E-01
    9006.815     10.785   2.240  1.11005E+00  9.47901E-01  1.62151E-01
    9007.504     11.474   2.280  1.00896E+00  9.53690E-01  5.52726E-02
    9008.205     12.175   2.320  9.22980E-01  9.59114E-01 -3.61345E-02
    9008.918     12.889   2.360  8.61143E-01  9.64119E-01 -1.02976E-01
    9009.644     13.614   2.400  8.28051E-01  9.68748E-01 -1.40698E-01
    9010.381     14.352   2.440  8.26867E-01  9.73009E-01 -1.46141E-01
    9011.131     15.101   2.480  8.52859E-01  9.76925E-01 -1.24066E-01
    9011.893     15.863   2.520  8.94615E-01  9.80462E-01 -8.58470E-02
    9012.667     16.638   2.560  9.41923E-01  9.83688E-01 -4.17645E-02
    9013.454     17.424   2.600  9.89376E-01  9.86568E-01  2.80863E-03
    9014.252     18.223   2.640  1.02924E+00  9.89149E-01  4.00960E-02
    9015.063     19.033   2.680  1.03894E+00  9.91439E-01  4.75039E-02
    9015.886     19.856   2.720  1.01101E+00  9.93446E-01  1.75618E-02
    9016.721     20.691   2.760  9.64847E-01  9.95175E-01 -3.03283E-02
    9017.569     21.539   2.800  9.18271E-01  9.96653E-01 -7.83820E-02
    9018.428     22.398   2.840  8.78402E-01  9.97889E-01 -1.19487E-01
    9019.300     23.270   2.880  8.46974E-01  9.98891E-01 -1.51917E-01
    9020.184     24.154   2.920  8.23693E-01  9.99706E-01 -1.76014E-01
    9021.080     25.050   2.960  8.07539E-01  1.00030E+00 -1.92763E-01
    9021.988     25.958   3.000  7.97908E-01  1.00075E+00 -2.02837E-01
    9022.909     26.879   3.040  7.93321E-01  1.00100E+00 -2.07683E-01
    9023.841     27.812   3.080  7.92856E-01  1.00113E+00 -2.08270E-01
    9024.786     28.756   3.120  7.96024E-01  1.00109E+00 -2.05071E-01
    9025.743     29.713   3.160  8.02392E-01  1.00094E+00 -1.98545E-01
    9026.712     30.683   3.200  8.11519E-01  1.00066E+00 -1.89142E-01
    9027.694     31.664   3.240  8.23058E-01  1.00029E+00 -1.77236E-01
    9028.688     32.658   3.280  8.36753E-01  9.99841E-01 -1.63088E-01
    9029.693     33.664   3.320  8.52322E-01  9.99285E-01 -1.46963E-01
    9030.711     34.682   3.360  8.70097E-01  9.98695E-01 -1.28599E-01
    9031.742     35.712   3.400  8.90494E-01  9.98016E-01 -1.07521E-01
    9032.784     36.754   3.440  9.13772E-01  9.97311E-01 -8.35391E-02
    9033.839     37.809   3.480  9.39827E-01  9.96567E-01 -5.67396E-02
    9034.905     38.876   3.520  9.68238E-01  9.95785E-01 -2.75472E-02
    9035.984     39.955   3.560  9.98061E-01  9.94972E-01  3.08902E-03
    9037.076     41.046   3.600  1.02784E+00  9.94171E-01  3.36663E-02
    9038.179     42.149   3.640  1.05587E+00  9.93346E-01  6.25229E-02
    9039.295     43.265   3.680  1.08016E+00  9.92521E-01  8.76344E-02
    9040.422     44.393   3.720  1.09864E+00  9.91717E-01  1.06919E-01
    9041.562     45.533   3.760  1.10994E+00  9.90900E-01  1.19041E-01
    9042.714     46.685   3.800  1.11350E+00  9.90132E-01  1.23371E-01
    9043.879     47.849   3.840  1.10918E+00  9.89373E-01  1.19806E-01
    9045.055     49.026   3.880  1.09773E+00  9.88626E-01  1.09099E-01
    9046.244     50.214   3.920  1.08086E+00  9.87935E-01  9.29253E-02
    9047.445     51.415   3.960  1.06120E+00  9.87259E-01  7.39414E-02
    9048.658     52.628   4.000  1.04206E+00  9.86620E-01  5.54395E-02
    9049.883     53.854   4.040  1.02668E+00  9.86022E-01  4.06562E-02
    9051.121     55.091   4.080  1.01747E+00  9.85486E-01  3.19816E-02
    9052.370     56.341   4.120  1.01529E+00  9.84970E-01  3.03224E-02
    9053.632     57.603   4.160  1.01930E+00  9.84518E-01  3.47828E-02
    9054.906     58.877   4.200  1.02706E+00  9.84110E-01  4.29502E-02
    9056.193     60.163   4.240  1.03553E+00  9.83744E-01  5.17865E-02
    9057.491     61.461   4.280  1.04224E+00  9.83422E-01  5.88219E-02
    9058.802     62.772   4.320  1.04606E+00  9.83166E-01  6.28978E-02
    9060.125     64.095   4.360  1.04695E+00  9.82953E-01  6.40004E-02
    9061.460     65.430   4.400  1.04557E+00  9.82786E-01  6.27832E-02
    9062.807     66.777   4.440  1.04273E+00  9.82683E-01  6.00473E-02
    9064.166     68.136   4.480  1.03897E+00  9.82601E-01  5.63733E-02
    9065.538     69.508   4.520  1.03461E+00  9.82584E-01  5.20240E-02
    9066.922     70.892   4.560  1.02947E+00  9.82608E-01  4.68577E-02
    9068.318     72.288   4.600  1.02291E+00  9.82674E-01  4.02331E-02
    9069.726     73.696   4.640  1.01427E+00  9.82779E-01  3.14917E-02
    9071.146     75.116   4.680  1.00356E+00  9.82923E-01  2.06416E-02
    9072.579     76.549   4.720  9.91606E-01  9.83106E-01  8.49954E-03
    9074.023     77.994   4.760  9.79550E-01  9.83328E-01 -3.77832E-03
    9075.480     79.451   4.800  9.68313E-01  9.83585E-01 -1.52722E-02
    9076.949     80.920   4.840  9.58255E-01  9.83857E-01 -2.56016E-02
    9078.431     82.401   4.880  9.49366E-01  9.84182E-01 -3.48162E-02
    9079.924     83.894   4.920  9.41256E-01  9.84498E-01 -4.32416E-02
    9081.430     85.400   4.960  9.33698E-01  9.84867E-01 -5.11688E-02
    9082.948     86.918   5.000  9.26891E-01  9.85242E-01 -5.83511E-02
    9084.478     88.448   5.040  9.21772E-01  9.85623E-01 -6.38510E-02
    9086.020     89.990   5.080  9.19675E-01  9.86009E-01 -6.63335E-02
    9087.575     91.545   5.120  9.21533E-01  9.86421E-01 -6.48888E-02
    9089.141     93.112   5.160  9.27091E-01  9.86837E-01 -5.97466E-02
    9090.720     94.690   5.200  9.34998E-01  9.87254E-01 -5.22564E-02
    9092.311     96.281   5.240  9.43299E-01  9.87670E-01 -4.43708E-02
    9093.915     97.885   5.280  9.50195E-01  9.88085E-01 -3.78901E-02
    9095.530     99.500   5.320  9.54489E-01  9.88497E-01 -3.40085E-02
    9097.158    101.128   5.360  9.55798E-01  9.88904E-01 -3.31057E-02
    9098.797    102.768   5.400  9.54491E-01  9.89283E-01 -3.47922E-02
    9100.449    104.420   5.440  9.51496E-01  9.89654E-01 -3.81581E-02
    9102.114    106.084   5.480  9.47934E-01  9.90016E-01 -4.20821E-02
    9103.790    107.760   5.520  9.44953E-01  9.90323E-01 -4.53703E-02
    9105.479    109.449   5.560  9.43824E-01  9.90640E-01 -4.68155E-02
    9107.179    111.150   5.600  9.45457E-01  9.90902E-01 -4.54441E-02
    9108.892    112.863   5.640  9.50297E-01  9.91152E-01 -4.08549E-02
    9110.617    114.588   5.680  9.58072E-01  9.91388E-01 -3.33158E-02
    9112.355    116.325   5.720  9.68013E-01  9.91566E-01 -2.35530E-02
    9114.104    118.075   5.760  9.79256E-01  9.91727E-01 -1.24710E-02
    9115.866    119.836   5.800  9.90793E-01  9.91827E-01 -1.03351E-03
    9117.640    121.610   5.840  1.00180E+00  9.91910E-01  9.88712E-03
    9119.426    123.396   5.880  1.01170E+00  9.91955E-01  1.97447E-02
    9121.224    125.195   5.920  1.02035E+00  9.91935E-01  2.84121E-02
    9123.035    127.005   5.960  1.02788E+00  9.91897E-01  3.59837E-02
    9124.858    128.828   6.000  1.03418E+00  9.91800E-01  4.23755E-02
