# # comment:                                                     FEFF 9.9.1  
# # Source:
# # Structure
# # Reduced
# # space
# # abc:
# # angles:
# # sites:
# # POT  SCF 100  7.0000   0, screened core-hole, AFOLP (folp(0)= 1.150)
# # Abs   Z=29 Rmt= 1.230 Rnm= 1.345 K  shell
# # Pot 1 Z=29 Rmt= 1.258 Rnm= 1.359
# # Pot 2 Z= 1 Rmt= 0.635 Rnm= 0.789
# # Pot 3 Z=34 Rmt= 1.021 Rnm= 1.255
# # Pot 4 Z= 8 Rmt= 0.933 Rnm= 1.118
# # Gam_ch=1.729E+00 H-L exch Vi= 0.000E+00 Vr= 0.000E+00
# # Mu=-6.050E+00eV kf=2.241E+00 Vint=-1.439E+01eV Rs_int= 1.618
# FMS rfms= 9.0000
# # PATH  Rmax=-1.000,  Keep_limit= 0.00, Heap_limit 0.00  Pwcrit= 2.50%
#  S02=0.950  Temp=   0.00  Debye_temp=   0.00  Global_sig2= 0.00000
#  Energy zero shift, vr, vi    0.00000E+00   0.00000E+00
#  Curved wave amplitude ratio filter   4.000%
#     file         sig2 tot  cw amp ratio   deg  nlegs   reff  inp sig2
#     0/   0 paths used
#  xsedge+ 50, used to normalize mu           2.4434E-04
#  -----------------------------------------------------------------------
#  omega    e    k    mu    mu0     chi     @#
    8983.222     -9.860  -1.000  3.65165E-02  5.43460E-02 -1.78295E-02
    8983.520     -9.561  -0.960  3.82556E-02  5.82937E-02 -2.00381E-02
    8983.807     -9.275  -0.920  4.01018E-02  6.26795E-02 -2.25776E-02
    8984.081     -9.001  -0.880  4.20635E-02  6.75675E-02 -2.55039E-02
    8984.343     -8.738  -0.840  4.41499E-02  7.30325E-02 -2.88827E-02
    8984.593     -8.488  -0.800  4.63708E-02  7.91613E-02 -3.27905E-02
    8984.831     -8.251  -0.760  4.87368E-02  8.60531E-02 -3.73163E-02
    8985.056     -8.025  -0.720  5.12591E-02  9.38201E-02 -4.25610E-02
    8985.270     -7.812  -0.680  5.39489E-02  1.02586E-01 -4.86371E-02
    8985.471     -7.611  -0.640  5.68164E-02  1.12481E-01 -5.56645E-02
    8985.660     -7.422  -0.600  5.98703E-02  1.23633E-01 -6.37626E-02
    8985.837     -7.245  -0.560  6.31146E-02  1.36151E-01 -7.30363E-02
    8986.001     -7.080  -0.520  6.65466E-02  1.50100E-01 -8.35530E-02
    8986.154     -6.928  -0.480  7.01520E-02  1.65464E-01 -9.53123E-02
    8986.294     -6.788  -0.440  7.39008E-02  1.82110E-01 -1.08209E-01
    8986.422     -6.660  -0.400  7.77434E-02  1.99748E-01 -1.22005E-01
    8986.538     -6.544  -0.360  8.16092E-02  2.17924E-01 -1.36315E-01
    8986.641     -6.440  -0.320  8.54093E-02  2.36048E-01 -1.50639E-01
    8986.733     -6.349  -0.280  8.90443E-02  2.53465E-01 -1.64421E-01
    8986.812     -6.270  -0.240  9.24139E-02  2.69544E-01 -1.77130E-01
    8986.879     -6.203  -0.200  9.54257E-02  2.83756E-01 -1.88330E-01
    8986.934     -6.148  -0.160  9.80011E-02  2.95714E-01 -1.97713E-01
    8986.977     -6.105  -0.120  1.00077E-01  3.05169E-01 -2.05092E-01
    8987.007     -6.074  -0.080  1.01605E-01  3.11983E-01 -2.10378E-01
    8987.032     -6.050   0.000  1.02876E-01  3.17458E-01 -2.14583E-01
    8987.086     -5.995   0.120  1.05716E-01  3.29791E-01 -2.24075E-01
    8987.129     -5.953   0.160  1.07954E-01  3.39397E-01 -2.31443E-01
    8987.184     -5.898   0.200  1.10857E-01  3.51652E-01 -2.40795E-01
    8987.251     -5.831   0.240  1.14462E-01  3.66413E-01 -2.51951E-01
    8987.330     -5.751   0.280  1.18820E-01  3.83374E-01 -2.64554E-01
    8987.422     -5.660   0.320  1.23962E-01  4.02112E-01 -2.78150E-01
    8987.525     -5.556   0.360  1.29954E-01  4.22080E-01 -2.92126E-01
    8987.641     -5.441   0.400  1.36874E-01  4.42740E-01 -3.05866E-01
    8987.769     -5.312   0.440  1.44815E-01  4.63559E-01 -3.18744E-01
    8987.909     -5.172   0.480  1.53818E-01  4.84098E-01 -3.30280E-01
    8988.062     -5.020   0.520  1.64065E-01  5.04145E-01 -3.40080E-01
    8988.226     -4.855   0.560  1.75651E-01  5.23523E-01 -3.47872E-01
    8988.403     -4.679   0.600  1.88877E-01  5.42239E-01 -3.53363E-01
    8988.592     -4.490   0.640  2.04069E-01  5.60305E-01 -3.56236E-01
    8988.793     -4.288   0.680  2.21648E-01  5.77813E-01 -3.56165E-01
    8989.007     -4.075   0.720  2.41581E-01  5.94845E-01 -3.53265E-01
    8989.232     -3.849   0.760  2.63189E-01  6.11482E-01 -3.48293E-01
    8989.470     -3.612   0.800  2.85341E-01  6.27795E-01 -3.42454E-01
    8989.720     -3.362   0.840  3.07215E-01  6.43844E-01 -3.36629E-01
    8989.982     -3.100   0.880  3.28396E-01  6.59673E-01 -3.31276E-01
    8990.256     -2.825   0.920  3.48716E-01  6.75293E-01 -3.26577E-01
    8990.543     -2.539   0.960  3.68958E-01  6.90723E-01 -3.21765E-01
    8990.842     -2.240   1.000  3.91018E-01  7.05994E-01 -3.14975E-01
    8991.152     -1.929   1.040  4.15978E-01  7.21086E-01 -3.05107E-01
    8991.476     -1.606   1.080  4.43292E-01  7.35991E-01 -2.92699E-01
    8991.811     -1.271   1.120  4.73922E-01  7.50697E-01 -2.76775E-01
    8992.158     -0.923   1.160  5.12138E-01  7.65146E-01 -2.53008E-01
    8992.518     -0.564   1.200  5.59960E-01  7.79376E-01 -2.19415E-01
    8992.890     -0.192   1.240  6.14911E-01  7.93301E-01 -1.78391E-01
    8993.274      0.192   1.280  6.79168E-01  8.06918E-01 -1.27750E-01
    8993.670      0.588   1.320  7.56338E-01  8.20217E-01 -6.38794E-02
    8994.079      0.997   1.360  8.29908E-01  8.33131E-01 -3.22317E-03
    8994.499      1.417   1.400  8.70416E-01  8.45651E-01  2.47649E-02
    8994.932      1.850   1.440  8.79541E-01  8.57768E-01  2.17733E-02
    8995.377      2.295   1.480  8.88787E-01  8.69455E-01  1.93313E-02
    8995.834      2.752   1.520  9.12608E-01  8.80664E-01  3.19437E-02
    8996.304      3.222   1.560  9.39926E-01  8.91409E-01  4.85176E-02
    8996.785      3.703   1.600  9.64719E-01  9.01644E-01  6.30745E-02
    8997.279      4.197   1.640  9.93363E-01  9.11407E-01  8.19560E-02
    8997.785      4.703   1.680  1.02465E+00  9.20633E-01  1.04017E-01
    8998.303      5.221   1.720  1.05534E+00  9.29341E-01  1.25995E-01
    8998.833      5.752   1.760  1.09432E+00  9.37533E-01  1.56787E-01
    8999.376      6.294   1.800  1.14533E+00  9.45209E-01  2.00118E-01
    8999.931      6.849   1.840  1.19472E+00  9.52372E-01  2.42348E-01
    9000.498      7.416   1.880  1.22999E+00  9.59026E-01  2.70966E-01
    9001.077      7.995   1.920  1.24688E+00  9.65178E-01  2.81707E-01
    9001.668      8.586   1.960  1.25001E+00  9.70852E-01  2.79155E-01
    9002.272      9.190   2.000  1.24820E+00  9.76035E-01  2.72168E-01
    9002.887      9.806   2.040  1.24353E+00  9.80755E-01  2.62776E-01
    9003.515     10.433   2.080  1.23333E+00  9.85021E-01  2.48314E-01
    9004.155     11.073   2.120  1.22340E+00  9.88861E-01  2.34536E-01
    9004.807     11.726   2.160  1.22448E+00  9.92286E-01  2.32190E-01
    9005.472     12.390   2.200  1.23657E+00  9.95328E-01  2.41241E-01
    9006.149     13.067   2.240  1.24961E+00  9.97994E-01  2.51619E-01
    9006.837     13.756   2.280  1.25415E+00  1.00030E+00  2.53856E-01
    9007.538     14.457   2.320  1.24247E+00  1.00229E+00  2.40181E-01
    9008.252     15.170   2.360  1.20859E+00  1.00396E+00  2.04628E-01
    9008.977     15.895   2.400  1.15741E+00  1.00534E+00  1.52073E-01
    9009.715     16.633   2.440  1.10263E+00  1.00646E+00  9.61685E-02
    9010.464     17.383   2.480  1.05498E+00  1.00733E+00  4.76524E-02
    9011.226     18.145   2.520  1.01984E+00  1.00798E+00  1.18628E-02
    9012.001     18.919   2.560  9.97242E-01  1.00840E+00 -1.11607E-02
    9012.787     19.705   2.600  9.84249E-01  1.00865E+00 -2.43966E-02
    9013.586     20.504   2.640  9.74242E-01  1.00872E+00 -3.44783E-02
    9014.396     21.315   2.680  9.65112E-01  1.00863E+00 -4.35217E-02
    9015.219     22.138   2.720  9.58435E-01  1.00842E+00 -4.99821E-02
    9016.055     22.973   2.760  9.54520E-01  1.00808E+00 -5.35588E-02
    9016.902     23.820   2.800  9.52840E-01  1.00764E+00 -5.48046E-02
    9017.761     24.680   2.840  9.52614E-01  1.00712E+00 -5.45104E-02
    9018.633     25.551   2.880  9.52798E-01  1.00652E+00 -5.37259E-02
    9019.517     26.435   2.920  9.52642E-01  1.00585E+00 -5.32060E-02
    9020.413     27.331   2.960  9.51761E-01  1.00513E+00 -5.33669E-02
    9021.321     28.240   3.000  9.49838E-01  1.00439E+00 -5.45509E-02
    9022.242     29.160   3.040  9.46662E-01  1.00361E+00 -5.69504E-02
    9023.175     30.093   3.080  9.42169E-01  1.00281E+00 -6.06381E-02
    9024.119     31.038   3.120  9.36313E-01  1.00202E+00 -6.57048E-02
    9025.077     31.995   3.160  9.29186E-01  1.00121E+00 -7.20226E-02
    9026.046     32.964   3.200  9.21414E-01  1.00042E+00 -7.90104E-02
    9027.027     33.946   3.240  9.13921E-01  9.99669E-01 -8.57482E-02
    9028.021     34.939   3.280  9.07647E-01  9.98925E-01 -9.12775E-02
    9029.027     35.945   3.320  9.03472E-01  9.98215E-01 -9.47432E-02
    9030.045     36.963   3.360  9.02013E-01  9.97520E-01 -9.55069E-02
    9031.075     37.993   3.400  9.03267E-01  9.96885E-01 -9.36183E-02
    9032.117     39.036   3.440  9.06896E-01  9.96294E-01 -8.93975E-02
    9033.172     40.090   3.480  9.12523E-01  9.95747E-01 -8.32243E-02
    9034.239     41.157   3.520  9.19681E-01  9.95267E-01 -7.55863E-02
    9035.318     42.236   3.560  9.27748E-01  9.94834E-01 -6.70860E-02
    9036.409     43.327   3.600  9.36075E-01  9.94448E-01 -5.83735E-02
    9037.512     44.431   3.640  9.43960E-01  9.94132E-01 -5.01717E-02
    9038.628     45.546   3.680  9.50703E-01  9.93864E-01 -4.31608E-02
    9039.756     46.674   3.720  9.56010E-01  9.93666E-01 -3.76552E-02
    9040.896     47.814   3.760  9.60058E-01  9.93518E-01 -3.34605E-02
    9042.048     48.966   3.800  9.63471E-01  9.93441E-01 -2.99700E-02
    9043.212     50.130   3.840  9.67075E-01  9.93413E-01 -2.63384E-02
    9044.389     51.307   3.880  9.71726E-01  9.93457E-01 -2.17302E-02
    9045.577     52.496   3.920  9.77971E-01  9.93549E-01 -1.55780E-02
    9046.778     53.697   3.960  9.86006E-01  9.93711E-01 -7.70443E-03
    9047.991     54.910   4.000  9.95640E-01  9.93921E-01  1.71912E-03
    9049.217     56.135   4.040  1.00650E+00  9.94198E-01  1.23040E-02
    9050.454     57.372   4.080  1.01800E+00  9.94500E-01  2.34995E-02
    9051.704     58.622   4.120  1.02960E+00  9.94867E-01  3.47356E-02
    9052.966     59.884   4.160  1.04080E+00  9.95299E-01  4.54984E-02
    9054.240     61.158   4.200  1.05107E+00  9.95750E-01  5.53179E-02
    9055.526     62.444   4.240  1.06001E+00  9.96240E-01  6.37724E-02
    9056.824     63.743   4.280  1.06737E+00  9.96769E-01  7.06050E-02
    9058.135     65.053   4.320  1.07300E+00  9.97336E-01  7.56667E-02
    9059.458     66.376   4.360  1.07680E+00  9.97940E-01  7.88636E-02
    9060.793     67.711   4.400  1.07874E+00  9.98578E-01  8.01655E-02
    9062.140     69.058   4.440  1.07880E+00  9.99225E-01  7.95788E-02
    9063.499     70.418   4.480  1.07703E+00  9.99881E-01  7.71497E-02
    9064.871     71.789   4.520  1.07371E+00  1.00059E+00  7.31204E-02
    9066.255     73.173   4.560  1.06925E+00  1.00128E+00  6.79735E-02
    9067.651     74.569   4.600  1.06428E+00  1.00197E+00  6.23123E-02
    9069.059     75.977   4.640  1.05937E+00  1.00268E+00  5.66841E-02
    9070.479     77.398   4.680  1.05486E+00  1.00340E+00  5.14630E-02
    9071.912     78.830   4.720  1.05077E+00  1.00409E+00  4.66783E-02
    9073.357     80.275   4.760  1.04690E+00  1.00480E+00  4.20974E-02
    9074.814     81.732   4.800  1.04278E+00  1.00548E+00  3.73063E-02
    9076.283     83.201   4.840  1.03796E+00  1.00615E+00  3.18120E-02
    9077.764     84.682   4.880  1.03207E+00  1.00679E+00  2.52784E-02
    9079.258     86.176   4.920  1.02509E+00  1.00742E+00  1.76690E-02
    9080.763     87.682   4.960  1.01725E+00  1.00802E+00  9.23616E-03
    9082.281     89.199   5.000  1.00899E+00  1.00860E+00  3.87724E-04
    9083.811     90.730   5.040  1.00059E+00  1.00912E+00 -8.53382E-03
    9085.354     92.272   5.080  9.92342E-01  1.00963E+00 -1.72858E-02
    9086.908     93.826   5.120  9.84411E-01  1.01010E+00 -2.56866E-02
    9088.475     95.393   5.160  9.77070E-01  1.01055E+00 -3.34793E-02
    9090.054     96.972   5.200  9.70653E-01  1.01094E+00 -4.02829E-02
    9091.645     98.563   5.240  9.65571E-01  1.01128E+00 -4.57070E-02
    9093.248    100.166   5.280  9.62081E-01  1.01158E+00 -4.94942E-02
    9094.863    101.782   5.320  9.60163E-01  1.01181E+00 -5.16429E-02
    9096.491    103.409   5.360  9.59666E-01  1.01202E+00 -5.23488E-02
    9098.131    105.049   5.400  9.60196E-01  1.01216E+00 -5.19636E-02
    9099.783    106.701   5.440  9.61384E-01  1.01228E+00 -5.08962E-02
    9101.447    108.365   5.480  9.62803E-01  1.01233E+00 -4.95296E-02
    9103.123    110.042   5.520  9.64180E-01  1.01232E+00 -4.81366E-02
    9104.812    111.730   5.560  9.65377E-01  1.01228E+00 -4.68997E-02
    9106.513    113.431   5.600  9.66268E-01  1.01217E+00 -4.59016E-02
    9108.226    115.144   5.640  9.66977E-01  1.01202E+00 -4.50416E-02
    9109.951    116.869   5.680  9.67862E-01  1.01182E+00 -4.39618E-02
    9111.688    118.606   5.720  9.69405E-01  1.01158E+00 -4.21801E-02
    9113.438    120.356   5.760  9.71953E-01  1.01128E+00 -3.93275E-02
    9115.199    122.118   5.800  9.75648E-01  1.01096E+00 -3.53096E-02
    9116.973    123.892   5.840  9.80287E-01  1.01057E+00 -3.02852E-02
    9118.759    125.678   5.880  9.85548E-01  1.01015E+00 -2.45990E-02
    9120.558    127.476   5.920  9.91055E-01  1.00971E+00 -1.86579E-02
    9122.368    129.287   5.960  9.96349E-01  1.00922E+00 -1.28696E-02
    9124.191    131.109   6.000  1.00127E+00  1.00866E+00 -7.38827E-03
