# # comment:                                                     FEFF 9.9.1  
# # Source:
# # Structure
# # Reduced
# # space
# # abc:
# # angles:
# # sites:
# # POT  SCF 100  7.0000   0, screened core-hole, AFOLP (folp(0)= 1.150)
# # Abs   Z=29 Rmt= 1.322 Rnm= 1.436 K  shell
# # Pot 1 Z=38 Rmt= 1.757 Rnm= 1.847
# # Pot 2 Z=29 Rmt= 1.322 Rnm= 1.436
# # Pot 3 Z=35 Rmt= 1.549 Rnm= 1.648
# # Pot 4 Z= 8 Rmt= 1.115 Rnm= 1.195
# # Gam_ch=1.729E+00 H-L exch Vi= 0.000E+00 Vr= 0.000E+00
# # Mu=-6.938E+00eV kf=1.733E+00 Vint=-1.352E+01eV Rs_int= 2.093
# FMS rfms= 9.0000
# # PATH  Rmax=-1.000,  Keep_limit= 0.00, Heap_limit 0.00  Pwcrit= 2.50%
#  S02=0.950  Temp=   0.00  Debye_temp=   0.00  Global_sig2= 0.00000
#  Energy zero shift, vr, vi    0.00000E+00   0.00000E+00
#  Curved wave amplitude ratio filter   4.000%
#     file         sig2 tot  cw amp ratio   deg  nlegs   reff  inp sig2
#     0/   0 paths used
#  xsedge+ 50, used to normalize mu           2.4311E-04
#  -----------------------------------------------------------------------
#  omega    e    k    mu    mu0     chi     @#
    8983.605    -10.748  -1.000  5.69719E-02  6.23180E-02 -5.34617E-03
    8983.904    -10.449  -0.960  6.10022E-02  6.70235E-02 -6.02122E-03
    8984.190    -10.163  -0.920  6.54606E-02  7.22597E-02 -6.79908E-03
    8984.465     -9.888  -0.880  7.04073E-02  7.81047E-02 -7.69739E-03
    8984.727     -9.626  -0.840  7.59119E-02  8.46491E-02 -8.73720E-03
    8984.977     -9.376  -0.800  8.20542E-02  9.19977E-02 -9.94354E-03
    8985.215     -9.139  -0.760  8.89248E-02  1.00271E-01 -1.13460E-02
    8985.440     -8.913  -0.720  9.66249E-02  1.09604E-01 -1.29791E-02
    8985.654     -8.700  -0.680  1.05264E-01  1.20146E-01 -1.48819E-02
    8985.855     -8.498  -0.640  1.14959E-01  1.32055E-01 -1.70964E-02
    8986.044     -8.309  -0.600  1.25820E-01  1.45484E-01 -1.96641E-02
    8986.220     -8.133  -0.560  1.37948E-01  1.60566E-01 -2.26180E-02
    8986.385     -7.968  -0.520  1.51407E-01  1.77377E-01 -2.59707E-02
    8986.537     -7.816  -0.480  1.66204E-01  1.95901E-01 -2.96967E-02
    8986.678     -7.675  -0.440  1.82261E-01  2.15975E-01 -3.37138E-02
    8986.806     -7.547  -0.400  1.99382E-01  2.37252E-01 -3.78699E-02
    8986.921     -7.432  -0.360  2.17236E-01  2.59185E-01 -4.19492E-02
    8987.025     -7.328  -0.320  2.35360E-01  2.81065E-01 -4.57051E-02
    8987.117     -7.237  -0.280  2.53187E-01  3.02103E-01 -4.89154E-02
    8987.196     -7.157  -0.240  2.70096E-01  3.21535E-01 -5.14390E-02
    8987.263     -7.090  -0.200  2.85477E-01  3.38722E-01 -5.32458E-02
    8987.318     -7.035  -0.160  2.98786E-01  3.53193E-01 -5.44067E-02
    8987.360     -6.993  -0.120  3.09590E-01  3.64641E-01 -5.50510E-02
    8987.391     -6.962  -0.080  3.17573E-01  3.72894E-01 -5.53212E-02
    8987.415     -6.938   0.000  3.24222E-01  3.79528E-01 -5.53062E-02
    8987.470     -6.883   0.120  3.38654E-01  3.94497E-01 -5.58431E-02
    8987.513     -6.840   0.160  3.50091E-01  4.06137E-01 -5.60463E-02
    8987.568     -6.785   0.200  3.64980E-01  4.21017E-01 -5.60365E-02
    8987.635     -6.718   0.240  3.83332E-01  4.38977E-01 -5.56441E-02
    8987.714     -6.639   0.280  4.04816E-01  4.59626E-01 -5.48107E-02
    8987.805     -6.548   0.320  4.28760E-01  4.82497E-01 -5.37374E-02
    8987.909     -6.444   0.360  4.53854E-01  5.06937E-01 -5.30830E-02
    8988.025     -6.328   0.400  4.78236E-01  5.32286E-01 -5.40501E-02
    8988.153     -6.200   0.440  4.99802E-01  5.57919E-01 -5.81174E-02
    8988.293     -6.060   0.480  5.16904E-01  5.83321E-01 -6.64178E-02
    8988.445     -5.908   0.520  5.28984E-01  6.08145E-01 -7.91604E-02
    8988.610     -5.743   0.560  5.36590E-01  6.32237E-01 -9.56472E-02
    8988.787     -5.566   0.600  5.40633E-01  6.55529E-01 -1.14895E-01
    8988.976     -5.377   0.640  5.41781E-01  6.78001E-01 -1.36221E-01
    8989.177     -5.176   0.680  5.40621E-01  6.99720E-01 -1.59099E-01
    8989.390     -4.963   0.720  5.38133E-01  7.20745E-01 -1.82612E-01
    8989.616     -4.737   0.760  5.36026E-01  7.41109E-01 -2.05084E-01
    8989.854     -4.499   0.800  5.36686E-01  7.60880E-01 -2.24194E-01
    8990.104     -4.250   0.840  5.42683E-01  7.80064E-01 -2.37382E-01
    8990.366     -3.987   0.880  5.56341E-01  7.98656E-01 -2.42315E-01
    8990.640     -3.713   0.920  5.79536E-01  8.16674E-01 -2.37139E-01
    8990.927     -3.427   0.960  6.13292E-01  8.34108E-01 -2.20816E-01
    8991.225     -3.128   1.000  6.57679E-01  8.50892E-01 -1.93213E-01
    8991.536     -2.817   1.040  7.12169E-01  8.67037E-01 -1.54868E-01
    8991.859     -2.494   1.080  7.75753E-01  8.82487E-01 -1.06734E-01
    8992.194     -2.159   1.120  8.47501E-01  8.97222E-01 -4.97210E-02
    8992.542     -1.811   1.160  9.27307E-01  9.11201E-01  1.61053E-02
    8992.902     -1.452   1.200  1.01452E+00  9.24382E-01  9.01394E-02
    8993.273     -1.080   1.240  1.10123E+00  9.36763E-01  1.64469E-01
    8993.658     -0.696   1.280  1.16610E+00  9.48323E-01  2.17782E-01
    8994.054     -0.299   1.320  1.18842E+00  9.59045E-01  2.29374E-01
    8994.462      0.109   1.360  1.17572E+00  9.68910E-01  2.06807E-01
    8994.883      0.530   1.400  1.15824E+00  9.77946E-01  1.80297E-01
    8995.316      0.963   1.440  1.15314E+00  9.86140E-01  1.66999E-01
    8995.761      1.408   1.480  1.14912E+00  9.93524E-01  1.55591E-01
    8996.218      1.865   1.520  1.12135E+00  1.00009E+00  1.21257E-01
    8996.687      2.334   1.560  1.06982E+00  1.00588E+00  6.39381E-02
    8997.169      2.816   1.600  1.02252E+00  1.01094E+00  1.15790E-02
    8997.663      3.309   1.640  9.99150E-01  1.01526E+00 -1.61107E-02
    8998.169      3.815   1.680  1.00426E+00  1.01892E+00 -1.46554E-02
    8998.687      4.334   1.720  1.03114E+00  1.02195E+00  9.18334E-03
    8999.217      4.864   1.760  1.06060E+00  1.02437E+00  3.62313E-02
    8999.760      5.406   1.800  1.08067E+00  1.02623E+00  5.44361E-02
    9000.314      5.961   1.840  1.10283E+00  1.02758E+00  7.52555E-02
    9000.881      6.528   1.880  1.13151E+00  1.02847E+00  1.03034E-01
    9001.460      7.107   1.920  1.15631E+00  1.02892E+00  1.27392E-01
    9002.052      7.699   1.960  1.17702E+00  1.02898E+00  1.48040E-01
    9002.655      8.302   2.000  1.19194E+00  1.02870E+00  1.63238E-01
    9003.271      8.918   2.040  1.18732E+00  1.02812E+00  1.59201E-01
    9003.899      9.546   2.080  1.14996E+00  1.02727E+00  1.22694E-01
    9004.539     10.186   2.120  1.08999E+00  1.02617E+00  6.38194E-02
    9005.191     10.838   2.160  1.02411E+00  1.02487E+00 -7.62896E-04
    9005.856     11.502   2.200  9.75712E-01  1.02342E+00 -4.77117E-02
    9006.532     12.179   2.240  9.48080E-01  1.02184E+00 -7.37608E-02
    9007.221     12.868   2.280  9.34509E-01  1.02014E+00 -8.56287E-02
    9007.922     13.569   2.320  9.31084E-01  1.01835E+00 -8.72650E-02
    9008.635     14.282   2.360  9.34893E-01  1.01651E+00 -8.16150E-02
    9009.361     15.008   2.400  9.43910E-01  1.01462E+00 -7.07147E-02
    9010.098     15.745   2.440  9.56535E-01  1.01273E+00 -5.61959E-02
    9010.848     16.495   2.480  9.71192E-01  1.01084E+00 -3.96433E-02
    9011.610     17.257   2.520  9.86796E-01  1.00895E+00 -2.21521E-02
    9012.384     18.031   2.560  1.00134E+00  1.00712E+00 -5.78289E-03
    9013.171     18.818   2.600  1.01256E+00  1.00533E+00  7.22935E-03
    9013.969     19.616   2.640  1.01890E+00  1.00360E+00  1.53053E-02
    9014.780     20.427   2.680  1.02016E+00  1.00195E+00  1.82100E-02
    9015.603     21.250   2.720  1.01740E+00  1.00037E+00  1.70263E-02
    9016.438     22.085   2.760  1.01234E+00  9.98899E-01  1.34380E-02
    9017.286     22.932   2.800  1.00629E+00  9.97510E-01  8.77790E-03
    9018.145     23.792   2.840  1.00024E+00  9.96212E-01  4.02656E-03
    9019.017     24.664   2.880  9.94572E-01  9.95028E-01 -4.55621E-04
    9019.901     25.548   2.920  9.89325E-01  9.93960E-01 -4.63492E-03
    9020.797     26.444   2.960  9.84534E-01  9.93010E-01 -8.47544E-03
    9021.705     27.352   3.000  9.80036E-01  9.92180E-01 -1.21441E-02
    9022.626     28.272   3.040  9.75779E-01  9.91450E-01 -1.56706E-02
    9023.558     29.205   3.080  9.71855E-01  9.90860E-01 -1.90050E-02
    9024.503     30.150   3.120  9.68500E-01  9.90369E-01 -2.18685E-02
    9025.460     31.107   3.160  9.66347E-01  9.90018E-01 -2.36706E-02
    9026.429     32.076   3.200  9.66274E-01  9.89766E-01 -2.34919E-02
    9027.411     33.058   3.240  9.69258E-01  9.89633E-01 -2.03745E-02
    9028.405     34.051   3.280  9.76108E-01  9.89616E-01 -1.35078E-02
    9029.410     35.057   3.320  9.86856E-01  9.89716E-01 -2.85968E-03
    9030.428     36.075   3.360  1.00058E+00  9.89908E-01  1.06744E-02
    9031.459     37.106   3.400  1.01561E+00  9.90190E-01  2.54234E-02
    9032.501     38.148   3.440  1.03001E+00  9.90604E-01  3.94071E-02
    9033.556     39.203   3.480  1.04209E+00  9.91082E-01  5.10064E-02
    9034.622     40.269   3.520  1.05104E+00  9.91645E-01  5.93935E-02
    9035.701     41.348   3.560  1.05674E+00  9.92312E-01  6.44322E-02
    9036.793     42.440   3.600  1.05922E+00  9.93059E-01  6.61586E-02
    9037.896     43.543   3.640  1.05823E+00  9.93860E-01  6.43724E-02
    9039.012     44.658   3.680  1.05350E+00  9.94734E-01  5.87667E-02
    9040.139     45.786   3.720  1.04499E+00  9.95658E-01  4.93338E-02
    9041.279     46.926   3.760  1.03309E+00  9.96647E-01  3.64384E-02
    9042.431     48.078   3.800  1.01840E+00  9.97679E-01  2.07255E-02
    9043.596     49.243   3.840  1.00163E+00  9.98730E-01  2.90346E-03
    9044.772     50.419   3.880  9.83514E-01  9.99839E-01 -1.63245E-02
    9045.961     51.608   3.920  9.64946E-01  1.00096E+00 -3.60130E-02
    9047.162     52.809   3.960  9.47314E-01  1.00211E+00 -5.47972E-02
    9048.375     54.022   4.000  9.32313E-01  1.00327E+00 -7.09562E-02
    9049.600     55.247   4.040  9.21633E-01  1.00445E+00 -8.28177E-02
    9050.838     56.485   4.080  9.16505E-01  1.00561E+00 -8.91041E-02
    9052.087     57.734   4.120  9.17566E-01  1.00676E+00 -8.91980E-02
    9053.349     58.996   4.160  9.24801E-01  1.00791E+00 -8.31114E-02
    9054.623     60.270   4.200  9.37785E-01  1.00905E+00 -7.12674E-02
    9055.910     61.556   4.240  9.55900E-01  1.01016E+00 -5.42583E-02
    9057.208     62.855   4.280  9.78128E-01  1.01123E+00 -3.30974E-02
    9058.519     64.166   4.320  1.00260E+00  1.01225E+00 -9.65160E-03
    9059.842     65.488   4.360  1.02631E+00  1.01326E+00  1.30445E-02
    9061.177     66.823   4.400  1.04542E+00  1.01420E+00  3.12139E-02
    9062.524     68.171   4.440  1.05691E+00  1.01510E+00  4.18092E-02
    9063.883     69.530   4.480  1.06001E+00  1.01595E+00  4.40584E-02
    9065.255     70.902   4.520  1.05611E+00  1.01673E+00  3.93848E-02
    9066.639     72.285   4.560  1.04793E+00  1.01745E+00  3.04773E-02
    9068.035     73.681   4.600  1.03843E+00  1.01813E+00  2.03008E-02
    9069.443     75.090   4.640  1.03029E+00  1.01873E+00  1.15654E-02
    9070.863     76.510   4.680  1.02561E+00  1.01925E+00  6.35805E-03
    9072.296     77.942   4.720  1.02543E+00  1.01972E+00  5.70742E-03
    9073.740     79.387   4.760  1.02943E+00  1.02011E+00  9.31535E-03
    9075.197     80.844   4.800  1.03599E+00  1.02042E+00  1.55685E-02
    9076.666     82.313   4.840  1.04254E+00  1.02066E+00  2.18821E-02
    9078.148     83.795   4.880  1.04659E+00  1.02083E+00  2.57562E-02
    9079.641     85.288   4.920  1.04692E+00  1.02094E+00  2.59855E-02
    9081.147     86.794   4.960  1.04408E+00  1.02098E+00  2.30956E-02
    9082.665     88.312   5.000  1.03954E+00  1.02093E+00  1.86113E-02
    9084.195     89.842   5.040  1.03496E+00  1.02085E+00  1.41125E-02
    9085.737     91.384   5.080  1.03133E+00  1.02067E+00  1.06573E-02
    9087.292     92.939   5.120  1.02903E+00  1.02044E+00  8.58827E-03
    9088.858     94.505   5.160  1.02786E+00  1.02016E+00  7.69588E-03
    9090.437     96.084   5.200  1.02736E+00  1.01983E+00  7.53217E-03
    9092.028     97.675   5.240  1.02687E+00  1.01943E+00  7.43420E-03
    9093.632     99.278   5.280  1.02536E+00  1.01899E+00  6.37055E-03
    9095.247    100.894   5.320  1.02152E+00  1.01848E+00  3.04710E-03
    9096.875    102.521   5.360  1.01470E+00  1.01794E+00 -3.24631E-03
    9098.514    104.161   5.400  1.00573E+00  1.01737E+00 -1.16433E-02
    9100.166    105.813   5.440  9.96576E-01  1.01676E+00 -2.01857E-02
    9101.831    107.477   5.480  9.88696E-01  1.01612E+00 -2.74194E-02
    9103.507    109.154   5.520  9.82280E-01  1.01546E+00 -3.31763E-02
    9105.196    110.842   5.560  9.76735E-01  1.01476E+00 -3.80271E-02
    9106.896    112.543   5.600  9.71715E-01  1.01404E+00 -4.23229E-02
    9108.609    114.256   5.640  9.67735E-01  1.01333E+00 -4.55939E-02
    9110.334    115.981   5.680  9.65756E-01  1.01257E+00 -4.68130E-02
    9112.072    117.719   5.720  9.66649E-01  1.01183E+00 -4.51815E-02
    9113.821    119.468   5.760  9.70489E-01  1.01109E+00 -4.06053E-02
    9115.583    121.230   5.800  9.76751E-01  1.01036E+00 -3.36073E-02
    9117.357    123.004   5.840  9.84643E-01  1.00960E+00 -2.49590E-02
    9119.143    124.790   5.880  9.93541E-01  1.00888E+00 -1.53370E-02
    9120.941    126.588   5.920  1.00281E+00  1.00817E+00 -5.36325E-03
    9122.752    128.399   5.960  1.01162E+00  1.00751E+00  4.11325E-03
    9124.575    130.222   6.000  1.01894E+00  1.00684E+00  1.20984E-02
