# # comment:                                                     FEFF 9.9.1  
# # Source:
# # Structure
# # Reduced
# # space
# # abc:
# # angles:
# # sites:
# # POT  SCF 100  7.0000   0, screened core-hole, AFOLP (folp(0)= 1.150)
# # Abs   Z=29 Rmt= 1.120 Rnm= 1.249 K  shell
# # Pot 1 Z=56 Rmt= 1.962 Rnm= 2.049
# # Pot 2 Z=29 Rmt= 1.124 Rnm= 1.252
# # Pot 3 Z= 8 Rmt= 1.041 Rnm= 1.110
# # Gam_ch=1.729E+00 H-L exch Vi= 0.000E+00 Vr= 0.000E+00
# # Mu=-7.936E+00eV kf=2.042E+00 Vint=-1.573E+01eV Rs_int= 1.776
# FMS rfms= 9.0000
# # PATH  Rmax=-1.000,  Keep_limit= 0.00, Heap_limit 0.00  Pwcrit= 2.50%
#  S02=0.950  Temp=   0.00  Debye_temp=   0.00  Global_sig2= 0.00000
#  Energy zero shift, vr, vi    0.00000E+00   0.00000E+00
#  Curved wave amplitude ratio filter   4.000%
#     file         sig2 tot  cw amp ratio   deg  nlegs   reff  inp sig2
#     0/   0 paths used
#  xsedge+ 50, used to normalize mu           2.4480E-04
#  -----------------------------------------------------------------------
#  omega    e    k    mu    mu0     chi     @#
    8984.198    -11.746  -1.000  3.54856E-02  5.54949E-02 -2.00094E-02
    8984.497    -11.448  -0.960  3.73799E-02  5.94800E-02 -2.21001E-02
    8984.784    -11.161  -0.920  3.94373E-02  6.39009E-02 -2.44637E-02
    8985.058    -10.887  -0.880  4.16781E-02  6.88208E-02 -2.71428E-02
    8985.320    -10.625  -0.840  4.41258E-02  7.43133E-02 -3.01875E-02
    8985.570    -10.375  -0.800  4.68070E-02  8.04634E-02 -3.36564E-02
    8985.808    -10.137  -0.760  4.97512E-02  8.73686E-02 -3.76173E-02
    8986.033     -9.911  -0.720  5.29912E-02  9.51388E-02 -4.21477E-02
    8986.247     -9.698  -0.680  5.65615E-02  1.03895E-01 -4.73336E-02
    8986.448     -9.497  -0.640  6.04977E-02  1.13765E-01 -5.32672E-02
    8986.637     -9.308  -0.600  6.48327E-02  1.24873E-01 -6.00402E-02
    8986.814     -9.131  -0.560  6.95925E-02  1.37325E-01 -6.77328E-02
    8986.978     -8.967  -0.520  7.47892E-02  1.51185E-01 -7.63955E-02
    8987.131     -8.814  -0.480  8.04110E-02  1.66435E-01 -8.60243E-02
    8987.271     -8.674  -0.440  8.64120E-02  1.82944E-01 -9.65318E-02
    8987.399     -8.546  -0.400  9.27028E-02  2.00425E-01 -1.07723E-01
    8987.515     -8.430  -0.360  9.91478E-02  2.18433E-01 -1.19285E-01
    8987.618     -8.326  -0.320  1.05572E-01  2.36387E-01 -1.30815E-01
    8987.710     -8.235  -0.280  1.11777E-01  2.53641E-01 -1.41864E-01
    8987.789     -8.156  -0.240  1.17565E-01  2.69574E-01 -1.52009E-01
    8987.856     -8.089  -0.200  1.22758E-01  2.83663E-01 -1.60906E-01
    8987.911     -8.034  -0.160  1.27206E-01  2.95523E-01 -1.68318E-01
    8987.954     -7.991  -0.120  1.30794E-01  3.04905E-01 -1.74112E-01
    8987.984     -7.961  -0.080  1.33435E-01  3.11669E-01 -1.78234E-01
    8988.008     -7.936   0.000  1.35628E-01  3.17107E-01 -1.81479E-01
    8988.063     -7.881   0.120  1.40529E-01  3.29360E-01 -1.88831E-01
    8988.106     -7.839   0.160  1.44410E-01  3.38912E-01 -1.94502E-01
    8988.161     -7.784   0.200  1.49453E-01  3.51107E-01 -2.01654E-01
    8988.228     -7.717   0.240  1.55796E-01  3.65817E-01 -2.10020E-01
    8988.307     -7.638   0.280  1.63527E-01  3.82767E-01 -2.19241E-01
    8988.399     -7.546   0.320  1.72766E-01  4.01516E-01 -2.28750E-01
    8988.502     -7.443   0.360  1.83721E-01  4.21579E-01 -2.37858E-01
    8988.618     -7.327   0.400  1.96670E-01  4.42418E-01 -2.45748E-01
    8988.746     -7.199   0.440  2.11829E-01  4.63502E-01 -2.51673E-01
    8988.886     -7.059   0.480  2.29360E-01  4.84489E-01 -2.55129E-01
    8989.039     -6.906   0.520  2.48840E-01  5.05076E-01 -2.56236E-01
    8989.203     -6.742   0.560  2.68984E-01  5.25170E-01 -2.56186E-01
    8989.380     -6.565   0.600  2.87295E-01  5.44718E-01 -2.57423E-01
    8989.569     -6.376   0.640  3.00894E-01  5.63794E-01 -2.62899E-01
    8989.770     -6.175   0.680  3.07838E-01  5.82422E-01 -2.74584E-01
    8989.984     -5.961   0.720  3.08000E-01  6.00721E-01 -2.92721E-01
    8990.209     -5.736   0.760  3.02511E-01  6.18748E-01 -3.16237E-01
    8990.447     -5.498   0.800  2.93009E-01  6.36567E-01 -3.43558E-01
    8990.697     -5.248   0.840  2.81655E-01  6.54232E-01 -3.72576E-01
    8990.959     -4.986   0.880  2.71025E-01  6.71781E-01 -4.00756E-01
    8991.233     -4.712   0.920  2.63455E-01  6.89242E-01 -4.25787E-01
    8991.520     -4.425   0.960  2.60338E-01  7.06607E-01 -4.46269E-01
    8991.818     -4.126   1.000  2.61966E-01  7.23859E-01 -4.61892E-01
    8992.129     -3.815   1.040  2.67877E-01  7.41011E-01 -4.73134E-01
    8992.452     -3.492   1.080  2.77105E-01  7.58011E-01 -4.80905E-01
    8992.788     -3.157   1.120  2.88733E-01  7.74858E-01 -4.86125E-01
    8993.135     -2.810   1.160  3.02097E-01  7.91508E-01 -4.89410E-01
    8993.495     -2.450   1.200  3.17524E-01  8.07932E-01 -4.90408E-01
    8993.867     -2.078   1.240  3.36953E-01  8.24059E-01 -4.87106E-01
    8994.251     -1.694   1.280  3.63859E-01  8.39876E-01 -4.76017E-01
    8994.647     -1.298   1.320  4.02398E-01  8.55347E-01 -4.52949E-01
    8995.055     -0.889   1.360  4.56209E-01  8.70397E-01 -4.14188E-01
    8995.476     -0.469   1.400  5.26355E-01  8.85030E-01 -3.58676E-01
    8995.909     -0.036   1.440  6.09976E-01  8.99172E-01 -2.89196E-01
    8996.354      0.409   1.480  7.00967E-01  9.12807E-01 -2.11840E-01
    8996.811      0.866   1.520  7.86265E-01  9.25882E-01 -1.39617E-01
    8997.280      1.336   1.560  8.41041E-01  9.38384E-01 -9.73433E-02
    8997.762      1.817   1.600  8.36446E-01  9.50304E-01 -1.13858E-01
    8998.256      2.311   1.640  7.77519E-01  9.61594E-01 -1.84075E-01
    8998.762      2.817   1.680  7.16227E-01  9.72244E-01 -2.56017E-01
    8999.280      3.335   1.720  6.96584E-01  9.82251E-01 -2.85668E-01
    8999.810      3.865   1.760  7.25298E-01  9.91594E-01 -2.66296E-01
    9000.353      4.408   1.800  7.93107E-01  1.00029E+00 -2.07183E-01
    9000.908      4.963   1.840  8.92471E-01  1.00832E+00 -1.15849E-01
    9001.474      5.530   1.880  1.01896E+00  1.01569E+00  3.26921E-03
    9002.054      6.109   1.920  1.15437E+00  1.02242E+00  1.31953E-01
    9002.645      6.700   1.960  1.26829E+00  1.02849E+00  2.39803E-01
    9003.248      7.304   2.000  1.35733E+00  1.03396E+00  3.23370E-01
    9003.864      7.919   2.040  1.41949E+00  1.03882E+00  3.80670E-01
    9004.492      8.547   2.080  1.43114E+00  1.04306E+00  3.88073E-01
    9005.132      9.187   2.120  1.39956E+00  1.04676E+00  3.52808E-01
    9005.784      9.840   2.160  1.36493E+00  1.04991E+00  3.15022E-01
    9006.449     10.504   2.200  1.35515E+00  1.05252E+00  3.02631E-01
    9007.125     11.181   2.240  1.38004E+00  1.05462E+00  3.25420E-01
    9007.814     11.869   2.280  1.42937E+00  1.05627E+00  3.73094E-01
    9008.515     12.571   2.320  1.47205E+00  1.05747E+00  4.14574E-01
    9009.229     13.284   2.360  1.47969E+00  1.05824E+00  4.21447E-01
    9009.954     14.009   2.400  1.44312E+00  1.05864E+00  3.84474E-01
    9010.692     14.747   2.440  1.36674E+00  1.05866E+00  3.08088E-01
    9011.441     15.497   2.480  1.28436E+00  1.05833E+00  2.26022E-01
    9012.203     16.259   2.520  1.23289E+00  1.05771E+00  1.75175E-01
    9012.978     17.033   2.560  1.20114E+00  1.05680E+00  1.44337E-01
    9013.764     17.819   2.600  1.17925E+00  1.05561E+00  1.23637E-01
    9014.563     18.618   2.640  1.16024E+00  1.05421E+00  1.06030E-01
    9015.373     19.428   2.680  1.14027E+00  1.05259E+00  8.76768E-02
    9016.196     20.251   2.720  1.11876E+00  1.05077E+00  6.79861E-02
    9017.031     21.087   2.760  1.09710E+00  1.04881E+00  4.82839E-02
    9017.879     21.934   2.800  1.07689E+00  1.04667E+00  3.02196E-02
    9018.738     22.793   2.840  1.05934E+00  1.04443E+00  1.49081E-02
    9019.610     23.665   2.880  1.04449E+00  1.04210E+00  2.38858E-03
    9020.494     24.549   2.920  1.03123E+00  1.03966E+00 -8.42302E-03
    9021.390     25.445   2.960  1.01831E+00  1.03716E+00 -1.88438E-02
    9022.298     26.354   3.000  1.00457E+00  1.03459E+00 -3.00164E-02
    9023.219     27.274   3.040  9.89755E-01  1.03200E+00 -4.22466E-02
    9024.151     28.207   3.080  9.74836E-01  1.02938E+00 -5.45457E-02
    9025.096     29.152   3.120  9.61403E-01  1.02676E+00 -6.53523E-02
    9026.053     30.109   3.160  9.50295E-01  1.02413E+00 -7.38340E-02
    9027.023     31.078   3.200  9.41558E-01  1.02150E+00 -7.99468E-02
    9028.004     32.059   3.240  9.34917E-01  1.01891E+00 -8.39967E-02
    9028.998     33.053   3.280  9.29819E-01  1.01638E+00 -8.65663E-02
    9030.004     34.059   3.320  9.25568E-01  1.01388E+00 -8.83112E-02
    9031.022     35.077   3.360  9.21445E-01  1.01142E+00 -8.99703E-02
    9032.052     36.107   3.400  9.16627E-01  1.00902E+00 -9.23932E-02
    9033.094     37.149   3.440  9.10305E-01  1.00671E+00 -9.64031E-02
    9034.149     38.204   3.480  9.02166E-01  1.00447E+00 -1.02307E-01
    9035.216     39.271   3.520  8.92688E-01  1.00231E+00 -1.09624E-01
    9036.295     40.350   3.560  8.82875E-01  1.00024E+00 -1.17362E-01
    9037.386     41.441   3.600  8.74030E-01  9.98241E-01 -1.24211E-01
    9038.489     42.544   3.640  8.67362E-01  9.96334E-01 -1.28972E-01
    9039.605     43.660   3.680  8.63671E-01  9.94535E-01 -1.30864E-01
    9040.733     44.788   3.720  8.62963E-01  9.92830E-01 -1.29866E-01
    9041.872     45.928   3.760  8.65021E-01  9.91242E-01 -1.26221E-01
    9043.025     47.080   3.800  8.69380E-01  9.89765E-01 -1.20384E-01
    9044.189     48.244   3.840  8.75433E-01  9.88381E-01 -1.12948E-01
    9045.365     49.421   3.880  8.82758E-01  9.87114E-01 -1.04356E-01
    9046.554     50.609   3.920  8.91237E-01  9.85963E-01 -9.47258E-02
    9047.755     51.810   3.960  9.00994E-01  9.84928E-01 -8.39340E-02
    9048.968     53.023   4.000  9.12291E-01  9.83988E-01 -7.16971E-02
    9050.193     54.249   4.040  9.25519E-01  9.83161E-01 -5.76414E-02
    9051.431     55.486   4.080  9.40886E-01  9.82427E-01 -4.15413E-02
    9052.681     56.736   4.120  9.58236E-01  9.81810E-01 -2.35733E-02
    9053.943     57.998   4.160  9.76981E-01  9.81308E-01 -4.32733E-03
    9055.217     59.272   4.200  9.96079E-01  9.80922E-01  1.51568E-02
    9056.503     60.558   4.240  1.01409E+00  9.80628E-01  3.34574E-02
    9057.801     61.856   4.280  1.02957E+00  9.80445E-01  4.91285E-02
    9059.112     63.167   4.320  1.04150E+00  9.80351E-01  6.11479E-02
    9060.435     64.490   4.360  1.04962E+00  9.80344E-01  6.92730E-02
    9061.770     65.825   4.400  1.05451E+00  9.80447E-01  7.40645E-02
    9063.117     67.172   4.440  1.05737E+00  9.80636E-01  7.67346E-02
    9064.476     68.532   4.480  1.05943E+00  9.80909E-01  7.85217E-02
    9065.848     69.903   4.520  1.06163E+00  9.81286E-01  8.03435E-02
    9067.232     71.287   4.560  1.06441E+00  9.81722E-01  8.26886E-02
    9068.628     72.683   4.600  1.06779E+00  9.82235E-01  8.55506E-02
    9070.036     74.091   4.640  1.07124E+00  9.82825E-01  8.84152E-02
    9071.456     75.511   4.680  1.07386E+00  9.83469E-01  9.03880E-02
    9072.889     76.944   4.720  1.07461E+00  9.84207E-01  9.04008E-02
    9074.334     78.389   4.760  1.07260E+00  9.84972E-01  8.76264E-02
    9075.790     79.846   4.800  1.06771E+00  9.85805E-01  8.19010E-02
    9077.260     81.315   4.840  1.06044E+00  9.86684E-01  7.37599E-02
    9078.741     82.796   4.880  1.05180E+00  9.87627E-01  6.41777E-02
    9080.234     84.290   4.920  1.04283E+00  9.88587E-01  5.42400E-02
    9081.740     85.795   4.960  1.03439E+00  9.89584E-01  4.48035E-02
    9083.258     87.313   5.000  1.02695E+00  9.90615E-01  3.63374E-02
    9084.788     88.843   5.040  1.02058E+00  9.91656E-01  2.89249E-02
    9086.330     90.386   5.080  1.01508E+00  9.92727E-01  2.23559E-02
    9087.885     91.940   5.120  1.01015E+00  9.93802E-01  1.63488E-02
    9089.452     93.507   5.160  1.00559E+00  9.94879E-01  1.07108E-02
    9091.030     95.086   5.200  1.00133E+00  9.95956E-01  5.37327E-03
    9092.621     96.677   5.240  9.97468E-01  9.97031E-01  4.36571E-04
    9094.225     98.280   5.280  9.94260E-01  9.98104E-01 -3.84424E-03
    9095.840     99.895   5.320  9.92106E-01  9.99171E-01 -7.06496E-03
    9097.468    101.523   5.360  9.91417E-01  1.00021E+00 -8.79106E-03
    9099.108    103.163   5.400  9.92376E-01  1.00123E+00 -8.85699E-03
    9100.760    104.815   5.440  9.94611E-01  1.00222E+00 -7.61095E-03
    9102.424    106.479   5.480  9.97189E-01  1.00317E+00 -5.98358E-03
    9104.100    108.155   5.520  9.98881E-01  1.00408E+00 -5.20131E-03
    9105.789    109.844   5.560  9.98645E-01  1.00495E+00 -6.30539E-03
    9107.490    111.545   5.600  9.95981E-01  1.00578E+00 -9.79483E-03
    9109.203    113.258   5.640  9.91063E-01  1.00656E+00 -1.54941E-02
    9110.928    114.983   5.680  9.84709E-01  1.00729E+00 -2.25832E-02
    9112.665    116.720   5.720  9.78088E-01  1.00795E+00 -2.98664E-02
    9114.415    118.470   5.760  9.72378E-01  1.00854E+00 -3.61642E-02
    9116.176    120.232   5.800  9.68475E-01  1.00908E+00 -4.06040E-02
    9117.950    122.005   5.840  9.66702E-01  1.00957E+00 -4.28640E-02
    9119.736    123.792   5.880  9.66741E-01  1.00998E+00 -4.32343E-02
    9121.535    125.590   5.920  9.67892E-01  1.01030E+00 -4.24078E-02
    9123.345    127.400   5.960  9.69513E-01  1.01053E+00 -4.10151E-02
    9125.168    129.223   6.000  9.71512E-01  1.01066E+00 -3.91437E-02
