# # comment:                                                     FEFF 9.9.1  
# # Source:
# # Structure
# # Reduced
# # space
# # abc:
# # angles:109.471221
# # sites:
# # POT  SCF 100  7.0000   0, screened core-hole, AFOLP (folp(0)= 1.150)
# # Abs   Z=29 Rmt= 1.199 Rnm= 1.289 K  shell
# # Pot 1 Z=65 Rmt= 1.685 Rnm= 1.731
# # Pot 2 Z=25 Rmt= 1.275 Rnm= 1.384
# # Pot 3 Z=29 Rmt= 1.199 Rnm= 1.289
# # Pot 4 Z= 8 Rmt= 1.025 Rnm= 1.095
# # Gam_ch=1.729E+00 H-L exch Vi= 0.000E+00 Vr= 0.000E+00
# # Mu=-1.004E+01eV kf=2.188E+00 Vint=-1.821E+01eV Rs_int= 1.658
# FMS rfms= 9.0000
# # PATH  Rmax=-1.000,  Keep_limit= 0.00, Heap_limit 0.00  Pwcrit= 2.50%
#  S02=0.950  Temp=   0.00  Debye_temp=   0.00  Global_sig2= 0.00000
#  Energy zero shift, vr, vi    0.00000E+00   0.00000E+00
#  Curved wave amplitude ratio filter   4.000%
#     file         sig2 tot  cw amp ratio   deg  nlegs   reff  inp sig2
#     0/   0 paths used
#  xsedge+ 50, used to normalize mu           2.4829E-04
#  -----------------------------------------------------------------------
#  omega    e    k    mu    mu0     chi     @#
    8984.501    -13.851  -1.000  3.44538E-02  5.06623E-02 -1.62085E-02
    8984.799    -13.552  -0.960  3.61132E-02  5.42425E-02 -1.81294E-02
    8985.086    -13.265  -0.920  3.78815E-02  5.82124E-02 -2.03309E-02
    8985.360    -12.991  -0.880  3.97686E-02  6.26284E-02 -2.28598E-02
    8985.622    -12.729  -0.840  4.17857E-02  6.75566E-02 -2.57709E-02
    8985.872    -12.479  -0.800  4.39451E-02  7.30730E-02 -2.91279E-02
    8986.110    -12.241  -0.760  4.62608E-02  7.92650E-02 -3.30042E-02
    8986.335    -12.016  -0.720  4.87479E-02  8.62313E-02 -3.74834E-02
    8986.549    -11.802  -0.680  5.14223E-02  9.40802E-02 -4.26579E-02
    8986.750    -11.601  -0.640  5.43002E-02  1.02926E-01 -4.86258E-02
    8986.939    -11.412  -0.600  5.73959E-02  1.12881E-01 -5.54849E-02
    8987.116    -11.235  -0.560  6.07189E-02  1.24040E-01 -6.33209E-02
    8987.280    -11.071  -0.520  6.42694E-02  1.36459E-01 -7.21897E-02
    8987.433    -10.918  -0.480  6.80318E-02  1.50125E-01 -8.20932E-02
    8987.573    -10.778  -0.440  7.19674E-02  1.64918E-01 -9.29502E-02
    8987.701    -10.650  -0.400  7.60092E-02  1.80581E-01 -1.04572E-01
    8987.817    -10.534  -0.360  8.00616E-02  1.96716E-01 -1.16654E-01
    8987.920    -10.431  -0.320  8.40079E-02  2.12800E-01 -1.28792E-01
    8988.012    -10.339  -0.280  8.77256E-02  2.28256E-01 -1.40530E-01
    8988.091    -10.260  -0.240  9.11041E-02  2.42526E-01 -1.51421E-01
    8988.158    -10.193  -0.200  9.40568E-02  2.55141E-01 -1.61084E-01
    8988.213    -10.138  -0.160  9.65247E-02  2.65759E-01 -1.69234E-01
    8988.256    -10.095  -0.120  9.84711E-02  2.74157E-01 -1.75686E-01
    8988.286    -10.065  -0.080  9.98749E-02  2.80210E-01 -1.80335E-01
    8988.311    -10.041   0.000  1.01011E-01  2.85076E-01 -1.84065E-01
    8988.365     -9.986   0.120  1.03647E-01  2.96055E-01 -1.92408E-01
    8988.408     -9.943   0.160  1.05673E-01  3.04603E-01 -1.98929E-01
    8988.463     -9.888   0.200  1.08235E-01  3.15502E-01 -2.07267E-01
    8988.530     -9.821   0.240  1.11367E-01  3.28655E-01 -2.17288E-01
    8988.609     -9.742   0.280  1.15049E-01  3.43774E-01 -2.28725E-01
    8988.701     -9.650   0.320  1.19363E-01  3.60536E-01 -2.41173E-01
    8988.804     -9.547   0.360  1.24335E-01  3.78423E-01 -2.54088E-01
    8988.920     -9.431   0.400  1.30181E-01  3.96989E-01 -2.66807E-01
    8989.048     -9.303   0.440  1.37095E-01  4.15769E-01 -2.78673E-01
    8989.188     -9.163   0.480  1.45321E-01  4.34400E-01 -2.89079E-01
    8989.341     -9.010   0.520  1.54985E-01  4.52664E-01 -2.97679E-01
    8989.505     -8.846   0.560  1.65998E-01  4.70461E-01 -3.04462E-01
    8989.682     -8.669   0.600  1.77904E-01  4.87761E-01 -3.09856E-01
    8989.871     -8.480   0.640  1.90044E-01  5.04614E-01 -3.14569E-01
    8990.072     -8.279   0.680  2.01925E-01  5.21060E-01 -3.19135E-01
    8990.286     -8.065   0.720  2.13576E-01  5.37213E-01 -3.23637E-01
    8990.511     -7.840   0.760  2.25345E-01  5.53122E-01 -3.27777E-01
    8990.749     -7.602   0.800  2.37974E-01  5.68868E-01 -3.30894E-01
    8990.999     -7.352   0.840  2.53008E-01  5.84503E-01 -3.31495E-01
    8991.261     -7.090   0.880  2.73951E-01  6.00064E-01 -3.26112E-01
    8991.535     -6.816   0.920  3.06582E-01  6.15577E-01 -3.08995E-01
    8991.822     -6.529   0.960  3.57224E-01  6.31038E-01 -2.73813E-01
    8992.120     -6.231   1.000  4.28353E-01  6.46491E-01 -2.18139E-01
    8992.431     -5.920   1.040  5.09579E-01  6.61896E-01 -1.52318E-01
    8992.754     -5.597   1.080  5.76966E-01  6.77263E-01 -1.00297E-01
    8993.090     -5.261   1.120  6.24337E-01  6.92576E-01 -6.82393E-02
    8993.437     -4.914   1.160  6.79269E-01  7.07796E-01 -2.85270E-02
    8993.797     -4.554   1.200  7.54532E-01  7.22919E-01  3.16125E-02
    8994.169     -4.182   1.240  8.04713E-01  7.37880E-01  6.68332E-02
    8994.553     -3.798   1.280  7.68684E-01  7.52689E-01  1.59943E-02
    8994.949     -3.402   1.320  6.63565E-01  7.67276E-01 -1.03710E-01
    8995.357     -2.994   1.360  5.62586E-01  7.81629E-01 -2.19043E-01
    8995.778     -2.573   1.400  5.08781E-01  7.95716E-01 -2.86935E-01
    8996.211     -2.140   1.440  5.04230E-01  8.09504E-01 -3.05275E-01
    8996.656     -1.695   1.480  5.34431E-01  8.22941E-01 -2.88510E-01
    8997.113     -1.238   1.520  5.80916E-01  8.36035E-01 -2.55119E-01
    8997.582     -0.769   1.560  6.28218E-01  8.48715E-01 -2.20497E-01
    8998.064     -0.287   1.600  6.77176E-01  8.60989E-01 -1.83813E-01
    8998.558      0.207   1.640  7.32628E-01  8.72828E-01 -1.40200E-01
    8999.064      0.713   1.680  7.80698E-01  8.84202E-01 -1.03505E-01
    8999.582      1.231   1.720  8.09050E-01  8.95106E-01 -8.60564E-02
    9000.112      1.761   1.760  8.35638E-01  9.05513E-01 -6.98755E-02
    9000.655      2.304   1.800  8.76244E-01  9.15419E-01 -3.91748E-02
    9001.210      2.859   1.840  9.17826E-01  9.24818E-01 -6.99251E-03
    9001.777      3.425   1.880  9.43594E-01  9.33690E-01  9.90398E-03
    9002.356      4.005   1.920  9.63441E-01  9.42056E-01  2.13857E-02
    9002.947      4.596   1.960  1.01662E+00  9.49892E-01  6.67252E-02
    9003.550      5.199   2.000  1.11203E+00  9.57224E-01  1.54810E-01
    9004.166      5.815   2.040  1.19143E+00  9.64034E-01  2.27396E-01
    9004.794      6.443   2.080  1.21779E+00  9.70345E-01  2.47442E-01
    9005.434      7.083   2.120  1.22306E+00  9.76163E-01  2.46900E-01
    9006.086      7.735   2.160  1.24095E+00  9.81492E-01  2.59458E-01
    9006.751      8.400   2.200  1.29490E+00  9.86342E-01  3.08562E-01
    9007.427      9.076   2.240  1.38115E+00  9.90759E-01  3.90396E-01
    9008.116      9.765   2.280  1.44494E+00  9.94712E-01  4.50224E-01
    9008.817     10.466   2.320  1.44763E+00  9.98269E-01  4.49359E-01
    9009.531     11.180   2.360  1.41223E+00  1.00140E+00  4.10835E-01
    9010.256     11.905   2.400  1.36244E+00  1.00415E+00  3.58285E-01
    9010.994     12.643   2.440  1.30160E+00  1.00654E+00  2.95063E-01
    9011.743     13.392   2.480  1.23226E+00  1.00856E+00  2.23693E-01
    9012.505     14.154   2.520  1.16713E+00  1.01028E+00  1.56846E-01
    9013.280     14.929   2.560  1.11665E+00  1.01167E+00  1.04979E-01
    9014.066     15.715   2.600  1.08328E+00  1.01278E+00  7.05000E-02
    9014.865     16.514   2.640  1.05744E+00  1.01362E+00  4.38246E-02
    9015.675     17.324   2.680  1.02968E+00  1.01420E+00  1.54737E-02
    9016.498     18.147   2.720  1.00310E+00  1.01455E+00 -1.14506E-02
    9017.333     18.982   2.760  9.82370E-01  1.01470E+00 -3.23256E-02
    9018.181     19.830   2.800  9.68660E-01  1.01466E+00 -4.59976E-02
    9019.040     20.689   2.840  9.60744E-01  1.01441E+00 -5.36626E-02
    9019.912     21.561   2.880  9.55051E-01  1.01401E+00 -5.89634E-02
    9020.796     22.445   2.920  9.47793E-01  1.01349E+00 -6.56950E-02
    9021.692     23.341   2.960  9.36899E-01  1.01282E+00 -7.59177E-02
    9022.600     24.249   3.000  9.22163E-01  1.01205E+00 -8.98833E-02
    9023.521     25.170   3.040  9.04841E-01  1.01116E+00 -1.06322E-01
    9024.454     26.102   3.080  8.87517E-01  1.01020E+00 -1.22679E-01
    9025.398     27.047   3.120  8.73130E-01  1.00917E+00 -1.36041E-01
    9026.355     28.004   3.160  8.63357E-01  1.00805E+00 -1.44697E-01
    9027.325     28.974   3.200  8.58731E-01  1.00691E+00 -1.48180E-01
    9028.306     29.955   3.240  8.58720E-01  1.00573E+00 -1.47009E-01
    9029.300     30.949   3.280  8.61823E-01  1.00451E+00 -1.42688E-01
    9030.306     31.955   3.320  8.66784E-01  1.00328E+00 -1.36500E-01
    9031.324     32.973   3.360  8.72989E-01  1.00205E+00 -1.29062E-01
    9032.354     34.003   3.400  8.79918E-01  1.00079E+00 -1.20875E-01
    9033.396     35.045   3.440  8.86793E-01  9.99559E-01 -1.12766E-01
    9034.451     36.100   3.480  8.92915E-01  9.98330E-01 -1.05415E-01
    9035.518     37.167   3.520  8.98163E-01  9.97131E-01 -9.89676E-02
    9036.597     38.246   3.560  9.03116E-01  9.95943E-01 -9.28265E-02
    9037.688     39.337   3.600  9.09110E-01  9.94788E-01 -8.56781E-02
    9038.791     40.440   3.640  9.17410E-01  9.93672E-01 -7.62613E-02
    9039.907     41.556   3.680  9.28709E-01  9.92596E-01 -6.38876E-02
    9041.035     42.684   3.720  9.42891E-01  9.91583E-01 -4.86924E-02
    9042.175     43.823   3.760  9.59261E-01  9.90591E-01 -3.13299E-02
    9043.327     44.976   3.800  9.76585E-01  9.89663E-01 -1.30777E-02
    9044.491     46.140   3.840  9.93016E-01  9.88781E-01  4.23588E-03
    9045.668     47.316   3.880  1.00656E+00  9.87944E-01  1.86188E-02
    9046.856     48.505   3.920  1.01547E+00  9.87173E-01  2.82973E-02
    9048.057     49.706   3.960  1.01875E+00  9.86452E-01  3.22964E-02
    9049.270     50.919   4.000  1.01679E+00  9.85801E-01  3.09864E-02
    9050.496     52.144   4.040  1.01143E+00  9.85198E-01  2.62354E-02
    9051.733     53.382   4.080  1.00563E+00  9.84666E-01  2.09623E-02
    9052.983     54.632   4.120  1.00239E+00  9.84182E-01  1.82115E-02
    9054.245     55.894   4.160  1.00397E+00  9.83767E-01  2.02052E-02
    9055.519     57.168   4.200  1.01090E+00  9.83403E-01  2.74929E-02
    9056.805     58.454   4.240  1.02187E+00  9.83106E-01  3.87657E-02
    9058.103     59.752   4.280  1.03446E+00  9.82858E-01  5.15994E-02
    9059.414     61.063   4.320  1.04630E+00  9.82680E-01  6.36170E-02
    9060.737     62.386   4.360  1.05583E+00  9.82548E-01  7.32856E-02
    9062.072     63.721   4.400  1.06243E+00  9.82460E-01  7.99654E-02
    9063.419     65.068   4.440  1.06574E+00  9.82439E-01  8.32966E-02
    9064.778     66.427   4.480  1.06492E+00  9.82461E-01  8.24621E-02
    9066.150     67.799   4.520  1.05933E+00  9.82526E-01  7.68028E-02
    9067.534     69.183   4.560  1.04968E+00  9.82631E-01  6.70505E-02
    9068.930     70.579   4.600  1.03844E+00  9.82775E-01  5.56661E-02
    9070.338     71.987   4.640  1.02874E+00  9.82959E-01  4.57771E-02
    9071.758     73.407   4.680  1.02292E+00  9.83181E-01  3.97387E-02
    9073.191     74.840   4.720  1.02170E+00  9.83442E-01  3.82581E-02
    9074.636     76.285   4.760  1.02429E+00  9.83736E-01  4.05494E-02
    9076.093     77.741   4.800  1.02902E+00  9.84041E-01  4.49750E-02
    9077.562     79.211   4.840  1.03408E+00  9.84379E-01  4.96997E-02
    9079.043     80.692   4.880  1.03779E+00  9.84725E-01  5.30657E-02
    9080.536     82.185   4.920  1.03877E+00  9.85103E-01  5.36708E-02
    9082.042     83.691   4.960  1.03605E+00  9.85508E-01  5.05455E-02
    9083.560     85.209   5.000  1.02949E+00  9.85897E-01  4.35882E-02
    9085.090     86.739   5.040  1.01997E+00  9.86310E-01  3.36576E-02
    9086.632     88.281   5.080  1.00882E+00  9.86725E-01  2.20897E-02
    9088.187     89.836   5.120  9.97084E-01  9.87141E-01  9.94324E-03
    9089.754     91.403   5.160  9.85194E-01  9.87556E-01 -2.36128E-03
    9091.332     92.981   5.200  9.73018E-01  9.87970E-01 -1.49523E-02
    9092.924     94.572   5.240  9.60132E-01  9.88380E-01 -2.82480E-02
    9094.527     96.176   5.280  9.46215E-01  9.88763E-01 -4.25476E-02
    9096.142     97.791   5.320  9.31599E-01  9.89163E-01 -5.75641E-02
    9097.770     99.419   5.360  9.17231E-01  9.89533E-01 -7.23017E-02
    9099.410    101.059   5.400  9.04459E-01  9.89871E-01 -8.54119E-02
    9101.062    102.711   5.440  8.94642E-01  9.90198E-01 -9.55558E-02
    9102.726    104.375   5.480  8.88812E-01  9.90494E-01 -1.01682E-01
    9104.402    106.051   5.520  8.87458E-01  9.90779E-01 -1.03320E-01
    9106.091    107.740   5.560  8.90501E-01  9.91031E-01 -1.00530E-01
    9107.792    109.441   5.600  8.97705E-01  9.91270E-01 -9.35648E-02
    9109.505    111.154   5.640  9.08964E-01  9.91450E-01 -8.24852E-02
    9111.230    112.879   5.680  9.24446E-01  9.91614E-01 -6.71686E-02
    9112.967    114.616   5.720  9.43969E-01  9.91745E-01 -4.77757E-02
    9114.717    116.366   5.760  9.66594E-01  9.91860E-01 -2.52658E-02
    9116.478    118.127   5.800  9.90344E-01  9.91914E-01 -1.57002E-03
    9118.252    119.901   5.840  1.01284E+00  9.91928E-01  2.09101E-02
    9120.038    121.687   5.880  1.03201E+00  9.91927E-01  4.00818E-02
    9121.837    123.486   5.920  1.04623E+00  9.91865E-01  5.43685E-02
    9123.647    125.296   5.960  1.05421E+00  9.91786E-01  6.24261E-02
    9125.470    127.119   6.000  1.05456E+00  9.91648E-01  6.29101E-02
