# # comment:                                                     FEFF 9.9.1  
# # Source:
# # Structure
# # Reduced
# # space
# # abc:
# # angles:129.142062
# # sites:
# # POT  SCF 100  7.0000   0, screened core-hole, AFOLP (folp(0)= 1.150)
# # Abs   Z=29 Rmt= 1.225 Rnm= 1.335 K  shell
# # Pot 1 Z=29 Rmt= 1.225 Rnm= 1.335
# # Pot 2 Z=82 Rmt= 1.628 Rnm= 1.715
# # Pot 3 Z= 8 Rmt= 1.055 Rnm= 1.126
# # Gam_ch=1.729E+00 H-L exch Vi= 0.000E+00 Vr= 0.000E+00
# # Mu=-5.788E+00eV kf=2.012E+00 Vint=-1.391E+01eV Rs_int= 1.803
# FMS rfms= 9.0000
# # PATH  Rmax=-1.000,  Keep_limit= 0.00, Heap_limit 0.00  Pwcrit= 2.50%
#  S02=0.950  Temp=   0.00  Debye_temp=   0.00  Global_sig2= 0.00000
#  Energy zero shift, vr, vi    0.00000E+00   0.00000E+00
#  Curved wave amplitude ratio filter   4.000%
#     file         sig2 tot  cw amp ratio   deg  nlegs   reff  inp sig2
#     0/   0 paths used
#  xsedge+ 50, used to normalize mu           2.4250E-04
#  -----------------------------------------------------------------------
#  omega    e    k    mu    mu0     chi     @#
    8983.412     -9.598  -1.000  4.37979E-02  5.96522E-02 -1.58543E-02
    8983.711     -9.299  -0.960  4.64305E-02  6.40995E-02 -1.76691E-02
    8983.997     -9.013  -0.920  4.93119E-02  6.90476E-02 -1.97356E-02
    8984.272     -8.738  -0.880  5.24756E-02  7.45701E-02 -2.20945E-02
    8984.534     -8.476  -0.840  5.59599E-02  8.07532E-02 -2.47933E-02
    8984.784     -8.226  -0.800  5.98089E-02  8.76965E-02 -2.78876E-02
    8985.021     -7.989  -0.760  6.40721E-02  9.55142E-02 -3.14421E-02
    8985.247     -7.763  -0.720  6.88049E-02  1.04335E-01 -3.55305E-02
    8985.460     -7.550  -0.680  7.40670E-02  1.14302E-01 -4.02355E-02
    8985.661     -7.349  -0.640  7.99202E-02  1.25565E-01 -4.56449E-02
    8985.850     -7.160  -0.600  8.64242E-02  1.38271E-01 -5.18467E-02
    8986.027     -6.983  -0.560  9.36291E-02  1.52546E-01 -5.89164E-02
    8986.192     -6.818  -0.520  1.01564E-01  1.68464E-01 -6.68999E-02
    8986.344     -6.666  -0.480  1.10223E-01  1.86010E-01 -7.57872E-02
    8986.484     -6.526  -0.440  1.19545E-01  2.05029E-01 -8.54838E-02
    8986.612     -6.398  -0.400  1.29404E-01  2.25190E-01 -9.57868E-02
    8986.728     -6.282  -0.360  1.39593E-01  2.45973E-01 -1.06380E-01
    8986.832     -6.178  -0.320  1.49839E-01  2.66702E-01 -1.16862E-01
    8986.923     -6.087  -0.280  1.59821E-01  2.86623E-01 -1.26803E-01
    8987.003     -6.007  -0.240  1.69202E-01  3.05015E-01 -1.35813E-01
    8987.070     -5.940  -0.200  1.77669E-01  3.21271E-01 -1.43603E-01
    8987.125     -5.885  -0.160  1.84950E-01  3.34948E-01 -1.49998E-01
    8987.167     -5.843  -0.120  1.90834E-01  3.45761E-01 -1.54928E-01
    8987.198     -5.812  -0.080  1.95162E-01  3.53552E-01 -1.58390E-01
    8987.222     -5.788   0.000  1.98743E-01  3.59812E-01 -1.61069E-01
    8987.277     -5.733   0.120  2.06745E-01  3.73927E-01 -1.67182E-01
    8987.320     -5.690   0.160  2.13055E-01  3.84888E-01 -1.71833E-01
    8987.374     -5.636   0.200  2.21322E-01  3.98914E-01 -1.77592E-01
    8987.442     -5.569   0.240  2.31555E-01  4.15756E-01 -1.84201E-01
    8987.521     -5.489   0.280  2.43824E-01  4.35124E-01 -1.91300E-01
    8987.612     -5.398   0.320  2.58023E-01  4.56512E-01 -1.98489E-01
    8987.716     -5.294   0.360  2.73934E-01  4.79291E-01 -2.05357E-01
    8987.832     -5.178   0.400  2.91127E-01  5.02796E-01 -2.11669E-01
    8987.960     -5.050   0.440  3.08980E-01  5.26436E-01 -2.17455E-01
    8988.100     -4.910   0.480  3.26685E-01  5.49751E-01 -2.23066E-01
    8988.252     -4.758   0.520  3.43327E-01  5.72406E-01 -2.29079E-01
    8988.417     -4.593   0.560  3.58135E-01  5.94263E-01 -2.36128E-01
    8988.594     -4.416   0.600  3.70383E-01  6.15262E-01 -2.44879E-01
    8988.783     -4.227   0.640  3.79268E-01  6.35440E-01 -2.56172E-01
    8988.984     -4.026   0.680  3.83548E-01  6.54896E-01 -2.71348E-01
    8989.197     -3.813   0.720  3.81828E-01  6.73684E-01 -2.91856E-01
    8989.423     -3.587   0.760  3.74257E-01  6.91936E-01 -3.17679E-01
    8989.660     -3.350   0.800  3.63242E-01  7.09691E-01 -3.46449E-01
    8989.910     -3.100   0.840  3.52457E-01  7.26995E-01 -3.74538E-01
    8990.172     -2.838   0.880  3.45002E-01  7.43939E-01 -3.98936E-01
    8990.447     -2.563   0.920  3.42757E-01  7.60497E-01 -4.17740E-01
    8990.733     -2.277   0.960  3.47082E-01  7.76712E-01 -4.29630E-01
    8991.032     -1.978   1.000  3.59292E-01  7.92573E-01 -4.33281E-01
    8991.343     -1.667   1.040  3.80604E-01  8.08062E-01 -4.27458E-01
    8991.666     -1.344   1.080  4.11558E-01  8.23171E-01 -4.11613E-01
    8992.001     -1.009   1.120  4.51452E-01  8.37909E-01 -3.86457E-01
    8992.349     -0.661   1.160  4.98979E-01  8.52197E-01 -3.53218E-01
    8992.708     -0.302   1.200  5.53832E-01  8.66034E-01 -3.12202E-01
    8993.080      0.070   1.240  6.15170E-01  8.79418E-01 -2.64248E-01
    8993.464      0.454   1.280  6.77071E-01  8.92283E-01 -2.15211E-01
    8993.861      0.851   1.320  7.28759E-01  9.04602E-01 -1.75843E-01
    8994.269      1.259   1.360  7.63581E-01  9.16394E-01 -1.52813E-01
    8994.690      1.680   1.400  7.85417E-01  9.27591E-01 -1.42174E-01
    8995.122      2.112   1.440  8.04000E-01  9.38211E-01 -1.34211E-01
    8995.567      2.557   1.480  8.28784E-01  9.48230E-01 -1.19446E-01
    8996.025      3.015   1.520  8.63560E-01  9.57626E-01 -9.40662E-02
    8996.494      3.484   1.560  9.08303E-01  9.66420E-01 -5.81165E-02
    8996.976      3.966   1.600  9.70417E-01  9.74573E-01 -4.15544E-03
    8997.469      4.459   1.640  1.06162E+00  9.82108E-01  7.95106E-02
    8997.975      4.965   1.680  1.17685E+00  9.89030E-01  1.87818E-01
    8998.494      5.484   1.720  1.28992E+00  9.95346E-01  2.94570E-01
    8999.024      6.014   1.760  1.37679E+00  1.00108E+00  3.75708E-01
    8999.566      6.556   1.800  1.41691E+00  1.00621E+00  4.10697E-01
    9000.121      7.111   1.840  1.39733E+00  1.01080E+00  3.86528E-01
    9000.688      7.678   1.880  1.33754E+00  1.01487E+00  3.22673E-01
    9001.267      8.257   1.920  1.26995E+00  1.01839E+00  2.51557E-01
    9001.858      8.848   1.960  1.22011E+00  1.02142E+00  1.98692E-01
    9002.462      9.452   2.000  1.20274E+00  1.02399E+00  1.78747E-01
    9003.078     10.068   2.040  1.21285E+00  1.02611E+00  1.86735E-01
    9003.706     10.696   2.080  1.24277E+00  1.02781E+00  2.14958E-01
    9004.346     11.336   2.120  1.29054E+00  1.02913E+00  2.61416E-01
    9004.998     11.988   2.160  1.34354E+00  1.03009E+00  3.13447E-01
    9005.662     12.652   2.200  1.38280E+00  1.03069E+00  3.52104E-01
    9006.339     13.329   2.240  1.40365E+00  1.03100E+00  3.72656E-01
    9007.028     14.018   2.280  1.40462E+00  1.03103E+00  3.73590E-01
    9007.729     14.719   2.320  1.37633E+00  1.03081E+00  3.45521E-01
    9008.442     15.432   2.360  1.31403E+00  1.03034E+00  2.83688E-01
    9009.168     16.158   2.400  1.22586E+00  1.02967E+00  1.96187E-01
    9009.905     16.895   2.440  1.13387E+00  1.02882E+00  1.05052E-01
    9010.655     17.645   2.480  1.06317E+00  1.02782E+00  3.53440E-02
    9011.417     18.407   2.520  1.01074E+00  1.02667E+00 -1.59342E-02
    9012.191     19.181   2.560  9.71000E-01  1.02540E+00 -5.44001E-02
    9012.978     19.968   2.600  9.41958E-01  1.02403E+00 -8.20763E-02
    9013.776     20.766   2.640  9.21907E-01  1.02258E+00 -1.00678E-01
    9014.587     21.577   2.680  9.08829E-01  1.02108E+00 -1.12253E-01
    9015.410     22.400   2.720  9.01510E-01  1.01953E+00 -1.18024E-01
    9016.245     23.235   2.760  8.99278E-01  1.01795E+00 -1.18670E-01
    9017.092     24.082   2.800  9.01221E-01  1.01635E+00 -1.15129E-01
    9017.952     24.942   2.840  9.06098E-01  1.01473E+00 -1.08631E-01
    9018.824     25.814   2.880  9.11718E-01  1.01313E+00 -1.01412E-01
    9019.707     26.697   2.920  9.15407E-01  1.01156E+00 -9.61543E-02
    9020.604     27.594   2.960  9.15036E-01  1.01001E+00 -9.49707E-02
    9021.512     28.502   3.000  9.10596E-01  1.00851E+00 -9.79162E-02
    9022.432     29.422   3.040  9.03961E-01  1.00704E+00 -1.03078E-01
    9023.365     30.355   3.080  8.98125E-01  1.00563E+00 -1.07509E-01
    9024.310     31.300   3.120  8.95437E-01  1.00430E+00 -1.08863E-01
    9025.267     32.257   3.160  8.96633E-01  1.00302E+00 -1.06386E-01
    9026.236     33.226   3.200  9.01127E-01  1.00181E+00 -1.00688E-01
    9027.218     34.208   3.240  9.07501E-01  1.00069E+00 -9.31895E-02
    9028.211     35.201   3.280  9.13944E-01  9.99647E-01 -8.57031E-02
    9029.217     36.207   3.320  9.19143E-01  9.98686E-01 -7.95431E-02
    9030.235     37.225   3.360  9.22674E-01  9.97832E-01 -7.51578E-02
    9031.265     38.255   3.400  9.24652E-01  9.97043E-01 -7.23907E-02
    9032.308     39.298   3.440  9.25829E-01  9.96360E-01 -7.05311E-02
    9033.362     40.352   3.480  9.27449E-01  9.95765E-01 -6.83153E-02
    9034.429     41.419   3.520  9.30669E-01  9.95279E-01 -6.46105E-02
    9035.508     42.498   3.560  9.35762E-01  9.94882E-01 -5.91197E-02
    9036.599     43.589   3.600  9.42052E-01  9.94571E-01 -5.25187E-02
    9037.703     44.693   3.640  9.48409E-01  9.94368E-01 -4.59592E-02
    9038.818     45.808   3.680  9.53858E-01  9.94229E-01 -4.03705E-02
    9039.946     46.936   3.720  9.58425E-01  9.94197E-01 -3.57723E-02
    9041.086     48.076   3.760  9.62899E-01  9.94272E-01 -3.13729E-02
    9042.238     49.228   3.800  9.67979E-01  9.94410E-01 -2.64318E-02
    9043.403     50.393   3.840  9.73999E-01  9.94631E-01 -2.06321E-02
    9044.579     51.569   3.880  9.81035E-01  9.94952E-01 -1.39177E-02
    9045.768     52.758   3.920  9.89072E-01  9.95334E-01 -6.26226E-03
    9046.969     53.959   3.960  9.98234E-01  9.95793E-01  2.44063E-03
    9048.182     55.172   4.000  1.00865E+00  9.96329E-01  1.23202E-02
    9049.407     56.397   4.040  1.02044E+00  9.96939E-01  2.34990E-02
    9050.645     57.635   4.080  1.03365E+00  9.97598E-01  3.60540E-02
    9051.894     58.884   4.120  1.04818E+00  9.98306E-01  4.98715E-02
    9053.156     60.146   4.160  1.06385E+00  9.99082E-01  6.47642E-02
    9054.430     61.420   4.200  1.08020E+00  9.99902E-01  8.02993E-02
    9055.716     62.706   4.240  1.09639E+00  1.00076E+00  9.56260E-02
    9057.015     64.005   4.280  1.11108E+00  1.00167E+00  1.09413E-01
    9058.325     65.315   4.320  1.12246E+00  1.00261E+00  1.19857E-01
    9059.648     66.638   4.360  1.12871E+00  1.00358E+00  1.25132E-01
    9060.983     67.973   4.400  1.12867E+00  1.00457E+00  1.24102E-01
    9062.331     69.321   4.440  1.12251E+00  1.00558E+00  1.16931E-01
    9063.690     70.680   4.480  1.11141E+00  1.00660E+00  1.04814E-01
    9065.062     72.052   4.520  1.09700E+00  1.00762E+00  8.93801E-02
    9066.445     73.435   4.560  1.08059E+00  1.00864E+00  7.19464E-02
    9067.841     74.831   4.600  1.06324E+00  1.00966E+00  5.35755E-02
    9069.249     76.239   4.640  1.04637E+00  1.01068E+00  3.56969E-02
    9070.670     77.660   4.680  1.03190E+00  1.01169E+00  2.02176E-02
    9072.102     79.092   4.720  1.02148E+00  1.01266E+00  8.81177E-03
    9073.547     80.537   4.760  1.01578E+00  1.01363E+00  2.14696E-03
    9075.004     81.994   4.800  1.01405E+00  1.01456E+00 -5.10461E-04
    9076.473     83.463   4.840  1.01451E+00  1.01545E+00 -9.34711E-04
    9077.955     84.945   4.880  1.01513E+00  1.01630E+00 -1.16572E-03
    9079.448     86.438   4.920  1.01431E+00  1.01710E+00 -2.79216E-03
    9080.954     87.944   4.960  1.01128E+00  1.01787E+00 -6.58397E-03
    9082.472     89.462   5.000  1.00609E+00  1.01859E+00 -1.25000E-02
    9084.002     90.992   5.040  9.99320E-01  1.01926E+00 -1.99418E-02
    9085.544     92.534   5.080  9.91803E-01  1.01989E+00 -2.80867E-02
    9087.098     94.088   5.120  9.84295E-01  1.02044E+00 -3.61498E-02
    9088.665     95.655   5.160  9.77364E-01  1.02092E+00 -4.35604E-02
    9090.244     97.234   5.200  9.71548E-01  1.02135E+00 -4.98052E-02
    9091.835     98.825   5.240  9.67409E-01  1.02173E+00 -5.43238E-02
    9093.438    100.428   5.280  9.65360E-01  1.02204E+00 -5.66784E-02
    9095.054    102.044   5.320  9.65379E-01  1.02229E+00 -5.69104E-02
    9096.681    103.671   5.360  9.66931E-01  1.02244E+00 -5.55120E-02
    9098.321    105.311   5.400  9.69525E-01  1.02256E+00 -5.30395E-02
    9099.973    106.963   5.440  9.72815E-01  1.02259E+00 -4.97732E-02
    9101.637    108.627   5.480  9.76762E-01  1.02256E+00 -4.57965E-02
    9103.314    110.304   5.520  9.81263E-01  1.02248E+00 -4.12135E-02
    9105.002    111.992   5.560  9.85951E-01  1.02230E+00 -3.63474E-02
    9106.703    113.693   5.600  9.90318E-01  1.02209E+00 -3.17734E-02
    9108.416    115.406   5.640  9.93683E-01  1.02179E+00 -2.81063E-02
    9110.141    117.131   5.680  9.95944E-01  1.02146E+00 -2.55165E-02
    9111.879    118.869   5.720  9.97554E-01  1.02106E+00 -2.35075E-02
    9113.628    120.618   5.760  9.99364E-01  1.02059E+00 -2.12291E-02
    9115.390    122.380   5.800  1.00200E+00  1.02010E+00 -1.81001E-02
    9117.164    124.154   5.840  1.00533E+00  1.01955E+00 -1.42184E-02
    9118.950    125.940   5.880  1.00867E+00  1.01896E+00 -1.02904E-02
    9120.748    127.738   5.920  1.01124E+00  1.01833E+00 -7.08576E-03
    9122.559    129.549   5.960  1.01283E+00  1.01764E+00 -4.80691E-03
    9124.381    131.371   6.000  1.01402E+00  1.01690E+00 -2.87681E-03
