# # comment:                                                     FEFF 9.9.1  
# # Source:
# # Structure
# # Reduced
# # space
# # abc:
# # angles:114.407009
# # sites:
# # POT  SCF 100  7.0000   0, screened core-hole, AFOLP (folp(0)= 1.150)
# # Abs   Z=29 Rmt= 1.235 Rnm= 1.305 K  shell
# # Pot 1 Z=56 Rmt= 1.949 Rnm= 2.004
# # Pot 2 Z=62 Rmt= 1.678 Rnm= 1.750
# # Pot 3 Z=29 Rmt= 1.228 Rnm= 1.304
# # Pot 4 Z= 8 Rmt= 1.055 Rnm= 1.109
# # Gam_ch=1.729E+00 H-L exch Vi= 0.000E+00 Vr= 0.000E+00
# # Mu=-8.142E+00eV kf=1.995E+00 Vint=-1.735E+01eV Rs_int= 1.818
# FMS rfms= 9.0000
# # PATH  Rmax=-1.000,  Keep_limit= 0.00, Heap_limit 0.00  Pwcrit= 2.50%
#  S02=0.950  Temp=   0.00  Debye_temp=   0.00  Global_sig2= 0.00000
#  Energy zero shift, vr, vi    0.00000E+00   0.00000E+00
#  Curved wave amplitude ratio filter   4.000%
#     file         sig2 tot  cw amp ratio   deg  nlegs   reff  inp sig2
#     0/   0 paths used
#  xsedge+ 50, used to normalize mu           2.4366E-04
#  -----------------------------------------------------------------------
#  omega    e    k    mu    mu0     chi     @#
    8985.083    -11.952  -1.000  4.17237E-02  5.87328E-02 -1.70091E-02
    8985.382    -11.653  -0.960  4.40032E-02  6.31286E-02 -1.91255E-02
    8985.668    -11.367  -0.920  4.64716E-02  6.80233E-02 -2.15517E-02
    8985.942    -11.092  -0.880  4.91531E-02  7.34909E-02 -2.43378E-02
    8986.205    -10.830  -0.840  5.20756E-02  7.96178E-02 -2.75422E-02
    8986.454    -10.580  -0.800  5.52716E-02  8.65042E-02 -3.12327E-02
    8986.692    -10.343  -0.760  5.87787E-02  9.42653E-02 -3.54867E-02
    8986.918    -10.117  -0.720  6.26393E-02  1.03031E-01 -4.03918E-02
    8987.131     -9.904  -0.680  6.69004E-02  1.12945E-01 -4.60447E-02
    8987.332     -9.703  -0.640  7.16115E-02  1.24159E-01 -5.25471E-02
    8987.521     -9.514  -0.600  7.68208E-02  1.36821E-01 -5.99999E-02
    8987.698     -9.337  -0.560  8.25684E-02  1.51059E-01 -6.84905E-02
    8987.863     -9.172  -0.520  8.88748E-02  1.66949E-01 -7.80745E-02
    8988.015     -9.020  -0.480  9.57265E-02  1.84477E-01 -8.87502E-02
    8988.155     -8.880  -0.440  1.03058E-01  2.03487E-01 -1.00429E-01
    8988.283     -8.752  -0.400  1.10737E-01  2.23646E-01 -1.12909E-01
    8988.399     -8.636  -0.360  1.18564E-01  2.44432E-01 -1.25868E-01
    8988.503     -8.532  -0.320  1.26284E-01  2.65163E-01 -1.38878E-01
    8988.594     -8.441  -0.280  1.33624E-01  2.85084E-01 -1.51460E-01
    8988.673     -8.361  -0.240  1.40329E-01  3.03469E-01 -1.63140E-01
    8988.740     -8.294  -0.200  1.46197E-01  3.19712E-01 -1.73515E-01
    8988.795     -8.240  -0.160  1.51091E-01  3.33371E-01 -1.82280E-01
    8988.838     -8.197  -0.120  1.54932E-01  3.44164E-01 -1.89233E-01
    8988.868     -8.166  -0.080  1.57678E-01  3.51937E-01 -1.94258E-01
    8988.893     -8.142   0.000  1.59856E-01  3.58178E-01 -1.98322E-01
    8988.948     -8.087   0.120  1.64817E-01  3.72239E-01 -2.07422E-01
    8988.990     -8.044   0.160  1.68652E-01  3.83171E-01 -2.14519E-01
    8989.045     -7.990   0.200  1.73518E-01  3.97117E-01 -2.23599E-01
    8989.112     -7.923   0.240  1.79324E-01  4.13879E-01 -2.34555E-01
    8989.192     -7.843   0.280  1.85921E-01  4.33089E-01 -2.47168E-01
    8989.283     -7.752   0.320  1.93104E-01  4.54243E-01 -2.61139E-01
    8989.387     -7.648   0.360  2.00674E-01  4.76715E-01 -2.76041E-01
    8989.502     -7.532   0.400  2.08391E-01  4.99819E-01 -2.91428E-01
    8989.630     -7.404   0.440  2.16079E-01  5.22948E-01 -3.06869E-01
    8989.771     -7.264   0.480  2.23643E-01  5.45611E-01 -3.21968E-01
    8989.923     -7.112   0.520  2.31151E-01  5.67487E-01 -3.36336E-01
    8990.088     -6.947   0.560  2.38848E-01  5.88437E-01 -3.49590E-01
    8990.264     -6.770   0.600  2.47128E-01  6.08424E-01 -3.61296E-01
    8990.453     -6.581   0.640  2.56464E-01  6.27470E-01 -3.71007E-01
    8990.655     -6.380   0.680  2.67468E-01  6.45704E-01 -3.78236E-01
    8990.868     -6.167   0.720  2.80912E-01  6.63207E-01 -3.82295E-01
    8991.093     -5.941   0.760  2.98014E-01  6.80060E-01 -3.82046E-01
    8991.331     -5.704   0.800  3.20379E-01  6.96395E-01 -3.76016E-01
    8991.581     -5.454   0.840  3.49248E-01  7.12265E-01 -3.63017E-01
    8991.843     -5.192   0.880  3.84365E-01  7.27713E-01 -3.43347E-01
    8992.118     -4.917   0.920  4.22855E-01  7.42802E-01 -3.19947E-01
    8992.404     -4.631   0.960  4.58378E-01  7.57544E-01 -2.99167E-01
    8992.703     -4.332   1.000  4.82781E-01  7.71960E-01 -2.89179E-01
    8993.014     -4.021   1.040  4.91666E-01  7.86078E-01 -2.94412E-01
    8993.337     -3.698   1.080  4.89785E-01  7.99860E-01 -3.10075E-01
    8993.672     -3.363   1.120  4.87816E-01  8.13321E-01 -3.25505E-01
    8994.020     -3.015   1.160  4.93738E-01  8.26451E-01 -3.32713E-01
    8994.379     -2.656   1.200  5.10493E-01  8.39213E-01 -3.28719E-01
    8994.751     -2.284   1.240  5.38839E-01  8.51591E-01 -3.12752E-01
    8995.135     -1.900   1.280  5.78422E-01  8.63607E-01 -2.85185E-01
    8995.531     -1.503   1.320  6.27738E-01  8.75196E-01 -2.47458E-01
    8995.940     -1.095   1.360  6.86848E-01  8.86356E-01 -1.99508E-01
    8996.360     -0.674   1.400  7.58949E-01  8.97067E-01 -1.38117E-01
    8996.793     -0.242   1.440  8.49661E-01  9.07324E-01 -5.76633E-02
    8997.238      0.203   1.480  9.60459E-01  9.17085E-01  4.33742E-02
    8997.695      0.661   1.520  1.08593E+00  9.26388E-01  1.59541E-01
    8998.165      1.130   1.560  1.21382E+00  9.35171E-01  2.78649E-01
    8998.646      1.612   1.600  1.30980E+00  9.43476E-01  3.66320E-01
    8999.140      2.105   1.640  1.35437E+00  9.51263E-01  4.03111E-01
    8999.646      2.611   1.680  1.40995E+00  9.58554E-01  4.51391E-01
    9000.164      3.129   1.720  1.54386E+00  9.65332E-01  5.78525E-01
    9000.695      3.660   1.760  1.70824E+00  9.71620E-01  7.36622E-01
    9001.237      4.202   1.800  1.74760E+00  9.77423E-01  7.70181E-01
    9001.792      4.757   1.840  1.62609E+00  9.82729E-01  6.43363E-01
    9002.359      5.324   1.880  1.45913E+00  9.87584E-01  4.71546E-01
    9002.938      5.903   1.920  1.32559E+00  9.91976E-01  3.33610E-01
    9003.529      6.494   1.960  1.23006E+00  9.95912E-01  2.34145E-01
    9004.133      7.098   2.000  1.16040E+00  9.99443E-01  1.60954E-01
    9004.748      7.714   2.040  1.11908E+00  1.00256E+00  1.16521E-01
    9005.376      8.342   2.080  1.11068E+00  1.00529E+00  1.05392E-01
    9006.016      8.982   2.120  1.12015E+00  1.00764E+00  1.12514E-01
    9006.669      9.634   2.160  1.11444E+00  1.00965E+00  1.04788E-01
    9007.333     10.298   2.200  1.07185E+00  1.01133E+00  6.05199E-02
    9008.010     10.975   2.240  1.01289E+00  1.01270E+00  1.89917E-04
    9008.699     11.664   2.280  9.69921E-01  1.01378E+00 -4.38574E-02
    9009.400     12.365   2.320  9.55484E-01  1.01460E+00 -5.91163E-02
    9010.113     13.078   2.360  9.62694E-01  1.01517E+00 -5.24757E-02
    9010.838     13.804   2.400  9.81386E-01  1.01550E+00 -3.41149E-02
    9011.576     14.541   2.440  1.01273E+00  1.01564E+00 -2.91140E-03
    9012.326     15.291   2.480  1.04361E+00  1.01558E+00  2.80259E-02
    9013.088     16.053   2.520  1.06650E+00  1.01536E+00  5.11418E-02
    9013.862     16.827   2.560  1.07606E+00  1.01499E+00  6.10689E-02
    9014.648     17.613   2.600  1.07181E+00  1.01449E+00  5.73129E-02
    9015.447     18.412   2.640  1.05718E+00  1.01388E+00  4.33085E-02
    9016.258     19.223   2.680  1.03694E+00  1.01314E+00  2.37906E-02
    9017.081     20.046   2.720  1.01533E+00  1.01235E+00  2.98582E-03
    9017.916     20.881   2.760  9.94855E-01  1.01147E+00 -1.66186E-02
    9018.763     21.728   2.800  9.75914E-01  1.01055E+00 -3.46351E-02
    9019.623     22.588   2.840  9.57704E-01  1.00958E+00 -5.18748E-02
    9020.494     23.460   2.880  9.38904E-01  1.00857E+00 -6.96663E-02
    9021.378     24.343   2.920  9.18645E-01  1.00753E+00 -8.88845E-02
    9022.274     25.240   2.960  8.97618E-01  1.00650E+00 -1.08884E-01
    9023.183     26.148   3.000  8.77712E-01  1.00545E+00 -1.27741E-01
    9024.103     27.068   3.040  8.61158E-01  1.00443E+00 -1.43269E-01
    9025.036     28.001   3.080  8.49512E-01  1.00341E+00 -1.53896E-01
    9025.981     28.946   3.120  8.43717E-01  1.00242E+00 -1.58705E-01
    9026.938     29.903   3.160  8.43275E-01  1.00147E+00 -1.58198E-01
    9027.907     30.872   3.200  8.47188E-01  1.00056E+00 -1.53374E-01
    9028.889     31.854   3.240  8.54298E-01  9.99692E-01 -1.45395E-01
    9029.882     32.847   3.280  8.63423E-01  9.98866E-01 -1.35443E-01
    9030.888     33.853   3.320  8.73875E-01  9.98106E-01 -1.24231E-01
    9031.906     34.871   3.360  8.85677E-01  9.97394E-01 -1.11717E-01
    9032.936     35.901   3.400  8.99593E-01  9.96730E-01 -9.71369E-02
    9033.979     36.944   3.440  9.16175E-01  9.96139E-01 -7.99634E-02
    9035.033     37.998   3.480  9.35569E-01  9.95620E-01 -6.00520E-02
    9036.100     39.065   3.520  9.57125E-01  9.95156E-01 -3.80309E-02
    9037.179     40.144   3.560  9.79619E-01  9.94787E-01 -1.51681E-02
    9038.270     41.235   3.600  1.00162E+00  9.94452E-01  7.16635E-03
    9039.374     42.339   3.640  1.02201E+00  9.94212E-01  2.77988E-02
    9040.489     43.454   3.680  1.03990E+00  9.94029E-01  4.58722E-02
    9041.617     44.582   3.720  1.05461E+00  9.93941E-01  6.06716E-02
    9042.757     45.722   3.760  1.06546E+00  9.93886E-01  7.15725E-02
    9043.909     46.874   3.800  1.07191E+00  9.93925E-01  7.79874E-02
    9045.073     48.039   3.840  1.07344E+00  9.94019E-01  7.94247E-02
    9046.250     49.215   3.880  1.07032E+00  9.94186E-01  7.61295E-02
    9047.439     50.404   3.920  1.06350E+00  9.94403E-01  6.91014E-02
    9048.639     51.605   3.960  1.05465E+00  9.94693E-01  5.99523E-02
    9049.853     52.818   4.000  1.04551E+00  9.95055E-01  5.04542E-02
    9051.078     54.043   4.040  1.03743E+00  9.95463E-01  4.19631E-02
    9052.315     55.281   4.080  1.03099E+00  9.95917E-01  3.50726E-02
    9053.565     56.530   4.120  1.02606E+00  9.96414E-01  2.96475E-02
    9054.827     57.792   4.160  1.02232E+00  9.96976E-01  2.53461E-02
    9056.101     59.066   4.200  1.01953E+00  9.97557E-01  2.19742E-02
    9057.387     60.352   4.240  1.01801E+00  9.98199E-01  1.98131E-02
    9058.686     61.651   4.280  1.01836E+00  9.98860E-01  1.95048E-02
    9059.996     62.961   4.320  1.02108E+00  9.99575E-01  2.15006E-02
    9061.319     64.284   4.360  1.02581E+00  1.00028E+00  2.55242E-02
    9062.654     65.619   4.400  1.03172E+00  1.00104E+00  3.06766E-02
    9064.001     66.967   4.440  1.03789E+00  1.00181E+00  3.60801E-02
    9065.361     68.326   4.480  1.04388E+00  1.00259E+00  4.12966E-02
    9066.732     69.698   4.520  1.04971E+00  1.00339E+00  4.63237E-02
    9068.116     71.081   4.560  1.05530E+00  1.00420E+00  5.11065E-02
    9069.512     72.477   4.600  1.06001E+00  1.00500E+00  5.50111E-02
    9070.920     73.885   4.640  1.06264E+00  1.00580E+00  5.68349E-02
    9072.341     75.306   4.680  1.06203E+00  1.00658E+00  5.54515E-02
    9073.773     76.738   4.720  1.05785E+00  1.00737E+00  5.04817E-02
    9075.218     78.183   4.760  1.05052E+00  1.00813E+00  4.23835E-02
    9076.675     79.640   4.800  1.04090E+00  1.00887E+00  3.20324E-02
    9078.144     81.109   4.840  1.02993E+00  1.00961E+00  2.03181E-02
    9079.625     82.590   4.880  1.01841E+00  1.01030E+00  8.11295E-03
    9081.119     84.084   4.920  1.00726E+00  1.01097E+00 -3.70654E-03
    9082.625     85.590   4.960  9.97193E-01  1.01160E+00 -1.44100E-02
    9084.142     87.108   5.000  9.88676E-01  1.01220E+00 -2.35208E-02
    9085.673     88.638   5.040  9.81861E-01  1.01275E+00 -3.08879E-02
    9087.215     90.180   5.080  9.76624E-01  1.01326E+00 -3.66364E-02
    9088.769     91.734   5.120  9.72694E-01  1.01373E+00 -4.10351E-02
    9090.336     93.301   5.160  9.69713E-01  1.01415E+00 -4.44406E-02
    9091.915     94.880   5.200  9.67303E-01  1.01454E+00 -4.72323E-02
    9093.506     96.471   5.240  9.65097E-01  1.01487E+00 -4.97745E-02
    9095.109     98.074   5.280  9.62958E-01  1.01514E+00 -5.21800E-02
    9096.725     99.690   5.320  9.61315E-01  1.01536E+00 -5.40402E-02
    9098.352    101.317   5.360  9.60897E-01  1.01553E+00 -5.46300E-02
    9099.992    102.957   5.400  9.62457E-01  1.01563E+00 -5.31704E-02
    9101.644    104.609   5.440  9.66397E-01  1.01568E+00 -4.92829E-02
    9103.308    106.273   5.480  9.72525E-01  1.01569E+00 -4.31605E-02
    9104.985    107.950   5.520  9.80194E-01  1.01562E+00 -3.54276E-02
    9106.673    109.638   5.560  9.88452E-01  1.01551E+00 -2.70586E-02
    9108.374    111.339   5.600  9.96049E-01  1.01535E+00 -1.93037E-02
    9110.087    113.052   5.640  1.00160E+00  1.01513E+00 -1.35254E-02
    9111.812    114.777   5.680  1.00433E+00  1.01488E+00 -1.05477E-02
    9113.549    116.515   5.720  1.00406E+00  1.01457E+00 -1.05019E-02
    9115.299    118.264   5.760  1.00147E+00  1.01421E+00 -1.27379E-02
    9117.061    120.026   5.800  9.97779E-01  1.01378E+00 -1.60038E-02
    9118.835    121.800   5.840  9.94651E-01  1.01334E+00 -1.86897E-02
    9120.621    123.586   5.880  9.93559E-01  1.01284E+00 -1.92800E-02
    9122.419    125.384   5.920  9.95386E-01  1.01233E+00 -1.69426E-02
    9124.230    127.195   5.960  9.99966E-01  1.01179E+00 -1.18192E-02
    9126.052    129.017   6.000  1.00651E+00  1.01118E+00 -4.66546E-03
