# # comment:                                                     FEFF 9.9.1  
# # Source:
# # Structure
# # Reduced
# # space
# # abc:
# # angles:145.061559
# # sites:
# # POT  SCF 100  7.0000   0, screened core-hole, AFOLP (folp(0)= 1.150)
# # Abs   Z=29 Rmt= 1.231 Rnm= 1.327 K  shell
# # Pot 1 Z=57 Rmt= 1.742 Rnm= 1.831
# # Pot 2 Z=29 Rmt= 1.231 Rnm= 1.327
# # Pot 3 Z= 8 Rmt= 1.062 Rnm= 1.121
# # Gam_ch=1.729E+00 H-L exch Vi= 0.000E+00 Vr= 0.000E+00
# # Mu=-7.766E+00eV kf=2.018E+00 Vint=-1.726E+01eV Rs_int= 1.797
# FMS rfms= 9.0000
# # PATH  Rmax=-1.000,  Keep_limit= 0.00, Heap_limit 0.00  Pwcrit= 2.50%
#  S02=0.950  Temp=   0.00  Debye_temp=   0.00  Global_sig2= 0.00000
#  Energy zero shift, vr, vi    0.00000E+00   0.00000E+00
#  Curved wave amplitude ratio filter   4.000%
#     file         sig2 tot  cw amp ratio   deg  nlegs   reff  inp sig2
#     0/   0 paths used
#  xsedge+ 50, used to normalize mu           2.4558E-04
#  -----------------------------------------------------------------------
#  omega    e    k    mu    mu0     chi     @#
    8984.533    -11.576  -1.000  4.22939E-02  5.75939E-02 -1.53000E-02
    8984.832    -11.277  -0.960  4.46395E-02  6.18802E-02 -1.72407E-02
    8985.118    -10.991  -0.920  4.71784E-02  6.66515E-02 -1.94731E-02
    8985.393    -10.717  -0.880  4.99341E-02  7.19797E-02 -2.20456E-02
    8985.655    -10.454  -0.840  5.29340E-02  7.79488E-02 -2.50148E-02
    8985.905    -10.205  -0.800  5.62098E-02  8.46563E-02 -2.84464E-02
    8986.143     -9.967  -0.760  5.97976E-02  9.22138E-02 -3.24162E-02
    8986.368     -9.741  -0.720  6.37380E-02  1.00748E-01 -3.70098E-02
    8986.581     -9.528  -0.680  6.80756E-02  1.10398E-01 -4.23220E-02
    8986.783     -9.327  -0.640  7.28572E-02  1.21310E-01 -4.84532E-02
    8986.972     -9.138  -0.600  7.81279E-02  1.33631E-01 -5.55032E-02
    8987.148     -8.961  -0.560  8.39242E-02  1.47483E-01 -6.35590E-02
    8987.313     -8.796  -0.520  9.02639E-02  1.62941E-01 -7.26772E-02
    8987.465     -8.644  -0.480  9.71314E-02  1.79989E-01 -8.28580E-02
    8987.606     -8.504  -0.440  1.04461E-01  1.98478E-01 -9.40168E-02
    8987.734     -8.376  -0.400  1.12126E-01  2.18084E-01 -1.05958E-01
    8987.849     -8.260  -0.360  1.19931E-01  2.38297E-01 -1.18367E-01
    8987.953     -8.156  -0.320  1.27630E-01  2.58456E-01 -1.30826E-01
    8988.044     -8.065  -0.280  1.34960E-01  2.77827E-01 -1.42866E-01
    8988.124     -7.986  -0.240  1.41673E-01  2.95703E-01 -1.54030E-01
    8988.191     -7.919  -0.200  1.47568E-01  3.11496E-01 -1.63928E-01
    8988.246     -7.864  -0.160  1.52505E-01  3.24776E-01 -1.72270E-01
    8988.288     -7.821  -0.120  1.56397E-01  3.35269E-01 -1.78872E-01
    8988.319     -7.791  -0.080  1.59193E-01  3.42825E-01 -1.83632E-01
    8988.343     -7.766   0.000  1.61421E-01  3.48894E-01 -1.87472E-01
    8988.398     -7.711   0.120  1.66485E-01  3.62578E-01 -1.96093E-01
    8988.441     -7.669   0.160  1.70424E-01  3.73187E-01 -2.02764E-01
    8988.496     -7.614   0.200  1.75477E-01  3.86738E-01 -2.11260E-01
    8988.563     -7.547   0.240  1.81611E-01  4.03036E-01 -2.21425E-01
    8988.642     -7.467   0.280  1.88690E-01  4.21702E-01 -2.33012E-01
    8988.733     -7.376   0.320  1.96667E-01  4.42288E-01 -2.45621E-01
    8988.837     -7.272   0.360  2.05339E-01  4.64121E-01 -2.58781E-01
    8988.953     -7.157   0.400  2.14622E-01  4.86574E-01 -2.71952E-01
    8989.081     -7.029   0.440  2.24393E-01  5.09057E-01 -2.84665E-01
    8989.221     -6.888   0.480  2.34476E-01  5.31073E-01 -2.96596E-01
    8989.373     -6.736   0.520  2.44778E-01  5.52349E-01 -3.07571E-01
    8989.538     -6.571   0.560  2.55243E-01  5.72732E-01 -3.17489E-01
    8989.715     -6.395   0.600  2.65923E-01  5.92165E-01 -3.26242E-01
    8989.904     -6.206   0.640  2.76936E-01  6.10713E-01 -3.33778E-01
    8990.105     -6.004   0.680  2.88290E-01  6.28482E-01 -3.40191E-01
    8990.318     -5.791   0.720  3.00010E-01  6.45551E-01 -3.45541E-01
    8990.544     -5.565   0.760  3.12506E-01  6.62041E-01 -3.49535E-01
    8990.782     -5.328   0.800  3.26390E-01  6.78021E-01 -3.51631E-01
    8991.031     -5.078   0.840  3.42444E-01  6.93567E-01 -3.51123E-01
    8991.294     -4.816   0.880  3.61973E-01  7.08759E-01 -3.46785E-01
    8991.568     -4.541   0.920  3.86773E-01  7.23640E-01 -3.36867E-01
    8991.854     -4.255   0.960  4.18149E-01  7.38224E-01 -3.20075E-01
    8992.153     -3.956   1.000  4.56371E-01  7.52529E-01 -2.96158E-01
    8992.464     -3.645   1.040  5.01604E-01  7.66567E-01 -2.64964E-01
    8992.787     -3.322   1.080  5.54586E-01  7.80341E-01 -2.25755E-01
    8993.122     -2.987   1.120  6.13656E-01  7.93844E-01 -1.80188E-01
    8993.470     -2.639   1.160  6.71254E-01  8.07067E-01 -1.35813E-01
    8993.830     -2.280   1.200  7.19881E-01  8.19996E-01 -1.00115E-01
    8994.201     -1.908   1.240  7.64431E-01  8.32591E-01 -6.81600E-02
    8994.585     -1.524   1.280  8.20053E-01  8.44875E-01 -2.48216E-02
    8994.982     -1.128   1.320  8.90789E-01  8.56804E-01  3.39850E-02
    8995.390     -0.719   1.360  9.52474E-01  8.68336E-01  8.41385E-02
    8995.811     -0.299   1.400  9.75935E-01  8.79506E-01  9.64286E-02
    8996.244      0.134   1.440  9.71211E-01  8.90251E-01  8.09600E-02
    8996.689      0.579   1.480  9.68322E-01  9.00567E-01  6.77554E-02
    8997.146      1.036   1.520  9.85060E-01  9.10429E-01  7.46310E-02
    8997.615      1.506   1.560  1.03079E+00  9.19855E-01  1.10939E-01
    8998.097      1.987   1.600  1.10278E+00  9.28802E-01  1.73979E-01
    8998.590      2.481   1.640  1.17944E+00  9.37291E-01  2.42152E-01
    8999.096      2.987   1.680  1.22802E+00  9.45299E-01  2.82722E-01
    8999.615      3.505   1.720  1.22701E+00  9.52829E-01  2.74178E-01
    9000.145      4.036   1.760  1.18675E+00  9.59880E-01  2.26870E-01
    9000.688      4.578   1.800  1.14087E+00  9.66456E-01  1.74412E-01
    9001.242      5.133   1.840  1.11437E+00  9.72560E-01  1.41807E-01
    9001.809      5.700   1.880  1.11288E+00  9.78197E-01  1.34685E-01
    9002.388      6.279   1.920  1.13208E+00  9.83372E-01  1.48707E-01
    9002.980      6.870   1.960  1.16528E+00  9.88091E-01  1.77193E-01
    9003.583      7.474   2.000  1.20638E+00  9.92402E-01  2.13979E-01
    9004.199      8.089   2.040  1.24255E+00  9.96271E-01  2.46283E-01
    9004.827      8.717   2.080  1.26175E+00  9.99749E-01  2.62003E-01
    9005.467      9.357   2.120  1.26014E+00  1.00282E+00  2.57313E-01
    9006.119     10.010   2.160  1.23701E+00  1.00554E+00  2.31468E-01
    9006.783     10.674   2.200  1.19935E+00  1.00790E+00  1.91453E-01
    9007.460     11.351   2.240  1.16097E+00  1.00991E+00  1.51053E-01
    9008.149     12.040   2.280  1.13480E+00  1.01163E+00  1.23175E-01
    9008.850     12.741   2.320  1.12924E+00  1.01302E+00  1.16216E-01
    9009.563     13.454   2.360  1.14065E+00  1.01415E+00  1.26497E-01
    9010.289     14.179   2.400  1.15261E+00  1.01501E+00  1.37602E-01
    9011.026     14.917   2.440  1.14601E+00  1.01564E+00  1.30378E-01
    9011.776     15.667   2.480  1.11784E+00  1.01603E+00  1.01807E-01
    9012.538     16.429   2.520  1.07718E+00  1.01624E+00  6.09398E-02
    9013.312     17.203   2.560  1.03135E+00  1.01624E+00  1.51090E-02
    9014.099     17.989   2.600  9.86607E-01  1.01608E+00 -2.94750E-02
    9014.897     18.788   2.640  9.47293E-01  1.01576E+00 -6.84680E-02
    9015.708     19.599   2.680  9.15471E-01  1.01531E+00 -9.98379E-02
    9016.531     20.422   2.720  8.92275E-01  1.01475E+00 -1.22479E-01
    9017.366     21.257   2.760  8.77048E-01  1.01406E+00 -1.37014E-01
    9018.213     22.104   2.800  8.68538E-01  1.01330E+00 -1.44764E-01
    9019.073     22.964   2.840  8.65685E-01  1.01246E+00 -1.46776E-01
    9019.945     23.835   2.880  8.66844E-01  1.01155E+00 -1.44701E-01
    9020.829     24.719   2.920  8.71030E-01  1.01058E+00 -1.39551E-01
    9021.725     25.615   2.960  8.77858E-01  1.00958E+00 -1.31717E-01
    9022.633     26.524   3.000  8.86873E-01  1.00855E+00 -1.21679E-01
    9023.554     27.444   3.040  8.97422E-01  1.00750E+00 -1.10074E-01
    9024.486     28.377   3.080  9.08561E-01  1.00641E+00 -9.78504E-02
    9025.431     29.322   3.120  9.19303E-01  1.00535E+00 -8.60432E-02
    9026.388     30.279   3.160  9.28914E-01  1.00428E+00 -7.53692E-02
    9027.357     31.248   3.200  9.37315E-01  1.00325E+00 -6.59309E-02
    9028.339     32.230   3.240  9.44509E-01  1.00220E+00 -5.76873E-02
    9029.332     33.223   3.280  9.50547E-01  1.00120E+00 -5.06526E-02
    9030.338     34.229   3.320  9.55521E-01  1.00024E+00 -4.47191E-02
    9031.356     35.247   3.360  9.59677E-01  9.99295E-01 -3.96179E-02
    9032.387     36.277   3.400  9.63384E-01  9.98391E-01 -3.50070E-02
    9033.429     37.320   3.440  9.67010E-01  9.97550E-01 -3.05402E-02
    9034.484     38.374   3.480  9.70852E-01  9.96754E-01 -2.59012E-02
    9035.550     39.441   3.520  9.75038E-01  9.96003E-01 -2.09649E-02
    9036.629     40.520   3.560  9.79475E-01  9.95320E-01 -1.58456E-02
    9037.721     41.611   3.600  9.83829E-01  9.94685E-01 -1.08565E-02
    9038.824     42.715   3.640  9.87693E-01  9.94119E-01 -6.42582E-03
    9039.939     43.830   3.680  9.90581E-01  9.93601E-01 -3.02048E-03
    9041.067     44.958   3.720  9.92257E-01  9.93133E-01 -8.76133E-04
    9042.207     46.098   3.760  9.93037E-01  9.92735E-01  3.01170E-04
    9043.359     47.250   3.800  9.93622E-01  9.92409E-01  1.21297E-03
    9044.524     48.414   3.840  9.94935E-01  9.92134E-01  2.80110E-03
    9045.700     49.591   3.880  9.97884E-01  9.91929E-01  5.95584E-03
    9046.889     50.780   3.920  1.00284E+00  9.91774E-01  1.10702E-02
    9048.090     51.981   3.960  1.00954E+00  9.91689E-01  1.78519E-02
    9049.303     53.194   4.000  1.01726E+00  9.91652E-01  2.56074E-02
    9050.528     54.419   4.040  1.02538E+00  9.91684E-01  3.36976E-02
    9051.766     55.656   4.080  1.03347E+00  9.91763E-01  4.17026E-02
    9053.015     56.906   4.120  1.04127E+00  9.91888E-01  4.93848E-02
    9054.277     58.168   4.160  1.04878E+00  9.92076E-01  5.66987E-02
    9055.551     59.442   4.200  1.05572E+00  9.92286E-01  6.34352E-02
    9056.838     60.728   4.240  1.06161E+00  9.92560E-01  6.90517E-02
    9058.136     62.027   4.280  1.06554E+00  9.92877E-01  7.26644E-02
    9059.447     63.337   4.320  1.06655E+00  9.93232E-01  7.33177E-02
    9060.769     64.660   4.360  1.06410E+00  9.93624E-01  7.04750E-02
    9062.104     65.995   4.400  1.05844E+00  9.94032E-01  6.44037E-02
    9063.452     67.342   4.440  1.05059E+00  9.94496E-01  5.60932E-02
    9064.811     68.702   4.480  1.04165E+00  9.94972E-01  4.66770E-02
    9066.183     70.073   4.520  1.03253E+00  9.95458E-01  3.70717E-02
    9067.566     71.457   4.560  1.02373E+00  9.95995E-01  2.77386E-02
    9068.962     72.853   4.600  1.01525E+00  9.96518E-01  1.87280E-02
    9070.371     74.261   4.640  1.00698E+00  9.97067E-01  9.91106E-03
    9071.791     75.682   4.680  9.98873E-01  9.97618E-01  1.25527E-03
    9073.224     77.114   4.720  9.91177E-01  9.98171E-01 -6.99328E-03
    9074.668     78.559   4.760  9.84470E-01  9.98723E-01 -1.42532E-02
    9076.125     80.016   4.800  9.79517E-01  9.99273E-01 -1.97559E-02
    9077.594     81.485   4.840  9.76933E-01  9.99821E-01 -2.28881E-02
    9079.076     82.966   4.880  9.76843E-01  1.00036E+00 -2.35215E-02
    9080.569     84.460   4.920  9.78776E-01  1.00088E+00 -2.21022E-02
    9082.075     85.966   4.960  9.81927E-01  1.00139E+00 -1.94587E-02
    9083.593     87.483   5.000  9.85325E-01  1.00188E+00 -1.65589E-02
    9085.123     89.014   5.040  9.87945E-01  1.00235E+00 -1.44069E-02
    9086.665     90.556   5.080  9.88948E-01  1.00281E+00 -1.38601E-02
    9088.220     92.110   5.120  9.87967E-01  1.00323E+00 -1.52608E-02
    9089.786     93.677   5.160  9.85403E-01  1.00361E+00 -1.82076E-02
    9091.365     95.256   5.200  9.82264E-01  1.00396E+00 -2.16923E-02
    9092.956     96.847   5.240  9.79740E-01  1.00429E+00 -2.45468E-02
    9094.559     98.450   5.280  9.78772E-01  1.00458E+00 -2.58067E-02
    9096.175    100.066   5.320  9.79827E-01  1.00481E+00 -2.49795E-02
    9097.802    101.693   5.360  9.82815E-01  1.00502E+00 -2.22030E-02
    9099.442    103.333   5.400  9.86853E-01  1.00519E+00 -1.83364E-02
    9101.094    104.985   5.440  9.90553E-01  1.00532E+00 -1.47676E-02
    9102.758    106.649   5.480  9.92553E-01  1.00541E+00 -1.28578E-02
    9104.435    108.326   5.520  9.92206E-01  1.00546E+00 -1.32541E-02
    9106.123    110.014   5.560  9.89874E-01  1.00546E+00 -1.55908E-02
    9107.824    111.715   5.600  9.86675E-01  1.00541E+00 -1.87306E-02
    9109.537    113.428   5.640  9.83996E-01  1.00533E+00 -2.13315E-02
    9111.262    115.153   5.680  9.82879E-01  1.00521E+00 -2.23282E-02
    9113.000    116.890   5.720  9.83824E-01  1.00502E+00 -2.12006E-02
    9114.749    118.640   5.760  9.86711E-01  1.00482E+00 -1.81111E-02
    9116.511    120.402   5.800  9.90665E-01  1.00456E+00 -1.38936E-02
    9118.285    122.176   5.840  9.94577E-01  1.00428E+00 -9.70131E-03
    9120.071    123.962   5.880  9.97553E-01  1.00394E+00 -6.38524E-03
    9121.869    125.760   5.920  9.99546E-01  1.00359E+00 -4.04225E-03
    9123.680    127.571   5.960  1.00112E+00  1.00320E+00 -2.07925E-03
    9125.503    129.393   6.000  1.00322E+00  1.00272E+00  4.96290E-04
