# # comment:                                                     FEFF 9.9.1  
# # Source:
# # Structure
# # Reduced
# # space
# # abc:
# # angles:
# # sites:
# # POT  SCF 100  7.0000   0, screened core-hole, AFOLP (folp(0)= 1.150)
# # Abs   Z=29 Rmt= 1.160 Rnm= 1.290 K  shell
# # Pot 1 Z=12 Rmt= 1.366 Rnm= 1.491
# # Pot 2 Z=29 Rmt= 1.160 Rnm= 1.290
# # Pot 3 Z=83 Rmt= 1.389 Rnm= 1.561
# # Pot 4 Z= 8 Rmt= 1.031 Rnm= 1.122
# # Gam_ch=1.729E+00 H-L exch Vi= 0.000E+00 Vr= 0.000E+00
# # Mu=-7.019E+00eV kf=2.095E+00 Vint=-1.496E+01eV Rs_int= 1.731
# FMS rfms= 9.0000
# # PATH  Rmax=-1.000,  Keep_limit= 0.00, Heap_limit 0.00  Pwcrit= 2.50%
#  S02=0.950  Temp=   0.00  Debye_temp=   0.00  Global_sig2= 0.00000
#  Energy zero shift, vr, vi    0.00000E+00   0.00000E+00
#  Curved wave amplitude ratio filter   4.000%
#     file         sig2 tot  cw amp ratio   deg  nlegs   reff  inp sig2
#     0/   0 paths used
#  xsedge+ 50, used to normalize mu           2.4432E-04
#  -----------------------------------------------------------------------
#  omega    e    k    mu    mu0     chi     @#
    8983.562    -10.829  -1.000  3.40574E-02  5.38233E-02 -1.97659E-02
    8983.860    -10.531  -0.960  3.57437E-02  5.76892E-02 -2.19455E-02
    8984.147    -10.244  -0.920  3.75563E-02  6.19793E-02 -2.44229E-02
    8984.421     -9.970  -0.880  3.95094E-02  6.67554E-02 -2.72460E-02
    8984.683     -9.708  -0.840  4.16189E-02  7.20895E-02 -3.04706E-02
    8984.933     -9.458  -0.800  4.39027E-02  7.80647E-02 -3.41620E-02
    8985.171     -9.220  -0.760  4.63810E-02  8.47763E-02 -3.83953E-02
    8985.397     -8.994  -0.720  4.90758E-02  9.23320E-02 -4.32562E-02
    8985.610     -8.781  -0.680  5.20108E-02  1.00850E-01 -4.88392E-02
    8985.811     -8.580  -0.640  5.52096E-02  1.10455E-01 -5.52455E-02
    8986.000     -8.391  -0.600  5.86945E-02  1.21270E-01 -6.25752E-02
    8986.177     -8.214  -0.560  6.24819E-02  1.33398E-01 -7.09158E-02
    8986.341     -8.049  -0.520  6.65776E-02  1.46901E-01 -8.03230E-02
    8986.494     -7.897  -0.480  7.09691E-02  1.61763E-01 -9.07944E-02
    8986.634     -7.757  -0.440  7.56169E-02  1.77856E-01 -1.02239E-01
    8986.762     -7.629  -0.400  8.04481E-02  1.94900E-01 -1.14452E-01
    8986.878     -7.513  -0.360  8.53547E-02  2.12460E-01 -1.27105E-01
    8986.982     -7.409  -0.320  9.01998E-02  2.29967E-01 -1.39767E-01
    8987.073     -7.318  -0.280  9.48331E-02  2.46792E-01 -1.51959E-01
    8987.152     -7.239  -0.240  9.91094E-02  2.62327E-01 -1.63217E-01
    8987.219     -7.172  -0.200  1.02904E-01  2.76062E-01 -1.73158E-01
    8987.274     -7.117  -0.160  1.06120E-01  2.87622E-01 -1.81503E-01
    8987.317     -7.074  -0.120  1.08685E-01  2.96766E-01 -1.88080E-01
    8987.347     -7.044  -0.080  1.10553E-01  3.03356E-01 -1.92803E-01
    8987.372     -7.019   0.000  1.12082E-01  3.08654E-01 -1.96572E-01
    8987.427     -6.964   0.120  1.15665E-01  3.20596E-01 -2.04931E-01
    8987.469     -6.922   0.160  1.18444E-01  3.29901E-01 -2.11457E-01
    8987.524     -6.867   0.200  1.21987E-01  3.41781E-01 -2.19794E-01
    8987.591     -6.800   0.240  1.26328E-01  3.56087E-01 -2.29759E-01
    8987.670     -6.721   0.280  1.31485E-01  3.72569E-01 -2.41084E-01
    8987.762     -6.629   0.320  1.37409E-01  3.90788E-01 -2.53379E-01
    8987.865     -6.525   0.360  1.44124E-01  4.10270E-01 -2.66147E-01
    8987.981     -6.410   0.400  1.51686E-01  4.30485E-01 -2.78799E-01
    8988.109     -6.282   0.440  1.60136E-01  4.50907E-01 -2.90770E-01
    8988.250     -6.141   0.480  1.69583E-01  4.71160E-01 -3.01577E-01
    8988.402     -5.989   0.520  1.80164E-01  4.91006E-01 -3.10841E-01
    8988.567     -5.824   0.560  1.92004E-01  5.10333E-01 -3.18329E-01
    8988.743     -5.648   0.600  2.05147E-01  5.29090E-01 -3.23943E-01
    8988.932     -5.459   0.640  2.19621E-01  5.47306E-01 -3.27685E-01
    8989.133     -5.257   0.680  2.35554E-01  5.65087E-01 -3.29533E-01
    8989.347     -5.044   0.720  2.53004E-01  5.82490E-01 -3.29487E-01
    8989.572     -4.819   0.760  2.71870E-01  5.99590E-01 -3.27720E-01
    8989.810     -4.581   0.800  2.91644E-01  6.16451E-01 -3.24808E-01
    8990.060     -4.331   0.840  3.11328E-01  6.33127E-01 -3.21800E-01
    8990.322     -4.069   0.880  3.29201E-01  6.49678E-01 -3.20477E-01
    8990.596     -3.794   0.920  3.42690E-01  6.66067E-01 -3.23377E-01
    8990.883     -3.508   0.960  3.49902E-01  6.82373E-01 -3.32471E-01
    8991.182     -3.209   1.000  3.51592E-01  6.98537E-01 -3.46945E-01
    8991.493     -2.898   1.040  3.51119E-01  7.14596E-01 -3.63476E-01
    8991.816     -2.575   1.080  3.51092E-01  7.30498E-01 -3.79407E-01
    8992.151     -2.240   1.120  3.52106E-01  7.46227E-01 -3.94121E-01
    8992.498     -1.893   1.160  3.55377E-01  7.61760E-01 -4.06383E-01
    8992.858     -1.533   1.200  3.64315E-01  7.77072E-01 -4.12758E-01
    8993.230     -1.161   1.240  3.81134E-01  7.92113E-01 -4.10979E-01
    8993.614     -0.777   1.280  4.04668E-01  8.06875E-01 -4.02206E-01
    8994.010     -0.381   1.320  4.31925E-01  8.21284E-01 -3.89359E-01
    8994.419      0.028   1.360  4.61221E-01  8.35329E-01 -3.74107E-01
    8994.839      0.448   1.400  4.93087E-01  8.48977E-01 -3.55890E-01
    8995.272      0.881   1.440  5.29320E-01  8.62197E-01 -3.32877E-01
    8995.717      1.326   1.480  5.71587E-01  8.74935E-01 -3.03348E-01
    8996.174      1.783   1.520  6.17736E-01  8.87203E-01 -2.69468E-01
    8996.644      2.253   1.560  6.63522E-01  8.98951E-01 -2.35429E-01
    8997.125      2.734   1.600  7.08181E-01  9.10170E-01 -2.01989E-01
    8997.619      3.228   1.640  7.53169E-01  9.20854E-01 -1.67686E-01
    8998.125      3.734   1.680  8.01958E-01  9.30958E-01 -1.29000E-01
    8998.643      4.252   1.720  8.61781E-01  9.40498E-01 -7.87168E-02
    8999.174      4.783   1.760  9.32996E-01  9.49474E-01 -1.64777E-02
    8999.716      5.325   1.800  1.00475E+00  9.57843E-01  4.69060E-02
    9000.271      5.880   1.840  1.07245E+00  9.65671E-01  1.06778E-01
    9000.838      6.447   1.880  1.14574E+00  9.72898E-01  1.72838E-01
    9001.417      7.026   1.920  1.23072E+00  9.79567E-01  2.51151E-01
    9002.008      7.617   1.960  1.31241E+00  9.85687E-01  3.26727E-01
    9002.612      8.221   2.000  1.36367E+00  9.91264E-01  3.72406E-01
    9003.227      8.836   2.040  1.37247E+00  9.96307E-01  3.76162E-01
    9003.855      9.464   2.080  1.35569E+00  1.00084E+00  3.54850E-01
    9004.495     10.104   2.120  1.33911E+00  1.00491E+00  3.34200E-01
    9005.148     10.757   2.160  1.33277E+00  1.00848E+00  3.24292E-01
    9005.812     11.421   2.200  1.33048E+00  1.01160E+00  3.18876E-01
    9006.489     12.098   2.240  1.32378E+00  1.01430E+00  3.09477E-01
    9007.178     12.787   2.280  1.31108E+00  1.01658E+00  2.94496E-01
    9007.879     13.488   2.320  1.29004E+00  1.01849E+00  2.71554E-01
    9008.592     14.201   2.360  1.26123E+00  1.02003E+00  2.41196E-01
    9009.317     14.926   2.400  1.23683E+00  1.02123E+00  2.15599E-01
    9010.055     15.664   2.440  1.22583E+00  1.02211E+00  2.03719E-01
    9010.805     16.414   2.480  1.22347E+00  1.02272E+00  2.00753E-01
    9011.567     17.176   2.520  1.21454E+00  1.02305E+00  1.91492E-01
    9012.341     17.950   2.560  1.19361E+00  1.02314E+00  1.70477E-01
    9013.127     18.736   2.600  1.16496E+00  1.02300E+00  1.41961E-01
    9013.926     19.535   2.640  1.13493E+00  1.02267E+00  1.12268E-01
    9014.737     20.346   2.680  1.10649E+00  1.02215E+00  8.43316E-02
    9015.559     21.169   2.720  1.08038E+00  1.02148E+00  5.88997E-02
    9016.395     22.004   2.760  1.05612E+00  1.02065E+00  3.54768E-02
    9017.242     22.851   2.800  1.03292E+00  1.01971E+00  1.32151E-02
    9018.102     23.711   2.840  1.01046E+00  1.01866E+00 -8.19829E-03
    9018.973     24.582   2.880  9.88712E-01  1.01749E+00 -2.87819E-02
    9019.857     25.466   2.920  9.68082E-01  1.01627E+00 -4.81891E-02
    9020.753     26.362   2.960  9.49317E-01  1.01500E+00 -6.56813E-02
    9021.662     27.271   3.000  9.32985E-01  1.01366E+00 -8.06740E-02
    9022.582     28.191   3.040  9.19398E-01  1.01230E+00 -9.29051E-02
    9023.515     29.124   3.080  9.08668E-01  1.01092E+00 -1.02248E-01
    9024.460     30.069   3.120  9.00550E-01  1.00954E+00 -1.08992E-01
    9025.417     31.026   3.160  8.94471E-01  1.00815E+00 -1.13675E-01
    9026.386     31.995   3.200  8.90042E-01  1.00675E+00 -1.16711E-01
    9027.367     32.976   3.240  8.87057E-01  1.00539E+00 -1.18332E-01
    9028.361     33.970   3.280  8.85312E-01  1.00406E+00 -1.18747E-01
    9029.367     34.976   3.320  8.84743E-01  1.00274E+00 -1.18002E-01
    9030.385     35.994   3.360  8.85475E-01  1.00149E+00 -1.16017E-01
    9031.415     37.024   3.400  8.87269E-01  1.00028E+00 -1.13014E-01
    9032.458     38.067   3.440  8.89842E-01  9.99119E-01 -1.09277E-01
    9033.512     39.121   3.480  8.92972E-01  9.98025E-01 -1.05053E-01
    9034.579     40.188   3.520  8.96418E-01  9.96982E-01 -1.00564E-01
    9035.658     41.267   3.560  8.99848E-01  9.96011E-01 -9.61627E-02
    9036.749     42.358   3.600  9.03123E-01  9.95095E-01 -9.19723E-02
    9037.852     43.462   3.640  9.06326E-01  9.94277E-01 -8.79511E-02
    9038.968     44.577   3.680  9.09572E-01  9.93515E-01 -8.39426E-02
    9040.096     45.705   3.720  9.13083E-01  9.92833E-01 -7.97498E-02
    9041.236     46.845   3.760  9.17177E-01  9.92252E-01 -7.50750E-02
    9042.388     47.997   3.800  9.22034E-01  9.91731E-01 -6.96968E-02
    9043.552     49.161   3.840  9.27750E-01  9.91288E-01 -6.35387E-02
    9044.729     50.338   3.880  9.34366E-01  9.90926E-01 -5.65598E-02
    9045.917     51.527   3.920  9.41945E-01  9.90645E-01 -4.87008E-02
    9047.118     52.727   3.960  9.50521E-01  9.90467E-01 -3.99452E-02
    9048.331     53.941   4.000  9.59975E-01  9.90346E-01 -3.03717E-02
    9049.557     55.166   4.040  9.70195E-01  9.90305E-01 -2.01092E-02
    9050.794     56.403   4.080  9.80974E-01  9.90339E-01 -9.36495E-03
    9052.044     57.653   4.120  9.92071E-01  9.90430E-01  1.64122E-03
    9053.306     58.915   4.160  1.00342E+00  9.90620E-01  1.28013E-02
    9054.580     60.189   4.200  1.01494E+00  9.90865E-01  2.40782E-02
    9055.866     61.475   4.240  1.02660E+00  9.91185E-01  3.54190E-02
    9057.165     62.774   4.280  1.03835E+00  9.91577E-01  4.67736E-02
    9058.475     64.084   4.320  1.05000E+00  9.92018E-01  5.79825E-02
    9059.798     65.407   4.360  1.06116E+00  9.92509E-01  6.86468E-02
    9061.133     66.742   4.400  1.07118E+00  9.93067E-01  7.81121E-02
    9062.480     68.089   4.440  1.07937E+00  9.93671E-01  8.56993E-02
    9063.840     69.449   4.480  1.08517E+00  9.94340E-01  9.08282E-02
    9065.211     70.820   4.520  1.08829E+00  9.95028E-01  9.32573E-02
    9066.595     72.204   4.560  1.08887E+00  9.95755E-01  9.31144E-02
    9067.991     73.600   4.600  1.08727E+00  9.96519E-01  9.07499E-02
    9069.399     75.008   4.640  1.08393E+00  9.97319E-01  8.66152E-02
    9070.820     76.429   4.680  1.07942E+00  9.98153E-01  8.12667E-02
    9072.252     77.861   4.720  1.07424E+00  9.98996E-01  7.52416E-02
    9073.697     79.306   4.760  1.06876E+00  9.99845E-01  6.89151E-02
    9075.154     80.763   4.800  1.06313E+00  1.00072E+00  6.24072E-02
    9076.623     82.232   4.840  1.05723E+00  1.00160E+00  5.56246E-02
    9078.104     83.713   4.880  1.05095E+00  1.00248E+00  4.84680E-02
    9079.598     85.207   4.920  1.04443E+00  1.00336E+00  4.10676E-02
    9081.103     86.712   4.960  1.03797E+00  1.00424E+00  3.37309E-02
    9082.621     88.230   5.000  1.03192E+00  1.00511E+00  2.68113E-02
    9084.151     89.760   5.040  1.02649E+00  1.00595E+00  2.05363E-02
    9085.694     91.303   5.080  1.02170E+00  1.00678E+00  1.49190E-02
    9087.248     92.857   5.120  1.01740E+00  1.00758E+00  9.81293E-03
    9088.815     94.424   5.160  1.01333E+00  1.00837E+00  4.95909E-03
    9090.394     96.003   5.200  1.00922E+00  1.00912E+00  1.02069E-04
    9091.985     97.594   5.240  1.00489E+00  1.00983E+00 -4.94499E-03
    9093.588     99.197   5.280  1.00018E+00  1.01050E+00 -1.03212E-02
    9095.203    100.812   5.320  9.94958E-01  1.01113E+00 -1.61706E-02
    9096.831    102.440   5.360  9.89168E-01  1.01171E+00 -2.25425E-02
    9098.471    104.080   5.400  9.82940E-01  1.01223E+00 -2.92875E-02
    9100.123    105.732   5.440  9.76719E-01  1.01272E+00 -3.60023E-02
    9101.787    107.396   5.480  9.71051E-01  1.01315E+00 -4.20962E-02
    9103.463    109.073   5.520  9.66626E-01  1.01353E+00 -4.69015E-02
    9105.152    110.761   5.560  9.63953E-01  1.01386E+00 -4.99055E-02
    9106.853    112.462   5.600  9.63224E-01  1.01412E+00 -5.08918E-02
    9108.566    114.175   5.640  9.64269E-01  1.01430E+00 -5.00316E-02
    9110.291    115.900   5.680  9.66654E-01  1.01444E+00 -4.77832E-02
    9112.028    117.637   5.720  9.69739E-01  1.01453E+00 -4.47863E-02
    9113.778    119.387   5.760  9.72900E-01  1.01454E+00 -4.16414E-02
    9115.540    121.149   5.800  9.75741E-01  1.01451E+00 -3.87683E-02
    9117.313    122.923   5.840  9.78086E-01  1.01440E+00 -3.63161E-02
    9119.100    124.709   5.880  9.80036E-01  1.01422E+00 -3.41882E-02
    9120.898    126.507   5.920  9.81884E-01  1.01402E+00 -3.21395E-02
    9122.708    128.318   5.960  9.83796E-01  1.01372E+00 -2.99226E-02
    9124.531    130.140   6.000  9.85966E-01  1.01332E+00 -2.73506E-02
