# # comment:                                                     FEFF 9.9.1  
# # Source:
# # Structure
# # Reduced
# # space
# # abc:
# # angles:
# # sites:
# # POT  SCF 100  7.0000   0, screened core-hole, AFOLP (folp(0)= 1.150)
# # Abs   Z=29 Rmt= 1.278 Rnm= 1.384 K  shell
# # Pot 1 Z=29 Rmt= 1.216 Rnm= 1.324
# # Pot 2 Z=34 Rmt= 1.102 Rnm= 1.338
# # Pot 3 Z=17 Rmt= 1.351 Rnm= 1.522
# # Pot 4 Z= 8 Rmt= 1.008 Rnm= 1.104
# # Gam_ch=1.729E+00 H-L exch Vi= 0.000E+00 Vr= 0.000E+00
# # Mu=-5.725E+00eV kf=1.989E+00 Vint=-1.308E+01eV Rs_int= 1.824
# FMS rfms= 9.0000
# # PATH  Rmax=-1.000,  Keep_limit= 0.00, Heap_limit 0.00  Pwcrit= 2.50%
#  S02=0.950  Temp=   0.00  Debye_temp=   0.00  Global_sig2= 0.00000
#  Energy zero shift, vr, vi    0.00000E+00   0.00000E+00
#  Curved wave amplitude ratio filter   4.000%
#     file         sig2 tot  cw amp ratio   deg  nlegs   reff  inp sig2
#     0/   0 paths used
#  xsedge+ 50, used to normalize mu           2.4212E-04
#  -----------------------------------------------------------------------
#  omega    e    k    mu    mu0     chi     @#
    8983.330     -9.535  -1.000  4.40730E-02  6.03601E-02 -1.62871E-02
    8983.629     -9.237  -0.960  4.64801E-02  6.48875E-02 -1.84073E-02
    8983.916     -8.950  -0.920  4.90639E-02  6.99256E-02 -2.08617E-02
    8984.190     -8.676  -0.880  5.18405E-02  7.55498E-02 -2.37094E-02
    8984.452     -8.414  -0.840  5.48274E-02  8.18476E-02 -2.70202E-02
    8984.702     -8.164  -0.800  5.80437E-02  8.89204E-02 -3.08767E-02
    8984.940     -7.926  -0.760  6.15097E-02  9.68845E-02 -3.53748E-02
    8985.165     -7.701  -0.720  6.52466E-02  1.05871E-01 -4.06246E-02
    8985.379     -7.487  -0.680  6.92757E-02  1.16025E-01 -4.67494E-02
    8985.580     -7.286  -0.640  7.36170E-02  1.27499E-01 -5.38818E-02
    8985.769     -7.097  -0.600  7.82869E-02  1.40442E-01 -6.21548E-02
    8985.946     -6.920  -0.560  8.32952E-02  1.54982E-01 -7.16865E-02
    8986.110     -6.756  -0.520  8.86397E-02  1.71195E-01 -8.25550E-02
    8986.263     -6.603  -0.480  9.43003E-02  1.89064E-01 -9.47637E-02
    8986.403     -6.463  -0.440  1.00232E-01  2.08433E-01 -1.08201E-01
    8986.531     -6.335  -0.400  1.06358E-01  2.28965E-01 -1.22607E-01
    8986.647     -6.219  -0.360  1.12568E-01  2.50131E-01 -1.37564E-01
    8986.750     -6.116  -0.320  1.18720E-01  2.71244E-01 -1.52524E-01
    8986.842     -6.024  -0.280  1.24653E-01  2.91539E-01 -1.66886E-01
    8986.921     -5.945  -0.240  1.30197E-01  3.10279E-01 -1.80082E-01
    8986.988     -5.878  -0.200  1.35191E-01  3.26847E-01 -1.91656E-01
    8987.043     -5.823  -0.160  1.39490E-01  3.40790E-01 -2.01301E-01
    8987.086     -5.780  -0.120  1.42971E-01  3.51817E-01 -2.08846E-01
    8987.116     -5.750  -0.080  1.45539E-01  3.59763E-01 -2.14224E-01
    8987.140     -5.725   0.000  1.47669E-01  3.66148E-01 -2.18479E-01
    8987.195     -5.671   0.120  1.52574E-01  3.80537E-01 -2.27963E-01
    8987.238     -5.628   0.160  1.56443E-01  3.91739E-01 -2.35296E-01
    8987.293     -5.573   0.200  1.61538E-01  4.06055E-01 -2.44517E-01
    8987.360     -5.506   0.240  1.67934E-01  4.23280E-01 -2.55346E-01
    8987.439     -5.427   0.280  1.75752E-01  4.43085E-01 -2.67333E-01
    8987.531     -5.335   0.320  1.85108E-01  4.64963E-01 -2.79856E-01
    8987.634     -5.232   0.360  1.96146E-01  4.88307E-01 -2.92162E-01
    8987.750     -5.116   0.400  2.08984E-01  5.12447E-01 -3.03463E-01
    8987.878     -4.988   0.440  2.23764E-01  5.36765E-01 -3.13001E-01
    8988.018     -4.848   0.480  2.40616E-01  5.60779E-01 -3.20164E-01
    8988.171     -4.695   0.520  2.59753E-01  5.84190E-01 -3.24437E-01
    8988.335     -4.531   0.560  2.81307E-01  6.06791E-01 -3.25484E-01
    8988.512     -4.354   0.600  3.05474E-01  6.28559E-01 -3.23085E-01
    8988.701     -4.165   0.640  3.32099E-01  6.49505E-01 -3.17406E-01
    8988.902     -3.964   0.680  3.60428E-01  6.69703E-01 -3.09274E-01
    8989.116     -3.750   0.720  3.88951E-01  6.89218E-01 -3.00267E-01
    8989.341     -3.525   0.760  4.15937E-01  7.08115E-01 -2.92178E-01
    8989.579     -3.287   0.800  4.40275E-01  7.26468E-01 -2.86194E-01
    8989.829     -3.037   0.840  4.61827E-01  7.44337E-01 -2.82509E-01
    8990.091     -2.775   0.880  4.81191E-01  7.61701E-01 -2.80511E-01
    8990.365     -2.501   0.920  5.00253E-01  7.78612E-01 -2.78359E-01
    8990.652     -2.214   0.960  5.22241E-01  7.95065E-01 -2.72824E-01
    8990.950     -1.915   1.000  5.50588E-01  8.11024E-01 -2.60436E-01
    8991.261     -1.605   1.040  5.87416E-01  8.26506E-01 -2.39090E-01
    8991.584     -1.281   1.080  6.32726E-01  8.41482E-01 -2.08756E-01
    8991.920     -0.946   1.120  6.83817E-01  8.55914E-01 -1.72097E-01
    8992.267     -0.599   1.160  7.33517E-01  8.69763E-01 -1.36245E-01
    8992.627     -0.239   1.200  7.70978E-01  8.83029E-01 -1.12051E-01
    8992.999      0.133   1.240  7.90973E-01  8.95691E-01 -1.04718E-01
    8993.383      0.517   1.280  8.00856E-01  9.07684E-01 -1.06828E-01
    8993.779      0.913   1.320  8.12539E-01  9.19048E-01 -1.06509E-01
    8994.187      1.321   1.360  8.33483E-01  9.29721E-01 -9.62381E-02
    8994.608      1.742   1.400  8.67023E-01  9.39701E-01 -7.26777E-02
    8995.041      2.175   1.440  9.13771E-01  9.48991E-01 -3.52200E-02
    8995.486      2.620   1.480  9.70997E-01  9.57597E-01  1.33996E-02
    8995.943      3.077   1.520  1.03485E+00  9.65524E-01  6.93247E-02
    8996.412      3.547   1.560  1.10730E+00  9.72757E-01  1.34545E-01
    8996.894      4.028   1.600  1.19530E+00  9.79327E-01  2.15972E-01
    8997.388      4.522   1.640  1.29694E+00  9.85245E-01  3.11693E-01
    8997.894      5.028   1.680  1.38756E+00  9.90542E-01  3.97018E-01
    8998.412      5.546   1.720  1.43152E+00  9.95234E-01  4.36283E-01
    8998.942      6.076   1.760  1.41912E+00  9.99333E-01  4.19789E-01
    8999.485      6.619   1.800  1.37492E+00  1.00290E+00  3.72020E-01
    9000.039      7.174   1.840  1.32543E+00  1.00592E+00  3.19503E-01
    9000.606      7.741   1.880  1.28186E+00  1.00847E+00  2.73395E-01
    9001.186      8.320   1.920  1.24824E+00  1.01057E+00  2.37669E-01
    9001.777      8.911   1.960  1.22667E+00  1.01222E+00  2.14449E-01
    9002.380      9.514   2.000  1.21459E+00  1.01351E+00  2.01084E-01
    9002.996     10.130   2.040  1.20441E+00  1.01440E+00  1.90011E-01
    9003.624     10.758   2.080  1.18804E+00  1.01500E+00  1.73038E-01
    9004.264     11.398   2.120  1.16101E+00  1.01528E+00  1.45734E-01
    9004.916     12.050   2.160  1.12690E+00  1.01529E+00  1.11604E-01
    9005.581     12.715   2.200  1.09361E+00  1.01506E+00  7.85491E-02
    9006.257     13.392   2.240  1.06723E+00  1.01464E+00  5.25885E-02
    9006.946     14.080   2.280  1.05161E+00  1.01405E+00  3.75670E-02
    9007.647     14.781   2.320  1.04484E+00  1.01327E+00  3.15745E-02
    9008.360     15.495   2.360  1.03733E+00  1.01237E+00  2.49573E-02
    9009.086     16.220   2.400  1.02104E+00  1.01138E+00  9.65929E-03
    9009.824     16.958   2.440  1.00159E+00  1.01029E+00 -8.70139E-03
    9010.573     17.707   2.480  9.86122E-01  1.00913E+00 -2.30128E-02
    9011.335     18.469   2.520  9.74238E-01  1.00793E+00 -3.36966E-02
    9012.110     19.244   2.560  9.64277E-01  1.00670E+00 -4.24198E-02
    9012.896     20.030   2.600  9.55162E-01  1.00545E+00 -5.02873E-02
    9013.694     20.829   2.640  9.46666E-01  1.00420E+00 -5.75366E-02
    9014.505     21.639   2.680  9.38916E-01  1.00298E+00 -6.40652E-02
    9015.328     22.462   2.720  9.32261E-01  1.00177E+00 -6.95107E-02
    9016.163     23.297   2.760  9.27045E-01  1.00062E+00 -7.35771E-02
    9017.011     24.145   2.800  9.23336E-01  9.99495E-01 -7.61590E-02
    9017.870     25.004   2.840  9.21305E-01  9.98457E-01 -7.71516E-02
    9018.742     25.876   2.880  9.20643E-01  9.97451E-01 -7.68080E-02
    9019.626     26.760   2.920  9.20811E-01  9.96541E-01 -7.57300E-02
    9020.522     27.656   2.960  9.21165E-01  9.95690E-01 -7.45252E-02
    9021.430     28.564   3.000  9.21397E-01  9.94941E-01 -7.35443E-02
    9022.351     29.485   3.040  9.21205E-01  9.94277E-01 -7.30719E-02
    9023.283     30.418   3.080  9.20593E-01  9.93700E-01 -7.31065E-02
    9024.228     31.362   3.120  9.19601E-01  9.93208E-01 -7.36067E-02
    9025.185     32.320   3.160  9.18363E-01  9.92825E-01 -7.44622E-02
    9026.155     33.289   3.200  9.17189E-01  9.92533E-01 -7.53442E-02
    9027.136     34.270   3.240  9.16667E-01  9.92352E-01 -7.56846E-02
    9028.130     35.264   3.280  9.17352E-01  9.92262E-01 -7.49103E-02
    9029.136     36.270   3.320  9.19636E-01  9.92282E-01 -7.26456E-02
    9030.154     37.288   3.360  9.23817E-01  9.92390E-01 -6.85735E-02
    9031.184     38.318   3.400  9.30059E-01  9.92587E-01 -6.25285E-02
    9032.226     39.360   3.440  9.38398E-01  9.92892E-01 -5.44944E-02
    9033.281     40.415   3.480  9.48868E-01  9.93284E-01 -4.44164E-02
    9034.348     41.482   3.520  9.61448E-01  9.93761E-01 -3.23127E-02
    9035.427     42.561   3.560  9.75877E-01  9.94319E-01 -1.84419E-02
    9036.518     43.652   3.600  9.91635E-01  9.94959E-01 -3.32419E-03
    9037.621     44.755   3.640  1.00791E+00  9.95679E-01  1.22323E-02
    9038.737     45.871   3.680  1.02377E+00  9.96477E-01  2.72958E-02
    9039.864     46.999   3.720  1.03835E+00  9.97350E-01  4.09993E-02
    9041.004     48.139   3.760  1.05104E+00  9.98277E-01  5.27651E-02
    9042.157     49.291   3.800  1.06163E+00  9.99274E-01  6.23606E-02
    9043.321     50.455   3.840  1.07016E+00  1.00032E+00  6.98411E-02
    9044.497     51.632   3.880  1.07697E+00  1.00143E+00  7.55370E-02
    9045.686     52.820   3.920  1.08243E+00  1.00256E+00  7.98720E-02
    9046.887     54.021   3.960  1.08687E+00  1.00372E+00  8.31490E-02
    9048.100     55.234   4.000  1.09044E+00  1.00493E+00  8.55089E-02
    9049.325     56.460   4.040  1.09312E+00  1.00616E+00  8.69552E-02
    9050.563     57.697   4.080  1.09456E+00  1.00741E+00  8.71561E-02
    9051.813     58.947   4.120  1.09411E+00  1.00868E+00  8.54334E-02
    9053.074     60.209   4.160  1.09091E+00  1.00993E+00  8.09803E-02
    9054.349     61.483   4.200  1.08434E+00  1.01120E+00  7.31403E-02
    9055.635     62.769   4.240  1.07424E+00  1.01247E+00  6.17694E-02
    9056.933     64.067   4.280  1.06105E+00  1.01371E+00  4.73426E-02
    9058.244     65.378   4.320  1.04583E+00  1.01494E+00  3.08947E-02
    9059.567     66.701   4.360  1.02984E+00  1.01613E+00  1.37098E-02
    9060.902     68.036   4.400  1.01443E+00  1.01729E+00 -2.85657E-03
    9062.249     69.383   4.440  1.00086E+00  1.01843E+00 -1.75651E-02
    9063.608     70.742   4.480  9.90046E-01  1.01951E+00 -2.94591E-02
    9064.980     72.114   4.520  9.82643E-01  1.02056E+00 -3.79149E-02
    9066.364     73.498   4.560  9.78869E-01  1.02154E+00 -4.26745E-02
    9067.760     74.894   4.600  9.78635E-01  1.02248E+00 -4.38472E-02
    9069.168     76.302   4.640  9.81480E-01  1.02337E+00 -4.18897E-02
    9070.588     77.722   4.680  9.86609E-01  1.02418E+00 -3.75747E-02
    9072.021     79.155   4.720  9.93049E-01  1.02494E+00 -3.18942E-02
    9073.466     80.600   4.760  9.99717E-01  1.02560E+00 -2.58844E-02
    9074.922     82.057   4.800  1.00581E+00  1.02620E+00 -2.03909E-02
    9076.392     83.526   4.840  1.01086E+00  1.02675E+00 -1.58894E-02
    9077.873     85.007   4.880  1.01477E+00  1.02720E+00 -1.24269E-02
    9079.366     86.501   4.920  1.01770E+00  1.02758E+00 -9.87894E-03
    9080.872     88.006   4.960  1.01964E+00  1.02788E+00 -8.24423E-03
    9082.390     89.524   5.000  1.02036E+00  1.02808E+00 -7.72615E-03
    9083.920     91.054   5.040  1.01964E+00  1.02822E+00 -8.58301E-03
    9085.462     92.597   5.080  1.01741E+00  1.02828E+00 -1.08724E-02
    9087.017     94.151   5.120  1.01396E+00  1.02828E+00 -1.43213E-02
    9088.584     95.718   5.160  1.00970E+00  1.02818E+00 -1.84861E-02
    9090.162     97.297   5.200  1.00501E+00  1.02803E+00 -2.30143E-02
    9091.753     98.888   5.240  1.00006E+00  1.02777E+00 -2.77062E-02
    9093.357    100.491   5.280  9.95190E-01  1.02747E+00 -3.22818E-02
    9094.972    102.106   5.320  9.90952E-01  1.02708E+00 -3.61276E-02
    9096.600    103.734   5.360  9.88283E-01  1.02663E+00 -3.83511E-02
    9098.240    105.374   5.400  9.87942E-01  1.02611E+00 -3.81725E-02
    9099.892    107.026   5.440  9.90205E-01  1.02555E+00 -3.53410E-02
    9101.556    108.690   5.480  9.94726E-01  1.02493E+00 -3.02042E-02
    9103.232    110.366   5.520  1.00078E+00  1.02425E+00 -2.34696E-02
    9104.921    112.055   5.560  1.00752E+00  1.02354E+00 -1.60231E-02
    9106.622    113.756   5.600  1.01390E+00  1.02277E+00 -8.87441E-03
    9108.334    115.469   5.640  1.01909E+00  1.02196E+00 -2.87899E-03
    9110.060    117.194   5.680  1.02298E+00  1.02114E+00  1.84303E-03
    9111.797    118.931   5.720  1.02640E+00  1.02028E+00  6.11341E-03
    9113.547    120.681   5.760  1.03053E+00  1.01939E+00  1.11401E-02
    9115.308    122.442   5.800  1.03620E+00  1.01850E+00  1.77002E-02
    9117.082    124.216   5.840  1.04328E+00  1.01757E+00  2.57123E-02
    9118.868    126.002   5.880  1.05101E+00  1.01665E+00  3.43617E-02
    9120.667    127.801   5.920  1.05829E+00  1.01574E+00  4.25527E-02
    9122.477    129.611   5.960  1.06391E+00  1.01482E+00  4.90947E-02
    9124.300    131.434   6.000  1.06656E+00  1.01392E+00  5.26384E-02
