# # comment:                                                     FEFF 9.9.1  
# # Source:
# # Structure
# # Reduced
# # space
# # abc:
# # angles:
# # sites:
# # POT  SCF 100  7.0000   0, screened core-hole, AFOLP (folp(0)= 1.150)
# # Abs   Z=29 Rmt= 1.193 Rnm= 1.293 K  shell
# # Pot 1 Z=30 Rmt= 1.416 Rnm= 1.490
# # Pot 2 Z=29 Rmt= 1.193 Rnm= 1.293
# # Pot 3 Z=51 Rmt= 1.326 Rnm= 1.461
# # Pot 4 Z= 8 Rmt= 1.000 Rnm= 1.090
# # Gam_ch=1.729E+00 H-L exch Vi= 0.000E+00 Vr= 0.000E+00
# # Mu=-7.454E+00eV kf=2.170E+00 Vint=-1.626E+01eV Rs_int= 1.671
# FMS rfms= 9.0000
# # PATH  Rmax=-1.000,  Keep_limit= 0.00, Heap_limit 0.00  Pwcrit= 2.50%
#  S02=0.950  Temp=   0.00  Debye_temp=   0.00  Global_sig2= 0.00000
#  Energy zero shift, vr, vi    0.00000E+00   0.00000E+00
#  Curved wave amplitude ratio filter   4.000%
#     file         sig2 tot  cw amp ratio   deg  nlegs   reff  inp sig2
#     0/   0 paths used
#  xsedge+ 50, used to normalize mu           2.4482E-04
#  -----------------------------------------------------------------------
#  omega    e    k    mu    mu0     chi     @#
    8984.027    -11.264  -1.000  3.66001E-02  5.65676E-02 -1.99675E-02
    8984.326    -10.965  -0.960  3.83455E-02  6.07373E-02 -2.23918E-02
    8984.612    -10.679  -0.920  4.02018E-02  6.53747E-02 -2.51729E-02
    8984.887    -10.404  -0.880  4.21783E-02  7.05488E-02 -2.83705E-02
    8985.149    -10.142  -0.840  4.42856E-02  7.63400E-02 -3.20544E-02
    8985.399     -9.892  -0.800  4.65354E-02  8.28416E-02 -3.63062E-02
    8985.636     -9.654  -0.760  4.89402E-02  9.01604E-02 -4.12202E-02
    8985.862     -9.429  -0.720  5.15135E-02  9.84174E-02 -4.69039E-02
    8986.075     -9.215  -0.680  5.42693E-02  1.07746E-01 -5.34763E-02
    8986.276     -9.014  -0.640  5.72209E-02  1.18286E-01 -6.10647E-02
    8986.465     -8.825  -0.600  6.03799E-02  1.30176E-01 -6.97956E-02
    8986.642     -8.649  -0.560  6.37537E-02  1.43533E-01 -7.97794E-02
    8986.807     -8.484  -0.520  6.73419E-02  1.58429E-01 -9.10870E-02
    8986.959     -8.332  -0.480  7.11317E-02  1.74847E-01 -1.03716E-01
    8987.099     -8.191  -0.440  7.50929E-02  1.92644E-01 -1.17552E-01
    8987.227     -8.063  -0.400  7.91730E-02  2.11510E-01 -1.32337E-01
    8987.343     -7.948  -0.360  8.32958E-02  2.30955E-01 -1.47660E-01
    8987.447     -7.844  -0.320  8.73639E-02  2.50348E-01 -1.62984E-01
    8987.538     -7.752  -0.280  9.12671E-02  2.68983E-01 -1.77716E-01
    8987.618     -7.673  -0.240  9.48933E-02  2.86183E-01 -1.91290E-01
    8987.685     -7.606  -0.200  9.81392E-02  3.01384E-01 -2.03244E-01
    8987.739     -7.551  -0.160  1.00916E-01  3.14169E-01 -2.13253E-01
    8987.782     -7.509  -0.120  1.03154E-01  3.24275E-01 -2.21121E-01
    8987.813     -7.478  -0.080  1.04798E-01  3.31555E-01 -2.26757E-01
    8987.837     -7.454   0.000  1.06158E-01  3.37403E-01 -2.31245E-01
    8987.892     -7.399   0.120  1.09289E-01  3.50605E-01 -2.41315E-01
    8987.935     -7.356   0.160  1.11717E-01  3.60846E-01 -2.49130E-01
    8987.989     -7.301   0.200  1.14882E-01  3.73933E-01 -2.59051E-01
    8988.056     -7.234   0.240  1.18770E-01  3.89665E-01 -2.70895E-01
    8988.136     -7.155   0.280  1.23445E-01  4.07726E-01 -2.84281E-01
    8988.227     -7.064   0.320  1.28889E-01  4.27634E-01 -2.98746E-01
    8988.331     -6.960   0.360  1.35128E-01  4.48837E-01 -3.13709E-01
    8988.447     -6.844   0.400  1.42163E-01  4.70703E-01 -3.28540E-01
    8988.575     -6.716   0.440  1.50015E-01  4.92653E-01 -3.42638E-01
    8988.715     -6.576   0.480  1.58778E-01  5.14256E-01 -3.55478E-01
    8988.867     -6.424   0.520  1.68597E-01  5.35236E-01 -3.66639E-01
    8989.032     -6.259   0.560  1.79697E-01  5.55424E-01 -3.75727E-01
    8989.209     -6.082   0.600  1.92217E-01  5.74786E-01 -3.82569E-01
    8989.398     -5.893   0.640  2.06065E-01  5.93400E-01 -3.87336E-01
    8989.599     -5.692   0.680  2.20547E-01  6.11305E-01 -3.90758E-01
    8989.812     -5.479   0.720  2.34816E-01  6.28633E-01 -3.93816E-01
    8990.038     -5.253   0.760  2.48625E-01  6.45455E-01 -3.96829E-01
    8990.275     -5.015   0.800  2.63042E-01  6.61851E-01 -3.98809E-01
    8990.525     -4.765   0.840  2.80118E-01  6.77909E-01 -3.97790E-01
    8990.787     -4.503   0.880  3.01888E-01  6.93640E-01 -3.91752E-01
    8991.062     -4.229   0.920  3.30001E-01  7.09103E-01 -3.79102E-01
    8991.348     -3.942   0.960  3.64323E-01  7.24304E-01 -3.59980E-01
    8991.647     -3.644   1.000  4.01254E-01  7.39276E-01 -3.38022E-01
    8991.958     -3.333   1.040  4.35168E-01  7.54025E-01 -3.18857E-01
    8992.281     -3.010   1.080  4.62598E-01  7.68505E-01 -3.05906E-01
    8992.616     -2.674   1.120  4.84742E-01  7.82729E-01 -2.97987E-01
    8992.964     -2.327   1.160  5.07737E-01  7.96682E-01 -2.88946E-01
    8993.323     -1.967   1.200  5.37724E-01  8.10326E-01 -2.72602E-01
    8993.695     -1.596   1.240  5.73222E-01  8.23639E-01 -2.50417E-01
    8994.079     -1.211   1.280  6.08835E-01  8.36619E-01 -2.27783E-01
    8994.476     -0.815   1.320  6.45972E-01  8.49240E-01 -2.03268E-01
    8994.884     -0.407   1.360  6.89133E-01  8.61456E-01 -1.72324E-01
    8995.305      0.014   1.400  7.38645E-01  8.73241E-01 -1.34596E-01
    8995.737      0.447   1.440  7.94227E-01  8.84608E-01 -9.03814E-02
    8996.182      0.892   1.480  8.51651E-01  8.95512E-01 -4.38610E-02
    8996.640      1.349   1.520  9.03364E-01  9.05927E-01 -2.56323E-03
    8997.109      1.818   1.560  9.50720E-01  9.15871E-01  3.48486E-02
    8997.591      2.300   1.600  9.94303E-01  9.25299E-01  6.90040E-02
    8998.084      2.794   1.640  1.03141E+00  9.34230E-01  9.71818E-02
    8998.590      3.300   1.680  1.07671E+00  9.42642E-01  1.34070E-01
    8999.108      3.818   1.720  1.14804E+00  9.50538E-01  1.97502E-01
    8999.639      4.348   1.760  1.24564E+00  9.57918E-01  2.87720E-01
    9000.181      4.891   1.800  1.35921E+00  9.64783E-01  3.94424E-01
    9000.736      5.445   1.840  1.46116E+00  9.71160E-01  4.90000E-01
    9001.303      6.012   1.880  1.49919E+00  9.77013E-01  5.22172E-01
    9001.882      6.591   1.920  1.45277E+00  9.82389E-01  4.70385E-01
    9002.473      7.183   1.960  1.35805E+00  9.87294E-01  3.70760E-01
    9003.077      7.786   2.000  1.26332E+00  9.91737E-01  2.71586E-01
    9003.693      8.402   2.040  1.20287E+00  9.95726E-01  2.07145E-01
    9004.321      9.030   2.080  1.17731E+00  9.99289E-01  1.78026E-01
    9004.961      9.670   2.120  1.15746E+00  1.00244E+00  1.55023E-01
    9005.613     10.322   2.160  1.13156E+00  1.00520E+00  1.26358E-01
    9006.277     10.987   2.200  1.11288E+00  1.00759E+00  1.05286E-01
    9006.954     11.663   2.240  1.10544E+00  1.00962E+00  9.58286E-02
    9007.643     12.352   2.280  1.09756E+00  1.01133E+00  8.62322E-02
    9008.344     13.053   2.320  1.07775E+00  1.01272E+00  6.50251E-02
    9009.057     13.766   2.360  1.05312E+00  1.01384E+00  3.92780E-02
    9009.783     14.492   2.400  1.03977E+00  1.01468E+00  2.50815E-02
    9010.520     15.229   2.440  1.04530E+00  1.01528E+00  3.00244E-02
    9011.270     15.979   2.480  1.06532E+00  1.01563E+00  4.96909E-02
    9012.032     16.741   2.520  1.08643E+00  1.01579E+00  7.06427E-02
    9012.806     17.515   2.560  1.09433E+00  1.01576E+00  7.85722E-02
    9013.593     18.302   2.600  1.08853E+00  1.01555E+00  7.29802E-02
    9014.391     19.100   2.640  1.08382E+00  1.01521E+00  6.86122E-02
    9015.202     19.911   2.680  1.08375E+00  1.01472E+00  6.90356E-02
    9016.025     20.734   2.720  1.08219E+00  1.01410E+00  6.80884E-02
    9016.860     21.569   2.760  1.07335E+00  1.01339E+00  5.99608E-02
    9017.707     22.417   2.800  1.05685E+00  1.01259E+00  4.42523E-02
    9018.567     23.276   2.840  1.03772E+00  1.01174E+00  2.59848E-02
    9019.439     24.148   2.880  1.02039E+00  1.01081E+00  9.58101E-03
    9020.322     25.032   2.920  1.00529E+00  1.00981E+00 -4.52775E-03
    9021.219     25.928   2.960  9.90889E-01  1.00880E+00 -1.79114E-02
    9022.127     26.836   3.000  9.75283E-01  1.00777E+00 -3.24906E-02
    9023.047     27.757   3.040  9.57217E-01  1.00672E+00 -4.95016E-02
    9023.980     28.689   3.080  9.37400E-01  1.00566E+00 -6.82590E-02
    9024.925     29.634   3.120  9.18210E-01  1.00460E+00 -8.63893E-02
    9025.882     30.591   3.160  9.01936E-01  1.00357E+00 -1.01630E-01
    9026.851     31.560   3.200  8.89804E-01  1.00254E+00 -1.12738E-01
    9027.833     32.542   3.240  8.82058E-01  1.00155E+00 -1.19494E-01
    9028.826     33.536   3.280  8.77548E-01  1.00060E+00 -1.23050E-01
    9029.832     34.541   3.320  8.75405E-01  9.99683E-01 -1.24278E-01
    9030.850     35.559   3.360  8.75482E-01  9.98808E-01 -1.23326E-01
    9031.880     36.590   3.400  8.78117E-01  9.97976E-01 -1.19859E-01
    9032.923     37.632   3.440  8.83581E-01  9.97189E-01 -1.13609E-01
    9033.977     38.687   3.480  8.91892E-01  9.96471E-01 -1.04580E-01
    9035.044     39.753   3.520  9.02584E-01  9.95822E-01 -9.32383E-02
    9036.123     40.832   3.560  9.14571E-01  9.95202E-01 -8.06305E-02
    9037.214     41.924   3.600  9.26686E-01  9.94673E-01 -6.79877E-02
    9038.318     43.027   3.640  9.37712E-01  9.94197E-01 -5.64846E-02
    9039.433     44.143   3.680  9.46703E-01  9.93771E-01 -4.70685E-02
    9040.561     45.270   3.720  9.53292E-01  9.93438E-01 -4.01465E-02
    9041.701     46.410   3.760  9.57792E-01  9.93137E-01 -3.53449E-02
    9042.853     47.562   3.800  9.61303E-01  9.92930E-01 -3.16265E-02
    9044.018     48.727   3.840  9.65219E-01  9.92776E-01 -2.75575E-02
    9045.194     49.903   3.880  9.70916E-01  9.92693E-01 -2.17772E-02
    9046.383     51.092   3.920  9.79289E-01  9.92661E-01 -1.33722E-02
    9047.584     52.293   3.960  9.90502E-01  9.92700E-01 -2.19772E-03
    9048.797     53.506   4.000  1.00373E+00  9.92788E-01  1.09420E-02
    9050.022     54.731   4.040  1.01744E+00  9.92945E-01  2.44964E-02
    9051.260     55.969   4.080  1.02982E+00  9.93152E-01  3.66694E-02
    9052.509     57.218   4.120  1.03942E+00  9.93423E-01  4.59941E-02
    9053.771     58.480   4.160  1.04557E+00  9.93718E-01  5.18536E-02
    9055.045     59.754   4.200  1.04854E+00  9.94077E-01  5.44655E-02
    9056.331     61.041   4.240  1.04896E+00  9.94479E-01  5.44783E-02
    9057.630     62.339   4.280  1.04767E+00  9.94921E-01  5.27489E-02
    9058.940     63.650   4.320  1.04546E+00  9.95402E-01  5.00567E-02
    9060.263     64.973   4.360  1.04275E+00  9.95922E-01  4.68302E-02
    9061.598     66.308   4.400  1.03963E+00  9.96477E-01  4.31531E-02
    9062.946     67.655   4.440  1.03604E+00  9.97043E-01  3.90002E-02
    9064.305     69.014   4.480  1.03211E+00  9.97640E-01  3.44747E-02
    9065.677     70.386   4.520  1.02822E+00  9.98246E-01  2.99751E-02
    9067.060     71.770   4.560  1.02509E+00  9.98879E-01  2.62086E-02
    9068.456     73.166   4.600  1.02338E+00  9.99518E-01  2.38620E-02
    9069.864     74.574   4.640  1.02357E+00  1.00016E+00  2.34043E-02
    9071.285     75.994   4.680  1.02581E+00  1.00083E+00  2.49811E-02
    9072.717     77.427   4.720  1.02985E+00  1.00147E+00  2.83816E-02
    9074.162     78.871   4.760  1.03521E+00  1.00211E+00  3.30983E-02
    9075.619     80.328   4.800  1.04123E+00  1.00274E+00  3.84845E-02
    9077.088     81.797   4.840  1.04734E+00  1.00337E+00  4.39627E-02
    9078.570     83.279   4.880  1.05313E+00  1.00400E+00  4.91341E-02
    9080.063     84.772   4.920  1.05843E+00  1.00459E+00  5.38328E-02
    9081.569     86.278   4.960  1.06300E+00  1.00518E+00  5.78215E-02
    9083.087     87.796   5.000  1.06624E+00  1.00573E+00  6.05175E-02
    9084.617     89.326   5.040  1.06722E+00  1.00624E+00  6.09788E-02
    9086.159     90.868   5.080  1.06500E+00  1.00674E+00  5.82606E-02
    9087.713     92.423   5.120  1.05908E+00  1.00717E+00  5.19046E-02
    9089.280     93.989   5.160  1.04971E+00  1.00759E+00  4.21217E-02
    9090.859     95.568   5.200  1.03761E+00  1.00797E+00  2.96354E-02
    9092.450     97.159   5.240  1.02362E+00  1.00832E+00  1.53022E-02
    9094.053     98.763   5.280  1.00861E+00  1.00864E+00 -3.50241E-05
    9095.669    100.378   5.320  9.93398E-01  1.00890E+00 -1.55035E-02
    9097.296    102.006   5.360  9.78878E-01  1.00912E+00 -3.02380E-02
    9098.936    103.645   5.400  9.65631E-01  1.00926E+00 -4.36328E-02
    9100.588    105.297   5.440  9.53862E-01  1.00939E+00 -5.55287E-02
    9102.252    106.962   5.480  9.43344E-01  1.00947E+00 -6.61304E-02
    9103.929    108.638   5.520  9.33821E-01  1.00949E+00 -7.56705E-02
    9105.617    110.327   5.560  9.25280E-01  1.00946E+00 -8.41830E-02
    9107.318    112.027   5.600  9.17957E-01  1.00939E+00 -9.14342E-02
    9109.031    113.740   5.640  9.12278E-01  1.00928E+00 -9.69997E-02
    9110.756    115.465   5.680  9.08903E-01  1.00912E+00 -1.00217E-01
    9112.494    117.203   5.720  9.08672E-01  1.00890E+00 -1.00224E-01
    9114.243    118.952   5.760  9.12493E-01  1.00865E+00 -9.61607E-02
    9116.005    120.714   5.800  9.20830E-01  1.00835E+00 -8.75193E-02
    9117.779    122.488   5.840  9.33585E-01  1.00803E+00 -7.44430E-02
    9119.565    124.274   5.880  9.49870E-01  1.00765E+00 -5.77772E-02
    9121.363    126.072   5.920  9.68238E-01  1.00725E+00 -3.90148E-02
    9123.174    127.883   5.960  9.86688E-01  1.00680E+00 -2.01110E-02
    9124.996    129.706   6.000  1.00349E+00  1.00631E+00 -2.81274E-03
