# # comment:                                                     FEFF 9.9.1  
# # Source:
# # Structure
# # Reduced
# # space
# # abc:
# # angles:
# # sites:
# # POT  SCF 100  7.0000   0, screened core-hole, AFOLP (folp(0)= 1.150)
# # Abs   Z=29 Rmt= 1.235 Rnm= 1.332 K  shell
# # Pot 1 Z=49 Rmt= 1.484 Rnm= 1.565
# # Pot 2 Z=29 Rmt= 1.235 Rnm= 1.332
# # Pot 3 Z= 8 Rmt= 1.043 Rnm= 1.113
# # Gam_ch=1.729E+00 H-L exch Vi= 0.000E+00 Vr= 0.000E+00
# # Mu=-7.020E+00eV kf=2.112E+00 Vint=-1.508E+01eV Rs_int= 1.718
# FMS rfms= 9.0000
# # PATH  Rmax=-1.000,  Keep_limit= 0.00, Heap_limit 0.00  Pwcrit= 2.50%
#  S02=0.950  Temp=   0.00  Debye_temp=   0.00  Global_sig2= 0.00000
#  Energy zero shift, vr, vi    0.00000E+00   0.00000E+00
#  Curved wave amplitude ratio filter   4.000%
#     file         sig2 tot  cw amp ratio   deg  nlegs   reff  inp sig2
#     0/   0 paths used
#  xsedge+ 50, used to normalize mu           2.4472E-04
#  -----------------------------------------------------------------------
#  omega    e    k    mu    mu0     chi     @#
    8983.592    -10.830  -1.000  3.66126E-02  5.27868E-02 -1.61742E-02
    8983.890    -10.531  -0.960  3.84753E-02  5.65752E-02 -1.80999E-02
    8984.177    -10.245  -0.920  4.04705E-02  6.07801E-02 -2.03096E-02
    8984.451     -9.971  -0.880  4.26101E-02  6.54622E-02 -2.28521E-02
    8984.713     -9.709  -0.840  4.49075E-02  7.06923E-02 -2.57848E-02
    8984.963     -9.459  -0.800  4.73768E-02  7.65523E-02 -2.91755E-02
    8985.201     -9.221  -0.760  5.00328E-02  8.31358E-02 -3.31030E-02
    8985.427     -8.995  -0.720  5.28911E-02  9.05490E-02 -3.76579E-02
    8985.640     -8.782  -0.680  5.59667E-02  9.89083E-02 -4.29415E-02
    8985.841     -8.581  -0.640  5.92738E-02  1.08337E-01 -4.90628E-02
    8986.030     -8.392  -0.600  6.28233E-02  1.18954E-01 -5.61311E-02
    8986.207     -8.215  -0.560  6.66210E-02  1.30864E-01 -6.42434E-02
    8986.371     -8.050  -0.520  7.06637E-02  1.44127E-01 -7.34635E-02
    8986.524     -7.898  -0.480  7.49349E-02  1.58728E-01 -8.37932E-02
    8986.664     -7.758  -0.440  7.94001E-02  1.74540E-01 -9.51395E-02
    8986.792     -7.630  -0.400  8.40020E-02  1.91288E-01 -1.07286E-01
    8986.908     -7.514  -0.360  8.86591E-02  2.08543E-01 -1.19884E-01
    8987.011     -7.410  -0.320  9.32680E-02  2.25747E-01 -1.32479E-01
    8987.103     -7.319  -0.280  9.77104E-02  2.42280E-01 -1.44570E-01
    8987.182     -7.240  -0.240  1.01863E-01  2.57545E-01 -1.55682E-01
    8987.249     -7.173  -0.200  1.05607E-01  2.71040E-01 -1.65433E-01
    8987.304     -7.118  -0.160  1.08835E-01  2.82397E-01 -1.73562E-01
    8987.347     -7.075  -0.120  1.11457E-01  2.91379E-01 -1.79922E-01
    8987.377     -7.045  -0.080  1.13398E-01  2.97852E-01 -1.84454E-01
    8987.402     -7.020   0.000  1.15024E-01  3.03056E-01 -1.88032E-01
    8987.457     -6.965   0.120  1.18764E-01  3.14794E-01 -1.96030E-01
    8987.499     -6.923   0.160  1.21667E-01  3.23904E-01 -2.02238E-01
    8987.554     -6.868   0.200  1.25522E-01  3.35576E-01 -2.10054E-01
    8987.621     -6.801   0.240  1.30376E-01  3.49619E-01 -2.19243E-01
    8987.700     -6.722   0.280  1.36358E-01  3.65787E-01 -2.29429E-01
    8987.792     -6.630   0.320  1.43572E-01  3.83645E-01 -2.40072E-01
    8987.895     -6.526   0.360  1.52268E-01  4.02743E-01 -2.50475E-01
    8988.011     -6.411   0.400  1.62653E-01  4.22496E-01 -2.59843E-01
    8988.139     -6.283   0.440  1.75141E-01  4.42464E-01 -2.67323E-01
    8988.279     -6.142   0.480  1.90169E-01  4.62256E-01 -2.72087E-01
    8988.432     -5.990   0.520  2.08235E-01  4.81617E-01 -2.73381E-01
    8988.596     -5.825   0.560  2.29639E-01  5.00415E-01 -2.70776E-01
    8988.773     -5.649   0.600  2.54129E-01  5.18639E-01 -2.64510E-01
    8988.962     -5.460   0.640  2.80234E-01  5.36319E-01 -2.56085E-01
    8989.163     -5.258   0.680  3.05287E-01  5.53520E-01 -2.48234E-01
    8989.377     -5.045   0.720  3.26852E-01  5.70360E-01 -2.43508E-01
    8989.602     -4.820   0.760  3.44430E-01  5.86852E-01 -2.42423E-01
    8989.840     -4.582   0.800  3.59208E-01  6.03123E-01 -2.43915E-01
    8990.090     -4.332   0.840  3.71178E-01  6.19184E-01 -2.48007E-01
    8990.352     -4.070   0.880  3.78518E-01  6.35096E-01 -2.56579E-01
    8990.626     -3.795   0.920  3.80591E-01  6.50867E-01 -2.70276E-01
    8990.913     -3.509   0.960  3.80667E-01  6.66510E-01 -2.85842E-01
    8991.212     -3.210   1.000  3.83510E-01  6.82053E-01 -2.98543E-01
    8991.523     -2.899   1.040  3.90700E-01  6.97454E-01 -3.06754E-01
    8991.846     -2.576   1.080  4.01508E-01  7.12744E-01 -3.11236E-01
    8992.181     -2.241   1.120  4.16477E-01  7.27866E-01 -3.11389E-01
    8992.528     -1.893   1.160  4.36135E-01  7.42800E-01 -3.06665E-01
    8992.888     -1.534   1.200  4.58620E-01  7.57521E-01 -2.98901E-01
    8993.260     -1.162   1.240  4.81281E-01  7.72006E-01 -2.90725E-01
    8993.644     -0.778   1.280  5.02336E-01  7.86225E-01 -2.83889E-01
    8994.040     -0.382   1.320  5.21194E-01  8.00127E-01 -2.78932E-01
    8994.449      0.027   1.360  5.41243E-01  8.13703E-01 -2.72459E-01
    8994.869      0.447   1.400  5.69396E-01  8.26922E-01 -2.57526E-01
    8995.302      0.880   1.440  6.09009E-01  8.39755E-01 -2.30746E-01
    8995.747      1.325   1.480  6.56860E-01  8.52150E-01 -1.95290E-01
    8996.204      1.782   1.520  7.10961E-01  8.64118E-01 -1.53157E-01
    8996.674      2.252   1.560  7.75786E-01  8.75631E-01 -9.98442E-02
    8997.155      2.733   1.600  8.55839E-01  8.86639E-01 -3.07996E-02
    8997.649      3.227   1.640  9.46749E-01  8.97159E-01  4.95900E-02
    8998.155      3.733   1.680  1.03701E+00  9.07166E-01  1.29848E-01
    8998.673      4.251   1.720  1.12403E+00  9.16678E-01  2.07353E-01
    8999.203      4.782   1.760  1.21728E+00  9.25630E-01  2.91647E-01
    8999.746      5.324   1.800  1.31880E+00  9.34084E-01  3.84711E-01
    9000.301      5.879   1.840  1.40047E+00  9.42000E-01  4.58467E-01
    9000.868      6.446   1.880  1.41289E+00  9.49381E-01  4.63505E-01
    9001.447      7.025   1.920  1.35343E+00  9.56251E-01  3.97181E-01
    9002.038      7.616   1.960  1.27687E+00  9.62615E-01  3.14258E-01
    9002.642      8.220   2.000  1.22556E+00  9.68500E-01  2.57063E-01
    9003.257      8.835   2.040  1.20401E+00  9.73870E-01  2.30137E-01
    9003.885      9.463   2.080  1.19391E+00  9.78773E-01  2.15133E-01
    9004.525     10.103   2.120  1.17125E+00  9.83241E-01  1.88012E-01
    9005.178     10.756   2.160  1.13342E+00  9.87240E-01  1.46181E-01
    9005.842     11.420   2.200  1.10100E+00  9.90841E-01  1.10159E-01
    9006.519     12.097   2.240  1.08730E+00  9.94033E-01  9.32638E-02
    9007.207     12.786   2.280  1.09063E+00  9.96848E-01  9.37863E-02
    9007.908     13.487   2.320  1.10515E+00  9.99297E-01  1.05850E-01
    9008.622     14.200   2.360  1.12601E+00  1.00141E+00  1.24605E-01
    9009.347     14.925   2.400  1.14720E+00  1.00322E+00  1.43985E-01
    9010.085     15.663   2.440  1.16076E+00  1.00471E+00  1.56047E-01
    9010.835     16.413   2.480  1.16192E+00  1.00594E+00  1.55982E-01
    9011.597     17.175   2.520  1.14895E+00  1.00689E+00  1.42058E-01
    9012.371     17.949   2.560  1.12256E+00  1.00763E+00  1.14931E-01
    9013.157     18.735   2.600  1.08864E+00  1.00813E+00  8.05146E-02
    9013.956     19.534   2.640  1.05306E+00  1.00844E+00  4.46150E-02
    9014.766     20.345   2.680  1.02108E+00  1.00859E+00  1.24938E-02
    9015.589     21.168   2.720  9.96263E-01  1.00857E+00 -1.23079E-02
    9016.425     22.003   2.760  9.78347E-01  1.00840E+00 -3.00507E-02
    9017.272     22.850   2.800  9.65011E-01  1.00810E+00 -4.30873E-02
    9018.131     23.710   2.840  9.53923E-01  1.00770E+00 -5.37797E-02
    9019.003     24.581   2.880  9.43096E-01  1.00722E+00 -6.41199E-02
    9019.887     25.465   2.920  9.31588E-01  1.00662E+00 -7.50368E-02
    9020.783     26.361   2.960  9.19569E-01  1.00598E+00 -8.64099E-02
    9021.691     27.270   3.000  9.07592E-01  1.00528E+00 -9.76909E-02
    9022.612     28.190   3.040  8.96417E-01  1.00452E+00 -1.08106E-01
    9023.545     29.123   3.080  8.86792E-01  1.00375E+00 -1.16955E-01
    9024.490     30.068   3.120  8.79226E-01  1.00296E+00 -1.23733E-01
    9025.447     31.025   3.160  8.73984E-01  1.00214E+00 -1.28157E-01
    9026.416     31.994   3.200  8.71241E-01  1.00132E+00 -1.30080E-01
    9027.397     32.975   3.240  8.70901E-01  1.00050E+00 -1.29601E-01
    9028.391     33.969   3.280  8.72471E-01  9.99710E-01 -1.27238E-01
    9029.397     34.975   3.320  8.75472E-01  9.98925E-01 -1.23452E-01
    9030.415     35.993   3.360  8.79761E-01  9.98173E-01 -1.18412E-01
    9031.445     37.023   3.400  8.85391E-01  9.97457E-01 -1.12066E-01
    9032.487     38.066   3.440  8.92418E-01  9.96757E-01 -1.04338E-01
    9033.542     39.120   3.480  9.00993E-01  9.96118E-01 -9.51246E-02
    9034.609     40.187   3.520  9.10993E-01  9.95522E-01 -8.45287E-02
    9035.688     41.266   3.560  9.21932E-01  9.94969E-01 -7.30371E-02
    9036.779     42.357   3.600  9.33230E-01  9.94460E-01 -6.12306E-02
    9037.882     43.461   3.640  9.44408E-01  9.94019E-01 -4.96117E-02
    9038.998     44.576   3.680  9.55157E-01  9.93625E-01 -3.84673E-02
    9040.126     45.704   3.720  9.65487E-01  9.93277E-01 -2.77908E-02
    9041.266     46.844   3.760  9.75782E-01  9.93001E-01 -1.72189E-02
    9042.418     47.996   3.800  9.86427E-01  9.92795E-01 -6.36847E-03
    9043.582     49.160   3.840  9.97580E-01  9.92637E-01  4.94250E-03
    9044.759     50.337   3.880  1.00915E+00  9.92528E-01  1.66182E-02
    9045.947     51.526   3.920  1.02058E+00  9.92487E-01  2.80918E-02
    9047.148     52.726   3.960  1.03079E+00  9.92495E-01  3.82915E-02
    9048.361     53.940   4.000  1.03874E+00  9.92572E-01  4.61718E-02
    9049.587     55.165   4.040  1.04401E+00  9.92695E-01  5.13193E-02
    9050.824     56.402   4.080  1.04701E+00  9.92862E-01  5.41506E-02
    9052.074     57.652   4.120  1.04875E+00  9.93075E-01  5.56720E-02
    9053.336     58.914   4.160  1.05052E+00  9.93355E-01  5.71681E-02
    9054.610     60.188   4.200  1.05319E+00  9.93679E-01  5.95113E-02
    9055.896     61.474   4.240  1.05699E+00  9.94068E-01  6.29261E-02
    9057.194     62.773   4.280  1.06167E+00  9.94475E-01  6.71951E-02
    9058.505     64.083   4.320  1.06688E+00  9.94921E-01  7.19587E-02
    9059.828     65.406   4.360  1.07225E+00  9.95404E-01  7.68414E-02
    9061.163     66.741   4.400  1.07733E+00  9.95925E-01  8.14033E-02
    9062.510     68.088   4.440  1.08163E+00  9.96480E-01  8.51539E-02
    9063.870     69.448   4.480  1.08452E+00  9.97046E-01  8.74765E-02
    9065.241     70.819   4.520  1.08541E+00  9.97643E-01  8.77621E-02
    9066.625     72.203   4.560  1.08364E+00  9.98248E-01  8.53946E-02
    9068.021     73.599   4.600  1.07864E+00  9.98882E-01  7.97626E-02
    9069.429     75.007   4.640  1.07013E+00  9.99519E-01  7.06060E-02
    9070.849     76.428   4.680  1.05849E+00  1.00016E+00  5.83270E-02
    9072.282     77.860   4.720  1.04473E+00  1.00080E+00  4.39355E-02
    9073.727     79.305   4.760  1.03023E+00  1.00144E+00  2.87974E-02
    9075.184     80.762   4.800  1.01630E+00  1.00207E+00  1.42253E-02
    9076.653     82.231   4.840  1.00383E+00  1.00271E+00  1.11769E-03
    9078.134     83.712   4.880  9.93231E-01  1.00334E+00 -1.01076E-02
    9079.628     85.206   4.920  9.84529E-01  1.00396E+00 -1.94335E-02
    9081.133     86.711   4.960  9.77483E-01  1.00455E+00 -2.70701E-02
    9082.651     88.229   5.000  9.71807E-01  1.00511E+00 -3.33048E-02
    9084.181     89.759   5.040  9.67219E-01  1.00566E+00 -3.84382E-02
    9085.724     91.302   5.080  9.63442E-01  1.00617E+00 -4.27277E-02
    9087.278     92.856   5.120  9.60346E-01  1.00667E+00 -4.63242E-02
    9088.845     94.423   5.160  9.57893E-01  1.00713E+00 -4.92395E-02
    9090.424     96.002   5.200  9.56169E-01  1.00756E+00 -5.13864E-02
    9092.015     97.593   5.240  9.55207E-01  1.00794E+00 -5.27328E-02
    9093.618     99.196   5.280  9.54947E-01  1.00828E+00 -5.33350E-02
    9095.233    100.811   5.320  9.55243E-01  1.00859E+00 -5.33425E-02
    9096.861    102.439   5.360  9.56020E-01  1.00887E+00 -5.28490E-02
    9098.501    104.079   5.400  9.57283E-01  1.00909E+00 -5.18063E-02
    9100.153    105.731   5.440  9.59300E-01  1.00926E+00 -4.99623E-02
    9101.817    107.395   5.480  9.62421E-01  1.00937E+00 -4.69487E-02
    9103.493    109.072   5.520  9.67000E-01  1.00946E+00 -4.24565E-02
    9105.182    110.760   5.560  9.73010E-01  1.00950E+00 -3.64903E-02
    9106.883    112.461   5.600  9.80042E-01  1.00948E+00 -2.94400E-02
    9108.596    114.174   5.640  9.87486E-01  1.00944E+00 -2.19548E-02
    9110.321    115.899   5.680  9.94669E-01  1.00933E+00 -1.46642E-02
    9112.058    117.636   5.720  1.00115E+00  1.00918E+00 -8.03213E-03
    9113.808    119.386   5.760  1.00665E+00  1.00899E+00 -2.34357E-03
    9115.570    121.148   5.800  1.01093E+00  1.00876E+00  2.17060E-03
    9117.343    122.922   5.840  1.01378E+00  1.00848E+00  5.29521E-03
    9119.130    124.708   5.880  1.01506E+00  1.00817E+00  6.89273E-03
    9120.928    126.506   5.920  1.01480E+00  1.00780E+00  7.00319E-03
    9122.738    128.317   5.960  1.01333E+00  1.00741E+00  5.92037E-03
    9124.561    130.139   6.000  1.01107E+00  1.00696E+00  4.10859E-03
