# # comment:                                                     FEFF 9.9.1  
# # Source:
# # Structure
# # Reduced
# # space
# # abc:
# # angles:
# # sites:
# # POT  SCF 100  7.0000   0, screened core-hole, AFOLP (folp(0)= 1.150)
# # Abs   Z=29 Rmt= 1.185 Rnm= 1.303 K  shell
# # Pot 1 Z=38 Rmt= 1.805 Rnm= 1.872
# # Pot 2 Z=29 Rmt= 1.185 Rnm= 1.303
# # Pot 3 Z= 6 Rmt= 0.682 Rnm= 0.925
# # Pot 4 Z= 8 Rmt= 1.026 Rnm= 1.100
# # Gam_ch=1.729E+00 H-L exch Vi= 0.000E+00 Vr= 0.000E+00
# # Mu=-8.877E+00eV kf=2.204E+00 Vint=-1.774E+01eV Rs_int= 1.645
# FMS rfms= 9.0000
# # PATH  Rmax=-1.000,  Keep_limit= 0.00, Heap_limit 0.00  Pwcrit= 2.50%
#  S02=0.950  Temp=   0.00  Debye_temp=   0.00  Global_sig2= 0.00000
#  Energy zero shift, vr, vi    0.00000E+00   0.00000E+00
#  Curved wave amplitude ratio filter   4.000%
#     file         sig2 tot  cw amp ratio   deg  nlegs   reff  inp sig2
#     0/   0 paths used
#  xsedge+ 50, used to normalize mu           2.4556E-04
#  -----------------------------------------------------------------------
#  omega    e    k    mu    mu0     chi     @#
    8984.767    -12.687  -1.000  4.05291E-02  5.56317E-02 -1.51026E-02
    8985.066    -12.389  -0.960  4.26651E-02  5.97131E-02 -1.70480E-02
    8985.352    -12.102  -0.920  4.49511E-02  6.42510E-02 -1.93000E-02
    8985.627    -11.828  -0.880  4.73999E-02  6.93129E-02 -2.19129E-02
    8985.889    -11.566  -0.840  5.00259E-02  7.49770E-02 -2.49511E-02
    8986.139    -11.316  -0.800  5.28442E-02  8.13343E-02 -2.84901E-02
    8986.377    -11.078  -0.760  5.58716E-02  8.84891E-02 -3.26175E-02
    8986.602    -10.852  -0.720  5.91254E-02  9.65593E-02 -3.74339E-02
    8986.815    -10.639  -0.680  6.26231E-02  1.05675E-01 -4.30514E-02
    8987.017    -10.438  -0.640  6.63815E-02  1.15972E-01 -4.95904E-02
    8987.206    -10.249  -0.600  7.04144E-02  1.27586E-01 -5.71718E-02
    8987.382    -10.072  -0.560  7.47287E-02  1.40632E-01 -6.59033E-02
    8987.547     -9.907  -0.520  7.93200E-02  1.55178E-01 -7.58580E-02
    8987.699     -9.755  -0.480  8.41650E-02  1.71209E-01 -8.70441E-02
    8987.840     -9.615  -0.440  8.92143E-02  1.88585E-01 -9.93704E-02
    8987.968     -9.487  -0.400  9.43862E-02  2.07002E-01 -1.12616E-01
    8988.083     -9.371  -0.360  9.95668E-02  2.25985E-01 -1.26418E-01
    8988.187     -9.267  -0.320  1.04618E-01  2.44915E-01 -1.40296E-01
    8988.278     -9.176  -0.280  1.09394E-01  2.63105E-01 -1.53711E-01
    8988.358     -9.097  -0.240  1.13759E-01  2.79896E-01 -1.66136E-01
    8988.425     -9.030  -0.200  1.17602E-01  2.94733E-01 -1.77131E-01
    8988.480     -8.975  -0.160  1.20839E-01  3.07214E-01 -1.86376E-01
    8988.522     -8.932  -0.120  1.23410E-01  3.17080E-01 -1.93670E-01
    8988.553     -8.902  -0.080  1.25274E-01  3.24186E-01 -1.98913E-01
    8988.577     -8.877   0.000  1.26786E-01  3.29896E-01 -2.03110E-01
    8988.632     -8.822   0.120  1.30325E-01  3.42755E-01 -2.12430E-01
    8988.675     -8.780   0.160  1.33067E-01  3.52758E-01 -2.19691E-01
    8988.730     -8.725   0.200  1.36625E-01  3.65546E-01 -2.28921E-01
    8988.797     -8.658   0.240  1.40996E-01  3.80903E-01 -2.39907E-01
    8988.876     -8.579   0.280  1.46246E-01  3.98542E-01 -2.52296E-01
    8988.967     -8.487   0.320  1.52432E-01  4.17992E-01 -2.65560E-01
    8989.071     -8.383   0.360  1.59709E-01  4.38694E-01 -2.78985E-01
    8989.187     -8.268   0.400  1.68319E-01  4.60052E-01 -2.91733E-01
    8989.315     -8.140   0.440  1.78636E-01  4.81503E-01 -3.02867E-01
    8989.455     -7.999   0.480  1.91140E-01  5.02626E-01 -3.11485E-01
    8989.607     -7.847   0.520  2.06482E-01  5.23132E-01 -3.16650E-01
    8989.772     -7.682   0.560  2.25382E-01  5.42897E-01 -3.17515E-01
    8989.949     -7.506   0.600  2.48550E-01  5.61867E-01 -3.13317E-01
    8990.138     -7.317   0.640  2.76651E-01  5.80099E-01 -3.03448E-01
    8990.339     -7.116   0.680  3.10089E-01  5.97692E-01 -2.87603E-01
    8990.552     -6.902   0.720  3.48509E-01  6.14715E-01 -2.66206E-01
    8990.778     -6.677   0.760  3.90210E-01  6.31256E-01 -2.41046E-01
    8991.016     -6.439   0.800  4.31812E-01  6.47416E-01 -2.15605E-01
    8991.265     -6.189   0.840  4.69138E-01  6.63240E-01 -1.94101E-01
    8991.528     -5.927   0.880  4.99268E-01  6.78798E-01 -1.79530E-01
    8991.802     -5.652   0.920  5.22069E-01  6.94108E-01 -1.72039E-01
    8992.088     -5.366   0.960  5.40417E-01  7.09195E-01 -1.68779E-01
    8992.387     -5.067   1.000  5.57887E-01  7.24053E-01 -1.66166E-01
    8992.698     -4.756   1.040  5.76120E-01  7.38727E-01 -1.62607E-01
    8993.021     -4.433   1.080  5.97945E-01  7.53195E-01 -1.55250E-01
    8993.356     -4.098   1.120  6.28797E-01  7.67404E-01 -1.38607E-01
    8993.704     -3.751   1.160  6.66102E-01  7.81402E-01 -1.15301E-01
    8994.064     -3.391   1.200  6.93518E-01  7.95111E-01 -1.01593E-01
    8994.435     -3.019   1.240  6.99565E-01  8.08549E-01 -1.08984E-01
    8994.819     -2.635   1.280  6.97789E-01  8.21671E-01 -1.23882E-01
    8995.216     -2.239   1.320  7.08108E-01  8.34453E-01 -1.26345E-01
    8995.624     -1.830   1.360  7.34106E-01  8.46869E-01 -1.12763E-01
    8996.045     -1.410   1.400  7.69714E-01  8.58912E-01 -8.91983E-02
    8996.478     -0.977   1.440  8.07778E-01  8.70535E-01 -6.27571E-02
    8996.923     -0.532   1.480  8.47149E-01  8.81731E-01 -3.45823E-02
    8997.380     -0.075   1.520  8.95120E-01  8.92495E-01  2.62477E-03
    8997.849      0.395   1.560  9.48161E-01  9.02782E-01  4.53792E-02
    8998.331      0.876   1.600  9.91055E-01  9.12585E-01  7.84693E-02
    8998.825      1.370   1.640  1.02405E+00  9.21925E-01  1.02128E-01
    8999.330      1.876   1.680  1.06263E+00  9.30759E-01  1.31874E-01
    8999.849      2.394   1.720  1.11672E+00  9.39104E-01  1.77619E-01
    9000.379      2.925   1.760  1.16865E+00  9.46940E-01  2.21709E-01
    9000.922      3.467   1.800  1.18780E+00  9.54271E-01  2.33531E-01
    9001.476      4.022   1.840  1.18400E+00  9.61099E-01  2.22898E-01
    9002.043      4.589   1.880  1.17922E+00  9.67447E-01  2.11769E-01
    9002.622      5.168   1.920  1.17737E+00  9.73321E-01  2.04045E-01
    9003.214      5.759   1.960  1.17748E+00  9.78706E-01  1.98775E-01
    9003.817      6.363   2.000  1.17539E+00  9.83629E-01  1.91766E-01
    9004.433      6.978   2.040  1.16155E+00  9.88096E-01  1.73456E-01
    9005.061      7.606   2.080  1.13558E+00  9.92136E-01  1.43439E-01
    9005.701      8.246   2.120  1.10787E+00  9.95761E-01  1.12105E-01
    9006.353      8.899   2.160  1.08369E+00  9.98997E-01  8.46902E-02
    9007.017      9.563   2.200  1.05618E+00  1.00183E+00  5.43469E-02
    9007.694     10.240   2.240  1.02346E+00  1.00432E+00  1.91365E-02
    9008.383     10.929   2.280  9.98631E-01  1.00645E+00 -7.81835E-03
    9009.084     11.630   2.320  9.94527E-01  1.00825E+00 -1.37213E-02
    9009.797     12.343   2.360  1.01393E+00  1.00977E+00  4.15981E-03
    9010.523     13.068   2.400  1.05245E+00  1.01098E+00  4.14664E-02
    9011.260     13.806   2.440  1.10020E+00  1.01194E+00  8.82579E-02
    9012.010     14.556   2.480  1.14037E+00  1.01265E+00  1.27723E-01
    9012.772     15.318   2.520  1.15293E+00  1.01314E+00  1.39789E-01
    9013.546     16.092   2.560  1.12822E+00  1.01343E+00  1.14787E-01
    9014.333     16.878   2.600  1.08133E+00  1.01352E+00  6.78096E-02
    9015.131     17.677   2.640  1.04560E+00  1.01345E+00  3.21409E-02
    9015.942     18.488   2.680  1.02919E+00  1.01321E+00  1.59784E-02
    9016.765     19.311   2.720  1.02459E+00  1.01284E+00  1.17508E-02
    9017.600     20.146   2.760  1.02359E+00  1.01236E+00  1.12330E-02
    9018.447     20.993   2.800  1.01997E+00  1.01177E+00  8.20453E-03
    9019.307     21.853   2.840  1.01075E+00  1.01106E+00 -3.11591E-04
    9020.179     22.724   2.880  9.96570E-01  1.01030E+00 -1.37321E-02
    9021.063     23.608   2.920  9.79987E-01  1.00949E+00 -2.94993E-02
    9021.959     24.504   2.960  9.63962E-01  1.00860E+00 -4.46379E-02
    9022.867     25.413   3.000  9.51102E-01  1.00767E+00 -5.65689E-02
    9023.788     26.333   3.040  9.42593E-01  1.00670E+00 -6.41116E-02
    9024.720     27.266   3.080  9.38351E-01  1.00573E+00 -6.73769E-02
    9025.665     28.211   3.120  9.37565E-01  1.00475E+00 -6.71801E-02
    9026.622     29.168   3.160  9.39188E-01  1.00376E+00 -6.45736E-02
    9027.591     30.137   3.200  9.42651E-01  1.00278E+00 -6.01283E-02
    9028.573     31.118   3.240  9.47749E-01  1.00182E+00 -5.40750E-02
    9029.567     32.112   3.280  9.54017E-01  1.00088E+00 -4.68597E-02
    9030.572     33.118   3.320  9.60963E-01  9.99941E-01 -3.89781E-02
    9031.590     34.136   3.360  9.68521E-01  9.99062E-01 -3.05404E-02
    9032.621     35.166   3.400  9.76596E-01  9.98221E-01 -2.16251E-02
    9033.663     36.209   3.440  9.84527E-01  9.97399E-01 -1.28713E-02
    9034.718     37.263   3.480  9.91200E-01  9.96639E-01 -5.43829E-03
    9035.784     38.330   3.520  9.95210E-01  9.95923E-01 -7.12482E-04
    9036.863     39.409   3.560  9.95468E-01  9.95251E-01  2.16932E-04
    9037.955     40.500   3.600  9.91748E-01  9.94647E-01 -2.89889E-03
    9039.058     41.603   3.640  9.84626E-01  9.94089E-01 -9.46329E-03
    9040.173     42.719   3.680  9.75358E-01  9.93579E-01 -1.82209E-02
    9041.301     43.847   3.720  9.65268E-01  9.93137E-01 -2.78692E-02
    9042.441     44.987   3.760  9.55724E-01  9.92744E-01 -3.70203E-02
    9043.593     46.139   3.800  9.48172E-01  9.92422E-01 -4.42500E-02
    9044.758     47.303   3.840  9.43699E-01  9.92149E-01 -4.84494E-02
    9045.934     48.480   3.880  9.42728E-01  9.91947E-01 -4.92184E-02
    9047.123     49.668   3.920  9.44899E-01  9.91815E-01 -4.69157E-02
    9048.324     50.869   3.960  9.49280E-01  9.91710E-01 -4.24304E-02
    9049.537     52.082   4.000  9.55034E-01  9.91694E-01 -3.66595E-02
    9050.762     53.308   4.040  9.61506E-01  9.91703E-01 -3.01977E-02
    9052.000     54.545   4.080  9.68589E-01  9.91780E-01 -2.31908E-02
    9053.249     55.795   4.120  9.76399E-01  9.91903E-01 -1.55037E-02
    9054.511     57.057   4.160  9.85291E-01  9.92090E-01 -6.79925E-03
    9055.785     58.331   4.200  9.95422E-01  9.92300E-01  3.12235E-03
    9057.072     59.617   4.240  1.00669E+00  9.92571E-01  1.41168E-02
    9058.370     60.916   4.280  1.01856E+00  9.92883E-01  2.56800E-02
    9059.681     62.226   4.320  1.03027E+00  9.93212E-01  3.70533E-02
    9061.003     63.549   4.360  1.04107E+00  9.93600E-01  4.74716E-02
    9062.338     64.884   4.400  1.05039E+00  9.94002E-01  5.63836E-02
    9063.686     66.231   4.440  1.05793E+00  9.94439E-01  6.34920E-02
    9065.045     67.591   4.480  1.06341E+00  9.94908E-01  6.84998E-02
    9066.417     68.962   4.520  1.06626E+00  9.95388E-01  7.08670E-02
    9067.800     70.346   4.560  1.06577E+00  9.95898E-01  6.98707E-02
    9069.196     71.742   4.600  1.06136E+00  9.96413E-01  6.49427E-02
    9070.605     73.150   4.640  1.05299E+00  9.96933E-01  5.60610E-02
    9072.025     74.571   4.680  1.04136E+00  9.97480E-01  4.38806E-02
    9073.458     76.003   4.720  1.02775E+00  9.98029E-01  2.97250E-02
    9074.902     77.448   4.760  1.01383E+00  9.98578E-01  1.52535E-02
    9076.359     78.905   4.800  1.00125E+00  9.99124E-01  2.12382E-03
    9077.828     80.374   4.840  9.91096E-01  9.99643E-01 -8.54720E-03
    9079.310     81.855   4.880  9.83535E-01  1.00018E+00 -1.66453E-02
    9080.803     83.349   4.920  9.77661E-01  1.00069E+00 -2.30281E-02
    9082.309     84.854   4.960  9.72322E-01  1.00117E+00 -2.88457E-02
    9083.827     86.372   5.000  9.66973E-01  1.00166E+00 -3.46872E-02
    9085.357     87.902   5.040  9.62032E-01  1.00212E+00 -4.00894E-02
    9086.899     89.445   5.080  9.58763E-01  1.00255E+00 -4.37832E-02
    9088.454     90.999   5.120  9.58514E-01  1.00294E+00 -4.44218E-02
    9090.020     92.566   5.160  9.62100E-01  1.00331E+00 -4.12124E-02
    9091.599     94.145   5.200  9.69600E-01  1.00366E+00 -3.40552E-02
    9093.190     95.736   5.240  9.80571E-01  1.00398E+00 -2.34116E-02
    9094.793     97.339   5.280  9.94179E-01  1.00425E+00 -1.00702E-02
    9096.409     98.954   5.320  1.00947E+00  1.00450E+00  4.96708E-03
    9098.036    100.582   5.360  1.02517E+00  1.00471E+00  2.04665E-02
    9099.676    102.222   5.400  1.03973E+00  1.00485E+00  3.48794E-02
    9101.328    103.874   5.440  1.05144E+00  1.00498E+00  4.64621E-02
    9102.993    105.538   5.480  1.05883E+00  1.00506E+00  5.37703E-02
    9104.669    107.214   5.520  1.06131E+00  1.00509E+00  5.62216E-02
    9106.357    108.903   5.560  1.05924E+00  1.00509E+00  5.41496E-02
    9108.058    110.604   5.600  1.05331E+00  1.00505E+00  4.82569E-02
    9109.771    112.317   5.640  1.04410E+00  1.00495E+00  3.91546E-02
    9111.496    114.042   5.680  1.03221E+00  1.00483E+00  2.73783E-02
    9113.234    115.779   5.720  1.01833E+00  1.00464E+00  1.36825E-02
    9114.983    117.529   5.760  1.00367E+00  1.00444E+00 -7.66956E-04
    9116.745    119.291   5.800  9.89571E-01  1.00418E+00 -1.46082E-02
    9118.519    121.065   5.840  9.77256E-01  1.00390E+00 -2.66449E-02
    9120.305    122.851   5.880  9.67489E-01  1.00359E+00 -3.60969E-02
    9122.103    124.649   5.920  9.60346E-01  1.00321E+00 -4.28654E-02
    9123.914    126.459   5.960  9.55865E-01  1.00283E+00 -4.69614E-02
    9125.737    128.282   6.000  9.54298E-01  1.00238E+00 -4.80840E-02
