# # comment:                                                     FEFF 9.9.1  
# # Source:
# # Structure
# # Reduced
# # space
# # abc:
# # angles:
# # sites:
# # POT  SCF 100  7.0000   0, screened core-hole, AFOLP (folp(0)= 1.150)
# # Abs   Z=29 Rmt= 1.187 Rnm= 1.278 K  shell
# # Pot 1 Z=12 Rmt= 1.373 Rnm= 1.452
# # Pot 2 Z=27 Rmt= 1.084 Rnm= 1.282
# # Pot 3 Z=29 Rmt= 1.158 Rnm= 1.275
# # Pot 4 Z= 8 Rmt= 0.951 Rnm= 1.101
# # Gam_ch=1.729E+00 H-L exch Vi= 0.000E+00 Vr= 0.000E+00
# # Mu=-9.452E+00eV kf=2.217E+00 Vint=-1.640E+01eV Rs_int= 1.636
# FMS rfms= 9.0000
# # PATH  Rmax=-1.000,  Keep_limit= 0.00, Heap_limit 0.00  Pwcrit= 2.50%
#  S02=0.950  Temp=   0.00  Debye_temp=   0.00  Global_sig2= 0.00000
#  Energy zero shift, vr, vi    0.00000E+00   0.00000E+00
#  Curved wave amplitude ratio filter   4.000%
#     file         sig2 tot  cw amp ratio   deg  nlegs   reff  inp sig2
#     0/   0 paths used
#  xsedge+ 50, used to normalize mu           2.4468E-04
#  -----------------------------------------------------------------------
#  omega    e    k    mu    mu0     chi     @#
    8984.171    -13.262  -1.000  3.16110E-02  5.22643E-02 -2.06533E-02
    8984.470    -12.963  -0.960  3.31322E-02  5.59533E-02 -2.28211E-02
    8984.756    -12.677  -0.920  3.47798E-02  6.00401E-02 -2.52603E-02
    8985.031    -12.403  -0.880  3.65723E-02  6.45820E-02 -2.80097E-02
    8985.293    -12.140  -0.840  3.85321E-02  6.96454E-02 -3.11134E-02
    8985.543    -11.890  -0.800  4.06853E-02  7.53071E-02 -3.46218E-02
    8985.781    -11.653  -0.760  4.30630E-02  8.16549E-02 -3.85920E-02
    8986.006    -11.427  -0.720  4.57009E-02  8.87879E-02 -4.30871E-02
    8986.220    -11.214  -0.680  4.86394E-02  9.68149E-02 -4.81754E-02
    8986.421    -11.013  -0.640  5.19223E-02  1.05850E-01 -5.39280E-02
    8986.610    -10.824  -0.600  5.55932E-02  1.16006E-01 -6.04128E-02
    8986.786    -10.647  -0.560  5.96904E-02  1.27377E-01 -6.76867E-02
    8986.951    -10.482  -0.520  6.42377E-02  1.40019E-01 -7.57813E-02
    8987.103    -10.330  -0.480  6.92314E-02  1.53917E-01 -8.46853E-02
    8987.244    -10.190  -0.440  7.46254E-02  1.68949E-01 -9.43236E-02
    8987.372    -10.062  -0.400  8.03192E-02  1.84858E-01 -1.04539E-01
    8987.487     -9.946  -0.360  8.61546E-02  2.01241E-01 -1.15086E-01
    8987.591     -9.842  -0.320  9.19274E-02  2.17572E-01 -1.25645E-01
    8987.683     -9.751  -0.280  9.74157E-02  2.33269E-01 -1.35854E-01
    8987.762     -9.672  -0.240  1.02415E-01  2.47769E-01 -1.45354E-01
    8987.829     -9.604  -0.200  1.06765E-01  2.60596E-01 -1.53831E-01
    8987.884     -9.550  -0.160  1.10367E-01  2.71400E-01 -1.61032E-01
    8987.926     -9.507  -0.120  1.13172E-01  2.79951E-01 -1.66778E-01
    8987.957     -9.476  -0.080  1.15169E-01  2.86119E-01 -1.70950E-01
    8987.981     -9.452   0.000  1.16761E-01  2.91081E-01 -1.74320E-01
    8988.036     -9.397   0.120  1.20297E-01  3.02269E-01 -1.81972E-01
    8988.079     -9.355   0.160  1.22953E-01  3.10987E-01 -1.88034E-01
    8988.134     -9.300   0.200  1.26222E-01  3.22142E-01 -1.95919E-01
    8988.201     -9.233   0.240  1.29932E-01  3.35604E-01 -2.05673E-01
    8988.280     -9.153   0.280  1.33874E-01  3.51140E-01 -2.17266E-01
    8988.371     -9.062   0.320  1.37743E-01  3.68398E-01 -2.30655E-01
    8988.475     -8.958   0.360  1.41161E-01  3.86895E-01 -2.45734E-01
    8988.591     -8.842   0.400  1.43838E-01  4.06200E-01 -2.62363E-01
    8988.719     -8.714   0.440  1.45521E-01  4.25838E-01 -2.80317E-01
    8988.859     -8.574   0.480  1.46124E-01  4.45492E-01 -2.99368E-01
    8989.011     -8.422   0.520  1.45736E-01  4.64887E-01 -3.19152E-01
    8989.176     -8.257   0.560  1.44750E-01  4.83964E-01 -3.39215E-01
    8989.353     -8.080   0.600  1.43712E-01  5.02670E-01 -3.58957E-01
    8989.542     -7.891   0.640  1.43410E-01  5.21027E-01 -3.77617E-01
    8989.743     -7.690   0.680  1.44762E-01  5.39112E-01 -3.94350E-01
    8989.956     -7.477   0.720  1.48576E-01  5.56966E-01 -4.08390E-01
    8990.182     -7.251   0.760  1.55522E-01  5.74671E-01 -4.19149E-01
    8990.420     -7.014   0.800  1.65991E-01  5.92258E-01 -4.26267E-01
    8990.670     -6.764   0.840  1.80307E-01  6.09788E-01 -4.29481E-01
    8990.932     -6.502   0.880  1.98620E-01  6.27247E-01 -4.28626E-01
    8991.206     -6.227   0.920  2.20815E-01  6.44649E-01 -4.23834E-01
    8991.493     -5.941   0.960  2.45813E-01  6.62020E-01 -4.16207E-01
    8991.791     -5.642   1.000  2.70974E-01  6.79313E-01 -4.08339E-01
    8992.102     -5.331   1.040  2.92824E-01  6.96515E-01 -4.03691E-01
    8992.425     -5.008   1.080  3.07755E-01  7.13585E-01 -4.05830E-01
    8992.760     -4.673   1.120  3.14301E-01  7.30520E-01 -4.16219E-01
    8993.108     -4.325   1.160  3.16932E-01  7.47248E-01 -4.30316E-01
    8993.468     -3.966   1.200  3.22872E-01  7.63716E-01 -4.40844E-01
    8993.839     -3.594   1.240  3.34555E-01  7.79932E-01 -4.45376E-01
    8994.224     -3.210   1.280  3.51061E-01  7.95797E-01 -4.44736E-01
    8994.620     -2.814   1.320  3.70998E-01  8.11275E-01 -4.40276E-01
    8995.028     -2.405   1.360  3.91768E-01  8.26348E-01 -4.34580E-01
    8995.449     -1.984   1.400  4.12181E-01  8.40982E-01 -4.28801E-01
    8995.882     -1.552   1.440  4.35327E-01  8.55100E-01 -4.19773E-01
    8996.327     -1.107   1.480  4.64642E-01  8.68688E-01 -4.04046E-01
    8996.784     -0.649   1.520  4.98290E-01  8.81732E-01 -3.83442E-01
    8997.253     -0.180   1.560  5.33432E-01  8.94183E-01 -3.60751E-01
    8997.735      0.302   1.600  5.72392E-01  9.06031E-01 -3.33639E-01
    8998.229      0.795   1.640  6.20304E-01  9.17269E-01 -2.96965E-01
    8998.735      1.301   1.680  6.82364E-01  9.27853E-01 -2.45489E-01
    8999.253      1.819   1.720  7.63270E-01  9.37821E-01 -1.74551E-01
    8999.783      2.350   1.760  8.63545E-01  9.47131E-01 -8.35866E-02
    9000.326      2.892   1.800  9.80873E-01  9.55805E-01  2.50679E-02
    9000.880      3.447   1.840  1.11773E+00  9.63825E-01  1.53902E-01
    9001.447      4.014   1.880  1.27623E+00  9.71238E-01  3.04989E-01
    9002.026      4.593   1.920  1.44197E+00  9.78031E-01  4.63942E-01
    9002.618      5.184   1.960  1.58327E+00  9.84210E-01  5.99058E-01
    9003.221      5.788   2.000  1.67420E+00  9.89807E-01  6.84396E-01
    9003.837      6.404   2.040  1.69979E+00  9.94851E-01  7.04943E-01
    9004.465      7.031   2.080  1.66022E+00  9.99334E-01  6.60885E-01
    9005.105      7.672   2.120  1.58200E+00  1.00333E+00  5.78675E-01
    9005.757      8.324   2.160  1.49003E+00  1.00681E+00  4.83220E-01
    9006.422      8.988   2.200  1.39712E+00  1.00982E+00  3.87298E-01
    9007.098      9.665   2.240  1.31283E+00  1.01239E+00  3.00441E-01
    9007.787     10.354   2.280  1.24291E+00  1.01454E+00  2.28370E-01
    9008.488     11.055   2.320  1.18669E+00  1.01631E+00  1.70386E-01
    9009.201     11.768   2.360  1.14310E+00  1.01771E+00  1.25391E-01
    9009.927     12.493   2.400  1.11608E+00  1.01878E+00  9.72990E-02
    9010.664     13.231   2.440  1.10699E+00  1.01955E+00  8.74335E-02
    9011.414     13.981   2.480  1.10930E+00  1.02004E+00  8.92634E-02
    9012.176     14.743   2.520  1.11347E+00  1.02025E+00  9.32260E-02
    9012.950     15.517   2.560  1.11190E+00  1.02024E+00  9.16666E-02
    9013.737     16.303   2.600  1.10432E+00  1.02002E+00  8.42976E-02
    9014.535     17.102   2.640  1.09402E+00  1.01962E+00  7.43929E-02
    9015.346     17.913   2.680  1.08120E+00  1.01904E+00  6.21606E-02
    9016.169     18.736   2.720  1.06482E+00  1.01832E+00  4.64974E-02
    9017.004     19.571   2.760  1.04560E+00  1.01748E+00  2.81171E-02
    9017.852     20.418   2.800  1.02476E+00  1.01654E+00  8.22074E-03
    9018.711     21.278   2.840  1.00386E+00  1.01549E+00 -1.16325E-02
    9019.583     22.149   2.880  9.84057E-01  1.01437E+00 -3.03081E-02
    9020.467     23.033   2.920  9.65897E-01  1.01321E+00 -4.73123E-02
    9021.363     23.930   2.960  9.49522E-01  1.01199E+00 -6.24668E-02
    9022.271     24.838   3.000  9.34936E-01  1.01073E+00 -7.57961E-02
    9023.192     25.758   3.040  9.22018E-01  1.00949E+00 -8.74688E-02
    9024.124     26.691   3.080  9.10759E-01  1.00822E+00 -9.74566E-02
    9025.069     27.636   3.120  9.00870E-01  1.00694E+00 -1.06074E-01
    9026.026     28.593   3.160  8.92106E-01  1.00568E+00 -1.13574E-01
    9026.995     29.562   3.200  8.84551E-01  1.00447E+00 -1.19917E-01
    9027.977     30.544   3.240  8.78374E-01  1.00327E+00 -1.24897E-01
    9028.971     31.537   3.280  8.73786E-01  1.00211E+00 -1.28325E-01
    9029.976     32.543   3.320  8.70952E-01  1.00099E+00 -1.30040E-01
    9030.994     33.561   3.360  8.70197E-01  9.99917E-01 -1.29720E-01
    9032.025     34.591   3.400  8.71464E-01  9.98909E-01 -1.27445E-01
    9033.067     35.634   3.440  8.74643E-01  9.97952E-01 -1.23309E-01
    9034.122     36.688   3.480  8.79574E-01  9.97066E-01 -1.17492E-01
    9035.188     37.755   3.520  8.85961E-01  9.96234E-01 -1.10273E-01
    9036.267     38.834   3.560  8.93482E-01  9.95498E-01 -1.02016E-01
    9037.359     39.925   3.600  9.01837E-01  9.94817E-01 -9.29791E-02
    9038.462     41.029   3.640  9.10764E-01  9.94190E-01 -8.34260E-02
    9039.578     42.144   3.680  9.19871E-01  9.93662E-01 -7.37910E-02
    9040.705     43.272   3.720  9.28789E-01  9.93214E-01 -6.44245E-02
    9041.845     44.412   3.760  9.37441E-01  9.92822E-01 -5.53808E-02
    9042.997     45.564   3.800  9.46069E-01  9.92529E-01 -4.64608E-02
    9044.162     46.728   3.840  9.54963E-01  9.92293E-01 -3.73303E-02
    9045.338     47.905   3.880  9.64567E-01  9.92133E-01 -2.75663E-02
    9046.527     49.094   3.920  9.75132E-01  9.92049E-01 -1.69166E-02
    9047.728     50.295   3.960  9.86571E-01  9.92018E-01 -5.44699E-03
    9048.941     51.508   4.000  9.98567E-01  9.92062E-01  6.50460E-03
    9050.166     52.733   4.040  1.01065E+00  9.92182E-01  1.84634E-02
    9051.404     53.970   4.080  1.02222E+00  9.92377E-01  2.98431E-02
    9052.653     55.220   4.120  1.03277E+00  9.92622E-01  4.01491E-02
    9053.915     56.482   4.160  1.04202E+00  9.92935E-01  4.90821E-02
    9055.189     57.756   4.200  1.04979E+00  9.93274E-01  5.65122E-02
    9056.476     59.042   4.240  1.05612E+00  9.93701E-01  6.24172E-02
    9057.774     60.341   4.280  1.06113E+00  9.94151E-01  6.69762E-02
    9059.085     61.651   4.320  1.06505E+00  9.94665E-01  7.03819E-02
    9060.408     62.974   4.360  1.06798E+00  9.95198E-01  7.27840E-02
    9061.743     64.309   4.400  1.07011E+00  9.95790E-01  7.43234E-02
    9063.090     65.656   4.440  1.07152E+00  9.96397E-01  7.51203E-02
    9064.449     67.016   4.480  1.07225E+00  9.97038E-01  7.52121E-02
    9065.821     68.387   4.520  1.07237E+00  9.97712E-01  7.46587E-02
    9067.205     69.771   4.560  1.07199E+00  9.98395E-01  7.36003E-02
    9068.601     71.167   4.600  1.07123E+00  9.99083E-01  7.21470E-02
    9070.009     72.575   4.640  1.07004E+00  9.99797E-01  7.02472E-02
    9071.429     73.996   4.680  1.06819E+00  1.00052E+00  6.76779E-02
    9072.862     75.428   4.720  1.06530E+00  1.00124E+00  6.40629E-02
    9074.306     76.873   4.760  1.06112E+00  1.00195E+00  5.91642E-02
    9075.763     78.330   4.800  1.05574E+00  1.00267E+00  5.30707E-02
    9077.232     79.799   4.840  1.04951E+00  1.00338E+00  4.61235E-02
    9078.714     81.280   4.880  1.04279E+00  1.00409E+00  3.86980E-02
    9080.207     82.774   4.920  1.03571E+00  1.00476E+00  3.09517E-02
    9081.713     84.280   4.960  1.02821E+00  1.00540E+00  2.28025E-02
    9083.231     85.798   5.000  1.02015E+00  1.00603E+00  1.41187E-02
    9084.761     87.328   5.040  1.01151E+00  1.00662E+00  4.88981E-03
    9086.303     88.870   5.080  1.00251E+00  1.00720E+00 -4.69244E-03
    9087.858     90.424   5.120  9.93390E-01  1.00772E+00 -1.43301E-02
    9089.424     91.991   5.160  9.84425E-01  1.00822E+00 -2.37944E-02
    9091.003     93.570   5.200  9.75721E-01  1.00868E+00 -3.29575E-02
    9092.594     95.161   5.240  9.67400E-01  1.00907E+00 -4.16737E-02
    9094.198     96.764   5.280  9.59838E-01  1.00945E+00 -4.96098E-02
    9095.813     98.380   5.320  9.53505E-01  1.00978E+00 -5.62744E-02
    9097.441    100.007   5.360  9.48847E-01  1.01004E+00 -6.11968E-02
    9099.080    101.647   5.400  9.46127E-01  1.01026E+00 -6.41354E-02
    9100.732    103.299   5.440  9.45391E-01  1.01044E+00 -6.50446E-02
    9102.397    104.963   5.480  9.46575E-01  1.01056E+00 -6.39886E-02
    9104.073    106.640   5.520  9.49610E-01  1.01062E+00 -6.10123E-02
    9105.762    108.328   5.560  9.54457E-01  1.01064E+00 -5.61782E-02
    9107.462    110.029   5.600  9.61072E-01  1.01060E+00 -4.95321E-02
    9109.175    111.742   5.640  9.69396E-01  1.01053E+00 -4.11301E-02
    9110.900    113.467   5.680  9.79264E-01  1.01038E+00 -3.11165E-02
    9112.638    115.205   5.720  9.90212E-01  1.01019E+00 -1.99771E-02
    9114.387    116.954   5.760  1.00128E+00  1.00996E+00 -8.67242E-03
    9116.149    118.716   5.800  1.01111E+00  1.00968E+00  1.42942E-03
    9117.923    120.490   5.840  1.01835E+00  1.00937E+00  8.98206E-03
    9119.709    122.276   5.880  1.02216E+00  1.00899E+00  1.31759E-02
    9121.507    124.074   5.920  1.02261E+00  1.00859E+00  1.40211E-02
    9123.318    125.885   5.960  1.02025E+00  1.00814E+00  1.21200E-02
    9125.141    127.707   6.000  1.01573E+00  1.00761E+00  8.12154E-03
