# # comment:                                                     FEFF 9.9.1  
# # Source:
# # Structure
# # Reduced
# # space
# # abc:
# # angles:108.861272
# # sites:
# # POT  SCF 100  7.0000   0, screened core-hole, AFOLP (folp(0)= 1.150)
# # Abs   Z=29 Rmt= 1.221 Rnm= 1.284 K  shell
# # Pot 1 Z= 3 Rmt= 1.221 Rnm= 1.276
# # Pot 2 Z=27 Rmt= 1.173 Rnm= 1.299
# # Pot 3 Z=29 Rmt= 1.221 Rnm= 1.284
# # Pot 4 Z= 8 Rmt= 1.046 Rnm= 1.104
# # Gam_ch=1.729E+00 H-L exch Vi= 0.000E+00 Vr= 0.000E+00
# # Mu=-9.195E+00eV kf=2.187E+00 Vint=-1.677E+01eV Rs_int= 1.658
# FMS rfms= 9.0000
# # PATH  Rmax=-1.000,  Keep_limit= 0.00, Heap_limit 0.00  Pwcrit= 2.50%
#  S02=0.950  Temp=   0.00  Debye_temp=   0.00  Global_sig2= 0.00000
#  Energy zero shift, vr, vi    0.00000E+00   0.00000E+00
#  Curved wave amplitude ratio filter   4.000%
#     file         sig2 tot  cw amp ratio   deg  nlegs   reff  inp sig2
#     0/   0 paths used
#  xsedge+ 50, used to normalize mu           2.4494E-04
#  -----------------------------------------------------------------------
#  omega    e    k    mu    mu0     chi     @#
    8984.356    -13.005  -1.000  2.88992E-02  5.19784E-02 -2.30792E-02
    8984.655    -12.706  -0.960  3.00274E-02  5.56725E-02 -2.56452E-02
    8984.942    -12.420  -0.920  3.12164E-02  5.97690E-02 -2.85526E-02
    8985.216    -12.145  -0.880  3.24730E-02  6.43262E-02 -3.18532E-02
    8985.478    -11.883  -0.840  3.38046E-02  6.94118E-02 -3.56072E-02
    8985.728    -11.633  -0.800  3.52204E-02  7.51044E-02 -3.98840E-02
    8985.966    -11.396  -0.760  3.67307E-02  8.14939E-02 -4.47632E-02
    8986.191    -11.170  -0.720  3.83474E-02  8.86816E-02 -5.03342E-02
    8986.405    -10.957  -0.680  4.00838E-02  9.67790E-02 -5.66952E-02
    8986.606    -10.755  -0.640  4.19540E-02  1.05904E-01 -6.39496E-02
    8986.795    -10.566  -0.600  4.39716E-02  1.16170E-01 -7.21988E-02
    8986.971    -10.390  -0.560  4.61480E-02  1.27677E-01 -8.15294E-02
    8987.136    -10.225  -0.520  4.84892E-02  1.40482E-01 -9.19927E-02
    8987.288    -10.073  -0.480  5.09914E-02  1.54569E-01 -1.03578E-01
    8987.429     -9.932  -0.440  5.36365E-02  1.69817E-01 -1.16180E-01
    8987.557     -9.804  -0.400  5.63870E-02  1.85961E-01 -1.29574E-01
    8987.673     -9.689  -0.360  5.91847E-02  2.02590E-01 -1.43405E-01
    8987.776     -9.585  -0.320  6.19535E-02  2.19169E-01 -1.57215E-01
    8987.868     -9.494  -0.280  6.46069E-02  2.35102E-01 -1.70495E-01
    8987.947     -9.414  -0.240  6.70593E-02  2.49815E-01 -1.82755E-01
    8988.014     -9.347  -0.200  6.92361E-02  2.62825E-01 -1.93589E-01
    8988.069     -9.292  -0.160  7.10800E-02  2.73778E-01 -2.02698E-01
    8988.111     -9.250  -0.120  7.25523E-02  2.82444E-01 -2.09891E-01
    8988.142     -9.219  -0.080  7.36301E-02  2.88691E-01 -2.15061E-01
    8988.166     -9.195   0.000  7.45349E-02  2.93714E-01 -2.19179E-01
    8988.221     -9.140   0.120  7.65565E-02  3.05042E-01 -2.28486E-01
    8988.264     -9.097   0.160  7.80531E-02  3.13852E-01 -2.35799E-01
    8988.319     -9.042   0.200  7.99207E-02  3.25129E-01 -2.45208E-01
    8988.386     -8.975   0.240  8.21261E-02  3.38715E-01 -2.56589E-01
    8988.465     -8.896   0.280  8.45852E-02  3.54380E-01 -2.69795E-01
    8988.556     -8.805   0.320  8.72017E-02  3.71714E-01 -2.84512E-01
    8988.660     -8.701   0.360  8.98389E-02  3.90275E-01 -3.00436E-01
    8988.776     -8.585   0.400  9.24366E-02  4.09547E-01 -3.17110E-01
    8988.904     -8.457   0.440  9.49454E-02  4.29078E-01 -3.34133E-01
    8989.044     -8.317   0.480  9.74131E-02  4.48517E-01 -3.51104E-01
    8989.196     -8.165   0.520  9.99119E-02  4.67598E-01 -3.67686E-01
    8989.361     -8.000   0.560  1.02472E-01  4.86240E-01 -3.83767E-01
    8989.538     -7.823   0.600  1.04983E-01  5.04390E-01 -3.99407E-01
    8989.727     -7.634   0.640  1.07291E-01  5.22117E-01 -4.14826E-01
    8989.928     -7.433   0.680  1.09285E-01  5.39458E-01 -4.30173E-01
    8990.141     -7.220   0.720  1.11196E-01  5.56484E-01 -4.45288E-01
    8990.367     -6.994   0.760  1.13567E-01  5.73262E-01 -4.59695E-01
    8990.605     -6.756   0.800  1.17089E-01  5.89871E-01 -4.72783E-01
    8990.855     -6.507   0.840  1.22291E-01  6.06339E-01 -4.84048E-01
    8991.117     -6.244   0.880  1.29563E-01  6.22701E-01 -4.93138E-01
    8991.391     -5.970   0.920  1.38933E-01  6.38998E-01 -5.00065E-01
    8991.678     -5.684   0.960  1.49937E-01  6.55199E-01 -5.05262E-01
    8991.976     -5.385   1.000  1.61865E-01  6.71328E-01 -5.09463E-01
    8992.287     -5.074   1.040  1.74469E-01  6.87356E-01 -5.12887E-01
    8992.610     -4.751   1.080  1.89034E-01  7.03270E-01 -5.14237E-01
    8992.946     -4.416   1.120  2.08578E-01  7.19032E-01 -5.10453E-01
    8993.293     -4.068   1.160  2.35490E-01  7.34637E-01 -4.99147E-01
    8993.653     -3.708   1.200  2.67297E-01  7.50039E-01 -4.82742E-01
    8994.025     -3.337   1.240  2.97147E-01  7.65187E-01 -4.68040E-01
    8994.409     -2.953   1.280  3.22367E-01  7.80071E-01 -4.57705E-01
    8994.805     -2.556   1.320  3.48103E-01  7.94659E-01 -4.46556E-01
    8995.213     -2.148   1.360  3.80266E-01  8.08875E-01 -4.28610E-01
    8995.634     -1.727   1.400  4.21099E-01  8.22730E-01 -4.01631E-01
    8996.067     -1.294   1.440  4.68720E-01  8.36167E-01 -3.67447E-01
    8996.512     -0.849   1.480  5.20383E-01  8.49158E-01 -3.28775E-01
    8996.969     -0.392   1.520  5.74810E-01  8.61668E-01 -2.86859E-01
    8997.438      0.077   1.560  6.30615E-01  8.73711E-01 -2.43096E-01
    8997.920      0.559   1.600  6.93994E-01  8.85216E-01 -1.91222E-01
    8998.414      1.052   1.640  7.79084E-01  8.96196E-01 -1.17112E-01
    8998.920      1.558   1.680  8.88672E-01  9.06648E-01 -1.79764E-02
    8999.438      2.077   1.720  1.00753E+00  9.16527E-01  9.10047E-02
    8999.968      2.607   1.760  1.12508E+00  9.25872E-01  1.99205E-01
    9000.511      3.149   1.800  1.24194E+00  9.34641E-01  3.07304E-01
    9001.065      3.704   1.840  1.35246E+00  9.42836E-01  4.09625E-01
    9001.632      4.271   1.880  1.46585E+00  9.50500E-01  5.15349E-01
    9002.211      4.850   1.920  1.58931E+00  9.57597E-01  6.31713E-01
    9002.803      5.442   1.960  1.71543E+00  9.64151E-01  7.51280E-01
    9003.406      6.045   2.000  1.82706E+00  9.70190E-01  8.56870E-01
    9004.022      6.661   2.040  1.88808E+00  9.75702E-01  9.12381E-01
    9004.650      7.289   2.080  1.87405E+00  9.80715E-01  8.93336E-01
    9005.290      7.929   2.120  1.78772E+00  9.85259E-01  8.02464E-01
    9005.942      8.581   2.160  1.64369E+00  9.89322E-01  6.54367E-01
    9006.607      9.245   2.200  1.47654E+00  9.92958E-01  4.83578E-01
    9007.283      9.922   2.240  1.31972E+00  9.96176E-01  3.23541E-01
    9007.972     10.611   2.280  1.18805E+00  9.98988E-01  1.89066E-01
    9008.673     11.312   2.320  1.08411E+00  1.00143E+00  8.26823E-02
    9009.386     12.025   2.360  1.00595E+00  1.00352E+00  2.42788E-03
    9010.112     12.751   2.400  9.52096E-01  1.00526E+00 -5.31671E-02
    9010.849     13.488   2.440  9.21280E-01  1.00673E+00 -8.54482E-02
    9011.599     14.238   2.480  9.08269E-01  1.00788E+00 -9.96142E-02
    9012.361     15.000   2.520  9.04354E-01  1.00878E+00 -1.04428E-01
    9013.135     15.774   2.560  9.04827E-01  1.00943E+00 -1.04608E-01
    9013.922     16.561   2.600  9.14994E-01  1.00987E+00 -9.48796E-02
    9014.720     17.359   2.640  9.31457E-01  1.01011E+00 -7.86504E-02
    9015.531     18.170   2.680  9.47671E-01  1.01015E+00 -6.24740E-02
    9016.354     18.993   2.720  9.60145E-01  1.01004E+00 -4.98940E-02
    9017.189     19.828   2.760  9.67261E-01  1.00978E+00 -4.25175E-02
    9018.037     20.675   2.800  9.68595E-01  1.00939E+00 -4.07980E-02
    9018.896     21.535   2.840  9.64769E-01  1.00891E+00 -4.41408E-02
    9019.768     22.407   2.880  9.56985E-01  1.00832E+00 -5.13316E-02
    9020.652     23.291   2.920  9.45932E-01  1.00766E+00 -6.17298E-02
    9021.548     24.187   2.960  9.31761E-01  1.00693E+00 -7.51707E-02
    9022.456     25.095   3.000  9.14233E-01  1.00613E+00 -9.18994E-02
    9023.377     26.015   3.040  8.93834E-01  1.00531E+00 -1.11478E-01
    9024.309     26.948   3.080  8.72367E-01  1.00446E+00 -1.32089E-01
    9025.254     27.893   3.120  8.52196E-01  1.00359E+00 -1.51393E-01
    9026.211     28.850   3.160  8.35240E-01  1.00270E+00 -1.67455E-01
    9027.181     29.819   3.200  8.22968E-01  1.00182E+00 -1.78856E-01
    9028.162     30.801   3.240  8.15914E-01  1.00096E+00 -1.85041E-01
    9029.156     31.794   3.280  8.13815E-01  1.00009E+00 -1.86278E-01
    9030.161     32.800   3.320  8.16120E-01  9.99261E-01 -1.83142E-01
    9031.179     33.818   3.360  8.22195E-01  9.98464E-01 -1.76269E-01
    9032.210     34.849   3.400  8.30735E-01  9.97685E-01 -1.66950E-01
    9033.252     35.891   3.440  8.40856E-01  9.96966E-01 -1.56110E-01
    9034.307     36.946   3.480  8.52072E-01  9.96289E-01 -1.44217E-01
    9035.374     38.012   3.520  8.64312E-01  9.95655E-01 -1.31342E-01
    9036.452     39.091   3.560  8.77805E-01  9.95067E-01 -1.17262E-01
    9037.544     40.183   3.600  8.93138E-01  9.94546E-01 -1.01409E-01
    9038.647     41.286   3.640  9.10715E-01  9.94074E-01 -8.33591E-02
    9039.763     42.401   3.680  9.30592E-01  9.93671E-01 -6.30784E-02
    9040.890     43.529   3.720  9.52477E-01  9.93316E-01 -4.08393E-02
    9042.030     44.669   3.760  9.75985E-01  9.93011E-01 -1.70262E-02
    9043.182     45.821   3.800  1.00067E+00  9.92799E-01  7.87457E-03
    9044.347     46.986   3.840  1.02603E+00  9.92616E-01  3.34106E-02
    9045.523     48.162   3.880  1.05154E+00  9.92526E-01  5.90166E-02
    9046.712     49.351   3.920  1.07629E+00  9.92464E-01  8.38290E-02
    9047.913     50.552   3.960  1.09933E+00  9.92493E-01  1.06838E-01
    9049.126     51.765   4.000  1.11977E+00  9.92551E-01  1.27217E-01
    9050.351     52.990   4.040  1.13704E+00  9.92698E-01  1.44343E-01
    9051.589     54.228   4.080  1.15046E+00  9.92871E-01  1.57586E-01
    9052.838     55.477   4.120  1.15941E+00  9.93112E-01  1.66295E-01
    9054.100     56.739   4.160  1.16318E+00  9.93399E-01  1.69784E-01
    9055.374     58.013   4.200  1.16135E+00  9.93750E-01  1.67604E-01
    9056.661     59.299   4.240  1.15401E+00  9.94121E-01  1.59887E-01
    9057.959     60.598   4.280  1.14202E+00  9.94554E-01  1.47464E-01
    9059.270     61.909   4.320  1.12661E+00  9.95005E-01  1.31601E-01
    9060.593     63.231   4.360  1.10924E+00  9.95494E-01  1.13743E-01
    9061.928     64.566   4.400  1.09128E+00  9.96041E-01  9.52360E-02
    9063.275     65.914   4.440  1.07363E+00  9.96600E-01  7.70328E-02
    9064.634     67.273   4.480  1.05685E+00  9.97170E-01  5.96805E-02
    9066.006     68.645   4.520  1.04121E+00  9.97772E-01  4.34372E-02
    9067.390     70.028   4.560  1.02675E+00  9.98404E-01  2.83482E-02
    9068.786     71.424   4.600  1.01341E+00  9.99041E-01  1.43725E-02
    9070.194     72.833   4.640  1.00119E+00  9.99681E-01  1.50837E-03
    9071.614     74.253   4.680  9.90097E-01  1.00032E+00 -1.02274E-02
    9073.047     75.685   4.720  9.80006E-01  1.00099E+00 -2.09840E-02
    9074.491     77.130   4.760  9.70621E-01  1.00163E+00 -3.10102E-02
    9075.948     78.587   4.800  9.61804E-01  1.00227E+00 -4.04643E-02
    9077.417     80.056   4.840  9.53703E-01  1.00290E+00 -4.91992E-02
    9078.899     81.538   4.880  9.46893E-01  1.00353E+00 -5.66365E-02
    9080.392     83.031   4.920  9.42110E-01  1.00413E+00 -6.20180E-02
    9081.898     84.537   4.960  9.40022E-01  1.00472E+00 -6.46952E-02
    9083.416     86.055   5.000  9.40856E-01  1.00529E+00 -6.44381E-02
    9084.946     87.585   5.040  9.44244E-01  1.00582E+00 -6.15717E-02
    9086.488     89.127   5.080  9.49492E-01  1.00632E+00 -5.68319E-02
    9088.043     90.682   5.120  9.55708E-01  1.00682E+00 -5.11080E-02
    9089.609     92.248   5.160  9.62213E-01  1.00725E+00 -4.50364E-02
    9091.188     93.827   5.200  9.68773E-01  1.00766E+00 -3.88898E-02
    9092.779     95.418   5.240  9.75303E-01  1.00801E+00 -3.27107E-02
    9094.383     97.021   5.280  9.81912E-01  1.00835E+00 -2.64329E-02
    9095.998     98.637   5.320  9.88542E-01  1.00861E+00 -2.00710E-02
    9097.626    100.264   5.360  9.95094E-01  1.00886E+00 -1.37652E-02
    9099.265    101.904   5.400  1.00109E+00  1.00904E+00 -7.95119E-03
    9100.917    103.556   5.440  1.00587E+00  1.00918E+00 -3.30548E-03
    9102.582    105.220   5.480  1.00862E+00  1.00927E+00 -6.47279E-04
    9104.258    106.897   5.520  1.00859E+00  1.00932E+00 -7.28131E-04
    9105.947    108.585   5.560  1.00534E+00  1.00933E+00 -3.98640E-03
    9107.647    110.286   5.600  9.98966E-01  1.00927E+00 -1.03008E-02
    9109.360    111.999   5.640  9.90242E-01  1.00918E+00 -1.89419E-02
    9111.086    113.724   5.680  9.80324E-01  1.00904E+00 -2.87123E-02
    9112.823    115.462   5.720  9.70606E-01  1.00884E+00 -3.82371E-02
    9114.572    117.211   5.760  9.62280E-01  1.00861E+00 -4.63268E-02
    9116.334    118.973   5.800  9.56023E-01  1.00831E+00 -5.22842E-02
    9118.108    120.747   5.840  9.52033E-01  1.00799E+00 -5.59581E-02
    9119.894    122.533   5.880  9.50106E-01  1.00764E+00 -5.75309E-02
    9121.693    124.331   5.920  9.50062E-01  1.00722E+00 -5.71606E-02
    9123.503    126.142   5.960  9.52089E-01  1.00680E+00 -5.47076E-02
    9125.326    127.965   6.000  9.57026E-01  1.00631E+00 -4.92803E-02
