# # comment:                                                     FEFF 9.9.1  
# # Source:
# # Structure
# # Reduced
# # space
# # abc:
# # angles:
# # sites:
# # POT  SCF 100  7.0000   0, screened core-hole, AFOLP (folp(0)= 1.150)
# # Abs   Z=29 Rmt= 1.256 Rnm= 1.369 K  shell
# # Pot 1 Z=29 Rmt= 1.224 Rnm= 1.362
# # Pot 2 Z= 8 Rmt= 0.995 Rnm= 1.103
# # Pot 3 Z= 9 Rmt= 1.047 Rnm= 1.133
# # Gam_ch=1.729E+00 H-L exch Vi= 0.000E+00 Vr= 0.000E+00
# # Mu=-7.007E+00eV kf=1.951E+00 Vint=-1.294E+01eV Rs_int= 1.859
# FMS rfms= 9.0000
# # PATH  Rmax=-1.000,  Keep_limit= 0.00, Heap_limit 0.00  Pwcrit= 2.50%
#  S02=0.950  Temp=   0.00  Debye_temp=   0.00  Global_sig2= 0.00000
#  Energy zero shift, vr, vi    0.00000E+00   0.00000E+00
#  Curved wave amplitude ratio filter   4.000%
#     file         sig2 tot  cw amp ratio   deg  nlegs   reff  inp sig2
#     0/   0 paths used
#  xsedge+ 50, used to normalize mu           2.4255E-04
#  -----------------------------------------------------------------------
#  omega    e    k    mu    mu0     chi     @#
    8983.336    -10.817  -1.000  3.67078E-02  5.45999E-02 -1.78922E-02
    8983.635    -10.518  -0.960  3.84541E-02  5.84821E-02 -2.00280E-02
    8983.921    -10.231  -0.920  4.03135E-02  6.27816E-02 -2.24682E-02
    8984.195     -9.957  -0.880  4.22969E-02  6.75581E-02 -2.52612E-02
    8984.458     -9.695  -0.840  4.44169E-02  7.28804E-02 -2.84635E-02
    8984.707     -9.445  -0.800  4.66880E-02  7.88281E-02 -3.21401E-02
    8984.945     -9.207  -0.760  4.91265E-02  8.54922E-02 -3.63658E-02
    8985.171     -8.982  -0.720  5.17507E-02  9.29752E-02 -4.12245E-02
    8985.384     -8.768  -0.680  5.45806E-02  1.01389E-01 -4.68087E-02
    8985.585     -8.567  -0.640  5.76367E-02  1.10852E-01 -5.32157E-02
    8985.774     -8.378  -0.600  6.09385E-02  1.21480E-01 -6.05413E-02
    8985.951     -8.201  -0.560  6.45007E-02  1.33369E-01 -6.88682E-02
    8986.116     -8.037  -0.520  6.83284E-02  1.46576E-01 -7.82476E-02
    8986.268     -7.884  -0.480  7.24095E-02  1.61085E-01 -8.86753E-02
    8986.408     -7.744  -0.440  7.67066E-02  1.76769E-01 -1.00063E-01
    8986.536     -7.616  -0.400  8.11497E-02  1.93362E-01 -1.12213E-01
    8986.652     -7.500  -0.360  8.56346E-02  2.10447E-01 -1.24812E-01
    8986.756     -7.397  -0.320  9.00299E-02  2.27479E-01 -1.37450E-01
    8986.847     -7.305  -0.280  9.41923E-02  2.43856E-01 -1.49664E-01
    8986.926     -7.226  -0.240  9.79876E-02  2.58991E-01 -1.61004E-01
    8986.993     -7.159  -0.200  1.01308E-01  2.72390E-01 -1.71082E-01
    8987.048     -7.104  -0.160  1.04078E-01  2.83683E-01 -1.79605E-01
    8987.091     -7.062  -0.120  1.06257E-01  2.92628E-01 -1.86371E-01
    8987.121     -7.031  -0.080  1.07824E-01  2.99084E-01 -1.91260E-01
    8987.146     -7.007   0.000  1.09092E-01  3.04279E-01 -1.95187E-01
    8987.201     -6.952   0.120  1.11939E-01  3.16024E-01 -2.04085E-01
    8987.243     -6.909   0.160  1.14078E-01  3.25174E-01 -2.11096E-01
    8987.298     -6.854   0.200  1.16769E-01  3.36899E-01 -2.20130E-01
    8987.365     -6.787   0.240  1.19938E-01  3.51056E-01 -2.31118E-01
    8987.445     -6.708   0.280  1.23532E-01  3.67461E-01 -2.43929E-01
    8987.536     -6.617   0.320  1.27449E-01  3.85705E-01 -2.58256E-01
    8987.640     -6.513   0.360  1.31658E-01  4.05392E-01 -2.73734E-01
    8987.755     -6.397   0.400  1.36165E-01  4.26008E-01 -2.89843E-01
    8987.883     -6.269   0.440  1.41113E-01  4.47099E-01 -3.05987E-01
    8988.024     -6.129   0.480  1.46722E-01  4.68347E-01 -3.21625E-01
    8988.176     -5.976   0.520  1.53221E-01  4.89512E-01 -3.36291E-01
    8988.341     -5.812   0.560  1.60749E-01  5.10428E-01 -3.49679E-01
    8988.517     -5.635   0.600  1.69516E-01  5.31095E-01 -3.61579E-01
    8988.706     -5.446   0.640  1.79839E-01  5.51531E-01 -3.71692E-01
    8988.908     -5.245   0.680  1.92173E-01  5.71738E-01 -3.79565E-01
    8989.121     -5.032   0.720  2.07199E-01  5.91770E-01 -3.84571E-01
    8989.346     -4.806   0.760  2.25545E-01  6.11675E-01 -3.86130E-01
    8989.584     -4.568   0.800  2.47392E-01  6.31492E-01 -3.84100E-01
    8989.834     -4.318   0.840  2.72075E-01  6.51185E-01 -3.79110E-01
    8990.096     -4.056   0.880  2.98468E-01  6.70767E-01 -3.72299E-01
    8990.371     -3.782   0.920  3.26082E-01  6.90238E-01 -3.64156E-01
    8990.657     -3.495   0.960  3.55855E-01  7.09546E-01 -3.53691E-01
    8990.956     -3.197   1.000  3.89234E-01  7.28630E-01 -3.39396E-01
    8991.267     -2.886   1.040  4.26497E-01  7.47484E-01 -3.20987E-01
    8991.590     -2.563   1.080  4.66929E-01  7.66012E-01 -2.99083E-01
    8991.925     -2.227   1.120  5.10273E-01  7.84178E-01 -2.73905E-01
    8992.273     -1.880   1.160  5.55271E-01  8.01900E-01 -2.46628E-01
    8992.632     -1.520   1.200  5.97048E-01  8.19137E-01 -2.22089E-01
    8993.004     -1.148   1.240  6.29939E-01  8.35827E-01 -2.05888E-01
    8993.388     -0.764   1.280  6.54920E-01  8.51908E-01 -1.96988E-01
    8993.784     -0.368   1.320  6.74620E-01  8.67342E-01 -1.92721E-01
    8994.193      0.040   1.360  6.89873E-01  8.82088E-01 -1.92215E-01
    8994.613      0.461   1.400  7.08837E-01  8.96113E-01 -1.87276E-01
    8995.046      0.894   1.440  7.44411E-01  9.09364E-01 -1.64953E-01
    8995.491      1.339   1.480  8.02660E-01  9.21832E-01 -1.19172E-01
    8995.948      1.796   1.520  8.75839E-01  9.33489E-01 -5.76504E-02
    8996.418      2.265   1.560  9.50398E-01  9.44336E-01  6.06128E-03
    8996.899      2.747   1.600  1.02675E+00  9.54393E-01  7.23615E-02
    8997.393      3.241   1.640  1.11059E+00  9.63623E-01  1.46963E-01
    8997.899      3.747   1.680  1.19408E+00  9.72072E-01  2.22003E-01
    8998.417      4.265   1.720  1.26622E+00  9.79731E-01  2.86485E-01
    8998.948      4.795   1.760  1.32521E+00  9.86652E-01  3.38562E-01
    8999.490      5.338   1.800  1.37783E+00  9.92808E-01  3.85026E-01
    9000.045      5.892   1.840  1.43458E+00  9.98295E-01  4.36283E-01
    9000.612      6.459   1.880  1.48767E+00  1.00309E+00  4.84579E-01
    9001.191      7.038   1.920  1.50299E+00  1.00725E+00  4.95737E-01
    9001.782      7.630   1.960  1.46426E+00  1.01080E+00  4.53466E-01
    9002.386      8.233   2.000  1.40034E+00  1.01381E+00  3.86529E-01
    9003.001      8.849   2.040  1.33749E+00  1.01626E+00  3.21229E-01
    9003.629      9.477   2.080  1.27640E+00  1.01824E+00  2.58153E-01
    9004.269     10.117   2.120  1.21086E+00  1.01977E+00  1.91091E-01
    9004.922     10.769   2.160  1.14461E+00  1.02090E+00  1.23713E-01
    9005.586     11.434   2.200  1.08831E+00  1.02164E+00  6.66733E-02
    9006.263     12.110   2.240  1.04610E+00  1.02205E+00  2.40460E-02
    9006.952     12.799   2.280  1.01728E+00  1.02215E+00 -4.87748E-03
    9007.653     13.500   2.320  1.00115E+00  1.02199E+00 -2.08426E-02
    9008.366     14.213   2.360  9.95755E-01  1.02159E+00 -2.58316E-02
    9009.091     14.939   2.400  9.98314E-01  1.02097E+00 -2.26561E-02
    9009.829     15.676   2.440  1.00214E+00  1.02018E+00 -1.80447E-02
    9010.579     16.426   2.480  1.00698E+00  1.01923E+00 -1.22471E-02
    9011.341     17.188   2.520  1.01298E+00  1.01817E+00 -5.19689E-03
    9012.115     17.962   2.560  1.01976E+00  1.01700E+00  2.76399E-03
    9012.901     18.749   2.600  1.02614E+00  1.01575E+00  1.03983E-02
    9013.700     19.547   2.640  1.03048E+00  1.01442E+00  1.60670E-02
    9014.511     20.358   2.680  1.03093E+00  1.01307E+00  1.78599E-02
    9015.334     21.181   2.720  1.02662E+00  1.01168E+00  1.49411E-02
    9016.169     22.016   2.760  1.01773E+00  1.01029E+00  7.43729E-03
    9017.016     22.864   2.800  1.00494E+00  1.00893E+00 -3.98372E-03
    9017.876     23.723   2.840  9.89392E-01  1.00755E+00 -1.81570E-02
    9018.747     24.595   2.880  9.72418E-01  1.00623E+00 -3.38085E-02
    9019.631     25.479   2.920  9.54886E-01  1.00494E+00 -5.00588E-02
    9020.527     26.375   2.960  9.37695E-01  1.00371E+00 -6.60135E-02
    9021.436     27.283   3.000  9.21644E-01  1.00252E+00 -8.08776E-02
    9022.356     28.204   3.040  9.07253E-01  1.00141E+00 -9.41557E-02
    9023.289     29.136   3.080  8.95012E-01  1.00040E+00 -1.05383E-01
    9024.234     30.081   3.120  8.85231E-01  9.99440E-01 -1.14210E-01
    9025.191     31.038   3.160  8.78062E-01  9.98566E-01 -1.20503E-01
    9026.160     32.008   3.200  8.73561E-01  9.97775E-01 -1.24213E-01
    9027.142     32.989   3.240  8.71799E-01  9.97071E-01 -1.25273E-01
    9028.135     33.983   3.280  8.72827E-01  9.96476E-01 -1.23648E-01
    9029.141     34.988   3.320  8.76742E-01  9.95968E-01 -1.19226E-01
    9030.159     36.007   3.360  8.83424E-01  9.95571E-01 -1.12147E-01
    9031.189     37.037   3.400  8.92678E-01  9.95262E-01 -1.02584E-01
    9032.232     38.079   3.440  9.04210E-01  9.95041E-01 -9.08309E-02
    9033.286     39.134   3.480  9.17722E-01  9.94930E-01 -7.72082E-02
    9034.353     40.201   3.520  9.32735E-01  9.94905E-01 -6.21704E-02
    9035.432     41.280   3.560  9.48640E-01  9.94966E-01 -4.63254E-02
    9036.523     42.371   3.600  9.64691E-01  9.95112E-01 -3.04213E-02
    9037.627     43.474   3.640  9.80046E-01  9.95363E-01 -1.53173E-02
    9038.742     44.590   3.680  9.93865E-01  9.95677E-01 -1.81163E-03
    9039.870     45.717   3.720  1.00578E+00  9.96094E-01  9.68939E-03
    9041.010     46.857   3.760  1.01586E+00  9.96590E-01  1.92728E-02
    9042.162     48.009   3.800  1.02452E+00  9.97143E-01  2.73783E-02
    9043.326     49.174   3.840  1.03224E+00  9.97770E-01  3.44747E-02
    9044.503     50.350   3.880  1.03937E+00  9.98469E-01  4.09044E-02
    9045.692     51.539   3.920  1.04601E+00  9.99218E-01  4.67935E-02
    9046.892     52.740   3.960  1.05211E+00  1.00001E+00  5.20929E-02
    9048.106     53.953   4.000  1.05748E+00  1.00088E+00  5.66074E-02
    9049.331     55.178   4.040  1.06175E+00  1.00178E+00  5.99699E-02
    9050.568     56.416   4.080  1.06433E+00  1.00270E+00  6.16285E-02
    9051.818     57.666   4.120  1.06476E+00  1.00368E+00  6.10740E-02
    9053.080     58.927   4.160  1.06286E+00  1.00467E+00  5.81825E-02
    9054.354     60.201   4.200  1.05913E+00  1.00570E+00  5.34306E-02
    9055.640     61.488   4.240  1.05455E+00  1.00673E+00  4.78213E-02
    9056.939     62.786   4.280  1.05027E+00  1.00779E+00  4.24850E-02
    9058.249     64.097   4.320  1.04724E+00  1.00882E+00  3.84137E-02
    9059.572     65.420   4.360  1.04611E+00  1.00988E+00  3.62317E-02
    9060.907     66.755   4.400  1.04699E+00  1.01094E+00  3.60499E-02
    9062.254     68.102   4.440  1.04940E+00  1.01196E+00  3.74314E-02
    9063.614     69.461   4.480  1.05256E+00  1.01298E+00  3.95750E-02
    9064.985     70.833   4.520  1.05564E+00  1.01396E+00  4.16724E-02
    9066.369     72.217   4.560  1.05819E+00  1.01491E+00  4.32821E-02
    9067.765     73.613   4.600  1.06017E+00  1.01584E+00  4.43277E-02
    9069.173     75.021   4.640  1.06160E+00  1.01673E+00  4.48723E-02
    9070.594     76.441   4.680  1.06241E+00  1.01758E+00  4.48307E-02
    9072.026     77.874   4.720  1.06223E+00  1.01839E+00  4.38429E-02
    9073.471     79.318   4.760  1.06052E+00  1.01915E+00  4.13674E-02
    9074.928     80.775   4.800  1.05672E+00  1.01985E+00  3.68742E-02
    9076.397     82.244   4.840  1.05059E+00  1.02051E+00  3.00740E-02
    9077.878     83.726   4.880  1.04225E+00  1.02109E+00  2.11655E-02
    9079.372     85.219   4.920  1.03245E+00  1.02163E+00  1.08232E-02
    9080.878     86.725   4.960  1.02201E+00  1.02210E+00 -9.30680E-05
    9082.395     88.243   5.000  1.01161E+00  1.02250E+00 -1.08857E-02
    9083.926     89.773   5.040  1.00157E+00  1.02282E+00 -2.12457E-02
    9085.468     91.315   5.080  9.91944E-01  1.02310E+00 -3.11600E-02
    9087.022     92.870   5.120  9.82689E-01  1.02330E+00 -4.06061E-02
    9088.589     94.436   5.160  9.74114E-01  1.02343E+00 -4.93168E-02
    9090.168     96.015   5.200  9.66734E-01  1.02349E+00 -5.67575E-02
    9091.759     97.606   5.240  9.61116E-01  1.02350E+00 -6.23825E-02
    9093.362     99.210   5.280  9.57576E-01  1.02343E+00 -6.58539E-02
    9094.978    100.825   5.320  9.56065E-01  1.02329E+00 -6.72215E-02
    9096.605    102.453   5.360  9.56295E-01  1.02309E+00 -6.67985E-02
    9098.245    104.092   5.400  9.57930E-01  1.02285E+00 -6.49201E-02
    9099.897    105.744   5.440  9.60748E-01  1.02254E+00 -6.17881E-02
    9101.561    107.409   5.480  9.64679E-01  1.02217E+00 -5.74922E-02
    9103.238    109.085   5.520  9.69724E-01  1.02174E+00 -5.20144E-02
    9104.926    110.774   5.560  9.76020E-01  1.02128E+00 -4.52626E-02
    9106.627    112.474   5.600  9.83444E-01  1.02076E+00 -3.73167E-02
    9108.340    114.187   5.640  9.91592E-01  1.02019E+00 -2.86026E-02
    9110.065    115.913   5.680  9.99924E-01  1.01959E+00 -1.96621E-02
    9111.802    117.650   5.720  1.00814E+00  1.01894E+00 -1.08027E-02
    9113.552    119.399   5.760  1.01624E+00  1.01825E+00 -2.01881E-03
    9115.314    121.161   5.800  1.02428E+00  1.01753E+00  6.74491E-03
    9117.088    122.935   5.840  1.03205E+00  1.01681E+00  1.52454E-02
    9118.874    124.721   5.880  1.03886E+00  1.01605E+00  2.28025E-02
    9120.672    126.520   5.920  1.04382E+00  1.01531E+00  2.85172E-02
    9122.483    128.330   5.960  1.04624E+00  1.01457E+00  3.16769E-02
    9124.305    130.153   6.000  1.04580E+00  1.01378E+00  3.20126E-02
