# # comment:                                                     FEFF 9.9.1  
# # Source:
# # Structure
# # Reduced
# # space
# # abc:
# # angles:
# # sites:
# # POT  SCF 100  7.0000   0, screened core-hole, AFOLP (folp(0)= 1.150)
# # Abs   Z=29 Rmt= 1.153 Rnm= 1.301 K  shell
# # Pot 1 Z=57 Rmt= 1.749 Rnm= 1.834
# # Pot 2 Z=29 Rmt= 1.182 Rnm= 1.322
# # Pot 3 Z=42 Rmt= 1.188 Rnm= 1.364
# # Pot 4 Z= 8 Rmt= 1.047 Rnm= 1.115
# # Gam_ch=1.729E+00 H-L exch Vi= 0.000E+00 Vr= 0.000E+00
# # Mu=-8.104E+00eV kf=2.060E+00 Vint=-1.727E+01eV Rs_int= 1.761
# FMS rfms= 9.0000
# # PATH  Rmax=-1.000,  Keep_limit= 0.00, Heap_limit 0.00  Pwcrit= 2.50%
#  S02=0.950  Temp=   0.00  Debye_temp=   0.00  Global_sig2= 0.00000
#  Energy zero shift, vr, vi    0.00000E+00   0.00000E+00
#  Curved wave amplitude ratio filter   4.000%
#     file         sig2 tot  cw amp ratio   deg  nlegs   reff  inp sig2
#     0/   0 paths used
#  xsedge+ 50, used to normalize mu           2.4775E-04
#  -----------------------------------------------------------------------
#  omega    e    k    mu    mu0     chi     @#
    8984.139    -11.914  -1.000  3.95136E-02  5.23935E-02 -1.28799E-02
    8984.437    -11.616  -0.960  4.17722E-02  5.61684E-02 -1.43963E-02
    8984.724    -11.329  -0.920  4.42283E-02  6.03614E-02 -1.61330E-02
    8984.998    -11.055  -0.880  4.69071E-02  6.50338E-02 -1.81267E-02
    8985.260    -10.793  -0.840  4.98374E-02  7.02572E-02 -2.04198E-02
    8985.510    -10.543  -0.800  5.30526E-02  7.61144E-02 -2.30618E-02
    8985.748    -10.305  -0.760  5.65907E-02  8.27007E-02 -2.61100E-02
    8985.973    -10.080  -0.720  6.04945E-02  9.01235E-02 -2.96291E-02
    8986.187     -9.866  -0.680  6.48107E-02  9.85011E-02 -3.36905E-02
    8986.388     -9.665  -0.640  6.95883E-02  1.07959E-01 -3.83702E-02
    8986.577     -9.476  -0.600  7.48748E-02  1.18618E-01 -4.37436E-02
    8986.754     -9.299  -0.560  8.07092E-02  1.30585E-01 -4.98761E-02
    8986.918     -9.135  -0.520  8.71117E-02  1.43921E-01 -5.68097E-02
    8987.071     -8.982  -0.480  9.40697E-02  1.58613E-01 -6.45431E-02
    8987.211     -8.842  -0.440  1.01521E-01  1.74530E-01 -7.30099E-02
    8987.339     -8.714  -0.400  1.09338E-01  1.91397E-01 -8.20594E-02
    8987.455     -8.598  -0.360  1.17328E-01  2.08778E-01 -9.14508E-02
    8987.558     -8.495  -0.320  1.25240E-01  2.26108E-01 -1.00869E-01
    8987.650     -8.403  -0.280  1.32799E-01  2.42760E-01 -1.09961E-01
    8987.729     -8.324  -0.240  1.39742E-01  2.58128E-01 -1.18386E-01
    8987.796     -8.257  -0.200  1.45854E-01  2.71710E-01 -1.25856E-01
    8987.851     -8.202  -0.160  1.50980E-01  2.83134E-01 -1.32154E-01
    8987.894     -8.159  -0.120  1.55026E-01  2.92164E-01 -1.37138E-01
    8987.924     -8.129  -0.080  1.57943E-01  2.98669E-01 -1.40726E-01
    8987.949     -8.104   0.000  1.60302E-01  3.03895E-01 -1.43593E-01
    8988.003     -8.050   0.120  1.65486E-01  3.15690E-01 -1.50204E-01
    8988.046     -8.007   0.160  1.69480E-01  3.24843E-01 -1.55363E-01
    8988.101     -7.952   0.200  1.74581E-01  3.36553E-01 -1.61972E-01
    8988.168     -7.885   0.240  1.80649E-01  3.50602E-01 -1.69953E-01
    8988.247     -7.806   0.280  1.87648E-01  3.66768E-01 -1.79120E-01
    8988.339     -7.714   0.320  1.95429E-01  3.84601E-01 -1.89171E-01
    8988.442     -7.611   0.360  2.03894E-01  4.03590E-01 -1.99696E-01
    8988.558     -7.495   0.400  2.13003E-01  4.23193E-01 -2.10190E-01
    8988.686     -7.367   0.440  2.22769E-01  4.42894E-01 -2.20125E-01
    8988.826     -7.227   0.480  2.33266E-01  4.62311E-01 -2.29045E-01
    8988.979     -7.074   0.520  2.44566E-01  4.81221E-01 -2.36655E-01
    8989.143     -6.910   0.560  2.56607E-01  4.99452E-01 -2.42845E-01
    8989.320     -6.733   0.600  2.69406E-01  5.17013E-01 -2.47606E-01
    8989.509     -6.544   0.640  2.82965E-01  5.33941E-01 -2.50976E-01
    8989.710     -6.343   0.680  2.97144E-01  5.50327E-01 -2.53183E-01
    8989.924     -6.129   0.720  3.11548E-01  5.66254E-01 -2.54706E-01
    8990.149     -5.904   0.760  3.25978E-01  5.81806E-01 -2.55828E-01
    8990.387     -5.666   0.800  3.41054E-01  5.97055E-01 -2.56001E-01
    8990.637     -5.416   0.840  3.58184E-01  6.12083E-01 -2.53899E-01
    8990.899     -5.154   0.880  3.78441E-01  6.26917E-01 -2.48476E-01
    8991.173     -4.880   0.920  4.01901E-01  6.41634E-01 -2.39732E-01
    8991.460     -4.593   0.960  4.28148E-01  6.56216E-01 -2.28069E-01
    8991.759     -4.294   1.000  4.57217E-01  6.70718E-01 -2.13501E-01
    8992.069     -3.984   1.040  4.90092E-01  6.85125E-01 -1.95033E-01
    8992.393     -3.660   1.080  5.30170E-01  6.99412E-01 -1.69242E-01
    8992.728     -3.325   1.120  5.83344E-01  7.13610E-01 -1.30266E-01
    8993.075     -2.978   1.160  6.52916E-01  7.27668E-01 -7.47526E-02
    8993.435     -2.618   1.200  7.29866E-01  7.41608E-01 -1.17421E-02
    8993.807     -2.246   1.240  7.88926E-01  7.55386E-01  3.35393E-02
    8994.191     -1.862   1.280  8.07077E-01  7.68981E-01  3.80962E-02
    8994.587     -1.466   1.320  7.84740E-01  7.82363E-01  2.37690E-03
    8994.996     -1.057   1.360  7.38335E-01  7.95509E-01 -5.71739E-02
    8995.416     -0.637   1.400  6.88025E-01  8.08389E-01 -1.20364E-01
    8995.849     -0.204   1.440  6.56338E-01  8.20994E-01 -1.64656E-01
    8996.294      0.241   1.480  6.56894E-01  8.33276E-01 -1.76382E-01
    8996.751      0.698   1.520  6.83070E-01  8.45246E-01 -1.62176E-01
    8997.221      1.168   1.560  7.15923E-01  8.56835E-01 -1.40912E-01
    8997.702      1.649   1.600  7.44897E-01  8.68054E-01 -1.23157E-01
    8998.196      2.143   1.640  7.76379E-01  8.78877E-01 -1.02498E-01
    8998.702      2.649   1.680  8.20633E-01  8.89276E-01 -6.86434E-02
    8999.220      3.167   1.720  8.78869E-01  8.99268E-01 -2.03987E-02
    8999.750      3.697   1.760  9.40662E-01  9.08805E-01  3.18566E-02
    9000.293      4.240   1.800  9.87088E-01  9.17885E-01  6.92024E-02
    9000.848      4.795   1.840  1.00400E+00  9.26527E-01  7.74759E-02
    9001.415      5.362   1.880  9.94413E-01  9.34707E-01  5.97059E-02
    9001.994      5.941   1.920  9.73708E-01  9.42425E-01  3.12828E-02
    9002.585      6.532   1.960  9.55481E-01  9.49662E-01  5.81914E-03
    9003.189      7.136   2.000  9.48930E-01  9.56440E-01 -7.50946E-03
    9003.804      7.751   2.040  9.62154E-01  9.62782E-01 -6.27692E-04
    9004.432      8.379   2.080  9.95545E-01  9.68651E-01  2.68946E-02
    9005.072      9.019   2.120  1.04539E+00  9.74090E-01  7.12960E-02
    9005.724      9.671   2.160  1.10676E+00  9.79087E-01  1.27677E-01
    9006.389     10.336   2.200  1.16970E+00  9.83666E-01  1.86035E-01
    9007.066     11.013   2.240  1.21916E+00  9.87833E-01  2.31324E-01
    9007.754     11.701   2.280  1.24806E+00  9.91595E-01  2.56466E-01
    9008.455     12.402   2.320  1.26069E+00  9.94982E-01  2.65710E-01
    9009.169     13.116   2.360  1.25897E+00  9.98000E-01  2.60971E-01
    9009.894     13.841   2.400  1.24077E+00  1.00066E+00  2.40109E-01
    9010.632     14.579   2.440  1.21421E+00  1.00300E+00  2.11208E-01
    9011.382     15.329   2.480  1.19245E+00  1.00500E+00  1.87449E-01
    9012.144     16.091   2.520  1.17381E+00  1.00671E+00  1.67105E-01
    9012.918     16.865   2.560  1.15240E+00  1.00813E+00  1.44268E-01
    9013.704     17.651   2.600  1.12852E+00  1.00929E+00  1.19227E-01
    9014.503     18.450   2.640  1.10521E+00  1.01019E+00  9.50224E-02
    9015.313     19.260   2.680  1.08373E+00  1.01086E+00  7.28649E-02
    9016.136     20.083   2.720  1.06468E+00  1.01133E+00  5.33529E-02
    9016.972     20.919   2.760  1.04826E+00  1.01159E+00  3.66649E-02
    9017.819     21.766   2.800  1.03411E+00  1.01166E+00  2.24567E-02
    9018.678     22.625   2.840  1.02220E+00  1.01156E+00  1.06408E-02
    9019.550     23.497   2.880  1.01265E+00  1.01130E+00  1.35028E-03
    9020.434     24.381   2.920  1.00526E+00  1.01093E+00 -5.66758E-03
    9021.330     25.277   2.960  9.99522E-01  1.01042E+00 -1.08935E-02
    9022.238     26.185   3.000  9.94414E-01  1.00978E+00 -1.53702E-02
    9023.159     27.106   3.040  9.88515E-01  1.00906E+00 -2.05478E-02
    9024.092     28.039   3.080  9.80696E-01  1.00826E+00 -2.75626E-02
    9025.036     28.983   3.120  9.70900E-01  1.00740E+00 -3.64971E-02
    9025.994     29.941   3.160  9.59853E-01  1.00646E+00 -4.66097E-02
    9026.963     30.910   3.200  9.48564E-01  1.00546E+00 -5.68962E-02
    9027.944     31.891   3.240  9.38032E-01  1.00444E+00 -6.64050E-02
    9028.938     32.885   3.280  9.28615E-01  1.00338E+00 -7.47630E-02
    9029.944     33.891   3.320  9.20207E-01  1.00231E+00 -8.21007E-02
    9030.962     34.909   3.360  9.12553E-01  1.00121E+00 -8.86572E-02
    9031.992     35.939   3.400  9.05736E-01  1.00011E+00 -9.43710E-02
    9033.034     36.981   3.440  8.99783E-01  9.99025E-01 -9.92411E-02
    9034.089     38.036   3.480  8.94773E-01  9.97926E-01 -1.03152E-01
    9035.156     39.103   3.520  8.90864E-01  9.96855E-01 -1.05990E-01
    9036.235     40.182   3.560  8.88105E-01  9.95814E-01 -1.07709E-01
    9037.326     41.273   3.600  8.86449E-01  9.94787E-01 -1.08338E-01
    9038.429     42.376   3.640  8.86046E-01  9.93815E-01 -1.07769E-01
    9039.545     43.492   3.680  8.87084E-01  9.92859E-01 -1.05775E-01
    9040.673     44.620   3.720  8.89792E-01  9.91941E-01 -1.02149E-01
    9041.813     45.760   3.760  8.94440E-01  9.91061E-01 -9.66216E-02
    9042.965     46.912   3.800  9.01325E-01  9.90225E-01 -8.89006E-02
    9044.129     48.076   3.840  9.10684E-01  9.89454E-01 -7.87693E-02
    9045.306     49.253   3.880  9.22480E-01  9.88705E-01 -6.62244E-02
    9046.494     50.441   3.920  9.36633E-01  9.88043E-01 -5.14107E-02
    9047.695     51.642   3.960  9.52651E-01  9.87407E-01 -3.47567E-02
    9048.908     52.855   4.000  9.69843E-01  9.86838E-01 -1.69950E-02
    9050.134     54.081   4.040  9.87216E-01  9.86317E-01  8.99253E-04
    9051.371     55.318   4.080  1.00364E+00  9.85863E-01  1.77726E-02
    9052.621     56.568   4.120  1.01790E+00  9.85458E-01  3.24427E-02
    9053.883     57.830   4.160  1.02924E+00  9.85122E-01  4.41154E-02
    9055.157     59.104   4.200  1.03742E+00  9.84832E-01  5.25932E-02
    9056.443     60.390   4.240  1.04286E+00  9.84588E-01  5.82673E-02
    9057.741     61.688   4.280  1.04627E+00  9.84412E-01  6.18622E-02
    9059.052     62.999   4.320  1.04841E+00  9.84281E-01  6.41293E-02
    9060.375     64.322   4.360  1.04973E+00  9.84195E-01  6.55351E-02
    9061.710     65.657   4.400  1.05031E+00  9.84175E-01  6.61366E-02
    9063.057     67.004   4.440  1.04996E+00  9.84200E-01  6.57622E-02
    9064.416     68.363   4.480  1.04836E+00  9.84266E-01  6.40973E-02
    9065.788     69.735   4.520  1.04528E+00  9.84373E-01  6.09068E-02
    9067.172     71.119   4.560  1.04072E+00  9.84521E-01  5.61984E-02
    9068.568     72.515   4.600  1.03502E+00  9.84711E-01  5.03116E-02
    9069.976     73.923   4.640  1.02888E+00  9.84960E-01  4.39190E-02
    9071.396     75.343   4.680  1.02312E+00  9.85224E-01  3.78941E-02
    9072.829     76.776   4.720  1.01852E+00  9.85501E-01  3.30222E-02
    9074.274     78.221   4.760  1.01548E+00  9.85833E-01  2.96456E-02
    9075.731     79.678   4.800  1.01374E+00  9.86178E-01  2.75656E-02
    9077.200     81.147   4.840  1.01275E+00  9.86556E-01  2.61914E-02
    9078.681     82.628   4.880  1.01177E+00  9.86942E-01  2.48296E-02
    9080.175     84.122   4.920  1.01030E+00  9.87357E-01  2.29457E-02
    9081.680     85.627   4.960  1.00806E+00  9.87780E-01  2.02759E-02
    9083.198     87.145   5.000  1.00508E+00  9.88227E-01  1.68487E-02
    9084.728     88.675   5.040  1.00165E+00  9.88657E-01  1.29974E-02
    9086.271     90.218   5.080  9.98384E-01  9.89110E-01  9.27424E-03
    9087.825     91.772   5.120  9.95827E-01  9.89561E-01  6.26643E-03
    9089.392     93.339   5.160  9.94306E-01  9.89989E-01  4.31703E-03
    9090.971     94.918   5.200  9.93790E-01  9.90435E-01  3.35537E-03
    9092.562     96.509   5.240  9.93822E-01  9.90856E-01  2.96574E-03
    9094.165     98.112   5.280  9.93871E-01  9.91273E-01  2.59795E-03
    9095.780     99.727   5.320  9.93418E-01  9.91684E-01  1.73334E-03
    9097.408    101.355   5.360  9.92026E-01  9.92088E-01 -6.22385E-05
    9099.048    102.995   5.400  9.89349E-01  9.92461E-01 -3.11202E-03
    9100.700    104.647   5.440  9.85306E-01  9.92799E-01 -7.49352E-03
    9102.364    106.311   5.480  9.80290E-01  9.93126E-01 -1.28356E-02
    9104.040    107.987   5.520  9.75094E-01  9.93417E-01 -1.83231E-02
    9105.729    109.676   5.560  9.70636E-01  9.93674E-01 -2.30383E-02
    9107.430    111.377   5.600  9.67573E-01  9.93918E-01 -2.63448E-02
    9109.143    113.090   5.640  9.66063E-01  9.94126E-01 -2.80628E-02
    9110.868    114.815   5.680  9.65864E-01  9.94295E-01 -2.84313E-02
    9112.605    116.552   5.720  9.66444E-01  9.94425E-01 -2.79807E-02
    9114.355    118.302   5.760  9.67238E-01  9.94518E-01 -2.72809E-02
    9116.116    120.063   5.800  9.67891E-01  9.94597E-01 -2.67057E-02
    9117.890    121.837   5.840  9.68272E-01  9.94614E-01 -2.63414E-02
    9119.676    123.623   5.880  9.68559E-01  9.94614E-01 -2.60558E-02
    9121.475    125.422   5.920  9.68935E-01  9.94552E-01 -2.56169E-02
    9123.285    127.232   5.960  9.69683E-01  9.94469E-01 -2.47868E-02
    9125.108    129.055   6.000  9.70966E-01  9.94296E-01 -2.33303E-02
