# # comment:                                                     FEFF 9.9.1  
# # Source:
# # Structure
# # Reduced
# # space
# # abc:
# # angles:146.500072
# # sites:
# # POT  SCF 100  7.0000   0, screened core-hole, AFOLP (folp(0)= 1.150)
# # Abs   Z=29 Rmt= 1.174 Rnm= 1.251 K  shell
# # Pot 1 Z=38 Rmt= 1.767 Rnm= 1.831
# # Pot 2 Z=29 Rmt= 1.174 Rnm= 1.251
# # Pot 3 Z= 8 Rmt= 1.103 Rnm= 1.151
# # Gam_ch=1.729E+00 H-L exch Vi= 0.000E+00 Vr= 0.000E+00
# # Mu=-9.714E+00eV kf=1.911E+00 Vint=-1.687E+01eV Rs_int= 1.897
# FMS rfms= 9.0000
# # PATH  Rmax=-1.000,  Keep_limit= 0.00, Heap_limit 0.00  Pwcrit= 2.50%
#  S02=0.950  Temp=   0.00  Debye_temp=   0.00  Global_sig2= 0.00000
#  Energy zero shift, vr, vi    0.00000E+00   0.00000E+00
#  Curved wave amplitude ratio filter   4.000%
#     file         sig2 tot  cw amp ratio   deg  nlegs   reff  inp sig2
#     0/   0 paths used
#  xsedge+ 50, used to normalize mu           2.4224E-04
#  -----------------------------------------------------------------------
#  omega    e    k    mu    mu0     chi     @#
    8985.039    -13.524  -1.000  2.95456E-02  5.70239E-02 -2.74784E-02
    8985.338    -13.225  -0.960  3.07327E-02  6.11511E-02 -3.04184E-02
    8985.625    -12.939  -0.920  3.19983E-02  6.57306E-02 -3.37323E-02
    8985.899    -12.665  -0.880  3.33538E-02  7.08277E-02 -3.74739E-02
    8986.161    -12.402  -0.840  3.48133E-02  7.65187E-02 -4.17054E-02
    8986.411    -12.152  -0.800  3.63939E-02  8.28915E-02 -4.64976E-02
    8986.649    -11.915  -0.760  3.81160E-02  9.00469E-02 -5.19309E-02
    8986.874    -11.689  -0.720  4.00037E-02  9.80986E-02 -5.80949E-02
    8987.088    -11.476  -0.680  4.20844E-02  1.07171E-01 -6.50869E-02
    8987.289    -11.275  -0.640  4.43883E-02  1.17397E-01 -7.30084E-02
    8987.478    -11.086  -0.600  4.69455E-02  1.28903E-01 -8.19579E-02
    8987.654    -10.909  -0.560  4.97824E-02  1.41801E-01 -9.20186E-02
    8987.819    -10.744  -0.520  5.29136E-02  1.56154E-01 -1.03240E-01
    8987.971    -10.592  -0.480  5.63330E-02  1.71945E-01 -1.15612E-01
    8988.112    -10.452  -0.440  6.00016E-02  1.89037E-01 -1.29035E-01
    8988.240    -10.324  -0.400  6.38400E-02  2.07135E-01 -1.43295E-01
    8988.356    -10.208  -0.360  6.77274E-02  2.25779E-01 -1.58051E-01
    8988.459    -10.104  -0.320  7.15158E-02  2.44368E-01 -1.72853E-01
    8988.551    -10.013  -0.280  7.50536E-02  2.62237E-01 -1.87183E-01
    8988.630     -9.934  -0.240  7.82128E-02  2.78741E-01 -2.00528E-01
    8988.697     -9.866  -0.200  8.09077E-02  2.93340E-01 -2.12432E-01
    8988.752     -9.812  -0.160  8.30971E-02  3.05632E-01 -2.22535E-01
    8988.794     -9.769  -0.120  8.47734E-02  3.15360E-01 -2.30587E-01
    8988.825     -9.738  -0.080  8.59446E-02  3.22375E-01 -2.36430E-01
    8988.849     -9.714   0.000  8.68372E-02  3.28016E-01 -2.41179E-01
    8988.904     -9.659   0.120  8.89263E-02  3.40745E-01 -2.51818E-01
    8988.947     -9.617   0.160  9.05073E-02  3.50656E-01 -2.60149E-01
    8989.002     -9.562   0.200  9.24338E-02  3.63319E-01 -2.70885E-01
    8989.069     -9.495   0.240  9.46069E-02  3.78605E-01 -2.83998E-01
    8989.148     -9.415   0.280  9.68634E-02  3.96217E-01 -2.99354E-01
    8989.239     -9.324   0.320  9.90024E-02  4.15748E-01 -3.16746E-01
    8989.343     -9.220   0.360  1.00768E-01  4.36687E-01 -3.35919E-01
    8989.459     -9.104   0.400  1.01896E-01  4.58464E-01 -3.56568E-01
    8989.587     -8.976   0.440  1.02178E-01  4.80557E-01 -3.78379E-01
    8989.727     -8.836   0.480  1.01642E-01  5.02577E-01 -4.00934E-01
    8989.880     -8.684   0.520  1.00500E-01  5.24251E-01 -4.23751E-01
    8990.044     -8.519   0.560  9.91943E-02  5.45462E-01 -4.46267E-01
    8990.221     -8.342   0.600  9.81753E-02  5.66153E-01 -4.67977E-01
    8990.410     -8.154   0.640  9.78152E-02  5.86352E-01 -4.88537E-01
    8990.611     -7.952   0.680  9.84446E-02  6.06142E-01 -5.07698E-01
    8990.824     -7.739   0.720  1.00235E-01  6.25577E-01 -5.25341E-01
    8991.050     -7.513   0.760  1.03315E-01  6.44727E-01 -5.41412E-01
    8991.288     -7.276   0.800  1.07760E-01  6.63633E-01 -5.55873E-01
    8991.538     -7.026   0.840  1.13447E-01  6.82341E-01 -5.68894E-01
    8991.800     -6.764   0.880  1.19870E-01  7.00885E-01 -5.81015E-01
    8992.074     -6.489   0.920  1.26002E-01  7.19241E-01 -5.93240E-01
    8992.361     -6.203   0.960  1.31142E-01  7.37418E-01 -6.06276E-01
    8992.659     -5.904   1.000  1.35947E-01  7.55390E-01 -6.19443E-01
    8992.970     -5.593   1.040  1.42160E-01  7.73145E-01 -6.30985E-01
    8993.293     -5.270   1.080  1.51301E-01  7.90643E-01 -6.39342E-01
    8993.629     -4.935   1.120  1.64228E-01  8.07837E-01 -6.43609E-01
    8993.976     -4.587   1.160  1.81128E-01  8.24678E-01 -6.43550E-01
    8994.336     -4.228   1.200  2.01181E-01  8.41133E-01 -6.39952E-01
    8994.708     -3.856   1.240  2.22823E-01  8.57147E-01 -6.34324E-01
    8995.092     -3.472   1.280  2.45874E-01  8.72683E-01 -6.26810E-01
    8995.488     -3.076   1.320  2.72461E-01  8.87686E-01 -6.15225E-01
    8995.896     -2.667   1.360  3.04102E-01  9.02119E-01 -5.98017E-01
    8996.317     -2.247   1.400  3.38961E-01  9.15950E-01 -5.76989E-01
    8996.750     -1.814   1.440  3.76867E-01  9.29143E-01 -5.52276E-01
    8997.195     -1.369   1.480  4.24660E-01  9.41668E-01 -5.17008E-01
    8997.652     -0.911   1.520  4.88970E-01  9.53495E-01 -4.64525E-01
    8998.121     -0.442   1.560  5.65507E-01  9.64618E-01 -3.99111E-01
    8998.603      0.039   1.600  6.50044E-01  9.75012E-01 -3.24969E-01
    8999.097      0.533   1.640  7.51711E-01  9.84696E-01 -2.32985E-01
    8999.603      1.039   1.680  8.77360E-01  9.93629E-01 -1.16269E-01
    9000.121      1.557   1.720  1.03060E+00  1.00184E+00  2.87661E-02
    9000.651      2.088   1.760  1.23760E+00  1.00932E+00  2.28283E-01
    9001.194      2.630   1.800  1.53768E+00  1.01611E+00  5.21568E-01
    9001.748      3.185   1.840  1.87284E+00  1.02219E+00  8.50646E-01
    9002.315      3.752   1.880  2.06331E+00  1.02760E+00  1.03572E+00
    9002.894      4.331   1.920  2.06304E+00  1.03236E+00  1.03068E+00
    9003.486      4.922   1.960  1.96156E+00  1.03647E+00  9.25083E-01
    9004.089      5.526   2.000  1.83732E+00  1.04001E+00  7.97304E-01
    9004.705      6.142   2.040  1.72080E+00  1.04297E+00  6.77827E-01
    9005.333      6.769   2.080  1.61811E+00  1.04539E+00  5.72724E-01
    9005.973      7.410   2.120  1.52682E+00  1.04730E+00  4.79524E-01
    9006.625      8.062   2.160  1.44622E+00  1.04873E+00  3.97485E-01
    9007.290      8.726   2.200  1.37951E+00  1.04972E+00  3.29792E-01
    9007.966      9.403   2.240  1.32546E+00  1.05029E+00  2.75167E-01
    9008.655     10.092   2.280  1.27217E+00  1.05048E+00  2.21695E-01
    9009.356     10.793   2.320  1.21010E+00  1.05032E+00  1.59777E-01
    9010.069     11.506   2.360  1.15306E+00  1.04984E+00  1.03222E-01
    9010.795     12.231   2.400  1.11075E+00  1.04907E+00  6.16770E-02
    9011.532     12.969   2.440  1.08425E+00  1.04807E+00  3.61809E-02
    9012.282     13.719   2.480  1.07286E+00  1.04682E+00  2.60386E-02
    9013.044     14.481   2.520  1.07197E+00  1.04536E+00  2.66098E-02
    9013.818     15.255   2.560  1.07478E+00  1.04372E+00  3.10625E-02
    9014.605     16.041   2.600  1.07408E+00  1.04195E+00  3.21322E-02
    9015.403     16.840   2.640  1.06549E+00  1.04003E+00  2.54521E-02
    9016.214     17.651   2.680  1.04930E+00  1.03802E+00  1.12798E-02
    9017.037     18.474   2.720  1.02878E+00  1.03590E+00 -7.11873E-03
    9017.872     19.309   2.760  1.00737E+00  1.03373E+00 -2.63570E-02
    9018.720     20.156   2.800  9.86851E-01  1.03153E+00 -4.46773E-02
    9019.579     21.016   2.840  9.67248E-01  1.02927E+00 -6.20226E-02
    9020.451     21.887   2.880  9.47677E-01  1.02700E+00 -7.93260E-02
    9021.335     22.771   2.920  9.27431E-01  1.02473E+00 -9.73032E-02
    9022.231     23.667   2.960  9.06306E-01  1.02249E+00 -1.16186E-01
    9023.139     24.576   3.000  8.85169E-01  1.02026E+00 -1.35093E-01
    9024.060     25.496   3.040  8.65686E-01  1.01807E+00 -1.52382E-01
    9024.992     26.429   3.080  8.49503E-01  1.01592E+00 -1.66414E-01
    9025.937     27.374   3.120  8.37282E-01  1.01384E+00 -1.76555E-01
    9026.894     28.331   3.160  8.28463E-01  1.01181E+00 -1.83346E-01
    9027.864     29.300   3.200  8.22147E-01  1.00988E+00 -1.87732E-01
    9028.845     30.282   3.240  8.17728E-01  1.00801E+00 -1.90281E-01
    9029.839     31.275   3.280  8.14833E-01  1.00622E+00 -1.91389E-01
    9030.844     32.281   3.320  8.13532E-01  1.00454E+00 -1.91013E-01
    9031.862     33.299   3.360  8.14654E-01  1.00296E+00 -1.88302E-01
    9032.893     34.329   3.400  8.19134E-01  1.00148E+00 -1.82345E-01
    9033.935     35.372   3.440  8.27514E-01  1.00009E+00 -1.72579E-01
    9034.990     36.426   3.480  8.39990E-01  9.98822E-01 -1.58833E-01
    9036.057     37.493   3.520  8.56193E-01  9.97646E-01 -1.41453E-01
    9037.135     38.572   3.560  8.74852E-01  9.96586E-01 -1.21734E-01
    9038.227     39.663   3.600  8.94922E-01  9.95646E-01 -1.00724E-01
    9039.330     40.767   3.640  9.15927E-01  9.94825E-01 -7.88984E-02
    9040.446     41.882   3.680  9.37686E-01  9.94123E-01 -5.64361E-02
    9041.573     43.010   3.720  9.59456E-01  9.93516E-01 -3.40599E-02
    9042.713     44.150   3.760  9.79779E-01  9.93026E-01 -1.32471E-02
    9043.865     45.302   3.800  9.96709E-01  9.92654E-01  4.05466E-03
    9045.030     46.466   3.840  1.00923E+00  9.92380E-01  1.68481E-02
    9046.206     47.643   3.880  1.01852E+00  9.92242E-01  2.62732E-02
    9047.395     48.832   3.920  1.02723E+00  9.92199E-01  3.50305E-02
    9048.596     50.033   3.960  1.03795E+00  9.92247E-01  4.57036E-02
    9049.809     51.246   4.000  1.05212E+00  9.92407E-01  5.97134E-02
    9051.034     52.471   4.040  1.06884E+00  9.92658E-01  7.61831E-02
    9052.272     53.708   4.080  1.08494E+00  9.93019E-01  9.19227E-02
    9053.521     54.958   4.120  1.09616E+00  9.93467E-01  1.02693E-01
    9054.783     56.220   4.160  1.09944E+00  9.94001E-01  1.05444E-01
    9056.057     57.494   4.200  1.09485E+00  9.94618E-01  1.00234E-01
    9057.344     58.780   4.240  1.08565E+00  9.95336E-01  9.03186E-02
    9058.642     60.079   4.280  1.07645E+00  9.96110E-01  8.03366E-02
    9059.953     61.389   4.320  1.07070E+00  9.96937E-01  7.37624E-02
    9061.276     62.712   4.360  1.06965E+00  9.97839E-01  7.18157E-02
    9062.611     64.047   4.400  1.07289E+00  9.98812E-01  7.40803E-02
    9063.958     65.394   4.440  1.07946E+00  9.99835E-01  7.96243E-02
    9065.317     66.754   4.480  1.08853E+00  1.00092E+00  8.76042E-02
    9066.689     68.125   4.520  1.09899E+00  1.00203E+00  9.69570E-02
    9068.073     69.509   4.560  1.10946E+00  1.00317E+00  1.06282E-01
    9069.469     70.905   4.600  1.11813E+00  1.00436E+00  1.13770E-01
    9070.877     72.313   4.640  1.12330E+00  1.00557E+00  1.17723E-01
    9072.297     73.734   4.680  1.12368E+00  1.00679E+00  1.16883E-01
    9073.730     75.166   4.720  1.11894E+00  1.00802E+00  1.10920E-01
    9075.174     76.611   4.760  1.10957E+00  1.00928E+00  1.00289E-01
    9076.631     78.068   4.800  1.09576E+00  1.01053E+00  8.52237E-02
    9078.100     79.537   4.840  1.07677E+00  1.01177E+00  6.50062E-02
    9079.582     81.018   4.880  1.05201E+00  1.01301E+00  3.89963E-02
    9081.075     82.512   4.920  1.02256E+00  1.01423E+00  8.32764E-03
    9082.581     84.018   4.960  9.91773E-01  1.01541E+00 -2.36415E-02
    9084.099     85.536   5.000  9.64195E-01  1.01658E+00 -5.23887E-02
    9085.629     87.066   5.040  9.43670E-01  1.01772E+00 -7.40475E-02
    9087.171     88.608   5.080  9.32488E-01  1.01881E+00 -8.63233E-02
    9088.726     90.162   5.120  9.31052E-01  1.01986E+00 -8.88096E-02
    9090.292     91.729   5.160  9.37890E-01  1.02087E+00 -8.29777E-02
    9091.871     93.308   5.200  9.49888E-01  1.02183E+00 -7.19397E-02
    9093.462     94.899   5.240  9.62919E-01  1.02272E+00 -5.97965E-02
    9095.066     96.502   5.280  9.73372E-01  1.02355E+00 -5.01803E-02
    9096.681     98.118   5.320  9.79291E-01  1.02431E+00 -4.50212E-02
    9098.309     99.745   5.360  9.80749E-01  1.02500E+00 -4.42477E-02
    9099.948    101.385   5.400  9.78959E-01  1.02563E+00 -4.66668E-02
    9101.600    103.037   5.440  9.75239E-01  1.02618E+00 -5.09384E-02
    9103.265    104.701   5.480  9.70560E-01  1.02665E+00 -5.60913E-02
    9104.941    106.378   5.520  9.65626E-01  1.02707E+00 -6.14399E-02
    9106.630    108.066   5.560  9.60926E-01  1.02738E+00 -6.64519E-02
    9108.330    109.767   5.600  9.57297E-01  1.02763E+00 -7.03317E-02
    9110.043    111.480   5.640  9.55806E-01  1.02777E+00 -7.19689E-02
    9111.769    113.205   5.680  9.57378E-01  1.02784E+00 -7.04614E-02
    9113.506    114.943   5.720  9.62236E-01  1.02784E+00 -6.56082E-02
    9115.255    116.692   5.760  9.69939E-01  1.02775E+00 -5.78076E-02
    9117.017    118.454   5.800  9.79460E-01  1.02759E+00 -4.81304E-02
    9118.791    120.228   5.840  9.88861E-01  1.02733E+00 -3.84723E-02
    9120.577    122.014   5.880  9.95864E-01  1.02702E+00 -3.11575E-02
    9122.376    123.812   5.920  9.99225E-01  1.02663E+00 -2.74078E-02
    9124.186    125.623   5.960  1.00031E+00  1.02616E+00 -2.58510E-02
    9126.009    127.445   6.000  1.00217E+00  1.02554E+00 -2.33703E-02
