# # comment:                                                     FEFF 9.9.1  
# # Source:
# # Structure
# # Reduced
# # space
# # abc:
# # angles:101.456857
# # sites:
# # POT  SCF 100  7.0000   0, screened core-hole, AFOLP (folp(0)= 1.150)
# # Abs   Z=29 Rmt= 1.264 Rnm= 1.351 K  shell
# # Pot 1 Z=29 Rmt= 1.270 Rnm= 1.355
# # Pot 2 Z= 1 Rmt= 0.663 Rnm= 0.796
# # Pot 3 Z=34 Rmt= 1.048 Rnm= 1.258
# # Pot 4 Z= 8 Rmt= 0.928 Rnm= 1.068
# # Gam_ch=1.729E+00 H-L exch Vi= 0.000E+00 Vr= 0.000E+00
# # Mu=-4.462E+00eV kf=2.353E+00 Vint=-1.523E+01eV Rs_int= 1.542
# FMS rfms= 9.0000
# # PATH  Rmax=-1.000,  Keep_limit= 0.00, Heap_limit 0.00  Pwcrit= 2.50%
#  S02=0.950  Temp=   0.00  Debye_temp=   0.00  Global_sig2= 0.00000
#  Energy zero shift, vr, vi    0.00000E+00   0.00000E+00
#  Curved wave amplitude ratio filter   4.000%
#     file         sig2 tot  cw amp ratio   deg  nlegs   reff  inp sig2
#     0/   0 paths used
#  xsedge+ 50, used to normalize mu           2.4548E-04
#  -----------------------------------------------------------------------
#  omega    e    k    mu    mu0     chi     @#
    8983.232     -8.272  -1.000  5.36520E-02  6.01862E-02 -6.53421E-03
    8983.531     -7.974  -0.960  5.74073E-02  6.47706E-02 -7.36328E-03
    8983.818     -7.687  -0.920  6.15745E-02  6.98838E-02 -8.30932E-03
    8984.092     -7.413  -0.880  6.62162E-02  7.56055E-02 -9.38936E-03
    8984.354     -7.151  -0.840  7.14059E-02  8.20285E-02 -1.06227E-02
    8984.604     -6.901  -0.800  7.72297E-02  8.92606E-02 -1.20310E-02
    8984.842     -6.663  -0.760  8.37876E-02  9.74258E-02 -1.36382E-02
    8985.067     -6.437  -0.720  9.11938E-02  1.06664E-01 -1.54704E-02
    8985.281     -6.224  -0.680  9.95755E-02  1.17131E-01 -1.75552E-02
    8985.482     -6.023  -0.640  1.09069E-01  1.28989E-01 -1.99206E-02
    8985.671     -5.834  -0.600  1.19808E-01  1.42401E-01 -2.25934E-02
    8985.848     -5.657  -0.560  1.31908E-01  1.57505E-01 -2.55964E-02
    8986.012     -5.493  -0.520  1.45439E-01  1.74383E-01 -2.89449E-02
    8986.165     -5.340  -0.480  1.60381E-01  1.93022E-01 -3.26417E-02
    8986.305     -5.200  -0.440  1.76585E-01  2.13257E-01 -3.66715E-02
    8986.433     -5.072  -0.400  1.93735E-01  2.34730E-01 -4.09948E-02
    8986.549     -4.956  -0.360  2.11337E-01  2.56878E-01 -4.55416E-02
    8986.652     -4.852  -0.320  2.28762E-01  2.78971E-01 -5.02090E-02
    8986.744     -4.761  -0.280  2.45335E-01  3.00198E-01 -5.48623E-02
    8986.823     -4.682  -0.240  2.60436E-01  3.19780E-01 -5.93437E-02
    8986.890     -4.615  -0.200  2.73586E-01  3.37071E-01 -6.34849E-02
    8986.945     -4.560  -0.160  2.84480E-01  3.51602E-01 -6.71222E-02
    8986.988     -4.517  -0.120  2.92964E-01  3.63076E-01 -7.01117E-02
    8987.018     -4.487  -0.080  2.98990E-01  3.71335E-01 -7.23443E-02
    8987.042     -4.462   0.000  3.03716E-01  3.77963E-01 -7.42471E-02
    8987.097     -4.407   0.120  3.14069E-01  3.92908E-01 -7.88399E-02
    8987.140     -4.365   0.160  3.22109E-01  4.04484E-01 -8.23751E-02
    8987.195     -4.310   0.200  3.32250E-01  4.19249E-01 -8.69989E-02
    8987.262     -4.243   0.240  3.44190E-01  4.36957E-01 -9.27671E-02
    8987.341     -4.164   0.280  3.57516E-01  4.57218E-01 -9.97018E-02
    8987.433     -4.072   0.320  3.71668E-01  4.79448E-01 -1.07780E-01
    8987.536     -3.969   0.360  3.86111E-01  5.02971E-01 -1.16860E-01
    8987.652     -3.853   0.400  4.00333E-01  5.27012E-01 -1.26678E-01
    8987.780     -3.725   0.440  4.14129E-01  5.50920E-01 -1.36791E-01
    8987.920     -3.584   0.480  4.27514E-01  5.74133E-01 -1.46619E-01
    8988.073     -3.432   0.520  4.40841E-01  5.96324E-01 -1.55484E-01
    8988.237     -3.267   0.560  4.54626E-01  6.17319E-01 -1.62693E-01
    8988.414     -3.091   0.600  4.69493E-01  6.37100E-01 -1.67607E-01
    8988.603     -2.902   0.640  4.85979E-01  6.55723E-01 -1.69745E-01
    8988.804     -2.701   0.680  5.04369E-01  6.73289E-01 -1.68921E-01
    8989.018     -2.487   0.720  5.24571E-01  6.89918E-01 -1.65347E-01
    8989.243     -2.262   0.760  5.46186E-01  7.05749E-01 -1.59562E-01
    8989.481     -2.024   0.800  5.68877E-01  7.20868E-01 -1.51991E-01
    8989.731     -1.774   0.840  5.92900E-01  7.35392E-01 -1.42491E-01
    8989.993     -1.512   0.880  6.18443E-01  7.49374E-01 -1.30931E-01
    8990.267     -1.238   0.920  6.43577E-01  7.62916E-01 -1.19339E-01
    8990.554     -0.951   0.960  6.62977E-01  7.76022E-01 -1.13044E-01
    8990.852     -0.652   1.000  6.72325E-01  7.88744E-01 -1.16420E-01
    8991.163     -0.341   1.040  6.74580E-01  8.01105E-01 -1.26525E-01
    8991.486     -0.018   1.080  6.77287E-01  8.13116E-01 -1.35829E-01
    8991.822      0.317   1.120  6.84701E-01  8.24804E-01 -1.40102E-01
    8992.169      0.664   1.160  6.96274E-01  8.36146E-01 -1.39872E-01
    8992.529      1.024   1.200  7.09325E-01  8.47137E-01 -1.37813E-01
    8992.901      1.396   1.240  7.22085E-01  8.57789E-01 -1.35703E-01
    8993.285      1.780   1.280  7.34846E-01  8.68087E-01 -1.33241E-01
    8993.681      2.176   1.320  7.45192E-01  8.78018E-01 -1.32826E-01
    8994.089      2.585   1.360  7.48530E-01  8.87604E-01 -1.39073E-01
    8994.510      3.005   1.400  7.52103E-01  8.96788E-01 -1.44685E-01
    8994.943      3.438   1.440  7.73991E-01  9.05593E-01 -1.31603E-01
    8995.388      3.883   1.480  8.21602E-01  9.14001E-01 -9.23989E-02
    8995.845      4.340   1.520  8.87727E-01  9.22031E-01 -3.43048E-02
    8996.314      4.810   1.560  9.64059E-01  9.29647E-01  3.44117E-02
    8996.796      5.291   1.600  1.04779E+00  9.36850E-01  1.10938E-01
    8997.290      5.785   1.640  1.13185E+00  9.43641E-01  1.88207E-01
    8997.796      6.291   1.680  1.20717E+00  9.50044E-01  2.57127E-01
    8998.314      6.809   1.720  1.27792E+00  9.56022E-01  3.21894E-01
    8998.844      7.340   1.760  1.34978E+00  9.61621E-01  3.88159E-01
    8999.387      7.882   1.800  1.40997E+00  9.66803E-01  4.43165E-01
    8999.942      8.437   1.840  1.43751E+00  9.71614E-01  4.65897E-01
    9000.508      9.004   1.880  1.42069E+00  9.76040E-01  4.44646E-01
    9001.088      9.583   1.920  1.36349E+00  9.80107E-01  3.83381E-01
    9001.679     10.174   1.960  1.29541E+00  9.83802E-01  3.11611E-01
    9002.282     10.778   2.000  1.24978E+00  9.87152E-01  2.62628E-01
    9002.898     11.393   2.040  1.23246E+00  9.90185E-01  2.42280E-01
    9003.526     12.021   2.080  1.22018E+00  9.92889E-01  2.27291E-01
    9004.166     12.661   2.120  1.18599E+00  9.95291E-01  1.90700E-01
    9004.818     13.314   2.160  1.13281E+00  9.97421E-01  1.35389E-01
    9005.483     13.978   2.200  1.08462E+00  9.99265E-01  8.53548E-02
    9006.159     14.655   2.240  1.05777E+00  1.00083E+00  5.69402E-02
    9006.848     15.344   2.280  1.05390E+00  1.00219E+00  5.17114E-02
    9007.549     16.045   2.320  1.06542E+00  1.00329E+00  6.21321E-02
    9008.263     16.758   2.360  1.08473E+00  1.00420E+00  8.05344E-02
    9008.988     17.483   2.400  1.10739E+00  1.00492E+00  1.02469E-01
    9009.726     18.221   2.440  1.12603E+00  1.00545E+00  1.20576E-01
    9010.475     18.971   2.480  1.13141E+00  1.00582E+00  1.25591E-01
    9011.237     19.733   2.520  1.12263E+00  1.00604E+00  1.16588E-01
    9012.012     20.507   2.560  1.10440E+00  1.00611E+00  9.82880E-02
    9012.798     21.293   2.600  1.07997E+00  1.00608E+00  7.38889E-02
    9013.597     22.092   2.640  1.04965E+00  1.00595E+00  4.37015E-02
    9014.407     22.903   2.680  1.01151E+00  1.00571E+00  5.79343E-03
    9015.230     23.725   2.720  9.71925E-01  1.00539E+00 -3.34615E-02
    9016.065     24.561   2.760  9.49358E-01  1.00498E+00 -5.56246E-02
    9016.913     25.408   2.800  9.39871E-01  1.00453E+00 -6.46548E-02
    9017.772     26.268   2.840  9.30561E-01  1.00402E+00 -7.34633E-02
    9018.644     27.139   2.880  9.19431E-01  1.00350E+00 -8.40690E-02
    9019.528     28.023   2.920  9.07881E-01  1.00292E+00 -9.50375E-02
    9020.424     28.919   2.960  8.96844E-01  1.00232E+00 -1.05481E-01
    9021.332     29.828   3.000  8.86717E-01  1.00172E+00 -1.15005E-01
    9022.253     30.748   3.040  8.77712E-01  1.00112E+00 -1.23405E-01
    9023.185     31.681   3.080  8.70099E-01  1.00051E+00 -1.30409E-01
    9024.130     32.626   3.120  8.64293E-01  9.99902E-01 -1.35609E-01
    9025.087     33.583   3.160  8.59962E-01  9.99301E-01 -1.39339E-01
    9026.057     34.552   3.200  8.56950E-01  9.98729E-01 -1.41779E-01
    9027.038     35.533   3.240  8.55231E-01  9.98188E-01 -1.42957E-01
    9028.032     36.527   3.280  8.54862E-01  9.97660E-01 -1.42798E-01
    9029.038     37.533   3.320  8.56159E-01  9.97189E-01 -1.41030E-01
    9030.056     38.551   3.360  8.59513E-01  9.96733E-01 -1.37220E-01
    9031.086     39.581   3.400  8.65506E-01  9.96315E-01 -1.30809E-01
    9032.128     40.624   3.440  8.74309E-01  9.95937E-01 -1.21628E-01
    9033.183     41.678   3.480  8.86026E-01  9.95620E-01 -1.09594E-01
    9034.250     42.745   3.520  9.00428E-01  9.95324E-01 -9.48959E-02
    9035.329     43.824   3.560  9.17049E-01  9.95090E-01 -7.80406E-02
    9036.420     44.915   3.600  9.35204E-01  9.94877E-01 -5.96728E-02
    9037.523     46.018   3.640  9.54277E-01  9.94727E-01 -4.04501E-02
    9038.639     47.134   3.680  9.73545E-01  9.94621E-01 -2.10764E-02
    9039.767     48.262   3.720  9.92214E-01  9.94580E-01 -2.36583E-03
    9040.906     49.402   3.760  1.00966E+00  9.94561E-01  1.51007E-02
    9042.059     50.554   3.800  1.02548E+00  9.94605E-01  3.08708E-02
    9043.223     51.718   3.840  1.03935E+00  9.94691E-01  4.46606E-02
    9044.399     52.895   3.880  1.05129E+00  9.94818E-01  5.64772E-02
    9045.588     54.083   3.920  1.06140E+00  9.94984E-01  6.64141E-02
    9046.789     55.284   3.960  1.06960E+00  9.95188E-01  7.44086E-02
    9048.002     56.497   4.000  1.07574E+00  9.95409E-01  8.03266E-02
    9049.227     57.723   4.040  1.07975E+00  9.95691E-01  8.40563E-02
    9050.465     58.960   4.080  1.08161E+00  9.96010E-01  8.56018E-02
    9051.715     60.210   4.120  1.08145E+00  9.96344E-01  8.51110E-02
    9052.977     61.472   4.160  1.07977E+00  9.96734E-01  8.30362E-02
    9054.251     62.746   4.200  1.07708E+00  9.97135E-01  7.99450E-02
    9055.537     64.032   4.240  1.07409E+00  9.97545E-01  7.65418E-02
    9056.835     65.331   4.280  1.07155E+00  9.97986E-01  7.35686E-02
    9058.146     66.641   4.320  1.07002E+00  9.98456E-01  7.15620E-02
    9059.469     67.964   4.360  1.06951E+00  9.98911E-01  7.06013E-02
    9060.804     69.299   4.400  1.06964E+00  9.99413E-01  7.02227E-02
    9062.151     70.646   4.440  1.06949E+00  9.99896E-01  6.95927E-02
    9063.510     72.006   4.480  1.06806E+00  1.00038E+00  6.76777E-02
    9064.882     73.377   4.520  1.06454E+00  1.00089E+00  6.36572E-02
    9066.266     74.761   4.560  1.05864E+00  1.00137E+00  5.72694E-02
    9067.662     76.157   4.600  1.05076E+00  1.00188E+00  4.88830E-02
    9069.070     77.565   4.640  1.04165E+00  1.00235E+00  3.92939E-02
    9070.490     78.986   4.680  1.03218E+00  1.00283E+00  2.93556E-02
    9071.923     80.418   4.720  1.02289E+00  1.00329E+00  1.95955E-02
    9073.368     81.863   4.760  1.01390E+00  1.00375E+00  1.01453E-02
    9074.824     83.320   4.800  1.00510E+00  1.00418E+00  9.16379E-04
    9076.294     84.789   4.840  9.96371E-01  1.00458E+00 -8.20587E-03
    9077.775     86.270   4.880  9.87754E-01  1.00496E+00 -1.72064E-02
    9079.268     87.764   4.920  9.79329E-01  1.00531E+00 -2.59806E-02
    9080.774     89.269   4.960  9.71253E-01  1.00565E+00 -3.43932E-02
    9082.292     90.787   5.000  9.63668E-01  1.00595E+00 -4.22789E-02
    9083.822     92.317   5.040  9.56788E-01  1.00621E+00 -4.94234E-02
    9085.364     93.860   5.080  9.50921E-01  1.00646E+00 -5.55387E-02
    9086.919     95.414   5.120  9.46406E-01  1.00665E+00 -6.02422E-02
    9088.486     96.981   5.160  9.43674E-01  1.00682E+00 -6.31467E-02
    9090.064     98.560   5.200  9.43039E-01  1.00695E+00 -6.39143E-02
    9091.655    100.151   5.240  9.44618E-01  1.00705E+00 -6.24284E-02
    9093.259    101.754   5.280  9.48260E-01  1.00710E+00 -5.88386E-02
    9094.874    103.369   5.320  9.53573E-01  1.00711E+00 -5.35372E-02
    9096.502    104.997   5.360  9.60071E-01  1.00708E+00 -4.70108E-02
    9098.142    106.637   5.400  9.67219E-01  1.00701E+00 -3.97945E-02
    9099.794    108.289   5.440  9.74422E-01  1.00693E+00 -3.25068E-02
    9101.458    109.953   5.480  9.80932E-01  1.00678E+00 -2.58485E-02
    9103.134    111.629   5.520  9.86114E-01  1.00659E+00 -2.04784E-02
    9104.823    113.318   5.560  9.89555E-01  1.00639E+00 -1.68318E-02
    9106.524    115.019   5.600  9.91184E-01  1.00612E+00 -1.49366E-02
    9108.237    116.732   5.640  9.91492E-01  1.00584E+00 -1.43477E-02
    9109.962    118.457   5.680  9.91282E-01  1.00552E+00 -1.42392E-02
    9111.699    120.194   5.720  9.91453E-01  1.00516E+00 -1.37115E-02
    9113.449    121.944   5.760  9.92728E-01  1.00477E+00 -1.20439E-02
    9115.210    123.706   5.800  9.95548E-01  1.00437E+00 -8.82172E-03
    9116.984    125.480   5.840  9.99970E-01  1.00393E+00 -3.96374E-03
    9118.770    127.266   5.880  1.00568E+00  1.00347E+00  2.20928E-03
    9120.569    129.064   5.920  1.01191E+00  1.00297E+00  8.94396E-03
    9122.379    130.874   5.960  1.01762E+00  1.00247E+00  1.51447E-02
    9124.202    132.697   6.000  1.02158E+00  1.00195E+00  1.96258E-02
