# # comment:                                                     FEFF 9.9.1  
# # Source:
# # Structure
# # Reduced
# # space
# # abc:
# # angles:
# # sites:
# # POT  SCF 100  7.0000   0, screened core-hole, AFOLP (folp(0)= 1.150)
# # Abs   Z=29 Rmt= 1.241 Rnm= 1.304 K  shell
# # Pot 1 Z=56 Rmt= 1.924 Rnm= 1.983
# # Pot 2 Z=68 Rmt= 1.565 Rnm= 1.640
# # Pot 3 Z=29 Rmt= 1.241 Rnm= 1.305
# # Pot 4 Z= 8 Rmt= 1.053 Rnm= 1.107
# # Gam_ch=1.729E+00 H-L exch Vi= 0.000E+00 Vr= 0.000E+00
# # Mu=-7.861E+00eV kf=2.011E+00 Vint=-1.798E+01eV Rs_int= 1.804
# FMS rfms= 9.0000
# # PATH  Rmax=-1.000,  Keep_limit= 0.00, Heap_limit 0.00  Pwcrit= 2.50%
#  S02=0.950  Temp=   0.00  Debye_temp=   0.00  Global_sig2= 0.00000
#  Energy zero shift, vr, vi    0.00000E+00   0.00000E+00
#  Curved wave amplitude ratio filter   4.000%
#     file         sig2 tot  cw amp ratio   deg  nlegs   reff  inp sig2
#     0/   0 paths used
#  xsedge+ 50, used to normalize mu           2.4470E-04
#  -----------------------------------------------------------------------
#  omega    e    k    mu    mu0     chi     @#
    8985.203    -11.671  -1.000  4.66615E-02  5.98049E-02 -1.31434E-02
    8985.501    -11.372  -0.960  4.94974E-02  6.43483E-02 -1.48510E-02
    8985.788    -11.086  -0.920  5.25989E-02  6.94144E-02 -1.68155E-02
    8986.062    -10.811  -0.880  5.60024E-02  7.50816E-02 -1.90792E-02
    8986.324    -10.549  -0.840  5.97502E-02  8.14414E-02 -2.16913E-02
    8986.574    -10.299  -0.800  6.38913E-02  8.86001E-02 -2.47089E-02
    8986.812    -10.062  -0.760  6.84822E-02  9.66798E-02 -2.81976E-02
    8987.037     -9.836  -0.720  7.35868E-02  1.05818E-01 -3.22317E-02
    8987.251     -9.623  -0.680  7.92757E-02  1.16169E-01 -3.68930E-02
    8987.452     -9.421  -0.640  8.56235E-02  1.27892E-01 -4.22681E-02
    8987.641     -9.232  -0.600  9.27031E-02  1.41146E-01 -4.84430E-02
    8987.818     -9.056  -0.560  1.00576E-01  1.56068E-01 -5.54922E-02
    8987.982     -8.891  -0.520  1.09276E-01  1.72740E-01 -6.34633E-02
    8988.135     -8.739  -0.480  1.18791E-01  1.91146E-01 -7.23553E-02
    8988.275     -8.598  -0.440  1.29031E-01  2.11124E-01 -8.20929E-02
    8988.403     -8.470  -0.400  1.39816E-01  2.32322E-01 -9.25053E-02
    8988.519     -8.355  -0.360  1.50866E-01  2.54185E-01 -1.03319E-01
    8988.622     -8.251  -0.320  1.61821E-01  2.75993E-01 -1.14172E-01
    8988.714     -8.160  -0.280  1.72285E-01  2.96947E-01 -1.24662E-01
    8988.793     -8.080  -0.240  1.81887E-01  3.16281E-01 -1.34394E-01
    8988.860     -8.013  -0.200  1.90323E-01  3.33355E-01 -1.43031E-01
    8988.915     -7.958  -0.160  1.97383E-01  3.47705E-01 -1.50322E-01
    8988.958     -7.916  -0.120  2.02938E-01  3.59039E-01 -1.56100E-01
    8988.988     -7.885  -0.080  2.06927E-01  3.67198E-01 -1.60271E-01
    8989.013     -7.861   0.000  2.10113E-01  3.73748E-01 -1.63636E-01
    8989.067     -7.806   0.120  2.17184E-01  3.88520E-01 -1.71337E-01
    8989.110     -7.763   0.160  2.22658E-01  3.99962E-01 -1.77303E-01
    8989.165     -7.708   0.200  2.29629E-01  4.14564E-01 -1.84935E-01
    8989.232     -7.641   0.240  2.37964E-01  4.32068E-01 -1.94104E-01
    8989.311     -7.562   0.280  2.47525E-01  4.52134E-01 -2.04609E-01
    8989.403     -7.471   0.320  2.58009E-01  4.74150E-01 -2.16142E-01
    8989.506     -7.367   0.360  2.69221E-01  4.97479E-01 -2.28257E-01
    8989.622     -7.251   0.400  2.80877E-01  5.21339E-01 -2.40462E-01
    8989.750     -7.123   0.440  2.92862E-01  5.45114E-01 -2.52252E-01
    8989.890     -6.983   0.480  3.05071E-01  5.68233E-01 -2.63162E-01
    8990.043     -6.831   0.520  3.17560E-01  5.90395E-01 -2.72835E-01
    8990.207     -6.666   0.560  3.30409E-01  6.11428E-01 -2.81019E-01
    8990.384     -6.489   0.600  3.43762E-01  6.31296E-01 -2.87534E-01
    8990.573     -6.300   0.640  3.57615E-01  6.50049E-01 -2.92434E-01
    8990.774     -6.099   0.680  3.71753E-01  6.67803E-01 -2.96049E-01
    8990.988     -5.886   0.720  3.85773E-01  6.84632E-01 -2.98859E-01
    8991.213     -5.660   0.760  3.99501E-01  7.00715E-01 -3.01213E-01
    8991.451     -5.422   0.800  4.13186E-01  7.16089E-01 -3.02903E-01
    8991.701     -5.173   0.840  4.28001E-01  7.30906E-01 -3.02905E-01
    8991.963     -4.910   0.880  4.45701E-01  7.45176E-01 -2.99475E-01
    8992.237     -4.636   0.920  4.67841E-01  7.59015E-01 -2.91174E-01
    8992.524     -4.350   0.960  4.93913E-01  7.72405E-01 -2.78492E-01
    8992.823     -4.051   1.000  5.21090E-01  7.85414E-01 -2.64325E-01
    8993.133     -3.740   1.040  5.46088E-01  7.98062E-01 -2.51974E-01
    8993.457     -3.417   1.080  5.68030E-01  8.10317E-01 -2.42286E-01
    8993.792     -3.082   1.120  5.89659E-01  8.22242E-01 -2.32582E-01
    8994.139     -2.734   1.160  6.14315E-01  8.33794E-01 -2.19479E-01
    8994.499     -2.375   1.200  6.40892E-01  8.44985E-01 -2.04093E-01
    8994.871     -2.003   1.240  6.63525E-01  8.55786E-01 -1.92261E-01
    8995.255     -1.619   1.280  6.79612E-01  8.66221E-01 -1.86609E-01
    8995.651     -1.222   1.320  6.97464E-01  8.76276E-01 -1.78812E-01
    8996.060     -0.814   1.360  7.30343E-01  8.85913E-01 -1.55570E-01
    8996.480     -0.393   1.400  7.81472E-01  8.95155E-01 -1.13683E-01
    8996.913      0.039   1.440  8.47268E-01  9.03982E-01 -5.67141E-02
    8997.358      0.485   1.480  9.37220E-01  9.12378E-01  2.48426E-02
    8997.815      0.942   1.520  1.06609E+00  9.20343E-01  1.45750E-01
    8998.285      1.411   1.560  1.22830E+00  9.27901E-01  3.00394E-01
    8998.766      1.893   1.600  1.39136E+00  9.35016E-01  4.56340E-01
    8999.260      2.386   1.640  1.52431E+00  9.41688E-01  5.82625E-01
    8999.766      2.892   1.680  1.61018E+00  9.47941E-01  6.62241E-01
    9000.284      3.411   1.720  1.63147E+00  9.53781E-01  6.77684E-01
    9000.814      3.941   1.760  1.60291E+00  9.59215E-01  6.43697E-01
    9001.357      4.483   1.800  1.56993E+00  9.64226E-01  6.05701E-01
    9001.912      5.038   1.840  1.53767E+00  9.68842E-01  5.68833E-01
    9002.479      5.605   1.880  1.48736E+00  9.73091E-01  5.14272E-01
    9003.058      6.184   1.920  1.41737E+00  9.76937E-01  4.40428E-01
    9003.649      6.776   1.960  1.33522E+00  9.80452E-01  3.54770E-01
    9004.252      7.379   2.000  1.24856E+00  9.83602E-01  2.64959E-01
    9004.868      7.995   2.040  1.16522E+00  9.86436E-01  1.78783E-01
    9005.496      8.623   2.080  1.09621E+00  9.88964E-01  1.07246E-01
    9006.136      9.263   2.120  1.05002E+00  9.91195E-01  5.88249E-02
    9006.788      9.915   2.160  1.02295E+00  9.93137E-01  2.98096E-02
    9007.453     10.579   2.200  1.00803E+00  9.94819E-01  1.32146E-02
    9008.130     11.256   2.240  9.99066E-01  9.96250E-01  2.81553E-03
    9008.818     11.945   2.280  9.88752E-01  9.97462E-01 -8.71028E-03
    9009.519     12.646   2.320  9.71423E-01  9.98463E-01 -2.70397E-02
    9010.233     13.359   2.360  9.51965E-01  9.99280E-01 -4.73147E-02
    9010.958     14.085   2.400  9.40543E-01  9.99903E-01 -5.93603E-02
    9011.696     14.822   2.440  9.45001E-01  1.00038E+00 -5.53812E-02
    9012.445     15.572   2.480  9.53096E-01  1.00070E+00 -4.76064E-02
    9013.207     16.334   2.520  9.57241E-01  1.00091E+00 -4.36731E-02
    9013.982     17.108   2.560  9.56768E-01  1.00098E+00 -4.42155E-02
    9014.768     17.895   2.600  9.53339E-01  1.00096E+00 -4.76183E-02
    9015.567     18.693   2.640  9.48041E-01  1.00087E+00 -5.28249E-02
    9016.377     19.504   2.680  9.41674E-01  1.00067E+00 -5.89972E-02
    9017.200     20.327   2.720  9.34970E-01  1.00042E+00 -6.54515E-02
    9018.035     21.162   2.760  9.28184E-01  1.00012E+00 -7.19385E-02
    9018.883     22.009   2.800  9.21539E-01  9.99760E-01 -7.82205E-02
    9019.742     22.869   2.840  9.15841E-01  9.99400E-01 -8.35590E-02
    9020.614     23.741   2.880  9.11233E-01  9.98986E-01 -8.77532E-02
    9021.498     24.625   2.920  9.07490E-01  9.98583E-01 -9.10933E-02
    9022.394     25.521   2.960  9.04010E-01  9.98154E-01 -9.41439E-02
    9023.302     26.429   3.000  9.00272E-01  9.97724E-01 -9.74521E-02
    9024.223     27.349   3.040  8.96148E-01  9.97318E-01 -1.01170E-01
    9025.156     28.282   3.080  8.91873E-01  9.96917E-01 -1.05045E-01
    9026.100     29.227   3.120  8.88319E-01  9.96545E-01 -1.08226E-01
    9027.058     30.184   3.160  8.86033E-01  9.96184E-01 -1.10152E-01
    9028.027     31.153   3.200  8.85647E-01  9.95857E-01 -1.10210E-01
    9029.008     32.135   3.240  8.87413E-01  9.95565E-01 -1.08152E-01
    9030.002     33.128   3.280  8.91201E-01  9.95311E-01 -1.04110E-01
    9031.008     34.134   3.320  8.96841E-01  9.95097E-01 -9.82559E-02
    9032.026     35.152   3.360  9.04256E-01  9.94921E-01 -9.06644E-02
    9033.056     36.183   3.400  9.13414E-01  9.94784E-01 -8.13707E-02
    9034.098     37.225   3.440  9.24010E-01  9.94689E-01 -7.06787E-02
    9035.153     38.280   3.480  9.35802E-01  9.94635E-01 -5.88332E-02
    9036.220     39.346   3.520  9.48566E-01  9.94624E-01 -4.60587E-02
    9037.299     40.425   3.560  9.62141E-01  9.94678E-01 -3.25368E-02
    9038.390     41.517   3.600  9.76488E-01  9.94775E-01 -1.82872E-02
    9039.493     42.620   3.640  9.91750E-01  9.94913E-01 -3.16317E-03
    9040.609     43.735   3.680  1.00799E+00  9.95092E-01  1.28978E-02
    9041.737     44.863   3.720  1.02510E+00  9.95313E-01  2.97855E-02
    9042.877     46.003   3.760  1.04273E+00  9.95576E-01  4.71541E-02
    9044.029     47.155   3.800  1.06009E+00  9.95900E-01  6.41931E-02
    9045.193     48.320   3.840  1.07571E+00  9.96243E-01  7.94693E-02
    9046.370     49.496   3.880  1.08814E+00  9.96624E-01  9.15196E-02
    9047.558     50.685   3.920  1.09614E+00  9.97064E-01  9.90806E-02
    9048.759     51.886   3.960  1.09895E+00  9.97518E-01  1.01430E-01
    9049.972     53.099   4.000  1.09665E+00  9.97985E-01  9.86656E-02
    9051.198     54.324   4.040  1.09023E+00  9.98506E-01  9.17241E-02
    9052.435     55.562   4.080  1.08119E+00  9.99037E-01  8.21574E-02
    9053.685     56.811   4.120  1.07141E+00  9.99578E-01  7.18316E-02
    9054.947     58.073   4.160  1.06271E+00  1.00015E+00  6.25613E-02
    9056.221     59.347   4.200  1.05614E+00  1.00075E+00  5.53914E-02
    9057.507     60.633   4.240  1.05185E+00  1.00135E+00  5.04966E-02
    9058.805     61.932   4.280  1.04928E+00  1.00196E+00  4.73133E-02
    9060.116     63.243   4.320  1.04739E+00  1.00257E+00  4.48189E-02
    9061.439     64.565   4.360  1.04511E+00  1.00318E+00  4.19381E-02
    9062.774     65.900   4.400  1.04174E+00  1.00378E+00  3.79607E-02
    9064.121     67.248   4.440  1.03716E+00  1.00438E+00  3.27752E-02
    9065.480     68.607   4.480  1.03172E+00  1.00498E+00  2.67469E-02
    9066.852     69.979   4.520  1.02602E+00  1.00555E+00  2.04699E-02
    9068.236     71.362   4.560  1.02061E+00  1.00611E+00  1.45008E-02
    9069.632     72.758   4.600  1.01585E+00  1.00666E+00  9.19584E-03
    9071.040     74.167   4.640  1.01185E+00  1.00718E+00  4.66920E-03
    9072.460     75.587   4.680  1.00855E+00  1.00769E+00  8.60920E-04
    9073.893     77.019   4.720  1.00577E+00  1.00816E+00 -2.39002E-03
    9075.338     78.464   4.760  1.00337E+00  1.00860E+00 -5.23219E-03
    9076.795     79.921   4.800  1.00125E+00  1.00902E+00 -7.77555E-03
    9078.264     81.390   4.840  9.99191E-01  1.00941E+00 -1.02168E-02
    9079.745     82.872   4.880  9.96822E-01  1.00975E+00 -1.29330E-02
    9081.239     84.365   4.920  9.93593E-01  1.01006E+00 -1.64689E-02
    9082.744     85.871   4.960  9.89022E-01  1.01033E+00 -2.13083E-02
    9084.262     87.389   5.000  9.83036E-01  1.01058E+00 -2.75428E-02
    9085.792     88.919   5.040  9.76017E-01  1.01076E+00 -3.47466E-02
    9087.335     90.461   5.080  9.68808E-01  1.01091E+00 -4.20995E-02
    9088.889     92.016   5.120  9.62390E-01  1.01103E+00 -4.86425E-02
    9090.456     93.582   5.160  9.57562E-01  1.01109E+00 -5.35313E-02
    9092.035     95.161   5.200  9.55000E-01  1.01111E+00 -5.61089E-02
    9093.626     96.752   5.240  9.55081E-01  1.01108E+00 -5.60041E-02
    9095.229     98.355   5.280  9.57919E-01  1.01104E+00 -5.31224E-02
    9096.844     99.971   5.320  9.63250E-01  1.01093E+00 -4.76835E-02
    9098.472    101.598   5.360  9.70568E-01  1.01078E+00 -4.02144E-02
    9100.112    103.238   5.400  9.79050E-01  1.01059E+00 -3.15403E-02
    9101.764    104.890   5.440  9.87716E-01  1.01036E+00 -2.26416E-02
    9103.428    106.554   5.480  9.95691E-01  1.01011E+00 -1.44175E-02
    9105.104    108.231   5.520  1.00227E+00  1.00980E+00 -7.52870E-03
    9106.793    109.919   5.560  1.00706E+00  1.00945E+00 -2.38658E-03
    9108.494    111.620   5.600  1.00986E+00  1.00908E+00  7.81263E-04
    9110.207    113.333   5.640  1.01046E+00  1.00868E+00  1.77986E-03
    9111.932    115.058   5.680  1.00881E+00  1.00824E+00  5.72222E-04
    9113.669    116.796   5.720  1.00525E+00  1.00779E+00 -2.54206E-03
    9115.419    118.545   5.760  1.00049E+00  1.00728E+00 -6.78759E-03
    9117.180    120.307   5.800  9.95765E-01  1.00676E+00 -1.09998E-02
    9118.954    122.081   5.840  9.92292E-01  1.00624E+00 -1.39506E-02
    9120.740    123.867   5.880  9.90928E-01  1.00569E+00 -1.47653E-02
    9122.539    125.665   5.920  9.92005E-01  1.00514E+00 -1.31384E-02
    9124.349    127.476   5.960  9.95259E-01  1.00457E+00 -9.31388E-03
    9126.172    129.299   6.000  1.00040E+00  1.00399E+00 -3.58966E-03
