# # comment:                                                     FEFF 9.9.1  
# # Source:
# # Structure
# # Reduced
# # space
# # abc:
# # angles:
# # sites:
# # POT  SCF 100  7.0000   0, screened core-hole, AFOLP (folp(0)= 1.150)
# # Abs   Z=29 Rmt= 1.220 Rnm= 1.304 K  shell
# # Pot 1 Z=57 Rmt= 1.737 Rnm= 1.822
# # Pot 2 Z=29 Rmt= 1.253 Rnm= 1.329
# # Pot 3 Z= 8 Rmt= 1.038 Rnm= 1.101
# # Gam_ch=1.729E+00 H-L exch Vi= 0.000E+00 Vr= 0.000E+00
# # Mu=-7.651E+00eV kf=2.072E+00 Vint=-1.670E+01eV Rs_int= 1.750
# FMS rfms= 9.0000
# # PATH  Rmax=-1.000,  Keep_limit= 0.00, Heap_limit 0.00  Pwcrit= 2.50%
#  S02=0.950  Temp=   0.00  Debye_temp=   0.00  Global_sig2= 0.00000
#  Energy zero shift, vr, vi    0.00000E+00   0.00000E+00
#  Curved wave amplitude ratio filter   4.000%
#     file         sig2 tot  cw amp ratio   deg  nlegs   reff  inp sig2
#     0/   0 paths used
#  xsedge+ 50, used to normalize mu           2.4462E-04
#  -----------------------------------------------------------------------
#  omega    e    k    mu    mu0     chi     @#
    8984.364    -11.461  -1.000  3.82279E-02  5.54257E-02 -1.71978E-02
    8984.663    -11.162  -0.960  4.01984E-02  5.94989E-02 -1.93005E-02
    8984.950    -10.875  -0.920  4.23188E-02  6.40289E-02 -2.17101E-02
    8985.224    -10.601  -0.880  4.46065E-02  6.90832E-02 -2.44767E-02
    8985.486    -10.339  -0.840  4.70817E-02  7.47403E-02 -2.76586E-02
    8985.736    -10.089  -0.800  4.97678E-02  8.10916E-02 -3.13238E-02
    8985.974     -9.851  -0.760  5.26914E-02  8.82416E-02 -3.55502E-02
    8986.199     -9.626  -0.720  5.58823E-02  9.63085E-02 -4.04263E-02
    8986.413     -9.412  -0.680  5.93732E-02  1.05423E-01 -4.60496E-02
    8986.614     -9.211  -0.640  6.31983E-02  1.15722E-01 -5.25235E-02
    8986.803     -9.022  -0.600  6.73907E-02  1.27341E-01 -5.99501E-02
    8986.980     -8.845  -0.560  7.19775E-02  1.40395E-01 -6.84177E-02
    8987.144     -8.681  -0.520  7.69727E-02  1.54954E-01 -7.79813E-02
    8987.297     -8.529  -0.480  8.23668E-02  1.71002E-01 -8.86355E-02
    8987.437     -8.388  -0.440  8.81158E-02  1.88399E-01 -1.00283E-01
    8987.565     -8.260  -0.400  9.41301E-02  2.06841E-01 -1.12711E-01
    8987.681     -8.144  -0.360  1.00272E-01  2.25850E-01 -1.25578E-01
    8987.784     -8.041  -0.320  1.06362E-01  2.44807E-01 -1.38445E-01
    8987.876     -7.949  -0.280  1.12199E-01  2.63023E-01 -1.50824E-01
    8987.955     -7.870  -0.240  1.17587E-01  2.79835E-01 -1.62248E-01
    8988.022     -7.803  -0.200  1.22358E-01  2.94692E-01 -1.72334E-01
    8988.077     -7.748  -0.160  1.26383E-01  3.07187E-01 -1.80803E-01
    8988.120     -7.706  -0.120  1.29581E-01  3.17062E-01 -1.87481E-01
    8988.150     -7.675  -0.080  1.31902E-01  3.24176E-01 -1.92273E-01
    8988.174     -7.651   0.000  1.33802E-01  3.29890E-01 -1.96088E-01
    8988.229     -7.596   0.120  1.37996E-01  3.42774E-01 -2.04779E-01
    8988.272     -7.553   0.160  1.41206E-01  3.52785E-01 -2.11579E-01
    8988.327     -7.498   0.200  1.45267E-01  3.65550E-01 -2.20283E-01
    8988.394     -7.431   0.240  1.50144E-01  3.80913E-01 -2.30769E-01
    8988.473     -7.352   0.280  1.55691E-01  3.98541E-01 -2.42851E-01
    8988.565     -7.261   0.320  1.61765E-01  4.17982E-01 -2.56217E-01
    8988.668     -7.157   0.360  1.68124E-01  4.38649E-01 -2.70526E-01
    8988.784     -7.041   0.400  1.74577E-01  4.59965E-01 -2.85388E-01
    8988.912     -6.913   0.440  1.80990E-01  4.81339E-01 -3.00349E-01
    8989.052     -6.773   0.480  1.87367E-01  5.02349E-01 -3.14982E-01
    8989.205     -6.620   0.520  1.93982E-01  5.22723E-01 -3.28741E-01
    8989.369     -6.456   0.560  2.01260E-01  5.42296E-01 -3.41036E-01
    8989.546     -6.279   0.600  2.09735E-01  5.61076E-01 -3.51341E-01
    8989.735     -6.090   0.640  2.19773E-01  5.79100E-01 -3.59327E-01
    8989.936     -5.889   0.680  2.31411E-01  5.96446E-01 -3.65035E-01
    8990.150     -5.676   0.720  2.44434E-01  6.13186E-01 -3.68752E-01
    8990.375     -5.450   0.760  2.58553E-01  6.29430E-01 -3.70878E-01
    8990.613     -5.212   0.800  2.73652E-01  6.45281E-01 -3.71629E-01
    8990.863     -4.962   0.840  2.89817E-01  6.60763E-01 -3.70946E-01
    8991.125     -4.700   0.880  3.07482E-01  6.75970E-01 -3.68488E-01
    8991.399     -4.426   0.920  3.27158E-01  6.90922E-01 -3.63764E-01
    8991.686     -4.139   0.960  3.49279E-01  7.05645E-01 -3.56366E-01
    8991.984     -3.841   1.000  3.73962E-01  7.20133E-01 -3.46171E-01
    8992.295     -3.530   1.040  4.02163E-01  7.34433E-01 -3.32271E-01
    8992.618     -3.207   1.080  4.36899E-01  7.48504E-01 -3.11605E-01
    8992.954     -2.871   1.120  4.81694E-01  7.62358E-01 -2.80663E-01
    8993.301     -2.524   1.160  5.36544E-01  7.75960E-01 -2.39416E-01
    8993.661     -2.164   1.200  5.96873E-01  7.89316E-01 -1.92442E-01
    8994.033     -1.792   1.240  6.55644E-01  8.02383E-01 -1.46739E-01
    8994.417     -1.408   1.280  7.08854E-01  8.15161E-01 -1.06307E-01
    8994.813     -1.012   1.320  7.57788E-01  8.27605E-01 -6.98171E-02
    8995.221     -0.604   1.360  7.98806E-01  8.39709E-01 -4.09033E-02
    8995.642     -0.183   1.400  8.25518E-01  8.51449E-01 -2.59309E-02
    8996.075      0.250   1.440  8.43994E-01  8.62797E-01 -1.88026E-02
    8996.520      0.695   1.480  8.67698E-01  8.73749E-01 -6.05086E-03
    8996.977      1.152   1.520  9.03290E-01  8.84258E-01  1.90323E-02
    8997.446      1.621   1.560  9.50909E-01  8.94341E-01  5.65678E-02
    8997.928      2.103   1.600  1.00905E+00  9.03974E-01  1.05073E-01
    8998.422      2.597   1.640  1.07543E+00  9.13153E-01  1.62281E-01
    8998.928      3.103   1.680  1.14703E+00  9.21835E-01  2.25197E-01
    8999.446      3.621   1.720  1.21397E+00  9.30063E-01  2.83909E-01
    8999.976      4.151   1.760  1.25981E+00  9.37814E-01  3.21997E-01
    9000.519      4.694   1.800  1.27435E+00  9.45091E-01  3.29258E-01
    9001.074      5.248   1.840  1.25806E+00  9.51897E-01  3.06164E-01
    9001.640      5.815   1.880  1.23116E+00  9.58213E-01  2.72947E-01
    9002.220      6.394   1.920  1.22060E+00  9.64086E-01  2.56518E-01
    9002.811      6.986   1.960  1.23231E+00  9.69520E-01  2.62793E-01
    9003.414      7.589   2.000  1.25173E+00  9.74482E-01  2.77243E-01
    9004.030      8.205   2.040  1.26298E+00  9.79040E-01  2.83937E-01
    9004.658      8.833   2.080  1.25570E+00  9.83180E-01  2.72523E-01
    9005.298      9.473   2.120  1.22546E+00  9.86910E-01  2.38553E-01
    9005.950     10.125   2.160  1.17778E+00  9.90260E-01  1.87521E-01
    9006.615     10.790   2.200  1.12342E+00  9.93259E-01  1.30161E-01
    9007.291     11.466   2.240  1.07507E+00  9.95896E-01  7.91776E-02
    9007.980     12.155   2.280  1.04101E+00  9.98199E-01  4.28148E-02
    9008.681     12.856   2.320  1.02516E+00  1.00020E+00  2.49580E-02
    9009.395     13.569   2.360  1.02892E+00  1.00191E+00  2.70151E-02
    9010.120     14.295   2.400  1.04650E+00  1.00333E+00  4.31716E-02
    9010.858     15.032   2.440  1.06746E+00  1.00450E+00  6.29563E-02
    9011.607     15.782   2.480  1.08411E+00  1.00543E+00  7.86782E-02
    9012.369     16.544   2.520  1.09153E+00  1.00616E+00  8.53631E-02
    9013.144     17.318   2.560  1.09144E+00  1.00667E+00  8.47704E-02
    9013.930     18.105   2.600  1.08732E+00  1.00700E+00  8.03203E-02
    9014.729     18.903   2.640  1.07990E+00  1.00717E+00  7.27370E-02
    9015.539     19.714   2.680  1.06889E+00  1.00719E+00  6.17009E-02
    9016.362     20.537   2.720  1.05390E+00  1.00707E+00  4.68252E-02
    9017.197     21.372   2.760  1.03532E+00  1.00685E+00  2.84697E-02
    9018.045     22.220   2.800  1.01392E+00  1.00651E+00  7.41279E-03
    9018.904     23.079   2.840  9.90713E-01  1.00608E+00 -1.53658E-02
    9019.776     23.951   2.880  9.67078E-01  1.00559E+00 -3.85133E-02
    9020.660     24.835   2.920  9.44230E-01  1.00501E+00 -6.07770E-02
    9021.556     25.731   2.960  9.23605E-01  1.00440E+00 -8.07909E-02
    9022.464     26.639   3.000  9.06340E-01  1.00372E+00 -9.73809E-02
    9023.385     27.560   3.040  8.92904E-01  1.00303E+00 -1.10126E-01
    9024.317     28.492   3.080  8.83317E-01  1.00233E+00 -1.19011E-01
    9025.262     29.437   3.120  8.77373E-01  1.00160E+00 -1.24226E-01
    9026.219     30.394   3.160  8.74499E-01  1.00087E+00 -1.26367E-01
    9027.189     31.364   3.200  8.74207E-01  1.00015E+00 -1.25946E-01
    9028.170     32.345   3.240  8.76156E-01  9.99424E-01 -1.23268E-01
    9029.164     33.339   3.280  8.79856E-01  9.98724E-01 -1.18868E-01
    9030.170     34.344   3.320  8.84752E-01  9.98056E-01 -1.13304E-01
    9031.188     35.363   3.360  8.90305E-01  9.97422E-01 -1.07117E-01
    9032.218     36.393   3.400  8.95935E-01  9.96804E-01 -1.00869E-01
    9033.260     37.435   3.440  9.01094E-01  9.96245E-01 -9.51505E-02
    9034.315     38.490   3.480  9.05603E-01  9.95706E-01 -9.01034E-02
    9035.382     39.557   3.520  9.09756E-01  9.95230E-01 -8.54747E-02
    9036.461     40.636   3.560  9.14026E-01  9.94798E-01 -8.07722E-02
    9037.552     41.727   3.600  9.19040E-01  9.94411E-01 -7.53710E-02
    9038.655     42.830   3.640  9.25354E-01  9.94089E-01 -6.87351E-02
    9039.771     43.946   3.680  9.33213E-01  9.93792E-01 -6.05796E-02
    9040.899     45.073   3.720  9.42599E-01  9.93585E-01 -5.09862E-02
    9042.038     46.213   3.760  9.53363E-01  9.93403E-01 -4.00398E-02
    9043.191     47.365   3.800  9.65372E-01  9.93289E-01 -2.79165E-02
    9044.355     48.530   3.840  9.78356E-01  9.93244E-01 -1.48883E-02
    9045.531     49.706   3.880  9.92038E-01  9.93226E-01 -1.18830E-03
    9046.720     50.895   3.920  1.00621E+00  9.93296E-01  1.29154E-02
    9047.921     52.096   3.960  1.02037E+00  9.93392E-01  2.69758E-02
    9049.134     53.309   4.000  1.03402E+00  9.93553E-01  4.04665E-02
    9050.359     54.534   4.040  1.04675E+00  9.93758E-01  5.29955E-02
    9051.597     55.772   4.080  1.05832E+00  9.94009E-01  6.43064E-02
    9052.847     57.022   4.120  1.06846E+00  9.94324E-01  7.41388E-02
    9054.109     58.283   4.160  1.07700E+00  9.94658E-01  8.23455E-02
    9055.383     59.557   4.200  1.08380E+00  9.95054E-01  8.87483E-02
    9056.669     60.844   4.240  1.08875E+00  9.95468E-01  9.32820E-02
    9057.967     62.142   4.280  1.09198E+00  9.95942E-01  9.60390E-02
    9059.278     63.453   4.320  1.09357E+00  9.96431E-01  9.71393E-02
    9060.601     64.776   4.360  1.09348E+00  9.96954E-01  9.65258E-02
    9061.936     66.111   4.400  1.09145E+00  9.97510E-01  9.39407E-02
    9063.283     67.458   4.440  1.08727E+00  9.98078E-01  8.91942E-02
    9064.642     68.817   4.480  1.08090E+00  9.98675E-01  8.22220E-02
    9066.014     70.189   4.520  1.07258E+00  9.99277E-01  7.33067E-02
    9067.398     71.573   4.560  1.06292E+00  9.99886E-01  6.30315E-02
    9068.794     72.969   4.600  1.05255E+00  1.00052E+00  5.20315E-02
    9070.202     74.377   4.640  1.04194E+00  1.00116E+00  4.07825E-02
    9071.622     75.797   4.680  1.03135E+00  1.00180E+00  2.95535E-02
    9073.055     77.230   4.720  1.02090E+00  1.00243E+00  1.84658E-02
    9074.500     78.674   4.760  1.01077E+00  1.00306E+00  7.70544E-03
    9075.956     80.131   4.800  1.00132E+00  1.00367E+00 -2.35213E-03
    9077.426     81.600   4.840  9.93045E-01  1.00429E+00 -1.12463E-02
    9078.907     83.082   4.880  9.86269E-01  1.00488E+00 -1.86137E-02
    9080.400     84.575   4.920  9.81066E-01  1.00544E+00 -2.43774E-02
    9081.906     86.081   4.960  9.77228E-01  1.00599E+00 -2.87646E-02
    9083.424     87.599   5.000  9.74413E-01  1.00653E+00 -3.21172E-02
    9084.954     89.129   5.040  9.72261E-01  1.00701E+00 -3.47499E-02
    9086.496     90.671   5.080  9.70643E-01  1.00748E+00 -3.68353E-02
    9088.051     92.226   5.120  9.69568E-01  1.00793E+00 -3.83616E-02
    9089.618     93.792   5.160  9.69085E-01  1.00832E+00 -3.92371E-02
    9091.196     95.371   5.200  9.69306E-01  1.00869E+00 -3.93886E-02
    9092.787     96.962   5.240  9.70176E-01  1.00901E+00 -3.88297E-02
    9094.391     98.566   5.280  9.71706E-01  1.00930E+00 -3.75899E-02
    9096.006    100.181   5.320  9.73863E-01  1.00952E+00 -3.56606E-02
    9097.634    101.809   5.360  9.76713E-01  1.00973E+00 -3.30175E-02
    9099.274    103.448   5.400  9.80089E-01  1.00987E+00 -2.97840E-02
    9100.926    105.100   5.440  9.83765E-01  1.01000E+00 -2.62302E-02
    9102.590    106.765   5.480  9.87408E-01  1.01005E+00 -2.26444E-02
    9104.266    108.441   5.520  9.90888E-01  1.01006E+00 -1.91755E-02
    9105.955    110.130   5.560  9.94196E-01  1.01003E+00 -1.58360E-02
    9107.656    111.830   5.600  9.97426E-01  1.00996E+00 -1.25307E-02
    9109.369    113.543   5.640  1.00061E+00  1.00982E+00 -9.21047E-03
    9111.094    115.269   5.680  1.00358E+00  1.00965E+00 -6.07117E-03
    9112.831    117.006   5.720  1.00576E+00  1.00943E+00 -3.67334E-03
    9114.581    118.755   5.760  1.00651E+00  1.00919E+00 -2.67032E-03
    9116.342    120.517   5.800  1.00546E+00  1.00888E+00 -3.42492E-03
    9118.116    122.291   5.840  1.00279E+00  1.00856E+00 -5.77154E-03
    9119.902    124.077   5.880  9.99023E-01  1.00818E+00 -9.15507E-03
    9121.701    125.876   5.920  9.94804E-01  1.00778E+00 -1.29813E-02
    9123.511    127.686   5.960  9.90507E-01  1.00733E+00 -1.68255E-02
    9125.334    129.509   6.000  9.86499E-01  1.00684E+00 -2.03438E-02
