# # comment:                                                     FEFF 9.9.1  
# # Source:
# # Structure
# # Reduced
# # space
# # abc:
# # angles:117.410556
# # sites:
# # POT  SCF 100  7.0000   0, screened core-hole, AFOLP (folp(0)= 1.150)
# # Abs   Z=29 Rmt= 1.247 Rnm= 1.325 K  shell
# # Pot 1 Z= 3 Rmt= 1.284 Rnm= 1.336
# # Pot 2 Z=29 Rmt= 1.237 Rnm= 1.324
# # Pot 3 Z=74 Rmt= 1.262 Rnm= 1.423
# # Pot 4 Z= 8 Rmt= 1.062 Rnm= 1.122
# # Gam_ch=1.729E+00 H-L exch Vi= 0.000E+00 Vr= 0.000E+00
# # Mu=-8.058E+00eV kf=2.103E+00 Vint=-1.595E+01eV Rs_int= 1.725
# FMS rfms= 9.0000
# # PATH  Rmax=-1.000,  Keep_limit= 0.00, Heap_limit 0.00  Pwcrit= 2.50%
#  S02=0.950  Temp=   0.00  Debye_temp=   0.00  Global_sig2= 0.00000
#  Energy zero shift, vr, vi    0.00000E+00   0.00000E+00
#  Curved wave amplitude ratio filter   4.000%
#     file         sig2 tot  cw amp ratio   deg  nlegs   reff  inp sig2
#     0/   0 paths used
#  xsedge+ 50, used to normalize mu           2.4479E-04
#  -----------------------------------------------------------------------
#  omega    e    k    mu    mu0     chi     @#
    8984.141    -11.868  -1.000  3.40579E-02  5.26544E-02 -1.85965E-02
    8984.440    -11.570  -0.960  3.55620E-02  5.64373E-02 -2.08753E-02
    8984.727    -11.283  -0.920  3.71469E-02  6.06364E-02 -2.34895E-02
    8985.001    -11.009  -0.880  3.88180E-02  6.53124E-02 -2.64943E-02
    8985.263    -10.747  -0.840  4.05812E-02  7.05358E-02 -2.99546E-02
    8985.513    -10.497  -0.800  4.24428E-02  7.63886E-02 -3.39457E-02
    8985.751    -10.259  -0.760  4.44098E-02  8.29644E-02 -3.85546E-02
    8985.976    -10.033  -0.720  4.64894E-02  9.03690E-02 -4.38796E-02
    8986.190     -9.820  -0.680  4.86889E-02  9.87189E-02 -5.00299E-02
    8986.391     -9.619  -0.640  5.10155E-02  1.08137E-01 -5.71212E-02
    8986.580     -9.430  -0.600  5.34746E-02  1.18743E-01 -6.52683E-02
    8986.756     -9.253  -0.560  5.60689E-02  1.30640E-01 -7.45711E-02
    8986.921     -9.089  -0.520  5.87956E-02  1.43888E-01 -8.50928E-02
    8987.073     -8.936  -0.480  6.16434E-02  1.58474E-01 -9.68301E-02
    8987.214     -8.796  -0.440  6.45890E-02  1.74268E-01 -1.09679E-01
    8987.342     -8.668  -0.400  6.75938E-02  1.90998E-01 -1.23404E-01
    8987.458     -8.552  -0.360  7.06032E-02  2.08235E-01 -1.37632E-01
    8987.561     -8.448  -0.320  7.35488E-02  2.25421E-01 -1.51873E-01
    8987.653     -8.357  -0.280  7.63549E-02  2.41938E-01 -1.65583E-01
    8987.732     -8.278  -0.240  7.89460E-02  2.57187E-01 -1.78241E-01
    8987.799     -8.211  -0.200  8.12540E-02  2.70670E-01 -1.89415E-01
    8987.854     -8.156  -0.160  8.32225E-02  2.82016E-01 -1.98793E-01
    8987.896     -8.113  -0.120  8.48072E-02  2.90989E-01 -2.06182E-01
    8987.927     -8.083  -0.080  8.59745E-02  2.97456E-01 -2.11481E-01
    8987.951     -8.058   0.000  8.69522E-02  3.02653E-01 -2.15700E-01
    8988.006     -8.003   0.120  8.91538E-02  3.14376E-01 -2.25222E-01
    8988.049     -7.961   0.160  9.08567E-02  3.23502E-01 -2.32645E-01
    8988.104     -7.906   0.200  9.30492E-02  3.35164E-01 -2.42115E-01
    8988.171     -7.839   0.240  9.57392E-02  3.49194E-01 -2.53454E-01
    8988.250     -7.760   0.280  9.89417E-02  3.65345E-01 -2.66403E-01
    8988.341     -7.668   0.320  1.02648E-01  3.83207E-01 -2.80559E-01
    8988.445     -7.565   0.360  1.06878E-01  4.02310E-01 -2.95432E-01
    8988.561     -7.449   0.400  1.11520E-01  4.22068E-01 -3.10548E-01
    8988.689     -7.321   0.440  1.16530E-01  4.42046E-01 -3.25516E-01
    8988.829     -7.180   0.480  1.21715E-01  4.61855E-01 -3.40140E-01
    8988.982     -7.028   0.520  1.26874E-01  4.81235E-01 -3.54361E-01
    8989.146     -6.863   0.560  1.31933E-01  5.00056E-01 -3.68124E-01
    8989.323     -6.687   0.600  1.37202E-01  5.18308E-01 -3.81106E-01
    8989.512     -6.498   0.640  1.43366E-01  5.36019E-01 -3.92653E-01
    8989.713     -6.297   0.680  1.51386E-01  5.53272E-01 -4.01886E-01
    8989.926     -6.083   0.720  1.62330E-01  5.70125E-01 -4.07795E-01
    8990.152     -5.858   0.760  1.77392E-01  5.86647E-01 -4.09255E-01
    8990.390     -5.620   0.800  1.97994E-01  6.02904E-01 -4.04910E-01
    8990.640     -5.370   0.840  2.25797E-01  6.18969E-01 -3.93171E-01
    8990.902     -5.108   0.880  2.61927E-01  6.34857E-01 -3.72930E-01
    8991.176     -4.834   0.920  3.05911E-01  6.50596E-01 -3.44685E-01
    8991.463     -4.547   0.960  3.55401E-01  6.66200E-01 -3.10800E-01
    8991.761     -4.248   1.000  4.07577E-01  6.81655E-01 -2.74078E-01
    8992.072     -3.937   1.040  4.57954E-01  6.96977E-01 -2.39023E-01
    8992.395     -3.614   1.080  4.97550E-01  7.12134E-01 -2.14585E-01
    8992.731     -3.279   1.120  5.18836E-01  7.27092E-01 -2.08255E-01
    8993.078     -2.932   1.160  5.25967E-01  7.41850E-01 -2.15882E-01
    8993.438     -2.572   1.200  5.32718E-01  7.56385E-01 -2.23666E-01
    8993.810     -2.200   1.240  5.51387E-01  7.70649E-01 -2.19261E-01
    8994.194     -1.816   1.280  5.84760E-01  7.84614E-01 -1.99854E-01
    8994.590     -1.420   1.320  6.23097E-01  7.98253E-01 -1.75156E-01
    8994.998     -1.011   1.360  6.55766E-01  8.11555E-01 -1.55788E-01
    8995.419     -0.591   1.400  6.78916E-01  8.24447E-01 -1.45531E-01
    8995.852     -0.158   1.440  6.93653E-01  8.36943E-01 -1.43290E-01
    8996.297      0.287   1.480  7.10318E-01  8.48994E-01 -1.38676E-01
    8996.754      0.744   1.520  7.43241E-01  8.60590E-01 -1.17349E-01
    8997.223      1.214   1.560  8.00915E-01  8.71705E-01 -7.07898E-02
    8997.705      1.695   1.600  8.83012E-01  8.82355E-01  6.57526E-04
    8998.199      2.189   1.640  9.86457E-01  8.92473E-01  9.39841E-02
    8998.705      2.695   1.680  1.09960E+00  9.02097E-01  1.97506E-01
    8999.223      3.213   1.720  1.19138E+00  9.11206E-01  2.80176E-01
    8999.753      3.744   1.760  1.25457E+00  9.19780E-01  3.34787E-01
    9000.296      4.286   1.800  1.32429E+00  9.27859E-01  3.96426E-01
    9000.850      4.841   1.840  1.40806E+00  9.35408E-01  4.72649E-01
    9001.417      5.408   1.880  1.48595E+00  9.42450E-01  5.43501E-01
    9001.996      5.987   1.920  1.54604E+00  9.48990E-01  5.97052E-01
    9002.588      6.578   1.960  1.57854E+00  9.55054E-01  6.23481E-01
    9003.191      7.182   2.000  1.56033E+00  9.60630E-01  5.99695E-01
    9003.807      7.797   2.040  1.47536E+00  9.65744E-01  5.09617E-01
    9004.435      8.425   2.080  1.34810E+00  9.70427E-01  3.77671E-01
    9005.075      9.065   2.120  1.21960E+00  9.74667E-01  2.44936E-01
    9005.727      9.718   2.160  1.11174E+00  9.78515E-01  1.33226E-01
    9006.392     10.382   2.200  1.02698E+00  9.81961E-01  4.50150E-02
    9007.068     11.059   2.240  9.60595E-01  9.85034E-01 -2.44383E-02
    9007.757     11.748   2.280  9.08025E-01  9.87765E-01 -7.97398E-02
    9008.458     12.449   2.320  8.67301E-01  9.90167E-01 -1.22866E-01
    9009.171     13.162   2.360  8.40185E-01  9.92268E-01 -1.52083E-01
    9009.897     13.887   2.400  8.31106E-01  9.94059E-01 -1.62953E-01
    9010.634     14.625   2.440  8.42293E-01  9.95613E-01 -1.53320E-01
    9011.384     15.375   2.480  8.71862E-01  9.96899E-01 -1.25037E-01
    9012.146     16.137   2.520  9.14967E-01  9.97968E-01 -8.30008E-02
    9012.920     16.911   2.560  9.53287E-01  9.98828E-01 -4.55410E-02
    9013.707     17.697   2.600  9.82200E-01  9.99511E-01 -1.73110E-02
    9014.505     18.496   2.640  1.00570E+00  1.00001E+00  5.69241E-03
    9015.316     19.307   2.680  1.02457E+00  1.00036E+00  2.42065E-02
    9016.139     20.129   2.720  1.03777E+00  1.00059E+00  3.71793E-02
    9016.974     20.965   2.760  1.04410E+00  1.00069E+00  4.34072E-02
    9017.822     21.812   2.800  1.04288E+00  1.00067E+00  4.22055E-02
    9018.681     22.672   2.840  1.03447E+00  1.00057E+00  3.39053E-02
    9019.553     23.543   2.880  1.02020E+00  1.00038E+00  1.98128E-02
    9020.437     24.427   2.920  1.00153E+00  1.00014E+00  1.38970E-03
    9021.333     25.323   2.960  9.80538E-01  9.99836E-01 -1.92981E-02
    9022.241     26.232   3.000  9.59505E-01  9.99505E-01 -4.00001E-02
    9023.162     27.152   3.040  9.40538E-01  9.99117E-01 -5.85787E-02
    9024.094     28.085   3.080  9.25026E-01  9.98738E-01 -7.37113E-02
    9025.039     29.030   3.120  9.13186E-01  9.98330E-01 -8.51447E-02
    9025.996     29.987   3.160  9.04192E-01  9.97918E-01 -9.37260E-02
    9026.966     30.956   3.200  8.97100E-01  9.97504E-01 -1.00404E-01
    9027.947     31.937   3.240  8.91387E-01  9.97092E-01 -1.05706E-01
    9028.941     32.931   3.280  8.87038E-01  9.96688E-01 -1.09650E-01
    9029.946     33.937   3.320  8.84687E-01  9.96334E-01 -1.11647E-01
    9030.965     34.955   3.360  8.85147E-01  9.95992E-01 -1.10845E-01
    9031.995     35.985   3.400  8.89053E-01  9.95663E-01 -1.06610E-01
    9033.037     37.028   3.440  8.96289E-01  9.95389E-01 -9.91005E-02
    9034.092     38.082   3.480  9.06157E-01  9.95132E-01 -8.89741E-02
    9035.159     39.149   3.520  9.17625E-01  9.94912E-01 -7.72869E-02
    9036.238     40.228   3.560  9.29664E-01  9.94733E-01 -6.50689E-02
    9037.329     41.319   3.600  9.41813E-01  9.94616E-01 -5.28024E-02
    9038.432     42.422   3.640  9.54096E-01  9.94521E-01 -4.04246E-02
    9039.548     43.538   3.680  9.66793E-01  9.94489E-01 -2.76952E-02
    9040.675     44.666   3.720  9.79993E-01  9.94498E-01 -1.45050E-02
    9041.815     45.806   3.760  9.93658E-01  9.94548E-01 -8.90476E-04
    9042.967     46.958   3.800  1.00753E+00  9.94640E-01  1.28864E-02
    9044.132     48.122   3.840  1.02106E+00  9.94772E-01  2.62903E-02
    9045.308     49.299   3.880  1.03346E+00  9.94945E-01  3.85166E-02
    9046.497     50.487   3.920  1.04382E+00  9.95158E-01  4.86636E-02
    9047.698     51.688   3.960  1.05159E+00  9.95410E-01  5.61762E-02
    9048.911     52.901   4.000  1.05700E+00  9.95704E-01  6.12940E-02
    9050.136     54.127   4.040  1.06091E+00  9.96057E-01  6.48554E-02
    9051.374     55.364   4.080  1.06408E+00  9.96425E-01  6.76560E-02
    9052.624     56.614   4.120  1.06661E+00  9.96807E-01  6.98045E-02
    9053.885     57.876   4.160  1.06796E+00  9.97244E-01  7.07205E-02
    9055.159     59.150   4.200  1.06719E+00  9.97694E-01  6.94990E-02
    9056.446     60.436   4.240  1.06368E+00  9.98176E-01  6.55059E-02
    9057.744     61.735   4.280  1.05751E+00  9.98667E-01  5.88386E-02
    9059.055     63.045   4.320  1.04956E+00  9.99188E-01  5.03720E-02
    9060.378     64.368   4.360  1.04117E+00  9.99715E-01  4.14505E-02
    9061.713     65.703   4.400  1.03366E+00  1.00027E+00  3.33930E-02
    9063.060     67.050   4.440  1.02796E+00  1.00080E+00  2.71548E-02
    9064.419     68.410   4.480  1.02449E+00  1.00136E+00  2.31334E-02
    9065.791     69.781   4.520  1.02326E+00  1.00192E+00  2.13401E-02
    9067.175     71.165   4.560  1.02404E+00  1.00248E+00  2.15665E-02
    9068.571     72.561   4.600  1.02650E+00  1.00303E+00  2.34701E-02
    9069.979     73.969   4.640  1.03014E+00  1.00358E+00  2.65545E-02
    9071.399     75.390   4.680  1.03426E+00  1.00411E+00  3.01535E-02
    9072.832     76.822   4.720  1.03807E+00  1.00463E+00  3.34403E-02
    9074.276     78.267   4.760  1.04064E+00  1.00514E+00  3.55013E-02
    9075.733     79.724   4.800  1.04112E+00  1.00564E+00  3.54874E-02
    9077.202     81.193   4.840  1.03884E+00  1.00608E+00  3.27558E-02
    9078.684     82.674   4.880  1.03355E+00  1.00654E+00  2.70160E-02
    9080.177     84.168   4.920  1.02537E+00  1.00693E+00  1.84371E-02
    9081.683     85.673   4.960  1.01508E+00  1.00732E+00  7.75672E-03
    9083.201     87.191   5.000  1.00392E+00  1.00767E+00 -3.75137E-03
    9084.731     88.721   5.040  9.93362E-01  1.00800E+00 -1.46376E-02
    9086.273     90.264   5.080  9.84582E-01  1.00827E+00 -2.36909E-02
    9087.828     91.818   5.120  9.78280E-01  1.00853E+00 -3.02483E-02
    9089.394     93.385   5.160  9.74411E-01  1.00875E+00 -3.43362E-02
    9090.973     94.964   5.200  9.72350E-01  1.00892E+00 -3.65747E-02
    9092.564     96.555   5.240  9.71167E-01  1.00906E+00 -3.78940E-02
    9094.168     98.158   5.280  9.70031E-01  1.00916E+00 -3.91256E-02
    9095.783     99.773   5.320  9.68421E-01  1.00921E+00 -4.07932E-02
    9097.411    101.401   5.360  9.66259E-01  1.00925E+00 -4.29929E-02
    9099.050    103.041   5.400  9.63673E-01  1.00923E+00 -4.55530E-02
    9100.702    104.693   5.440  9.61004E-01  1.00916E+00 -4.81537E-02
    9102.367    106.357   5.480  9.58607E-01  1.00905E+00 -5.04438E-02
    9104.043    108.033   5.520  9.56761E-01  1.00893E+00 -5.21650E-02
    9105.732    109.722   5.560  9.55417E-01  1.00874E+00 -5.33205E-02
    9107.432    111.423   5.600  9.54437E-01  1.00851E+00 -5.40733E-02
    9109.145    113.136   5.640  9.53787E-01  1.00827E+00 -5.44800E-02
    9110.871    114.861   5.680  9.53696E-01  1.00799E+00 -5.42917E-02
    9112.608    116.598   5.720  9.54675E-01  1.00767E+00 -5.29963E-02
    9114.357    118.348   5.760  9.57352E-01  1.00732E+00 -4.99644E-02
    9116.119    120.110   5.800  9.62194E-01  1.00693E+00 -4.47316E-02
    9117.893    121.884   5.840  9.69415E-01  1.00653E+00 -3.71124E-02
    9119.679    123.670   5.880  9.78828E-01  1.00610E+00 -2.72678E-02
    9121.478    125.468   5.920  9.89858E-01  1.00563E+00 -1.57774E-02
    9123.288    127.278   5.960  1.00152E+00  1.00517E+00 -3.65109E-03
    9125.111    129.101   6.000  1.01275E+00  1.00467E+00  8.08103E-03
