# # comment:                                                     FEFF 9.9.1  
# # Source:
# # Structure
# # Reduced
# # space
# # abc:
# # angles:109.471221
# # sites:
# # POT  SCF 100  7.0000   0, screened core-hole, AFOLP (folp(0)= 1.150)
# # Abs   Z=29 Rmt= 1.166 Rnm= 1.267 K  shell
# # Pot 1 Z=12 Rmt= 1.599 Rnm= 1.624
# # Pot 2 Z=25 Rmt= 1.268 Rnm= 1.381
# # Pot 3 Z=29 Rmt= 1.166 Rnm= 1.268
# # Pot 4 Z= 8 Rmt= 1.012 Rnm= 1.095
# # Gam_ch=1.729E+00 H-L exch Vi= 0.000E+00 Vr= 0.000E+00
# # Mu=-1.011E+01eV kf=2.199E+00 Vint=-1.805E+01eV Rs_int= 1.649
# FMS rfms= 9.0000
# # PATH  Rmax=-1.000,  Keep_limit= 0.00, Heap_limit 0.00  Pwcrit= 2.50%
#  S02=0.950  Temp=   0.00  Debye_temp=   0.00  Global_sig2= 0.00000
#  Energy zero shift, vr, vi    0.00000E+00   0.00000E+00
#  Curved wave amplitude ratio filter   4.000%
#     file         sig2 tot  cw amp ratio   deg  nlegs   reff  inp sig2
#     0/   0 paths used
#  xsedge+ 50, used to normalize mu           2.4741E-04
#  -----------------------------------------------------------------------
#  omega    e    k    mu    mu0     chi     @#
    8984.585    -13.920  -1.000  3.30088E-02  5.11913E-02 -1.81826E-02
    8984.884    -13.621  -0.960  3.45444E-02  5.48083E-02 -2.02639E-02
    8985.170    -13.335  -0.920  3.61792E-02  5.88181E-02 -2.26389E-02
    8985.444    -13.060  -0.880  3.79228E-02  6.32777E-02 -2.53548E-02
    8985.707    -12.798  -0.840  3.97863E-02  6.82533E-02 -2.84670E-02
    8985.956    -12.548  -0.800  4.17820E-02  7.38215E-02 -3.20395E-02
    8986.194    -12.310  -0.760  4.39243E-02  8.00701E-02 -3.61459E-02
    8986.420    -12.085  -0.720  4.62288E-02  8.70983E-02 -4.08695E-02
    8986.633    -11.871  -0.680  4.87129E-02  9.50149E-02 -4.63020E-02
    8986.834    -11.670  -0.640  5.13939E-02  1.03935E-01 -5.25408E-02
    8987.023    -11.481  -0.600  5.42881E-02  1.13970E-01 -5.96822E-02
    8987.200    -11.305  -0.560  5.74069E-02  1.25217E-01 -6.78102E-02
    8987.365    -11.140  -0.520  6.07523E-02  1.37731E-01 -7.69792E-02
    8987.517    -10.988  -0.480  6.43091E-02  1.51499E-01 -8.71900E-02
    8987.657    -10.847  -0.440  6.80381E-02  1.66400E-01 -9.83615E-02
    8987.785    -10.719  -0.400  7.18698E-02  1.82176E-01 -1.10306E-01
    8987.901    -10.604  -0.360  7.57050E-02  1.98426E-01 -1.22721E-01
    8988.005    -10.500  -0.320  7.94243E-02  2.14624E-01 -1.35200E-01
    8988.096    -10.408  -0.280  8.29061E-02  2.30191E-01 -1.47285E-01
    8988.175    -10.329  -0.240  8.60452E-02  2.44564E-01 -1.58519E-01
    8988.242    -10.262  -0.200  8.87654E-02  2.57272E-01 -1.68507E-01
    8988.297    -10.207  -0.160  9.10202E-02  2.67969E-01 -1.76949E-01
    8988.340    -10.165  -0.120  9.27861E-02  2.76430E-01 -1.83644E-01
    8988.370    -10.134  -0.080  9.40524E-02  2.82529E-01 -1.88477E-01
    8988.395    -10.110   0.000  9.50723E-02  2.87431E-01 -1.92359E-01
    8988.450    -10.055   0.120  9.74538E-02  2.98498E-01 -2.01044E-01
    8988.492    -10.012   0.160  9.92611E-02  3.07111E-01 -2.07850E-01
    8988.547     -9.957   0.200  1.01530E-01  3.18106E-01 -2.16575E-01
    8988.614     -9.890   0.240  1.04281E-01  3.31366E-01 -2.27085E-01
    8988.694     -9.811   0.280  1.07513E-01  3.46645E-01 -2.39132E-01
    8988.785     -9.720   0.320  1.11237E-01  3.63559E-01 -2.52322E-01
    8988.889     -9.616   0.360  1.15511E-01  3.81631E-01 -2.66120E-01
    8989.004     -9.500   0.400  1.20542E-01  4.00418E-01 -2.79876E-01
    8989.132     -9.372   0.440  1.26501E-01  4.19433E-01 -2.92932E-01
    8989.273     -9.232   0.480  1.33631E-01  4.38335E-01 -3.04704E-01
    8989.425     -9.080   0.520  1.42065E-01  4.56904E-01 -3.14838E-01
    8989.590     -8.915   0.560  1.51674E-01  4.75019E-01 -3.23345E-01
    8989.766     -8.738   0.600  1.62046E-01  4.92672E-01 -3.30626E-01
    8989.955     -8.549   0.640  1.72417E-01  5.09870E-01 -3.37453E-01
    8990.157     -8.348   0.680  1.82230E-01  5.26715E-01 -3.44485E-01
    8990.370     -8.135   0.720  1.91156E-01  5.43277E-01 -3.52121E-01
    8990.596     -7.909   0.760  1.99072E-01  5.59605E-01 -3.60534E-01
    8990.833     -7.671   0.800  2.06158E-01  5.75801E-01 -3.69643E-01
    8991.083     -7.421   0.840  2.12955E-01  5.91871E-01 -3.78916E-01
    8991.345     -7.159   0.880  2.21216E-01  6.07894E-01 -3.86679E-01
    8991.620     -6.885   0.920  2.34052E-01  6.23853E-01 -3.89802E-01
    8991.906     -6.598   0.960  2.54976E-01  6.39803E-01 -3.84826E-01
    8992.205     -6.300   1.000  2.86751E-01  6.55705E-01 -3.68954E-01
    8992.516     -5.989   1.040  3.33351E-01  6.71577E-01 -3.38226E-01
    8992.839     -5.666   1.080  4.03251E-01  6.87387E-01 -2.84136E-01
    8993.174     -5.330   1.120  5.09888E-01  7.03138E-01 -1.93250E-01
    8993.522     -4.983   1.160  6.62222E-01  7.18768E-01 -5.65466E-02
    8993.881     -4.623   1.200  8.31996E-01  7.34293E-01  9.77032E-02
    8994.253     -4.252   1.240  9.25281E-01  7.49623E-01  1.75658E-01
    8994.637     -3.867   1.280  8.78429E-01  7.64790E-01  1.13639E-01
    8995.033     -3.471   1.320  7.51871E-01  7.79700E-01 -2.78291E-02
    8995.442     -3.063   1.360  6.30940E-01  7.94340E-01 -1.63400E-01
    8995.862     -2.642   1.400  5.55190E-01  8.08698E-01 -2.53508E-01
    8996.295     -2.209   1.440  5.25016E-01  8.22698E-01 -2.97683E-01
    8996.740     -1.764   1.480  5.22520E-01  8.36329E-01 -3.13809E-01
    8997.197     -1.307   1.520  5.39034E-01  8.49556E-01 -3.10522E-01
    8997.667     -0.838   1.560  5.75272E-01  8.62346E-01 -2.87074E-01
    8998.148     -0.356   1.600  6.16075E-01  8.74691E-01 -2.58616E-01
    8998.642      0.138   1.640  6.42604E-01  8.86561E-01 -2.43957E-01
    8999.148      0.644   1.680  6.61280E-01  8.97925E-01 -2.36645E-01
    8999.666      1.162   1.720  6.87083E-01  9.08758E-01 -2.21674E-01
    9000.197      1.692   1.760  7.35263E-01  9.19073E-01 -1.83810E-01
    9000.739      2.235   1.800  8.12530E-01  9.28846E-01 -1.16316E-01
    9001.294      2.789   1.840  8.99761E-01  9.38075E-01 -3.83142E-02
    9001.861      3.356   1.880  9.55611E-01  9.46759E-01  8.85110E-03
    9002.440      3.935   1.920  9.67118E-01  9.54879E-01  1.22389E-02
    9003.031      4.527   1.960  9.76756E-01  9.62455E-01  1.43008E-02
    9003.635      5.130   2.000  1.02960E+00  9.69490E-01  6.01057E-02
    9004.250      5.746   2.040  1.13172E+00  9.75991E-01  1.55734E-01
    9004.878      6.374   2.080  1.23428E+00  9.81960E-01  2.52315E-01
    9005.518      7.014   2.120  1.29271E+00  9.87427E-01  3.05280E-01
    9006.171      7.666   2.160  1.31924E+00  9.92376E-01  3.26859E-01
    9006.835      8.331   2.200  1.32600E+00  9.96857E-01  3.29139E-01
    9007.512      9.007   2.240  1.31949E+00  1.00086E+00  3.18635E-01
    9008.201      9.696   2.280  1.31997E+00  1.00441E+00  3.15563E-01
    9008.902     10.397   2.320  1.34811E+00  1.00754E+00  3.40566E-01
    9009.615     11.110   2.360  1.39868E+00  1.01026E+00  3.88420E-01
    9010.340     11.836   2.400  1.43820E+00  1.01259E+00  4.25620E-01
    9011.078     12.573   2.440  1.43932E+00  1.01454E+00  4.24786E-01
    9011.828     13.323   2.480  1.39785E+00  1.01616E+00  3.81692E-01
    9012.590     14.085   2.520  1.31745E+00  1.01744E+00  3.00001E-01
    9013.364     14.859   2.560  1.21743E+00  1.01842E+00  1.99017E-01
    9014.150     15.646   2.600  1.13394E+00  1.01913E+00  1.14812E-01
    9014.949     16.444   2.640  1.09095E+00  1.01956E+00  7.13855E-02
    9015.760     17.255   2.680  1.06986E+00  1.01975E+00  5.01088E-02
    9016.583     18.078   2.720  1.05021E+00  1.01973E+00  3.04779E-02
    9017.418     18.913   2.760  1.02896E+00  1.01950E+00  9.45990E-03
    9018.265     19.761   2.800  1.00987E+00  1.01910E+00 -9.23781E-03
    9019.125     20.620   2.840  9.96483E-01  1.01852E+00 -2.20334E-02
    9019.996     21.492   2.880  9.88325E-01  1.01779E+00 -2.94689E-02
    9020.880     22.376   2.920  9.82102E-01  1.01692E+00 -3.48203E-02
    9021.776     23.272   2.960  9.74521E-01  1.01595E+00 -4.14318E-02
    9022.685     24.180   3.000  9.63582E-01  1.01489E+00 -5.13105E-02
    9023.605     25.101   3.040  9.48735E-01  1.01373E+00 -6.49926E-02
    9024.538     26.033   3.080  9.30802E-01  1.01251E+00 -8.17043E-02
    9025.483     26.978   3.120  9.11253E-01  1.01121E+00 -9.99608E-02
    9026.440     27.935   3.160  8.92098E-01  1.00990E+00 -1.17800E-01
    9027.409     28.904   3.200  8.75449E-01  1.00852E+00 -1.33074E-01
    9028.391     29.886   3.240  8.63056E-01  1.00714E+00 -1.44079E-01
    9029.384     30.880   3.280  8.54886E-01  1.00574E+00 -1.50854E-01
    9030.390     31.885   3.320  8.50440E-01  1.00434E+00 -1.53903E-01
    9031.408     32.903   3.360  8.49527E-01  1.00293E+00 -1.53398E-01
    9032.438     33.934   3.400  8.52168E-01  1.00155E+00 -1.49385E-01
    9033.481     34.976   3.440  8.57830E-01  1.00017E+00 -1.42342E-01
    9034.535     36.031   3.480  8.65774E-01  9.98843E-01 -1.33069E-01
    9035.602     37.097   3.520  8.75213E-01  9.97528E-01 -1.22315E-01
    9036.681     38.176   3.560  8.85570E-01  9.96253E-01 -1.10683E-01
    9037.772     39.268   3.600  8.96884E-01  9.95040E-01 -9.81562E-02
    9038.876     40.371   3.640  9.09354E-01  9.93850E-01 -8.44953E-02
    9039.991     41.487   3.680  9.22938E-01  9.92726E-01 -6.97881E-02
    9041.119     42.614   3.720  9.36844E-01  9.91671E-01 -5.48279E-02
    9042.259     43.754   3.760  9.49914E-01  9.90664E-01 -4.07508E-02
    9043.411     44.906   3.800  9.61145E-01  9.89707E-01 -2.85623E-02
    9044.575     46.071   3.840  9.70155E-01  9.88822E-01 -1.86667E-02
    9045.752     47.247   3.880  9.77080E-01  9.88012E-01 -1.09321E-02
    9046.941     48.436   3.920  9.82145E-01  9.87275E-01 -5.13011E-03
    9048.142     49.637   3.960  9.85219E-01  9.86591E-01 -1.37154E-03
    9049.355     50.850   4.000  9.85878E-01  9.85978E-01 -1.00075E-04
    9050.580     52.075   4.040  9.83808E-01  9.85421E-01 -1.61248E-03
    9051.817     53.313   4.080  9.79727E-01  9.84959E-01 -5.23152E-03
    9053.067     54.562   4.120  9.75613E-01  9.84549E-01 -8.93531E-03
    9054.329     55.824   4.160  9.74292E-01  9.84192E-01 -9.89992E-03
    9055.603     57.098   4.200  9.78334E-01  9.83930E-01 -5.59550E-03
    9056.889     58.385   4.240  9.88728E-01  9.83722E-01  5.00656E-03
    9058.188     59.683   4.280  1.00459E+00  9.83585E-01  2.10060E-02
    9059.498     60.994   4.320  1.02337E+00  9.83498E-01  3.98679E-02
    9060.821     62.317   4.360  1.04203E+00  9.83482E-01  5.85461E-02
    9062.156     63.652   4.400  1.05823E+00  9.83515E-01  7.47117E-02
    9063.503     64.999   4.440  1.07077E+00  9.83617E-01  8.71548E-02
    9064.863     66.358   4.480  1.07901E+00  9.83766E-01  9.52443E-02
    9066.234     67.730   4.520  1.08217E+00  9.83982E-01  9.81866E-02
    9067.618     69.114   4.560  1.07951E+00  9.84220E-01  9.52931E-02
    9069.014     70.510   4.600  1.07131E+00  9.84520E-01  8.67932E-02
    9070.422     71.918   4.640  1.05944E+00  9.84862E-01  7.45780E-02
    9071.843     73.338   4.680  1.04684E+00  9.85243E-01  6.16005E-02
    9073.275     74.771   4.720  1.03628E+00  9.85639E-01  5.06376E-02
    9074.720     76.215   4.760  1.02960E+00  9.86093E-01  4.35056E-02
    9076.177     77.672   4.800  1.02741E+00  9.86560E-01  4.08514E-02
    9077.646     79.141   4.840  1.02944E+00  9.87060E-01  4.23833E-02
    9079.127     80.623   4.880  1.03484E+00  9.87569E-01  4.72741E-02
    9080.621     82.116   4.920  1.04222E+00  9.88109E-01  5.41082E-02
    9082.127     83.622   4.960  1.04927E+00  9.88677E-01  6.05884E-02
    9083.644     85.140   5.000  1.05309E+00  9.89228E-01  6.38591E-02
    9085.175     86.670   5.040  1.05154E+00  9.89801E-01  6.17368E-02
    9086.717     88.212   5.080  1.04430E+00  9.90352E-01  5.39512E-02
    9088.271     89.767   5.120  1.03291E+00  9.90926E-01  4.19846E-02
    9089.838     91.333   5.160  1.01928E+00  9.91498E-01  2.77793E-02
    9091.417     92.912   5.200  1.00467E+00  9.92042E-01  1.26244E-02
    9093.008     94.503   5.240  9.89510E-01  9.92582E-01 -3.07125E-03
    9094.611     96.107   5.280  9.73961E-01  9.93115E-01 -1.91541E-02
    9096.227     97.722   5.320  9.58432E-01  9.93640E-01 -3.52079E-02
    9097.854     99.350   5.360  9.43593E-01  9.94112E-01 -5.05185E-02
    9099.494    100.989   5.400  9.30233E-01  9.94592E-01 -6.43584E-02
    9101.146    102.641   5.440  9.18770E-01  9.95015E-01 -7.62455E-02
    9102.810    104.306   5.480  9.09582E-01  9.95426E-01 -8.58436E-02
    9104.487    105.982   5.520  9.03128E-01  9.95801E-01 -9.26729E-02
    9106.175    107.671   5.560  9.00127E-01  9.96161E-01 -9.60336E-02
    9107.876    109.371   5.600  9.01205E-01  9.96458E-01 -9.52535E-02
    9109.589    111.084   5.640  9.06742E-01  9.96716E-01 -8.99743E-02
    9111.314    112.809   5.680  9.16712E-01  9.96957E-01 -8.02446E-02
    9113.051    114.547   5.720  9.30615E-01  9.97135E-01 -6.65202E-02
    9114.801    116.296   5.760  9.47911E-01  9.97294E-01 -4.93826E-02
    9116.563    118.058   5.800  9.67944E-01  9.97388E-01 -2.94440E-02
    9118.337    119.832   5.840  9.89501E-01  9.97440E-01 -7.93840E-03
    9120.123    121.618   5.880  1.01004E+00  9.97450E-01  1.25912E-02
    9121.921    123.416   5.920  1.02647E+00  9.97416E-01  2.90503E-02
    9123.732    125.227   5.960  1.03673E+00  9.97335E-01  3.93906E-02
    9125.554    127.050   6.000  1.04010E+00  9.97153E-01  4.29422E-02
