# # comment:                                                     FEFF 9.9.1  
# # Source:
# # Structure
# # Reduced
# # space
# # abc:
# # angles:
# # sites:
# # POT  SCF 100  7.0000   0, screened core-hole, AFOLP (folp(0)= 1.150)
# # Abs   Z=29 Rmt= 1.234 Rnm= 1.314 K  shell
# # Pot 1 Z=12 Rmt= 1.379 Rnm= 1.454
# # Pot 2 Z=29 Rmt= 1.233 Rnm= 1.314
# # Pot 3 Z= 8 Rmt= 1.012 Rnm= 1.102
# # Gam_ch=1.729E+00 H-L exch Vi= 0.000E+00 Vr= 0.000E+00
# # Mu=-8.633E+00eV kf=2.123E+00 Vint=-1.732E+01eV Rs_int= 1.708
# FMS rfms= 9.0000
# # PATH  Rmax=-1.000,  Keep_limit= 0.00, Heap_limit 0.00  Pwcrit= 2.50%
#  S02=0.950  Temp=   0.00  Debye_temp=   0.00  Global_sig2= 0.00000
#  Energy zero shift, vr, vi    0.00000E+00   0.00000E+00
#  Curved wave amplitude ratio filter   4.000%
#     file         sig2 tot  cw amp ratio   deg  nlegs   reff  inp sig2
#     0/   0 paths used
#  xsedge+ 50, used to normalize mu           2.4574E-04
#  -----------------------------------------------------------------------
#  omega    e    k    mu    mu0     chi     @#
    8984.449    -12.443  -1.000  3.77576E-02  5.47728E-02 -1.70153E-02
    8984.748    -12.145  -0.960  3.95984E-02  5.87646E-02 -1.91661E-02
    8985.034    -11.858  -0.920  4.15529E-02  6.32005E-02 -2.16476E-02
    8985.308    -11.584  -0.880  4.36289E-02  6.81460E-02 -2.45171E-02
    8985.570    -11.322  -0.840  4.58352E-02  7.36772E-02 -2.78420E-02
    8985.820    -11.072  -0.800  4.81808E-02  7.98821E-02 -3.17013E-02
    8986.058    -10.834  -0.760  5.06751E-02  8.68618E-02 -3.61868E-02
    8986.284    -10.608  -0.720  5.33277E-02  9.47307E-02 -4.14030E-02
    8986.497    -10.395  -0.680  5.61481E-02  1.03614E-01 -4.74663E-02
    8986.698    -10.194  -0.640  5.91445E-02  1.13646E-01 -5.45011E-02
    8986.887    -10.005  -0.600  6.23227E-02  1.24955E-01 -6.26320E-02
    8987.064     -9.828  -0.560  6.56838E-02  1.37653E-01 -7.19691E-02
    8987.229     -9.664  -0.520  6.92208E-02  1.51806E-01 -8.25854E-02
    8987.381     -9.511  -0.480  7.29141E-02  1.67400E-01 -9.44856E-02
    8987.521     -9.371  -0.440  7.67269E-02  1.84297E-01 -1.07570E-01
    8987.649     -9.243  -0.400  8.06009E-02  2.02203E-01 -1.21602E-01
    8987.765     -9.127  -0.360  8.44568E-02  2.20657E-01 -1.36201E-01
    8987.869     -9.023  -0.320  8.81991E-02  2.39059E-01 -1.50860E-01
    8987.960     -8.932  -0.280  9.17270E-02  2.56742E-01 -1.65015E-01
    8988.039     -8.853  -0.240  9.49463E-02  2.73064E-01 -1.78118E-01
    8988.106     -8.786  -0.200  9.77789E-02  2.87490E-01 -1.89711E-01
    8988.161     -8.731  -0.160  1.00165E-01  2.99626E-01 -1.99461E-01
    8988.204     -8.688  -0.120  1.02061E-01  3.09220E-01 -2.07159E-01
    8988.234     -8.658  -0.080  1.03436E-01  3.16132E-01 -2.12696E-01
    8988.259     -8.633   0.000  1.04552E-01  3.21687E-01 -2.17135E-01
    8988.314     -8.578   0.120  1.07241E-01  3.34209E-01 -2.26969E-01
    8988.356     -8.536   0.160  1.09302E-01  3.43956E-01 -2.34654E-01
    8988.411     -8.481   0.200  1.11938E-01  3.56372E-01 -2.44433E-01
    8988.478     -8.414   0.240  1.15189E-01  3.71331E-01 -2.56142E-01
    8988.558     -8.335   0.280  1.19050E-01  3.88517E-01 -2.69468E-01
    8988.649     -8.243   0.320  1.23567E-01  4.07477E-01 -2.83910E-01
    8988.753     -8.140   0.360  1.28807E-01  4.27672E-01 -2.98865E-01
    8988.868     -8.024   0.400  1.34943E-01  4.48547E-01 -3.13604E-01
    8988.996     -7.896   0.440  1.42154E-01  4.69518E-01 -3.27364E-01
    8989.137     -7.756   0.480  1.50807E-01  4.90219E-01 -3.39413E-01
    8989.289     -7.603   0.520  1.61316E-01  5.10351E-01 -3.49035E-01
    8989.454     -7.439   0.560  1.74261E-01  5.29795E-01 -3.55534E-01
    8989.630     -7.262   0.600  1.90392E-01  5.48517E-01 -3.58125E-01
    8989.819     -7.073   0.640  2.10648E-01  5.66574E-01 -3.55926E-01
    8990.021     -6.872   0.680  2.36142E-01  5.84019E-01 -3.47876E-01
    8990.234     -6.658   0.720  2.68136E-01  6.00958E-01 -3.32822E-01
    8990.459     -6.433   0.760  3.07651E-01  6.17476E-01 -3.09826E-01
    8990.697     -6.195   0.800  3.54538E-01  6.33650E-01 -2.79112E-01
    8990.947     -5.945   0.840  4.05736E-01  6.49520E-01 -2.43784E-01
    8991.209     -5.683   0.880  4.54720E-01  6.65175E-01 -2.10456E-01
    8991.484     -5.409   0.920  4.95797E-01  6.80610E-01 -1.84813E-01
    8991.770     -5.122   0.960  5.29694E-01  6.95868E-01 -1.66173E-01
    8992.069     -4.823   1.000  5.59936E-01  7.10940E-01 -1.51004E-01
    8992.380     -4.512   1.040  5.85194E-01  7.25849E-01 -1.40655E-01
    8992.703     -4.189   1.080  5.98380E-01  7.40570E-01 -1.42190E-01
    8993.038     -3.854   1.120  5.95161E-01  7.55072E-01 -1.59911E-01
    8993.386     -3.507   1.160  5.82683E-01  7.69380E-01 -1.86697E-01
    8993.745     -3.147   1.200  5.74370E-01  7.83435E-01 -2.09065E-01
    8994.117     -2.775   1.240  5.76871E-01  7.97232E-01 -2.20361E-01
    8994.501     -2.391   1.280  5.85663E-01  8.10747E-01 -2.25085E-01
    8994.897     -1.995   1.320  5.95196E-01  8.23933E-01 -2.28737E-01
    8995.306     -1.586   1.360  6.08442E-01  8.36762E-01 -2.28320E-01
    8995.726     -1.166   1.400  6.31641E-01  8.49226E-01 -2.17586E-01
    8996.159     -0.733   1.440  6.67383E-01  8.61300E-01 -1.93917E-01
    8996.604     -0.288   1.480  7.14676E-01  8.72951E-01 -1.58275E-01
    8997.061      0.169   1.520  7.70604E-01  8.84155E-01 -1.13551E-01
    8997.531      0.639   1.560  8.33877E-01  8.94925E-01 -6.10476E-02
    8998.012      1.120   1.600  9.01406E-01  9.05195E-01 -3.78889E-03
    8998.506      1.614   1.640  9.69802E-01  9.15002E-01  5.48001E-02
    8999.012      2.120   1.680  1.04801E+00  9.24301E-01  1.23713E-01
    8999.530      2.638   1.720  1.14404E+00  9.33091E-01  2.10952E-01
    9000.061      3.168   1.760  1.24451E+00  9.41369E-01  3.03137E-01
    9000.603      3.711   1.800  1.32596E+00  9.49159E-01  3.76801E-01
    9001.158      4.266   1.840  1.38606E+00  9.56421E-01  4.29639E-01
    9001.725      4.833   1.880  1.43126E+00  9.63199E-01  4.68061E-01
    9002.304      5.412   1.920  1.44914E+00  9.69455E-01  4.79683E-01
    9002.895      6.003   1.960  1.43553E+00  9.75257E-01  4.60275E-01
    9003.499      6.607   2.000  1.40345E+00  9.80549E-01  4.22903E-01
    9004.114      7.222   2.040  1.35707E+00  9.85398E-01  3.71672E-01
    9004.742      7.850   2.080  1.28830E+00  9.89772E-01  2.98525E-01
    9005.382      8.490   2.120  1.20613E+00  9.93741E-01  2.12387E-01
    9006.035      9.143   2.160  1.12630E+00  9.97272E-01  1.29028E-01
    9006.699      9.807   2.200  1.05963E+00  1.00042E+00  5.92143E-02
    9007.376     10.484   2.240  1.01606E+00  1.00316E+00  1.28962E-02
    9008.065     11.172   2.280  9.98454E-01  1.00556E+00 -7.10344E-03
    9008.766     11.874   2.320  1.00139E+00  1.00760E+00 -6.20419E-03
    9009.479     12.587   2.360  1.01528E+00  1.00933E+00  5.95291E-03
    9010.204     13.312   2.400  1.02924E+00  1.01074E+00  1.84924E-02
    9010.942     14.050   2.440  1.03863E+00  1.01189E+00  2.67364E-02
    9011.692     14.800   2.480  1.04962E+00  1.01277E+00  3.68595E-02
    9012.454     15.562   2.520  1.06797E+00  1.01341E+00  5.45615E-02
    9013.228     16.336   2.560  1.08515E+00  1.01382E+00  7.13241E-02
    9014.014     17.122   2.600  1.09286E+00  1.01403E+00  7.88318E-02
    9014.813     17.921   2.640  1.09069E+00  1.01406E+00  7.66331E-02
    9015.624     18.731   2.680  1.07857E+00  1.01390E+00  6.46774E-02
    9016.447     19.554   2.720  1.05842E+00  1.01360E+00  4.48229E-02
    9017.282     20.390   2.760  1.03405E+00  1.01317E+00  2.08846E-02
    9018.129     21.237   2.800  1.00804E+00  1.01262E+00 -4.57293E-03
    9018.989     22.096   2.840  9.82169E-01  1.01195E+00 -2.97795E-02
    9019.860     22.968   2.880  9.57962E-01  1.01122E+00 -5.32544E-02
    9020.744     23.852   2.920  9.36288E-01  1.01038E+00 -7.40952E-02
    9021.640     24.748   2.960  9.17871E-01  1.00950E+00 -9.16251E-02
    9022.549     25.657   3.000  9.03162E-01  1.00856E+00 -1.05402E-01
    9023.469     26.577   3.040  8.91988E-01  1.00759E+00 -1.15604E-01
    9024.402     27.510   3.080  8.83974E-01  1.00660E+00 -1.22631E-01
    9025.347     28.455   3.120  8.78788E-01  1.00559E+00 -1.26800E-01
    9026.304     29.412   3.160  8.76038E-01  1.00456E+00 -1.28524E-01
    9027.273     30.381   3.200  8.75455E-01  1.00354E+00 -1.28080E-01
    9028.254     31.362   3.240  8.76830E-01  1.00251E+00 -1.25680E-01
    9029.248     32.356   3.280  8.79863E-01  1.00149E+00 -1.21628E-01
    9030.254     33.362   3.320  8.84192E-01  1.00050E+00 -1.16310E-01
    9031.272     34.380   3.360  8.89592E-01  9.99549E-01 -1.09956E-01
    9032.302     35.410   3.400  8.95951E-01  9.98632E-01 -1.02681E-01
    9033.345     36.452   3.440  9.03148E-01  9.97753E-01 -9.46049E-02
    9034.399     37.507   3.480  9.11334E-01  9.96916E-01 -8.55823E-02
    9035.466     38.574   3.520  9.20843E-01  9.96120E-01 -7.52770E-02
    9036.545     39.653   3.560  9.31849E-01  9.95366E-01 -6.35169E-02
    9037.636     40.744   3.600  9.43983E-01  9.94658E-01 -5.06754E-02
    9038.740     41.847   3.640  9.56565E-01  9.94019E-01 -3.74544E-02
    9039.855     42.963   3.680  9.68681E-01  9.93450E-01 -2.47690E-02
    9040.983     44.091   3.720  9.79492E-01  9.92929E-01 -1.34374E-02
    9042.123     45.231   3.760  9.88681E-01  9.92456E-01 -3.77488E-03
    9043.275     46.383   3.800  9.96581E-01  9.92052E-01  4.52881E-03
    9044.439     47.547   3.840  1.00391E+00  9.91699E-01  1.22129E-02
    9045.616     48.724   3.880  1.01161E+00  9.91418E-01  2.01969E-02
    9046.805     49.912   3.920  1.02028E+00  9.91208E-01  2.90766E-02
    9048.005     51.113   3.960  1.02970E+00  9.91046E-01  3.86501E-02
    9049.219     52.326   4.000  1.03894E+00  9.90933E-01  4.80073E-02
    9050.444     53.552   4.040  1.04694E+00  9.90890E-01  5.60453E-02
    9051.681     54.789   4.080  1.05290E+00  9.90914E-01  6.19830E-02
    9052.931     56.039   4.120  1.05670E+00  9.90964E-01  6.57311E-02
    9054.193     57.301   4.160  1.05894E+00  9.91081E-01  6.78622E-02
    9055.467     58.575   4.200  1.06039E+00  9.91243E-01  6.91457E-02
    9056.753     59.861   4.240  1.06162E+00  9.91471E-01  7.01459E-02
    9058.052     61.159   4.280  1.06278E+00  9.91740E-01  7.10411E-02
    9059.362     62.470   4.320  1.06369E+00  9.92027E-01  7.16612E-02
    9060.685     63.793   4.360  1.06391E+00  9.92377E-01  7.15365E-02
    9062.020     65.128   4.400  1.06290E+00  9.92743E-01  7.01585E-02
    9063.367     66.475   4.440  1.06048E+00  9.93167E-01  6.73082E-02
    9064.727     67.835   4.480  1.05681E+00  9.93606E-01  6.32039E-02
    9066.098     69.206   4.520  1.05253E+00  9.94077E-01  5.84547E-02
    9067.482     70.590   4.560  1.04834E+00  9.94558E-01  5.37850E-02
    9068.878     71.986   4.600  1.04473E+00  9.95070E-01  4.96596E-02
    9070.286     73.394   4.640  1.04166E+00  9.95611E-01  4.60444E-02
    9071.707     74.814   4.680  1.03868E+00  9.96136E-01  4.25461E-02
    9073.139     76.247   4.720  1.03531E+00  9.96687E-01  3.86198E-02
    9074.584     77.692   4.760  1.03095E+00  9.97264E-01  3.36835E-02
    9076.041     79.149   4.800  1.02503E+00  9.97818E-01  2.72111E-02
    9077.510     80.618   4.840  1.01727E+00  9.98369E-01  1.89055E-02
    9078.991     82.099   4.880  1.00783E+00  9.98918E-01  8.91610E-03
    9080.485     83.593   4.920  9.97285E-01  9.99462E-01 -2.17687E-03
    9081.991     85.098   4.960  9.86281E-01  9.99979E-01 -1.36979E-02
    9083.508     86.616   5.000  9.75371E-01  1.00051E+00 -2.51413E-02
    9085.038     88.146   5.040  9.64741E-01  1.00101E+00 -3.62739E-02
    9086.581     89.689   5.080  9.54494E-01  1.00148E+00 -4.69901E-02
    9088.135     91.243   5.120  9.44832E-01  1.00194E+00 -5.71096E-02
    9089.702     92.810   5.160  9.36094E-01  1.00236E+00 -6.62700E-02
    9091.281     94.389   5.200  9.28897E-01  1.00275E+00 -7.38539E-02
    9092.872     95.980   5.240  9.23982E-01  1.00312E+00 -7.91429E-02
    9094.475     97.583   5.280  9.21956E-01  1.00346E+00 -8.15051E-02
    9096.090     99.198   5.320  9.23237E-01  1.00376E+00 -8.05221E-02
    9097.718    100.826   5.360  9.28047E-01  1.00402E+00 -7.59716E-02
    9099.358    102.466   5.400  9.36447E-01  1.00426E+00 -6.78137E-02
    9101.010    104.118   5.440  9.48087E-01  1.00444E+00 -5.63521E-02
    9102.674    105.782   5.480  9.62083E-01  1.00457E+00 -4.24904E-02
    9104.351    107.458   5.520  9.76941E-01  1.00467E+00 -2.77266E-02
    9106.039    109.147   5.560  9.90973E-01  1.00472E+00 -1.37499E-02
    9107.740    110.848   5.600  1.00283E+00  1.00476E+00 -1.92651E-03
    9109.453    112.561   5.640  1.01161E+00  1.00473E+00  6.87964E-03
    9111.178    114.286   5.680  1.01699E+00  1.00466E+00  1.23298E-02
    9112.915    116.023   5.720  1.01915E+00  1.00455E+00  1.46034E-02
    9114.665    117.773   5.760  1.01875E+00  1.00440E+00  1.43510E-02
    9116.427    119.535   5.800  1.01687E+00  1.00420E+00  1.26720E-02
    9118.201    121.308   5.840  1.01505E+00  1.00394E+00  1.11078E-02
    9119.987    123.095   5.880  1.01484E+00  1.00367E+00  1.11672E-02
    9121.785    124.893   5.920  1.01687E+00  1.00336E+00  1.35053E-02
    9123.596    126.703   5.960  1.02053E+00  1.00302E+00  1.75179E-02
    9125.418    128.526   6.000  1.02435E+00  1.00261E+00  2.17448E-02
