# # comment:                                                     FEFF 9.9.1  
# # Source:
# # Structure
# # Reduced
# # space
# # abc:
# # angles:
# # sites:
# # POT  SCF 100  7.0000   0, screened core-hole, AFOLP (folp(0)= 1.150)
# # Abs   Z=29 Rmt= 1.288 Rnm= 1.358 K  shell
# # Pot 1 Z=19 Rmt= 1.825 Rnm= 1.857
# # Pot 2 Z=73 Rmt= 1.318 Rnm= 1.462
# # Pot 3 Z=29 Rmt= 1.258 Rnm= 1.330
# # Pot 4 Z= 8 Rmt= 1.001 Rnm= 1.083
# # Gam_ch=1.729E+00 H-L exch Vi= 0.000E+00 Vr= 0.000E+00
# # Mu=-6.327E+00eV kf=2.236E+00 Vint=-1.665E+01eV Rs_int= 1.622
# FMS rfms= 9.0000
# # PATH  Rmax=-1.000,  Keep_limit= 0.00, Heap_limit 0.00  Pwcrit= 2.50%
#  S02=0.950  Temp=   0.00  Debye_temp=   0.00  Global_sig2= 0.00000
#  Energy zero shift, vr, vi    0.00000E+00   0.00000E+00
#  Curved wave amplitude ratio filter   4.000%
#     file         sig2 tot  cw amp ratio   deg  nlegs   reff  inp sig2
#     0/   0 paths used
#  xsedge+ 50, used to normalize mu           2.4674E-04
#  -----------------------------------------------------------------------
#  omega    e    k    mu    mu0     chi     @#
    8983.641    -10.137  -1.000  5.25721E-02  5.69635E-02 -4.39141E-03
    8983.939     -9.838  -0.960  5.60185E-02  6.12041E-02 -5.18568E-03
    8984.226     -9.552  -0.920  5.97861E-02  6.59259E-02 -6.13984E-03
    8984.500     -9.278  -0.880  6.39132E-02  7.12005E-02 -7.28733E-03
    8984.762     -9.015  -0.840  6.84431E-02  7.71116E-02 -8.66852E-03
    8985.012     -8.765  -0.800  7.34243E-02  8.37561E-02 -1.03318E-02
    8985.250     -8.528  -0.760  7.89111E-02  9.12456E-02 -1.23345E-02
    8985.476     -8.302  -0.720  8.49624E-02  9.97060E-02 -1.47436E-02
    8985.689     -8.089  -0.680  9.16412E-02  1.09276E-01 -1.76352E-02
    8985.890     -7.888  -0.640  9.90116E-02  1.20104E-01 -2.10922E-02
    8986.079     -7.699  -0.600  1.07134E-01  1.32333E-01 -2.51991E-02
    8986.256     -7.522  -0.560  1.16055E-01  1.46087E-01 -3.00319E-02
    8986.420     -7.357  -0.520  1.25799E-01  1.61441E-01 -3.56416E-02
    8986.573     -7.205  -0.480  1.36347E-01  1.78379E-01 -4.20316E-02
    8986.713     -7.065  -0.440  1.47622E-01  1.96753E-01 -4.91315E-02
    8986.841     -6.937  -0.400  1.59464E-01  2.16240E-01 -5.67759E-02
    8986.957     -6.821  -0.360  1.71631E-01  2.36333E-01 -6.47014E-02
    8987.060     -6.717  -0.320  1.83799E-01  2.56371E-01 -7.25721E-02
    8987.152     -6.626  -0.280  1.95592E-01  2.75624E-01 -8.00322E-02
    8987.231     -6.547  -0.240  2.06621E-01  2.93389E-01 -8.67686E-02
    8987.298     -6.479  -0.200  2.16524E-01  3.09080E-01 -9.25562E-02
    8987.353     -6.425  -0.160  2.25000E-01  3.22272E-01 -9.72715E-02
    8987.396     -6.382  -0.120  2.31818E-01  3.32693E-01 -1.00875E-01
    8987.426     -6.351  -0.080  2.36816E-01  3.40196E-01 -1.03379E-01
    8987.451     -6.327   0.000  2.40937E-01  3.46221E-01 -1.05285E-01
    8987.505     -6.272   0.120  2.49945E-01  3.59798E-01 -1.09854E-01
    8987.548     -6.230   0.160  2.57024E-01  3.70326E-01 -1.13302E-01
    8987.603     -6.175   0.200  2.66248E-01  3.83774E-01 -1.17525E-01
    8987.670     -6.108   0.240  2.77592E-01  3.99924E-01 -1.22332E-01
    8987.749     -6.028   0.280  2.90998E-01  4.18413E-01 -1.27415E-01
    8987.841     -5.937   0.320  3.06294E-01  4.38744E-01 -1.32450E-01
    8987.944     -5.833   0.360  3.23200E-01  4.60322E-01 -1.37123E-01
    8988.060     -5.718   0.400  3.41296E-01  4.82455E-01 -1.41159E-01
    8988.188     -5.589   0.440  3.60161E-01  5.04568E-01 -1.44407E-01
    8988.328     -5.449   0.480  3.79382E-01  5.26161E-01 -1.46779E-01
    8988.481     -5.297   0.520  3.98880E-01  5.46961E-01 -1.48081E-01
    8988.645     -5.132   0.560  4.18886E-01  5.66795E-01 -1.47908E-01
    8988.822     -4.956   0.600  4.40308E-01  5.85669E-01 -1.45361E-01
    8989.011     -4.767   0.640  4.64879E-01  6.03610E-01 -1.38731E-01
    8989.212     -4.565   0.680  4.95649E-01  6.20727E-01 -1.25077E-01
    8989.426     -4.352   0.720  5.37290E-01  6.37123E-01 -9.98327E-02
    8989.651     -4.126   0.760  5.95426E-01  6.52923E-01 -5.74974E-02
    8989.889     -3.889   0.800  6.73700E-01  6.68200E-01  5.49983E-03
    8990.139     -3.639   0.840  7.68230E-01  6.83035E-01  8.51949E-02
    8990.401     -3.377   0.880  8.62268E-01  6.97533E-01  1.64736E-01
    8990.675     -3.102   0.920  9.29685E-01  7.11700E-01  2.17986E-01
    8990.962     -2.816   0.960  9.51231E-01  7.25594E-01  2.25637E-01
    8991.261     -2.517   1.000  9.26104E-01  7.39260E-01  1.86844E-01
    8991.572     -2.206   1.040  8.69387E-01  7.52671E-01  1.16716E-01
    8991.895     -1.883   1.080  8.06380E-01  7.65874E-01  4.05059E-02
    8992.230     -1.548   1.120  7.61010E-01  7.78848E-01 -1.78378E-02
    8992.577     -1.200   1.160  7.41431E-01  7.91585E-01 -5.01544E-02
    8992.937     -0.841   1.200  7.41726E-01  8.04074E-01 -6.23488E-02
    8993.309     -0.469   1.240  7.58552E-01  8.16320E-01 -5.77682E-02
    8993.693     -0.085   1.280  7.95119E-01  8.28285E-01 -3.31660E-02
    8994.089      0.311   1.320  8.51169E-01  8.39969E-01  1.11993E-02
    8994.498      0.720   1.360  9.12651E-01  8.51351E-01  6.13003E-02
    8994.918      1.140   1.400  9.51682E-01  8.62427E-01  8.92554E-02
    8995.351      1.573   1.440  9.51774E-01  8.73153E-01  7.86204E-02
    8995.796      2.018   1.480  9.32350E-01  8.83506E-01  4.88435E-02
    8996.253      2.475   1.520  9.31591E-01  8.93501E-01  3.80891E-02
    8996.723      2.945   1.560  9.76431E-01  9.03117E-01  7.33141E-02
    8997.204      3.426   1.600  1.05005E+00  9.12348E-01  1.37705E-01
    8997.698      3.920   1.640  1.08772E+00  9.21151E-01  1.66571E-01
    8998.204      4.426   1.680  1.06499E+00  9.29525E-01  1.35467E-01
    8998.722      4.944   1.720  1.02849E+00  9.37508E-01  9.09804E-02
    8999.252      5.475   1.760  1.00588E+00  9.45038E-01  6.08460E-02
    8999.795      6.017   1.800  9.93140E-01  9.52137E-01  4.10036E-02
    9000.350      6.572   1.840  9.92542E-01  9.58825E-01  3.37170E-02
    9000.917      7.139   1.880  1.00845E+00  9.65065E-01  4.33828E-02
    9001.496      7.718   1.920  1.03920E+00  9.70879E-01  6.83254E-02
    9002.087      8.309   1.960  1.08130E+00  9.76271E-01  1.05029E-01
    9002.691      8.913   2.000  1.12755E+00  9.81265E-01  1.46282E-01
    9003.306      9.529   2.040  1.16699E+00  9.85826E-01  1.81168E-01
    9003.934     10.156   2.080  1.19463E+00  9.90020E-01  2.04613E-01
    9004.574     10.796   2.120  1.21686E+00  9.93812E-01  2.23049E-01
    9005.226     11.449   2.160  1.23965E+00  9.97230E-01  2.42424E-01
    9005.891     12.113   2.200  1.25466E+00  1.00030E+00  2.54361E-01
    9006.568     12.790   2.240  1.24794E+00  1.00301E+00  2.44926E-01
    9007.256     13.479   2.280  1.22355E+00  1.00539E+00  2.18167E-01
    9007.957     14.180   2.320  1.20305E+00  1.00746E+00  1.95589E-01
    9008.671     14.893   2.360  1.19471E+00  1.00924E+00  1.85470E-01
    9009.396     15.618   2.400  1.18669E+00  1.01071E+00  1.75976E-01
    9010.134     16.356   2.440  1.16506E+00  1.01195E+00  1.53111E-01
    9010.884     17.106   2.480  1.12399E+00  1.01291E+00  1.11078E-01
    9011.646     17.868   2.520  1.06524E+00  1.01365E+00  5.15947E-02
    9012.420     18.642   2.560  1.00279E+00  1.01416E+00 -1.13723E-02
    9013.206     19.428   2.600  9.56523E-01  1.01448E+00 -5.79599E-02
    9014.005     20.227   2.640  9.34127E-01  1.01461E+00 -8.04839E-02
    9014.815     21.038   2.680  9.21495E-01  1.01457E+00 -9.30754E-02
    9015.638     21.861   2.720  9.03981E-01  1.01439E+00 -1.10410E-01
    9016.474     22.696   2.760  8.81990E-01  1.01406E+00 -1.32067E-01
    9017.321     23.543   2.800  8.61040E-01  1.01360E+00 -1.52556E-01
    9018.180     24.403   2.840  8.45558E-01  1.01302E+00 -1.67459E-01
    9019.052     25.274   2.880  8.37560E-01  1.01235E+00 -1.74785E-01
    9019.936     26.158   2.920  8.36587E-01  1.01159E+00 -1.75002E-01
    9020.832     27.054   2.960  8.41343E-01  1.01075E+00 -1.69410E-01
    9021.740     27.963   3.000  8.50178E-01  1.00986E+00 -1.59685E-01
    9022.661     28.883   3.040  8.61020E-01  1.00891E+00 -1.47888E-01
    9023.594     29.816   3.080  8.72448E-01  1.00793E+00 -1.35481E-01
    9024.539     30.761   3.120  8.83638E-01  1.00691E+00 -1.23274E-01
    9025.496     31.718   3.160  8.94160E-01  1.00586E+00 -1.11703E-01
    9026.465     32.687   3.200  9.04215E-01  1.00481E+00 -1.00591E-01
    9027.446     33.669   3.240  9.14375E-01  1.00374E+00 -8.93699E-02
    9028.440     34.662   3.280  9.25032E-01  1.00268E+00 -7.76517E-02
    9029.446     35.668   3.320  9.36580E-01  1.00165E+00 -6.50673E-02
    9030.464     36.686   3.360  9.49442E-01  1.00062E+00 -5.11750E-02
    9031.494     37.716   3.400  9.63807E-01  9.99596E-01 -3.57892E-02
    9032.536     38.759   3.440  9.79403E-01  9.98607E-01 -1.92043E-02
    9033.591     39.813   3.480  9.95745E-01  9.97653E-01 -1.90827E-03
    9034.658     40.880   3.520  1.01203E+00  9.96737E-01  1.52976E-02
    9035.737     41.959   3.560  1.02702E+00  9.95860E-01  3.11571E-02
    9036.828     43.050   3.600  1.03937E+00  9.95023E-01  4.43498E-02
    9037.931     44.154   3.640  1.04806E+00  9.94227E-01  5.38284E-02
    9039.047     45.269   3.680  1.05248E+00  9.93476E-01  5.90013E-02
    9040.175     46.397   3.720  1.05288E+00  9.92791E-01  6.00854E-02
    9041.315     47.537   3.760  1.05010E+00  9.92152E-01  5.79515E-02
    9042.467     48.689   3.800  1.04531E+00  9.91580E-01  5.37325E-02
    9043.631     49.853   3.840  1.03944E+00  9.91034E-01  4.84084E-02
    9044.808     51.030   3.880  1.03330E+00  9.90576E-01  4.27222E-02
    9045.996     52.219   3.920  1.02738E+00  9.90146E-01  3.72381E-02
    9047.197     53.420   3.960  1.02235E+00  9.89783E-01  3.25619E-02
    9048.410     54.633   4.000  1.01890E+00  9.89490E-01  2.94079E-02
    9049.636     55.858   4.040  1.01769E+00  9.89245E-01  2.84493E-02
    9050.873     57.095   4.080  1.01902E+00  9.89046E-01  2.99695E-02
    9052.123     58.345   4.120  1.02271E+00  9.88914E-01  3.37925E-02
    9053.385     59.607   4.160  1.02821E+00  9.88828E-01  3.93849E-02
    9054.659     60.881   4.200  1.03471E+00  9.88789E-01  4.59257E-02
    9055.945     62.167   4.240  1.04121E+00  9.88815E-01  5.23968E-02
    9057.243     63.466   4.280  1.04660E+00  9.88884E-01  5.77202E-02
    9058.554     64.776   4.320  1.04994E+00  9.88995E-01  6.09454E-02
    9059.877     66.099   4.360  1.05059E+00  9.89148E-01  6.14406E-02
    9061.212     67.434   4.400  1.04836E+00  9.89340E-01  5.90172E-02
    9062.559     68.781   4.440  1.04350E+00  9.89571E-01  5.39334E-02
    9063.919     70.141   4.480  1.03664E+00  9.89841E-01  4.67975E-02
    9065.290     71.512   4.520  1.02871E+00  9.90148E-01  3.85576E-02
    9066.674     72.896   4.560  1.02079E+00  9.90490E-01  3.02960E-02
    9068.070     74.292   4.600  1.01368E+00  9.90843E-01  2.28386E-02
    9069.478     75.700   4.640  1.00767E+00  9.91227E-01  1.64429E-02
    9070.898     77.121   4.680  1.00221E+00  9.91621E-01  1.05861E-02
    9072.331     78.553   4.720  9.96188E-01  9.92044E-01  4.14409E-03
    9073.776     79.998   4.760  9.88533E-01  9.92475E-01 -3.94146E-03
    9075.233     81.455   4.800  9.79007E-01  9.92933E-01 -1.39259E-02
    9076.702     82.924   4.840  9.68351E-01  9.93394E-01 -2.50435E-02
    9078.183     84.405   4.880  9.57909E-01  9.93857E-01 -3.59479E-02
    9079.677     85.899   4.920  9.48893E-01  9.94317E-01 -4.54241E-02
    9081.182     87.405   4.960  9.41941E-01  9.94754E-01 -5.28131E-02
    9082.700     88.923   5.000  9.37189E-01  9.95210E-01 -5.80210E-02
    9084.230     90.453   5.040  9.34281E-01  9.95663E-01 -6.13818E-02
    9085.773     91.995   5.080  9.32700E-01  9.96090E-01 -6.33895E-02
    9087.327     93.549   5.120  9.31986E-01  9.96509E-01 -6.45228E-02
    9088.894     95.116   5.160  9.31832E-01  9.96921E-01 -6.50892E-02
    9090.473     96.695   5.200  9.32197E-01  9.97302E-01 -6.51056E-02
    9092.064     98.286   5.240  9.33348E-01  9.97673E-01 -6.43251E-02
    9093.667     99.889   5.280  9.35735E-01  9.98009E-01 -6.22747E-02
    9095.282    101.505   5.320  9.39953E-01  9.98311E-01 -5.83577E-02
    9096.910    103.132   5.360  9.46693E-01  9.98600E-01 -5.19065E-02
    9098.550    104.772   5.400  9.56437E-01  9.98853E-01 -4.24163E-02
    9100.202    106.424   5.440  9.69180E-01  9.99069E-01 -2.98889E-02
    9101.866    108.088   5.480  9.84204E-01  9.99269E-01 -1.50652E-02
    9103.542    109.765   5.520  1.00017E+00  9.99409E-01  7.56076E-04
    9105.231    111.453   5.560  1.01577E+00  9.99531E-01  1.62388E-02
    9106.932    113.154   5.600  1.03011E+00  9.99591E-01  3.05223E-02
    9108.645    114.867   5.640  1.04294E+00  9.99635E-01  4.33046E-02
    9110.370    116.592   5.680  1.05405E+00  9.99640E-01  5.44090E-02
    9112.107    118.329   5.720  1.06281E+00  9.99605E-01  6.32018E-02
    9113.857    120.079   5.760  1.06789E+00  9.99505E-01  6.83883E-02
    9115.618    121.841   5.800  1.06787E+00  9.99389E-01  6.84768E-02
    9117.392    123.615   5.840  1.06183E+00  9.99237E-01  6.25939E-02
    9119.179    125.401   5.880  1.05018E+00  9.99047E-01  5.11313E-02
    9120.977    127.199   5.920  1.03466E+00  9.98820E-01  3.58434E-02
    9122.787    129.010   5.960  1.01808E+00  9.98554E-01  1.95225E-02
    9124.610    130.832   6.000  1.00285E+00  9.98225E-01  4.62311E-03
