# # comment:                                                     FEFF 9.9.1  
# # Source:
# # Structure
# # Reduced
# # space
# # abc:
# # angles:
# # sites:
# # POT  SCF 100  7.0000   0, screened core-hole, AFOLP (folp(0)= 1.150)
# # Abs   Z=29 Rmt= 1.269 Rnm= 1.336 K  shell
# # Pot 1 Z= 3 Rmt= 1.311 Rnm= 1.368
# # Pot 2 Z=29 Rmt= 1.271 Rnm= 1.338
# # Pot 3 Z=15 Rmt= 0.943 Rnm= 1.155
# # Pot 4 Z= 8 Rmt= 0.913 Rnm= 1.040
# # Gam_ch=1.729E+00 H-L exch Vi= 0.000E+00 Vr= 0.000E+00
# # Mu=-5.769E+00eV kf=2.425E+00 Vint=-1.754E+01eV Rs_int= 1.495
# FMS rfms= 9.0000
# # PATH  Rmax=-1.000,  Keep_limit= 0.00, Heap_limit 0.00  Pwcrit= 2.50%
#  S02=0.950  Temp=   0.00  Debye_temp=   0.00  Global_sig2= 0.00000
#  Energy zero shift, vr, vi    0.00000E+00   0.00000E+00
#  Curved wave amplitude ratio filter   4.000%
#     file         sig2 tot  cw amp ratio   deg  nlegs   reff  inp sig2
#     0/   0 paths used
#  xsedge+ 50, used to normalize mu           2.4767E-04
#  -----------------------------------------------------------------------
#  omega    e    k    mu    mu0     chi     @#
    8983.554     -9.579  -1.000  5.29740E-02  5.68563E-02 -3.88232E-03
    8983.852     -9.280  -0.960  5.65796E-02  6.11104E-02 -4.53085E-03
    8984.139     -8.993  -0.920  6.05516E-02  6.58505E-02 -5.29881E-03
    8984.413     -8.719  -0.880  6.49398E-02  7.11493E-02 -6.20957E-03
    8984.675     -8.457  -0.840  6.98009E-02  7.70921E-02 -7.29124E-03
    8984.925     -8.207  -0.800  7.52000E-02  8.37774E-02 -8.57741E-03
    8985.163     -7.969  -0.760  8.12109E-02  9.13187E-02 -1.01079E-02
    8985.388     -7.744  -0.720  8.79155E-02  9.98445E-02 -1.19290E-02
    8985.602     -7.530  -0.680  9.54030E-02  1.09496E-01 -1.40934E-02
    8985.803     -7.329  -0.640  1.03766E-01  1.20424E-01 -1.66585E-02
    8985.992     -7.140  -0.600  1.13094E-01  1.32776E-01 -1.96823E-02
    8986.169     -6.964  -0.560  1.23462E-01  1.46678E-01 -2.32165E-02
    8986.333     -6.799  -0.520  1.34913E-01  1.62207E-01 -2.72938E-02
    8986.486     -6.647  -0.480  1.47437E-01  1.79348E-01 -3.19115E-02
    8986.626     -6.506  -0.440  1.60938E-01  1.97950E-01 -3.70123E-02
    8986.754     -6.378  -0.400  1.75216E-01  2.17685E-01 -4.24693E-02
    8986.870     -6.262  -0.360  1.89952E-01  2.38037E-01 -4.80849E-02
    8986.973     -6.159  -0.320  2.04722E-01  2.58334E-01 -5.36126E-02
    8987.065     -6.067  -0.280  2.19036E-01  2.77834E-01 -5.87978E-02
    8987.144     -5.988  -0.240  2.32397E-01  2.95822E-01 -6.34251E-02
    8987.211     -5.921  -0.200  2.44355E-01  3.11706E-01 -6.73503E-02
    8987.266     -5.866  -0.160  2.54548E-01  3.25054E-01 -7.05059E-02
    8987.309     -5.824  -0.120  2.62710E-01  3.35594E-01 -7.28837E-02
    8987.339     -5.793  -0.080  2.68669E-01  3.43181E-01 -7.45112E-02
    8987.364     -5.769   0.000  2.73550E-01  3.49270E-01 -7.57200E-02
    8987.418     -5.714   0.120  2.84132E-01  3.62984E-01 -7.88520E-02
    8987.461     -5.671   0.160  2.92475E-01  3.73633E-01 -8.11577E-02
    8987.516     -5.616   0.200  3.03257E-01  3.87198E-01 -8.39409E-02
    8987.583     -5.549   0.240  3.16428E-01  4.03472E-01 -8.70440E-02
    8987.662     -5.470   0.280  3.31880E-01  4.22096E-01 -9.02162E-02
    8987.754     -5.379   0.320  3.49329E-01  4.42533E-01 -9.32036E-02
    8987.857     -5.275   0.360  3.68435E-01  4.64167E-01 -9.57317E-02
    8987.973     -5.159   0.400  3.88791E-01  4.86303E-01 -9.75114E-02
    8988.101     -5.031   0.440  4.10054E-01  5.08325E-01 -9.82703E-02
    8988.241     -4.891   0.480  4.32022E-01  5.29740E-01 -9.77181E-02
    8988.394     -4.738   0.520  4.54615E-01  5.50249E-01 -9.56346E-02
    8988.558     -4.574   0.560  4.77604E-01  5.69692E-01 -9.20876E-02
    8988.735     -4.397   0.600  5.00630E-01  5.88058E-01 -8.74273E-02
    8988.924     -4.208   0.640  5.23305E-01  6.05417E-01 -8.21125E-02
    8989.125     -4.007   0.680  5.45516E-01  6.21868E-01 -7.63518E-02
    8989.339     -3.794   0.720  5.67359E-01  6.37538E-01 -7.01792E-02
    8989.564     -3.568   0.760  5.88404E-01  6.52521E-01 -6.41163E-02
    8989.802     -3.330   0.800  6.07101E-01  6.66938E-01 -5.98369E-02
    8990.052     -3.080   0.840  6.21675E-01  6.80897E-01 -5.92222E-02
    8990.314     -2.818   0.880  6.33065E-01  6.94468E-01 -6.14027E-02
    8990.588     -2.544   0.920  6.45251E-01  7.07689E-01 -6.24383E-02
    8990.875     -2.257   0.960  6.60823E-01  7.20663E-01 -5.98399E-02
    8991.174     -1.959   1.000  6.78135E-01  7.33359E-01 -5.52233E-02
    8991.484     -1.648   1.040  6.93482E-01  7.45859E-01 -5.23765E-02
    8991.808     -1.325   1.080  7.04282E-01  7.58133E-01 -5.38520E-02
    8992.143     -0.989   1.120  7.13257E-01  7.70227E-01 -5.69696E-02
    8992.490     -0.642   1.160  7.28070E-01  7.82118E-01 -5.40485E-02
    8992.850     -0.282   1.200  7.54797E-01  7.93820E-01 -3.90230E-02
    8993.222      0.090   1.240  7.92825E-01  8.05321E-01 -1.24954E-02
    8993.606      0.474   1.280  8.35399E-01  8.16626E-01  1.87730E-02
    8994.002      0.870   1.320  8.70401E-01  8.27700E-01  4.27006E-02
    8994.410      1.278   1.360  8.90079E-01  8.38523E-01  5.15563E-02
    8994.831      1.699   1.400  9.02234E-01  8.49114E-01  5.31201E-02
    8995.264      2.132   1.440  9.18816E-01  8.59432E-01  5.93847E-02
    8995.709      2.577   1.480  9.40879E-01  8.69493E-01  7.13864E-02
    8996.166      3.034   1.520  9.69305E-01  8.79234E-01  9.00711E-02
    8996.636      3.503   1.560  1.01328E+00  8.88694E-01  1.24585E-01
    8997.117      3.985   1.600  1.07264E+00  8.97827E-01  1.74813E-01
    8997.611      4.479   1.640  1.12350E+00  9.06610E-01  2.16893E-01
    8998.117      4.985   1.680  1.13683E+00  9.15060E-01  2.21774E-01
    8998.635      5.503   1.720  1.12932E+00  9.23175E-01  2.06149E-01
    8999.165      6.033   1.760  1.13590E+00  9.30912E-01  2.04991E-01
    8999.708      6.576   1.800  1.16015E+00  9.38289E-01  2.21864E-01
    9000.263      7.130   1.840  1.18801E+00  9.45286E-01  2.42725E-01
    9000.830      7.697   1.880  1.21055E+00  9.51922E-01  2.58631E-01
    9001.409      8.276   1.920  1.22518E+00  9.58178E-01  2.67003E-01
    9002.000      8.868   1.960  1.22491E+00  9.64053E-01  2.60857E-01
    9002.603      9.471   2.000  1.20319E+00  9.69550E-01  2.33643E-01
    9003.219     10.087   2.040  1.16880E+00  9.74670E-01  1.94131E-01
    9003.847     10.715   2.080  1.13996E+00  9.79437E-01  1.60524E-01
    9004.487     11.355   2.120  1.12733E+00  9.83833E-01  1.43495E-01
    9005.139     12.007   2.160  1.12715E+00  9.87863E-01  1.39290E-01
    9005.804     12.672   2.200  1.12698E+00  9.91552E-01  1.35433E-01
    9006.481     13.348   2.240  1.11745E+00  9.94904E-01  1.22547E-01
    9007.169     14.037   2.280  1.09920E+00  9.97925E-01  1.01277E-01
    9007.870     14.738   2.320  1.08056E+00  1.00062E+00  7.99422E-02
    9008.584     15.451   2.360  1.06819E+00  1.00302E+00  6.51761E-02
    9009.309     16.177   2.400  1.06277E+00  1.00512E+00  5.76497E-02
    9010.047     16.914   2.440  1.06306E+00  1.00694E+00  5.61205E-02
    9010.796     17.664   2.480  1.06793E+00  1.00847E+00  5.94573E-02
    9011.558     18.426   2.520  1.07346E+00  1.00978E+00  6.36800E-02
    9012.333     19.200   2.560  1.07423E+00  1.01082E+00  6.34108E-02
    9013.119     19.987   2.600  1.06951E+00  1.01164E+00  5.78689E-02
    9013.918     20.785   2.640  1.05999E+00  1.01225E+00  4.77349E-02
    9014.728     21.596   2.680  1.04181E+00  1.01266E+00  2.91480E-02
    9015.551     22.419   2.720  1.01264E+00  1.01287E+00 -2.34094E-04
    9016.386     23.254   2.760  9.78934E-01  1.01294E+00 -3.40022E-02
    9017.234     24.102   2.800  9.46092E-01  1.01282E+00 -6.67248E-02
    9018.093     24.961   2.840  9.21661E-01  1.01256E+00 -9.08988E-02
    9018.965     25.833   2.880  9.06577E-01  1.01217E+00 -1.05598E-01
    9019.849     26.717   2.920  8.99962E-01  1.01167E+00 -1.11705E-01
    9020.745     27.613   2.960  9.00444E-01  1.01104E+00 -1.10599E-01
    9021.653     28.521   3.000  9.05396E-01  1.01033E+00 -1.04933E-01
    9022.574     29.442   3.040  9.11565E-01  1.00953E+00 -9.79650E-02
    9023.507     30.374   3.080  9.15908E-01  1.00865E+00 -9.27445E-02
    9024.451     31.319   3.120  9.16837E-01  1.00772E+00 -9.08859E-02
    9025.409     32.276   3.160  9.13907E-01  1.00675E+00 -9.28398E-02
    9026.378     33.246   3.200  9.07574E-01  1.00571E+00 -9.81327E-02
    9027.359     34.227   3.240  8.99393E-01  1.00465E+00 -1.05255E-01
    9028.353     35.221   3.280  8.91778E-01  1.00356E+00 -1.11778E-01
    9029.359     36.226   3.320  8.86980E-01  1.00245E+00 -1.15475E-01
    9030.377     37.244   3.360  8.86496E-01  1.00135E+00 -1.14854E-01
    9031.407     38.275   3.400  8.90862E-01  1.00024E+00 -1.09382E-01
    9032.449     39.317   3.440  8.99602E-01  9.99140E-01 -9.95373E-02
    9033.504     40.372   3.480  9.11633E-01  9.98061E-01 -8.64278E-02
    9034.571     41.439   3.520  9.25630E-01  9.96991E-01 -7.13610E-02
    9035.650     42.518   3.560  9.40219E-01  9.95930E-01 -5.57112E-02
    9036.741     43.609   3.600  9.53946E-01  9.94923E-01 -4.09776E-02
    9037.844     44.712   3.640  9.65733E-01  9.93932E-01 -2.81985E-02
    9038.960     45.828   3.680  9.75212E-01  9.92978E-01 -1.77659E-02
    9040.088     46.955   3.720  9.82534E-01  9.92064E-01 -9.52991E-03
    9041.228     48.095   3.760  9.88263E-01  9.91213E-01 -2.95009E-03
    9042.380     49.247   3.800  9.93037E-01  9.90385E-01  2.65200E-03
    9043.544     50.412   3.840  9.97513E-01  9.89622E-01  7.89129E-03
    9044.721     51.588   3.880  1.00226E+00  9.88924E-01  1.33381E-02
    9045.909     52.777   3.920  1.00778E+00  9.88253E-01  1.95275E-02
    9047.110     53.978   3.960  1.01461E+00  9.87650E-01  2.69602E-02
    9048.323     55.191   4.000  1.02314E+00  9.87115E-01  3.60222E-02
    9049.549     56.416   4.040  1.03354E+00  9.86627E-01  4.69090E-02
    9050.786     57.654   4.080  1.04554E+00  9.86187E-01  5.93507E-02
    9052.036     58.903   4.120  1.05823E+00  9.85815E-01  7.24141E-02
    9053.298     60.165   4.160  1.07015E+00  9.85492E-01  8.46555E-02
    9054.572     61.439   4.200  1.07983E+00  9.85238E-01  9.45967E-02
    9055.858     62.726   4.240  1.08604E+00  9.85032E-01  1.01006E-01
    9057.156     64.024   4.280  1.08805E+00  9.84895E-01  1.03154E-01
    9058.467     65.335   4.320  1.08592E+00  9.84804E-01  1.01112E-01
    9059.790     66.658   4.360  1.08027E+00  9.84759E-01  9.55068E-02
    9061.125     67.993   4.400  1.07205E+00  9.84781E-01  8.72733E-02
    9062.472     69.340   4.440  1.06227E+00  9.84846E-01  7.74237E-02
    9063.831     70.699   4.480  1.05179E+00  9.84954E-01  6.68393E-02
    9065.203     72.071   4.520  1.04128E+00  9.85102E-01  5.61739E-02
    9066.587     73.455   4.560  1.03120E+00  9.85293E-01  4.59090E-02
    9067.983     74.851   4.600  1.02193E+00  9.85545E-01  3.63821E-02
    9069.391     76.259   4.640  1.01356E+00  9.85815E-01  2.77490E-02
    9070.811     77.679   4.680  1.00620E+00  9.86120E-01  2.00767E-02
    9072.244     79.112   4.720  9.99788E-01  9.86461E-01  1.33271E-02
    9073.689     80.556   4.760  9.94097E-01  9.86815E-01  7.28194E-03
    9075.146     82.013   4.800  9.88772E-01  9.87225E-01  1.54700E-03
    9076.615     83.482   4.840  9.83173E-01  9.87644E-01 -4.47069E-03
    9078.096     84.964   4.880  9.76694E-01  9.88072E-01 -1.13773E-02
    9079.590     86.457   4.920  9.69007E-01  9.88527E-01 -1.95205E-02
    9081.095     87.963   4.960  9.60234E-01  9.88987E-01 -2.87526E-02
    9082.613     89.481   5.000  9.51070E-01  9.89448E-01 -3.83783E-02
    9084.143     91.011   5.040  9.42536E-01  9.89913E-01 -4.73766E-02
    9085.686     92.553   5.080  9.35642E-01  9.90399E-01 -5.47566E-02
    9087.240     94.108   5.120  9.31138E-01  9.90862E-01 -5.97241E-02
    9088.807     95.674   5.160  9.29505E-01  9.91322E-01 -6.18173E-02
    9090.386     97.253   5.200  9.30834E-01  9.91777E-01 -6.09436E-02
    9091.977     98.844   5.240  9.34804E-01  9.92227E-01 -5.74239E-02
    9093.580    100.448   5.280  9.40731E-01  9.92649E-01 -5.19180E-02
    9095.195    102.063   5.320  9.47749E-01  9.93062E-01 -4.53128E-02
    9096.823    103.691   5.360  9.54822E-01  9.93465E-01 -3.86436E-02
    9098.463    105.330   5.400  9.60863E-01  9.93813E-01 -3.29499E-02
    9100.115    106.982   5.440  9.65094E-01  9.94171E-01 -2.90770E-02
    9101.779    108.647   5.480  9.67155E-01  9.94473E-01 -2.73175E-02
    9103.455    110.323   5.520  9.67550E-01  9.94758E-01 -2.72085E-02
    9105.144    112.012   5.560  9.67305E-01  9.95007E-01 -2.77029E-02
    9106.845    113.712   5.600  9.67503E-01  9.95218E-01 -2.77152E-02
    9108.558    115.425   5.640  9.68714E-01  9.95389E-01 -2.66745E-02
    9110.283    117.151   5.680  9.70866E-01  9.95518E-01 -2.46521E-02
    9112.020    118.888   5.720  9.73506E-01  9.95608E-01 -2.21018E-02
    9113.770    120.637   5.760  9.76150E-01  9.95658E-01 -1.95085E-02
    9115.531    122.399   5.800  9.78553E-01  9.95668E-01 -1.71151E-02
    9117.305    124.173   5.840  9.80876E-01  9.95638E-01 -1.47621E-02
    9119.091    125.959   5.880  9.83632E-01  9.95568E-01 -1.19355E-02
    9120.890    127.758   5.920  9.87445E-01  9.95457E-01 -8.01232E-03
    9122.700    129.568   5.960  9.92764E-01  9.95303E-01 -2.53974E-03
    9124.523    131.391   6.000  9.99691E-01  9.95051E-01  4.63933E-03
