# # comment:                                                     FEFF 9.9.1  
# # Source:
# # Structure
# # Reduced
# # space
# # abc:
# # angles:
# # sites:
# # POT  SCF 100  7.0000   0, screened core-hole, AFOLP (folp(0)= 1.150)
# # Abs   Z=29 Rmt= 1.333 Rnm= 1.398 K  shell
# # Pot 1 Z= 3 Rmt= 1.276 Rnm= 1.338
# # Pot 2 Z=29 Rmt= 1.331 Rnm= 1.396
# # Pot 3 Z=15 Rmt= 0.945 Rnm= 1.156
# # Pot 4 Z= 8 Rmt= 0.937 Rnm= 1.040
# # Gam_ch=1.729E+00 H-L exch Vi= 0.000E+00 Vr= 0.000E+00
# # Mu=-6.059E+00eV kf=2.380E+00 Vint=-1.741E+01eV Rs_int= 1.524
# FMS rfms= 9.0000
# # PATH  Rmax=-1.000,  Keep_limit= 0.00, Heap_limit 0.00  Pwcrit= 2.50%
#  S02=0.950  Temp=   0.00  Debye_temp=   0.00  Global_sig2= 0.00000
#  Energy zero shift, vr, vi    0.00000E+00   0.00000E+00
#  Curved wave amplitude ratio filter   4.000%
#     file         sig2 tot  cw amp ratio   deg  nlegs   reff  inp sig2
#     0/   0 paths used
#  xsedge+ 50, used to normalize mu           2.4672E-04
#  -----------------------------------------------------------------------
#  omega    e    k    mu    mu0     chi     @#
    8983.635     -9.869  -1.000  5.26986E-02  5.52791E-02 -2.58050E-03
    8983.934     -9.570  -0.960  5.62853E-02  5.93454E-02 -3.06006E-03
    8984.220     -9.284  -0.920  6.02414E-02  6.38702E-02 -3.62872E-03
    8984.495     -9.009  -0.880  6.46182E-02  6.89216E-02 -4.30339E-03
    8984.757     -8.747  -0.840  6.94750E-02  7.45793E-02 -5.10429E-03
    8985.007     -8.497  -0.800  7.48802E-02  8.09356E-02 -6.05540E-03
    8985.245     -8.259  -0.760  8.09115E-02  8.80964E-02 -7.18496E-03
    8985.470     -8.034  -0.720  8.76562E-02  9.61818E-02 -8.52568E-03
    8985.683     -7.821  -0.680  9.52095E-02  1.05324E-01 -1.01146E-02
    8985.885     -7.619  -0.640  1.03671E-01  1.15663E-01 -1.19918E-02
    8986.074     -7.430  -0.600  1.13138E-01  1.27336E-01 -1.41981E-02
    8986.250     -7.254  -0.560  1.23692E-01  1.40461E-01 -1.67697E-02
    8986.415     -7.089  -0.520  1.35379E-01  1.55109E-01 -1.97303E-02
    8986.567     -6.937  -0.480  1.48185E-01  1.71265E-01 -2.30797E-02
    8986.708     -6.796  -0.440  1.62006E-01  1.88787E-01 -2.67810E-02
    8986.836     -6.668  -0.400  1.76618E-01  2.07368E-01 -3.07494E-02
    8986.951     -6.553  -0.360  1.91672E-01  2.26523E-01 -3.48504E-02
    8987.055     -6.449  -0.320  2.06713E-01  2.45624E-01 -3.89118E-02
    8987.146     -6.358  -0.280  2.21225E-01  2.63975E-01 -4.27497E-02
    8987.226     -6.278  -0.240  2.34705E-01  2.80906E-01 -4.62013E-02
    8987.293     -6.211  -0.200  2.46710E-01  2.95860E-01 -4.91496E-02
    8987.348     -6.156  -0.160  2.56896E-01  3.08429E-01 -5.15328E-02
    8987.390     -6.114  -0.120  2.65020E-01  3.18358E-01 -5.33375E-02
    8987.421     -6.083  -0.080  2.70924E-01  3.25505E-01 -5.45817E-02
    8987.445     -6.059   0.000  2.75719E-01  3.31244E-01 -5.55253E-02
    8987.500     -6.004   0.120  2.86443E-01  3.44192E-01 -5.77491E-02
    8987.543     -5.961   0.160  2.94864E-01  3.54230E-01 -5.93661E-02
    8987.598     -5.906   0.200  3.05766E-01  3.67034E-01 -6.12677E-02
    8987.665     -5.839   0.240  3.19150E-01  3.82414E-01 -6.32634E-02
    8987.744     -5.760   0.280  3.34924E-01  4.00021E-01 -6.50975E-02
    8987.835     -5.669   0.320  3.52979E-01  4.19400E-01 -6.64213E-02
    8987.939     -5.565   0.360  3.73052E-01  4.39944E-01 -6.68918E-02
    8988.055     -5.449   0.400  3.94763E-01  4.61029E-01 -6.62665E-02
    8988.183     -5.321   0.440  4.17471E-01  4.82067E-01 -6.45955E-02
    8988.323     -5.181   0.480  4.40251E-01  5.02640E-01 -6.23891E-02
    8988.475     -5.029   0.520  4.61672E-01  5.22453E-01 -6.07813E-02
    8988.640     -4.864   0.560  4.80031E-01  5.41379E-01 -6.13484E-02
    8988.817     -4.687   0.600  4.93753E-01  5.59386E-01 -6.56333E-02
    8989.006     -4.498   0.640  5.02222E-01  5.76542E-01 -7.43196E-02
    8989.207     -4.297   0.680  5.06290E-01  5.92934E-01 -8.66442E-02
    8989.420     -4.084   0.720  5.08354E-01  6.08664E-01 -1.00310E-01
    8989.646     -3.858   0.760  5.11834E-01  6.23874E-01 -1.12041E-01
    8989.884     -3.620   0.800  5.20203E-01  6.38657E-01 -1.18454E-01
    8990.134     -3.371   0.840  5.35807E-01  6.53069E-01 -1.17262E-01
    8990.396     -3.108   0.880  5.58956E-01  6.67217E-01 -1.08261E-01
    8990.670     -2.834   0.920  5.87950E-01  6.81150E-01 -9.31997E-02
    8990.956     -2.548   0.960  6.20325E-01  6.94884E-01 -7.45590E-02
    8991.255     -2.249   1.000  6.53746E-01  7.08464E-01 -5.47183E-02
    8991.566     -1.938   1.040  6.86238E-01  7.21926E-01 -3.56887E-02
    8991.889     -1.615   1.080  7.17744E-01  7.35257E-01 -1.75135E-02
    8992.224     -1.280   1.120  7.50649E-01  7.48456E-01  2.19331E-03
    8992.572     -0.932   1.160  7.85550E-01  7.61557E-01  2.39930E-02
    8992.932     -0.572   1.200  8.19407E-01  7.74509E-01  4.48978E-02
    8993.303     -0.201   1.240  8.52212E-01  7.87337E-01  6.48749E-02
    8993.687      0.183   1.280  8.88566E-01  7.99982E-01  8.85838E-02
    8994.084      0.580   1.320  9.30212E-01  8.12484E-01  1.17728E-01
    8994.492      0.988   1.360  9.71512E-01  8.24757E-01  1.46754E-01
    8994.913      1.409   1.400  1.00404E+00  8.36839E-01  1.67204E-01
    8995.346      1.842   1.440  1.02405E+00  8.48661E-01  1.75390E-01
    8995.791      2.287   1.480  1.03793E+00  8.60219E-01  1.77715E-01
    8996.248      2.744   1.520  1.05695E+00  8.71503E-01  1.85451E-01
    8996.717      3.213   1.560  1.08194E+00  8.82465E-01  1.99473E-01
    8997.199      3.695   1.600  1.10488E+00  8.93121E-01  2.11760E-01
    8997.693      4.188   1.640  1.11759E+00  9.03419E-01  2.14168E-01
    8998.198      4.694   1.680  1.11280E+00  9.13353E-01  1.99450E-01
    8998.717      5.213   1.720  1.09476E+00  9.22896E-01  1.71860E-01
    8999.247      5.743   1.760  1.07673E+00  9.32042E-01  1.44692E-01
    8999.790      6.286   1.800  1.06739E+00  9.40766E-01  1.26627E-01
    9000.344      6.840   1.840  1.06882E+00  9.49082E-01  1.19737E-01
    9000.911      7.407   1.880  1.07754E+00  9.56947E-01  1.20597E-01
    9001.490      7.986   1.920  1.08876E+00  9.64380E-01  1.24376E-01
    9002.082      8.578   1.960  1.10379E+00  9.71358E-01  1.32436E-01
    9002.685      9.181   2.000  1.12642E+00  9.77901E-01  1.48518E-01
    9003.301      9.797   2.040  1.15393E+00  9.83989E-01  1.69945E-01
    9003.929     10.425   2.080  1.17429E+00  9.89623E-01  1.84671E-01
    9004.569     11.065   2.120  1.17553E+00  9.94825E-01  1.80706E-01
    9005.221     11.717   2.160  1.15495E+00  9.99578E-01  1.55374E-01
    9005.886     12.381   2.200  1.11990E+00  1.00389E+00  1.16011E-01
    9006.562     13.058   2.240  1.08473E+00  1.00780E+00  7.69326E-02
    9007.251     13.747   2.280  1.05889E+00  1.01127E+00  4.76138E-02
    9007.952     14.448   2.320  1.03827E+00  1.01436E+00  2.39088E-02
    9008.665     15.161   2.360  1.01559E+00  1.01705E+00 -1.45877E-03
    9009.391     15.887   2.400  9.90488E-01  1.01936E+00 -2.88731E-02
    9010.128     16.624   2.440  9.67037E-01  1.02133E+00 -5.42930E-02
    9010.878     17.374   2.480  9.48346E-01  1.02294E+00 -7.45943E-02
    9011.640     18.136   2.520  9.34014E-01  1.02422E+00 -9.02091E-02
    9012.414     18.910   2.560  9.22864E-01  1.02521E+00 -1.02343E-01
    9013.201     19.697   2.600  9.15831E-01  1.02590E+00 -1.10070E-01
    9013.999     20.495   2.640  9.14049E-01  1.02631E+00 -1.12265E-01
    9014.810     21.306   2.680  9.15311E-01  1.02648E+00 -1.11167E-01
    9015.633     22.129   2.720  9.15656E-01  1.02642E+00 -1.10762E-01
    9016.468     22.964   2.760  9.16232E-01  1.02613E+00 -1.09896E-01
    9017.315     23.811   2.800  9.24662E-01  1.02563E+00 -1.00969E-01
    9018.175     24.671   2.840  9.36750E-01  1.02496E+00 -8.82117E-02
    9019.047     25.543   2.880  9.48412E-01  1.02413E+00 -7.57156E-02
    9019.931     26.427   2.920  9.57372E-01  1.02314E+00 -6.57666E-02
    9020.827     27.323   2.960  9.63769E-01  1.02204E+00 -5.82733E-02
    9021.735     28.231   3.000  9.68879E-01  1.02081E+00 -5.19265E-02
    9022.656     29.152   3.040  9.73927E-01  1.01950E+00 -4.55711E-02
    9023.588     30.084   3.080  9.79333E-01  1.01809E+00 -3.87540E-02
    9024.533     31.029   3.120  9.85128E-01  1.01660E+00 -3.14705E-02
    9025.490     31.986   3.160  9.91034E-01  1.01508E+00 -2.40495E-02
    9026.459     32.955   3.200  9.96494E-01  1.01351E+00 -1.70112E-02
    9027.441     33.937   3.240  1.00130E+00  1.01191E+00 -1.06093E-02
    9028.435     34.930   3.280  1.00532E+00  1.01031E+00 -4.99005E-03
    9029.440     35.936   3.320  1.00847E+00  1.00869E+00 -2.17275E-04
    9030.458     36.954   3.360  1.01085E+00  1.00708E+00  3.76639E-03
    9031.489     37.985   3.400  1.01261E+00  1.00548E+00  7.12389E-03
    9032.531     39.027   3.440  1.01390E+00  1.00390E+00  9.99910E-03
    9033.586     40.082   3.480  1.01494E+00  1.00237E+00  1.25755E-02
    9034.652     41.148   3.520  1.01591E+00  1.00088E+00  1.50345E-02
    9035.731     42.227   3.560  1.01690E+00  9.99408E-01  1.74886E-02
    9036.823     43.319   3.600  1.01802E+00  9.98029E-01  1.99917E-02
    9037.926     44.422   3.640  1.01926E+00  9.96700E-01  2.25644E-02
    9039.042     45.537   3.680  1.02059E+00  9.95422E-01  2.51632E-02
    9040.169     46.665   3.720  1.02181E+00  9.94219E-01  2.75867E-02
    9041.309     47.805   3.760  1.02266E+00  9.93115E-01  2.95455E-02
    9042.461     48.957   3.800  1.02277E+00  9.92069E-01  3.06979E-02
    9043.626     50.122   3.840  1.02190E+00  9.91103E-01  3.07982E-02
    9044.802     51.298   3.880  1.02008E+00  9.90220E-01  2.98580E-02
    9045.991     52.487   3.920  1.01752E+00  9.89439E-01  2.80826E-02
    9047.192     53.688   3.960  1.01443E+00  9.88720E-01  2.57087E-02
    9048.405     54.901   4.000  1.01106E+00  9.88107E-01  2.29559E-02
    9049.630     56.126   4.040  1.00762E+00  9.87579E-01  2.00445E-02
    9050.868     57.364   4.080  1.00434E+00  9.87156E-01  1.71799E-02
    9052.117     58.613   4.120  1.00137E+00  9.86797E-01  1.45733E-02
    9053.379     59.875   4.160  9.98922E-01  9.86542E-01  1.23808E-02
    9054.653     61.149   4.200  9.96989E-01  9.86368E-01  1.06211E-02
    9055.940     62.436   4.240  9.95453E-01  9.86276E-01  9.17677E-03
    9057.238     63.734   4.280  9.94121E-01  9.86241E-01  7.88005E-03
    9058.549     65.045   4.320  9.92962E-01  9.86308E-01  6.65328E-03
    9059.871     66.367   4.360  9.92034E-01  9.86456E-01  5.57800E-03
    9061.206     67.702   4.400  9.91483E-01  9.86680E-01  4.80289E-03
    9062.554     69.050   4.440  9.91358E-01  9.86958E-01  4.39999E-03
    9063.913     70.409   4.480  9.91593E-01  9.87309E-01  4.28364E-03
    9065.285     71.781   4.520  9.91942E-01  9.87732E-01  4.20974E-03
    9066.668     73.164   4.560  9.92045E-01  9.88204E-01  3.84078E-03
    9068.064     74.560   4.600  9.91558E-01  9.88722E-01  2.83653E-03
    9069.473     75.969   4.640  9.90271E-01  9.89305E-01  9.66327E-04
    9070.893     77.389   4.680  9.88192E-01  9.89930E-01 -1.73782E-03
    9072.326     78.822   4.720  9.85622E-01  9.90572E-01 -4.94975E-03
    9073.770     80.266   4.760  9.83139E-01  9.91271E-01 -8.13256E-03
    9075.227     81.723   4.800  9.81232E-01  9.91984E-01 -1.07521E-02
    9076.696     83.192   4.840  9.80244E-01  9.92728E-01 -1.24843E-02
    9078.178     84.674   4.880  9.80234E-01  9.93478E-01 -1.32445E-02
    9079.671     86.167   4.920  9.81137E-01  9.94233E-01 -1.30957E-02
    9081.177     87.673   4.960  9.82813E-01  9.95011E-01 -1.21976E-02
    9082.695     89.191   5.000  9.84985E-01  9.95768E-01 -1.07828E-02
    9084.225     90.721   5.040  9.87381E-01  9.96543E-01 -9.16161E-03
    9085.767     92.263   5.080  9.89686E-01  9.97290E-01 -7.60373E-03
    9087.322     93.818   5.120  9.91827E-01  9.98007E-01 -6.17967E-03
    9088.888     95.384   5.160  9.93986E-01  9.98735E-01 -4.74946E-03
    9090.467     96.963   5.200  9.96250E-01  9.99409E-01 -3.15899E-03
    9092.058     98.554   5.240  9.98604E-01  1.00007E+00 -1.46181E-03
    9093.661    100.157   5.280  1.00080E+00  1.00068E+00  1.13352E-04
    9095.277    101.773   5.320  1.00258E+00  1.00124E+00  1.34526E-03
    9096.904    103.400   5.360  1.00391E+00  1.00177E+00  2.14227E-03
    9098.544    105.040   5.400  1.00478E+00  1.00226E+00  2.51778E-03
    9100.196    106.692   5.440  1.00517E+00  1.00269E+00  2.48249E-03
    9101.861    108.357   5.480  1.00506E+00  1.00306E+00  1.99903E-03
    9103.537    110.033   5.520  1.00439E+00  1.00336E+00  1.02662E-03
    9105.226    111.721   5.560  1.00324E+00  1.00362E+00 -3.82995E-04
    9106.926    113.422   5.600  1.00177E+00  1.00382E+00 -2.05911E-03
    9108.639    115.135   5.640  1.00019E+00  1.00396E+00 -3.76602E-03
    9110.364    116.860   5.680  9.98709E-01  1.00402E+00 -5.30774E-03
    9112.102    118.598   5.720  9.97406E-01  1.00402E+00 -6.61861E-03
    9113.851    120.347   5.760  9.96178E-01  1.00396E+00 -7.78012E-03
    9115.613    122.109   5.800  9.94903E-01  1.00382E+00 -8.91318E-03
    9117.387    123.883   5.840  9.93585E-01  1.00362E+00 -1.00403E-02
    9119.173    125.669   5.880  9.92262E-01  1.00336E+00 -1.11007E-02
    9120.971    127.467   5.920  9.90949E-01  1.00303E+00 -1.20783E-02
    9122.782    129.278   5.960  9.89640E-01  1.00264E+00 -1.30020E-02
    9124.605    131.101   6.000  9.88328E-01  1.00217E+00 -1.38403E-02
