# # comment:                                                     FEFF 9.9.1  
# # Source:
# # Structure
# # Reduced
# # space
# # abc:
# # angles:
# # sites:
# # POT  SCF 100  7.0000   0, screened core-hole, AFOLP (folp(0)= 1.150)
# # Abs   Z=29 Rmt= 1.272 Rnm= 1.342 K  shell
# # Pot 1 Z=12 Rmt= 1.317 Rnm= 1.442
# # Pot 2 Z=29 Rmt= 1.272 Rnm= 1.342
# # Pot 3 Z=14 Rmt= 1.005 Rnm= 1.216
# # Pot 4 Z= 8 Rmt= 0.943 Rnm= 1.068
# # Gam_ch=1.729E+00 H-L exch Vi= 0.000E+00 Vr= 0.000E+00
# # Mu=-8.038E+00eV kf=2.322E+00 Vint=-1.829E+01eV Rs_int= 1.562
# FMS rfms= 9.0000
# # PATH  Rmax=-1.000,  Keep_limit= 0.00, Heap_limit 0.00  Pwcrit= 2.50%
#  S02=0.950  Temp=   0.00  Debye_temp=   0.00  Global_sig2= 0.00000
#  Energy zero shift, vr, vi    0.00000E+00   0.00000E+00
#  Curved wave amplitude ratio filter   4.000%
#     file         sig2 tot  cw amp ratio   deg  nlegs   reff  inp sig2
#     0/   0 paths used
#  xsedge+ 50, used to normalize mu           2.4911E-04
#  -----------------------------------------------------------------------
#  omega    e    k    mu    mu0     chi     @#
    8983.964    -11.848  -1.000  3.83400E-02  5.08587E-02 -1.25187E-02
    8984.263    -11.549  -0.960  4.02573E-02  5.45080E-02 -1.42507E-02
    8984.550    -11.262  -0.920  4.22965E-02  5.85620E-02 -1.62656E-02
    8984.824    -10.988  -0.880  4.44666E-02  6.30805E-02 -1.86139E-02
    8985.086    -10.726  -0.840  4.67775E-02  6.81332E-02 -2.13557E-02
    8985.336    -10.476  -0.800  4.92395E-02  7.38005E-02 -2.45610E-02
    8985.574    -10.238  -0.760  5.18635E-02  8.01753E-02 -2.83118E-02
    8985.799    -10.013  -0.720  5.46606E-02  8.73622E-02 -3.27015E-02
    8986.013     -9.799  -0.680  5.76418E-02  9.54766E-02 -3.78348E-02
    8986.214     -9.598  -0.640  6.08168E-02  1.04640E-01 -4.38236E-02
    8986.403     -9.409  -0.600  6.41930E-02  1.14973E-01 -5.07805E-02
    8986.580     -9.232  -0.560  6.77728E-02  1.26578E-01 -5.88051E-02
    8986.744     -9.068  -0.520  7.15510E-02  1.39515E-01 -6.79639E-02
    8986.897     -8.915  -0.480  7.55100E-02  1.53771E-01 -7.82609E-02
    8987.037     -8.775  -0.440  7.96157E-02  1.69221E-01 -8.96051E-02
    8987.165     -8.647  -0.400  8.38129E-02  1.85595E-01 -1.01782E-01
    8987.281     -8.531  -0.360  8.80245E-02  2.02469E-01 -1.14445E-01
    8987.384     -8.428  -0.320  9.21548E-02  2.19294E-01 -1.27139E-01
    8987.476     -8.336  -0.280  9.60972E-02  2.35457E-01 -1.39360E-01
    8987.555     -8.257  -0.240  9.97446E-02  2.50373E-01 -1.50628E-01
    8987.622     -8.190  -0.200  1.02999E-01  2.63550E-01 -1.60551E-01
    8987.677     -8.135  -0.160  1.05777E-01  2.74631E-01 -1.68853E-01
    8987.720     -8.092  -0.120  1.08013E-01  2.83387E-01 -1.75374E-01
    8987.750     -8.062  -0.080  1.09656E-01  2.89694E-01 -1.80037E-01
    8987.774     -8.038   0.000  1.11020E-01  2.94760E-01 -1.83739E-01
    8987.829     -7.983   0.120  1.14099E-01  3.06166E-01 -1.92067E-01
    8987.872     -7.940   0.160  1.16506E-01  3.15046E-01 -1.98539E-01
    8987.927     -7.885   0.200  1.19617E-01  3.26353E-01 -2.06736E-01
    8987.994     -7.818   0.240  1.23512E-01  3.39970E-01 -2.16458E-01
    8988.073     -7.739   0.280  1.28199E-01  3.55575E-01 -2.27375E-01
    8988.165     -7.647   0.320  1.33775E-01  3.72779E-01 -2.39004E-01
    8988.268     -7.544   0.360  1.40303E-01  3.91059E-01 -2.50756E-01
    8988.384     -7.428   0.400  1.47897E-01  4.09877E-01 -2.61981E-01
    8988.512     -7.300   0.440  1.56785E-01  4.28767E-01 -2.71982E-01
    8988.652     -7.160   0.480  1.67166E-01  4.47311E-01 -2.80145E-01
    8988.805     -7.007   0.520  1.79386E-01  4.65269E-01 -2.85883E-01
    8988.969     -6.843   0.560  1.93881E-01  4.82556E-01 -2.88674E-01
    8989.146     -6.666   0.600  2.11106E-01  4.99140E-01 -2.88034E-01
    8989.335     -6.477   0.640  2.31444E-01  5.15041E-01 -2.83598E-01
    8989.536     -6.276   0.680  2.55118E-01  5.30392E-01 -2.75275E-01
    8989.750     -6.062   0.720  2.81729E-01  5.45258E-01 -2.63529E-01
    8989.975     -5.837   0.760  3.10165E-01  5.59744E-01 -2.49579E-01
    8990.213     -5.599   0.800  3.39013E-01  5.73925E-01 -2.34912E-01
    8990.463     -5.349   0.840  3.67401E-01  5.87888E-01 -2.20487E-01
    8990.725     -5.087   0.880  3.94971E-01  6.01685E-01 -2.06714E-01
    8990.999     -4.813   0.920  4.21406E-01  6.15355E-01 -1.93949E-01
    8991.286     -4.526   0.960  4.47112E-01  6.28965E-01 -1.81853E-01
    8991.584     -4.228   1.000  4.74378E-01  6.42493E-01 -1.68115E-01
    8991.895     -3.917   1.040  5.07221E-01  6.55990E-01 -1.48768E-01
    8992.218     -3.594   1.080  5.48394E-01  6.69437E-01 -1.21043E-01
    8992.554     -3.258   1.120  5.97359E-01  6.82849E-01 -8.54904E-02
    8992.901     -2.911   1.160  6.52709E-01  6.96218E-01 -4.35093E-02
    8993.261     -2.551   1.200  7.14482E-01  7.09550E-01  4.93187E-03
    8993.633     -2.179   1.240  7.78659E-01  7.22806E-01  5.58528E-02
    8994.017     -1.795   1.280  8.32705E-01  7.35966E-01  9.67389E-02
    8994.413     -1.399   1.320  8.66722E-01  7.49028E-01  1.17694E-01
    8994.821     -0.991   1.360  8.82897E-01  7.61965E-01  1.20931E-01
    8995.242     -0.570   1.400  8.87682E-01  7.74734E-01  1.12948E-01
    8995.675     -0.137   1.440  8.88499E-01  7.87366E-01  1.01132E-01
    8996.120      0.308   1.480  8.87259E-01  7.99774E-01  8.74851E-02
    8996.577      0.765   1.520  8.83318E-01  8.11987E-01  7.13309E-02
    8997.046      1.234   1.560  8.85071E-01  8.23937E-01  6.11337E-02
    8997.528      1.716   1.600  9.05218E-01  8.35636E-01  6.95827E-02
    8998.022      2.210   1.640  9.57909E-01  8.47053E-01  1.10856E-01
    8998.528      2.716   1.680  1.04391E+00  8.58141E-01  1.85769E-01
    8999.046      3.234   1.720  1.13251E+00  8.68911E-01  2.63603E-01
    8999.576      3.764   1.760  1.19292E+00  8.79335E-01  3.13582E-01
    9000.119      4.307   1.800  1.22154E+00  8.89406E-01  3.32131E-01
    9000.674      4.862   1.840  1.23092E+00  8.99099E-01  3.31823E-01
    9001.240      5.428   1.880  1.23441E+00  9.08385E-01  3.26021E-01
    9001.820      6.008   1.920  1.23624E+00  9.17281E-01  3.18959E-01
    9002.411      6.599   1.960  1.22926E+00  9.25742E-01  3.03521E-01
    9003.014      7.202   2.000  1.19203E+00  9.33806E-01  2.58222E-01
    9003.630      7.818   2.040  1.12136E+00  9.41433E-01  1.79930E-01
    9004.258      8.446   2.080  1.04003E+00  9.48639E-01  9.13869E-02
    9004.898      9.086   2.120  9.73534E-01  9.55425E-01  1.81090E-02
    9005.550      9.738   2.160  9.34570E-01  9.61770E-01 -2.71998E-02
    9006.215     10.403   2.200  9.21647E-01  9.67698E-01 -4.60500E-02
    9006.891     11.079   2.240  9.30730E-01  9.73189E-01 -4.24585E-02
    9007.580     11.768   2.280  9.59215E-01  9.78287E-01 -1.90717E-02
    9008.281     12.469   2.320  1.00230E+00  9.82955E-01  1.93487E-02
    9008.995     13.183   2.360  1.05300E+00  9.87217E-01  6.57856E-02
    9009.720     13.908   2.400  1.10425E+00  9.91100E-01  1.13154E-01
    9010.458     14.646   2.440  1.14544E+00  9.94587E-01  1.50857E-01
    9011.207     15.395   2.480  1.16160E+00  9.97707E-01  1.63898E-01
    9011.969     16.157   2.520  1.14381E+00  1.00049E+00  1.43324E-01
    9012.744     16.932   2.560  1.09779E+00  1.00291E+00  9.48839E-02
    9013.530     17.718   2.600  1.04163E+00  1.00500E+00  3.66261E-02
    9014.329     18.516   2.640  9.93065E-01  1.00678E+00 -1.37141E-02
    9015.139     19.327   2.680  9.55809E-01  1.00826E+00 -5.24540E-02
    9015.962     20.150   2.720  9.27329E-01  1.00946E+00 -8.21323E-02
    9016.797     20.985   2.760  9.06761E-01  1.01040E+00 -1.03643E-01
    9017.645     21.833   2.800  8.90906E-01  1.01108E+00 -1.20171E-01
    9018.504     22.692   2.840  8.78973E-01  1.01151E+00 -1.32538E-01
    9019.376     23.564   2.880  8.71499E-01  1.01173E+00 -1.40234E-01
    9020.260     24.448   2.920  8.68361E-01  1.01175E+00 -1.43389E-01
    9021.156     25.344   2.960  8.69761E-01  1.01159E+00 -1.41833E-01
    9022.064     26.252   3.000  8.75907E-01  1.01125E+00 -1.35341E-01
    9022.985     27.173   3.040  8.86519E-01  1.01074E+00 -1.24222E-01
    9023.917     28.105   3.080  9.00877E-01  1.01010E+00 -1.09223E-01
    9024.862     29.050   3.120  9.17771E-01  1.00934E+00 -9.15648E-02
    9025.819     30.007   3.160  9.35473E-01  1.00845E+00 -7.29796E-02
    9026.789     30.977   3.200  9.52471E-01  1.00748E+00 -5.50065E-02
    9027.770     31.958   3.240  9.67517E-01  1.00640E+00 -3.88792E-02
    9028.764     32.952   3.280  9.79774E-01  1.00526E+00 -2.54830E-02
    9029.770     33.958   3.320  9.88959E-01  1.00404E+00 -1.50834E-02
    9030.788     34.976   3.360  9.95232E-01  1.00276E+00 -7.52786E-03
    9031.818     36.006   3.400  9.99063E-01  1.00146E+00 -2.39453E-03
    9032.860     37.048   3.440  1.00102E+00  1.00014E+00  8.77049E-04
    9033.915     38.103   3.480  1.00171E+00  9.98771E-01  2.94272E-03
    9034.982     39.170   3.520  1.00190E+00  9.97414E-01  4.48174E-03
    9036.061     40.249   3.560  1.00214E+00  9.96037E-01  6.10583E-03
    9037.152     41.340   3.600  1.00293E+00  9.94681E-01  8.24895E-03
    9038.255     42.443   3.640  1.00439E+00  9.93331E-01  1.10613E-02
    9039.371     43.559   3.680  1.00641E+00  9.92010E-01  1.44025E-02
    9040.499     44.687   3.720  1.00858E+00  9.90701E-01  1.78790E-02
    9041.638     45.826   3.760  1.01040E+00  9.89427E-01  2.09694E-02
    9042.791     46.979   3.800  1.01129E+00  9.88194E-01  2.30922E-02
    9043.955     48.143   3.840  1.01074E+00  9.87020E-01  2.37229E-02
    9045.131     49.319   3.880  1.00859E+00  9.85871E-01  2.27157E-02
    9046.320     50.508   3.920  1.00516E+00  9.84788E-01  2.03711E-02
    9047.521     51.709   3.960  1.00105E+00  9.83773E-01  1.72733E-02
    9048.734     52.922   4.000  9.96822E-01  9.82784E-01  1.40380E-02
    9049.959     54.147   4.040  9.92977E-01  9.81889E-01  1.10884E-02
    9051.197     55.385   4.080  9.89619E-01  9.81044E-01  8.57482E-03
    9052.447     56.635   4.120  9.86774E-01  9.80271E-01  6.50300E-03
    9053.708     57.896   4.160  9.84510E-01  9.79550E-01  4.96015E-03
    9054.983     59.171   4.200  9.83133E-01  9.78903E-01  4.22973E-03
    9056.269     60.457   4.240  9.83051E-01  9.78333E-01  4.71888E-03
    9057.567     61.755   4.280  9.84594E-01  9.77837E-01  6.75652E-03
    9058.878     63.066   4.320  9.87832E-01  9.77417E-01  1.04148E-02
    9060.201     64.389   4.360  9.92509E-01  9.77050E-01  1.54591E-02
    9061.536     65.724   4.400  9.98169E-01  9.76757E-01  2.14117E-02
    9062.883     67.071   4.440  1.00415E+00  9.76537E-01  2.76120E-02
    9064.242     68.430   4.480  1.00960E+00  9.76368E-01  3.32311E-02
    9065.614     69.802   4.520  1.01370E+00  9.76272E-01  3.74273E-02
    9066.998     71.186   4.560  1.01585E+00  9.76250E-01  3.95988E-02
    9068.394     72.582   4.600  1.01584E+00  9.76276E-01  3.95661E-02
    9069.802     73.990   4.640  1.01400E+00  9.76372E-01  3.76279E-02
    9071.222     75.410   4.680  1.01099E+00  9.76514E-01  3.44765E-02
    9072.655     76.843   4.720  1.00759E+00  9.76703E-01  3.08848E-02
    9074.100     78.288   4.760  1.00429E+00  9.76957E-01  2.73292E-02
    9075.556     79.744   4.800  1.00109E+00  9.77255E-01  2.38389E-02
    9077.026     81.214   4.840  9.97654E-01  9.77594E-01  2.00594E-02
    9078.507     82.695   4.880  9.93465E-01  9.77974E-01  1.54911E-02
    9080.000     84.188   4.920  9.88184E-01  9.78393E-01  9.79162E-03
    9081.506     85.694   4.960  9.81805E-01  9.78848E-01  2.95735E-03
    9083.024     87.212   5.000  9.74699E-01  9.79339E-01 -4.64003E-03
    9084.554     88.742   5.040  9.67448E-01  9.79840E-01 -1.23921E-02
    9086.096     90.284   5.080  9.60645E-01  9.80372E-01 -1.97269E-02
    9087.651     91.839   5.120  9.54611E-01  9.80913E-01 -2.63024E-02
    9089.218     93.406   5.160  9.49434E-01  9.81481E-01 -3.20476E-02
    9090.796     94.984   5.200  9.45114E-01  9.82054E-01 -3.69396E-02
    9092.387     96.575   5.240  9.41755E-01  9.82627E-01 -4.08723E-02
    9093.991     98.179   5.280  9.39568E-01  9.83199E-01 -4.36313E-02
    9095.606     99.794   5.320  9.38808E-01  9.83770E-01 -4.49614E-02
    9097.234    101.422   5.360  9.39706E-01  9.84314E-01 -4.46077E-02
    9098.874    103.062   5.400  9.42492E-01  9.84875E-01 -4.23831E-02
    9100.526    104.714   5.440  9.47193E-01  9.85410E-01 -3.82165E-02
    9102.190    106.378   5.480  9.53767E-01  9.85934E-01 -3.21679E-02
    9103.866    108.054   5.520  9.61939E-01  9.86425E-01 -2.44861E-02
    9105.555    109.743   5.560  9.71191E-01  9.86882E-01 -1.56915E-02
    9107.256    111.444   5.600  9.80829E-01  9.87327E-01 -6.49716E-03
    9108.969    113.156   5.640  9.90065E-01  9.87736E-01  2.32925E-03
    9110.694    114.882   5.680  9.98152E-01  9.88105E-01  1.00470E-02
    9112.431    116.619   5.720  1.00434E+00  9.88438E-01  1.59022E-02
    9114.181    118.369   5.760  1.00791E+00  9.88754E-01  1.91564E-02
    9115.942    120.130   5.800  1.00828E+00  9.89004E-01  1.92805E-02
    9117.716    121.904   5.840  1.00543E+00  9.89210E-01  1.62185E-02
    9119.502    123.690   5.880  9.99862E-01  9.89349E-01  1.05128E-02
    9121.301    125.489   5.920  9.92667E-01  9.89466E-01  3.20159E-03
    9123.111    127.299   5.960  9.85156E-01  9.89510E-01 -4.35429E-03
    9124.934    129.122   6.000  9.78777E-01  9.89510E-01 -1.07330E-02
