# # comment:                                                     FEFF 9.9.1  
# # Source:
# # Structure
# # Reduced
# # space
# # abc:
# # angles:
# # sites:
# # POT  SCF 100  7.0000   0, screened core-hole, AFOLP (folp(0)= 1.150)
# # Abs   Z=29 Rmt= 1.233 Rnm= 1.307 K  shell
# # Pot 1 Z= 3 Rmt= 1.265 Rnm= 1.316
# # Pot 2 Z=25 Rmt= 1.224 Rnm= 1.349
# # Pot 3 Z=29 Rmt= 1.243 Rnm= 1.313
# # Pot 4 Z= 8 Rmt= 1.048 Rnm= 1.106
# # Gam_ch=1.729E+00 H-L exch Vi= 0.000E+00 Vr= 0.000E+00
# # Mu=-9.182E+00eV kf=2.117E+00 Vint=-1.714E+01eV Rs_int= 1.713
# FMS rfms= 9.0000
# # PATH  Rmax=-1.000,  Keep_limit= 0.00, Heap_limit 0.00  Pwcrit= 2.50%
#  S02=0.950  Temp=   0.00  Debye_temp=   0.00  Global_sig2= 0.00000
#  Energy zero shift, vr, vi    0.00000E+00   0.00000E+00
#  Curved wave amplitude ratio filter   4.000%
#     file         sig2 tot  cw amp ratio   deg  nlegs   reff  inp sig2
#     0/   0 paths used
#  xsedge+ 50, used to normalize mu           2.4570E-04
#  -----------------------------------------------------------------------
#  omega    e    k    mu    mu0     chi     @#
    8984.522    -12.992  -1.000  3.39339E-02  5.22296E-02 -1.82957E-02
    8984.821    -12.694  -0.960  3.54802E-02  5.59574E-02 -2.04772E-02
    8985.108    -12.407  -0.920  3.71253E-02  6.00932E-02 -2.29679E-02
    8985.382    -12.133  -0.880  3.88797E-02  6.46963E-02 -2.58166E-02
    8985.644    -11.871  -0.840  4.07563E-02  6.98358E-02 -2.90795E-02
    8985.894    -11.621  -0.800  4.27700E-02  7.55917E-02 -3.28218E-02
    8986.132    -11.383  -0.760  4.49383E-02  8.20556E-02 -3.71173E-02
    8986.357    -11.158  -0.720  4.72815E-02  8.93308E-02 -4.20493E-02
    8986.571    -10.944  -0.680  4.98224E-02  9.75311E-02 -4.77087E-02
    8986.772    -10.743  -0.640  5.25854E-02  1.06776E-01 -5.41910E-02
    8986.961    -10.554  -0.600  5.55941E-02  1.17184E-01 -6.15901E-02
    8987.137    -10.377  -0.560  5.88675E-02  1.28855E-01 -6.99871E-02
    8987.302    -10.213  -0.520  6.24131E-02  1.41846E-01 -7.94334E-02
    8987.454    -10.060  -0.480  6.62177E-02  1.56145E-01 -8.99277E-02
    8987.595     -9.920  -0.440  7.02371E-02  1.71626E-01 -1.01389E-01
    8987.723     -9.792  -0.400  7.43884E-02  1.88021E-01 -1.13633E-01
    8987.838     -9.676  -0.360  7.85506E-02  2.04911E-01 -1.26361E-01
    8987.942     -9.573  -0.320  8.25772E-02  2.21750E-01 -1.39173E-01
    8988.034     -9.481  -0.280  8.63202E-02  2.37932E-01 -1.51612E-01
    8988.113     -9.402  -0.240  8.96559E-02  2.52873E-01 -1.63217E-01
    8988.180     -9.335  -0.200  9.25012E-02  2.66083E-01 -1.73582E-01
    8988.235     -9.280  -0.160  9.48165E-02  2.77201E-01 -1.82384E-01
    8988.277     -9.237  -0.120  9.65945E-02  2.85994E-01 -1.89400E-01
    8988.308     -9.207  -0.080  9.78441E-02  2.92332E-01 -1.94488E-01
    8988.332     -9.182   0.000  9.88162E-02  2.97426E-01 -1.98610E-01
    8988.387     -9.128   0.120  1.00982E-01  3.08909E-01 -2.07926E-01
    8988.430     -9.085   0.160  1.02648E-01  3.17865E-01 -2.15217E-01
    8988.485     -9.030   0.200  1.04670E-01  3.29290E-01 -2.24620E-01
    8988.552     -8.963   0.240  1.06998E-01  3.43060E-01 -2.36062E-01
    8988.631     -8.884   0.280  1.09485E-01  3.58895E-01 -2.49409E-01
    8988.722     -8.792   0.320  1.12033E-01  3.76413E-01 -2.64380E-01
    8988.826     -8.689   0.360  1.14532E-01  3.95158E-01 -2.80626E-01
    8988.942     -8.573   0.400  1.16909E-01  4.14580E-01 -2.97671E-01
    8989.070     -8.445   0.440  1.19195E-01  4.34233E-01 -3.15038E-01
    8989.210     -8.305   0.480  1.21572E-01  4.53715E-01 -3.32143E-01
    8989.362     -8.152   0.520  1.24392E-01  4.72819E-01 -3.48426E-01
    8989.527     -7.988   0.560  1.28031E-01  4.91415E-01 -3.63384E-01
    8989.704     -7.811   0.600  1.32922E-01  5.09473E-01 -3.76551E-01
    8989.893     -7.622   0.640  1.39342E-01  5.27024E-01 -3.87682E-01
    8990.094     -7.421   0.680  1.47333E-01  5.44149E-01 -3.96817E-01
    8990.307     -7.207   0.720  1.56564E-01  5.60924E-01 -4.04360E-01
    8990.533     -6.982   0.760  1.66657E-01  5.77441E-01 -4.10784E-01
    8990.771     -6.744   0.800  1.77883E-01  5.93721E-01 -4.15838E-01
    8991.021     -6.494   0.840  1.91678E-01  6.09836E-01 -4.18158E-01
    8991.283     -6.232   0.880  2.10164E-01  6.25845E-01 -4.15681E-01
    8991.557     -5.958   0.920  2.35507E-01  6.41733E-01 -4.06226E-01
    8991.844     -5.671   0.960  2.69657E-01  6.57555E-01 -3.87898E-01
    8992.142     -5.372   1.000  3.14119E-01  6.73275E-01 -3.59156E-01
    8992.453     -5.062   1.040  3.70145E-01  6.88890E-01 -3.18745E-01
    8992.776     -4.738   1.080  4.36078E-01  7.04410E-01 -2.68332E-01
    8993.112     -4.403   1.120  5.02944E-01  7.19797E-01 -2.16853E-01
    8993.459     -4.056   1.160  5.59490E-01  7.35011E-01 -1.75522E-01
    8993.819     -3.696   1.200  6.03513E-01  7.50047E-01 -1.46534E-01
    8994.191     -3.324   1.240  6.39011E-01  7.64858E-01 -1.25847E-01
    8994.575     -2.940   1.280  6.68695E-01  7.79435E-01 -1.10739E-01
    8994.971     -2.544   1.320  6.89353E-01  7.93706E-01 -1.04354E-01
    8995.379     -2.136   1.360  6.94766E-01  8.07662E-01 -1.12895E-01
    8995.800     -1.715   1.400  6.85045E-01  8.21289E-01 -1.36244E-01
    8996.233     -1.282   1.440  6.72159E-01  8.34514E-01 -1.62355E-01
    8996.678     -0.837   1.480  6.73273E-01  8.47328E-01 -1.74055E-01
    8997.135     -0.380   1.520  7.02613E-01  8.59721E-01 -1.57108E-01
    8997.604      0.090   1.560  7.59994E-01  8.71642E-01 -1.11648E-01
    8998.086      0.571   1.600  8.31310E-01  8.83102E-01 -5.17922E-02
    8998.580      1.065   1.640  9.13057E-01  8.94034E-01  1.90225E-02
    8999.086      1.571   1.680  9.99509E-01  9.04474E-01  9.50343E-02
    8999.604      2.089   1.720  1.06421E+00  9.14398E-01  1.49815E-01
    9000.134      2.619   1.760  1.11890E+00  9.23780E-01  1.95117E-01
    9000.677      3.162   1.800  1.19030E+00  9.32621E-01  2.57675E-01
    9001.231      3.717   1.840  1.28509E+00  9.40942E-01  3.44146E-01
    9001.798      4.284   1.880  1.39062E+00  9.48721E-01  4.41894E-01
    9002.377      4.863   1.920  1.47998E+00  9.55964E-01  5.24014E-01
    9002.969      5.454   1.960  1.53284E+00  9.62675E-01  5.70163E-01
    9003.572      6.057   2.000  1.54278E+00  9.68898E-01  5.73878E-01
    9004.188      6.673   2.040  1.52084E+00  9.74600E-01  5.46241E-01
    9004.816      7.301   2.080  1.47624E+00  9.79808E-01  4.96436E-01
    9005.456      7.941   2.120  1.40275E+00  9.84550E-01  4.18199E-01
    9006.108      8.593   2.160  1.30157E+00  9.88834E-01  3.12731E-01
    9006.773      9.258   2.200  1.18986E+00  9.92670E-01  1.97186E-01
    9007.449      9.935   2.240  1.08375E+00  9.96089E-01  8.76637E-02
    9008.138     10.623   2.280  9.91134E-01  9.99101E-01 -7.96701E-03
    9008.839     11.324   2.320  9.18667E-01  1.00174E+00 -8.30678E-02
    9009.552     12.038   2.360  8.69594E-01  1.00400E+00 -1.34408E-01
    9010.278     12.763   2.400  8.41376E-01  1.00594E+00 -1.64559E-01
    9011.015     13.501   2.440  8.29218E-01  1.00757E+00 -1.78348E-01
    9011.765     14.250   2.480  8.32690E-01  1.00888E+00 -1.76192E-01
    9012.527     15.012   2.520  8.58281E-01  1.00994E+00 -1.51655E-01
    9013.301     15.787   2.560  9.05171E-01  1.01072E+00 -1.05548E-01
    9014.088     16.573   2.600  9.52437E-01  1.01128E+00 -5.88430E-02
    9014.886     17.372   2.640  9.93620E-01  1.01163E+00 -1.80097E-02
    9015.697     18.182   2.680  1.02714E+00  1.01176E+00  1.53870E-02
    9016.520     19.005   2.720  1.05399E+00  1.01173E+00  4.22581E-02
    9017.355     19.840   2.760  1.07475E+00  1.01155E+00  6.31995E-02
    9018.203     20.688   2.800  1.08881E+00  1.01121E+00  7.75975E-02
    9019.062     21.547   2.840  1.09522E+00  1.01076E+00  8.44617E-02
    9019.934     22.419   2.880  1.09418E+00  1.01018E+00  8.40022E-02
    9020.818     23.303   2.920  1.08490E+00  1.00953E+00  7.53728E-02
    9021.714     24.199   2.960  1.06597E+00  1.00877E+00  5.71959E-02
    9022.622     25.107   3.000  1.03724E+00  1.00796E+00  2.92817E-02
    9023.543     26.028   3.040  1.00132E+00  1.00710E+00 -5.78159E-03
    9024.475     26.961   3.080  9.62940E-01  1.00620E+00 -4.32638E-02
    9025.420     27.905   3.120  9.27112E-01  1.00527E+00 -7.81536E-02
    9026.377     28.863   3.160  8.97064E-01  1.00429E+00 -1.07230E-01
    9027.347     29.832   3.200  8.74156E-01  1.00334E+00 -1.29181E-01
    9028.328     30.813   3.240  8.58634E-01  1.00236E+00 -1.43721E-01
    9029.322     31.807   3.280  8.49947E-01  1.00137E+00 -1.51428E-01
    9030.327     32.813   3.320  8.47128E-01  1.00042E+00 -1.53292E-01
    9031.345     33.831   3.360  8.48999E-01  9.99475E-01 -1.50476E-01
    9032.376     34.861   3.400  8.54531E-01  9.98563E-01 -1.44032E-01
    9033.418     35.903   3.440  8.62844E-01  9.97687E-01 -1.34843E-01
    9034.473     36.958   3.480  8.73708E-01  9.96849E-01 -1.23140E-01
    9035.539     38.025   3.520  8.86971E-01  9.96050E-01 -1.09079E-01
    9036.618     39.104   3.560  9.02099E-01  9.95294E-01 -9.31951E-02
    9037.710     40.195   3.600  9.18206E-01  9.94581E-01 -7.63749E-02
    9038.813     41.298   3.640  9.34331E-01  9.93933E-01 -5.96019E-02
    9039.929     42.414   3.680  9.49580E-01  9.93311E-01 -4.37302E-02
    9041.056     43.542   3.720  9.63509E-01  9.92777E-01 -2.92683E-02
    9042.196     44.682   3.760  9.76132E-01  9.92271E-01 -1.61386E-02
    9043.348     45.834   3.800  9.88061E-01  9.91855E-01 -3.79344E-03
    9044.513     46.998   3.840  1.00003E+00  9.91467E-01  8.56134E-03
    9045.689     48.175   3.880  1.01269E+00  9.91148E-01  2.15420E-02
    9046.878     49.363   3.920  1.02598E+00  9.90900E-01  3.50784E-02
    9048.079     50.564   3.960  1.03903E+00  9.90703E-01  4.83305E-02
    9049.292     51.777   4.000  1.05078E+00  9.90574E-01  6.02102E-02
    9050.517     53.003   4.040  1.06042E+00  9.90494E-01  6.99307E-02
    9051.755     54.240   4.080  1.06757E+00  9.90461E-01  7.71087E-02
    9053.004     55.490   4.120  1.07204E+00  9.90497E-01  8.15443E-02
    9054.266     56.752   4.160  1.07393E+00  9.90601E-01  8.33259E-02
    9055.540     58.026   4.200  1.07342E+00  9.90729E-01  8.26896E-02
    9056.827     59.312   4.240  1.07100E+00  9.90922E-01  8.00797E-02
    9058.125     60.610   4.280  1.06724E+00  9.91158E-01  7.60835E-02
    9059.436     61.921   4.320  1.06260E+00  9.91435E-01  7.11630E-02
    9060.759     63.244   4.360  1.05716E+00  9.91752E-01  6.54073E-02
    9062.094     64.579   4.400  1.05073E+00  9.92108E-01  5.86173E-02
    9063.441     65.926   4.440  1.04322E+00  9.92503E-01  5.07137E-02
    9064.800     67.285   4.480  1.03481E+00  9.92933E-01  4.18792E-02
    9066.172     68.657   4.520  1.02605E+00  9.93375E-01  3.26723E-02
    9067.556     70.041   4.560  1.01774E+00  9.93851E-01  2.38921E-02
    9068.952     71.437   4.600  1.01072E+00  9.94359E-01  1.63628E-02
    9070.360     72.845   4.640  1.00572E+00  9.94876E-01  1.08465E-02
    9071.780     74.265   4.680  1.00345E+00  9.95422E-01  8.03150E-03
    9073.213     75.698   4.720  1.00441E+00  9.95972E-01  8.43909E-03
    9074.657     77.143   4.760  1.00870E+00  9.96525E-01  1.21752E-02
    9076.114     78.600   4.800  1.01563E+00  9.97078E-01  1.85565E-02
    9077.583     80.069   4.840  1.02360E+00  9.97634E-01  2.59703E-02
    9079.065     81.550   4.880  1.03056E+00  9.98210E-01  3.23534E-02
    9080.558     83.044   4.920  1.03473E+00  9.98760E-01  3.59663E-02
    9082.064     84.549   4.960  1.03523E+00  9.99303E-01  3.59242E-02
    9083.582     86.067   5.000  1.03207E+00  9.99819E-01  3.22469E-02
    9085.112     87.597   5.040  1.02593E+00  1.00033E+00  2.56040E-02
    9086.654     89.140   5.080  1.01779E+00  1.00083E+00  1.69579E-02
    9088.209     90.694   5.120  1.00849E+00  1.00132E+00  7.16735E-03
    9089.775     92.261   5.160  9.98365E-01  1.00175E+00 -3.38817E-03
    9091.354     93.840   5.200  9.87482E-01  1.00217E+00 -1.46923E-02
    9092.945     95.431   5.240  9.75906E-01  1.00258E+00 -2.66769E-02
    9094.549     97.034   5.280  9.64126E-01  1.00293E+00 -3.88062E-02
    9096.164     98.649   5.320  9.53105E-01  1.00327E+00 -5.01606E-02
    9097.792    100.277   5.360  9.43807E-01  1.00356E+00 -5.97550E-02
    9099.431    101.917   5.400  9.36841E-01  1.00382E+00 -6.69758E-02
    9101.083    103.569   5.440  9.32252E-01  1.00403E+00 -7.17815E-02
    9102.748    105.233   5.480  9.29551E-01  1.00421E+00 -7.46592E-02
    9104.424    106.909   5.520  9.28084E-01  1.00437E+00 -7.62862E-02
    9106.113    108.598   5.560  9.27279E-01  1.00447E+00 -7.71868E-02
    9107.813    110.299   5.600  9.27009E-01  1.00452E+00 -7.75086E-02
    9109.526    112.012   5.640  9.27538E-01  1.00453E+00 -7.69890E-02
    9111.251    113.737   5.680  9.29510E-01  1.00449E+00 -7.49841E-02
    9112.989    115.474   5.720  9.33755E-01  1.00442E+00 -7.06653E-02
    9114.738    117.224   5.760  9.40954E-01  1.00428E+00 -6.33268E-02
    9116.500    118.985   5.800  9.51313E-01  1.00413E+00 -5.28130E-02
    9118.274    120.759   5.840  9.64328E-01  1.00393E+00 -3.96056E-02
    9120.060    122.545   5.880  9.79060E-01  1.00370E+00 -2.46432E-02
    9121.858    124.344   5.920  9.94264E-01  1.00343E+00 -9.16894E-03
    9123.669    126.154   5.960  1.00844E+00  1.00310E+00  5.34011E-03
    9125.492    127.977   6.000  1.02043E+00  1.00272E+00  1.77061E-02
