# # comment:                                                     FEFF 9.9.1  
# # Source:
# # Structure
# # Reduced
# # space
# # abc:
# # angles:
# # sites:
# # POT  SCF 100  7.0000   0, screened core-hole, AFOLP (folp(0)= 1.150)
# # Abs   Z=29 Rmt= 1.191 Rnm= 1.276 K  shell
# # Pot 1 Z=30 Rmt= 1.386 Rnm= 1.467
# # Pot 2 Z=29 Rmt= 1.191 Rnm= 1.276
# # Pot 3 Z= 8 Rmt= 1.005 Rnm= 1.091
# # Gam_ch=1.729E+00 H-L exch Vi= 0.000E+00 Vr= 0.000E+00
# # Mu=-8.894E+00eV kf=2.163E+00 Vint=-1.654E+01eV Rs_int= 1.677
# FMS rfms= 9.0000
# # PATH  Rmax=-1.000,  Keep_limit= 0.00, Heap_limit 0.00  Pwcrit= 2.50%
#  S02=0.950  Temp=   0.00  Debye_temp=   0.00  Global_sig2= 0.00000
#  Energy zero shift, vr, vi    0.00000E+00   0.00000E+00
#  Curved wave amplitude ratio filter   4.000%
#     file         sig2 tot  cw amp ratio   deg  nlegs   reff  inp sig2
#     0/   0 paths used
#  xsedge+ 50, used to normalize mu           2.4528E-04
#  -----------------------------------------------------------------------
#  omega    e    k    mu    mu0     chi     @#
    8984.190    -12.704  -1.000  3.00944E-02  5.21327E-02 -2.20383E-02
    8984.489    -12.405  -0.960  3.13840E-02  5.58410E-02 -2.44569E-02
    8984.776    -12.119  -0.920  3.27586E-02  5.99534E-02 -2.71949E-02
    8985.050    -11.845  -0.880  3.42286E-02  6.45287E-02 -3.03001E-02
    8985.312    -11.582  -0.840  3.58069E-02  6.96350E-02 -3.38281E-02
    8985.562    -11.333  -0.800  3.75085E-02  7.53511E-02 -3.78426E-02
    8985.800    -11.095  -0.760  3.93510E-02  8.17674E-02 -4.24164E-02
    8986.025    -10.869  -0.720  4.13551E-02  8.89859E-02 -4.76307E-02
    8986.239    -10.656  -0.680  4.35438E-02  9.71185E-02 -5.35747E-02
    8986.440    -10.455  -0.640  4.59418E-02  1.06283E-01 -6.03416E-02
    8986.629    -10.266  -0.600  4.85739E-02  1.16596E-01 -6.80224E-02
    8986.805    -10.089  -0.560  5.14608E-02  1.28156E-01 -7.66948E-02
    8986.970     -9.924  -0.520  5.46138E-02  1.41019E-01 -8.64055E-02
    8987.122     -9.772  -0.480  5.80263E-02  1.55172E-01 -9.71461E-02
    8987.263     -9.632  -0.440  6.16650E-02  1.70491E-01 -1.08827E-01
    8987.391     -9.504  -0.400  6.54623E-02  1.86712E-01 -1.21250E-01
    8987.507     -9.388  -0.360  6.93151E-02  2.03421E-01 -1.34106E-01
    8987.610     -9.284  -0.320  7.30939E-02  2.20078E-01 -1.46984E-01
    8987.702     -9.193  -0.280  7.66615E-02  2.36087E-01 -1.59425E-01
    8987.781     -9.114  -0.240  7.98944E-02  2.50870E-01 -1.70975E-01
    8987.848     -9.047  -0.200  8.27000E-02  2.63942E-01 -1.81242E-01
    8987.903     -8.992  -0.160  8.50220E-02  2.74946E-01 -1.89924E-01
    8987.945     -8.949  -0.120  8.68346E-02  2.83651E-01 -1.96816E-01
    8987.976     -8.918  -0.080  8.81316E-02  2.89927E-01 -2.01795E-01
    8988.000     -8.894   0.000  8.91795E-02  2.94972E-01 -2.05792E-01
    8988.055     -8.839   0.120  9.15478E-02  3.06351E-01 -2.14803E-01
    8988.098     -8.797   0.160  9.33033E-02  3.15202E-01 -2.21899E-01
    8988.153     -8.742   0.200  9.54626E-02  3.26531E-01 -2.31069E-01
    8988.220     -8.675   0.240  9.79509E-02  3.40179E-01 -2.42228E-01
    8988.299     -8.595   0.280  1.00650E-01  3.55893E-01 -2.55243E-01
    8988.390     -8.504   0.320  1.03401E-01  3.73303E-01 -2.69902E-01
    8988.494     -8.400   0.360  1.06062E-01  3.91941E-01 -2.85878E-01
    8988.610     -8.285   0.400  1.08418E-01  4.11288E-01 -3.02870E-01
    8988.738     -8.156   0.440  1.10374E-01  4.30890E-01 -3.20516E-01
    8988.878     -8.016   0.480  1.11835E-01  4.50372E-01 -3.38536E-01
    8989.031     -7.864   0.520  1.12930E-01  4.69510E-01 -3.56580E-01
    8989.195     -7.699   0.560  1.13923E-01  4.88200E-01 -3.74276E-01
    8989.372     -7.523   0.600  1.15134E-01  5.06389E-01 -3.91254E-01
    8989.561     -7.334   0.640  1.16957E-01  5.24126E-01 -4.07169E-01
    8989.762     -7.132   0.680  1.19679E-01  5.41491E-01 -4.21812E-01
    8989.975     -6.919   0.720  1.23438E-01  5.58514E-01 -4.35075E-01
    8990.201     -6.693   0.760  1.28427E-01  5.75324E-01 -4.46897E-01
    8990.439     -6.456   0.800  1.34583E-01  5.91921E-01 -4.57338E-01
    8990.689     -6.206   0.840  1.42147E-01  6.08394E-01 -4.66247E-01
    8990.951     -5.944   0.880  1.51759E-01  6.24755E-01 -4.72996E-01
    8991.225     -5.669   0.920  1.64914E-01  6.41049E-01 -4.76135E-01
    8991.512     -5.383   0.960  1.83625E-01  6.57246E-01 -4.73620E-01
    8991.810     -5.084   1.000  2.09938E-01  6.73369E-01 -4.63431E-01
    8992.121     -4.773   1.040  2.44162E-01  6.89391E-01 -4.45229E-01
    8992.444     -4.450   1.080  2.82305E-01  7.05299E-01 -4.22993E-01
    8992.780     -4.115   1.120  3.17249E-01  7.21054E-01 -4.03805E-01
    8993.127     -3.767   1.160  3.45709E-01  7.36652E-01 -3.90943E-01
    8993.487     -3.408   1.200  3.70206E-01  7.52067E-01 -3.81861E-01
    8993.859     -3.036   1.240  3.92135E-01  7.67210E-01 -3.75074E-01
    8994.243     -2.652   1.280  4.08468E-01  7.82110E-01 -3.73642E-01
    8994.639     -2.256   1.320  4.19636E-01  7.96695E-01 -3.77059E-01
    8995.047     -1.847   1.360  4.33677E-01  8.10930E-01 -3.77253E-01
    8995.468     -1.427   1.400  4.56602E-01  8.24783E-01 -3.68181E-01
    8995.901     -0.994   1.440  4.87205E-01  8.38242E-01 -3.51037E-01
    8996.346     -0.549   1.480  5.21595E-01  8.51255E-01 -3.29660E-01
    8996.803     -0.092   1.520  5.63090E-01  8.63789E-01 -3.00699E-01
    8997.272      0.378   1.560  6.24965E-01  8.75835E-01 -2.50870E-01
    8997.754      0.859   1.600  7.14209E-01  8.87387E-01 -1.73178E-01
    8998.248      1.353   1.640  8.21560E-01  8.98396E-01 -7.68352E-02
    8998.754      1.859   1.680  9.33524E-01  9.08876E-01  2.46485E-02
    8999.272      2.377   1.720  1.04170E+00  9.18782E-01  1.22916E-01
    8999.802      2.908   1.760  1.14832E+00  9.28134E-01  2.20187E-01
    9000.345      3.450   1.800  1.25927E+00  9.36931E-01  3.22337E-01
    9000.899      4.005   1.840  1.36025E+00  9.45176E-01  4.15074E-01
    9001.466      4.572   1.880  1.40511E+00  9.52849E-01  4.52260E-01
    9002.045      5.151   1.920  1.35182E+00  9.59974E-01  3.91845E-01
    9002.637      5.742   1.960  1.23644E+00  9.66556E-01  2.69883E-01
    9003.240      6.346   2.000  1.13998E+00  9.72624E-01  1.67358E-01
    9003.856      6.962   2.040  1.09983E+00  9.78164E-01  1.21671E-01
    9004.484      7.589   2.080  1.10760E+00  9.83181E-01  1.24421E-01
    9005.124      8.229   2.120  1.15480E+00  9.87749E-01  1.67048E-01
    9005.776      8.882   2.160  1.23275E+00  9.91816E-01  2.40930E-01
    9006.441      9.546   2.200  1.31860E+00  9.95472E-01  3.23128E-01
    9007.117     10.223   2.240  1.39489E+00  9.98688E-01  3.96199E-01
    9007.806     10.912   2.280  1.44997E+00  1.00150E+00  4.48473E-01
    9008.507     11.613   2.320  1.46482E+00  1.00393E+00  4.60893E-01
    9009.220     12.326   2.360  1.42815E+00  1.00599E+00  4.22155E-01
    9009.946     13.051   2.400  1.35180E+00  1.00772E+00  3.44075E-01
    9010.683     13.789   2.440  1.25803E+00  1.00916E+00  2.48870E-01
    9011.433     14.539   2.480  1.17018E+00  1.01030E+00  1.59884E-01
    9012.195     15.301   2.520  1.10466E+00  1.01116E+00  9.34986E-02
    9012.969     16.075   2.560  1.06251E+00  1.01177E+00  5.07433E-02
    9013.756     16.861   2.600  1.03872E+00  1.01217E+00  2.65558E-02
    9014.554     17.660   2.640  1.02281E+00  1.01236E+00  1.04555E-02
    9015.365     18.471   2.680  1.00922E+00  1.01235E+00 -3.13299E-03
    9016.188     19.294   2.720  9.96079E-01  1.01220E+00 -1.61205E-02
    9017.023     20.129   2.760  9.81979E-01  1.01189E+00 -2.99109E-02
    9017.871     20.976   2.800  9.66588E-01  1.01143E+00 -4.48427E-02
    9018.730     21.836   2.840  9.50712E-01  1.01087E+00 -6.01606E-02
    9019.602     22.707   2.880  9.35384E-01  1.01022E+00 -7.48391E-02
    9020.486     23.591   2.920  9.21531E-01  1.00947E+00 -8.79362E-02
    9021.382     24.487   2.960  9.10159E-01  1.00866E+00 -9.84979E-02
    9022.290     25.396   3.000  9.01555E-01  1.00780E+00 -1.06243E-01
    9023.211     26.316   3.040  8.95414E-01  1.00689E+00 -1.11480E-01
    9024.143     27.249   3.080  8.91234E-01  1.00593E+00 -1.14698E-01
    9025.088     28.194   3.120  8.88527E-01  1.00498E+00 -1.16451E-01
    9026.045     29.151   3.160  8.86781E-01  1.00400E+00 -1.17217E-01
    9027.015     30.120   3.200  8.85797E-01  1.00302E+00 -1.17218E-01
    9027.996     31.102   3.240  8.85650E-01  1.00205E+00 -1.16404E-01
    9028.990     32.095   3.280  8.86025E-01  1.00108E+00 -1.15055E-01
    9029.995     33.101   3.320  8.86753E-01  1.00016E+00 -1.13404E-01
    9031.013     34.119   3.360  8.87540E-01  9.99247E-01 -1.11707E-01
    9032.044     35.149   3.400  8.88306E-01  9.98373E-01 -1.10067E-01
    9033.086     36.192   3.440  8.89185E-01  9.97537E-01 -1.08352E-01
    9034.141     37.246   3.480  8.90699E-01  9.96743E-01 -1.06044E-01
    9035.208     38.313   3.520  8.93570E-01  9.95992E-01 -1.02422E-01
    9036.287     39.392   3.560  8.98245E-01  9.95307E-01 -9.70617E-02
    9037.378     40.483   3.600  9.04847E-01  9.94668E-01 -8.98208E-02
    9038.481     41.587   3.640  9.13299E-01  9.94075E-01 -8.07759E-02
    9039.597     42.702   3.680  9.23392E-01  9.93552E-01 -7.01601E-02
    9040.724     43.830   3.720  9.34734E-01  9.93079E-01 -5.83447E-02
    9041.864     44.970   3.760  9.47002E-01  9.92676E-01 -4.56735E-02
    9043.016     46.122   3.800  9.59811E-01  9.92323E-01 -3.25126E-02
    9044.181     47.286   3.840  9.72775E-01  9.92043E-01 -1.92677E-02
    9045.357     48.463   3.880  9.85565E-01  9.91834E-01 -6.26899E-03
    9046.546     49.652   3.920  9.97960E-01  9.91677E-01  6.28367E-03
    9047.747     50.853   3.960  1.00972E+00  9.91568E-01  1.81492E-02
    9048.960     52.066   4.000  1.02067E+00  9.91550E-01  2.91243E-02
    9050.185     53.291   4.040  1.03066E+00  9.91560E-01  3.91048E-02
    9051.423     54.528   4.080  1.03967E+00  9.91638E-01  4.80276E-02
    9052.672     55.778   4.120  1.04754E+00  9.91763E-01  5.57816E-02
    9053.934     57.040   4.160  1.05422E+00  9.91956E-01  6.22636E-02
    9055.208     58.314   4.200  1.05953E+00  9.92195E-01  6.73352E-02
    9056.495     59.600   4.240  1.06331E+00  9.92477E-01  7.08336E-02
    9057.793     60.899   4.280  1.06552E+00  9.92800E-01  7.27217E-02
    9059.104     62.209   4.320  1.06626E+00  9.93186E-01  7.30791E-02
    9060.427     63.532   4.360  1.06558E+00  9.93590E-01  7.19901E-02
    9061.762     64.867   4.400  1.06355E+00  9.94031E-01  6.95179E-02
    9063.109     66.214   4.440  1.06024E+00  9.94508E-01  6.57359E-02
    9064.468     67.574   4.480  1.05575E+00  9.95020E-01  6.07255E-02
    9065.840     68.945   4.520  1.05029E+00  9.95542E-01  5.47459E-02
    9067.224     70.329   4.560  1.04450E+00  9.96096E-01  4.83994E-02
    9068.620     71.725   4.600  1.03903E+00  9.96658E-01  4.23701E-02
    9070.028     73.133   4.640  1.03442E+00  9.97247E-01  3.71765E-02
    9071.448     74.554   4.680  1.03084E+00  9.97841E-01  3.29965E-02
    9072.881     75.986   4.720  1.02813E+00  9.98437E-01  2.96898E-02
    9074.325     77.431   4.760  1.02599E+00  9.99033E-01  2.69574E-02
    9075.782     78.888   4.800  1.02409E+00  9.99630E-01  2.44628E-02
    9077.251     80.357   4.840  1.02215E+00  1.00025E+00  2.18987E-02
    9078.733     81.838   4.880  1.02001E+00  1.00084E+00  1.91669E-02
    9080.226     83.332   4.920  1.01790E+00  1.00140E+00  1.65037E-02
    9081.732     84.838   4.960  1.01631E+00  1.00198E+00  1.43329E-02
    9083.250     86.355   5.000  1.01547E+00  1.00252E+00  1.29505E-02
    9084.780     87.886   5.040  1.01521E+00  1.00304E+00  1.21698E-02
    9086.322     89.428   5.080  1.01496E+00  1.00354E+00  1.14163E-02
    9087.877     90.982   5.120  1.01408E+00  1.00401E+00  1.00727E-02
    9089.443     92.549   5.160  1.01219E+00  1.00447E+00  7.72060E-03
    9091.022     94.128   5.200  1.00900E+00  1.00488E+00  4.11652E-03
    9092.613     95.719   5.240  1.00428E+00  1.00526E+00 -9.83883E-04
    9094.217     97.322   5.280  9.97723E-01  1.00560E+00 -7.88180E-03
    9095.832     98.938   5.320  9.89106E-01  1.00590E+00 -1.67985E-02
    9097.460    100.565   5.360  9.78663E-01  1.00616E+00 -2.74986E-02
    9099.099    102.205   5.400  9.67308E-01  1.00638E+00 -3.90689E-02
    9100.751    103.857   5.440  9.56446E-01  1.00655E+00 -5.01066E-02
    9102.416    105.521   5.480  9.47423E-01  1.00669E+00 -5.92617E-02
    9104.092    107.198   5.520  9.41095E-01  1.00678E+00 -6.56806E-02
    9105.781    108.886   5.560  9.37747E-01  1.00683E+00 -6.90788E-02
    9107.481    110.587   5.600  9.37332E-01  1.00683E+00 -6.94992E-02
    9109.194    112.300   5.640  9.39631E-01  1.00677E+00 -6.71408E-02
    9110.920    114.025   5.680  9.44396E-01  1.00669E+00 -6.22950E-02
    9112.657    115.762   5.720  9.51213E-01  1.00655E+00 -5.53345E-02
    9114.406    117.512   5.760  9.59641E-01  1.00639E+00 -4.67443E-02
    9116.168    119.274   5.800  9.68870E-01  1.00616E+00 -3.72884E-02
    9117.942    121.048   5.840  9.77877E-01  1.00589E+00 -2.80162E-02
    9119.728    122.834   5.880  9.85747E-01  1.00561E+00 -1.98661E-02
    9121.527    124.632   5.920  9.92051E-01  1.00527E+00 -1.32203E-02
    9123.337    126.443   5.960  9.97094E-01  1.00489E+00 -7.79769E-03
    9125.160    128.265   6.000  1.00173E+00  1.00445E+00 -2.71340E-03
