# # comment:                                                     FEFF 9.9.1  
# # Source:
# # Structure
# # Reduced
# # space
# # abc:
# # angles:
# # sites:
# # POT  SCF 100  7.0000   0, screened core-hole, AFOLP (folp(0)= 1.150)
# # Abs   Z=29 Rmt= 1.250 Rnm= 1.322 K  shell
# # Pot 1 Z=29 Rmt= 1.271 Rnm= 1.341
# # Pot 2 Z= 5 Rmt= 0.840 Rnm= 1.012
# # Pot 3 Z= 8 Rmt= 0.887 Rnm= 1.044
# # Gam_ch=1.729E+00 H-L exch Vi= 0.000E+00 Vr= 0.000E+00
# # Mu=-6.635E+00eV kf=2.400E+00 Vint=-1.716E+01eV Rs_int= 1.511
# FMS rfms= 9.0000
# # PATH  Rmax=-1.000,  Keep_limit= 0.00, Heap_limit 0.00  Pwcrit= 2.50%
#  S02=0.950  Temp=   0.00  Debye_temp=   0.00  Global_sig2= 0.00000
#  Energy zero shift, vr, vi    0.00000E+00   0.00000E+00
#  Curved wave amplitude ratio filter   4.000%
#     file         sig2 tot  cw amp ratio   deg  nlegs   reff  inp sig2
#     0/   0 paths used
#  xsedge+ 50, used to normalize mu           2.4808E-04
#  -----------------------------------------------------------------------
#  omega    e    k    mu    mu0     chi     @#
    8983.418    -10.444  -1.000  4.12540E-02  5.25758E-02 -1.13218E-02
    8983.716    -10.146  -0.960  4.37232E-02  5.64015E-02 -1.26783E-02
    8984.003     -9.859  -0.920  4.64250E-02  6.06558E-02 -1.42308E-02
    8984.277     -9.585  -0.880  4.93907E-02  6.54022E-02 -1.60114E-02
    8984.539     -9.323  -0.840  5.26563E-02  7.07148E-02 -1.80585E-02
    8984.789     -9.073  -0.800  5.62631E-02  7.66795E-02 -2.04164E-02
    8985.027     -8.835  -0.760  6.02582E-02  8.33951E-02 -2.31369E-02
    8985.252     -8.610  -0.720  6.46941E-02  9.09732E-02 -2.62791E-02
    8985.466     -8.396  -0.680  6.96279E-02  9.95368E-02 -2.99089E-02
    8985.667     -8.195  -0.640  7.51193E-02  1.09216E-01 -3.40966E-02
    8985.856     -8.006  -0.600  8.12259E-02  1.20139E-01 -3.89126E-02
    8986.033     -7.829  -0.560  8.79956E-02  1.32414E-01 -4.44182E-02
    8986.197     -7.665  -0.520  9.54553E-02  1.46107E-01 -5.06520E-02
    8986.350     -7.512  -0.480  1.03595E-01  1.61205E-01 -5.76106E-02
    8986.490     -7.372  -0.440  1.12348E-01  1.77575E-01 -6.52266E-02
    8986.618     -7.244  -0.400  1.21580E-01  1.94930E-01 -7.33501E-02
    8986.734     -7.128  -0.360  1.31075E-01  2.12819E-01 -8.17441E-02
    8986.837     -7.025  -0.320  1.40554E-01  2.30657E-01 -9.01030E-02
    8986.929     -6.933  -0.280  1.49700E-01  2.47794E-01 -9.80939E-02
    8987.008     -6.854  -0.240  1.58200E-01  2.63608E-01 -1.05408E-01
    8987.075     -6.787  -0.200  1.65775E-01  2.77576E-01 -1.11800E-01
    8987.130     -6.732  -0.160  1.72209E-01  2.89320E-01 -1.17111E-01
    8987.173     -6.689  -0.120  1.77345E-01  2.98598E-01 -1.21253E-01
    8987.203     -6.659  -0.080  1.81082E-01  3.05280E-01 -1.24198E-01
    8987.227     -6.635   0.000  1.84128E-01  3.10647E-01 -1.26519E-01
    8987.282     -6.580   0.120  1.90907E-01  3.22733E-01 -1.31826E-01
    8987.325     -6.537   0.160  1.96214E-01  3.32117E-01 -1.35903E-01
    8987.380     -6.482   0.200  2.03098E-01  3.44111E-01 -1.41013E-01
    8987.447     -6.415   0.240  2.11482E-01  3.58501E-01 -1.47019E-01
    8987.526     -6.336   0.280  2.21323E-01  3.74983E-01 -1.53660E-01
    8987.618     -6.244   0.320  2.32524E-01  3.93141E-01 -1.60617E-01
    8987.721     -6.141   0.360  2.44900E-01  4.12411E-01 -1.67511E-01
    8987.837     -6.025   0.400  2.58275E-01  4.32239E-01 -1.73964E-01
    8987.965     -5.897   0.440  2.72455E-01  4.52059E-01 -1.79604E-01
    8988.105     -5.757   0.480  2.87265E-01  4.71466E-01 -1.84201E-01
    8988.258     -5.604   0.520  3.02566E-01  4.90204E-01 -1.87638E-01
    8988.422     -5.440   0.560  3.18152E-01  5.08158E-01 -1.90005E-01
    8988.599     -5.263   0.600  3.33751E-01  5.25315E-01 -1.91564E-01
    8988.788     -5.074   0.640  3.48879E-01  5.41698E-01 -1.92819E-01
    8988.989     -4.873   0.680  3.62742E-01  5.57404E-01 -1.94662E-01
    8989.203     -4.659   0.720  3.73959E-01  5.72547E-01 -1.98588E-01
    8989.428     -4.434   0.760  3.80838E-01  5.87219E-01 -2.06381E-01
    8989.666     -4.196   0.800  3.82712E-01  6.01503E-01 -2.18791E-01
    8989.916     -3.946   0.840  3.81221E-01  6.15508E-01 -2.34287E-01
    8990.178     -3.684   0.880  3.79701E-01  6.29272E-01 -2.49571E-01
    8990.452     -3.410   0.920  3.81319E-01  6.42838E-01 -2.61519E-01
    8990.739     -3.123   0.960  3.87599E-01  6.56258E-01 -2.68660E-01
    8991.037     -2.825   1.000  3.98709E-01  6.69553E-01 -2.70844E-01
    8991.348     -2.514   1.040  4.14312E-01  6.82734E-01 -2.68422E-01
    8991.671     -2.191   1.080  4.33803E-01  6.95826E-01 -2.62022E-01
    8992.007     -1.855   1.120  4.56113E-01  7.08826E-01 -2.52713E-01
    8992.354     -1.508   1.160  4.79683E-01  7.21706E-01 -2.42023E-01
    8992.714     -1.148   1.200  5.03355E-01  7.34495E-01 -2.31140E-01
    8993.086     -0.776   1.240  5.28292E-01  7.47136E-01 -2.18844E-01
    8993.470     -0.392   1.280  5.57876E-01  7.59649E-01 -2.01773E-01
    8993.866      0.004   1.320  5.94091E-01  7.72015E-01 -1.77924E-01
    8994.274      0.412   1.360  6.35490E-01  7.84210E-01 -1.48720E-01
    8994.695      0.833   1.400  6.79953E-01  7.96189E-01 -1.16236E-01
    8995.128      1.266   1.440  7.27644E-01  8.07987E-01 -8.03433E-02
    8995.573      1.711   1.480  7.79304E-01  8.19517E-01 -4.02129E-02
    8996.030      2.168   1.520  8.33721E-01  8.30811E-01  2.90958E-03
    8996.499      2.637   1.560  8.89142E-01  8.41825E-01  4.73172E-02
    8996.981      3.119   1.600  9.47336E-01  8.52551E-01  9.47850E-02
    8997.475      3.613   1.640  1.01121E+00  8.62962E-01  1.48249E-01
    8997.981      4.119   1.680  1.07750E+00  8.73031E-01  2.04468E-01
    8998.499      4.637   1.720  1.13281E+00  8.82773E-01  2.50039E-01
    8999.029      5.167   1.760  1.16600E+00  8.92163E-01  2.73833E-01
    8999.572      5.710   1.800  1.18099E+00  9.01176E-01  2.79815E-01
    9000.127      6.265   1.840  1.18593E+00  9.09829E-01  2.76104E-01
    9000.693      6.832   1.880  1.17500E+00  9.18077E-01  2.56918E-01
    9001.273      7.411   1.920  1.14449E+00  9.25939E-01  2.18550E-01
    9001.864      8.002   1.960  1.10797E+00  9.33393E-01  1.74582E-01
    9002.467      8.605   2.000  1.08085E+00  9.40458E-01  1.40391E-01
    9003.083      9.221   2.040  1.07078E+00  9.47134E-01  1.23646E-01
    9003.711      9.849   2.080  1.07831E+00  9.53382E-01  1.24925E-01
    9004.351     10.489   2.120  1.09924E+00  9.59245E-01  1.39996E-01
    9005.003     11.141   2.160  1.12947E+00  9.64724E-01  1.64744E-01
    9005.668     11.806   2.200  1.16112E+00  9.69803E-01  1.91321E-01
    9006.344     12.482   2.240  1.18226E+00  9.74506E-01  2.07756E-01
    9007.033     13.171   2.280  1.18897E+00  9.78837E-01  2.10133E-01
    9007.734     13.872   2.320  1.19074E+00  9.82801E-01  2.07938E-01
    9008.448     14.586   2.360  1.19805E+00  9.86423E-01  2.11623E-01
    9009.173     15.311   2.400  1.20798E+00  9.89689E-01  2.18292E-01
    9009.911     16.049   2.440  1.21072E+00  9.92624E-01  2.18094E-01
    9010.660     16.798   2.480  1.20564E+00  9.95234E-01  2.10406E-01
    9011.422     17.560   2.520  1.19411E+00  9.97550E-01  1.96556E-01
    9012.197     18.335   2.560  1.17058E+00  9.99575E-01  1.71003E-01
    9012.983     19.121   2.600  1.12992E+00  1.00132E+00  1.28605E-01
    9013.782     19.920   2.640  1.07437E+00  1.00279E+00  7.15830E-02
    9014.592     20.730   2.680  1.01339E+00  1.00403E+00  9.36142E-03
    9015.415     21.553   2.720  9.59444E-01  1.00503E+00 -4.55837E-02
    9016.250     22.388   2.760  9.20890E-01  1.00580E+00 -8.49056E-02
    9017.098     23.236   2.800  9.02359E-01  1.00638E+00 -1.04017E-01
    9017.957     24.095   2.840  8.95753E-01  1.00674E+00 -1.10988E-01
    9018.829     24.967   2.880  8.93117E-01  1.00696E+00 -1.13839E-01
    9019.713     25.851   2.920  8.92941E-01  1.00701E+00 -1.14065E-01
    9020.609     26.747   2.960  8.95016E-01  1.00690E+00 -1.11884E-01
    9021.517     27.655   3.000  8.98741E-01  1.00664E+00 -1.07903E-01
    9022.438     28.576   3.040  9.03147E-01  1.00628E+00 -1.03137E-01
    9023.371     29.509   3.080  9.06974E-01  1.00581E+00 -9.88349E-02
    9024.315     30.453   3.120  9.09561E-01  1.00524E+00 -9.56822E-02
    9025.272     31.410   3.160  9.10775E-01  1.00459E+00 -9.38193E-02
    9026.242     32.380   3.200  9.10872E-01  1.00387E+00 -9.29934E-02
    9027.223     33.361   3.240  9.10380E-01  1.00306E+00 -9.26826E-02
    9028.217     34.355   3.280  9.10002E-01  1.00221E+00 -9.22102E-02
    9029.223     35.361   3.320  9.09962E-01  1.00134E+00 -9.13787E-02
    9030.241     36.379   3.360  9.10138E-01  1.00041E+00 -9.02707E-02
    9031.271     37.409   3.400  9.10448E-01  9.99462E-01 -8.90147E-02
    9032.313     38.451   3.440  9.10767E-01  9.98486E-01 -8.77185E-02
    9033.368     39.506   3.480  9.11182E-01  9.97504E-01 -8.63218E-02
    9034.435     40.573   3.520  9.12032E-01  9.96520E-01 -8.44881E-02
    9035.514     41.652   3.560  9.13839E-01  9.95560E-01 -8.17206E-02
    9036.605     42.743   3.600  9.16830E-01  9.94605E-01 -7.77749E-02
    9037.708     43.846   3.640  9.21270E-01  9.93656E-01 -7.23864E-02
    9038.824     44.962   3.680  9.27311E-01  9.92737E-01 -6.54257E-02
    9039.952     46.090   3.720  9.34876E-01  9.91829E-01 -5.69532E-02
    9041.092     47.230   3.760  9.43825E-01  9.90957E-01 -4.71320E-02
    9042.244     48.382   3.800  9.54031E-01  9.90144E-01 -3.61127E-02
    9043.408     49.546   3.840  9.65280E-01  9.89348E-01 -2.40689E-02
    9044.585     50.723   3.880  9.77426E-01  9.88593E-01 -1.11672E-02
    9045.773     51.911   3.920  9.90395E-01  9.87899E-01  2.49561E-03
    9046.974     53.112   3.960  1.00397E+00  9.87229E-01  1.67375E-02
    9048.187     54.325   4.000  1.01779E+00  9.86624E-01  3.11700E-02
    9049.413     55.551   4.040  1.03130E+00  9.86085E-01  4.52111E-02
    9050.650     56.788   4.080  1.04365E+00  9.85571E-01  5.80775E-02
    9051.900     58.038   4.120  1.05404E+00  9.85123E-01  6.89170E-02
    9053.162     59.300   4.160  1.06190E+00  9.84743E-01  7.71599E-02
    9054.436     60.574   4.200  1.06704E+00  9.84387E-01  8.26541E-02
    9055.722     61.860   4.240  1.06975E+00  9.84099E-01  8.56487E-02
    9057.020     63.158   4.280  1.07049E+00  9.83880E-01  8.66079E-02
    9058.331     64.469   4.320  1.06977E+00  9.83706E-01  8.60616E-02
    9059.654     65.792   4.360  1.06789E+00  9.83576E-01  8.43108E-02
    9060.989     67.127   4.400  1.06490E+00  9.83492E-01  8.14071E-02
    9062.336     68.474   4.440  1.06078E+00  9.83474E-01  7.73106E-02
    9063.695     69.833   4.480  1.05549E+00  9.83500E-01  7.19885E-02
    9065.067     71.205   4.520  1.04910E+00  9.83570E-01  6.55250E-02
    9066.451     72.589   4.560  1.04189E+00  9.83703E-01  5.81839E-02
    9067.847     73.985   4.600  1.03417E+00  9.83854E-01  5.03112E-02
    9069.255     75.393   4.640  1.02623E+00  9.84044E-01  4.21819E-02
    9070.675     76.813   4.680  1.01826E+00  9.84295E-01  3.39648E-02
    9072.108     78.246   4.720  1.01033E+00  9.84563E-01  2.57646E-02
    9073.553     79.691   4.760  1.00258E+00  9.84866E-01  1.77185E-02
    9075.010     81.148   4.800  9.95274E-01  9.85203E-01  1.00715E-02
    9076.479     82.617   4.840  9.88591E-01  9.85551E-01  3.04060E-03
    9077.960     84.098   4.880  9.82600E-01  9.85932E-01 -3.33157E-03
    9079.453     85.591   4.920  9.77216E-01  9.86344E-01 -9.12804E-03
    9080.959     87.097   4.960  9.72322E-01  9.86762E-01 -1.44394E-02
    9082.477     88.615   5.000  9.67917E-01  9.87184E-01 -1.92664E-02
    9084.007     90.145   5.040  9.64021E-01  9.87611E-01 -2.35900E-02
    9085.549     91.687   5.080  9.60614E-01  9.88063E-01 -2.74482E-02
    9087.104     93.242   5.120  9.57637E-01  9.88517E-01 -3.08802E-02
    9088.671     94.809   5.160  9.55106E-01  9.88972E-01 -3.38653E-02
    9090.249     96.387   5.200  9.53164E-01  9.89424E-01 -3.62603E-02
    9091.841     97.979   5.240  9.52025E-01  9.89850E-01 -3.78253E-02
    9093.444     99.582   5.280  9.52063E-01  9.90292E-01 -3.82293E-02
    9095.059    101.197   5.320  9.53522E-01  9.90707E-01 -3.71848E-02
    9096.687    102.825   5.360  9.56432E-01  9.91092E-01 -3.46604E-02
    9098.327    104.465   5.400  9.60495E-01  9.91489E-01 -3.09936E-02
    9099.979    106.117   5.440  9.65043E-01  9.91832E-01 -2.67887E-02
    9101.643    107.781   5.480  9.69424E-01  9.92163E-01 -2.27395E-02
    9103.319    109.457   5.520  9.72943E-01  9.92483E-01 -1.95404E-02
    9105.008    111.146   5.560  9.74994E-01  9.92745E-01 -1.77505E-02
    9106.709    112.847   5.600  9.75388E-01  9.92991E-01 -1.76033E-02
    9108.422    114.560   5.640  9.74245E-01  9.93200E-01 -1.89548E-02
    9110.147    116.285   5.680  9.71971E-01  9.93371E-01 -2.13997E-02
    9111.884    118.022   5.720  9.69042E-01  9.93505E-01 -2.44621E-02
    9113.634    119.772   5.760  9.65940E-01  9.93621E-01 -2.76812E-02
    9115.395    121.533   5.800  9.63030E-01  9.93675E-01 -3.06451E-02
    9117.169    123.307   5.840  9.60696E-01  9.93686E-01 -3.29902E-02
    9118.955    125.093   5.880  9.59267E-01  9.93657E-01 -3.43904E-02
    9120.754    126.892   5.920  9.59057E-01  9.93589E-01 -3.45314E-02
    9122.564    128.702   5.960  9.60372E-01  9.93476E-01 -3.31041E-02
    9124.387    130.525   6.000  9.63672E-01  9.93296E-01 -2.96241E-02
