# # comment:                                                     FEFF 9.9.1  
# # Source:
# # Structure
# # Reduced
# # space
# # abc:
# # angles:
# # sites:
# # POT  SCF 100  7.0000   0, screened core-hole, AFOLP (folp(0)= 1.150)
# # Abs   Z=29 Rmt= 1.239 Rnm= 1.329 K  shell
# # Pot 1 Z=23 Rmt= 1.086 Rnm= 1.309
# # Pot 2 Z=29 Rmt= 1.242 Rnm= 1.331
# # Pot 3 Z=83 Rmt= 1.616 Rnm= 1.702
# # Pot 4 Z= 8 Rmt= 1.042 Rnm= 1.113
# # Gam_ch=1.729E+00 H-L exch Vi= 0.000E+00 Vr= 0.000E+00
# # Mu=-7.150E+00eV kf=2.145E+00 Vint=-1.539E+01eV Rs_int= 1.691
# FMS rfms= 9.0000
# # PATH  Rmax=-1.000,  Keep_limit= 0.00, Heap_limit 0.00  Pwcrit= 2.50%
#  S02=0.950  Temp=   0.00  Debye_temp=   0.00  Global_sig2= 0.00000
#  Energy zero shift, vr, vi    0.00000E+00   0.00000E+00
#  Curved wave amplitude ratio filter   4.000%
#     file         sig2 tot  cw amp ratio   deg  nlegs   reff  inp sig2
#     0/   0 paths used
#  xsedge+ 50, used to normalize mu           2.4516E-04
#  -----------------------------------------------------------------------
#  omega    e    k    mu    mu0     chi     @#
    8983.703    -10.960  -1.000  3.70213E-02  5.38431E-02 -1.68219E-02
    8984.002    -10.661  -0.960  3.89387E-02  5.77475E-02 -1.88087E-02
    8984.288    -10.374  -0.920  4.10026E-02  6.20845E-02 -2.10819E-02
    8984.563    -10.100  -0.880  4.32290E-02  6.69177E-02 -2.36887E-02
    8984.825     -9.838  -0.840  4.56361E-02  7.23209E-02 -2.66847E-02
    8985.075     -9.588  -0.800  4.82445E-02  7.83795E-02 -3.01351E-02
    8985.313     -9.350  -0.760  5.10767E-02  8.51917E-02 -3.41150E-02
    8985.538     -9.125  -0.720  5.41577E-02  9.28682E-02 -3.87105E-02
    8985.751     -8.911  -0.680  5.75137E-02  1.01531E-01 -4.40172E-02
    8985.953     -8.710  -0.640  6.11712E-02  1.11308E-01 -5.01371E-02
    8986.142     -8.521  -0.600  6.51549E-02  1.22327E-01 -5.71718E-02
    8986.318     -8.344  -0.560  6.94837E-02  1.34694E-01 -6.52099E-02
    8986.483     -8.180  -0.520  7.41657E-02  1.48473E-01 -7.43071E-02
    8986.635     -8.027  -0.480  7.91909E-02  1.63650E-01 -8.44586E-02
    8986.776     -7.887  -0.440  8.45233E-02  1.80091E-01 -9.55677E-02
    8986.904     -7.759  -0.400  9.00927E-02  1.97512E-01 -1.07419E-01
    8987.019     -7.643  -0.360  9.57918E-02  2.15463E-01 -1.19671E-01
    8987.123     -7.540  -0.320  1.01479E-01  2.33363E-01 -1.31885E-01
    8987.215     -7.448  -0.280  1.06989E-01  2.50565E-01 -1.43577E-01
    8987.294     -7.369  -0.240  1.12149E-01  2.66446E-01 -1.54298E-01
    8987.361     -7.302  -0.200  1.16796E-01  2.80484E-01 -1.63688E-01
    8987.416     -7.247  -0.160  1.20790E-01  2.92296E-01 -1.71506E-01
    8987.458     -7.204  -0.120  1.24019E-01  3.01635E-01 -1.77617E-01
    8987.489     -7.174  -0.080  1.26399E-01  3.08365E-01 -1.81966E-01
    8987.513     -7.150   0.000  1.28381E-01  3.13773E-01 -1.85392E-01
    8987.568     -7.095   0.120  1.32795E-01  3.25969E-01 -1.93174E-01
    8987.611     -7.052   0.160  1.36250E-01  3.35455E-01 -1.99205E-01
    8987.666     -6.997   0.200  1.40736E-01  3.47557E-01 -2.06821E-01
    8987.733     -6.930   0.240  1.46290E-01  3.62137E-01 -2.15847E-01
    8987.812     -6.851   0.280  1.52944E-01  3.78912E-01 -2.25967E-01
    8987.903     -6.759   0.320  1.60619E-01  3.97425E-01 -2.36806E-01
    8988.007     -6.656   0.360  1.69267E-01  4.17181E-01 -2.47913E-01
    8988.123     -6.540   0.400  1.78760E-01  4.37605E-01 -2.58845E-01
    8988.251     -6.412   0.440  1.88956E-01  4.58194E-01 -2.69237E-01
    8988.391     -6.272   0.480  1.99832E-01  4.78556E-01 -2.78724E-01
    8988.543     -6.119   0.520  2.11425E-01  4.98403E-01 -2.86977E-01
    8988.708     -5.955   0.560  2.24013E-01  5.17616E-01 -2.93604E-01
    8988.885     -5.778   0.600  2.37924E-01  5.36164E-01 -2.98241E-01
    8989.074     -5.589   0.640  2.53286E-01  5.54120E-01 -3.00834E-01
    8989.275     -5.388   0.680  2.69283E-01  5.71490E-01 -3.02207E-01
    8989.488     -5.174   0.720  2.83968E-01  5.88419E-01 -3.04452E-01
    8989.714     -4.949   0.760  2.94451E-01  6.04963E-01 -3.10512E-01
    8989.952     -4.711   0.800  2.99110E-01  6.21172E-01 -3.22061E-01
    8990.202     -4.461   0.840  2.99852E-01  6.37122E-01 -3.37270E-01
    8990.464     -4.199   0.880  3.01762E-01  6.52880E-01 -3.51118E-01
    8990.738     -3.925   0.920  3.10228E-01  6.68414E-01 -3.58187E-01
    8991.024     -3.638   0.960  3.28586E-01  6.83782E-01 -3.55197E-01
    8991.323     -3.340   1.000  3.56637E-01  6.98975E-01 -3.42338E-01
    8991.634     -3.029   1.040  3.90738E-01  7.13988E-01 -3.23250E-01
    8991.957     -2.706   1.080  4.27620E-01  7.28817E-01 -3.01197E-01
    8992.292     -2.370   1.120  4.67982E-01  7.43428E-01 -2.75446E-01
    8992.640     -2.023   1.160  5.13547E-01  7.57824E-01 -2.44277E-01
    8993.000     -1.663   1.200  5.62119E-01  7.71961E-01 -2.09842E-01
    8993.371     -1.291   1.240  6.04229E-01  7.85815E-01 -1.81586E-01
    8993.755     -0.907   1.280  6.27097E-01  7.99362E-01 -1.72265E-01
    8994.152     -0.511   1.320  6.28353E-01  8.12572E-01 -1.84219E-01
    8994.560     -0.103   1.360  6.20230E-01  8.25397E-01 -2.05168E-01
    8994.981      0.318   1.400  6.18143E-01  8.37851E-01 -2.19708E-01
    8995.414      0.751   1.440  6.30391E-01  8.49885E-01 -2.19494E-01
    8995.859      1.196   1.480  6.59002E-01  8.61492E-01 -2.02490E-01
    8996.316      1.653   1.520  7.00988E-01  8.72644E-01 -1.71656E-01
    8996.785      2.122   1.560  7.51057E-01  8.83315E-01 -1.32258E-01
    8997.267      2.604   1.600  8.08776E-01  8.93522E-01 -8.47466E-02
    8997.761      3.098   1.640  8.75471E-01  9.03221E-01 -2.77500E-02
    8998.267      3.604   1.680  9.44724E-01  9.12408E-01  3.23159E-02
    8998.785      4.122   1.720  1.00879E+00  9.21084E-01  8.77080E-02
    8999.315      4.652   1.760  1.07248E+00  9.29268E-01  1.43208E-01
    8999.858      5.195   1.800  1.14508E+00  9.36923E-01  2.08161E-01
    9000.412      5.750   1.840  1.22537E+00  9.44093E-01  2.81272E-01
    9000.979      6.316   1.880  1.30359E+00  9.50762E-01  3.52828E-01
    9001.558      6.896   1.920  1.37159E+00  9.56935E-01  4.14655E-01
    9002.150      7.487   1.960  1.42560E+00  9.62638E-01  4.62963E-01
    9002.753      8.090   2.000  1.46769E+00  9.67878E-01  4.99813E-01
    9003.369      8.706   2.040  1.49325E+00  9.72664E-01  5.20588E-01
    9003.997      9.334   2.080  1.49172E+00  9.77024E-01  5.14700E-01
    9004.637      9.974   2.120  1.45840E+00  9.80968E-01  4.77433E-01
    9005.289     10.626   2.160  1.39340E+00  9.84505E-01  4.08893E-01
    9005.954     11.291   2.200  1.30673E+00  9.87664E-01  3.19070E-01
    9006.630     11.967   2.240  1.22216E+00  9.90478E-01  2.31682E-01
    9007.319     12.656   2.280  1.15692E+00  9.92955E-01  1.63964E-01
    9008.020     13.357   2.320  1.11005E+00  9.95087E-01  1.14960E-01
    9008.733     14.071   2.360  1.07253E+00  9.96945E-01  7.55822E-02
    9009.459     14.796   2.400  1.03938E+00  9.98520E-01  4.08561E-02
    9010.196     15.534   2.440  1.01110E+00  9.99842E-01  1.12560E-02
    9010.946     16.283   2.480  9.89843E-01  1.00094E+00 -1.10981E-02
    9011.708     17.045   2.520  9.77830E-01  1.00181E+00 -2.39753E-02
    9012.482     17.820   2.560  9.75244E-01  1.00247E+00 -2.72216E-02
    9013.269     18.606   2.600  9.70530E-01  1.00295E+00 -3.24208E-02
    9014.067     19.405   2.640  9.60632E-01  1.00327E+00 -4.26383E-02
    9014.878     20.215   2.680  9.49237E-01  1.00343E+00 -5.41968E-02
    9015.701     21.038   2.720  9.38863E-01  1.00349E+00 -6.46270E-02
    9016.536     21.873   2.760  9.30221E-01  1.00340E+00 -7.31831E-02
    9017.383     22.721   2.800  9.24011E-01  1.00325E+00 -7.92365E-02
    9018.243     23.580   2.840  9.20384E-01  1.00298E+00 -8.26006E-02
    9019.115     24.452   2.880  9.18578E-01  1.00264E+00 -8.40640E-02
    9019.999     25.336   2.920  9.17568E-01  1.00227E+00 -8.47004E-02
    9020.895     26.232   2.960  9.16411E-01  1.00181E+00 -8.53965E-02
    9021.803     27.140   3.000  9.14528E-01  1.00135E+00 -8.68189E-02
    9022.724     28.061   3.040  9.11608E-01  1.00083E+00 -8.92218E-02
    9023.656     28.994   3.080  9.08059E-01  1.00030E+00 -9.22428E-02
    9024.601     29.938   3.120  9.04357E-01  9.99768E-01 -9.54107E-02
    9025.558     30.895   3.160  9.01134E-01  9.99230E-01 -9.80960E-02
    9026.527     31.865   3.200  8.99036E-01  9.98694E-01 -9.96581E-02
    9027.509     32.846   3.240  8.98407E-01  9.98162E-01 -9.97559E-02
    9028.503     33.840   3.280  8.99208E-01  9.97658E-01 -9.84503E-02
    9029.508     34.846   3.320  9.01192E-01  9.97163E-01 -9.59711E-02
    9030.526     35.864   3.360  9.04080E-01  9.96701E-01 -9.26214E-02
    9031.557     36.894   3.400  9.07382E-01  9.96276E-01 -8.88940E-02
    9032.599     37.936   3.440  9.10758E-01  9.95888E-01 -8.51304E-02
    9033.654     38.991   3.480  9.14133E-01  9.95537E-01 -8.14047E-02
    9034.720     40.058   3.520  9.17712E-01  9.95204E-01 -7.74924E-02
    9035.799     41.137   3.560  9.21989E-01  9.94934E-01 -7.29445E-02
    9036.891     42.228   3.600  9.27470E-01  9.94705E-01 -6.72351E-02
    9037.994     43.331   3.640  9.34550E-01  9.94520E-01 -5.99694E-02
    9039.110     44.447   3.680  9.43433E-01  9.94399E-01 -5.09653E-02
    9040.237     45.575   3.720  9.54048E-01  9.94299E-01 -4.02511E-02
    9041.377     46.715   3.760  9.66263E-01  9.94263E-01 -2.80003E-02
    9042.529     47.867   3.800  9.79704E-01  9.94270E-01 -1.45656E-02
    9043.694     49.031   3.840  9.94023E-01  9.94319E-01 -2.96094E-04
    9044.870     50.207   3.880  1.00898E+00  9.94410E-01  1.45746E-02
    9046.059     51.396   3.920  1.02437E+00  9.94543E-01  2.98270E-02
    9047.260     52.597   3.960  1.03987E+00  9.94737E-01  4.51278E-02
    9048.473     53.810   4.000  1.05503E+00  9.94950E-01  6.00756E-02
    9049.698     55.036   4.040  1.06944E+00  9.95204E-01  7.42360E-02
    9050.936     56.273   4.080  1.08253E+00  9.95517E-01  8.70118E-02
    9052.185     57.523   4.120  1.09345E+00  9.95846E-01  9.76036E-02
    9053.447     58.785   4.160  1.10128E+00  9.96211E-01  1.05068E-01
    9054.721     60.059   4.200  1.10505E+00  9.96610E-01  1.08444E-01
    9056.008     61.345   4.240  1.10419E+00  9.97020E-01  1.07168E-01
    9057.306     62.643   4.280  1.09882E+00  9.97463E-01  1.01358E-01
    9058.617     63.954   4.320  1.08964E+00  9.97938E-01  9.17002E-02
    9059.939     65.277   4.360  1.07768E+00  9.98419E-01  7.92604E-02
    9061.274     66.612   4.400  1.06425E+00  9.98907E-01  6.53420E-02
    9062.622     67.959   4.440  1.05067E+00  9.99421E-01  5.12484E-02
    9063.981     69.318   4.480  1.03799E+00  9.99938E-01  3.80504E-02
    9065.353     70.690   4.520  1.02687E+00  1.00046E+00  2.64165E-02
    9066.736     72.074   4.560  1.01758E+00  1.00098E+00  1.66084E-02
    9068.132     73.470   4.600  1.01010E+00  1.00149E+00  8.61112E-03
    9069.541     74.878   4.640  1.00429E+00  1.00201E+00  2.28008E-03
    9070.961     76.298   4.680  9.99863E-01  1.00252E+00 -2.65934E-03
    9072.394     77.731   4.720  9.96422E-01  1.00303E+00 -6.61005E-03
    9073.838     79.176   4.760  9.93640E-01  1.00354E+00 -9.89547E-03
    9075.295     80.633   4.800  9.91463E-01  1.00401E+00 -1.25431E-02
    9076.764     82.102   4.840  9.90135E-01  1.00444E+00 -1.43088E-02
    9078.246     83.583   4.880  9.89987E-01  1.00487E+00 -1.48861E-02
    9079.739     85.076   4.920  9.91119E-01  1.00529E+00 -1.41729E-02
    9081.245     86.582   4.960  9.93305E-01  1.00568E+00 -1.23698E-02
    9082.763     88.100   5.000  9.96111E-01  1.00602E+00 -9.91079E-03
    9084.293     89.630   5.040  9.98990E-01  1.00633E+00 -7.34196E-03
    9085.835     91.172   5.080  1.00140E+00  1.00663E+00 -5.22343E-03
    9087.390     92.727   5.120  1.00277E+00  1.00689E+00 -4.12058E-03
    9088.956     94.294   5.160  1.00253E+00  1.00711E+00 -4.57645E-03
    9090.535     95.872   5.200  1.00036E+00  1.00731E+00 -6.95528E-03
    9092.126     97.463   5.240  9.96178E-01  1.00746E+00 -1.12773E-02
    9093.729     99.067   5.280  9.90441E-01  1.00756E+00 -1.71152E-02
    9095.345    100.682   5.320  9.83942E-01  1.00764E+00 -2.36982E-02
    9096.973    102.310   5.360  9.77585E-01  1.00766E+00 -3.00771E-02
    9098.612    103.950   5.400  9.72234E-01  1.00767E+00 -3.54321E-02
    9100.264    105.602   5.440  9.68400E-01  1.00763E+00 -3.92313E-02
    9101.929    107.266   5.480  9.66233E-01  1.00755E+00 -4.13213E-02
    9103.605    108.942   5.520  9.65574E-01  1.00741E+00 -4.18407E-02
    9105.294    110.631   5.560  9.66201E-01  1.00726E+00 -4.10565E-02
    9106.994    112.332   5.600  9.67944E-01  1.00706E+00 -3.91179E-02
    9108.707    114.045   5.640  9.70706E-01  1.00683E+00 -3.61239E-02
    9110.432    115.770   5.680  9.74252E-01  1.00658E+00 -3.23306E-02
    9112.170    117.507   5.720  9.78040E-01  1.00627E+00 -2.82350E-02
    9113.919    119.257   5.760  9.81631E-01  1.00595E+00 -2.43194E-02
    9115.681    121.018   5.800  9.84797E-01  1.00557E+00 -2.07749E-02
    9117.455    122.792   5.840  9.87767E-01  1.00520E+00 -1.74363E-02
    9119.241    124.578   5.880  9.90790E-01  1.00478E+00 -1.39909E-02
    9121.039    126.377   5.920  9.94130E-01  1.00435E+00 -1.02211E-02
    9122.850    128.187   5.960  9.97677E-01  1.00389E+00 -6.21790E-03
    9124.673    130.010   6.000  1.00107E+00  1.00339E+00 -2.31616E-03
